DTS Sentinel unit serial number:	SN413079Multiplexer serial number:	ORYXHardware model number:	OX4-SRSoftware version number:	ORYX F/W v4.00 Oryx Data Collector v3.7.2.0data status	okinstallation	princeton_trtdifferential loss correction	single-endedforward channel	channel 3reverse channel	N/Adate	2019/09/17time	04:48:35forward acquisition time	60.00reverse acquisition time	0.00gamma	496.2192k internal	0.2323k external	0.2323temperature offset calibration	0.9945default loss term (dB/km)	0.3790temperature slope calibration	1.0000multiplexer offset coefficient	1.0000multiplexer slope coefficient	1.0000fibre end	0.00T internal ref (°C)	29.56T ext. ref 1 (°C)	0.12T ext. ref 2 (°C)	24.00length (m)	temperature (°C)	Stokes	anti-Stokes-747.200	-66.088	-0.412	0.166
-746.185	-21.531	-0.160	0.099
-745.171	422.040	-0.123	0.266
-744.156	-39.987	0.146	-0.077
-743.142	232.206	-0.148	-0.245
-742.127	-105.248	-0.233	0.054
-741.112	-200.000	-0.025	-0.316
-740.098	-134.027	0.233	-0.029
-739.083	15.553	-0.095	-0.075
-738.069	26.177	0.248	0.209
-737.054	-154.852	0.363	0.024
-736.039	-200.000	-0.033	0.229
-735.025	658.902	-0.045	-0.118
-734.010	-131.681	-0.184	-0.024
-732.996	-50.182	-0.076	0.036
-731.981	-19.037	0.134	-0.084
-730.966	-200.000	-0.007	-0.050
-729.952	42.418	-0.089	-0.082
-728.937	464.859	-0.066	0.148
-727.923	43.430	-0.167	-0.154
-726.908	-51.262	0.100	-0.047
-725.894	-12.241	0.381	-0.251
-724.879	800.000	-0.011	0.033
-723.864	-200.000	-0.002	-0.066
-722.850	800.000	-0.107	-0.334
-721.835	800.000	0.090	-0.349
-720.821	91.954	0.165	0.187
-719.806	-36.918	-0.114	-0.062
-718.791	501.501	-0.138	0.322
-717.777	587.855	0.101	-0.251
-716.762	117.475	0.155	-0.192
-715.748	-28.801	0.221	-0.128
-714.733	-200.000	-0.001	0.144
-713.718	4.167	0.131	0.097
-712.704	-46.680	0.356	0.176
-711.689	-40.427	-0.214	0.112
-710.675	-200.000	-0.003	-0.162
-709.660	800.000	-0.094	-0.285
-708.645	480.245	0.123	0.281
-707.631	-42.014	0.282	0.146
-706.616	16.479	-0.189	0.150
-705.602	214.601	0.045	-0.072
-704.587	-146.504	-0.249	-0.022
-703.572	85.199	-0.082	-0.091
-702.558	776.500	0.067	0.185
-701.543	279.660	0.145	-0.262
-700.529	100.912	0.224	-0.263
-699.514	-99.056	-0.160	0.041
-698.499	547.098	0.084	0.204
-697.485	-92.297	-0.076	0.022
-696.470	-112.507	-0.131	0.026
-695.456	800.000	0.060	-0.249
-694.441	375.606	0.188	-0.386
-693.426	-200.000	-0.023	-0.443
-692.412	-200.000	-0.018	-0.110
-691.397	329.023	0.127	-0.245
-690.383	-99.028	0.081	0.021
-689.368	385.176	-0.061	-0.126
-688.354	-200.000	0.016	-0.158
-687.339	-200.000	0.010	-0.209
-686.324	399.097	-0.055	-0.115
-685.310	-32.475	-0.154	0.087
-684.295	132.741	-0.128	-0.166
-683.281	418.916	-0.107	-0.231
-682.266	40.908	0.208	-0.189
-681.251	0.994	-0.179	-0.129
-680.237	-38.610	-0.248	0.132
-679.222	-100.635	-0.163	-0.040
-678.208	227.213	0.183	0.300
-677.193	-200.000	-0.007	0.149
-676.178	-101.713	-0.310	-0.076
-675.164	-149.868	-0.302	-0.024
-674.149	74.872	0.207	-0.220
-673.135	-200.000	0.003	-0.125
-672.120	132.211	0.172	-0.223
-671.105	-102.331	0.375	-0.091
-670.091	-118.020	-0.027	0.005
-669.076	67.794	-0.044	0.046
-668.062	0.338	-0.149	0.107
-667.047	-200.000	0.028	-0.325
-666.032	-52.792	-0.245	0.114
-665.018	120.534	-0.199	0.249
-664.003	129.645	0.080	0.103
-662.989	-77.605	-0.238	0.083
-661.974	-134.986	-0.274	-0.033
-660.959	-16.639	0.391	0.249
-659.945	79.284	-0.191	0.206
-658.930	-200.000	0.008	0.058
-657.916	406.907	-0.136	-0.290
-656.901	-100.802	0.261	0.065
-655.886	104.308	-0.156	-0.185
-654.872	800.000	0.063	0.244
-653.857	44.486	0.041	-0.038
-652.843	69.791	-0.277	-0.287
-651.828	49.016	0.258	-0.243
-650.814	-99.679	-0.483	0.122
-649.799	-37.039	-0.329	-0.177
-648.784	-74.883	-0.232	0.084
-647.770	-151.777	0.479	-0.035
-646.755	-97.817	0.157	-0.041
-645.741	-99.988	0.084	-0.021
-644.726	-121.793	0.300	0.050
-643.711	800.000	-0.115	0.343
-642.697	800.000	-0.055	0.154
-641.682	-37.178	-0.362	0.195
-640.668	-7.972	-0.161	0.110
-639.653	800.000	0.033	0.101
-638.638	-130.735	0.323	0.044
-637.624	-138.924	0.237	-0.026
-636.609	150.717	-0.188	-0.257
-635.595	-127.679	0.149	0.022
-634.580	800.000	-0.138	0.432
-633.565	87.195	-0.113	-0.126
-632.551	-70.648	-0.145	0.055
-631.536	800.000	0.069	-0.289
-630.522	455.790	0.086	-0.193
-629.507	-5.775	0.267	-0.184
-628.492	-200.000	-0.050	0.293
-627.478	-200.000	0.032	-0.236
-626.463	50.150	-0.094	-0.089
-625.449	-200.000	0.001	0.046
-624.434	800.000	-0.047	-0.158
-623.419	97.076	0.157	0.181
-622.405	-200.000	0.044	-0.647
-621.390	593.960	0.155	0.385
-620.376	-96.219	-0.434	0.116
-619.361	800.000	-0.042	-0.183
-618.346	139.095	0.067	-0.088
-617.332	-78.341	-0.201	0.069
-616.317	-108.075	-0.086	0.019
-615.303	-146.761	0.247	-0.021
-614.288	-115.696	-0.075	-0.014
-613.273	-200.000	-0.035	-0.443
-612.259	-118.180	-0.121	0.022
-611.244	800.000	0.059	0.198
-610.230	208.467	0.132	-0.208
-609.215	-200.000	-0.014	0.351
-608.201	626.855	-0.054	-0.136
-607.186	-97.807	0.065	0.017
-606.171	90.826	-0.052	0.058
-605.157	-200.000	-0.030	-0.348
-604.142	-200.000	-0.037	-0.201
-603.128	800.000	-0.050	-0.198
-602.113	-177.052	-0.127	0.003
-601.098	-77.039	-0.100	-0.035
-600.084	800.000	0.048	0.187
-599.069	-52.473	-0.293	0.136
-598.055	-67.166	0.216	0.085
-597.040	800.000	0.009	-0.027
-596.025	30.557	0.116	0.100
-595.011	-200.000	-0.041	0.395
-593.996	-111.828	-0.318	0.065
-592.982	-45.317	-0.079	0.039
-591.967	231.322	0.168	-0.276
-590.952	-18.140	-0.209	-0.131
-589.938	800.000	-0.140	0.389
-588.923	-194.301	-0.231	-0.002
-587.909	-152.287	0.318	-0.023
-586.894	-81.406	-0.351	-0.116
-585.879	800.000	0.081	0.232
-584.865	-107.395	-0.225	-0.049
-583.850	70.671	-0.246	0.256
-582.836	-200.000	-0.014	-0.075
-581.821	-92.359	0.231	0.065
-580.806	800.000	0.068	0.193
-579.792	-108.531	0.332	-0.072
-578.777	-200.000	-0.043	0.216
-577.763	586.067	-0.062	-0.152
-576.748	89.365	0.325	0.363
-575.733	-200.000	0.056	-0.271
-574.719	281.552	0.138	-0.248
-573.704	-149.147	-0.388	-0.031
-572.690	101.877	-0.330	0.386
-571.675	-191.797	-0.052	-0.001
-570.661	-90.552	0.235	-0.068
-569.646	800.000	-0.071	0.217
-568.631	800.000	-0.135	-0.426
-567.617	37.666	0.069	-0.061
-566.602	67.960	-0.288	-0.295
-565.588	-35.490	0.063	0.034
-564.573	-200.000	0.008	-0.267
-563.558	364.134	-0.132	-0.266
-562.544	-122.870	0.152	-0.025
-561.529	599.307	0.077	-0.191
-560.515	623.793	0.094	-0.238
-559.500	800.000	-0.052	0.170
-558.485	-200.000	0.007	-0.189
-557.471	312.957	0.019	-0.036
-556.456	-5.841	0.283	-0.195
-555.442	487.919	0.109	0.250
-554.427	61.918	0.130	0.129
-553.412	800.000	0.040	0.173
-552.398	-62.590	0.308	-0.128
-551.383	63.576	0.156	-0.157
-550.369	172.710	0.179	-0.258
-549.354	-85.405	-0.138	-0.043
-548.339	-121.855	0.233	0.038
-547.325	-101.912	0.221	0.053
-546.310	405.617	-0.080	-0.170
-545.296	-89.326	0.031	-0.009
-544.281	-141.589	-0.463	0.047
-543.266	-42.453	-0.070	0.036
-542.252	-71.398	0.100	-0.037
-541.237	543.483	0.108	-0.258
-540.223	-200.000	-0.020	0.211
-539.208	-104.171	-0.473	-0.110
-538.193	-129.714	0.075	0.010
-537.179	-51.363	0.064	-0.030
-536.164	-176.418	0.390	0.010
-535.150	-200.000	0.027	-0.130
-534.135	-158.827	0.115	0.007
-533.121	43.110	-0.037	0.033
-532.106	115.426	-0.133	0.163
-531.091	-130.599	0.166	0.022
-530.077	354.229	0.105	0.208
-529.062	-45.341	-0.232	-0.115
-528.048	-61.897	-0.136	0.057
-527.033	554.516	0.037	-0.090
-526.018	-200.000	0.045	0.375
-525.004	-94.725	-0.221	0.060
-523.989	-24.632	0.074	-0.044
-522.975	78.165	-0.167	-0.178
-521.960	-200.000	-0.042	-0.198
-520.945	71.453	0.149	0.155
-519.931	309.608	0.164	-0.308
-518.916	800.000	0.067	0.260
-517.902	291.157	0.163	0.296
-516.887	107.041	-0.286	-0.340
-515.872	800.000	0.123	-0.368
-514.858	-200.000	0.045	-0.352
-513.843	-84.048	-0.198	-0.063
-512.829	-61.844	-0.325	-0.136
-511.814	-98.583	0.123	-0.031
-510.799	-10.152	0.130	0.086
-509.785	-198.782	0.205	-0.001
-508.770	-77.372	-0.214	0.074
-507.756	-18.418	0.218	-0.136
-506.741	364.602	0.112	-0.226
-505.726	452.772	-0.085	-0.189
-504.712	90.880	0.037	-0.041
-503.697	136.818	-0.170	0.222
-502.683	453.014	0.086	0.190
-501.668	66.317	-0.183	0.186
-500.653	-36.156	0.161	0.087
-499.639	157.532	-0.056	-0.077
-498.624	-200.000	-0.039	-0.261
-497.610	-50.844	0.203	0.096
-496.595	-200.000	-0.006	0.067
-495.581	15.980	0.186	0.146
-494.566	-200.000	0.003	0.142
-493.551	-200.000	0.008	-0.196
-492.537	538.005	-0.095	0.227
-491.522	161.125	0.064	-0.089
-490.508	93.912	-0.137	-0.156
-489.493	-80.534	0.151	-0.050
-488.478	800.000	0.046	0.135
-487.464	-0.575	0.210	0.149
-486.449	-38.383	-0.085	0.045
-485.435	373.518	0.066	-0.134
-484.420	32.322	-0.191	0.165
-483.405	268.264	0.152	-0.267
-482.391	136.505	-0.091	0.119
-481.376	-6.795	0.251	0.171
-480.362	-200.000	0.058	-0.488
-479.347	35.023	-0.195	-0.170
-478.332	-88.008	0.276	0.083
-477.318	-103.575	-0.256	-0.060
-476.303	-93.982	-0.066	0.018
-475.289	-200.000	-0.003	-0.125
-474.274	60.354	-0.136	0.134
-473.259	-200.000	0.060	-0.405
-472.245	496.741	-0.120	0.276
-471.230	-48.491	-0.387	-0.186
-470.216	-103.333	-0.318	0.075
-469.201	-83.610	-0.280	-0.090
-468.186	55.179	-0.105	0.101
-467.172	-200.000	0.006	-0.112
-466.157	198.891	-0.069	0.106
-465.143	-22.806	-0.120	0.072
-464.128	622.851	-0.067	-0.169
-463.113	-105.983	-0.298	-0.067
-462.099	800.000	0.047	-0.135
-461.084	-114.155	0.379	-0.073
-460.070	-103.196	-0.252	0.059
-459.055	-200.000	0.002	-0.167
-458.040	104.006	0.193	0.227
-457.026	393.156	-0.100	0.207
-456.011	8.825	0.310	0.233
-454.997	-31.054	0.249	-0.140
-453.982	800.000	-0.046	-0.162
-452.968	-163.707	-0.116	-0.005
-451.953	85.180	0.063	-0.069
-450.938	-33.857	0.093	-0.051
-449.924	-85.630	-0.150	0.046
-448.909	-200.000	-0.010	-0.561
-447.895	-121.971	0.601	-0.099
-446.880	363.074	0.138	0.277
-445.865	779.605	-0.153	0.419
-444.851	-66.187	-0.162	-0.065
-443.836	231.788	0.204	-0.333
-442.822	28.833	-0.273	-0.230
-441.807	33.224	-0.060	0.052
-440.792	-143.034	0.472	0.046
-439.778	-139.650	-0.241	-0.026
-438.763	-40.519	-0.302	0.156
-437.749	-88.545	-0.151	0.045
-436.734	691.690	0.121	0.316
-435.719	84.024	0.155	0.168
-434.705	376.718	-0.082	-0.167
-433.690	800.000	0.032	-0.132
-432.676	-200.000	0.029	0.138
-431.661	-33.548	0.183	0.101
-430.646	-101.743	0.246	0.059
-429.632	19.182	-0.170	0.136
-428.617	-0.436	0.213	-0.151
-427.603	-200.000	-0.006	-0.145
-426.588	171.511	-0.167	-0.240
-425.573	-123.656	-0.219	-0.035
-424.559	800.000	0.053	0.194
-423.544	-188.668	-0.307	-0.004
-422.530	800.000	0.093	0.305
-421.515	-42.032	0.191	0.098
-420.500	-74.216	0.036	0.013
-419.486	-79.815	-0.312	-0.105
-418.471	-134.232	-0.282	-0.035
-417.457	800.000	0.043	-0.129
-416.442	-152.503	-0.265	-0.019
-415.428	547.632	-0.216	-0.517
-414.413	126.180	-0.027	-0.034
-413.398	384.197	-0.067	0.137
-412.384	-178.090	-0.249	-0.006
-411.369	-15.760	-0.200	0.127
-410.355	342.191	-0.132	0.258
-409.340	-149.533	-0.343	0.027
-408.325	-76.513	-0.387	0.136
-407.311	-48.362	-0.134	-0.065
-406.296	283.750	-0.127	0.228
-405.282	81.064	-0.127	-0.136
-404.267	-56.338	-0.202	0.089
-403.252	390.825	0.057	0.118
-402.238	78.562	-0.105	-0.112
-401.223	41.960	0.083	-0.075
-400.209	-125.955	-0.215	-0.032
-399.194	234.278	0.110	-0.181
-398.179	-35.679	-0.197	-0.107
-397.165	-200.000	0.003	-0.261
-396.150	79.411	-0.149	0.159
-395.136	31.440	-0.193	-0.165
-394.121	52.102	0.295	0.280
-393.106	-24.156	0.345	-0.205
-392.092	-136.197	-0.375	0.044
-391.077	-68.214	0.201	0.078
-390.063	54.624	0.349	-0.335
-389.048	13.844	0.307	0.238
-388.033	-32.652	-0.271	0.150
-387.019	-37.241	-0.153	-0.082
-386.004	-91.123	0.076	-0.022
-384.990	219.381	-0.161	-0.257
-383.975	43.929	-0.125	0.114
-382.960	-128.386	-0.313	-0.044
-381.946	-200.000	0.010	0.084
-380.931	133.253	-0.093	0.119
-379.917	-200.000	0.015	0.194
-378.902	-168.220	-0.175	0.007
-377.888	-154.850	-0.040	-0.003
-376.873	-200.000	-0.004	-0.224
-375.858	35.341	-0.176	-0.154
-374.844	-51.102	0.174	0.081
-373.829	-151.790	0.098	0.007
-372.815	97.423	0.202	0.231
-371.800	-91.741	0.041	0.011
-370.785	-200.000	-0.029	0.130
-369.771	800.000	-0.019	0.059
-368.756	-200.000	-0.008	-0.098
-367.742	-45.165	-0.094	0.046
-366.727	-129.226	-0.146	-0.020
-365.712	306.469	-0.318	0.590
-364.698	429.484	0.024	-0.051
-363.683	392.902	0.111	-0.229
-362.669	3.922	-0.101	-0.074
-361.654	800.000	0.015	0.058
-360.639	-101.394	0.059	0.014
-359.625	-200.000	-0.024	-0.187
-358.610	-200.000	-0.035	-0.192
-357.596	-200.000	0.008	0.237
-356.581	40.697	0.107	0.096
-355.566	140.697	0.254	0.334
-354.552	4.126	-0.240	-0.175
-353.537	-200.000	-0.070	0.380
-352.523	-200.000	0.008	0.049
-351.508	-99.130	-0.339	-0.085
-350.493	570.270	-0.065	0.157
-349.479	163.049	-0.097	-0.136
-348.464	740.958	0.059	-0.159
-347.450	-66.752	0.232	-0.091
-346.435	-127.831	0.296	0.042
-345.420	800.000	-0.066	-0.272
-344.406	557.864	-0.080	0.192
-343.391	-15.339	-0.196	-0.124
-342.377	-90.229	0.334	-0.097
-341.362	-36.095	-0.289	0.155
-340.348	-69.526	-0.104	-0.040
-339.333	-200.000	0.040	-0.361
-338.318	-59.191	0.282	0.121
-337.304	-104.625	0.090	-0.021
-336.289	379.336	-0.067	0.136
-335.275	222.307	-0.068	-0.108
-334.260	-111.422	0.186	0.038
-333.245	264.036	-0.119	-0.205
-332.231	76.704	-0.345	0.363
-331.216	4.029	-0.080	-0.058
-330.202	-83.537	-0.081	-0.026
-329.187	51.067	0.157	0.147
-328.172	47.749	0.059	-0.054
-327.158	50.375	-0.061	-0.057
-326.143	667.221	0.192	0.494
-325.129	-86.491	0.281	-0.086
-324.114	25.431	0.295	-0.244
-323.099	17.897	-0.288	-0.228
-322.085	-30.865	-0.063	-0.035
-321.070	800.000	0.018	0.054
-320.056	-9.622	0.117	-0.078
-319.041	800.000	0.084	-0.329
-318.026	-200.000	-0.019	0.229
-317.012	-119.296	-0.077	0.013
-315.997	-80.988	-0.173	-0.057
-314.983	-200.000	-0.154	0.001
-313.968	91.539	-0.152	-0.169
-312.953	-1.562	0.201	0.141
-311.939	-25.414	-0.037	-0.022
-310.924	-79.301	-0.253	0.085
-309.910	-111.451	-0.266	-0.054
-308.895	259.373	0.214	-0.367
-307.880	-41.188	0.128	0.065
-306.866	-4.995	0.223	0.152
-305.851	14.903	-0.091	0.071
-304.837	274.875	-0.248	0.436
-303.822	-113.901	-0.159	-0.031
-302.807	218.995	-0.138	-0.219
-301.793	-74.809	0.203	0.072
-300.778	52.150	0.142	-0.134
-299.764	-200.000	-0.086	0.417
-298.749	800.000	-0.058	0.182
-297.735	0.775	0.156	0.111
-296.720	40.026	-0.171	0.153
-295.705	800.000	0.119	0.346
-294.691	-157.832	0.072	-0.004
-293.676	-100.111	0.269	-0.066
-292.662	32.795	-0.189	-0.162
-291.647	-200.000	0.014	0.220
-290.632	110.413	-0.076	-0.090
-289.618	68.223	-0.155	-0.158
-288.603	-117.853	0.171	-0.030
-287.589	-57.248	0.156	0.068
-286.574	28.914	0.278	0.234
-285.559	514.828	0.065	-0.150
-284.545	-62.254	0.083	0.034
-283.530	-46.987	0.332	0.161
-282.516	29.381	-0.380	-0.320
-281.501	-57.107	0.205	-0.090
-280.486	-200.000	-0.030	0.165
-279.472	-200.000	0.053	-0.235
-278.457	365.094	0.108	0.216
-277.443	-95.598	0.176	0.047
-276.428	529.842	-0.046	-0.108
-275.413	328.721	-0.050	0.095
-274.399	-120.555	0.130	0.022
-273.384	-31.708	-0.296	0.164
-272.370	-140.698	-0.099	0.010
-271.355	-200.000	0.006	0.036
-270.340	-12.370	-0.181	-0.117
-269.326	32.050	0.234	-0.200
-268.311	-48.355	0.189	-0.090
-267.297	-12.355	0.274	0.177
-266.282	-200.000	0.106	0.555
-265.267	800.000	-0.027	-0.112
-264.253	-200.000	-0.030	0.340
-263.238	800.000	-0.083	-0.257
-262.224	800.000	0.090	0.323
-261.209	-109.986	-0.075	0.016
-260.195	-57.013	-0.209	-0.091
-259.180	263.626	0.168	0.290
-258.165	-200.000	-0.029	0.337
-257.151	15.285	0.047	-0.037
-256.136	-62.905	0.145	0.060
-255.122	-200.000	0.041	-0.298
-254.107	127.857	-0.203	-0.255
-253.092	-164.148	-0.248	0.011
-252.078	-118.871	0.317	0.055
-251.063	549.121	0.062	-0.146
-250.049	660.436	0.073	0.186
-249.034	800.000	-0.084	-0.234
-248.019	83.568	-0.327	0.353
-247.005	0.217	0.401	-0.284
-245.990	80.075	0.323	-0.344
-244.976	-90.096	-0.289	-0.083
-243.961	-87.139	0.133	-0.040
-242.946	475.456	0.078	0.174
-241.932	800.000	0.054	0.182
-240.917	-200.000	0.063	-0.304
-239.903	800.000	-0.121	-0.384
-238.888	800.000	0.141	-0.537
-237.873	283.777	0.185	0.330
-236.859	-98.351	0.116	-0.029
-235.844	-85.068	-0.069	-0.021
-234.830	-143.016	-0.448	-0.043
-233.815	-200.000	0.060	-0.302
-232.800	-200.000	-0.037	-0.192
-231.786	-200.000	-0.007	-0.104
-230.771	800.000	-0.078	-0.275
-229.757	800.000	0.068	0.194
-228.742	-155.075	-0.468	0.030
-227.727	343.723	-0.093	0.181
-226.713	2.845	-0.196	-0.141
-225.698	63.814	0.148	-0.148
-224.684	-187.906	0.433	0.006
-223.669	65.358	0.157	0.157
-222.655	-200.000	0.054	-0.344
-221.640	-176.399	-0.235	-0.006
-220.625	-200.000	0.214	-0.000
-219.611	-10.617	0.431	-0.282
-218.596	500.632	0.088	0.201
-217.582	-200.000	-0.031	0.187
-216.567	-150.017	0.374	0.029
-215.552	221.453	-0.050	-0.080
-214.538	-163.130	-0.341	0.016
-213.523	22.006	0.154	-0.124
-212.509	-102.951	0.321	0.075
-211.494	-118.137	0.586	-0.103
-210.479	28.973	0.103	0.086
-209.465	-20.789	-0.109	0.066
-208.450	28.711	-0.141	0.118
-207.436	28.175	0.230	0.192
-206.421	361.873	0.131	0.259
-205.406	28.898	-0.134	0.112
-204.392	232.632	-0.223	0.363
-203.377	-142.516	-0.276	-0.027
-202.363	-61.947	-0.175	-0.072
-201.348	-200.000	0.005	-0.127
-200.333	488.521	-0.052	0.117
-199.319	-59.689	0.201	-0.085
-198.304	-55.388	-0.266	0.118
-197.290	-200.000	0.034	0.202
-196.275	471.168	-0.009	0.019
-195.260	-200.000	-0.013	-0.150
-194.246	18.579	-0.234	0.185
-193.231	-158.746	0.116	0.007
-192.217	-115.858	0.140	0.026
-191.202	87.525	0.094	-0.102
-190.187	315.436	0.043	-0.081
-189.173	-67.271	0.224	0.087
-188.158	800.000	0.016	0.045
-187.144	70.331	0.241	0.246
-186.129	302.892	0.167	0.305
-185.114	-200.000	-0.005	-0.051
-184.100	19.970	-0.049	-0.039
-183.085	-24.651	-0.259	0.152
-182.071	-131.658	0.444	-0.058
-181.056	88.641	0.177	0.194
-180.042	14.748	0.278	-0.215
-179.027	-200.000	0.030	0.169
-178.012	-23.781	-0.176	0.104
-176.998	159.811	-0.197	-0.272
-175.983	-200.000	0.002	0.230
-174.969	-152.638	-0.173	0.012
-173.954	800.000	-0.052	-0.151
-172.939	-48.690	-0.208	-0.099
-171.925	-121.765	0.561	0.092
-170.910	-156.331	0.157	0.010
-169.896	-120.048	0.159	-0.027
-168.881	-49.152	0.270	0.127
-167.866	-115.361	0.094	0.018
-166.852	302.585	0.037	-0.068
-165.837	258.826	-0.020	0.035
-164.823	-200.000	-0.022	-0.193
-163.808	-200.000	-0.027	0.142
-162.793	800.000	-0.115	0.411
-161.779	-118.552	-0.079	0.014
-160.764	-200.000	0.028	-0.377
-159.750	246.046	-0.122	0.203
-158.735	87.954	0.080	0.088
-157.720	-200.000	0.004	0.076
-156.706	69.174	-0.212	-0.216
-155.691	-43.139	0.151	0.075
-154.677	-200.000	0.029	0.360
-153.662	-125.915	0.321	0.048
-152.647	348.376	0.072	0.141
-151.633	-136.722	0.175	0.020
-150.618	-118.977	0.285	0.049
-149.604	-21.202	0.154	0.093
-148.589	-16.616	0.208	0.130
-147.574	113.804	0.161	-0.193
-146.560	-33.789	-0.177	0.096
-145.545	-134.231	0.123	-0.015
-144.531	800.000	0.068	-0.267
-143.516	-37.349	-0.130	-0.068
-142.502	625.482	0.063	0.157
-141.487	67.828	0.113	0.114
-140.472	157.819	-0.074	0.102
-139.458	24.208	0.164	-0.133
-138.443	-200.000	-0.011	0.290
-137.429	-200.000	-0.048	-0.242
-136.414	800.000	-0.035	0.133
-135.399	-200.000	0.014	0.065
-134.385	-22.398	0.222	0.132
-133.370	-96.116	0.310	-0.081
-132.356	285.013	-0.247	0.439
-131.341	-105.595	0.333	-0.075
-130.326	800.000	-0.004	0.012
-129.312	800.000	0.011	-0.044
-128.297	-53.565	-0.103	-0.046
-127.283	203.178	-0.045	0.069
-126.268	67.052	0.110	-0.111
-125.253	84.090	0.078	0.084
-124.239	452.658	0.052	0.114
-123.224	52.286	-0.225	0.212
-122.210	-54.531	-0.343	0.153
-121.195	-200.000	0.046	-0.227
-120.180	190.721	-0.217	-0.322
-119.166	-36.516	0.200	0.106
-118.151	-99.313	-0.087	0.022
-117.137	102.275	0.088	-0.101
-116.122	-200.000	-0.031	0.242
-115.107	568.968	0.124	-0.297
-114.093	15.013	-0.133	0.102
-113.078	-18.627	-0.197	0.121
-112.064	800.000	0.074	0.243
-111.049	-48.560	-0.048	-0.023
-110.034	-200.000	0.013	0.467
-109.020	-25.945	-0.096	-0.056
-108.005	-131.887	0.082	0.011
-106.991	-112.497	0.048	0.009
-105.976	487.486	0.117	-0.262
-104.962	220.139	0.108	0.170
-103.947	-200.000	0.027	0.233
-102.932	72.821	0.017	-0.018
-101.918	-53.882	0.278	0.125
-100.903	800.000	-0.083	-0.263
-99.889	757.729	-0.056	-0.150
-98.874	215.339	0.028	0.044
-97.859	-172.318	0.159	-0.005
-96.845	-165.086	0.175	-0.008
-95.830	800.000	0.071	0.215
-94.816	431.553	-0.141	-0.301
-93.801	726.210	0.068	-0.179
-92.786	205.818	0.108	0.165
-91.772	-178.971	-0.191	-0.004
-90.757	-200.000	-0.005	0.060
-89.743	-86.560	-0.136	-0.041
-88.728	-133.132	0.091	0.011
-87.713	136.149	-0.082	0.105
-86.699	-200.000	-0.020	0.093
-85.684	-107.341	0.154	0.033
-84.670	-5.546	-0.240	-0.162
-83.655	-198.832	-0.346	-0.002
-82.640	-200.000	0.019	-0.233
-81.626	161.624	0.264	0.364
-80.611	-200.000	-0.056	0.392
-79.597	62.919	-0.109	0.108
-78.582	243.167	-0.048	0.079
-77.567	-132.142	0.098	0.013
-76.553	498.276	-0.069	0.157
-75.538	-59.221	-0.146	-0.062
-74.524	-140.418	0.102	-0.010
-73.509	-200.000	-0.049	-0.279
-72.494	-59.318	0.317	-0.134
-71.480	800.000	-0.073	0.242
-70.465	-49.158	-0.087	-0.041
-69.451	-96.853	0.126	0.033
-68.436	-200.000	-0.008	-0.301
-67.422	-106.874	-0.047	0.010
-66.407	-200.000	0.061	-0.333
-65.392	-200.000	-0.001	0.317
-64.378	800.000	-0.035	-0.112
-63.363	-176.467	-0.156	-0.004
-62.349	121.359	0.374	-0.459
-61.334	3.137	-1.386	-0.991
-60.319	135.768	0.522	0.669
-59.305	-200.000	-0.214	-1.080
-58.290	731.540	0.365	0.959
-57.276	375.328	0.640	1.282
-56.261	-200.000	108.833	590.176
-55.246	440.469	1486.286	3193.483
-54.232	145.801	2669.542	3517.047
-53.217	104.394	2181.862	2524.267
-52.203	39.703	1712.409	1509.625
-51.188	32.629	1527.008	1297.622
-50.173	30.414	1500.778	1260.272
-49.159	50.908	1556.744	1449.590
-48.144	51.221	1572.800	1466.642
-47.130	32.795	1529.347	1300.549
-46.115	29.802	1514.672	1267.546
-45.100	29.742	1510.592	1263.672
-44.086	29.635	1509.120	1261.656
-43.071	29.628	1506.791	1259.611
-42.057	29.470	1505.282	1257.228
-41.042	29.563	1503.858	1256.616
-40.027	29.507	1502.521	1255.074
-39.013	29.502	1500.526	1253.319
-37.998	29.526	1499.770	1252.803
-36.984	29.487	1498.484	1251.418
-35.969	29.488	1496.851	1250.005
-34.954	29.558	1495.442	1249.255
-33.940	29.620	1494.381	1248.741
-32.925	29.593	1492.804	1247.192
-31.911	29.510	1491.813	1245.754
-30.896	29.530	1490.733	1244.938
-29.881	29.591	1489.432	1244.209
-28.867	29.724	1487.758	1243.658
-27.852	29.532	1486.963	1241.651
-26.838	29.604	1485.458	1240.833
-25.823	29.659	1483.566	1239.572
-24.809	29.549	1481.904	1237.393
-23.794	29.527	1480.520	1236.045
-22.779	29.732	1479.168	1236.237
-21.765	29.591	1478.453	1234.649
-20.750	29.643	1477.131	1233.844
-19.736	29.636	1476.045	1232.839
-18.721	29.512	1474.976	1231.066
-17.706	29.656	1473.481	1230.732
-16.692	29.592	1472.756	1229.654
-15.677	29.605	1471.614	1228.736
-14.663	29.520	1470.774	1227.423
-13.648	29.537	1469.746	1226.625
-12.633	29.618	1468.625	1226.179
-11.619	29.558	1468.065	1225.267
-10.604	29.538	1467.104	1224.286
-9.590	29.550	1466.058	1223.444
-8.575	29.564	1465.224	1222.790
-7.560	29.451	1464.771	1221.612
-6.546	29.521	1463.685	1221.125
-5.531	29.525	1463.025	1220.548
-4.517	29.550	1461.374	1219.287
-3.502	29.512	1460.577	1218.325
-2.487	29.554	1459.514	1217.670
-1.473	29.627	1458.103	1216.923
-0.458	29.460	1457.328	1215.128
0.556	27.690	1447.678	1203.956
1.571	24.618	1421.786	1162.368
2.586	21.204	1359.960	1090.441
3.600	19.273	1277.093	1012.576
4.615	18.357	1231.676	971.286
5.629	16.003	1175.536	914.174
6.644	8.131	1090.007	807.842
7.659	1.380	1049.820	744.959
8.673	0.402	1044.030	736.011
9.688	0.065	1041.248	732.346
10.702	0.042	1039.404	730.872
11.717	-0.018	1037.898	729.458
12.731	2.689	1039.758	743.844
13.746	10.784	1050.943	791.341
14.761	16.807	1058.022	826.051
15.775	17.408	1058.206	829.053
16.790	16.682	1055.626	823.431
17.804	15.524	1053.331	815.942
18.819	14.497	1051.902	809.777
19.834	14.141	1050.648	807.015
20.848	13.891	1049.449	804.811
21.863	13.734	1048.456	803.219
22.877	13.411	1048.258	801.429
23.892	13.240	1046.886	799.485
24.907	13.197	1045.962	798.498
25.921	13.137	1045.840	798.046
26.936	13.037	1045.327	797.101
27.950	13.222	1044.695	797.442
28.965	13.179	1043.705	796.408
29.980	13.198	1042.772	795.717
30.994	13.288	1041.904	795.415
32.009	13.314	1040.949	794.742
33.023	13.504	1040.043	794.892
34.038	13.468	1039.291	794.074
35.053	13.413	1038.120	792.846
36.067	13.300	1037.342	791.639
37.082	13.211	1036.720	790.672
38.096	13.306	1036.151	790.623
39.111	13.293	1035.345	789.876
40.126	13.275	1034.185	788.835
41.140	13.275	1033.145	787.971
42.155	13.187	1032.401	786.915
43.169	13.026	1031.687	785.534
44.184	12.965	1030.694	784.420
45.199	13.193	1029.255	784.338
46.213	13.226	1028.140	783.575
47.228	13.192	1027.538	782.885
48.242	13.260	1026.519	782.358
49.257	13.257	1026.027	781.901
50.271	13.202	1024.415	780.343
51.286	13.260	1023.679	779.987
52.301	13.198	1022.782	778.946
53.315	13.247	1022.303	778.739
54.330	13.242	1021.321	777.900
55.344	13.096	1020.623	776.613
56.359	13.303	1019.310	776.517
57.374	13.276	1018.349	775.588
58.388	12.967	1018.231	773.981
59.403	13.044	1017.240	773.523
60.417	13.164	1016.463	773.425
61.432	13.198	1015.496	772.780
62.447	13.132	1014.312	771.503
63.461	13.092	1013.999	771.006
64.476	13.037	1013.281	770.140
65.490	13.040	1012.007	769.113
66.505	13.173	1011.299	769.129
67.520	13.166	1010.349	768.305
68.534	13.096	1009.990	767.638
69.549	13.040	1009.289	766.780
70.563	13.103	1008.487	766.393
71.578	13.035	1007.803	765.490
72.593	13.142	1006.484	764.915
73.607	13.017	1005.676	763.657
74.622	12.978	1005.030	762.916
75.636	13.062	1003.923	762.400
76.651	12.808	1003.544	760.870
77.666	12.991	1002.591	760.924
78.680	13.086	1001.488	760.458
79.695	13.155	1000.700	760.110
80.709	13.018	1000.763	759.457
81.724	13.041	1000.002	758.919
82.739	13.261	998.992	759.095
83.753	13.163	998.324	758.072
84.768	13.225	997.446	757.623
85.782	13.214	996.984	757.154
86.797	13.400	996.308	757.424
87.812	13.282	995.368	756.106
88.826	13.341	994.708	755.804
89.841	13.190	994.299	754.738
90.855	13.212	993.250	753.974
91.870	13.325	992.346	753.739
92.884	13.241	991.688	752.787
93.899	13.304	991.223	752.658
94.914	13.261	990.375	751.750
95.928	13.383	989.384	751.483
96.943	13.408	988.808	751.094
97.957	13.379	987.636	750.007
98.972	13.202	987.326	748.904
99.987	13.314	986.703	748.869
101.001	13.380	985.457	748.158
102.016	13.493	984.761	748.075
103.030	13.322	983.965	746.630
104.045	13.305	983.050	745.795
105.060	13.284	982.154	744.951
106.074	13.360	980.995	744.348
107.089	13.353	980.082	743.561
108.103	13.287	979.085	742.442
109.118	13.201	978.184	741.305
110.133	12.971	977.737	739.873
111.147	13.043	977.110	739.656
112.162	13.143	975.931	739.146
113.176	13.098	975.397	738.473
114.191	13.189	973.972	737.736
115.206	13.202	973.427	737.314
116.220	13.261	972.547	736.847
117.235	13.219	971.667	735.929
118.249	13.207	970.686	735.064
119.264	13.262	969.891	734.641
120.279	13.329	968.988	734.190
121.293	13.269	968.408	733.420
122.308	13.287	967.448	732.707
123.322	13.200	966.760	731.740
124.337	13.033	965.855	730.248
125.352	13.189	964.821	730.092
126.366	13.107	963.556	728.709
127.381	13.206	962.570	728.335
128.395	13.234	961.312	727.440
129.410	13.155	960.505	726.421
130.424	13.099	960.018	725.740
131.439	13.253	958.838	725.462
132.454	13.238	958.030	724.718
133.468	13.250	957.298	724.152
134.483	13.289	956.637	723.761
135.497	13.224	956.208	723.088
136.512	13.284	955.080	722.434
137.527	13.332	954.190	721.904
138.541	13.278	953.814	721.322
139.556	13.153	953.067	720.146
140.570	13.315	952.122	720.076
141.585	13.238	951.489	719.200
142.600	13.366	950.952	719.283
143.614	13.413	949.979	718.691
144.629	13.338	949.253	717.750
145.643	13.380	948.605	717.379
146.658	13.473	947.697	717.032
147.673	13.318	947.077	715.829
148.687	13.397	945.694	715.059
149.702	13.296	945.108	714.117
150.716	13.420	943.886	713.667
151.731	13.381	943.469	713.120
152.746	13.198	942.530	711.562
153.760	13.291	941.934	711.448
154.775	13.348	941.221	711.089
155.789	13.454	940.070	710.612
156.804	13.305	939.474	709.462
157.819	13.388	938.643	709.127
158.833	13.248	938.333	708.231
159.848	13.419	937.532	708.295
160.862	13.574	936.679	708.249
161.877	13.563	935.480	707.234
162.892	13.489	934.587	706.178
163.906	13.426	934.408	705.712
164.921	13.390	933.660	704.932
165.935	13.382	932.311	703.820
166.950	13.379	931.473	703.109
167.964	13.516	930.470	702.875
168.979	13.523	929.510	702.114
169.994	13.340	928.922	700.835
171.008	13.481	927.710	700.452
172.023	13.413	927.112	699.653
173.037	13.567	926.207	699.560
174.052	13.454	925.462	698.455
175.067	13.464	925.053	698.128
176.081	13.543	923.999	697.603
177.096	13.521	923.209	696.851
178.110	13.514	922.404	696.155
179.125	13.519	921.695	695.577
180.140	13.571	921.178	695.345
181.154	13.532	920.502	694.611
182.169	13.457	920.380	694.144
183.183	13.604	919.611	694.115
184.198	13.701	917.961	693.215
185.213	13.587	918.073	692.763
186.227	13.742	917.152	692.654
187.242	13.762	916.636	692.286
188.256	13.677	916.154	691.505
189.271	13.781	915.220	691.174
190.286	13.756	914.540	690.493
191.300	13.685	913.638	689.456
192.315	13.600	913.501	688.940
193.329	13.546	912.202	687.674
194.344	13.558	911.904	687.438
195.359	13.602	911.060	686.922
196.373	13.664	910.596	686.772
197.388	13.807	909.969	686.830
198.402	13.760	909.714	686.381
199.417	13.769	909.442	686.151
200.432	14.042	908.437	686.462
201.446	13.910	908.174	685.657
202.461	13.973	907.945	685.680
203.475	14.035	907.098	685.238
204.490	14.010	906.572	684.678
205.504	13.938	905.603	683.588
206.519	13.985	904.912	683.201
207.534	13.876	904.340	682.261
208.548	13.946	903.689	681.996
209.563	14.061	902.338	681.387
210.577	14.008	902.039	680.883
211.592	14.016	901.362	680.344
212.607	14.173	900.537	680.304
213.621	14.046	900.579	679.755
214.636	13.992	900.050	679.076
215.650	14.114	898.670	678.474
216.665	14.115	898.676	678.422
217.680	14.246	898.034	678.409
218.694	14.194	897.406	677.666
219.709	14.285	896.901	677.593
220.723	14.211	896.347	676.815
221.738	14.272	895.388	676.278
222.753	14.192	894.896	675.522
223.767	14.144	894.131	674.690
224.782	14.405	893.369	675.114
225.796	14.301	892.697	674.124
226.811	14.373	892.091	673.897
227.826	14.331	891.333	673.096
228.840	14.427	890.294	672.640
229.855	14.319	889.950	671.885
230.869	14.256	889.392	671.150
231.884	14.401	888.754	671.193
232.899	14.334	887.845	670.178
233.913	14.376	887.306	669.882
234.928	14.367	886.973	669.532
235.942	14.313	886.015	668.534
236.957	14.281	885.324	667.823
237.972	14.341	884.427	667.331
238.986	14.262	884.174	666.763
240.001	14.283	883.656	666.396
241.015	14.351	882.838	665.995
242.030	14.445	882.131	665.777
243.045	14.393	881.326	664.902
244.059	14.564	880.928	665.225
245.074	14.366	880.449	664.017
246.088	14.457	879.557	663.647
247.103	14.506	878.985	663.351
248.117	14.572	878.158	662.932
249.132	14.540	877.844	662.508
250.147	14.594	877.461	662.376
251.161	14.513	876.818	661.511
252.176	14.662	876.061	661.469
253.190	14.754	875.278	661.183
254.205	14.788	874.845	660.934
255.220	14.938	874.115	660.914
256.234	14.829	873.565	660.013
257.249	14.826	873.029	659.538
258.263	14.953	872.561	659.626
259.278	14.816	871.656	658.344
260.293	14.914	871.563	658.599
261.307	15.015	870.336	658.011
262.322	14.963	870.101	657.573
263.336	15.031	869.582	657.391
264.351	14.917	869.290	656.661
265.366	14.913	868.399	655.915
266.380	15.120	867.701	656.140
267.395	15.127	867.186	655.720
268.409	15.071	866.184	654.687
269.424	15.108	865.640	654.360
270.439	15.046	865.148	653.691
271.453	15.124	863.946	653.028
272.468	15.051	863.393	652.268
273.482	15.042	863.258	652.075
274.497	14.997	862.323	651.136
275.512	15.094	861.668	650.959
276.526	15.054	860.639	649.968
277.541	15.109	860.362	649.914
278.555	15.071	859.927	649.380
279.570	15.082	859.348	648.932
280.585	15.232	858.607	648.892
281.599	15.249	857.979	648.429
282.614	15.250	857.253	647.825
283.628	15.141	856.938	647.108
284.643	15.197	856.509	646.945
285.657	15.319	855.625	646.690
286.672	15.227	855.316	646.045
287.687	15.274	854.508	645.559
288.701	15.271	854.035	645.130
289.716	15.350	853.553	645.014
290.730	15.319	852.892	644.338
291.745	15.430	852.644	644.521
292.760	15.373	851.313	643.240
293.774	15.430	850.743	642.970
294.789	15.365	850.553	642.520
295.803	15.477	850.102	642.553
296.818	15.318	849.512	641.441
297.833	15.395	848.635	641.017
298.847	15.431	847.851	640.505
299.862	15.416	847.122	639.840
300.876	15.416	847.145	639.800
301.891	15.460	846.125	639.139
302.906	15.661	845.185	639.137
303.920	15.611	844.693	638.521
304.935	15.643	843.964	638.034
305.949	15.648	843.369	637.549
306.964	15.638	842.991	637.166
307.979	15.579	842.644	636.624
308.993	15.650	841.979	636.333
310.008	15.771	841.307	636.227
311.022	15.626	841.074	635.447
312.037	15.612	840.660	635.024
313.052	15.558	839.877	634.174
314.066	15.572	839.567	633.936
315.081	15.678	838.735	633.652
316.095	15.614	838.185	632.939
317.110	15.711	837.501	632.732
318.125	15.685	836.871	632.103
319.139	15.477	836.720	631.151
320.154	15.728	835.804	631.344
321.168	15.673	835.309	630.711
322.183	15.760	834.883	630.657
323.197	15.741	834.049	629.902
324.212	15.675	833.773	629.390
325.227	15.652	833.360	628.938
326.241	15.647	833.050	628.629
327.256	15.758	832.266	628.397
328.270	15.856	831.578	628.187
329.285	15.861	830.867	627.611
330.300	15.764	830.541	626.947
331.314	15.815	829.901	626.601
332.329	15.907	829.408	626.516
333.343	15.908	828.585	625.842
334.358	15.984	827.862	625.524
335.373	15.901	827.679	625.021
336.387	15.945	827.250	624.805
337.402	15.982	826.408	624.249
338.416	16.001	825.845	623.840
339.431	15.945	825.610	623.399
340.446	16.207	824.939	623.808
341.460	16.121	824.334	622.976
342.475	16.076	823.635	622.229
343.489	16.169	823.240	622.219
344.504	16.277	822.587	622.065
345.519	16.232	822.018	621.414
346.533	16.332	821.546	621.371
347.548	16.087	821.475	620.360
348.562	16.316	820.411	620.344
349.577	15.996	820.571	619.235
350.592	15.982	819.888	618.615
351.606	16.028	819.605	618.514
352.621	16.086	818.952	618.178
353.635	16.152	818.394	617.943
354.650	16.286	817.545	617.739
355.665	16.323	817.367	617.685
356.679	16.181	816.962	616.806
357.694	16.282	816.359	616.664
358.708	16.272	815.616	616.012
359.723	16.252	815.049	615.457
360.738	16.189	815.031	615.158
361.752	16.332	814.272	615.053
362.767	16.404	813.632	614.775
363.781	16.456	813.736	614.991
364.796	16.384	813.086	614.185
365.810	16.480	812.641	614.142
366.825	16.409	812.184	613.483
367.840	16.506	811.923	613.583
368.854	16.534	811.322	613.178
369.869	16.549	810.890	612.849
370.883	16.574	810.447	612.551
371.898	16.508	809.759	611.740
372.913	16.552	809.211	611.430
373.927	16.437	808.892	610.719
374.942	16.515	808.215	610.435
375.956	16.681	806.950	610.027
376.971	16.653	806.618	609.620
377.986	16.721	806.030	609.366
379.000	16.857	805.637	609.505
380.015	16.670	805.499	608.673
381.029	16.835	804.861	608.731
382.044	16.718	804.381	607.893
383.059	16.739	803.674	607.380
384.073	16.869	803.324	607.528
385.088	16.875	802.210	606.652
386.102	16.873	802.109	606.515
387.117	16.926	801.494	606.186
388.132	16.849	800.871	605.387
389.146	16.804	800.796	605.115
390.161	16.763	800.601	604.769
391.175	16.819	800.347	604.724
392.190	17.055	799.454	604.835
393.205	17.026	799.249	604.523
394.219	16.872	798.260	603.173
395.234	16.997	797.858	603.263
396.248	16.741	797.707	602.182
397.263	16.766	797.182	601.822
398.278	16.870	797.090	602.068
399.292	16.801	796.109	601.030
400.307	16.812	796.112	601.020
401.321	16.842	795.402	600.534
402.336	16.920	795.062	600.502
403.350	16.799	794.853	599.865
404.365	16.926	794.500	599.992
405.380	16.938	793.816	599.466
406.394	17.019	793.166	599.209
407.409	16.977	793.416	599.193
408.423	17.082	792.824	599.065
409.438	17.121	791.937	598.478
410.453	17.211	791.504	598.415
411.467	17.175	791.485	598.222
412.482	17.320	790.310	597.793
413.496	17.365	789.905	597.589
414.511	17.215	789.772	596.911
415.526	17.322	789.593	597.098
416.540	17.221	789.171	596.372
417.555	17.191	789.239	596.263
418.569	17.339	788.271	595.998
419.584	17.305	787.947	595.582
420.599	17.364	787.472	595.378
421.613	108.781	1291.280	1469.245
422.628	93.230	1364.675	1469.313
