DTS Sentinel unit serial number:	SN413079Multiplexer serial number:	ORYXHardware model number:	OX4-SRSoftware version number:	ORYX F/W v4.00 Oryx Data Collector v3.7.2.0data status	okinstallation	princeton_trtdifferential loss correction	single-endedforward channel	channel 3reverse channel	N/Adate	2019/09/14time	18:32:35forward acquisition time	60.00reverse acquisition time	0.00gamma	496.2192k internal	0.2302k external	0.2302temperature offset calibration	1.0017default loss term (dB/km)	0.3790temperature slope calibration	1.0000multiplexer offset coefficient	1.0000multiplexer slope coefficient	1.0000fibre end	0.00T internal ref (°C)	36.52T ext. ref 1 (°C)	4.91T ext. ref 2 (°C)	30.33length (m)	temperature (°C)	Stokes	anti-Stokes-747.200	181.514	0.064	-0.096
-746.185	129.275	-0.039	-0.051
-745.171	-81.660	-0.164	0.055
-744.156	-200.000	-0.015	-0.172
-743.142	89.764	-0.102	-0.116
-742.127	-200.000	0.014	0.143
-741.112	20.482	-0.349	-0.288
-740.098	-11.151	0.127	0.085
-739.083	-151.427	-0.318	-0.024
-738.069	-33.342	-0.196	0.110
-737.054	226.832	-0.119	0.197
-736.039	800.000	-0.046	-0.168
-735.025	83.413	0.147	0.163
-734.010	72.687	-0.058	0.062
-732.996	203.553	-0.028	-0.044
-731.981	800.000	0.025	0.094
-730.966	-72.672	0.150	0.056
-729.952	-159.149	0.133	0.008
-728.937	-157.129	0.382	-0.024
-727.923	-70.428	-0.288	0.111
-726.908	800.000	0.039	-0.161
-725.894	-160.808	-0.224	0.012
-724.879	-36.445	-0.347	-0.190
-723.864	-87.839	0.164	0.050
-722.850	-23.683	0.199	0.122
-721.835	23.601	-0.126	-0.105
-720.821	-52.833	-0.230	0.108
-719.806	-200.000	-0.014	-0.166
-718.791	3.056	-0.226	-0.167
-717.777	162.435	0.210	0.300
-716.762	-165.418	0.328	0.015
-715.748	-200.000	0.003	-0.256
-714.733	-131.725	-0.041	-0.005
-713.718	382.640	0.074	-0.155
-712.704	-145.153	0.075	0.007
-711.689	-60.647	0.025	-0.011
-710.675	42.077	-0.213	-0.197
-709.660	800.000	-0.122	0.369
-708.645	-113.457	-0.229	-0.046
-707.631	-115.294	-0.315	0.061
-706.616	33.690	-0.283	-0.250
-705.602	800.000	0.110	0.435
-704.587	-200.000	-0.091	-0.565
-703.572	-159.528	0.177	-0.010
-702.558	-10.180	-0.158	0.107
-701.543	676.080	0.106	-0.281
-700.529	199.683	-0.274	-0.427
-699.514	-83.848	-0.155	-0.050
-698.499	-106.510	0.273	0.062
-697.485	162.336	0.124	-0.177
-696.470	215.295	0.119	0.193
-695.456	800.000	-0.104	0.306
-694.441	800.000	-0.032	0.093
-693.426	-200.000	-0.007	-0.265
-692.412	184.109	-0.243	-0.367
-691.397	3.939	0.161	-0.120
-690.383	-30.905	-0.492	-0.283
-689.368	36.377	0.127	-0.114
-688.354	-200.000	-0.017	-0.116
-687.339	0.459	-0.277	-0.202
-686.324	87.195	-0.107	0.121
-685.310	86.162	-0.170	0.190
-684.295	-200.000	0.058	-0.313
-683.281	130.644	0.146	0.190
-682.266	-188.380	0.239	0.003
-681.251	69.273	-0.142	-0.149
-680.237	-64.210	0.165	0.069
-679.222	-102.915	0.254	-0.061
-678.208	133.582	-0.071	0.093
-677.193	172.854	-0.081	-0.118
-676.178	17.170	0.046	-0.037
-675.164	-113.009	0.095	-0.019
-674.149	-134.494	-0.234	0.029
-673.135	140.595	-0.031	-0.042
-672.120	-57.462	-0.119	0.053
-671.105	-29.556	-0.157	-0.091
-670.091	7.311	0.257	-0.195
-669.076	-34.385	0.270	-0.151
-668.062	800.000	-0.062	-0.191
-667.047	-200.000	-0.013	-0.089
-666.032	577.784	-0.025	-0.062
-665.018	800.000	-0.072	0.227
-664.003	-114.915	-0.301	-0.058
-662.989	-99.672	-0.294	0.075
-661.974	-93.411	0.086	0.024
-660.959	800.000	-0.073	0.241
-659.945	-94.558	-0.165	0.046
-658.930	279.933	0.113	0.206
-657.916	-132.763	0.210	-0.027
-656.901	186.092	0.060	0.091
-655.886	-115.996	0.106	0.020
-654.872	183.062	-0.152	-0.229
-653.857	164.656	-0.136	0.195
-652.843	256.242	0.205	0.357
-651.828	321.763	0.023	0.045
-650.814	-161.881	0.108	0.006
-649.799	-186.378	0.167	-0.002
-648.784	101.509	-0.265	0.313
-647.770	193.281	-0.111	0.171
-646.755	-200.000	-0.058	0.411
-645.741	5.417	-0.317	0.237
-644.726	800.000	-0.017	-0.071
-643.711	-200.000	-0.007	-0.225
-642.697	-200.000	0.006	-0.042
-641.682	-115.274	-0.241	0.046
-640.668	800.000	-0.069	0.211
-639.653	-52.342	0.164	-0.077
-638.638	743.262	0.074	0.202
-637.624	-200.000	0.037	-0.189
-636.609	-41.029	0.162	-0.085
-635.595	210.364	0.135	-0.215
-634.580	85.665	-0.126	-0.141
-633.565	118.162	-0.144	0.180
-632.551	-97.043	-0.077	-0.021
-631.536	298.421	-0.060	-0.112
-630.522	-200.000	0.011	-0.116
-629.507	23.663	0.248	-0.207
-628.492	-144.708	-0.166	0.016
-627.478	-36.498	-0.139	0.076
-626.463	-200.000	-0.032	-0.312
-625.449	129.746	0.161	-0.208
-624.434	66.618	-0.093	-0.096
-623.419	-170.356	-0.232	0.008
-622.405	-200.000	-0.016	-0.162
-621.390	-160.379	-0.107	-0.006
-620.376	-100.128	0.231	-0.058
-619.361	420.778	-0.074	0.160
-618.346	-155.184	0.061	0.004
-617.332	103.952	-0.100	-0.119
-616.317	289.203	-0.147	0.270
-615.303	92.305	-0.285	0.326
-614.288	155.072	0.170	0.237
-613.273	-123.249	0.267	0.043
-612.259	800.000	0.067	-0.235
-611.244	800.000	0.071	-0.302
-610.230	-200.000	-0.007	0.036
-609.215	800.000	0.079	-0.281
-608.201	-124.356	-0.045	-0.007
-607.186	373.454	-0.069	-0.143
-606.171	-26.296	-0.248	-0.148
-605.157	-200.000	-0.310	-0.001
-604.142	-38.711	0.092	-0.049
-603.128	-57.160	-0.145	-0.065
-602.113	701.925	0.029	-0.078
-601.098	-200.000	-0.032	0.147
-600.084	-81.742	-0.118	0.039
-599.069	-25.720	-0.187	0.112
-598.055	-24.841	0.044	0.026
-597.040	42.105	0.016	-0.015
-596.025	-200.000	-0.007	0.182
-595.011	32.280	0.138	-0.121
-593.996	800.000	-0.069	0.259
-592.982	-119.645	-0.066	-0.012
-591.967	-200.000	0.033	-0.159
-590.952	-91.951	-0.505	-0.145
-589.938	-200.000	0.020	-0.159
-588.923	-110.453	-0.316	-0.066
-587.909	23.616	0.150	-0.125
-586.894	409.938	0.075	-0.162
-585.879	52.687	0.255	-0.247
-584.865	158.487	-0.109	0.154
-583.850	390.485	0.113	-0.236
-582.836	55.468	0.155	-0.152
-581.821	496.135	-0.018	-0.042
-580.806	195.686	0.152	0.234
-579.792	-200.000	0.036	-0.357
-578.777	-200.000	-0.014	-0.129
-577.763	-86.886	-0.287	-0.089
-576.748	-200.000	-0.034	0.222
-575.733	-200.000	0.049	-0.316
-574.719	-200.000	-0.034	0.327
-573.704	19.958	0.120	0.098
-572.690	-136.163	0.173	-0.021
-571.675	-16.431	-0.088	0.057
-570.661	-93.943	-0.117	-0.033
-569.646	685.184	0.079	0.208
-568.631	-62.944	0.200	-0.084
-567.617	128.477	0.076	0.098
-566.602	800.000	-0.085	0.343
-565.588	-50.476	0.260	-0.124
-564.573	-34.065	-0.274	-0.152
-563.558	111.494	-0.072	0.088
-562.544	-87.289	0.200	0.062
-561.529	-86.205	0.187	-0.058
-560.515	800.000	-0.016	-0.067
-559.500	407.797	-0.056	-0.119
-558.485	-119.222	-0.214	0.038
-557.471	88.809	0.069	0.078
-556.456	-200.000	-0.037	0.234
-555.442	68.456	0.090	0.093
-554.427	-56.556	-0.049	-0.022
-553.412	-200.000	-0.042	0.250
-552.398	-177.207	0.157	0.004
-551.383	-152.957	0.067	0.005
-550.369	65.373	-0.216	-0.221
-549.354	162.389	0.146	0.208
-548.339	-74.600	-0.093	-0.034
-547.325	93.581	0.076	-0.087
-546.310	72.586	-0.148	-0.156
-545.296	-89.273	0.257	0.077
-544.281	-73.997	0.118	0.043
-543.266	59.592	0.130	-0.130
-542.252	-141.798	0.068	-0.007
-541.237	-42.250	0.292	0.151
-540.223	800.000	0.055	0.202
-539.208	107.865	-0.112	-0.135
-538.193	70.585	0.112	0.117
-537.179	79.802	-0.043	-0.047
-536.164	206.710	0.202	-0.319
-535.150	800.000	0.076	-0.227
-534.135	-25.147	0.083	-0.050
-533.121	-4.886	-0.117	-0.081
-532.106	-62.763	-0.130	-0.054
-531.091	31.072	-0.058	0.051
-530.077	15.739	0.231	-0.184
-529.062	800.000	0.085	-0.247
-528.048	147.460	0.234	-0.319
-527.033	-119.167	-0.093	0.016
-526.018	284.020	-0.070	0.127
-525.004	-200.000	-0.027	0.288
-523.989	800.000	-0.071	-0.265
-522.975	-33.408	-0.049	-0.027
-521.960	-152.725	-0.174	-0.013
-520.945	-171.713	-0.521	-0.017
-519.931	800.000	0.012	0.040
-518.916	-80.308	0.093	0.031
-517.902	-85.544	0.255	0.080
-516.887	-180.539	-0.090	-0.002
-515.872	78.360	0.107	0.115
-514.858	30.721	0.135	-0.117
-513.843	-200.000	-0.002	0.242
-512.829	153.045	0.057	0.078
-511.814	489.634	0.077	0.177
-510.799	-56.094	0.159	0.071
-509.785	800.000	-0.013	-0.049
-508.770	251.660	0.064	0.111
-507.756	-118.437	0.316	0.057
-506.741	-105.527	0.098	-0.022
-505.726	30.900	0.128	-0.111
-504.712	-127.519	-0.191	0.028
-503.697	800.000	0.112	0.346
-502.683	-59.992	-0.229	0.099
-501.668	-200.000	0.014	0.170
-500.653	17.653	0.123	0.098
-499.639	-2.809	0.264	0.187
-498.624	-15.736	-0.141	0.091
-497.610	-200.000	-0.016	0.099
-496.595	-20.801	-0.045	0.028
-495.581	-47.191	0.283	0.139
-494.566	-200.000	0.014	-0.153
-493.551	-7.486	-0.034	0.023
-492.537	-122.676	0.266	0.043
-491.522	-96.737	0.299	0.079
-490.508	3.591	0.084	-0.062
-489.493	257.671	-0.116	0.201
-488.478	-153.853	-0.207	0.014
-487.464	238.284	0.028	0.047
-486.449	359.548	-0.127	-0.256
-485.435	235.606	0.047	0.078
-484.420	11.659	-0.087	0.067
-483.405	-200.000	-0.012	-0.181
-482.391	-81.503	0.365	-0.121
-481.376	-43.756	-0.383	0.194
-480.362	-200.000	-0.005	0.160
-479.347	-200.000	-0.008	-0.300
-478.332	58.189	0.149	0.147
-477.318	45.403	-0.140	0.130
-476.303	74.501	0.075	0.079
-475.289	75.321	0.136	-0.145
-474.274	745.298	-0.076	0.206
-473.259	-120.612	0.226	-0.039
-472.245	-154.246	0.388	-0.026
-471.230	-94.417	0.138	0.038
-470.216	-44.134	-0.203	-0.103
-469.201	800.000	-0.075	-0.227
-468.186	-82.350	-0.355	0.116
-467.172	-100.854	0.383	-0.095
-466.157	-200.000	-0.017	-0.217
-465.143	-97.018	0.240	0.063
-464.128	2.542	0.050	0.036
-463.113	30.084	-0.378	0.325
-462.099	683.922	-0.034	0.089
-461.084	2.553	0.251	0.183
-460.070	-200.000	-0.016	-0.090
-459.055	356.915	-0.098	-0.198
-458.040	-45.122	0.121	0.061
-457.026	800.000	0.068	0.221
-456.011	5.825	0.137	0.102
-454.997	225.469	0.074	0.121
-453.982	-200.000	-0.050	-0.250
-452.968	-200.000	-0.027	-0.277
-451.953	108.809	0.029	-0.035
-450.938	800.000	0.059	0.221
-449.924	-13.480	0.067	-0.044
-448.909	25.360	0.315	-0.264
-447.895	40.287	0.278	-0.252
-446.880	118.488	0.104	0.129
-445.865	729.806	0.042	-0.114
-444.851	-200.000	0.040	-0.235
-443.836	800.000	-0.052	-0.196
-442.822	-81.312	0.059	0.020
-441.807	-200.000	-0.100	-0.447
-440.792	-200.000	-0.043	-0.274
-439.778	353.974	-0.064	-0.129
-438.763	66.339	-0.088	-0.090
-437.749	220.633	0.226	0.365
-436.734	280.772	-0.100	0.180
-435.719	-70.023	-0.044	0.017
-434.705	221.859	-0.048	0.078
-433.690	256.192	-0.134	0.231
-432.676	435.707	0.216	0.472
-431.661	-200.000	0.002	-0.075
-430.646	800.000	-0.071	0.230
-429.632	800.000	-0.062	0.202
-428.617	-36.212	-0.436	0.237
-427.603	-200.000	0.034	0.301
-426.588	-200.000	-0.036	0.216
-425.573	-67.197	0.227	-0.090
-424.559	-13.723	0.185	-0.120
-423.544	-13.026	-0.269	0.176
-422.530	-87.216	0.127	-0.039
-421.515	156.708	-0.181	0.252
-420.500	-194.324	-0.281	-0.002
-419.486	800.000	0.028	-0.114
-418.471	75.535	-0.090	0.096
-417.457	800.000	-0.050	0.145
-416.442	-141.094	0.096	0.010
-415.428	-200.000	-0.042	-0.220
-414.413	60.973	0.142	-0.142
-413.398	366.552	0.123	0.250
-412.384	-77.899	-0.059	-0.021
-411.369	35.942	-0.109	0.096
-410.355	420.583	-0.134	-0.288
-409.340	134.620	0.243	-0.317
-408.325	51.108	-0.252	-0.241
-407.311	-200.000	0.007	-0.147
-406.296	800.000	-0.086	-0.312
-405.282	-145.760	-0.087	-0.008
-404.267	-200.000	-0.018	-0.160
-403.252	-117.774	0.059	0.011
-402.238	-24.836	0.205	-0.123
-401.223	-137.620	0.225	0.025
-400.209	-68.003	-0.055	-0.022
-399.194	78.289	-0.257	-0.276
-398.179	-96.649	0.076	-0.020
-397.165	127.024	0.190	0.242
-396.150	-90.015	0.121	0.036
-395.136	346.294	0.153	0.303
-394.121	800.000	-0.066	-0.259
-393.106	392.327	-0.073	-0.153
-392.092	81.394	0.040	-0.043
-391.077	-138.127	0.051	0.006
-390.063	236.735	-0.176	-0.293
-389.048	-98.901	0.220	-0.056
-388.033	16.995	-0.289	0.230
-387.019	255.826	-0.031	-0.054
-386.004	-200.000	-0.030	0.185
-384.990	119.740	-0.116	0.145
-383.975	64.989	-0.268	-0.272
-382.960	-2.356	-0.209	0.147
-381.946	-200.000	-0.009	-0.103
-380.931	135.078	-0.061	-0.080
-379.917	-200.000	-0.017	-0.381
-378.902	31.731	-0.159	0.138
-377.888	-35.834	-0.207	0.113
-376.873	302.818	-0.118	0.219
-375.858	266.053	-0.088	-0.154
-374.844	-125.281	-0.533	-0.082
-373.829	-45.517	-0.286	0.142
-372.815	-100.241	-0.095	0.024
-371.800	-200.000	0.035	-0.176
-370.785	238.869	0.135	0.225
-369.771	800.000	0.115	0.359
-368.756	474.272	-0.105	-0.238
-367.742	-120.740	-0.065	-0.011
-366.727	-164.024	-0.081	-0.004
-365.712	-14.447	0.030	0.020
-364.698	10.881	-0.107	0.082
-363.683	-200.000	-0.022	0.222
-362.669	-200.000	0.015	0.101
-361.654	1.845	0.332	0.240
-360.639	-107.807	-0.214	-0.047
-359.625	-112.537	-0.178	-0.036
-358.610	186.009	0.105	0.156
-357.596	800.000	0.057	0.183
-356.581	-77.379	0.263	-0.092
-355.566	-50.695	0.447	-0.211
-354.552	595.703	-0.042	-0.104
-353.537	538.399	0.033	-0.079
-352.523	-41.785	-0.201	-0.104
-351.508	632.153	0.064	-0.164
-350.493	-133.858	-0.171	0.021
-349.479	45.416	-0.242	-0.224
-348.464	-9.372	-0.164	-0.110
-347.450	163.951	0.089	0.125
-346.435	-200.000	0.005	0.062
-345.420	360.808	0.051	0.101
-344.406	800.000	-0.055	-0.162
-343.391	-97.179	0.060	-0.016
-342.377	-49.997	0.195	-0.093
-341.362	-146.696	-0.134	0.012
-340.348	244.376	-0.054	-0.091
-339.333	32.715	0.166	0.144
-338.318	42.061	0.084	0.077
-337.304	-136.942	0.143	-0.016
-336.289	441.042	0.075	0.165
-335.275	-167.818	0.385	0.015
-334.260	-155.447	-0.303	0.020
-333.245	471.961	-0.017	-0.037
-332.231	-27.180	-0.077	-0.045
-331.216	16.682	-0.156	-0.124
-330.202	107.068	0.100	0.120
-329.187	435.544	-0.141	0.308
-328.172	-200.000	-0.009	0.248
-327.158	157.897	0.091	0.127
-326.143	-99.152	0.150	0.038
-325.129	374.212	-0.047	-0.095
-324.114	48.322	0.232	0.218
-323.099	30.052	0.101	0.086
-322.085	154.705	-0.066	0.090
-321.070	770.592	0.045	-0.122
-320.056	-174.130	0.176	-0.005
-319.041	183.220	-0.311	0.460
-318.026	111.063	0.200	0.241
-317.012	800.000	-0.031	0.116
-315.997	-144.722	0.057	-0.005
-314.983	85.099	0.102	-0.113
-313.968	-200.000	-0.025	0.234
-312.953	-200.000	0.091	0.456
-311.939	520.986	-0.093	0.218
-310.924	-120.743	0.159	-0.027
-309.910	-200.000	0.005	-0.147
-308.895	194.157	-0.072	-0.109
-307.880	-2.546	0.233	-0.163
-306.866	655.307	-0.049	-0.127
-305.851	-197.980	0.438	-0.003
-304.837	-200.000	-0.051	0.364
-303.822	-200.000	-0.001	0.169
-302.807	-27.360	0.529	0.308
-301.793	-200.000	0.002	-0.216
-300.778	-122.708	0.415	-0.067
-299.764	800.000	-0.105	0.303
-298.749	110.600	0.146	-0.176
-297.735	-200.000	-0.031	0.207
-296.720	55.288	-0.306	0.297
-295.705	86.348	-0.097	0.107
-294.691	206.798	-0.024	0.038
-293.676	233.577	0.168	0.276
-292.662	-56.570	-0.033	-0.015
-291.647	-194.618	-0.311	-0.002
-290.632	-200.000	0.013	-0.227
-289.618	-82.264	-0.267	-0.087
-288.603	-45.941	-0.396	-0.196
-287.589	-200.000	0.040	-0.291
-286.574	-183.446	-0.226	-0.004
-285.559	-200.000	-0.039	0.178
-284.545	-200.000	0.003	0.207
-283.530	-200.000	0.029	-0.265
-282.516	-79.264	0.102	-0.035
-281.501	800.000	0.027	-0.098
-280.486	79.385	0.120	-0.129
-279.472	253.664	-0.133	0.228
-278.457	-173.619	-0.132	0.004
-277.443	10.190	0.041	-0.031
-276.428	-36.563	0.311	0.167
-275.413	-191.488	-0.331	0.003
-274.399	-200.000	-0.072	-0.344
-273.384	-128.340	0.153	-0.022
-272.370	-136.209	0.225	0.026
-271.355	-200.000	-0.013	0.105
-270.340	-172.088	-0.117	-0.004
-269.326	551.912	-0.032	-0.076
-268.311	800.000	-0.032	-0.134
-267.297	110.051	0.161	-0.193
-266.282	42.752	-0.106	-0.096
-265.267	705.593	-0.124	-0.328
-264.253	54.147	0.062	-0.059
-263.238	204.833	0.195	0.303
-262.224	-200.000	-0.038	-0.210
-261.209	-114.305	-0.276	-0.053
-260.195	800.000	-0.054	-0.157
-259.180	25.636	-0.065	-0.054
-258.165	246.981	-0.073	0.123
-257.151	-56.272	0.309	-0.137
-256.136	-200.000	-0.184	-0.000
-255.122	800.000	-0.115	-0.350
-254.107	127.429	-0.218	0.277
-253.092	107.458	-0.148	-0.176
-252.078	42.609	-0.218	0.198
-251.063	130.798	-0.027	0.035
-250.049	-19.968	-0.120	0.074
-249.034	-146.006	0.073	0.006
-248.019	-126.062	-0.163	-0.024
-247.005	-38.233	-0.285	0.151
-245.990	26.846	0.183	-0.154
-244.976	176.244	0.042	0.061
-243.961	-29.763	-0.252	0.144
-242.946	800.000	-0.024	-0.089
-241.932	-16.023	0.208	0.132
-240.917	-137.266	-0.233	0.026
-239.903	345.823	-0.111	-0.218
-238.888	-101.577	0.168	-0.041
-237.873	-41.307	0.194	-0.100
-236.859	606.211	0.077	0.193
-235.844	-58.150	-0.228	0.099
-234.830	-144.705	0.114	0.010
-233.815	-14.529	0.225	-0.145
-232.800	-200.000	0.203	-0.001
-231.786	-89.517	0.229	-0.067
-230.771	-110.491	-0.348	0.072
-229.757	575.367	0.075	-0.182
-228.742	800.000	0.051	-0.167
-227.727	-23.634	0.115	-0.069
-226.713	10.353	-0.062	-0.047
-225.698	-193.285	-0.281	0.002
-224.684	-44.736	0.058	0.029
-223.669	178.969	0.045	0.066
-222.655	800.000	-0.070	0.194
-221.640	412.060	0.173	0.367
-220.625	172.653	-0.183	0.262
-219.611	731.690	0.078	0.209
-218.596	-200.000	-0.002	-0.242
-217.582	753.587	0.050	-0.134
-216.567	19.698	0.090	-0.072
-215.552	-144.711	-0.231	0.021
-214.538	-119.621	-0.136	-0.023
-213.523	747.660	0.039	-0.104
-212.509	-119.583	-0.072	-0.012
-211.494	684.803	-0.051	-0.134
-210.479	800.000	-0.016	0.069
-209.465	272.594	-0.150	0.264
-208.450	800.000	0.079	0.312
-207.436	101.750	0.106	0.124
-206.421	704.439	0.090	0.238
-205.406	-146.495	-0.173	-0.015
-204.392	800.000	0.093	-0.266
-203.377	-32.217	-0.179	-0.100
-202.363	46.651	-0.299	0.277
-201.348	118.917	0.163	0.202
-200.333	64.169	0.125	0.125
-199.319	-200.000	0.013	-0.162
-198.304	-39.367	0.118	-0.062
-197.290	-92.019	0.170	0.048
-196.275	-174.585	-0.148	0.004
-195.260	118.639	-0.191	-0.235
-194.246	-111.174	-0.200	-0.041
-193.231	-174.609	-0.211	-0.006
-192.217	329.686	-0.049	-0.095
-191.202	258.892	-0.115	-0.198
-190.187	-15.412	-0.029	0.019
-189.173	220.302	0.208	0.333
-188.158	-31.238	0.231	0.130
-187.144	-200.000	-0.005	-0.027
-186.129	-144.687	0.238	0.022
-185.114	43.302	-0.089	-0.081
-184.100	-122.644	0.135	-0.022
-183.085	-20.412	0.319	-0.196
-182.071	800.000	0.063	-0.221
-181.056	140.438	0.041	-0.053
-180.042	-134.538	-0.418	-0.051
-179.027	-43.027	-0.194	0.098
-178.012	267.004	0.083	0.145
-176.998	70.501	0.235	-0.242
-175.983	800.000	0.079	-0.230
-174.969	-28.122	0.116	-0.067
-173.954	-111.573	0.202	-0.041
-172.939	84.636	0.080	-0.088
-171.925	-200.000	0.040	-0.183
-170.910	-88.027	0.086	0.026
-169.896	3.249	-0.253	-0.183
-168.881	-133.938	0.152	0.019
-167.866	713.109	-0.069	-0.181
-166.852	800.000	-0.055	-0.229
-165.837	-93.358	0.171	-0.047
-164.823	16.857	0.067	-0.052
-163.808	256.276	0.027	0.046
-162.793	13.547	0.159	0.123
-161.779	800.000	0.111	-0.378
-160.764	506.367	0.108	-0.249
-159.750	-126.869	0.177	0.026
-158.735	500.947	-0.104	0.239
-157.720	-38.162	-0.283	-0.150
-156.706	15.961	-0.089	0.070
-155.691	-162.858	0.179	0.009
-154.677	-86.083	-0.214	0.066
-153.662	-63.500	-0.164	-0.067
-152.647	-135.640	-0.281	0.033
-151.633	-136.507	0.181	-0.021
-150.618	800.000	0.100	-0.312
-149.604	-155.296	0.123	0.008
-148.589	20.262	-0.182	-0.146
-147.574	369.104	0.169	-0.341
-146.560	725.205	0.060	-0.158
-145.545	277.907	0.113	-0.201
-144.531	800.000	-0.096	-0.382
-143.516	79.858	0.087	-0.093
-142.502	-200.000	-0.032	-0.208
-141.487	-47.315	-0.065	-0.032
-140.472	472.114	-0.078	-0.175
-139.458	-122.660	-0.230	-0.037
-138.443	-46.066	0.169	0.083
-137.429	201.372	-0.056	0.086
-136.414	-200.000	-0.042	0.310
-135.399	-200.000	0.051	-0.293
-134.385	-200.000	0.002	0.139
-133.370	83.615	0.147	0.160
-132.356	-200.000	-0.018	0.098
-131.341	-125.448	-0.256	0.039
-130.326	-200.000	0.008	0.123
-129.312	210.680	-0.269	0.421
-128.297	-68.854	0.558	-0.214
-127.283	105.831	-0.228	-0.269
-126.268	171.990	-0.090	-0.129
-125.253	-17.149	0.267	-0.168
-124.239	-139.106	0.140	-0.015
-123.224	23.268	0.079	-0.065
-122.210	800.000	0.071	-0.231
-121.195	-200.000	-0.001	-0.180
-120.180	449.841	0.089	-0.195
-119.166	-76.652	-0.311	0.108
-118.151	-200.000	0.085	-0.469
-117.137	55.246	0.053	0.051
-116.122	-200.000	0.015	-0.067
-115.107	160.889	-0.050	-0.069
-114.093	-200.000	-0.037	0.193
-113.078	-85.389	0.458	-0.142
-112.064	704.024	0.076	-0.201
-111.049	800.000	-0.028	0.081
-110.034	-21.171	0.089	0.054
-109.020	31.063	-0.238	0.203
-108.005	-41.966	-0.182	0.093
-106.991	-18.389	-0.057	-0.036
-105.976	-21.058	0.307	0.187
-104.962	-35.251	0.165	0.089
-103.947	-185.161	0.206	-0.003
-102.932	424.227	0.071	0.153
-101.918	341.595	0.069	0.134
-100.903	172.747	-0.163	0.233
-99.889	-22.406	0.093	0.056
-98.874	-84.001	-0.249	-0.079
-97.859	-1.494	-0.089	0.062
-96.845	46.204	-0.046	0.042
-95.830	-148.944	0.262	0.021
-94.816	441.671	-0.125	0.272
-93.801	-110.554	-0.470	0.097
-92.786	22.871	-0.209	0.170
-91.772	200.134	0.057	0.088
-90.757	800.000	-0.056	-0.184
-89.743	800.000	0.180	-0.538
-88.728	55.913	0.306	-0.294
-87.713	38.096	0.237	0.209
-86.699	800.000	0.027	-0.118
-85.684	19.312	0.055	-0.044
-84.670	-200.000	-0.031	-0.381
-83.655	-154.767	0.236	-0.016
-82.640	329.170	0.041	0.077
-81.626	-200.000	0.041	-0.502
-80.611	142.232	-0.095	-0.125
-79.597	195.103	-0.082	-0.124
-78.582	-125.316	0.208	-0.032
-77.567	226.932	0.058	-0.094
-76.553	-102.960	-0.075	0.018
-75.538	800.000	0.055	0.227
-74.524	-200.000	-0.002	-0.116
-73.509	-167.721	0.301	0.012
-72.494	800.000	0.046	0.179
-71.480	-200.000	-0.034	-0.260
-70.465	84.772	0.187	-0.203
-69.451	-97.437	-0.086	-0.022
-68.436	-1.996	-0.077	-0.054
-67.422	-107.567	-0.171	0.037
-66.407	-91.169	-0.307	0.087
-65.392	-31.991	0.098	0.054
-64.378	94.093	-0.126	0.142
-63.363	490.254	-0.131	0.297
-62.349	-200.000	0.017	0.193
-61.334	19.389	-0.969	-0.773
-60.319	395.189	0.147	0.304
-59.305	-200.000	0.029	-0.644
-58.290	147.501	0.718	0.959
-57.276	800.000	0.627	1.723
-56.261	-200.000	90.813	539.172
-55.246	600.127	1378.037	3392.904
-54.232	188.321	2585.783	3834.135
-53.217	123.184	2204.418	2739.063
-52.203	46.967	1736.916	1601.799
-51.188	39.527	1545.076	1373.227
-50.173	37.022	1517.319	1331.336
-49.159	55.436	1565.064	1501.971
-48.144	59.301	1584.618	1547.604
-47.130	40.035	1541.762	1373.596
-46.115	36.716	1525.627	1336.294
-45.100	36.539	1522.921	1332.654
-44.086	36.529	1520.743	1330.623
-43.071	36.516	1518.322	1328.367
-42.057	36.454	1517.160	1326.870
-41.042	36.422	1515.655	1325.284
-40.027	36.491	1514.217	1324.441
-39.013	36.366	1513.216	1322.659
-37.998	36.425	1511.550	1321.553
-36.984	36.404	1510.798	1320.698
-35.969	36.523	1508.946	1319.840
-34.954	36.554	1507.219	1318.491
-33.940	36.532	1506.198	1317.395
-32.925	36.427	1505.089	1315.658
-31.911	36.453	1503.632	1314.509
-30.896	36.554	1502.070	1313.778
-29.881	36.704	1500.635	1313.486
-28.867	36.527	1499.554	1311.291
-27.852	36.629	1497.510	1310.140
-26.838	36.606	1496.408	1308.971
-25.823	36.575	1494.307	1306.870
-24.809	36.621	1492.628	1305.658
-23.794	36.475	1491.679	1303.796
-22.779	36.470	1490.966	1303.087
-21.765	36.482	1489.866	1302.154
-20.750	36.638	1488.087	1301.595
-19.736	36.634	1487.039	1300.600
-18.721	36.575	1486.395	1299.587
-17.706	36.525	1485.097	1298.066
-16.692	36.489	1484.073	1296.876
-15.677	36.513	1482.973	1296.026
-14.663	36.626	1481.723	1295.642
-13.648	36.510	1481.095	1294.264
-12.633	36.449	1480.282	1293.093
-11.619	36.508	1478.794	1292.139
-10.604	36.467	1478.130	1291.229
-9.590	36.498	1477.275	1290.639
-8.575	36.599	1476.490	1290.576
-7.560	36.451	1475.972	1289.087
-6.546	36.591	1474.995	1289.114
-5.531	36.387	1474.659	1287.411
-4.517	36.391	1473.135	1286.057
-3.502	36.443	1472.030	1285.385
-2.487	36.439	1471.018	1284.427
-1.473	36.509	1469.424	1283.447
-0.458	36.546	1468.112	1282.492
0.556	35.882	1458.754	1269.738
1.571	32.539	1431.795	1224.471
2.586	28.447	1368.608	1144.839
3.600	26.224	1285.064	1061.804
4.615	24.545	1236.875	1012.388
5.629	20.951	1180.513	946.688
6.644	12.468	1095.130	835.219
7.659	5.915	1053.105	770.994
8.673	5.011	1047.434	762.356
9.688	4.870	1044.791	759.678
10.702	4.864	1043.483	758.632
11.717	4.915	1041.411	757.303
12.731	7.021	1043.828	769.246
13.746	14.794	1054.120	814.799
14.761	19.800	1061.025	844.576
15.775	19.408	1058.903	840.901
16.790	18.323	1056.446	833.597
17.804	17.236	1054.451	826.663
18.819	16.345	1052.290	820.569
19.834	15.884	1050.756	817.063
20.848	15.623	1050.216	815.304
21.863	15.380	1049.277	813.323
22.877	15.143	1048.723	811.672
23.892	14.985	1047.664	810.016
24.907	14.894	1047.320	809.243
25.921	14.804	1046.346	807.981
26.936	14.993	1045.307	808.019
27.950	15.016	1044.075	807.105
28.965	14.973	1043.728	806.559
29.980	14.986	1042.382	805.512
30.994	15.076	1041.272	805.016
32.009	15.241	1040.333	805.013
33.023	15.172	1039.533	803.991
34.038	15.308	1038.767	803.977
35.053	15.167	1038.081	802.699
36.067	15.130	1036.851	801.499
37.082	15.014	1036.072	800.275
38.096	15.148	1034.938	799.967
39.111	15.190	1034.260	799.570
40.126	15.346	1033.625	799.755
41.140	15.186	1032.665	798.177
42.155	15.024	1031.107	796.132
43.169	14.852	1030.577	794.836
44.184	14.827	1029.480	793.799
45.199	14.779	1028.598	792.824
46.213	14.776	1027.769	792.101
47.228	14.853	1026.638	791.524
48.242	14.922	1025.801	791.136
49.257	15.083	1024.588	790.887
50.271	14.836	1024.008	789.205
51.286	15.099	1023.068	789.652
52.301	15.131	1022.260	789.107
53.315	15.085	1021.341	788.113
54.330	15.019	1019.931	786.647
55.344	14.939	1019.604	785.945
56.359	14.793	1018.269	784.165
57.374	14.975	1017.093	784.040
58.388	14.925	1016.870	783.564
59.403	14.873	1016.341	782.845
60.417	14.783	1015.281	781.536
61.432	14.791	1014.684	781.048
62.447	14.823	1013.973	780.580
63.461	14.710	1013.464	779.594
64.476	14.701	1012.285	778.573
65.490	14.668	1011.324	777.610
66.505	14.780	1010.182	777.186
67.520	14.861	1009.574	777.024
68.534	14.782	1008.867	776.047
69.549	14.705	1008.283	775.172
70.563	14.746	1007.471	774.667
71.578	14.811	1006.617	774.243
72.593	14.561	1005.747	772.350
73.607	14.550	1005.146	771.766
74.622	14.599	1003.759	770.862
75.636	14.546	1003.239	770.150
76.651	14.668	1002.518	770.091
77.666	14.615	1001.556	769.038
78.680	14.703	1000.793	768.789
79.695	14.564	1000.749	768.050
80.709	14.804	999.819	768.370
81.724	14.815	998.790	767.563
82.739	14.829	998.135	767.056
83.753	15.040	997.309	767.322
84.768	14.952	997.165	766.740
85.782	15.159	995.872	766.623
86.797	15.186	995.872	766.679
87.812	15.201	994.616	765.712
88.826	15.106	993.932	764.685
89.841	14.974	993.067	763.348
90.855	15.177	991.753	763.197
91.870	15.192	991.303	762.850
92.884	15.163	990.697	762.187
93.899	15.199	989.812	761.602
94.914	15.116	989.315	760.774
95.928	15.204	988.709	760.640
96.943	15.232	988.078	760.215
97.957	15.153	986.960	758.930
98.972	15.257	985.914	758.528
99.987	15.121	985.449	757.489
101.001	15.146	984.792	757.027
102.016	15.267	983.938	756.851
103.030	15.122	983.137	755.513
104.045	15.157	982.164	754.857
105.060	15.139	981.221	753.986
106.074	15.202	979.602	752.957
107.089	15.046	979.319	751.971
108.103	14.874	978.157	750.241
109.118	14.789	977.646	749.401
110.133	14.799	976.725	748.676
111.147	14.863	975.761	748.158
112.162	14.760	975.081	747.109
113.176	14.772	974.257	746.464
114.191	14.877	973.334	746.158
115.206	14.880	972.469	745.443
116.220	14.818	971.864	744.639
117.235	14.773	971.145	743.821
118.249	14.936	970.059	743.651
119.264	14.854	969.078	742.465
120.279	14.811	968.143	741.493
121.293	14.833	967.211	740.814
122.308	14.783	966.624	740.078
123.322	14.541	966.134	738.564
124.337	14.764	964.773	738.442
125.352	14.622	963.521	736.793
126.366	14.702	962.521	736.314
127.381	14.670	961.732	735.507
128.395	14.637	960.621	734.447
129.410	14.688	959.783	733.964
130.424	14.808	958.751	733.638
131.439	14.805	958.114	733.071
132.454	14.769	957.624	732.473
133.468	15.003	956.497	732.574
134.483	14.897	956.040	731.694
135.497	14.963	955.206	731.279
136.512	14.907	954.557	730.472
137.527	15.013	953.825	730.309
138.541	14.977	952.779	729.288
139.556	14.989	951.846	728.560
140.570	14.975	951.292	728.014
141.585	14.962	950.607	727.367
142.600	15.137	949.953	727.562
143.614	15.199	949.215	727.202
144.629	15.194	948.599	726.646
145.643	15.271	947.601	726.148
146.658	15.248	946.782	725.359
147.673	15.058	946.103	723.951
148.687	14.963	945.038	722.661
149.702	15.001	944.172	722.101
150.716	15.011	943.184	721.324
151.731	14.980	942.510	720.611
152.746	14.965	941.741	719.896
153.760	15.038	940.990	719.570
154.775	14.873	940.325	718.290
155.789	15.013	939.406	718.125
156.804	15.051	938.568	717.584
157.819	15.160	937.805	717.402
158.833	15.195	937.054	716.916
159.848	15.102	936.657	716.150
160.862	15.278	936.199	716.491
161.877	15.132	935.643	715.377
162.892	15.123	934.487	714.392
163.906	14.929	933.863	713.025
164.921	15.022	932.449	712.277
165.935	15.032	931.635	711.635
166.950	15.129	930.849	711.384
167.964	15.110	930.380	710.884
168.979	15.074	929.151	709.727
169.994	14.957	928.151	708.406
171.008	15.076	926.923	707.906
172.023	15.115	926.389	707.604
173.037	15.216	925.420	707.225
174.052	15.259	925.091	707.094
175.067	15.105	924.855	706.201
176.081	15.237	923.464	705.633
177.096	15.153	922.299	704.328
178.110	15.133	921.740	703.754
179.125	15.022	921.219	702.826
180.140	15.138	919.871	702.225
181.154	15.210	919.370	702.081
182.169	15.175	919.120	701.680
183.183	15.218	918.761	701.524
184.198	15.388	917.424	701.154
185.213	15.274	917.307	700.525
186.227	15.401	916.425	700.319
187.242	15.328	916.208	699.785
188.256	15.284	915.703	699.156
189.271	15.568	914.407	699.285
190.286	15.501	913.654	698.371
191.300	15.363	912.917	697.170
192.315	14.958	912.246	694.913
193.329	15.052	911.628	694.775
194.344	15.082	910.735	694.154
195.359	15.123	910.069	693.758
196.373	15.272	909.561	693.926
197.388	15.428	909.446	694.422
198.402	15.403	909.268	694.120
199.417	15.639	908.298	694.294
200.432	15.644	907.990	694.017
201.446	15.615	907.792	693.685
202.461	15.827	907.161	694.015
203.475	15.828	906.631	693.551
204.490	15.712	906.109	692.615
205.504	15.672	905.053	691.582
206.519	15.508	904.269	690.247
207.534	15.629	903.329	689.963
208.548	15.536	902.717	689.053
209.563	15.668	901.973	688.969
210.577	15.532	901.140	687.713
211.592	15.644	900.414	687.557
212.607	15.697	900.099	687.471
213.621	15.807	899.725	687.575
214.636	15.873	898.645	686.956
215.650	15.757	898.034	685.957
216.665	15.711	897.549	685.338
217.680	15.727	897.438	685.257
218.694	15.770	896.604	684.737
219.709	15.882	896.426	684.993
220.723	15.804	895.539	683.940
221.738	15.812	894.651	683.232
222.753	15.760	894.302	682.697
223.767	15.786	893.435	682.077
224.782	15.996	892.312	682.012
225.796	15.980	891.744	681.452
226.811	16.100	890.932	681.257
227.826	15.920	890.694	680.287
228.840	15.874	889.666	679.257
229.855	15.665	889.533	678.251
230.869	15.756	888.723	677.939
231.884	15.884	887.886	677.754
232.899	15.873	887.361	677.250
233.913	15.876	886.467	676.521
234.928	15.973	885.540	676.141
235.942	15.688	885.076	674.586
236.957	15.728	884.248	674.056
237.972	15.824	883.654	673.928
238.986	15.812	882.932	673.269
240.001	15.814	882.662	673.010
241.015	15.930	881.894	672.829
242.030	15.915	880.834	671.903
243.045	15.992	880.384	671.807
244.059	16.079	880.163	671.925
245.074	16.054	878.956	670.845
246.088	16.087	878.292	670.410
247.103	15.990	878.408	670.053
248.117	16.177	877.726	670.215
249.132	16.201	877.174	669.833
250.147	16.210	876.776	669.504
251.161	16.438	875.833	669.629
252.176	16.638	875.134	669.827
253.190	16.404	874.955	668.702
254.205	16.619	873.725	668.556
255.220	16.668	873.106	668.216
256.234	16.534	872.588	667.231
257.249	16.585	871.922	666.864
258.263	16.577	871.810	666.689
259.278	16.554	870.928	665.863
260.293	16.529	870.438	665.331
261.307	16.715	869.714	665.451
262.322	16.657	869.177	664.754
263.336	16.598	868.538	663.971
264.351	16.680	867.993	663.820
265.366	16.664	867.373	663.225
266.380	16.627	867.352	663.005
267.395	16.776	866.646	662.987
268.409	16.828	865.088	661.941
269.424	16.562	864.641	660.503
270.439	16.580	864.234	660.204
271.453	16.648	862.998	659.465
272.468	16.551	862.160	658.390
273.482	16.583	861.972	658.310
274.497	16.580	861.576	657.939
275.512	16.639	860.650	657.406
276.526	16.730	859.817	657.061
277.541	16.688	859.226	656.391
278.555	16.704	858.777	656.050
279.570	16.764	858.410	655.944
280.585	16.737	858.051	655.506
281.599	16.771	857.535	655.188
282.614	16.733	856.863	654.470
283.628	16.888	855.629	654.066
284.643	16.752	855.574	653.440
285.657	16.763	854.933	652.936
286.672	16.788	854.264	652.464
287.687	16.774	853.984	652.139
288.701	16.673	853.474	651.303
289.716	16.812	853.116	651.506
290.730	16.748	852.699	650.886
291.745	16.838	851.813	650.495
292.760	16.927	850.523	649.795
293.774	16.974	850.407	649.830
294.789	17.003	849.443	649.144
295.803	17.168	848.994	649.377
296.818	17.139	848.505	648.834
297.833	16.823	847.848	647.069
298.847	16.854	846.832	646.351
299.862	17.048	846.302	646.629
300.876	16.945	845.787	645.788
301.891	17.072	845.012	645.623
302.906	17.100	844.464	645.252
303.920	17.145	844.228	645.185
304.935	17.275	843.118	644.774
305.949	17.229	842.972	644.431
306.964	17.217	842.325	643.833
307.979	17.226	841.693	643.327
308.993	17.249	841.136	642.932
310.008	17.456	840.468	643.148
311.022	17.353	840.021	642.357
312.037	17.332	839.756	642.018
313.052	17.212	839.295	641.158
314.066	17.181	838.577	640.436
315.081	17.091	837.555	639.261
316.095	17.375	836.604	639.546
317.110	17.122	836.740	638.642
318.125	17.065	836.173	637.936
319.139	17.042	835.755	637.476
320.154	17.216	834.816	637.357
321.168	17.046	834.946	636.762
322.183	17.217	834.038	636.654
323.197	17.183	833.566	636.108
324.212	17.202	832.886	635.604
325.227	17.305	832.460	635.608
326.241	17.316	831.941	635.199
327.256	17.344	831.218	634.692
328.270	17.295	830.770	634.111
329.285	17.273	830.015	633.396
330.300	17.105	829.935	632.657
331.314	17.225	829.277	632.544
332.329	17.214	828.374	631.758
333.343	17.356	827.783	631.779
334.358	17.314	827.344	631.233
335.373	17.441	827.039	631.416
336.387	17.372	826.464	630.667
337.402	17.427	825.965	630.433
338.416	17.480	825.067	629.887
339.431	17.644	824.589	630.074
340.446	17.584	824.272	629.554
341.460	17.811	823.442	629.703
342.475	17.745	823.215	629.229
343.489	17.734	823.037	628.997
344.504	17.843	821.912	628.483
345.519	17.848	821.844	628.394
346.533	17.843	821.327	627.925
347.548	18.011	820.393	627.773
348.562	17.613	820.083	626.015
349.577	17.650	819.483	625.639
350.592	17.739	818.668	625.287
351.606	17.573	818.296	624.339
352.621	17.555	818.078	624.051
353.635	17.640	817.525	623.888
354.650	17.659	817.198	623.650
355.665	17.803	816.750	623.779
356.679	17.637	816.418	622.866
357.694	17.684	815.866	622.562
358.708	17.822	814.902	622.275
359.723	17.734	814.439	621.544
360.738	17.730	814.151	621.255
361.752	17.877	813.511	621.247
362.767	17.837	813.251	620.846
363.781	17.811	813.169	620.637
364.796	17.940	812.612	620.625
365.810	18.027	812.051	620.458
366.825	18.103	812.025	620.659
367.840	18.329	810.927	620.583
368.854	18.277	810.862	620.291
369.869	18.092	810.457	619.257
370.883	18.091	809.745	618.653
371.898	18.207	809.007	618.453
372.913	18.328	808.098	618.140
373.927	18.288	807.891	617.782
374.942	18.187	807.264	616.884
375.956	18.247	806.589	616.531
376.971	18.214	806.258	616.105
377.986	18.380	805.437	616.020
379.000	18.449	805.158	615.999
380.015	18.476	804.583	615.602
381.029	18.451	803.907	614.942
382.044	18.359	803.483	614.233
383.059	18.359	803.031	613.830
384.073	18.510	802.527	613.932
385.088	18.357	802.241	613.113
386.102	18.215	801.860	612.259
387.117	18.258	800.970	611.681
388.132	18.160	800.431	610.863
389.146	18.190	800.141	610.694
390.161	18.259	799.680	610.533
391.175	18.424	799.290	610.773
392.190	18.469	799.007	610.663
393.205	18.322	798.576	609.756
394.219	18.344	798.070	609.391
395.234	18.187	797.831	608.598
396.248	18.359	796.900	608.446
397.263	18.330	796.308	607.836
398.278	18.222	796.101	607.241
399.292	18.102	795.400	606.228
400.307	18.287	794.837	606.400
401.321	18.087	794.805	605.612
402.336	18.183	794.395	605.587
403.350	18.444	793.949	606.117
404.365	18.313	793.573	605.313
405.380	18.548	792.833	605.525
406.394	18.673	792.693	605.806
407.409	18.615	792.141	605.127
408.423	18.621	791.923	604.927
409.438	18.617	791.276	604.366
410.453	18.717	790.979	604.438
411.467	18.841	790.809	604.691
412.482	18.702	790.365	603.808
413.496	18.926	789.379	603.786
414.511	18.752	789.485	603.206
415.526	18.871	788.968	603.173
416.540	18.803	788.599	602.601
417.555	18.934	787.776	602.377
418.569	18.812	787.755	601.879
419.584	18.863	787.217	601.595
420.599	18.931	786.478	601.213
421.613	153.565	1367.393	1786.449
422.628	132.666	1452.027	1786.593
