DTS Sentinel unit serial number:	SN413079Multiplexer serial number:	ORYXHardware model number:	OX4-SRSoftware version number:	ORYX F/W v4.00 Oryx Data Collector v3.7.2.0data status	okinstallation	princeton_trtdifferential loss correction	single-endedforward channel	channel 3reverse channel	N/Adate	2019/09/19time	06:12:35forward acquisition time	60.00reverse acquisition time	0.00gamma	496.2192k internal	0.2349k external	0.2349temperature offset calibration	0.9986default loss term (dB/km)	0.3790temperature slope calibration	1.0000multiplexer offset coefficient	1.0000multiplexer slope coefficient	1.0000fibre end	0.00T internal ref (°C)	19.12T ext. ref 1 (°C)	0.58T ext. ref 2 (°C)	12.76length (m)	temperature (°C)	Stokes	anti-Stokes-747.200	-128.110	0.053	0.008
-746.185	-200.000	0.118	0.595
-745.171	-11.151	0.215	0.142
-744.156	-23.437	-0.163	0.098
-743.142	-134.130	0.145	0.018
-742.127	756.886	0.051	-0.139
-741.112	-0.244	-0.125	-0.089
-740.098	-134.879	-0.194	-0.023
-739.083	800.000	-0.058	0.184
-738.069	151.997	-0.135	0.184
-737.054	-34.463	0.099	-0.054
-736.039	-151.471	-0.260	-0.019
-735.025	13.982	0.178	-0.138
-734.010	686.851	-0.147	-0.384
-732.996	-90.021	0.054	0.016
-731.981	800.000	0.070	0.268
-730.966	-66.856	-0.053	0.021
-729.952	46.762	0.118	0.109
-728.937	-36.870	0.192	0.103
-727.923	-37.183	-0.042	-0.022
-726.908	-43.010	-0.214	0.108
-725.894	44.946	-0.157	-0.144
-724.879	-74.832	-0.280	0.100
-723.864	-200.000	-0.012	0.066
-722.850	-6.696	0.012	-0.008
-721.835	-36.354	0.230	-0.123
-720.821	-200.000	-0.001	-0.299
-719.806	66.293	-0.216	-0.219
-718.791	800.000	-0.068	0.207
-717.777	-200.000	0.008	-0.176
-716.762	-53.718	-0.252	-0.115
-715.748	-200.000	0.020	-0.213
-714.733	-107.849	-0.252	0.055
-713.718	164.181	-0.087	0.122
-712.704	-181.670	-0.233	0.004
-711.689	28.772	-0.281	-0.237
-710.675	-119.988	0.312	0.053
-709.660	-200.000	-0.066	-0.392
-708.645	-200.000	-0.058	0.263
-707.631	-200.000	-0.033	-0.201
-706.616	45.570	0.301	-0.277
-705.602	-101.661	-0.240	-0.058
-704.587	-200.000	0.016	-0.075
-703.572	69.893	-0.133	0.137
-702.558	-199.788	0.244	0.001
-701.543	800.000	-0.132	0.455
-700.529	800.000	0.021	0.085
-699.514	69.535	0.096	0.099
-698.499	-128.655	0.395	-0.056
-697.485	-159.663	-0.198	-0.011
-696.470	39.494	-0.131	0.117
-695.456	800.000	0.075	-0.329
-694.441	-200.000	-0.006	-0.103
-693.426	49.098	0.172	0.161
-692.412	-88.924	-0.157	0.047
-691.397	-29.060	0.216	0.123
-690.383	-62.270	-0.148	-0.061
-689.368	-200.000	-0.024	-0.200
-688.354	569.853	-0.171	-0.413
-687.339	132.056	0.190	-0.243
-686.324	230.386	-0.024	-0.039
-685.310	-156.865	-0.140	-0.009
-684.295	-200.000	0.030	-0.136
-683.281	259.387	-0.179	-0.308
-682.266	324.142	0.194	0.369
-681.251	-105.405	-0.240	-0.054
-680.237	800.000	-0.060	0.189
-679.222	50.386	-0.029	-0.027
-678.208	-135.184	-0.345	0.041
-677.193	-13.028	0.274	0.177
-676.178	35.934	-0.211	0.184
-675.164	-120.147	-0.109	-0.018
-674.149	680.801	0.020	-0.052
-673.135	-135.020	-0.182	-0.022
-672.120	800.000	-0.073	-0.281
-671.105	450.578	-0.131	-0.288
-670.091	-200.000	-0.028	-0.167
-669.076	68.092	0.057	-0.058
-668.062	-154.204	0.176	-0.012
-667.047	-200.000	0.026	-0.497
-666.032	31.124	0.116	0.099
-665.018	113.294	-0.025	0.031
-664.003	241.023	-0.273	-0.454
-662.989	-47.009	-0.236	0.115
-661.974	569.603	0.095	0.231
-660.959	-3.110	0.255	0.177
-659.945	-200.000	0.017	-0.128
-658.930	-42.020	-0.286	-0.146
-657.916	3.272	-0.079	0.057
-656.901	293.792	-0.175	0.319
-655.886	153.197	0.168	-0.229
-654.872	483.109	-0.099	-0.225
-653.857	248.055	-0.163	-0.275
-652.843	800.000	0.109	-0.327
-651.828	-129.284	-0.346	-0.048
-650.814	-158.237	-0.093	-0.005
-649.799	-25.560	0.247	-0.145
-648.784	-18.079	-0.079	0.049
-647.770	-200.000	0.006	0.097
-646.755	618.378	0.098	0.244
-645.741	-200.000	-0.033	0.159
-644.726	-167.100	0.248	-0.010
-643.711	-152.608	-0.236	-0.017
-642.697	-174.657	0.302	-0.009
-641.682	-27.081	-0.250	-0.145
-640.668	156.841	-0.113	-0.155
-639.653	-123.228	0.146	-0.023
-638.638	31.467	-0.105	-0.089
-637.624	59.382	-0.083	0.081
-636.609	40.436	-0.315	-0.282
-635.595	-169.690	-0.370	-0.013
-634.580	-143.220	-0.052	0.005
-633.565	-133.441	-0.197	-0.025
-632.551	-195.754	0.426	-0.003
-631.536	-92.663	-0.121	-0.034
-630.522	800.000	0.046	0.148
-629.507	-92.293	-0.198	-0.056
-628.492	-200.000	-0.004	-0.153
-627.478	800.000	0.126	-0.478
-626.463	800.000	0.085	-0.340
-625.449	-200.000	0.044	0.209
-624.434	-120.653	-0.093	0.016
-623.419	81.472	0.171	-0.184
-622.405	10.349	0.061	-0.046
-621.390	-21.619	0.029	0.018
-620.376	-116.413	0.216	-0.040
-619.361	-200.000	-0.005	0.200
-618.346	-82.305	-0.267	0.086
-617.332	-99.163	0.143	-0.036
-616.317	-94.217	-0.416	-0.113
-615.303	-112.703	-0.146	-0.029
-614.288	-138.058	-0.177	0.020
-613.273	217.596	-0.070	-0.111
-612.259	-98.377	0.106	-0.027
-611.244	-200.000	-0.073	-0.377
-610.230	-200.000	0.006	0.275
-609.215	120.063	0.203	-0.250
-608.201	304.560	-0.014	0.025
-607.186	-200.000	-0.036	-0.186
-606.171	-200.000	-0.042	-0.203
-605.157	-164.311	0.086	0.004
-604.142	-169.780	-0.296	0.011
-603.128	-48.237	-0.078	0.037
-602.113	282.018	0.060	0.107
-601.098	-200.000	-0.002	0.262
-600.084	-153.570	0.297	0.020
-599.069	1.983	0.216	-0.155
-598.055	-58.310	-0.183	-0.079
-597.040	149.715	0.097	0.131
-596.025	-19.780	0.414	-0.254
-595.011	-200.000	-0.027	-0.390
-593.996	-200.000	0.048	-0.283
-592.982	-82.351	-0.316	0.102
-591.967	35.138	0.326	0.284
-590.952	-200.000	-0.001	0.134
-589.938	-191.513	-0.424	0.004
-588.923	-200.000	0.002	0.269
-587.909	168.983	-0.191	0.270
-586.894	11.164	0.179	-0.136
-585.879	-200.000	-0.052	-0.324
-584.865	373.760	-0.029	-0.059
-583.850	-49.455	-0.395	-0.187
-582.836	-23.784	0.164	0.098
-581.821	318.941	-0.236	-0.444
-580.806	151.084	-0.161	-0.218
-579.792	165.625	-0.136	-0.192
-578.777	168.389	-0.178	0.251
-577.763	37.734	-0.312	0.275
-576.748	-101.308	0.156	-0.038
-575.733	-76.150	0.186	-0.065
-574.719	79.246	-0.235	-0.250
-573.704	247.750	-0.228	0.382
-572.690	-88.094	-0.318	-0.095
-571.675	-148.802	-0.077	0.006
-570.661	12.447	-0.264	-0.202
-569.646	240.253	0.060	0.100
-568.631	800.000	-0.048	-0.190
-567.617	598.126	-0.113	0.279
-566.602	-160.406	-0.111	-0.006
-565.588	50.957	0.098	-0.092
-564.573	53.493	-0.150	0.142
-563.558	47.825	-0.181	-0.168
-562.544	112.292	0.074	-0.089
-561.529	-200.000	-0.036	-0.384
-560.515	91.186	0.059	-0.066
-559.500	22.788	0.156	0.126
-558.485	-168.212	0.069	-0.003
-557.471	486.150	-0.137	-0.309
-556.456	17.944	-0.166	0.131
-555.442	67.900	0.335	-0.339
-554.427	342.711	0.071	-0.138
-553.412	-49.773	-0.205	-0.097
-552.398	83.498	-0.076	-0.082
-551.383	102.899	0.226	-0.262
-550.369	-200.000	-0.001	-0.293
-549.354	-16.192	0.080	0.050
-548.339	389.657	-0.071	-0.146
-547.325	-108.172	0.303	0.065
-546.310	99.583	-0.140	0.161
-545.296	800.000	-0.033	0.112
-544.281	101.293	-0.034	0.039
-543.266	129.581	-0.092	-0.116
-542.252	211.433	0.204	0.317
-541.237	101.571	0.249	0.287
-540.223	26.748	0.206	0.171
-539.208	-200.000	-0.048	0.267
-538.193	-46.009	-0.187	-0.091
-537.179	-48.269	0.386	-0.184
-536.164	-37.012	-0.121	-0.064
-535.150	-200.000	0.036	0.249
-534.135	-166.335	-0.069	0.003
-533.121	-200.000	-0.011	0.159
-532.106	-24.909	0.092	-0.054
-531.091	-3.734	0.082	-0.057
-530.077	800.000	0.089	0.244
-529.062	71.145	0.030	-0.031
-528.048	627.782	-0.101	-0.254
-527.033	-47.880	-0.140	-0.067
-526.018	-200.000	0.014	0.399
-525.004	128.042	0.156	0.197
-523.989	224.454	-0.061	-0.097
-522.975	-47.020	0.153	-0.074
-521.960	-125.646	-0.301	0.045
-520.945	19.994	-0.103	-0.083
-519.931	138.790	0.101	0.131
-518.916	-89.043	-0.113	0.033
-517.902	-139.560	-0.265	-0.028
-516.887	67.821	0.288	-0.292
-515.872	-75.881	0.223	-0.078
-514.858	-115.937	-0.110	0.020
-513.843	82.765	0.176	0.189
-512.829	-156.983	0.197	0.012
-511.814	-77.062	-0.356	-0.123
-510.799	-200.000	0.035	0.253
-509.785	116.138	-0.206	0.249
-508.770	-114.743	-0.134	-0.025
-507.756	-86.366	0.304	-0.093
-506.741	259.884	0.053	0.091
-505.726	66.535	-0.192	0.193
-504.712	-200.000	-0.009	-0.114
-503.697	197.934	0.190	-0.287
-502.683	189.999	-0.078	0.115
-501.668	-23.324	-0.169	-0.101
-500.653	29.997	0.391	0.329
-499.639	-166.323	-0.416	-0.017
-498.624	407.326	0.132	-0.276
-497.610	-200.000	0.016	0.148
-496.595	441.882	-0.026	-0.056
-495.581	136.845	0.266	0.344
-494.566	800.000	-0.074	0.220
-493.551	185.359	0.130	0.190
-492.537	163.011	-0.078	-0.108
-491.522	-188.947	-0.177	0.002
-490.508	-0.261	0.060	0.042
-489.493	178.846	-0.100	-0.145
-488.478	800.000	0.110	0.440
-487.464	-93.485	-0.372	-0.102
-486.449	-135.238	-0.256	0.030
-485.435	-67.598	0.211	0.082
-484.420	33.664	0.169	0.145
-483.405	800.000	0.124	-0.372
-482.391	115.077	-0.100	-0.121
-481.376	34.444	0.215	-0.185
-480.362	15.197	-0.127	0.098
-479.347	20.979	0.098	0.079
-478.332	-200.000	0.070	-0.446
-477.318	91.016	0.069	0.077
-476.303	-53.368	0.194	0.088
-475.289	546.200	0.172	-0.406
-474.274	-148.745	-0.073	-0.006
-473.259	262.098	0.026	0.045
-472.245	-112.422	-0.258	-0.051
-471.230	93.053	0.089	0.099
-470.216	-16.819	0.186	-0.116
-469.201	408.593	0.116	0.243
-468.186	262.912	-0.091	0.156
-467.172	-128.062	-0.192	-0.027
-466.157	9.231	-0.255	0.190
-465.143	-82.698	-0.180	-0.057
-464.128	104.260	0.233	-0.271
-463.113	81.869	0.036	-0.039
-462.099	-70.156	-0.316	-0.119
-461.084	-200.000	-0.001	0.009
-460.070	198.259	-0.128	0.194
-459.055	-98.465	-0.269	-0.068
-458.040	-29.516	0.514	-0.290
-457.026	28.369	0.185	0.155
-456.011	800.000	-0.096	-0.340
-454.997	237.007	0.302	-0.495
-453.982	-20.352	0.169	0.103
-452.968	-200.000	0.020	0.257
-451.953	284.469	-0.161	0.286
-450.938	314.233	-0.209	-0.389
-449.924	-59.394	-0.311	-0.132
-448.909	638.445	-0.143	0.359
-447.895	-47.368	0.110	-0.053
-446.880	101.636	-0.046	0.053
-445.865	-99.137	0.181	-0.045
-444.851	707.932	0.149	0.389
-443.836	493.083	0.031	-0.071
-442.822	-99.836	0.044	-0.011
-441.807	16.268	-0.102	-0.079
-440.792	45.083	-0.237	-0.216
-439.778	82.728	0.154	0.166
-438.763	14.995	0.259	0.200
-437.749	-147.220	-0.282	-0.024
-436.734	-55.864	-0.170	0.075
-435.719	-102.609	-0.255	-0.060
-434.705	800.000	0.026	-0.111
-433.690	47.880	0.079	0.073
-432.676	37.577	-0.101	-0.088
-431.661	-139.136	0.041	-0.004
-430.646	-200.000	-0.002	0.236
-429.632	800.000	-0.107	-0.364
-428.617	-200.000	0.004	-0.195
-427.603	350.276	0.163	-0.317
-426.588	426.581	-0.061	0.131
-425.573	-84.952	-0.365	-0.113
-424.559	218.544	-0.146	0.230
-423.544	800.000	-0.084	0.262
-422.530	-200.000	-0.001	0.164
-421.515	800.000	0.054	0.203
-420.500	-39.108	-0.052	0.027
-419.486	475.510	0.105	0.235
-418.471	-200.000	0.006	-0.445
-417.457	173.653	0.098	-0.139
-416.442	72.685	-0.155	-0.160
-415.428	-13.230	0.035	0.023
-414.413	-200.000	-0.006	-0.141
-413.398	-141.865	0.159	-0.016
-412.384	-146.550	-0.179	0.015
-411.369	59.254	-0.053	-0.051
-410.355	3.190	0.061	0.043
-409.340	-158.914	-0.531	-0.030
-408.325	-200.000	-0.028	0.560
-407.311	-200.000	-0.011	-0.222
-406.296	-148.429	-0.112	-0.009
-405.282	228.715	-0.199	0.320
-404.267	-90.868	0.353	0.100
-403.252	800.000	0.093	-0.376
-402.238	800.000	-0.053	-0.165
-401.223	448.849	-0.072	-0.155
-400.209	-35.829	-0.202	0.108
-399.194	-47.488	-0.345	0.165
-398.179	-45.909	0.373	0.182
-397.165	119.965	-0.132	-0.162
-396.150	-147.912	0.196	0.016
-395.136	160.011	-0.134	-0.183
-394.121	800.000	0.081	0.246
-393.106	-200.000	-0.038	0.170
-392.092	39.000	0.233	0.205
-391.077	-21.493	0.399	-0.240
-390.063	455.637	-0.126	-0.276
-389.048	-109.494	0.317	0.066
-388.033	235.185	-0.157	-0.255
-387.019	229.028	-0.106	-0.171
-386.004	121.257	-0.107	0.131
-384.990	-67.809	-0.094	0.036
-383.975	35.456	0.271	0.234
-382.960	93.183	0.308	-0.343
-381.946	-200.000	-0.039	-0.198
-380.931	-115.731	0.101	0.019
-379.917	-141.345	-0.110	-0.011
-378.902	-157.505	-0.356	-0.021
-377.888	379.736	0.098	-0.199
-376.873	18.282	-0.072	-0.056
-375.858	24.863	0.197	-0.161
-374.844	166.501	-0.447	0.623
-373.829	-200.000	0.005	0.220
-372.815	-46.602	0.021	-0.010
-371.800	-159.097	0.289	0.016
-370.785	89.660	-0.110	-0.120
-369.771	-200.000	0.029	0.148
-368.756	387.754	-0.204	0.415
-367.742	-200.000	-0.021	-0.153
-366.727	113.832	-0.189	0.226
-365.712	800.000	0.083	-0.231
-364.698	107.354	0.352	-0.412
-363.683	-200.000	-0.028	-0.122
-362.669	-135.157	-0.194	0.023
-361.654	176.197	0.067	0.096
-360.639	-41.690	-0.256	-0.129
-359.625	-83.830	-0.196	-0.061
-358.610	638.293	-0.106	0.265
-357.596	-59.586	-0.317	0.134
-356.581	-94.544	0.293	-0.078
-355.566	179.134	-0.065	0.094
-354.552	101.898	0.155	0.178
-353.537	-9.967	-0.295	0.193
-352.523	345.215	0.080	-0.154
-351.508	800.000	-0.108	0.300
-350.493	262.036	0.218	-0.372
-349.479	800.000	-0.029	0.112
-348.464	-5.618	0.150	0.101
-347.450	129.556	0.222	-0.279
-346.435	-65.306	0.174	-0.069
-345.420	378.627	0.171	0.343
-344.406	-88.137	0.100	-0.029
-343.391	5.771	0.150	-0.109
-342.377	-148.365	-0.089	-0.007
-341.362	-200.000	-0.028	0.202
-340.348	342.512	0.066	-0.127
-339.333	-114.446	0.309	-0.058
-338.318	-11.895	-0.044	0.028
-337.304	168.363	0.104	-0.146
-336.289	-41.133	0.169	0.086
-335.275	198.351	-0.046	-0.070
-334.260	-200.000	0.004	0.130
-333.245	-89.127	0.220	-0.064
-332.231	497.426	0.045	-0.102
-331.216	800.000	0.033	0.114
-330.202	615.190	-0.089	-0.220
-329.187	285.264	0.067	0.118
-328.172	-86.900	-0.183	-0.055
-327.158	-4.786	-0.153	0.104
-326.143	499.638	0.095	-0.215
-325.129	-200.000	0.012	-0.108
-324.114	-98.914	-0.082	0.020
-323.099	774.511	-0.087	-0.234
-322.085	800.000	-0.052	-0.158
-321.070	6.816	-0.054	0.040
-320.056	-61.359	0.034	-0.014
-319.041	275.994	-0.011	0.019
-318.026	-178.933	0.258	-0.006
-317.012	-29.574	-0.148	-0.083
-315.997	4.757	-0.056	0.041
-314.983	33.120	-0.178	0.152
-313.968	-150.746	-0.289	0.022
-312.953	45.069	-0.294	-0.266
-311.939	62.934	0.232	-0.228
-310.924	-200.000	0.021	0.112
-309.910	672.200	0.076	-0.194
-308.895	570.640	0.080	-0.192
-307.880	-39.054	-0.171	0.088
-306.866	-200.000	-0.008	0.269
-305.851	124.509	-0.124	-0.153
-304.837	-200.000	-0.014	-0.130
-303.822	-200.000	-0.015	0.096
-302.807	-17.807	-0.337	-0.208
-301.793	-86.763	-0.255	0.076
-300.778	-40.527	-0.040	0.020
-299.764	41.197	0.359	-0.318
-298.749	-22.547	-0.278	-0.165
-297.735	-49.095	-0.188	0.088
-296.720	266.291	-0.145	-0.249
-295.705	-141.795	-0.239	0.024
-294.691	-200.000	0.007	-0.124
-293.676	-41.236	-0.196	0.099
-292.662	-64.090	-0.150	0.060
-291.647	371.935	-0.122	0.242
-290.632	26.518	-0.347	0.285
-289.618	-200.000	0.039	0.525
-288.603	241.125	0.111	0.181
-287.589	-200.000	0.057	0.290
-286.574	-115.845	0.223	-0.041
-285.559	-73.312	-0.205	0.073
-284.545	-108.350	-0.299	-0.063
-283.530	348.912	0.145	-0.280
-282.516	-200.000	0.009	-0.155
-281.501	9.383	0.163	0.121
-280.486	-92.643	0.327	-0.090
-279.472	116.138	-0.274	-0.329
-278.457	-200.000	0.052	-0.233
-277.443	-99.440	0.281	0.069
-276.428	-27.534	0.219	0.125
-275.413	800.000	0.088	0.353
-274.399	-115.383	-0.277	0.051
-273.384	-71.090	0.127	0.047
-272.370	-29.970	0.247	0.138
-271.355	679.459	-0.055	0.141
-270.340	-200.000	0.004	-0.346
-269.326	800.000	-0.117	-0.430
-268.311	38.934	-0.112	-0.098
-267.297	299.594	-0.101	-0.182
-266.282	-200.000	-0.009	0.173
-265.267	-95.300	0.259	-0.068
-264.253	-47.655	-0.091	0.043
-263.238	269.227	-0.263	0.452
-262.224	21.268	0.141	-0.112
-261.209	-87.858	-0.269	-0.079
-260.195	-182.069	0.199	-0.004
-259.180	-125.321	0.096	-0.014
-258.165	335.475	0.226	0.429
-257.151	-200.000	-0.016	0.145
-256.136	-200.000	-0.008	-0.136
-255.122	800.000	0.103	-0.373
-254.107	94.081	0.060	-0.067
-253.092	-200.000	0.031	0.144
-252.078	283.506	-0.069	0.121
-251.063	-84.533	0.341	-0.105
-250.049	275.640	0.013	-0.022
-249.034	-105.413	0.028	0.006
-248.019	-200.000	0.059	0.259
-247.005	147.575	0.097	0.128
-245.990	127.934	0.179	0.223
-244.976	74.919	-0.186	0.192
-243.961	-151.084	0.404	0.030
-242.946	38.725	0.245	0.214
-241.932	-200.000	-0.013	-0.154
-240.917	-200.000	-0.044	0.239
-239.903	254.238	0.158	-0.264
-238.888	-200.000	-0.057	-0.255
-237.873	-47.154	0.270	0.129
-236.859	109.098	0.298	0.350
-235.844	-200.000	-0.031	0.139
-234.830	26.864	-0.089	0.073
-233.815	119.449	0.126	-0.153
-232.800	-64.936	0.192	-0.076
-231.786	193.304	-0.056	0.083
-230.771	-25.045	-0.043	-0.025
-229.757	-200.000	-0.011	0.184
-228.742	-66.422	0.223	0.087
-227.727	-85.410	0.374	-0.114
-226.713	800.000	0.080	-0.310
-225.698	-41.004	0.051	0.026
-224.684	-105.216	-0.237	0.053
-223.669	-39.070	0.211	0.109
-222.655	-200.000	-0.022	0.384
-221.640	-22.147	0.468	0.278
-220.625	-89.260	0.287	0.083
-219.611	13.156	-0.187	-0.141
-218.596	522.596	0.083	-0.190
-217.582	-158.820	-0.196	-0.011
-216.567	800.000	-0.070	-0.287
-215.552	-46.483	-0.078	0.037
-214.538	800.000	0.135	0.371
-213.523	-200.000	-0.001	-0.216
-212.509	-100.263	0.121	-0.029
-211.494	775.105	0.147	0.393
-210.479	210.473	-0.222	0.342
-209.465	-20.149	-0.115	0.069
-208.450	-200.000	-0.027	0.250
-207.436	-200.000	-0.015	0.166
-206.421	-200.000	0.002	0.163
-205.406	178.183	0.161	0.230
-204.392	35.706	-0.160	0.137
-203.377	124.976	-0.224	-0.275
-202.363	-177.548	0.227	0.005
-201.348	66.869	0.096	-0.096
-200.333	103.844	0.039	-0.045
-199.319	800.000	-0.052	-0.203
-198.304	-140.293	0.082	0.008
-197.290	459.701	0.108	-0.236
-196.275	-27.968	0.170	0.096
-195.260	141.557	0.206	-0.266
-194.246	-129.355	-0.323	0.044
-193.231	106.856	-0.234	-0.272
-192.217	-91.357	-0.347	0.097
-191.202	307.315	0.181	0.329
-190.187	-13.001	-0.235	0.149
-189.173	-24.417	0.161	-0.094
-188.158	-200.000	0.046	0.281
-187.144	-76.471	-0.343	0.118
-186.129	11.996	0.069	0.052
-185.114	-102.137	0.097	-0.023
-184.100	75.662	0.080	0.083
-183.085	52.305	0.154	0.143
-182.071	-200.000	0.000	0.157
-181.056	48.389	0.170	0.155
-180.042	-48.911	-0.325	0.152
-179.027	-7.490	0.129	0.085
-178.012	-200.000	0.010	-0.347
-176.998	-167.551	-0.451	0.018
-175.983	798.501	0.098	-0.265
-174.969	800.000	-0.035	-0.140
-173.954	300.535	-0.052	-0.094
-172.939	461.263	0.066	-0.143
-171.925	193.845	-0.048	0.071
-170.910	-197.609	0.166	-0.001
-169.896	82.399	0.036	0.038
-168.881	-200.000	0.020	0.306
-167.866	-200.000	-0.014	0.237
-166.852	-114.793	0.218	-0.041
-165.837	95.099	0.143	-0.159
-164.823	800.000	-0.061	0.176
-163.808	-59.490	0.356	0.149
-162.793	-62.023	-0.290	0.118
-161.779	281.627	-0.113	0.198
-160.764	118.692	0.353	0.426
-159.750	106.364	0.270	-0.312
-158.735	-112.250	0.276	0.054
-157.720	-2.475	0.145	0.099
-156.706	-19.573	0.115	0.069
-155.691	-186.675	0.436	0.006
-154.677	149.097	-0.155	-0.205
-153.662	278.704	0.018	0.032
-152.647	-200.000	0.059	-0.323
-151.633	82.005	-0.076	0.081
-150.618	-125.422	-0.166	0.025
-149.604	-121.109	-0.088	0.014
-148.589	160.244	-0.176	0.240
-147.574	266.438	-0.098	0.167
-146.560	3.348	0.344	0.245
-145.545	10.012	-0.120	0.089
-144.531	364.246	0.154	0.302
-143.516	-49.616	-0.356	-0.165
-142.502	-200.000	0.023	-0.207
-141.487	-67.851	-0.286	-0.109
-140.472	-103.689	0.114	-0.026
-139.458	88.864	-0.133	0.145
-138.443	-200.000	-0.006	-0.316
-137.429	-200.000	-0.010	0.321
-136.414	800.000	-0.077	-0.245
-135.399	54.800	0.173	-0.163
-134.385	-200.000	-0.001	-0.090
-133.370	800.000	-0.044	-0.119
-132.356	-200.000	-0.012	-0.151
-131.341	57.147	0.145	-0.137
-130.326	-51.345	0.224	-0.102
-129.312	-200.000	-0.028	-0.177
-128.297	-150.724	-0.172	-0.013
-127.283	201.681	-0.166	0.249
-126.268	103.996	0.116	0.133
-125.253	70.493	0.156	-0.157
-124.239	282.764	0.086	-0.150
-123.224	15.955	-0.119	-0.091
-122.210	-32.183	-0.380	-0.207
-121.195	-52.297	-0.144	-0.065
-120.180	-134.603	-0.147	-0.017
-119.166	553.928	0.033	-0.076
-118.151	198.560	0.201	0.300
-117.137	-8.787	-0.042	-0.028
-116.122	-120.600	-0.302	-0.050
-115.107	87.121	0.043	-0.047
-114.093	207.878	0.148	0.226
-113.078	1.581	-0.097	-0.068
-112.064	91.482	-0.182	-0.199
-111.049	800.000	-0.035	-0.141
-110.034	-102.991	0.281	-0.065
-109.020	150.673	0.093	-0.123
-108.005	-159.093	-0.291	-0.016
-106.991	-9.187	0.178	0.116
-105.976	-200.000	0.046	-0.293
-104.962	535.581	-0.004	-0.009
-103.947	800.000	-0.064	-0.217
-102.932	-200.000	0.006	-0.251
-101.918	91.202	0.121	-0.133
-100.903	-63.916	-0.304	0.121
-99.889	-200.000	0.054	-0.239
-98.874	-200.000	0.060	0.330
-97.859	81.881	0.085	-0.089
-96.845	284.194	-0.104	0.182
-95.830	800.000	0.028	0.092
-94.816	-116.563	0.074	-0.013
-93.801	-200.000	0.047	-0.321
-92.786	-158.096	-0.118	-0.007
-91.772	-23.740	0.127	-0.074
-90.757	-113.993	-0.150	0.028
-89.743	49.472	-0.181	0.166
-88.728	-200.000	0.042	0.249
-87.713	-200.000	-0.011	0.102
-86.699	164.082	-0.125	-0.171
-85.684	8.419	-0.276	0.202
-84.670	-200.000	0.083	-0.403
-83.655	-200.000	-0.040	-0.357
-82.640	490.355	-0.103	0.229
-81.626	800.000	-0.075	0.222
-80.611	9.533	0.126	-0.093
-79.597	216.514	0.275	-0.425
-78.582	-126.464	-0.127	0.018
-77.567	376.327	-0.069	0.138
-76.553	330.074	-0.207	0.388
-75.538	-200.000	-0.020	0.093
-74.524	7.925	0.216	0.158
-73.509	604.160	-0.170	0.411
-72.494	101.851	0.053	0.060
-71.480	800.000	0.054	-0.200
-70.465	-17.953	0.098	-0.060
-69.451	-15.157	0.226	-0.140
-68.436	-200.000	0.017	0.098
-67.422	-138.885	-0.361	0.038
-66.407	-89.706	0.086	0.024
-65.392	181.013	-0.114	-0.163
-64.378	39.221	-0.226	0.197
-63.363	182.982	0.063	0.090
-62.349	-42.019	0.212	-0.105
-61.334	137.009	-1.333	-1.694
-60.319	55.544	0.739	0.695
-59.305	435.246	-0.700	-1.481
-58.290	486.510	0.645	1.430
-57.276	584.239	0.445	1.063
-56.261	-200.000	135.900	627.080
-55.246	344.984	1633.169	3117.413
-54.232	138.948	2768.310	3537.143
-53.217	81.203	2175.345	2284.178
-52.203	28.896	1696.521	1397.735
-51.188	21.982	1522.169	1206.691
-50.173	20.506	1502.139	1180.741
-49.159	44.269	1578.113	1407.690
-48.144	40.005	1588.143	1386.740
-47.130	21.991	1537.843	1218.987
-46.115	19.381	1522.212	1188.582
-45.100	19.172	1518.435	1184.151
-44.086	19.101	1516.841	1182.370
-43.071	19.111	1514.629	1180.672
-42.057	19.112	1513.277	1179.578
-41.042	19.109	1512.147	1178.627
-40.027	18.996	1510.840	1176.785
-39.013	19.020	1508.907	1175.403
-37.998	19.064	1507.557	1174.601
-36.984	19.008	1506.713	1173.515
-35.969	19.017	1505.601	1172.665
-34.954	19.168	1503.869	1172.298
-33.940	18.983	1502.455	1169.887
-32.925	19.005	1501.164	1168.985
-31.911	19.141	1499.357	1168.456
-30.896	19.130	1498.275	1167.494
-29.881	19.256	1496.806	1167.156
-28.867	19.215	1495.534	1165.841
-27.852	19.215	1494.198	1164.752
-26.838	19.255	1493.470	1164.411
-25.823	19.084	1491.980	1162.047
-24.809	19.213	1490.150	1161.445
-23.794	19.161	1488.591	1159.830
-22.779	19.243	1487.292	1159.325
-21.765	19.123	1487.077	1158.304
-20.750	19.238	1485.300	1157.652
-19.736	19.276	1483.897	1156.766
-18.721	19.147	1483.268	1155.361
-17.706	19.188	1481.693	1154.367
-16.692	19.164	1481.006	1153.623
-15.677	19.050	1480.416	1152.354
-14.663	19.057	1479.046	1151.286
-13.648	19.084	1478.120	1150.703
-12.633	19.150	1477.141	1150.339
-11.619	19.094	1476.701	1149.572
-10.604	19.155	1475.334	1148.868
-9.590	19.054	1475.013	1147.904
-8.575	19.117	1473.838	1147.361
-7.560	19.184	1473.261	1147.312
-6.546	19.158	1472.281	1146.330
-5.531	19.063	1471.433	1144.991
-4.517	19.130	1470.181	1144.419
-3.502	19.090	1469.086	1143.253
-2.487	19.035	1468.331	1142.255
-1.473	19.103	1467.102	1141.705
-0.458	19.144	1465.737	1140.870
0.556	18.053	1455.663	1129.129
1.571	14.861	1431.833	1089.775
2.586	11.439	1370.728	1021.786
3.600	10.057	1286.690	950.928
4.615	9.184	1243.681	914.098
5.629	8.267	1187.433	867.694
6.644	4.259	1108.486	789.558
7.659	1.063	1075.046	749.873
8.673	0.697	1069.759	744.318
9.688	0.534	1067.192	741.666
10.702	0.604	1065.292	740.622
11.717	0.475	1062.829	738.216
12.731	1.892	1062.335	744.729
13.746	6.732	1068.786	772.930
14.761	12.901	1078.033	809.930
15.775	16.659	1082.556	831.760
16.790	16.815	1081.121	831.349
17.804	15.881	1079.203	825.224
18.819	15.054	1077.209	819.576
19.834	14.586	1076.099	816.371
20.848	14.359	1074.486	813.968
21.863	14.147	1074.217	812.655
22.877	13.928	1073.318	810.833
23.892	13.714	1072.325	808.968
24.907	13.625	1071.399	807.764
25.921	13.672	1070.690	807.387
26.936	13.546	1070.521	806.574
27.950	13.576	1069.726	806.049
28.965	13.692	1068.788	805.835
29.980	13.804	1067.705	805.491
30.994	13.777	1067.351	805.024
32.009	13.942	1066.291	804.952
33.023	13.895	1065.241	803.858
34.038	13.923	1064.952	803.709
35.053	13.823	1063.895	802.355
36.067	13.742	1063.235	801.396
37.082	13.622	1062.157	799.933
38.096	13.736	1061.237	799.720
39.111	13.898	1060.461	799.844
40.126	13.727	1059.911	798.533
41.140	13.739	1058.395	797.380
42.155	13.777	1057.583	796.879
43.169	13.630	1057.059	795.708
44.184	13.660	1055.617	794.694
45.199	13.664	1054.493	793.797
46.213	13.671	1053.433	792.965
47.228	13.689	1052.278	792.109
48.242	13.864	1050.879	791.824
49.257	13.631	1050.842	790.615
50.271	13.768	1049.411	790.119
51.286	13.547	1049.398	788.985
52.301	13.708	1047.989	788.624
53.315	13.775	1046.782	787.965
54.330	13.712	1046.156	787.125
55.344	13.709	1045.368	786.450
56.359	13.647	1044.594	785.500
57.374	13.554	1043.807	784.399
58.388	13.728	1042.750	784.362
59.403	13.532	1042.146	782.909
60.417	13.634	1041.219	782.626
61.432	13.586	1040.550	781.826
62.447	13.680	1039.348	781.296
63.461	13.588	1039.143	780.642
64.476	13.585	1037.526	779.341
65.490	13.548	1037.076	778.761
66.505	13.640	1035.800	778.167
67.520	13.573	1035.836	777.808
68.534	13.490	1034.905	776.654
69.549	13.656	1034.251	776.871
70.563	13.781	1032.530	776.095
71.578	13.657	1032.495	775.420
72.593	13.680	1031.295	774.556
73.607	13.505	1030.909	773.380
74.622	13.565	1029.521	772.553
75.636	13.610	1028.748	772.113
76.651	13.571	1028.147	771.411
77.666	13.581	1027.266	770.727
78.680	13.446	1026.485	769.450
79.695	13.515	1026.123	769.427
80.709	13.695	1024.882	769.264
81.724	13.705	1024.266	768.783
82.739	13.662	1023.445	767.898
83.753	13.660	1023.212	767.647
84.768	13.709	1022.084	766.961
85.782	13.732	1021.222	766.349
86.797	13.948	1020.011	766.370
87.812	13.859	1019.349	765.395
88.826	13.587	1019.141	763.914
89.841	13.631	1018.072	763.250
90.855	13.782	1016.787	762.914
91.870	13.714	1016.184	762.081
92.884	13.724	1015.399	761.472
93.899	13.770	1014.700	761.092
94.914	13.874	1013.710	760.755
95.928	13.909	1013.255	760.511
96.943	13.756	1012.733	759.347
97.957	13.781	1011.719	758.635
98.972	13.768	1011.366	758.247
99.987	13.879	1009.952	757.623
101.001	13.812	1009.521	756.929
102.016	13.846	1008.510	756.258
103.030	13.754	1007.635	755.118
104.045	13.785	1006.873	754.622
105.060	13.885	1005.588	754.045
106.074	13.797	1004.461	752.732
107.089	13.763	1004.015	752.181
108.103	13.700	1003.410	751.372
109.118	13.745	1001.996	750.452
110.133	13.735	1001.314	749.830
111.147	13.649	1000.275	748.594
112.162	13.679	999.380	747.993
113.176	13.790	998.472	747.748
114.191	13.702	997.918	746.872
115.206	13.924	996.581	746.806
116.220	13.801	996.230	745.922
117.235	13.735	995.499	745.013
118.249	13.907	994.212	744.754
119.264	13.708	993.649	743.375
120.279	13.846	992.638	743.169
121.293	13.810	991.523	742.111
122.308	13.880	991.284	742.177
123.322	13.720	990.628	740.908
124.337	13.697	988.973	739.498
125.352	13.777	987.660	738.811
126.366	13.709	986.700	737.724
127.381	13.693	985.977	737.048
128.395	13.559	984.750	735.471
129.410	13.757	983.787	735.561
130.424	13.746	982.698	734.634
131.439	13.654	982.078	733.701
132.454	13.717	980.984	733.098
133.468	13.855	980.325	733.150
134.483	13.854	979.583	732.523
135.497	13.687	979.316	731.523
136.512	13.680	978.377	730.726
137.527	13.809	977.498	730.570
138.541	13.714	976.604	729.420
139.556	13.720	976.148	729.046
140.570	13.837	975.267	728.834
141.585	13.827	974.389	728.069
142.600	13.983	973.639	728.131
143.614	13.965	973.237	727.686
144.629	14.044	971.961	727.011
145.643	13.951	971.563	726.244
146.658	13.975	970.751	725.676
147.673	13.935	969.823	724.746
148.687	13.940	968.836	723.964
149.702	13.878	967.953	722.970
150.716	13.889	967.083	722.304
151.731	13.937	966.233	721.815
152.746	13.874	965.644	721.037
153.760	13.805	965.268	720.393
154.775	13.911	964.293	720.060
155.789	13.954	963.388	719.509
156.804	13.926	962.661	718.781
157.819	14.013	961.192	717.996
158.833	13.885	961.315	717.472
159.848	13.995	960.514	717.286
160.862	14.098	959.676	717.040
161.877	14.060	959.104	716.386
162.892	13.920	957.982	714.880
163.906	13.933	957.303	714.368
164.921	13.998	956.231	713.781
165.935	14.013	955.329	713.109
166.950	14.017	954.329	712.319
167.964	14.005	953.912	711.893
168.979	14.017	952.793	711.045
169.994	14.202	951.283	710.648
171.008	14.264	950.518	710.275
172.023	14.232	949.746	709.500
173.037	14.079	949.111	708.311
174.052	14.292	948.366	708.600
175.067	14.220	947.931	707.907
176.081	14.176	946.874	706.868
177.096	14.167	946.079	706.171
178.110	14.136	945.213	705.333
179.125	14.065	944.276	704.271
180.140	14.134	943.970	704.271
181.154	14.144	942.998	703.527
182.169	14.188	942.794	703.497
183.183	14.304	942.231	703.504
184.198	14.267	941.120	702.459
185.213	14.364	940.573	702.396
186.227	14.392	939.922	701.966
187.242	14.358	939.564	701.492
188.256	14.350	938.626	700.699
189.271	14.357	937.905	700.127
190.286	14.328	937.130	699.362
191.300	14.475	936.079	699.137
192.315	14.265	935.868	698.036
193.329	14.208	935.041	697.119
194.344	14.243	934.371	696.702
195.359	14.280	934.030	696.541
196.373	14.331	933.336	696.174
197.388	14.490	932.698	696.302
198.402	14.313	932.344	695.238
199.417	14.387	931.553	694.894
200.432	14.505	931.035	694.940
201.446	14.525	930.597	694.632
202.461	14.615	929.957	694.470
203.475	14.747	929.160	694.360
204.490	14.638	928.824	693.595
205.504	14.641	927.630	692.656
206.519	14.624	927.166	692.179
207.534	14.635	926.450	691.625
208.548	14.572	925.820	690.834
209.563	14.534	925.014	690.015
210.577	14.556	924.371	689.564
211.592	14.513	923.791	688.894
212.607	14.573	923.311	688.722
213.621	14.724	922.348	688.565
214.636	14.630	922.008	687.865
215.650	14.752	921.126	687.645
216.665	14.790	920.173	687.032
217.680	14.673	920.443	686.689
218.694	14.679	919.853	686.214
219.709	14.838	918.980	686.155
220.723	14.799	918.496	685.574
221.738	14.882	917.269	684.938
222.753	14.700	917.166	684.053
223.767	14.865	915.689	683.565
224.782	14.883	914.996	683.064
225.796	15.036	914.123	682.975
226.811	14.942	913.438	682.017
227.826	14.994	913.237	682.021
228.840	14.976	912.689	681.478
229.855	14.901	911.772	680.425
230.869	14.898	911.342	680.032
231.884	14.755	911.025	679.156
232.899	14.973	909.693	678.989
233.913	14.974	908.939	678.370
234.928	14.884	908.735	677.791
235.942	14.896	907.563	676.906
236.957	14.919	907.079	676.580
237.972	15.026	906.284	676.359
238.986	14.912	906.099	675.699
240.001	15.053	905.065	675.439
241.015	15.047	903.972	674.539
242.030	14.973	903.565	673.878
243.045	15.057	903.165	673.858
244.059	14.993	902.353	672.935
245.074	15.014	901.669	672.447
246.088	15.109	901.178	672.404
247.103	15.103	900.896	672.112
248.117	15.087	899.868	671.220
249.132	15.100	899.482	670.924
250.147	15.374	898.685	671.369
251.161	15.201	898.008	670.109
252.176	15.245	896.939	669.429
253.190	15.314	896.464	669.290
254.205	15.233	896.210	668.721
255.220	15.326	895.196	668.274
256.234	15.322	894.878	667.960
257.249	15.375	894.196	667.603
258.263	15.450	893.370	667.226
259.278	15.399	893.004	666.692
260.293	15.382	892.629	666.284
261.307	15.478	891.886	666.053
262.322	15.534	891.369	665.827
263.336	15.674	890.316	665.537
264.351	15.663	890.176	665.330
265.366	15.618	889.433	664.538
266.380	15.546	888.771	663.698
267.395	15.649	888.064	663.520
268.409	15.768	887.220	663.300
269.424	15.613	886.652	662.207
270.439	15.698	885.845	661.882
271.453	15.676	884.830	660.977
272.468	15.547	884.744	660.348
273.482	15.659	883.636	659.899
274.497	15.600	883.297	659.359
275.512	15.632	882.572	658.882
276.526	15.769	881.603	658.640
277.541	15.722	881.051	657.985
278.555	15.838	880.317	657.832
279.570	15.758	880.021	657.239
280.585	15.725	879.458	656.633
281.599	15.801	878.786	656.369
282.614	15.864	878.190	656.109
283.628	15.888	877.452	655.594
284.643	15.877	877.000	655.156
285.657	15.815	876.408	654.413
286.672	15.782	875.856	653.815
287.687	15.880	875.446	653.834
288.701	15.883	874.650	653.191
289.716	15.904	874.304	652.959
290.730	15.938	873.572	652.484
291.745	16.011	872.319	651.774
292.760	16.015	871.951	651.456
293.774	15.992	871.448	650.933
294.789	15.990	871.046	650.568
295.803	16.159	870.229	650.552
296.818	16.151	869.707	650.074
297.833	15.917	868.848	648.475
298.847	16.003	868.476	648.468
299.862	16.039	867.896	648.119
300.876	15.969	866.986	647.113
301.891	15.985	866.154	646.494
302.906	16.054	865.754	646.402
303.920	16.224	864.761	646.256
304.935	16.304	864.005	645.941
305.949	16.222	863.821	645.433
306.964	16.300	863.023	645.076
307.979	16.216	862.572	644.364
308.993	16.219	862.198	644.036
310.008	16.234	861.293	643.363
311.022	16.370	860.929	643.550
312.037	16.334	860.536	643.060
313.052	16.355	860.132	642.784
314.066	16.283	859.596	642.050
315.081	16.239	858.949	641.343
316.095	16.288	858.252	640.953
317.110	16.350	857.812	640.806
318.125	16.212	857.324	639.861
319.139	16.231	856.955	639.601
320.154	16.418	855.730	639.334
321.168	16.341	855.828	639.061
322.183	16.301	855.090	638.301
323.197	16.428	854.629	638.383
324.212	16.480	853.726	637.845
325.227	16.453	853.280	637.353
326.241	16.537	852.715	637.192
327.256	16.395	852.348	636.326
328.270	16.456	851.555	635.909
329.285	16.484	851.037	635.573
330.300	16.461	850.480	635.012
331.314	16.401	850.054	634.412
332.329	16.371	849.539	633.860
333.343	16.558	848.575	633.784
334.358	16.591	847.864	633.322
335.373	16.647	847.557	633.245
336.387	16.620	846.991	632.665
337.402	16.752	846.148	632.475
338.416	16.679	845.852	631.923
339.431	16.698	845.261	631.496
340.446	16.821	844.771	631.535
341.460	16.762	844.406	630.987
342.475	16.710	843.660	630.178
343.489	16.901	843.218	630.504
344.504	17.046	842.346	630.334
345.519	16.806	842.296	629.348
346.533	16.861	841.615	628.988
347.548	16.868	841.300	628.722
348.562	16.736	840.795	627.803
349.577	16.930	840.000	627.870
350.592	16.893	839.425	627.250
351.606	16.829	838.924	626.582
352.621	16.852	838.447	626.257
353.635	16.834	838.062	625.845
354.650	16.891	837.693	625.725
355.665	17.032	836.854	625.563
356.679	16.955	836.887	625.250
357.694	16.929	836.124	624.528
358.708	16.924	835.879	624.270
359.723	16.995	835.350	624.083
360.738	17.049	834.271	623.418
361.752	16.780	834.094	622.243
362.767	16.930	833.485	622.284
363.781	17.034	833.264	622.446
364.796	17.170	832.453	622.283
365.810	17.226	832.189	622.234
366.825	17.111	832.096	621.691
367.840	17.074	831.785	621.268
368.854	17.223	830.939	621.125
369.869	17.195	830.807	620.867
370.883	17.102	830.295	620.093
371.898	17.261	829.403	619.950
372.913	17.300	828.466	619.337
373.927	17.221	828.243	618.828
374.942	17.296	827.359	618.387
375.956	17.284	826.649	617.756
376.971	17.299	826.577	617.704
377.986	17.307	825.815	617.108
379.000	17.221	825.365	616.404
380.015	17.439	824.734	616.669
381.029	17.475	823.916	616.134
382.044	17.608	823.505	616.251
383.059	17.387	823.028	615.041
384.073	17.389	822.845	614.859
385.088	17.484	822.050	614.553
386.102	17.454	821.730	614.150
387.117	17.413	821.219	613.568
388.132	17.358	820.568	612.827
389.146	17.371	820.101	612.473
390.161	17.535	819.973	612.912
391.175	17.530	819.573	612.542
392.190	17.544	818.757	611.929
393.205	17.511	818.576	611.619
394.219	17.563	818.004	611.324
395.234	17.607	817.363	610.949
396.248	17.551	817.118	610.511
397.263	17.459	816.879	609.948
398.278	17.515	815.929	609.385
399.292	17.382	816.068	608.961
400.307	17.620	815.149	609.073
401.321	17.567	814.763	608.540
402.336	17.618	814.381	608.383
403.350	17.700	813.874	608.244
404.365	17.633	813.583	607.733
405.380	17.727	813.130	607.675
406.394	17.679	812.934	607.304
407.409	17.750	812.072	606.860
408.423	17.888	811.579	606.927
409.438	17.747	811.169	606.066
410.453	17.752	810.907	605.835
411.467	17.998	810.418	606.288
412.482	17.887	810.119	605.617
413.496	17.932	809.692	605.405
414.511	18.017	808.714	604.920
415.526	18.052	808.559	604.874
416.540	17.880	808.368	604.068
417.555	18.114	808.105	604.647
418.569	17.831	807.796	603.360
419.584	17.976	806.953	603.192
420.599	17.981	806.385	602.731
421.613	116.482	1299.785	1494.681
422.628	100.726	1371.629	1494.745
