DTS Sentinel unit serial number:	SN413079Multiplexer serial number:	ORYXHardware model number:	OX4-SRSoftware version number:	ORYX F/W v4.00 Oryx Data Collector v3.7.2.0data status	okinstallation	princeton_trtdifferential loss correction	single-endedforward channel	channel 3reverse channel	N/Adate	2019/09/13time	11:08:35forward acquisition time	60.00reverse acquisition time	0.00gamma	496.2192k internal	0.2317k external	0.2317temperature offset calibration	1.0143default loss term (dB/km)	0.3790temperature slope calibration	1.0000multiplexer offset coefficient	1.0000multiplexer slope coefficient	1.0000fibre end	0.00T internal ref (°C)	32.06T ext. ref 1 (°C)	4.66T ext. ref 2 (°C)	29.43length (m)	temperature (°C)	Stokes	anti-Stokes-747.200	-125.215	-0.038	0.006
-746.185	-166.228	-0.010	0.000
-745.171	268.735	0.158	-0.281
-744.156	342.615	0.027	-0.053
-743.142	2.594	-0.159	-0.117
-742.127	55.653	-0.111	0.109
-741.112	-146.954	-0.226	-0.020
-740.098	-54.357	-0.228	0.105
-739.083	-82.796	-0.252	-0.082
-738.069	702.492	-0.183	0.488
-737.054	509.606	0.013	-0.030
-736.039	105.122	-0.081	-0.097
-735.025	800.000	-0.038	0.107
-734.010	800.000	0.075	-0.252
-732.996	-87.356	0.141	-0.043
-731.981	-200.000	0.002	-0.304
-730.966	-83.406	-0.090	-0.029
-729.952	431.819	-0.071	0.156
-728.937	800.000	-0.037	-0.165
-727.923	-119.835	-0.182	0.032
-726.908	25.319	0.093	0.078
-725.894	99.848	-0.214	-0.251
-724.879	800.000	0.018	-0.054
-723.864	69.112	0.134	0.139
-722.850	12.176	-0.061	0.048
-721.835	-125.971	0.104	0.016
-720.821	57.338	0.148	0.146
-719.806	-195.200	-0.191	0.001
-718.791	-200.000	0.044	0.212
-717.777	-200.000	-0.018	-0.166
-716.762	-200.000	0.017	-0.252
-715.748	101.302	-0.154	-0.181
-714.733	-200.000	-0.009	-0.316
-713.718	-14.503	-0.202	-0.131
-712.704	101.886	-0.172	0.203
-711.689	-200.000	-0.064	0.325
-710.675	56.203	-0.274	-0.269
-709.660	53.448	-0.170	-0.165
-708.645	-14.407	-0.132	0.086
-707.631	123.237	-0.046	0.059
-706.616	-200.000	-0.017	0.231
-705.602	529.809	-0.061	-0.146
-704.587	2.469	-0.214	0.156
-703.572	-9.221	0.054	0.036
-702.558	124.932	0.094	0.119
-701.543	318.286	0.029	0.055
-700.529	-200.000	-0.027	0.203
-699.514	-64.002	0.308	-0.127
-698.499	710.434	-0.036	-0.096
-697.485	-45.025	-0.359	-0.181
-696.470	326.530	0.100	-0.194
-695.456	258.665	0.124	-0.216
-694.441	548.724	-0.099	0.239
-693.426	-200.000	-0.024	0.458
-692.412	-65.433	-0.355	0.144
-691.397	210.879	-0.180	0.286
-690.383	800.000	0.060	-0.197
-689.368	-50.908	0.027	0.013
-688.354	3.741	-0.424	-0.313
-687.339	23.433	-0.108	-0.089
-686.324	40.371	0.293	-0.266
-685.310	-157.187	-0.200	0.012
-684.295	21.828	-0.128	0.105
-683.281	5.219	-0.325	0.242
-682.266	309.300	0.133	-0.251
-681.251	-74.538	0.150	0.055
-680.237	-173.321	-0.292	0.009
-679.222	-50.069	-0.088	0.042
-678.208	-76.638	-0.227	-0.080
-677.193	-200.000	-0.110	0.580
-676.178	-200.000	0.044	-0.262
-675.164	-107.645	-0.383	-0.085
-674.149	-200.000	-0.043	-0.198
-673.135	90.132	0.178	-0.201
-672.120	800.000	-0.043	0.163
-671.105	-117.598	-0.299	0.054
-670.091	-200.000	0.032	-0.160
-669.076	-134.317	0.082	0.010
-668.062	-119.604	0.232	0.041
-667.047	-200.000	-0.010	-0.193
-666.032	167.823	-0.108	-0.154
-665.018	-53.246	-0.152	-0.070
-664.003	3.469	0.120	-0.088
-662.989	-122.178	0.192	0.032
-661.974	18.628	0.210	-0.170
-660.959	-200.000	0.153	0.000
-659.945	-200.000	-0.017	0.131
-658.930	197.477	-0.051	0.079
-657.916	-47.978	-0.377	-0.184
-656.901	-200.000	0.059	0.309
-655.886	-95.068	0.087	0.024
-654.872	-78.875	-0.188	-0.065
-653.857	-200.000	-0.000	-0.182
-652.843	643.155	-0.122	-0.314
-651.828	800.000	0.052	0.162
-650.814	-143.890	0.441	0.042
-649.799	654.118	-0.115	0.297
-648.784	196.082	-0.103	-0.159
-647.770	800.000	0.045	-0.177
-646.755	-151.281	-0.100	0.008
-645.741	800.000	-0.040	-0.158
-644.726	-200.000	-0.038	-0.392
-643.711	-82.427	0.091	0.030
-642.697	-10.249	-0.280	-0.187
-641.682	86.446	0.139	0.154
-640.668	219.594	0.075	-0.121
-639.653	-200.000	0.004	-0.042
-638.638	-15.526	0.325	0.209
-637.624	-124.138	-0.173	-0.027
-636.609	-200.000	-0.030	0.161
-635.595	800.000	0.050	0.180
-634.580	33.840	-0.162	0.142
-633.565	322.969	0.028	-0.053
-632.551	314.281	0.154	-0.292
-631.536	-200.000	-0.016	-0.251
-630.522	800.000	0.051	-0.179
-629.507	-95.622	0.241	0.065
-628.492	-71.083	-0.189	0.072
-627.478	-73.320	0.258	-0.095
-626.463	-27.027	-0.442	0.260
-625.449	379.118	0.085	-0.176
-624.434	-66.238	0.106	0.043
-623.419	-200.000	0.007	-0.178
-622.405	196.115	-0.046	-0.070
-621.390	-200.000	-0.003	0.090
-620.376	108.127	-0.239	0.287
-619.361	376.057	-0.098	-0.201
-618.346	-8.919	-0.275	0.186
-617.332	106.161	-0.228	-0.272
-616.317	-45.613	-0.083	0.041
-615.303	69.889	0.170	0.176
-614.288	270.879	-0.068	0.120
-613.273	391.790	0.050	-0.105
-612.259	-200.000	0.036	0.168
-611.244	-42.436	-0.284	0.146
-610.230	800.000	0.097	0.401
-609.215	-151.792	0.079	-0.006
-608.201	-5.879	0.114	-0.079
-607.186	-101.346	-0.161	-0.040
-606.171	-65.264	0.478	0.194
-605.157	-59.629	-0.141	0.061
-604.142	57.958	-0.321	-0.317
-603.128	-20.897	-0.094	-0.058
-602.113	678.262	-0.064	-0.167
-601.098	-200.000	-0.035	-0.166
-600.084	90.086	-0.040	-0.045
-599.069	463.083	-0.063	-0.141
-598.055	336.397	0.043	-0.084
-597.040	243.988	0.273	-0.462
-596.025	209.633	0.115	0.182
-595.011	447.160	0.076	0.168
-593.996	-200.000	-0.010	-0.259
-592.982	-100.991	0.099	-0.024
-591.967	217.202	-0.052	0.083
-590.952	-55.214	-0.126	0.057
-589.938	-121.318	0.133	-0.022
-588.923	-200.000	0.026	0.283
-587.909	-75.394	-0.051	0.018
-586.894	-100.947	-0.456	0.113
-585.879	-67.585	0.405	-0.160
-584.865	-200.000	-0.033	-0.240
-583.850	739.040	-0.071	0.191
-582.836	-74.262	0.312	0.114
-581.821	308.564	-0.109	-0.204
-580.806	-200.000	-0.042	0.282
-579.792	-62.593	-0.263	-0.110
-578.777	-100.901	-0.277	-0.068
-577.763	-200.000	-0.006	-0.166
-576.748	-84.231	-0.093	-0.030
-575.733	35.740	-0.161	-0.142
-574.719	689.844	0.120	-0.317
-573.704	-92.607	-0.200	-0.057
-572.690	-200.000	0.016	-0.319
-571.675	-131.099	-0.154	-0.021
-570.661	800.000	-0.105	-0.293
-569.646	-57.949	0.267	-0.117
-568.631	-53.181	-0.284	0.131
-567.617	-200.000	0.017	-0.143
-566.602	-193.803	-0.376	-0.003
-565.588	2.549	0.107	0.078
-564.573	-79.507	0.082	0.028
-563.558	-95.774	-0.102	0.027
-562.544	376.152	-0.089	0.182
-561.529	302.894	0.014	-0.026
-560.515	-96.914	-0.158	0.042
-559.500	-100.550	-0.226	-0.056
-558.485	-47.501	0.192	0.094
-557.471	800.000	0.138	-0.387
-556.456	84.116	-0.058	0.064
-555.442	169.251	0.078	0.111
-554.427	349.685	-0.092	0.182
-553.412	-90.343	-0.314	0.092
-552.398	-109.575	0.237	0.050
-551.383	-66.711	-0.276	0.110
-550.369	-200.000	0.011	-0.106
-549.354	-200.000	0.038	0.247
-548.339	-131.157	0.146	0.020
-547.325	800.000	0.041	-0.125
-546.310	-6.988	0.242	0.165
-545.296	-112.959	-0.312	-0.062
-544.281	-149.572	0.337	0.027
-543.266	294.788	0.077	0.142
-542.252	173.291	0.143	0.208
-541.237	-200.000	0.036	0.171
-540.223	343.851	-0.173	0.342
-539.208	110.171	0.079	-0.095
-538.193	298.257	-0.052	-0.097
-537.179	-200.000	-0.136	0.000
-536.164	-102.040	-0.173	0.042
-535.150	-200.000	-0.017	-0.095
-534.135	33.388	0.161	-0.141
-533.121	437.360	0.111	-0.243
-532.106	13.759	0.225	0.176
-531.091	-48.192	-0.186	0.090
-530.077	800.000	-0.052	-0.185
-529.062	41.461	-0.120	-0.109
-528.048	-23.555	-0.083	-0.050
-527.033	8.641	0.201	-0.152
-526.018	-59.162	0.140	-0.061
-525.004	-10.376	0.245	-0.163
-523.989	-57.616	0.141	0.062
-522.975	-47.330	0.176	0.086
-521.960	-117.741	-0.198	0.036
-520.945	-109.151	0.460	0.098
-519.931	-105.659	0.310	0.070
-518.916	-135.888	-0.278	0.033
-517.902	-82.928	-0.204	-0.066
-516.887	800.000	0.043	0.139
-515.872	-170.199	0.349	-0.012
-514.858	-122.740	0.223	-0.036
-513.843	72.608	0.110	0.115
-512.829	-74.417	-0.282	0.102
-511.814	223.483	0.071	-0.114
-510.799	-4.650	0.128	0.089
-509.785	184.635	0.113	-0.168
-508.770	-91.601	0.145	0.041
-507.756	-152.366	0.171	0.012
-506.741	704.501	-0.047	-0.126
-505.726	232.118	0.102	0.168
-504.712	675.236	-0.084	0.218
-503.697	672.267	0.064	0.165
-502.683	-140.428	0.066	0.007
-501.668	-200.000	-0.030	-0.480
-500.653	-200.000	-0.059	-0.442
-499.639	-52.579	-0.163	0.076
-498.624	-122.396	-0.106	-0.017
-497.610	-32.671	-0.281	-0.157
-496.595	-200.000	0.020	-0.114
-495.581	800.000	-0.084	-0.285
-494.566	597.159	0.092	0.229
-493.551	18.066	0.158	-0.126
-492.537	800.000	-0.081	-0.333
-491.522	-186.035	0.116	0.002
-490.508	6.755	-0.126	0.094
-489.493	-75.601	0.171	-0.061
-488.478	426.117	0.068	-0.148
-487.464	8.558	-0.128	0.096
-486.449	-200.000	0.043	0.314
-485.435	-44.858	-0.160	-0.080
-484.420	800.000	-0.058	0.173
-483.405	339.793	0.160	0.314
-482.391	-200.000	-0.007	-0.203
-481.376	145.042	-0.077	0.104
-480.362	55.902	-0.128	0.125
-479.347	-5.725	0.143	-0.098
-478.332	237.814	-0.088	0.146
-477.318	-114.794	0.273	-0.052
-476.303	-200.000	-0.062	0.349
-475.289	800.000	0.082	0.231
-474.274	-49.209	-0.128	0.061
-473.259	514.311	-0.051	0.120
-472.245	229.784	-0.178	-0.292
-471.230	-200.000	0.346	0.001
-470.216	-200.000	-0.050	0.240
-469.201	-64.592	0.121	-0.049
-468.186	-113.297	-0.256	-0.050
-467.172	-104.927	-0.285	0.065
-466.157	-82.955	0.169	0.055
-465.143	40.055	-0.140	-0.126
-464.128	137.271	0.166	0.217
-463.113	-121.601	0.350	0.058
-462.099	-47.784	0.196	0.095
-461.084	-62.616	0.336	0.140
-460.070	352.601	-0.111	-0.221
-459.055	-200.000	-0.047	0.398
-458.040	800.000	-0.029	-0.113
-457.026	-56.476	-0.202	0.089
-456.011	424.382	0.073	0.157
-454.997	30.539	0.102	0.088
-453.982	56.791	-0.229	-0.223
-452.968	70.352	-0.232	0.240
-451.953	-119.225	-0.197	-0.034
-450.938	123.895	-0.097	0.122
-449.924	-186.706	-0.139	-0.002
-448.909	-200.000	-0.002	-0.074
-447.895	-200.000	0.073	-0.327
-446.880	42.261	-0.233	0.212
-445.865	25.725	0.188	-0.157
-444.851	36.909	-0.173	-0.153
-443.836	22.021	0.106	0.087
-442.822	-72.077	0.415	0.154
-441.807	-63.711	0.093	0.038
-440.792	800.000	-0.076	-0.238
-439.778	452.053	-0.051	-0.113
-438.763	-31.490	-0.080	0.045
-437.749	23.316	0.146	0.120
-436.734	281.341	0.142	-0.255
-435.719	63.374	-0.313	0.314
-434.705	-6.876	0.163	0.111
-433.690	-138.906	-0.107	-0.012
-432.676	42.850	0.046	0.042
-431.661	515.537	-0.118	0.276
-430.646	511.983	0.034	-0.080
-429.632	45.396	-0.103	0.095
-428.617	-65.423	0.081	-0.033
-427.603	140.607	-0.013	-0.017
-426.588	-200.000	-0.030	0.256
-425.573	11.684	0.113	0.087
-424.559	-70.950	0.084	-0.032
-423.544	800.000	0.027	-0.084
-422.530	800.000	-0.043	-0.154
-421.515	96.155	-0.262	0.300
-420.500	-200.000	-0.030	-0.251
-419.486	-200.000	0.060	0.413
-418.471	30.598	0.243	0.208
-417.457	302.291	0.124	0.230
-416.442	-200.000	0.015	-0.207
-415.428	21.727	-0.152	0.124
-414.413	34.786	0.186	-0.162
-413.398	-129.740	0.126	0.017
-412.384	83.707	0.142	0.155
-411.369	-17.062	-0.109	0.068
-410.355	-200.000	0.046	0.300
-409.340	4.416	-0.217	0.159
-408.325	-71.637	-0.310	0.116
-407.311	119.725	-0.179	0.222
-406.296	-200.000	-0.037	0.216
-405.282	126.040	-0.184	0.233
-404.267	169.664	0.056	-0.080
-403.252	-139.187	0.220	0.024
-402.238	268.502	0.125	0.219
-401.223	-200.000	0.010	0.226
-400.209	800.000	0.042	-0.163
-399.194	249.456	0.062	0.105
-398.179	90.039	-0.288	-0.321
-397.165	800.000	-0.099	-0.317
-396.150	-195.212	0.266	-0.002
-395.136	-123.257	-0.282	0.045
-394.121	-183.942	-0.048	-0.001
-393.106	-47.353	-0.184	-0.089
-392.092	-88.070	0.547	-0.164
-391.077	-119.011	0.196	-0.034
-390.063	36.436	0.073	0.064
-389.048	-200.000	-0.061	-0.286
-388.033	21.405	0.176	0.143
-387.019	-15.881	-0.423	-0.269
-386.004	-200.000	-0.028	-0.262
-384.990	282.763	0.048	0.086
-383.975	-25.118	-0.264	0.156
-382.960	-200.000	0.018	-0.179
-381.946	138.555	0.206	-0.270
-380.931	52.754	0.129	0.123
-379.917	-26.848	-0.131	0.076
-378.902	-200.000	-0.061	0.410
-377.888	158.752	-0.102	0.141
-376.873	-54.509	0.162	-0.073
-375.858	92.160	-0.105	0.118
-374.844	-80.367	0.199	-0.066
-373.829	16.321	0.026	-0.020
-372.815	800.000	-0.100	0.320
-371.800	569.359	0.097	0.236
-370.785	-55.764	0.331	0.148
-369.771	-97.951	-0.035	-0.009
-368.756	155.844	0.098	0.135
-367.742	800.000	0.169	-0.498
-366.727	-200.000	-0.027	-0.200
-365.712	-200.000	-0.007	-0.070
-364.698	-60.811	-0.240	0.101
-363.683	-102.325	-0.152	0.036
-362.669	-164.792	0.409	0.018
-361.654	-153.327	0.093	0.006
-360.639	-68.763	0.194	0.075
-359.625	-122.648	-0.142	0.023
-358.610	-67.140	-0.334	0.131
-357.596	477.685	-0.016	0.036
-356.581	37.483	0.132	-0.116
-355.566	-149.650	-0.237	0.019
-354.552	-200.000	-0.049	-0.349
-353.537	623.289	-0.093	0.233
-352.523	-75.959	-0.080	-0.028
-351.508	-48.825	-0.116	-0.055
-350.493	289.515	0.026	-0.047
-349.479	79.274	0.098	-0.105
-348.464	-106.976	0.118	0.026
-347.450	-200.000	-0.033	0.243
-346.435	87.282	0.069	-0.076
-345.420	-44.516	-0.141	-0.070
-344.406	800.000	0.048	0.147
-343.391	43.306	0.125	0.114
-342.377	41.432	0.153	-0.138
-341.362	-188.406	-0.480	-0.006
-340.348	-48.736	0.180	-0.086
-339.333	-134.948	0.020	0.002
-338.318	800.000	0.055	-0.196
-337.304	458.470	0.108	0.238
-336.289	-98.961	-0.142	0.036
-335.275	-89.707	0.367	-0.107
-334.260	800.000	-0.085	-0.241
-333.245	-70.815	-0.378	0.142
-332.231	-200.000	-0.007	0.254
-331.216	800.000	-0.058	0.161
-330.202	786.735	0.074	-0.203
-329.187	800.000	0.053	-0.167
-328.172	-200.000	0.008	-0.196
-327.158	76.770	-0.142	0.150
-326.143	460.992	0.083	0.185
-325.129	-194.962	0.184	0.001
-324.114	158.028	-0.141	0.195
-323.099	-168.759	0.317	0.012
-322.085	800.000	-0.063	0.197
-321.070	-45.900	-0.138	0.068
-320.056	12.445	0.157	0.121
-319.041	-5.941	0.257	-0.175
-318.026	304.668	0.073	-0.134
-317.012	-52.834	-0.057	-0.026
-315.997	-121.767	0.062	-0.010
-314.983	149.619	0.058	0.079
-313.968	-71.886	-0.219	-0.081
-312.953	800.000	-0.092	-0.385
-311.939	-34.807	-0.072	0.039
-310.924	31.638	0.337	0.288
-309.910	35.120	-0.163	0.142
-308.895	-110.377	-0.142	0.029
-307.880	800.000	0.068	0.251
-306.866	800.000	-0.129	0.355
-305.851	-63.531	0.141	0.058
-304.837	-118.605	0.540	0.095
-303.822	6.624	0.167	0.123
-302.807	-138.289	-0.175	-0.019
-301.793	14.316	-0.039	0.031
-300.778	-200.000	-0.030	-0.253
-299.764	397.931	0.063	0.130
-298.749	-200.000	-0.023	-0.196
-297.735	-100.824	-0.253	-0.062
-296.720	-2.976	-0.263	0.183
-295.705	-200.000	0.020	0.130
-294.691	-110.492	-0.338	-0.070
-293.676	48.625	-0.134	-0.125
-292.662	-91.861	-0.123	-0.035
-291.647	499.693	-0.175	-0.401
-290.632	800.000	0.060	0.188
-289.618	332.040	0.065	-0.125
-288.603	-83.182	-0.049	-0.016
-287.589	-200.000	-0.040	0.445
-286.574	139.402	-0.067	-0.087
-285.559	-200.000	0.018	0.149
-284.545	-93.035	-0.220	0.061
-283.530	-130.897	-0.245	0.033
-282.516	-24.246	0.124	-0.073
-281.501	-114.675	-0.070	-0.013
-280.486	-47.556	-0.207	0.100
-279.472	-53.466	-0.026	-0.012
-278.457	-13.814	0.090	0.058
-277.443	800.000	0.081	-0.229
-276.428	-61.720	0.147	-0.061
-275.413	130.232	0.119	-0.151
-274.399	340.803	-0.111	0.216
-273.384	-145.201	0.517	-0.047
-272.370	33.204	0.140	0.121
-271.355	398.838	0.097	-0.201
-270.340	-112.325	-0.104	0.021
-269.326	-139.018	-0.142	-0.015
-268.311	800.000	0.010	-0.037
-267.297	-143.282	0.356	0.034
-266.282	-98.166	-0.109	-0.028
-265.267	182.119	0.040	0.059
-264.253	28.186	-0.128	-0.108
-263.238	-15.246	-0.008	-0.005
-262.224	-200.000	0.076	0.456
-261.209	3.961	-0.095	0.069
-260.195	-32.216	-0.213	-0.118
-259.180	30.144	0.175	0.148
-258.165	-200.000	0.008	0.247
-257.151	-65.336	-0.046	0.018
-256.136	2.265	-0.225	0.162
-255.122	-67.501	0.252	0.098
-254.107	-200.000	0.010	-0.380
-253.092	-15.587	-0.054	-0.034
-252.078	-8.895	-0.131	0.087
-251.063	241.098	0.113	0.188
-250.049	774.401	0.101	0.273
-249.034	27.469	0.185	-0.154
-248.019	-52.429	-0.195	0.090
-247.005	30.832	0.190	-0.161
-245.990	380.905	-0.114	0.233
-244.976	-40.114	-0.220	0.114
-243.961	800.000	0.120	-0.420
-242.946	-200.000	-0.009	0.248
-241.932	-156.245	-0.429	0.027
-240.917	29.180	0.098	-0.082
-239.903	-52.622	0.203	-0.093
-238.888	260.217	0.091	-0.157
-237.873	-34.669	0.105	-0.057
-236.859	586.436	0.108	-0.264
-235.844	97.860	-0.093	-0.106
-234.830	-13.434	0.301	-0.193
-233.815	311.937	-0.037	-0.069
-232.800	-200.000	-0.019	-0.262
-231.786	800.000	0.050	-0.204
-230.771	539.874	0.186	0.440
-229.757	-200.000	-0.028	-0.328
-228.742	-112.934	0.278	0.055
-227.727	285.992	0.043	0.078
-226.713	-84.704	0.170	-0.053
-225.698	800.000	-0.049	-0.191
-224.684	-24.818	0.156	-0.092
-223.669	66.082	-0.305	0.307
-222.655	-78.460	0.114	-0.039
-221.640	209.996	-0.155	-0.241
-220.625	-136.816	0.210	0.024
-219.611	89.754	0.161	-0.178
-218.596	-200.000	-0.001	-0.186
-217.582	134.173	0.336	-0.432
-216.567	-154.690	0.349	-0.023
-215.552	-38.042	-0.289	0.152
-214.538	-200.000	-0.053	0.302
-213.523	-200.000	-0.077	-0.380
-212.509	-58.708	-0.197	0.085
-211.494	66.403	-0.229	0.231
-210.479	76.669	-0.207	-0.217
-209.465	800.000	0.137	0.381
-208.450	-65.856	-0.165	-0.066
-207.436	517.673	-0.031	0.073
-206.421	160.268	0.126	0.175
-205.406	-132.217	-0.550	-0.071
-204.392	125.641	-0.172	-0.216
-203.377	-11.070	0.099	-0.065
-202.363	-24.675	-0.129	-0.076
-201.348	59.308	0.128	-0.125
-200.333	-200.000	0.040	-0.178
-199.319	665.156	0.075	0.192
-198.304	-90.354	-0.284	-0.082
-197.290	-200.000	-0.000	0.172
-196.275	-78.155	-0.047	0.016
-195.260	17.450	0.253	0.199
-194.246	-28.743	0.380	0.217
-193.231	303.262	0.096	-0.176
-192.217	-198.793	0.114	-0.001
-191.202	-5.979	-0.275	-0.186
-190.187	-155.572	0.383	0.024
-189.173	189.002	0.130	-0.193
-188.158	-111.994	-0.363	-0.072
-187.144	-200.000	-0.011	-0.090
-186.129	-18.478	-0.197	0.122
-185.114	-187.264	0.116	0.002
-184.100	-113.649	-0.211	0.041
-183.085	95.044	0.250	0.282
-182.071	61.301	0.080	-0.079
-181.056	215.323	-0.061	-0.095
-180.042	174.429	0.168	0.241
-179.027	-67.554	0.258	0.100
-178.012	-179.548	0.095	0.002
-176.998	-65.731	0.050	-0.020
-175.983	-200.000	-0.002	-0.174
-174.969	145.218	-0.283	0.375
-173.954	-101.342	0.217	0.052
-172.939	-29.738	0.077	-0.043
-171.925	372.887	0.142	-0.286
-170.910	133.745	0.228	-0.292
-169.896	21.003	-0.248	-0.199
-168.881	800.000	-0.025	-0.103
-167.866	-120.862	0.150	-0.025
-166.852	800.000	-0.076	-0.280
-165.837	-200.000	-0.027	-0.318
-164.823	-11.271	0.150	0.098
-163.808	647.457	0.024	-0.061
-162.793	-115.310	-0.115	0.021
-161.779	-200.000	-0.040	-0.317
-160.764	-93.710	-0.226	-0.062
-159.750	-177.495	-0.513	0.012
-158.735	-151.040	0.079	-0.006
-157.720	8.206	0.200	0.148
-156.706	-37.117	-0.228	0.121
-155.691	23.236	0.193	-0.157
-154.677	380.196	-0.072	-0.146
-153.662	-86.006	0.063	0.019
-152.647	209.865	-0.128	-0.199
-151.633	385.062	-0.086	-0.175
-150.618	-176.767	-0.221	0.006
-149.604	-9.940	-0.230	0.151
-148.589	-200.000	0.022	0.119
-147.574	-50.402	0.392	0.183
-146.560	-93.867	0.082	0.022
-145.545	-92.238	-0.034	0.010
-144.531	37.459	-0.186	-0.163
-143.516	800.000	-0.038	0.108
-142.502	70.947	-0.137	-0.141
-141.487	358.192	-0.099	-0.196
-140.472	-70.594	-0.288	0.108
-139.458	-79.840	0.154	0.051
-138.443	-200.000	-0.077	0.351
-137.429	64.928	-0.285	0.285
-136.414	-58.351	-0.252	-0.108
-135.399	-200.000	0.026	0.167
-134.385	-200.000	-0.004	-0.020
-133.370	-200.000	0.034	0.304
-132.356	800.000	-0.083	0.326
-131.341	566.884	-0.079	-0.190
-130.326	241.651	0.095	-0.157
-129.312	-200.000	-0.004	-0.236
-128.297	800.000	-0.059	-0.195
-127.283	36.508	-0.097	0.084
-126.268	800.000	-0.023	0.080
-125.253	-99.481	-0.337	-0.084
-124.239	713.005	-0.137	-0.359
-123.224	-200.000	0.004	0.066
-122.210	31.931	-0.273	-0.233
-121.195	456.421	0.141	-0.310
-120.180	-200.000	0.005	-0.090
-119.166	28.671	0.123	-0.103
-118.151	381.161	-0.117	0.236
-117.137	192.277	0.144	0.214
-116.122	-200.000	-0.011	0.201
-115.107	621.878	-0.051	0.127
-114.093	-200.000	-0.007	0.383
-113.078	89.486	0.208	0.229
-112.064	-200.000	0.010	0.311
-111.049	800.000	-0.014	0.040
-110.034	-200.000	-0.024	-0.155
-109.020	89.706	0.059	-0.065
-108.005	442.981	-0.054	-0.117
-106.991	114.855	0.163	-0.196
-105.976	-20.618	0.094	-0.057
-104.962	-200.000	0.049	0.250
-103.947	211.471	-0.139	-0.217
-102.932	-200.000	-0.027	-0.160
-101.918	31.274	0.108	0.091
-100.903	-35.918	0.360	-0.192
-99.889	-121.300	-0.154	-0.025
-98.874	37.745	0.056	0.050
-97.859	258.817	-0.072	-0.122
-96.845	-200.000	0.126	0.608
-95.830	-71.745	0.304	-0.112
-94.816	-62.371	-0.254	0.104
-93.801	-37.650	0.230	0.121
-92.786	-200.000	-0.025	-0.225
-91.772	-200.000	-0.050	-0.216
-90.757	110.433	0.264	0.313
-89.743	-41.267	-0.196	0.100
-88.728	393.037	-0.022	-0.045
-87.713	374.332	-0.143	0.286
-86.699	-200.000	0.023	0.172
-85.684	68.150	0.168	-0.170
-84.670	101.486	0.118	-0.136
-83.655	209.902	-0.113	-0.175
-82.640	-74.806	-0.306	0.109
-81.626	-15.999	-0.176	0.111
-80.611	-200.000	0.011	0.352
-79.597	800.000	0.050	-0.165
-78.582	-160.275	-0.207	-0.011
-77.567	800.000	-0.065	0.265
-76.553	234.374	-0.167	0.272
-75.538	-97.812	0.170	-0.043
-74.524	-161.888	0.195	0.010
-73.509	112.596	-0.066	0.079
-72.494	-134.527	0.055	0.007
-71.480	-86.140	0.218	0.066
-70.465	-113.649	0.185	0.036
-69.451	800.000	-0.091	0.258
-68.436	-200.000	0.017	0.105
-67.422	-75.946	0.345	0.120
-66.407	155.577	0.113	-0.153
-65.392	-79.123	-0.331	0.111
-64.378	-54.711	-0.236	0.105
-63.363	14.797	0.055	0.042
-62.349	-33.298	0.175	0.096
-61.334	287.258	-0.665	-1.185
-60.319	15.181	0.521	0.402
-59.305	800.000	-0.267	-0.801
-58.290	800.000	0.223	0.935
-57.276	800.000	0.579	1.842
-56.261	-200.000	96.697	584.133
-55.246	619.097	1407.963	3485.984
-54.232	189.552	2600.201	3841.501
-53.217	118.640	2194.597	2670.131
-52.203	42.889	1730.193	1553.868
-51.188	35.259	1542.223	1332.225
-50.173	32.849	1515.460	1292.577
-49.159	52.370	1564.112	1470.264
-48.144	53.939	1580.972	1496.959
-47.130	35.423	1541.581	1332.601
-46.115	32.358	1526.755	1298.614
-45.100	32.199	1523.052	1294.318
-44.086	32.120	1521.653	1292.532
-43.071	32.105	1519.940	1290.919
-42.057	32.024	1518.365	1288.976
-41.042	32.037	1517.041	1287.893
-40.027	32.103	1515.189	1286.722
-39.013	32.045	1513.811	1285.105
-37.998	32.011	1512.689	1283.866
-36.984	32.164	1510.973	1283.402
-35.969	32.227	1509.389	1282.439
-34.954	32.036	1508.471	1280.304
-33.940	32.015	1507.605	1279.374
-32.925	32.167	1505.373	1278.464
-31.911	32.067	1504.037	1276.603
-30.896	32.157	1502.889	1276.187
-29.881	32.076	1501.667	1274.550
-28.867	32.033	1500.186	1272.946
-27.852	32.109	1498.580	1272.049
-26.838	32.221	1496.631	1271.103
-25.823	32.145	1495.307	1269.415
-24.809	32.043	1493.886	1267.466
-23.794	32.090	1492.053	1266.179
-22.779	32.041	1491.270	1265.135
-21.765	32.092	1489.644	1264.051
-20.750	32.090	1488.963	1263.408
-19.736	32.148	1487.556	1262.556
-18.721	31.996	1486.887	1260.915
-17.706	32.091	1485.970	1260.727
-16.692	32.084	1484.487	1259.368
-15.677	31.955	1483.921	1257.973
-14.663	32.082	1482.421	1257.503
-13.648	31.997	1481.384	1256.004
-12.633	31.994	1480.887	1255.512
-11.619	32.002	1480.023	1254.782
-10.604	32.098	1478.723	1254.272
-9.590	31.993	1477.984	1252.894
-8.575	32.042	1477.255	1252.555
-7.560	31.979	1476.307	1251.284
-6.546	32.005	1475.375	1250.617
-5.531	32.054	1474.332	1250.011
-4.517	32.005	1473.486	1248.916
-3.502	31.954	1472.481	1247.672
-2.487	32.108	1471.080	1247.461
-1.473	32.069	1470.106	1246.330
-0.458	31.973	1468.825	1244.556
0.556	34.144	1459.117	1234.776
1.571	31.394	1432.962	1194.981
2.586	27.822	1370.490	1120.894
3.600	26.098	1286.984	1042.553
4.615	23.938	1240.960	993.138
5.629	20.418	1183.054	927.942
6.644	12.274	1097.807	820.458
7.659	5.865	1057.252	759.150
8.673	4.892	1051.519	750.284
9.688	4.598	1048.498	746.650
10.702	4.499	1046.849	744.935
11.717	4.671	1044.791	744.228
12.731	7.625	1048.082	760.664
13.746	15.873	1060.114	809.126
14.761	21.643	1066.758	841.947
15.775	22.166	1066.381	844.089
16.790	21.554	1064.650	839.709
17.804	20.597	1062.416	833.287
18.819	19.759	1061.282	828.312
19.834	19.378	1059.267	824.844
20.848	19.234	1058.763	823.692
21.863	19.209	1058.365	823.188
22.877	18.966	1057.480	821.269
23.892	18.787	1056.833	819.836
24.907	18.729	1055.910	818.772
25.921	18.681	1055.040	817.799
26.936	18.661	1054.319	817.073
27.950	18.682	1053.175	816.213
28.965	18.617	1052.394	815.226
29.980	18.769	1051.135	814.902
30.994	18.986	1050.051	815.014
32.009	19.070	1049.139	814.635
33.023	19.006	1048.967	814.127
34.038	19.017	1048.161	813.479
35.053	19.021	1047.216	812.692
36.067	18.965	1045.809	811.264
37.082	18.685	1045.117	809.336
38.096	18.838	1044.450	809.468
39.111	18.965	1043.449	809.218
40.126	19.054	1042.831	809.088
41.140	18.850	1041.702	807.183
42.155	18.560	1040.421	804.757
43.169	18.371	1039.592	803.159
44.184	18.299	1038.341	801.782
45.199	18.261	1037.302	800.732
46.213	18.342	1035.909	799.965
47.228	18.469	1035.459	800.138
48.242	18.693	1034.584	800.435
49.257	18.900	1033.458	800.458
50.271	18.849	1032.697	799.562
51.286	18.833	1031.664	798.616
52.301	18.899	1031.035	798.364
53.315	18.833	1030.283	797.407
54.330	18.818	1029.536	796.687
55.344	18.572	1028.795	794.902
56.359	18.521	1027.714	793.762
57.374	18.593	1026.621	793.182
58.388	18.524	1026.102	792.391
59.403	18.428	1024.906	790.952
60.417	18.316	1024.208	789.829
61.432	18.400	1023.614	789.689
62.447	18.311	1022.967	788.711
63.461	18.192	1022.544	787.766
64.476	18.207	1021.268	786.781
65.490	18.177	1020.277	785.808
66.505	18.075	1019.417	784.609
67.520	18.148	1018.820	784.414
68.534	18.288	1018.220	784.524
69.549	18.136	1017.797	783.434
70.563	18.137	1016.828	782.623
71.578	18.002	1016.148	781.413
72.593	18.093	1014.676	780.630
73.607	18.000	1013.734	779.410
74.622	17.880	1012.742	778.034
75.636	17.905	1012.039	777.535
76.651	17.991	1011.282	777.278
77.666	17.976	1010.624	776.637
78.680	18.167	1009.391	776.484
79.695	18.119	1008.985	775.888
80.709	18.108	1008.715	775.561
81.724	18.247	1007.953	775.536
82.739	18.474	1006.717	775.542
83.753	18.375	1006.278	774.689
84.768	18.600	1005.919	775.360
85.782	18.909	1005.385	776.279
86.797	19.213	1004.665	777.026
87.812	19.146	1004.180	776.280
88.826	18.962	1002.818	774.327
89.841	18.857	1002.103	773.235
90.855	18.970	1001.387	773.122
91.870	18.994	1000.845	772.742
92.884	19.112	1000.182	772.693
93.899	19.038	999.438	771.718
94.914	18.976	998.668	770.776
95.928	19.168	997.635	770.770
96.943	19.231	996.796	770.338
97.957	18.949	996.144	768.504
98.972	18.878	995.124	767.333
99.987	18.830	994.515	766.579
101.001	18.918	993.615	766.213
102.016	19.056	992.753	766.092
103.030	18.871	992.182	764.763
104.045	18.866	991.174	763.894
105.060	19.100	990.114	764.049
106.074	18.823	989.277	762.107
107.089	18.652	988.128	760.398
108.103	18.369	987.256	758.403
109.118	18.257	985.859	756.770
110.133	18.145	985.234	755.727
111.147	18.191	984.437	755.251
112.162	18.176	983.522	754.418
113.176	18.140	982.520	753.423
114.191	18.425	981.730	754.008
115.206	18.442	981.246	753.643
116.220	18.455	980.414	752.994
117.235	18.374	979.118	751.578
118.249	18.373	978.671	751.160
119.264	18.311	977.843	750.190
120.279	18.218	976.971	749.044
121.293	18.145	976.231	748.092
122.308	18.255	975.138	747.672
123.322	18.057	974.314	746.106
124.337	17.929	973.392	744.776
125.352	17.912	972.340	743.834
126.366	17.945	970.958	742.854
127.381	17.938	970.382	742.318
128.395	17.970	969.283	741.548
129.410	17.865	968.216	740.213
130.424	18.113	967.490	740.666
131.439	18.143	966.447	739.932
132.454	18.360	965.443	740.034
133.468	18.412	965.108	739.937
134.483	18.431	964.681	739.627
135.497	18.370	964.096	738.852
136.512	18.375	963.162	738.091
137.527	18.319	962.690	737.423
138.541	18.419	961.551	736.914
139.556	18.526	961.012	736.895
140.570	18.469	960.390	736.111
141.585	18.592	959.526	735.910
142.600	18.713	959.482	736.331
143.614	18.846	958.409	736.012
144.629	18.828	958.146	735.664
145.643	19.018	957.046	735.568
146.658	18.942	956.557	734.805
147.673	18.803	955.220	733.118
148.687	18.564	954.758	731.680
149.702	18.419	954.042	730.447
150.716	18.350	952.925	729.235
151.731	18.461	951.287	728.386
152.746	18.358	950.781	727.501
153.760	18.423	949.860	727.006
154.775	18.602	949.213	727.205
155.789	18.564	948.436	726.383
156.804	18.657	947.946	726.338
157.819	18.714	947.156	725.908
158.833	18.859	946.565	726.005
159.848	18.861	946.339	725.776
160.862	18.977	945.704	725.717
161.877	19.022	944.751	725.108
162.892	18.736	943.346	722.761
163.906	18.429	942.503	720.761
164.921	18.333	941.734	719.707
165.935	18.437	940.556	719.180
166.950	18.450	939.845	718.626
167.964	18.643	939.017	718.740
168.979	18.646	938.303	718.139
169.994	18.536	937.142	716.730
171.008	18.510	935.806	715.535
172.023	18.601	935.261	715.434
173.037	18.673	935.141	715.580
174.052	18.918	934.161	715.785
175.067	18.963	933.557	715.449
176.081	18.621	932.610	713.236
177.096	18.432	931.329	711.409
178.110	18.362	930.713	710.587
179.125	18.499	929.879	710.455
180.140	18.644	928.874	710.224
181.154	18.676	928.458	709.975
182.169	18.696	928.210	709.806
183.183	18.680	928.251	709.707
184.198	18.855	927.466	709.768
185.213	18.921	926.469	709.215
186.227	18.901	925.640	708.433
187.242	19.051	925.185	708.641
188.256	19.087	924.969	708.561
189.271	19.099	924.247	707.994
190.286	19.254	923.517	708.012
191.300	18.969	922.609	706.080
192.315	18.621	921.207	703.520
193.329	18.289	920.522	701.573
194.344	18.367	919.625	701.148
195.359	18.579	919.101	701.553
196.373	18.814	918.685	702.134
197.388	18.982	918.031	702.258
198.402	18.889	918.458	702.144
199.417	19.174	918.117	702.984
200.432	19.398	917.591	703.433
201.446	19.330	917.287	702.859
202.461	19.481	917.007	703.199
203.475	19.479	916.634	702.839
204.490	19.464	915.726	702.023
205.504	19.181	914.828	700.123
206.519	19.070	913.799	698.822
207.534	19.063	912.859	698.012
208.548	19.172	911.850	697.622
209.563	18.977	911.100	696.196
210.577	19.137	910.720	696.491
211.592	19.092	910.023	695.715
212.607	19.285	910.061	696.463
213.621	19.471	909.354	696.608
214.636	19.307	908.604	695.313
215.650	19.177	908.120	694.356
216.665	19.175	907.477	693.793
217.680	19.355	907.177	694.231
218.694	19.362	906.792	693.899
219.709	19.522	905.679	693.630
220.723	19.492	905.101	693.006
221.738	19.302	904.636	691.825
222.753	19.335	904.124	691.506
223.767	19.448	902.942	690.993
224.782	19.508	902.075	690.509
225.796	19.506	902.166	690.510
226.811	19.525	901.616	690.103
227.826	19.596	900.405	689.398
228.840	19.362	899.613	687.797
229.855	19.327	899.002	687.130
230.869	19.501	898.239	687.178
231.884	19.255	897.812	685.813
232.899	19.303	897.004	685.327
233.913	19.257	896.169	684.444
234.928	19.255	895.333	683.736
235.942	19.102	894.535	682.461
236.957	18.964	894.180	681.585
237.972	18.993	893.530	681.141
238.986	19.156	892.727	681.115
240.001	19.077	891.988	680.176
241.015	19.188	891.374	680.090
242.030	19.184	890.792	679.569
243.045	19.276	890.545	679.684
244.059	19.308	890.090	679.401
245.074	19.414	888.889	678.842
246.088	19.379	888.562	678.393
247.103	19.590	888.309	678.970
248.117	19.626	887.846	678.698
249.132	19.846	887.209	679.016
250.147	19.866	887.280	679.086
251.161	20.255	886.269	679.777
252.176	20.418	885.353	679.653
253.190	20.444	884.900	679.347
254.205	20.235	884.790	678.387
255.220	20.386	883.903	678.233
256.234	20.498	883.125	678.015
257.249	20.332	882.538	676.856
258.263	20.294	881.914	676.172
259.278	20.355	881.378	675.937
260.293	20.327	880.654	675.215
261.307	20.330	880.383	674.957
262.322	20.385	879.817	674.677
263.336	20.523	879.357	674.800
264.351	20.531	878.632	674.215
265.366	20.552	878.233	673.930
266.380	20.462	877.183	672.716
267.395	20.475	876.631	672.283
268.409	20.330	876.063	671.231
269.424	20.368	874.733	670.299
270.439	20.384	874.186	669.880
271.453	20.245	873.510	668.768
272.468	20.236	872.710	668.062
273.482	20.172	872.279	667.427
274.497	20.109	871.931	666.858
275.512	20.085	871.142	666.106
276.526	19.989	870.729	665.360
277.541	20.241	869.556	665.370
278.555	20.114	869.533	664.809
279.570	20.419	868.569	665.183
280.585	20.643	867.683	665.300
281.599	20.717	867.643	665.495
282.614	20.486	866.947	664.016
283.628	20.289	866.291	662.705
284.643	20.148	865.680	661.640
285.657	20.133	865.572	661.442
286.672	20.145	865.035	661.019
287.687	20.357	864.077	661.035
288.701	20.279	863.689	660.382
289.716	20.249	863.208	659.842
290.730	20.316	862.575	659.557
291.745	20.411	861.808	659.271
292.760	20.525	861.120	659.119
293.774	20.448	860.631	658.394
294.789	20.664	860.405	658.981
295.803	20.581	859.992	658.292
296.818	20.492	858.679	656.892
297.833	20.309	858.808	656.244
298.847	20.366	857.579	655.461
299.862	20.473	856.639	655.086
300.876	20.425	856.000	654.361
301.891	20.594	855.943	654.895
302.906	20.709	855.386	654.842
303.920	20.855	854.694	654.806
304.935	20.891	854.337	654.609
305.949	20.946	853.564	654.163
306.964	20.899	853.425	653.825
307.979	20.747	852.306	652.340
308.993	20.815	851.697	652.070
310.008	20.924	851.473	652.250
311.022	20.835	850.913	651.428
312.037	20.963	850.290	651.373
313.052	20.708	849.915	650.076
314.066	20.621	849.119	649.083
315.081	20.375	848.174	647.386
316.095	20.418	847.657	647.095
317.110	20.570	846.648	646.835
318.125	20.452	846.547	646.260
319.139	20.519	846.006	646.041
320.154	20.428	845.714	645.422
321.168	20.369	845.081	644.662
322.183	20.679	844.008	644.935
323.197	20.668	844.151	644.948
324.212	20.587	843.905	644.403
325.227	20.651	842.952	643.855
326.241	20.657	842.295	643.317
327.256	20.702	841.645	642.929
328.270	20.540	841.372	642.067
329.285	20.555	840.666	641.525
330.300	20.551	840.174	641.079
331.314	20.530	839.346	640.313
332.329	20.641	838.854	640.291
333.343	20.847	838.295	640.565
334.358	20.920	837.995	640.548
335.373	20.874	837.380	639.852
336.387	20.897	836.766	639.408
337.402	20.975	836.122	639.147
338.416	21.103	835.572	639.141
339.431	21.264	835.177	639.369
340.446	21.285	834.846	639.135
341.460	21.364	834.673	639.238
342.475	21.440	833.891	638.858
343.489	21.482	833.403	638.582
344.504	21.453	832.961	638.079
345.519	21.486	832.893	638.094
346.533	21.691	831.994	638.095
347.548	21.684	831.673	637.766
348.562	21.372	830.745	635.864
349.577	21.191	829.851	634.463
350.592	20.916	829.352	633.027
351.606	20.894	828.792	632.465
352.621	20.871	828.380	632.010
353.635	21.099	827.766	632.315
354.650	20.993	827.608	631.752
355.665	21.006	827.354	631.550
356.679	21.198	826.661	631.660
357.694	21.197	826.631	631.575
358.708	21.273	825.655	631.049
359.723	21.160	825.320	630.331
360.738	21.246	824.844	630.222
361.752	21.252	823.918	629.479
362.767	21.486	823.222	629.735
363.781	21.365	823.589	629.525
364.796	21.574	823.155	629.888
365.810	21.798	822.700	630.291
366.825	21.834	822.116	629.917
367.840	21.861	822.031	629.893
368.854	21.751	821.622	629.128
369.869	21.712	821.391	628.754
370.883	21.592	820.499	627.588
371.898	21.586	819.861	627.022
372.913	21.666	819.517	626.991
373.927	21.854	818.547	626.866
374.942	21.709	818.038	625.901
375.956	21.661	817.299	625.110
376.971	21.811	816.720	625.147
377.986	21.828	816.540	625.012
379.000	22.109	815.887	625.460
380.015	21.960	815.751	624.770
381.029	21.970	815.030	624.198
382.044	21.848	814.590	623.372
383.059	22.042	813.452	623.135
384.073	22.049	813.024	622.776
385.088	21.977	812.654	622.181
386.102	21.657	811.978	620.475
387.117	21.601	811.288	619.697
388.132	21.512	810.891	619.023
389.146	21.695	810.599	619.393
390.161	21.668	810.085	618.849
391.175	21.736	809.819	618.832
392.190	21.996	809.151	619.185
393.205	21.951	808.514	618.482
394.219	21.780	808.404	617.739
395.234	21.700	807.832	616.968
396.248	21.711	806.912	616.250
397.263	21.513	806.459	615.154
398.278	21.283	806.498	614.319
399.292	21.406	805.598	614.013
400.307	21.400	805.277	613.691
401.321	21.639	804.620	613.974
402.336	21.523	804.442	613.379
403.350	21.581	804.171	613.320
404.365	21.864	803.830	613.997
405.380	21.968	803.332	613.926
406.394	21.957	803.113	613.665
407.409	22.120	802.497	613.708
408.423	22.173	802.343	613.720
409.438	22.264	801.561	613.386
410.453	22.288	801.545	613.405
411.467	22.467	800.892	613.473
412.482	22.394	800.331	612.734
413.496	22.339	800.328	612.486
414.511	22.491	799.779	612.541
415.526	22.476	799.494	612.219
416.540	22.373	798.852	611.315
417.555	22.408	798.149	610.842
418.569	22.351	797.747	610.284
419.584	22.293	797.261	609.657
420.599	22.431	796.948	609.841
421.613	162.155	1368.024	1794.179
422.628	140.769	1451.250	1794.309
