DTS Sentinel unit serial number:	SN413079Multiplexer serial number:	ORYXHardware model number:	OX4-SRSoftware version number:	ORYX F/W v4.00 Oryx Data Collector v3.7.2.0data status	okinstallation	princeton_trtdifferential loss correction	single-endedforward channel	channel 3reverse channel	N/Adate	2019/09/15time	20:00:35forward acquisition time	60.00reverse acquisition time	0.00gamma	496.2192k internal	0.2314k external	0.2314temperature offset calibration	0.9936default loss term (dB/km)	0.3790temperature slope calibration	1.0000multiplexer offset coefficient	1.0000multiplexer slope coefficient	1.0000fibre end	0.00T internal ref (°C)	35.70T ext. ref 1 (°C)	7.56T ext. ref 2 (°C)	26.33length (m)	temperature (°C)	Stokes	anti-Stokes-747.200	-48.729	0.432	-0.210
-746.185	-20.363	-0.096	-0.060
-745.171	-147.933	0.397	-0.033
-744.156	-130.379	-0.361	0.050
-743.142	-166.333	0.117	-0.005
-742.127	-112.018	-0.378	0.077
-741.112	-83.038	0.198	0.065
-740.098	144.492	0.085	0.115
-739.083	115.489	-0.267	-0.331
-738.069	-62.172	-0.204	0.086
-737.054	800.000	-0.045	0.130
-736.039	-200.000	-0.007	0.391
-735.025	44.293	0.091	0.085
-734.010	54.710	-0.081	-0.079
-732.996	64.063	-0.091	0.093
-731.981	8.888	-0.271	0.207
-730.966	-200.000	-0.034	-0.271
-729.952	45.401	-0.193	-0.180
-728.937	54.266	-0.188	-0.183
-727.923	-200.000	-0.009	0.382
-726.908	-200.000	0.039	0.387
-725.894	-63.966	-0.279	0.115
-724.879	183.521	-0.023	-0.035
-723.864	-35.695	0.645	-0.354
-722.850	34.588	-0.062	0.055
-721.835	-143.762	-0.256	0.025
-720.821	-20.398	-0.191	-0.119
-719.806	-24.648	0.072	-0.043
-718.791	-200.000	-0.035	0.271
-717.777	597.559	-0.103	0.258
-716.762	-71.300	-0.239	-0.091
-715.748	156.466	0.060	0.085
-714.733	-11.328	-0.346	-0.230
-713.718	560.620	-0.077	-0.190
-712.704	92.270	-0.254	-0.290
-711.689	800.000	-0.022	0.094
-710.675	126.028	-0.213	0.273
-709.660	292.046	-0.137	-0.252
-708.645	-200.000	-0.015	0.167
-707.631	-68.535	-0.197	-0.077
-706.616	-29.250	-0.100	-0.058
-705.602	800.000	0.058	0.173
-704.587	800.000	-0.052	0.224
-703.572	-66.460	-0.251	0.101
-702.558	214.927	-0.036	0.058
-701.543	78.929	0.071	-0.077
-700.529	-104.296	-0.367	-0.086
-699.514	-65.079	0.284	0.116
-698.499	-148.322	0.095	0.008
-697.485	-200.000	-0.018	0.381
-696.470	-14.937	0.306	0.198
-695.456	429.112	0.192	0.421
-694.441	195.704	-0.029	0.045
-693.426	-200.000	0.045	-0.286
-692.412	-114.394	-0.380	0.074
-691.397	-200.000	0.004	-0.146
-690.383	20.754	-0.131	-0.107
-689.368	-158.308	-0.243	-0.014
-688.354	226.838	-0.068	-0.112
-687.339	195.250	0.372	-0.572
-686.324	-96.594	-0.065	-0.017
-685.310	-167.048	0.261	-0.011
-684.295	-35.916	-0.368	0.201
-683.281	-16.658	0.229	0.147
-682.266	-61.244	-0.233	-0.099
-681.251	174.101	-0.034	-0.050
-680.237	800.000	-0.036	-0.126
-679.222	697.447	0.178	0.472
-678.208	-107.222	-0.220	-0.049
-677.193	752.379	-0.065	0.177
-676.178	-81.489	0.150	-0.050
-675.164	-64.639	-0.205	-0.084
-674.149	249.533	0.142	0.244
-673.135	-200.000	-0.004	0.086
-672.120	-108.065	-0.020	-0.004
-671.105	367.875	-0.011	0.023
-670.091	-74.793	-0.195	0.071
-669.076	800.000	-0.035	0.126
-668.062	-50.926	0.184	-0.088
-667.047	-200.000	0.002	-0.066
-666.032	-87.771	-0.318	-0.097
-665.018	-200.000	0.000	0.011
-664.003	-179.637	0.145	-0.003
-662.989	-115.068	0.039	0.008
-661.974	191.582	0.056	-0.085
-660.959	207.636	-0.072	0.114
-659.945	-78.914	0.230	0.079
-658.930	197.944	0.203	0.313
-657.916	149.978	-0.136	0.187
-656.901	-87.130	-0.294	0.090
-655.886	-129.207	-0.155	0.022
-654.872	-0.908	0.136	0.097
-653.857	176.155	-0.178	-0.261
-652.843	-179.825	0.160	-0.003
-651.828	15.698	-0.041	0.033
-650.814	-177.758	-0.162	0.004
-649.799	-82.363	0.191	-0.063
-648.784	399.168	0.063	0.132
-647.770	76.838	-0.232	-0.249
-646.755	131.901	-0.298	-0.388
-645.741	16.404	-0.208	0.166
-644.726	177.218	-0.080	0.117
-643.711	11.950	-0.222	0.172
-642.697	-200.000	0.015	0.207
-641.682	360.371	-0.118	0.239
-640.668	-200.000	0.004	-0.022
-639.653	800.000	0.100	0.287
-638.638	147.059	0.032	0.043
-637.624	101.359	-0.194	0.228
-636.609	-89.830	-0.134	0.040
-635.595	10.759	-0.046	-0.035
-634.580	-200.000	0.063	0.331
-633.565	-177.189	-0.092	0.002
-632.551	-170.911	-0.209	-0.007
-631.536	-89.959	-0.375	0.111
-630.522	74.212	0.146	0.155
-629.507	-92.351	0.035	0.010
-628.492	143.371	-0.140	0.188
-627.478	-87.004	0.084	-0.026
-626.463	223.422	0.240	0.390
-625.449	-166.040	0.344	-0.015
-624.434	71.126	-0.019	0.020
-623.419	166.809	-0.231	0.331
-622.405	344.640	0.123	-0.243
-621.390	-155.810	-0.229	0.015
-620.376	-170.491	0.302	0.011
-619.361	50.357	-0.064	-0.061
-618.346	-139.951	-0.125	-0.013
-617.332	246.076	-0.169	-0.287
-616.317	582.616	0.153	-0.379
-615.303	-161.053	0.201	-0.011
-614.288	-29.368	-0.280	-0.161
-613.273	-40.439	-0.178	-0.093
-612.259	-200.000	0.031	-0.164
-611.244	0.782	0.108	-0.078
-610.230	506.713	0.053	0.124
-609.215	-159.179	0.101	0.006
-608.201	-77.601	-0.243	-0.085
-607.186	551.265	0.030	-0.072
-606.171	23.616	0.202	0.167
-605.157	-59.384	0.252	-0.109
-604.142	117.159	-0.182	-0.225
-603.128	-84.828	0.138	-0.044
-602.113	-98.007	0.224	-0.058
-601.098	43.771	0.220	-0.203
-600.084	70.207	0.217	0.226
-599.069	312.020	0.136	-0.258
-598.055	-176.101	0.249	0.007
-597.040	467.356	0.064	-0.145
-596.025	-111.074	-0.198	0.041
-595.011	-48.905	0.086	0.041
-593.996	182.931	-0.036	-0.054
-592.982	-200.000	-0.015	-0.105
-591.967	800.000	-0.033	0.095
-590.952	305.454	0.031	-0.058
-589.938	-200.000	-0.000	-0.119
-588.923	-200.000	-0.001	0.491
-587.909	112.090	-0.178	-0.217
-586.894	111.545	-0.067	0.081
-585.879	188.568	-0.053	0.079
-584.865	-200.000	0.008	0.100
-583.850	239.926	-0.116	0.195
-582.836	141.333	-0.103	0.138
-581.821	-200.000	0.085	-0.462
-580.806	15.637	-0.188	-0.149
-579.792	-200.000	0.005	-0.096
-578.777	800.000	-0.030	0.108
-577.763	-200.000	-0.019	0.136
-576.748	3.186	-0.261	-0.191
-575.733	22.130	0.164	-0.134
-574.719	800.000	-0.016	0.067
-573.704	800.000	-0.035	-0.144
-572.690	602.856	-0.068	-0.171
-571.675	800.000	-0.138	-0.399
-570.661	-86.850	0.165	-0.051
-569.646	-200.000	-0.010	0.105
-568.631	-76.736	-0.163	-0.058
-567.617	-200.000	0.020	-0.255
-566.602	430.271	0.072	-0.157
-565.588	-69.775	0.171	0.066
-564.573	1.953	-0.288	-0.209
-563.558	800.000	-0.034	-0.101
-562.544	3.836	0.165	-0.122
-561.529	133.759	0.096	-0.125
-560.515	119.392	-0.083	0.104
-559.500	-36.252	-0.042	-0.023
-558.485	800.000	0.125	-0.360
-557.471	-200.000	0.003	-0.193
-556.456	107.456	-0.192	-0.230
-555.442	-128.271	-0.192	0.028
-554.427	378.864	0.096	0.197
-553.412	40.358	0.119	0.108
-552.398	-64.391	-0.249	0.102
-551.383	0.126	0.204	0.146
-550.369	55.927	0.160	-0.157
-549.354	-39.918	-0.163	0.086
-548.339	49.244	0.178	0.169
-547.325	-200.000	-0.005	0.151
-546.310	262.064	0.168	-0.293
-545.296	24.035	-0.105	0.087
-544.281	-182.909	0.227	-0.004
-543.266	39.873	0.270	0.243
-542.252	-167.362	-0.387	-0.016
-541.237	-200.000	0.009	0.164
-540.223	-200.000	-0.001	-0.310
-539.208	134.039	-0.208	0.271
-538.193	800.000	-0.073	-0.279
-537.179	377.832	-0.003	0.007
-536.164	139.503	-0.094	0.124
-535.150	94.256	-0.271	-0.310
-534.135	-31.850	0.387	-0.218
-533.121	175.298	0.054	-0.079
-532.106	-163.478	0.456	0.022
-531.091	-113.227	-0.127	0.025
-530.077	-168.541	0.347	-0.013
-529.062	-40.934	-0.147	0.076
-528.048	243.850	0.125	0.211
-527.033	-200.000	0.010	0.123
-526.018	-64.842	-0.373	0.152
-525.004	185.632	-0.157	-0.235
-523.989	-127.205	0.037	-0.005
-522.975	800.000	0.077	-0.297
-521.960	731.777	0.038	-0.102
-520.945	-200.000	-0.043	-0.204
-519.931	79.994	-0.170	-0.183
-518.916	80.197	-0.161	-0.174
-517.902	-102.767	0.234	0.056
-516.887	-101.865	0.278	-0.068
-515.872	-36.780	-0.108	0.058
-514.858	800.000	0.079	-0.291
-513.843	66.408	-0.359	0.366
-512.829	-40.015	0.392	0.205
-511.814	111.496	-0.118	0.144
-510.799	69.814	0.170	0.177
-509.785	190.877	-0.124	0.188
-508.770	54.899	-0.247	0.239
-507.756	76.476	-0.147	0.156
-506.741	-37.988	-0.171	-0.091
-505.726	45.654	0.035	0.032
-504.712	-200.000	-0.032	-0.534
-503.697	461.787	0.118	0.265
-502.683	800.000	0.153	0.467
-501.668	259.319	-0.068	-0.117
-500.653	93.419	0.097	-0.110
-499.639	-114.441	-0.290	-0.056
-498.624	-8.131	0.170	0.115
-497.610	-81.929	0.404	0.133
-496.595	-97.087	0.347	-0.091
-495.581	59.537	0.043	0.043
-494.566	-7.299	0.269	-0.183
-493.551	-88.282	-0.137	-0.041
-492.537	-167.309	0.115	-0.005
-491.522	800.000	-0.018	0.065
-490.508	555.095	-0.042	-0.101
-489.493	-200.000	-0.016	0.276
-488.478	-200.000	-0.065	0.304
-487.464	13.283	-0.295	0.229
-486.449	-148.671	-0.068	0.006
-485.435	-60.187	-0.159	0.068
-484.420	-113.281	-0.304	-0.060
-483.405	52.108	-0.058	-0.056
-482.391	-44.737	-0.217	0.108
-481.376	413.596	-0.072	-0.154
-480.362	-114.887	-0.236	0.045
-479.347	-53.559	-0.097	0.044
-478.332	800.000	0.066	0.285
-477.318	-200.000	0.012	0.178
-476.303	28.256	-0.214	-0.182
-475.289	227.464	-0.084	0.137
-474.274	-110.454	0.302	0.063
-473.259	-112.637	0.104	0.021
-472.245	-74.003	0.189	0.069
-471.230	-87.793	0.126	-0.038
-470.216	360.936	0.151	0.304
-469.201	139.779	-0.112	-0.148
-468.186	215.844	0.067	-0.107
-467.172	800.000	0.024	0.069
-466.157	800.000	0.055	0.163
-465.143	-176.402	-0.202	0.005
-464.128	721.522	0.086	0.230
-463.113	199.090	-0.047	0.073
-462.099	-200.000	-0.016	0.086
-461.084	27.049	-0.094	-0.079
-460.070	800.000	-0.029	0.104
-459.055	-33.189	-0.188	-0.104
-458.040	59.052	-0.154	0.152
-457.026	-93.360	0.354	-0.099
-456.011	-131.883	-0.263	0.034
-454.997	-200.000	0.003	-0.120
-453.982	1.678	0.448	-0.323
-452.968	-200.000	0.004	-0.066
-451.953	414.589	-0.077	-0.165
-450.938	-138.766	0.375	0.041
-449.924	800.000	0.059	-0.208
-448.909	741.634	0.004	-0.011
-447.895	800.000	0.055	0.200
-446.880	-200.000	0.047	0.304
-445.865	-143.543	0.068	-0.006
-444.851	800.000	-0.011	0.033
-443.836	-93.988	-0.234	-0.065
-442.822	246.391	-0.182	0.308
-441.807	-94.874	-0.115	0.031
-440.792	263.827	-0.138	0.240
-439.778	-18.078	0.204	-0.128
-438.763	28.557	0.106	0.090
-437.749	63.174	-0.110	-0.110
-436.734	-200.000	-0.005	-0.190
-435.719	-110.856	-0.170	0.035
-434.705	-117.484	-0.170	0.031
-433.690	-25.111	0.081	0.048
-432.676	-87.374	-0.095	0.029
-431.661	32.688	-0.125	0.108
-430.646	-29.179	-0.160	0.092
-429.632	800.000	0.017	0.050
-428.617	-200.000	-0.029	0.134
-427.603	471.166	-0.059	0.134
-426.588	-80.276	0.068	-0.023
-425.573	-176.086	0.104	0.003
-424.559	-21.288	-0.306	-0.187
-423.544	-170.807	0.166	0.006
-422.530	-63.325	0.111	0.046
-421.515	-98.854	0.088	0.023
-420.500	800.000	0.101	-0.281
-419.486	800.000	-0.140	-0.416
-418.471	108.969	-0.203	-0.243
-417.457	-200.000	0.032	0.270
-416.442	371.331	-0.160	0.326
-415.428	800.000	-0.037	-0.147
-414.413	-104.548	-0.149	0.034
-413.398	-200.000	-0.059	0.327
-412.384	212.628	0.065	0.102
-411.369	-155.194	0.083	-0.005
-410.355	434.802	0.131	0.285
-409.340	269.803	-0.085	-0.150
-408.325	-113.540	-0.274	0.054
-407.311	-200.000	-0.033	-0.211
-406.296	73.618	-0.077	-0.081
-405.282	-200.000	0.016	0.239
-404.267	-16.789	0.076	0.048
-403.252	248.466	-0.058	-0.099
-402.238	176.171	-0.113	-0.164
-401.223	24.404	-0.180	-0.149
-400.209	-43.761	0.069	-0.035
-399.194	72.777	0.212	0.221
-398.179	384.020	0.084	-0.172
-397.165	129.499	-0.227	0.290
-396.150	-200.000	0.055	-0.281
-395.136	-134.867	-0.395	0.048
-394.121	800.000	0.145	-0.609
-393.106	99.042	0.081	-0.094
-392.092	627.002	-0.063	-0.159
-391.077	-173.863	0.088	-0.003
-390.063	50.365	0.154	-0.145
-389.048	-64.578	0.157	0.064
-388.033	-200.000	-0.025	-0.265
-387.019	-27.419	0.184	-0.107
-386.004	-29.888	-0.133	-0.076
-384.990	-200.000	0.026	0.142
-383.975	-5.842	-0.110	0.075
-382.960	-200.000	0.027	-0.146
-381.946	800.000	0.052	0.176
-380.931	-200.000	-0.010	-0.080
-379.917	-37.451	-0.107	0.057
-378.902	-53.199	-0.171	-0.078
-377.888	434.938	0.069	-0.151
-376.873	674.594	0.084	-0.219
-375.858	-10.051	0.223	-0.148
-374.844	-123.976	0.210	-0.033
-373.829	-134.879	0.057	-0.007
-372.815	443.000	-0.022	-0.048
-371.800	30.120	-0.320	-0.273
-370.785	800.000	0.091	0.389
-369.771	-154.570	0.257	0.017
-368.756	-111.822	0.466	-0.094
-367.742	-36.960	0.195	0.105
-366.727	800.000	0.056	-0.214
-365.712	5.262	0.132	0.097
-364.698	800.000	0.062	-0.218
-363.683	-200.000	0.065	0.379
-362.669	-127.087	0.261	0.038
-361.654	-66.044	0.332	-0.132
-360.639	-100.353	-0.208	-0.051
-359.625	-110.260	0.122	0.025
-358.610	48.191	0.239	-0.223
-357.596	395.785	0.088	-0.183
-356.581	238.556	-0.190	-0.316
-355.566	800.000	-0.137	0.494
-354.552	52.235	0.189	0.180
-353.537	587.240	-0.028	0.069
-352.523	800.000	-0.017	0.065
-351.508	-200.000	0.008	-0.053
-350.493	-43.269	0.264	-0.133
-349.479	-76.192	0.116	0.041
-348.464	-104.749	0.109	-0.025
-347.450	-56.547	0.202	0.089
-346.435	576.983	-0.103	0.251
-345.420	32.021	0.350	0.301
-344.406	-200.000	-0.022	0.183
-343.391	202.798	0.065	0.101
-342.377	695.862	0.064	-0.168
-341.362	17.998	0.182	-0.145
-340.348	-168.329	0.075	-0.003
-339.333	800.000	-0.041	0.171
-338.318	168.381	-0.128	0.182
-337.304	568.417	0.061	-0.148
-336.289	29.630	-0.137	0.116
-335.275	-142.617	0.302	0.029
-334.260	93.218	-0.252	0.284
-333.245	637.449	0.108	0.273
-332.231	410.257	-0.168	0.356
-331.216	588.427	0.117	0.288
-330.202	-100.468	-0.119	-0.029
-329.187	678.450	-0.168	-0.437
-328.172	-134.493	-0.178	-0.022
-327.158	88.895	0.332	-0.369
-326.143	391.420	-0.088	-0.182
-325.129	170.506	0.125	0.179
-324.114	68.552	-0.136	0.139
-323.099	800.000	0.063	-0.220
-322.085	81.871	-0.206	0.222
-321.070	232.507	0.028	0.047
-320.056	-146.711	0.118	-0.010
-319.041	-153.139	0.243	-0.017
-318.026	-129.966	-0.101	0.014
-317.012	540.981	0.078	0.185
-315.997	-200.000	0.001	-0.164
-314.983	-137.292	-0.130	-0.015
-313.968	-42.155	0.256	0.130
-312.953	-200.000	0.010	0.297
-311.939	-200.000	0.008	0.269
-310.924	-157.194	-0.306	0.018
-309.910	91.026	-0.127	-0.142
-308.895	-30.453	-0.262	-0.148
-307.880	-97.129	-0.229	-0.060
-306.866	800.000	0.034	-0.141
-305.851	317.722	0.067	-0.126
-304.837	16.495	-0.184	0.145
-303.822	-49.477	0.090	0.043
-302.807	26.902	0.059	-0.050
-301.793	-200.000	0.025	-0.123
-300.778	185.712	0.170	0.251
-299.764	31.368	0.202	0.173
-298.749	-56.493	-0.464	0.205
-297.735	-200.000	0.020	-0.385
-296.720	800.000	-0.092	-0.332
-295.705	-44.392	0.272	0.136
-294.691	666.475	-0.038	-0.098
-293.676	-157.813	-0.180	0.011
-292.662	-96.666	0.155	-0.041
-291.647	245.413	0.039	-0.065
-290.632	411.920	-0.034	-0.072
-289.618	25.777	-0.182	0.151
-288.603	54.042	-0.222	0.212
-287.589	-124.789	-0.429	-0.066
-286.574	63.162	-0.074	-0.074
-285.559	800.000	0.079	0.239
-284.545	146.215	0.078	0.104
-283.530	-151.484	0.087	-0.006
-282.516	100.729	-0.151	0.175
-281.501	511.254	0.161	-0.373
-280.486	19.245	0.009	0.007
-279.472	800.000	-0.086	-0.291
-278.457	18.624	0.141	0.112
-277.443	-176.960	0.092	0.002
-276.428	-42.777	0.069	-0.035
-275.413	108.348	-0.231	0.274
-274.399	800.000	-0.120	0.370
-273.384	527.182	-0.123	-0.289
-272.370	-22.098	-0.160	-0.097
-271.355	-10.476	0.208	-0.137
-270.340	-96.141	0.196	-0.052
-269.326	-200.000	-0.010	-0.158
-268.311	-151.110	-0.287	0.021
-267.297	140.703	-0.111	0.146
-266.282	-200.000	-0.054	0.325
-265.267	-38.294	0.352	-0.186
-264.253	355.334	0.163	0.322
-263.238	119.724	0.119	-0.147
-262.224	800.000	0.043	-0.136
-261.209	-200.000	0.056	-0.257
-260.195	171.792	-0.021	0.030
-259.180	-200.000	-0.010	0.064
-258.165	131.563	-0.050	-0.064
-257.151	800.000	0.110	-0.368
-256.136	-200.000	0.037	-0.178
-255.122	-86.241	0.095	0.029
-254.107	-68.787	0.235	-0.090
-253.092	800.000	-0.060	-0.213
-252.078	800.000	0.071	-0.207
-251.063	-2.743	0.315	-0.219
-250.049	298.800	0.078	0.143
-249.034	800.000	-0.118	0.448
-248.019	37.907	-0.161	-0.142
-247.005	523.731	0.143	0.335
-245.990	-119.507	0.287	0.050
-244.976	-150.547	-0.261	0.020
-243.961	95.883	0.065	-0.074
-242.946	-200.000	-0.095	-0.000
-241.932	-4.240	-0.199	0.137
-240.917	135.064	-0.068	0.087
-239.903	-166.814	0.169	-0.007
-238.888	45.970	-0.217	0.200
-237.873	-147.118	0.160	-0.014
-236.859	-104.767	0.098	0.022
-235.844	238.003	-0.065	-0.107
-234.830	-56.765	-0.161	-0.071
-233.815	-129.649	0.129	-0.018
-232.800	86.276	0.204	-0.223
-231.786	611.554	-0.084	0.209
-230.771	-88.567	0.288	-0.085
-229.757	-200.000	-0.001	0.032
-228.742	162.042	0.098	0.136
-227.727	177.645	-0.048	0.070
-226.713	360.859	-0.134	0.267
-225.698	-200.000	-0.018	-0.724
-224.684	-200.000	0.033	-0.147
-223.669	333.331	0.163	-0.314
-222.655	164.534	-0.182	0.255
-221.640	-96.714	0.292	-0.076
-220.625	-56.908	-0.119	0.052
-219.611	800.000	-0.030	0.109
-218.596	800.000	-0.149	-0.518
-217.582	107.972	0.205	-0.243
-216.567	-71.051	0.283	-0.106
-215.552	-151.880	0.197	-0.014
-214.538	-104.440	-0.236	0.054
-213.523	-200.000	-0.043	-0.296
-212.509	-97.784	0.214	-0.055
-211.494	-115.708	-0.201	0.037
-210.479	-95.608	0.216	-0.057
-209.465	-46.989	-0.244	-0.118
-208.450	-200.000	-0.033	-0.188
-207.436	512.845	0.075	0.173
-206.421	-128.162	-0.055	-0.008
-205.406	-200.000	-0.004	0.060
-204.392	-152.809	-0.128	0.009
-203.377	-57.870	0.080	0.035
-202.363	-200.000	0.052	0.260
-201.348	-200.000	0.071	-0.333
-200.333	-124.854	-0.240	-0.037
-199.319	-200.000	-0.003	-0.271
-198.304	53.384	0.064	-0.061
-197.290	51.952	0.127	-0.120
-196.275	305.100	-0.052	0.096
-195.260	134.431	-0.036	0.047
-194.246	110.263	-0.190	0.226
-193.231	-107.067	-0.424	-0.093
-192.217	195.656	-0.044	-0.066
-191.202	624.085	-0.009	-0.023
-190.187	-200.000	0.015	0.345
-189.173	800.000	-0.043	0.120
-188.158	559.684	-0.047	0.113
-187.144	404.325	-0.044	0.091
-186.129	64.540	-0.249	0.249
-185.114	-22.100	0.126	0.076
-184.100	-81.883	0.266	0.086
-183.085	-200.000	0.002	-0.105
-182.071	129.207	-0.250	-0.317
-181.056	800.000	-0.045	-0.172
-180.042	-3.499	-0.151	-0.104
-179.027	681.262	-0.080	-0.207
-178.012	123.686	-0.061	-0.076
-176.998	-168.571	-0.159	0.006
-175.983	-200.000	-0.059	0.292
-174.969	800.000	-0.026	0.100
-173.954	-200.000	0.017	0.182
-172.939	-58.407	-0.143	0.061
-171.925	-162.817	0.051	-0.002
-170.910	800.000	-0.062	0.181
-169.896	-53.392	-0.037	-0.017
-168.881	344.642	-0.146	0.284
-167.866	-13.055	-0.295	-0.190
-166.852	34.258	0.097	0.084
-165.837	-84.378	0.401	-0.126
-164.823	-200.000	-0.010	0.057
-163.808	-200.000	-0.016	0.360
-162.793	-200.000	0.014	0.105
-161.779	-37.298	-0.219	0.116
-160.764	78.653	-0.119	0.126
-159.750	800.000	0.074	-0.226
-158.735	-71.013	0.281	0.105
-157.720	-200.000	0.006	0.232
-156.706	178.405	0.130	-0.188
-155.691	159.088	0.228	0.314
-154.677	-12.069	-0.186	-0.121
-153.662	133.338	-0.140	-0.179
-152.647	48.511	0.341	0.316
-151.633	105.939	0.109	-0.127
-150.618	-79.562	0.272	-0.091
-149.604	239.882	0.279	0.460
-148.589	-182.122	-0.291	-0.005
-147.574	-200.000	0.049	-0.223
-146.560	479.628	0.114	-0.256
-145.545	-20.572	-0.101	0.061
-144.531	-86.215	-0.280	-0.085
-143.516	800.000	-0.014	0.039
-142.502	-118.340	-0.212	-0.037
-141.487	-142.551	-0.252	-0.024
-140.472	-200.000	0.032	-0.289
-139.458	136.971	0.109	-0.141
-138.443	-105.717	0.220	0.049
-137.429	-16.831	0.046	0.029
-136.414	79.163	0.074	-0.078
-135.399	-43.019	0.088	-0.044
-134.385	-57.400	0.132	-0.057
-133.370	800.000	-0.040	-0.152
-132.356	13.874	0.059	0.046
-131.341	-134.618	-0.231	-0.028
-130.326	-42.360	0.369	-0.186
-129.312	58.236	0.179	-0.174
-128.297	-200.000	-0.008	0.229
-127.283	800.000	0.047	0.191
-126.268	-200.000	0.040	0.187
-125.253	-200.000	-0.032	-0.351
-124.239	68.595	0.375	0.381
-123.224	447.599	0.120	0.261
-122.210	191.112	0.122	0.182
-121.195	363.154	-0.069	0.138
-120.180	609.447	-0.125	0.309
-119.166	-183.418	-0.505	-0.009
-118.151	-61.409	-0.244	-0.102
-117.137	-5.034	-0.433	-0.295
-116.122	-4.097	-0.188	-0.129
-115.107	-129.204	0.099	0.014
-114.093	351.012	0.071	-0.138
-113.078	-132.945	0.349	0.044
-112.064	-103.783	0.101	0.023
-111.049	67.629	0.103	0.104
-110.034	-94.655	-0.192	-0.052
-109.020	-200.000	-0.010	0.325
-108.005	800.000	-0.108	0.337
-106.991	800.000	0.101	0.408
-105.976	140.403	-0.049	0.064
-104.962	12.606	-0.023	0.018
-103.947	114.550	-0.088	-0.106
-102.932	414.184	-0.016	0.034
-101.918	-200.000	0.027	0.346
-100.903	63.533	-0.461	0.458
-99.889	42.327	-0.101	0.091
-98.874	-200.000	-0.045	-0.209
-97.859	-200.000	-0.035	0.179
-96.845	395.092	-0.146	-0.301
-95.830	92.762	0.032	-0.036
-94.816	-57.064	0.077	-0.033
-93.801	-38.722	0.212	-0.111
-92.786	104.829	0.168	-0.196
-91.772	5.738	0.051	-0.037
-90.757	-200.000	-0.058	-0.261
-89.743	-136.232	-0.161	0.019
-88.728	-200.000	-0.024	0.170
-87.713	-200.000	0.024	0.139
-86.699	-141.310	-0.128	0.013
-85.684	800.000	-0.099	0.302
-84.670	800.000	-0.015	0.053
-83.655	-114.998	0.327	0.061
-82.640	-200.000	-0.067	0.369
-81.626	101.780	0.067	0.078
-80.611	39.243	-0.063	0.056
-79.597	800.000	0.071	0.301
-78.582	-200.000	-0.019	-0.123
-77.567	800.000	0.057	0.163
-76.553	-3.348	-0.103	-0.071
-75.538	31.102	-0.083	-0.070
-74.524	-31.963	0.098	0.054
-73.509	-39.898	-0.197	-0.102
-72.494	-177.837	-0.247	-0.006
-71.480	-70.179	0.252	-0.095
-70.465	-200.000	0.086	0.406
-69.451	-8.832	-0.113	0.075
-68.436	-138.006	0.125	-0.014
-67.422	660.636	0.017	0.044
-66.407	-200.000	0.047	-0.344
-65.392	-74.407	0.264	0.094
-64.378	-101.084	0.409	0.099
-63.363	-23.422	-0.168	-0.100
-62.349	338.087	-0.103	0.197
-61.334	-4.425	-0.895	-0.611
-60.319	66.063	0.567	0.568
-59.305	800.000	-0.301	-1.130
-58.290	425.059	0.505	1.074
-57.276	800.000	0.583	1.796
-56.261	-200.000	94.650	567.429
-55.246	559.143	1367.630	3258.091
-54.232	157.286	2554.284	3487.456
-53.217	114.002	2174.294	2609.550
-52.203	46.117	1713.966	1566.297
-51.188	38.829	1523.844	1342.852
-50.173	36.362	1496.751	1302.306
-49.159	55.351	1545.731	1475.460
-48.144	58.664	1565.251	1516.742
-47.130	39.171	1521.599	1342.992
-46.115	35.926	1506.110	1307.280
-45.100	35.794	1502.832	1303.489
-44.086	35.733	1500.770	1301.235
-43.071	35.697	1499.056	1299.453
-42.057	35.704	1497.363	1297.982
-41.042	35.630	1496.397	1296.597
-40.027	35.646	1494.701	1295.182
-39.013	35.568	1493.083	1293.204
-37.998	35.578	1491.859	1292.161
-36.984	35.667	1491.126	1292.069
-35.969	35.626	1489.601	1290.421
-34.954	35.626	1487.913	1288.909
-33.940	35.681	1486.337	1287.863
-32.925	35.549	1485.190	1285.935
-31.911	35.724	1483.397	1285.503
-30.896	35.706	1482.553	1284.595
-29.881	35.758	1481.176	1283.697
-28.867	35.890	1479.296	1282.902
-27.852	35.763	1478.607	1281.405
-26.838	35.765	1476.939	1279.925
-25.823	35.694	1475.532	1278.177
-24.809	35.617	1474.350	1276.594
-23.794	35.715	1472.694	1275.763
-22.779	35.833	1470.912	1274.949
-21.765	35.691	1470.416	1273.528
-20.750	35.787	1469.103	1272.973
-19.736	35.825	1468.161	1272.362
-18.721	35.771	1467.101	1271.036
-17.706	35.746	1465.803	1269.692
-16.692	35.668	1464.562	1268.052
-15.677	35.736	1463.437	1267.475
-14.663	35.662	1462.760	1266.353
-13.648	35.740	1461.564	1265.779
-12.633	35.766	1460.704	1265.158
-11.619	35.665	1459.886	1263.731
-10.604	35.735	1459.108	1263.472
-9.590	35.702	1458.125	1262.351
-8.575	35.697	1457.609	1261.819
-7.560	35.789	1456.224	1261.174
-6.546	35.682	1455.543	1259.836
-5.531	35.729	1454.585	1259.264
-4.517	35.761	1453.294	1258.303
-3.502	35.735	1452.728	1257.594
-2.487	35.587	1452.404	1256.299
-1.473	35.702	1450.728	1255.547
-0.458	35.655	1449.841	1254.423
0.556	33.270	1438.676	1239.117
1.571	28.847	1410.829	1186.548
2.586	23.573	1346.642	1099.871
3.600	21.071	1263.336	1017.173
4.615	19.427	1216.860	970.421
5.629	17.620	1164.046	918.490
6.644	12.696	1085.451	831.590
7.659	8.320	1047.619	781.167
8.673	7.753	1042.038	774.175
9.688	7.493	1039.040	770.619
10.702	7.538	1037.451	769.588
11.717	7.456	1036.218	768.210
12.731	9.435	1036.249	777.738
13.746	13.909	1043.069	804.504
14.761	17.299	1047.172	824.059
15.775	17.696	1046.331	825.245
16.790	16.810	1044.112	819.140
17.804	15.538	1042.448	811.618
18.819	14.827	1040.383	806.508
19.834	14.299	1038.872	802.721
20.848	14.026	1037.815	800.518
21.863	13.656	1037.275	798.253
22.877	13.450	1036.379	796.500
23.892	13.297	1035.390	794.934
24.907	13.289	1034.684	794.282
25.921	13.324	1033.962	793.828
26.936	13.231	1033.222	792.742
27.950	13.390	1031.819	792.357
28.965	13.344	1031.083	791.504
29.980	13.410	1029.951	790.880
30.994	13.431	1028.476	789.776
32.009	13.473	1027.755	789.354
33.023	13.493	1027.300	789.030
34.038	13.407	1027.060	788.363
35.053	13.411	1025.832	787.374
36.067	13.352	1024.899	786.306
37.082	13.397	1023.975	785.741
38.096	13.370	1023.172	784.925
39.111	13.370	1022.402	784.265
40.126	13.452	1021.373	783.795
41.140	13.382	1019.959	782.308
42.155	13.393	1018.619	781.268
43.169	13.218	1018.468	780.253
44.184	13.237	1017.674	779.669
45.199	13.233	1016.277	778.508
46.213	13.260	1015.190	777.736
47.228	13.204	1014.597	776.949
48.242	13.308	1013.621	776.620
49.257	13.243	1013.268	775.973
50.271	13.395	1011.842	775.528
51.286	13.321	1011.321	774.713
52.301	13.456	1010.370	774.546
53.315	13.310	1009.919	773.451
54.330	13.350	1009.246	773.053
55.344	13.269	1008.054	771.695
56.359	13.282	1006.854	770.769
57.374	13.359	1006.138	770.511
58.388	13.287	1005.347	769.504
59.403	13.233	1005.165	769.042
60.417	13.199	1003.833	767.798
61.432	13.262	1003.424	767.708
62.447	13.144	1002.815	766.628
63.461	13.174	1002.015	766.087
64.476	13.120	1000.821	764.859
65.490	13.156	999.875	764.232
66.505	13.118	999.060	763.369
67.520	13.063	998.482	762.605
68.534	13.105	998.166	762.487
69.549	13.262	996.809	762.109
70.563	13.114	996.075	760.800
71.578	13.263	995.310	760.831
72.593	13.152	994.730	759.811
73.607	13.130	993.315	758.561
74.622	13.026	992.838	757.655
75.636	13.195	991.757	757.537
76.651	13.071	991.576	756.764
77.666	13.241	990.105	756.350
78.680	13.124	989.528	755.307
79.695	13.172	988.899	754.980
80.709	13.193	988.229	754.496
81.724	13.168	987.688	753.905
82.739	13.285	986.729	753.640
83.753	13.225	986.198	752.891
84.768	13.299	984.928	752.195
85.782	13.303	984.743	752.002
86.797	13.539	983.863	752.335
87.812	13.477	983.222	751.498
88.826	13.368	982.635	750.490
89.841	13.436	981.156	749.601
90.855	13.470	980.452	749.150
91.870	13.404	980.057	748.486
92.884	13.558	978.961	748.276
93.899	13.480	978.765	747.708
94.914	13.433	977.859	746.739
95.928	13.632	976.958	746.883
96.943	13.631	975.889	745.991
97.957	13.457	975.867	745.127
98.972	13.478	974.536	744.141
99.987	13.480	973.867	743.571
101.001	13.483	973.423	743.179
102.016	13.308	972.606	741.708
103.030	13.363	971.696	741.192
104.045	13.392	970.454	740.312
105.060	13.460	969.460	739.792
106.074	13.515	969.106	739.699
107.089	13.377	967.829	738.045
108.103	13.264	967.005	736.850
109.118	13.307	965.452	735.790
110.133	13.227	965.102	735.104
111.147	13.169	964.230	734.117
112.162	13.307	963.382	734.018
113.176	13.301	962.119	732.966
114.191	13.374	961.756	732.944
115.206	13.338	960.771	731.972
116.220	13.270	960.087	731.085
117.235	13.305	959.393	730.646
118.249	13.253	958.822	729.919
119.264	13.269	957.330	728.787
120.279	13.288	956.702	728.328
121.293	13.049	956.512	727.065
122.308	13.340	955.053	727.171
123.322	13.289	954.850	726.728
124.337	13.360	953.343	725.829
125.352	13.163	952.445	724.216
126.366	13.209	951.408	723.568
127.381	13.213	950.329	722.702
128.395	13.266	949.066	721.906
129.410	13.194	948.636	721.204
130.424	13.343	947.533	720.951
131.439	13.327	946.835	720.284
132.454	13.322	946.043	719.598
133.468	13.437	945.383	719.530
134.483	13.415	944.554	718.740
135.497	13.333	944.119	717.991
136.512	13.384	943.104	717.377
137.527	13.394	942.271	716.723
138.541	13.431	941.601	716.309
139.556	13.390	941.173	715.741
140.570	13.460	940.219	715.255
141.585	13.527	939.876	715.224
142.600	13.480	939.305	714.523
143.614	13.460	938.262	713.579
144.629	13.563	937.434	713.331
145.643	13.465	937.130	712.613
146.658	13.538	935.915	711.939
147.673	13.583	934.767	711.196
148.687	13.517	933.874	710.170
149.702	13.457	933.350	709.454
150.716	13.470	932.204	708.575
151.731	13.308	931.520	707.297
152.746	13.439	931.039	707.431
153.760	13.300	930.659	706.486
154.775	13.430	929.434	706.047
155.789	13.574	928.496	705.886
156.804	13.549	928.048	705.377
157.819	13.501	927.180	704.453
158.833	13.655	926.156	704.267
159.848	13.658	925.858	703.989
160.862	13.702	925.256	703.657
161.877	13.774	924.129	703.039
162.892	13.458	923.271	700.988
163.906	13.502	922.943	700.865
164.921	13.512	921.937	700.080
165.935	13.504	921.133	699.375
166.950	13.576	919.739	698.556
167.964	13.587	919.025	698.001
168.979	13.672	918.442	697.853
169.994	13.559	917.618	696.689
171.008	13.575	916.176	695.603
172.023	13.506	916.196	695.266
173.037	13.650	914.877	694.804
174.052	13.742	914.387	694.756
175.067	13.669	913.916	694.032
176.081	13.557	912.889	692.721
177.096	13.479	912.248	691.848
178.110	13.701	910.939	691.720
179.125	13.716	910.633	691.492
180.140	13.605	909.712	690.269
181.154	13.639	909.317	690.046
182.169	13.680	908.827	689.786
183.183	13.760	908.177	689.564
184.198	13.827	907.262	689.086
185.213	13.773	906.657	688.342
186.227	13.880	906.136	688.328
187.242	13.732	906.225	687.721
188.256	13.896	905.135	687.512
189.271	13.957	904.195	686.992
190.286	13.795	903.900	686.035
191.300	13.712	902.956	684.915
192.315	13.551	902.438	683.798
193.329	13.595	901.495	683.204
194.344	13.581	900.775	682.540
195.359	13.612	900.478	682.382
196.373	13.661	900.025	682.180
197.388	13.878	899.577	682.673
198.402	13.919	898.896	682.265
199.417	13.951	898.427	681.981
200.432	14.102	898.113	682.300
201.446	14.100	897.553	681.809
202.461	14.128	897.222	681.608
203.475	14.172	896.261	680.998
204.490	14.282	895.639	680.916
205.504	14.178	894.786	679.784
206.519	13.899	894.404	678.290
207.534	13.995	893.512	677.949
208.548	14.009	892.680	677.313
209.563	14.124	891.962	677.178
210.577	14.031	891.430	676.335
211.592	14.120	890.505	675.934
212.607	14.073	890.469	675.658
213.621	14.310	889.611	675.910
214.636	14.258	888.783	675.008
215.650	14.279	888.148	674.550
216.665	14.268	887.808	674.190
217.680	14.383	887.602	674.439
218.694	14.364	887.012	673.856
219.709	14.384	886.281	673.321
220.723	14.386	885.821	672.920
221.738	14.379	884.826	672.077
222.753	14.268	884.438	671.273
223.767	14.335	883.850	671.038
224.782	14.353	882.927	670.349
225.796	14.472	881.875	669.971
226.811	14.409	881.625	669.468
227.826	14.502	880.916	669.242
228.840	14.421	880.099	668.239
229.855	14.397	879.595	667.703
230.869	14.322	878.997	666.886
231.884	14.369	878.081	666.324
232.899	14.279	877.653	665.577
233.913	14.342	877.140	665.381
234.928	14.276	876.668	664.700
235.942	14.368	875.707	664.282
236.957	14.262	875.084	663.327
237.972	14.286	874.444	662.878
238.986	14.424	873.510	662.660
240.001	14.434	872.905	662.181
241.015	14.368	872.580	661.618
242.030	14.505	871.633	661.382
243.045	14.338	871.484	660.549
244.059	14.579	870.630	660.798
245.074	14.439	870.009	659.716
246.088	14.368	869.313	658.849
247.103	14.536	868.979	659.199
248.117	14.677	867.847	658.838
249.132	14.652	867.638	658.525
250.147	14.729	866.841	658.161
251.161	14.861	866.306	658.220
252.176	14.896	865.876	657.972
253.190	14.897	864.998	657.249
254.205	14.899	864.706	656.977
255.220	14.954	863.862	656.496
256.234	14.972	863.528	656.254
257.249	14.906	862.837	655.410
258.263	14.938	862.245	655.029
259.278	14.835	861.751	654.191
260.293	14.928	861.302	654.158
261.307	15.013	860.376	653.728
262.322	15.164	859.858	653.865
263.336	15.174	859.205	653.351
264.351	15.286	858.433	653.143
265.366	15.230	857.926	652.482
266.380	15.079	857.804	651.743
267.395	15.298	856.584	651.608
268.409	15.176	856.001	650.634
269.424	15.150	855.166	649.840
270.439	15.211	854.297	649.361
271.453	15.114	853.701	648.475
272.468	15.102	853.278	648.047
273.482	15.001	852.837	647.267
274.497	15.173	852.251	647.430
275.512	15.017	851.237	646.000
276.526	15.189	850.064	645.715
277.541	15.141	849.783	645.261
278.555	15.134	849.438	644.912
279.570	15.158	848.962	644.587
280.585	15.287	848.642	644.782
281.599	15.292	847.975	644.239
282.614	15.386	846.824	643.666
283.628	15.288	846.475	642.970
284.643	15.384	845.800	642.768
285.657	15.208	845.520	641.825
286.672	15.379	845.102	642.103
287.687	15.387	844.406	641.550
288.701	15.305	844.199	641.022
289.716	15.357	843.337	640.511
290.730	15.331	842.920	640.035
291.745	15.303	842.384	639.465
292.760	15.319	841.493	638.794
293.774	15.459	841.034	638.923
294.789	15.484	840.721	638.725
295.803	15.542	840.116	638.427
296.818	15.601	839.097	637.820
297.833	15.497	838.217	636.701
298.847	15.547	837.744	636.474
299.862	15.505	837.034	635.720
300.876	15.424	836.719	635.117
301.891	15.567	836.263	635.257
302.906	15.709	835.402	635.084
303.920	15.712	834.788	634.569
304.935	15.726	834.140	634.073
305.949	15.670	834.004	633.703
306.964	15.805	833.292	633.616
307.979	15.719	832.797	632.860
308.993	15.689	832.278	632.297
310.008	15.875	831.430	632.296
311.022	15.752	831.227	631.624
312.037	15.864	830.841	631.693
313.052	15.751	830.244	630.762
314.066	15.862	829.219	630.342
315.081	15.693	828.867	629.384
316.095	15.711	828.507	629.124
317.110	15.695	827.474	628.226
318.125	15.800	826.930	628.146
319.139	15.711	826.796	627.657
320.154	15.575	826.551	626.908
321.168	15.621	825.782	626.442
322.183	15.765	825.047	626.364
323.197	15.860	824.923	626.569
324.212	15.714	824.630	625.749
325.227	15.919	823.114	625.303
326.241	15.778	823.202	624.792
327.256	15.893	822.511	624.639
328.270	15.797	821.892	623.756
329.285	15.869	821.464	623.645
330.300	15.750	820.839	622.674
331.314	15.841	820.182	622.455
332.329	16.023	819.563	622.605
333.343	15.985	818.941	621.938
334.358	15.724	819.085	621.025
335.373	15.963	818.187	621.174
336.387	16.028	817.783	621.049
337.402	15.993	817.206	620.427
338.416	16.109	816.535	620.290
339.431	16.055	816.317	619.873
340.446	16.256	815.210	619.714
341.460	16.172	814.931	619.139
342.475	16.153	814.367	618.586
343.489	16.294	813.779	618.601
344.504	16.253	813.486	618.173
345.519	16.263	812.984	617.774
346.533	16.392	812.493	617.818
347.548	16.320	812.081	617.185
348.562	16.318	811.591	616.752
349.577	16.332	810.643	616.029
350.592	16.318	809.915	615.368
351.606	16.295	809.757	615.112
352.621	16.190	809.187	614.241
353.635	16.207	808.746	613.915
354.650	16.373	808.297	614.122
355.665	16.320	808.076	613.707
356.679	16.307	807.721	613.339
357.694	16.378	806.941	612.948
358.708	16.270	806.481	612.154
359.723	16.337	806.231	612.151
360.738	16.320	805.830	611.732
361.752	16.325	804.945	611.022
362.767	16.321	804.776	610.825
363.781	16.469	804.262	610.919
364.796	16.545	803.823	610.806
365.810	16.606	803.332	610.598
366.825	16.716	802.910	610.620
367.840	16.779	802.465	610.453
368.854	16.659	802.258	609.809
369.869	16.657	802.020	609.569
370.883	16.649	801.005	608.713
371.898	16.661	800.712	608.480
372.913	16.693	800.045	608.034
373.927	16.679	799.497	607.513
374.942	16.630	798.904	606.836
375.956	16.751	798.042	606.560
376.971	16.755	797.685	606.250
377.986	16.858	797.092	606.114
379.000	16.929	796.697	606.013
380.015	16.965	796.250	605.748
381.029	16.865	795.861	605.040
382.044	16.952	795.023	604.660
383.059	17.010	794.514	604.428
384.073	16.985	794.192	604.039
385.088	16.942	793.451	603.268
386.102	16.904	792.991	602.731
387.117	16.792	792.481	601.893
388.132	16.781	791.745	601.239
389.146	16.899	791.651	601.535
390.161	16.903	791.274	601.210
391.175	16.905	790.956	600.922
392.190	16.994	790.442	600.795
393.205	16.869	790.353	600.231
394.219	16.934	789.125	599.474
395.234	17.068	788.651	599.533
396.248	16.898	788.761	598.963
397.263	16.939	787.783	598.311
398.278	16.919	787.196	597.743
399.292	16.852	787.022	597.324
400.307	16.837	786.805	597.052
401.321	16.828	786.196	596.507
402.336	16.827	785.976	596.281
403.350	17.068	785.564	596.764
404.365	16.992	785.352	596.284
405.380	16.987	784.966	595.919
406.394	17.117	784.410	595.899
407.409	17.148	784.146	595.755
408.423	17.228	783.360	595.386
409.438	17.332	782.655	595.162
410.453	17.267	782.369	594.663
411.467	17.297	782.095	594.508
412.482	17.311	781.692	594.200
413.496	17.409	781.155	594.081
414.511	17.402	781.247	594.072
415.526	17.421	780.470	593.495
416.540	17.414	780.351	593.330
417.555	17.558	779.655	593.248
418.569	17.392	779.200	592.273
419.584	17.344	779.149	592.015
420.599	17.333	778.577	591.489
421.613	103.630	1281.331	1439.424
422.628	88.417	1354.580	1439.552
