DTS Sentinel unit serial number:	SN413079Multiplexer serial number:	ORYXHardware model number:	OX4-SRSoftware version number:	ORYX F/W v4.00 Oryx Data Collector v3.7.2.0data status	okinstallation	princeton_trtdifferential loss correction	single-endedforward channel	channel 3reverse channel	N/Adate	2019/09/11time	00:02:11forward acquisition time	60.00reverse acquisition time	0.00gamma	496.2192k internal	0.2331k external	0.2331temperature offset calibration	0.9924default loss term (dB/km)	0.3790temperature slope calibration	1.0000multiplexer offset coefficient	1.0000multiplexer slope coefficient	1.0000fibre end	0.00T internal ref (°C)	29.44T ext. ref 1 (°C)	-0.32T ext. ref 2 (°C)	23.06length (m)	temperature (°C)	Stokes	anti-Stokes-747.200	159.764	-0.145	0.203
-746.185	800.000	0.033	0.124
-745.171	-79.809	-0.088	-0.030
-744.156	102.182	0.123	0.145
-743.142	-200.000	-0.062	0.438
-742.127	-200.000	0.004	0.432
-741.112	581.253	-0.082	-0.202
-740.098	-178.723	-0.351	-0.008
-739.083	-16.467	-0.046	-0.030
-738.069	-165.041	-0.247	0.011
-737.054	462.376	-0.118	-0.265
-736.039	800.000	-0.048	-0.160
-735.025	-193.737	-0.099	0.001
-734.010	-137.763	-0.273	0.031
-732.996	710.542	0.074	0.197
-731.981	800.000	-0.056	-0.158
-730.966	95.012	0.194	-0.222
-729.952	-200.000	0.104	0.490
-728.937	200.273	-0.103	-0.158
-727.923	52.579	-0.329	-0.316
-726.908	-200.000	-0.285	-0.001
-725.894	13.143	-0.148	-0.116
-724.879	278.049	0.058	-0.104
-723.864	-62.507	-0.070	0.029
-722.850	5.081	0.057	0.042
-721.835	-44.272	0.450	0.227
-720.821	-200.000	0.023	0.329
-719.806	7.200	-0.266	0.199
-718.791	-26.971	0.195	0.114
-717.777	380.304	-0.062	0.128
-716.762	-14.644	0.345	-0.223
-715.748	-90.443	-0.192	-0.056
-714.733	75.603	0.094	0.100
-713.718	-169.278	-0.186	0.007
-712.704	800.000	0.041	-0.156
-711.689	-24.132	-0.090	0.054
-710.675	398.605	-0.026	-0.055
-709.660	326.833	0.167	-0.322
-708.645	538.711	-0.073	0.175
-707.631	-175.127	-0.465	-0.013
-706.616	93.416	-0.229	0.261
-705.602	-134.701	-0.254	0.031
-704.587	-188.516	-0.162	0.002
-703.572	30.809	-0.293	-0.252
-702.558	-6.698	0.157	-0.107
-701.543	-169.033	-0.081	-0.003
-700.529	-67.799	0.022	-0.009
-699.514	204.515	-0.117	0.183
-698.499	468.369	0.111	0.251
-697.485	238.438	-0.084	-0.140
-696.470	-43.768	-0.027	-0.014
-695.456	800.000	0.116	-0.434
-694.441	-200.000	-0.014	0.080
-693.426	115.866	-0.101	0.125
-692.412	146.994	-0.091	0.123
-691.397	-115.490	0.154	0.029
-690.383	214.265	0.090	-0.143
-689.368	344.259	-0.067	-0.131
-688.354	115.588	0.128	-0.157
-687.339	55.412	-0.134	-0.130
-686.324	145.341	-0.128	-0.173
-685.310	-66.170	-0.244	-0.098
-684.295	23.384	-0.106	-0.088
-683.281	33.766	0.098	-0.085
-682.266	173.629	0.209	-0.303
-681.251	-48.168	-0.272	-0.132
-680.237	148.569	0.057	0.077
-679.222	800.000	0.019	0.068
-678.208	-53.186	-0.200	-0.092
-677.193	-15.222	0.168	-0.108
-676.178	-104.723	-0.215	0.050
-675.164	10.932	-0.128	-0.098
-674.149	198.687	0.134	-0.205
-673.135	-200.000	0.015	0.236
-672.120	-200.000	-0.007	-0.157
-671.105	173.768	-0.143	-0.207
-670.091	-200.000	-0.019	0.121
-669.076	800.000	-0.059	-0.181
-668.062	-200.000	0.040	-0.413
-667.047	165.648	0.271	-0.384
-666.032	570.146	-0.073	-0.179
-665.018	5.295	0.110	-0.081
-664.003	-11.438	-0.142	-0.094
-662.989	-200.000	-0.004	0.096
-661.974	-72.912	0.186	-0.069
-660.959	-200.000	0.042	0.233
-659.945	-200.000	-0.039	-0.175
-658.930	394.249	-0.105	-0.220
-657.916	-200.000	0.028	-0.139
-656.901	-41.550	-0.150	-0.077
-655.886	641.756	-0.082	-0.209
-654.872	155.526	0.128	-0.177
-653.857	-32.216	0.287	0.161
-652.843	25.802	-0.185	-0.155
-651.828	-168.933	0.168	0.006
-650.814	-200.000	0.016	0.159
-649.799	800.000	-0.030	0.103
-648.784	-0.759	0.072	0.051
-647.770	-200.000	-0.027	0.119
-646.755	570.051	-0.052	-0.127
-645.741	-117.122	-0.075	0.014
-644.726	83.916	-0.128	-0.140
-643.711	-200.000	0.077	-0.340
-642.697	109.390	0.101	0.121
-641.682	-75.551	0.219	0.078
-640.668	800.000	0.042	0.127
-639.653	217.218	0.053	0.085
-638.638	800.000	-0.066	-0.209
-637.624	20.990	0.088	0.071
-636.609	800.000	0.024	0.069
-635.595	516.227	0.087	0.203
-634.580	-200.000	0.054	0.314
-633.565	800.000	0.051	0.155
-632.551	41.571	0.202	-0.184
-631.536	-52.138	0.415	0.193
-630.522	-131.078	-0.058	0.008
-629.507	-200.000	0.025	-0.254
-628.492	-19.441	0.201	-0.125
-627.478	401.025	0.098	0.206
-626.463	-140.715	-0.310	0.032
-625.449	-200.000	-0.025	0.243
-624.434	-75.371	-0.055	-0.019
-623.419	-64.334	-0.030	-0.012
-622.405	-130.091	0.061	0.008
-621.390	-200.000	0.007	0.035
-620.376	123.179	0.188	0.236
-619.361	-100.644	0.107	-0.026
-618.346	-148.232	-0.252	0.021
-617.332	-150.603	-0.102	0.008
-616.317	446.900	-0.047	-0.104
-615.303	374.741	0.084	-0.170
-614.288	91.323	-0.105	-0.119
-613.273	800.000	-0.066	-0.182
-612.259	53.090	-0.105	0.101
-611.244	-200.000	-0.065	0.516
-610.230	-200.000	-0.017	0.116
-609.215	-200.000	-0.095	-0.611
-608.201	32.627	-0.158	-0.137
-607.186	1.359	0.240	0.173
-606.171	-125.235	0.322	0.049
-605.157	-200.000	-0.002	0.023
-604.142	-200.000	0.005	0.067
-603.128	60.479	-0.193	0.191
-602.113	404.172	0.147	0.310
-601.098	-189.507	-0.310	-0.004
-600.084	303.470	-0.108	-0.199
-599.069	-200.000	-0.012	-0.220
-598.055	-166.093	-0.326	0.014
-597.040	-107.324	-0.129	0.028
-596.025	65.367	0.139	-0.141
-595.011	-82.931	0.297	-0.096
-593.996	201.023	0.041	-0.063
-592.982	-65.471	0.354	-0.142
-591.967	-200.000	0.035	-0.294
-590.952	-131.847	0.157	-0.021
-589.938	-135.364	-0.178	-0.021
-588.923	266.203	0.040	0.070
-587.909	-26.802	0.273	-0.160
-586.894	800.000	0.083	-0.229
-585.879	8.766	0.092	0.070
-584.865	-110.788	-0.204	0.042
-583.850	800.000	0.024	0.082
-582.836	268.066	0.119	0.209
-581.821	211.571	0.306	-0.482
-580.806	-200.000	0.063	0.370
-579.792	-200.000	0.024	-0.426
-578.777	55.359	0.185	0.179
-577.763	265.113	0.096	-0.167
-576.748	-200.000	-0.031	-0.191
-575.733	800.000	-0.082	0.315
-574.719	257.760	0.192	-0.330
-573.704	-56.371	-0.121	-0.054
-572.690	800.000	-0.025	-0.101
-571.675	0.832	0.132	0.095
-570.661	-200.000	0.033	-0.215
-569.646	72.186	-0.314	-0.327
-568.631	50.166	0.016	-0.015
-567.617	85.949	-0.124	-0.137
-566.602	-105.181	-0.162	-0.037
-565.588	-91.621	-0.215	0.061
-564.573	1.510	-0.044	-0.032
-563.558	179.299	-0.110	-0.161
-562.544	800.000	-0.057	0.232
-561.529	-200.000	-0.049	-0.224
-560.515	21.804	-0.356	-0.290
-559.500	-200.000	-0.004	0.024
-558.485	563.367	0.099	0.239
-557.471	-120.059	0.362	-0.062
-556.456	-20.916	0.248	0.152
-555.442	40.663	-0.264	0.238
-554.427	-181.118	0.129	-0.003
-553.412	-113.195	-0.136	-0.027
-552.398	207.298	-0.203	0.316
-551.383	137.983	0.191	0.250
-550.369	-99.804	-0.170	-0.042
-549.354	-79.720	0.140	0.047
-548.339	-200.000	0.024	0.194
-547.325	-30.930	-0.249	0.141
-546.310	145.098	-0.079	0.105
-545.296	-200.000	-0.034	-0.277
-544.281	-13.929	0.389	0.251
-543.266	8.013	-0.058	0.044
-542.252	800.000	-0.034	0.108
-541.237	332.602	-0.079	0.153
-540.223	800.000	0.017	0.060
-539.208	-12.702	-0.085	0.055
-538.193	800.000	0.067	0.195
-537.179	33.844	-0.253	0.220
-536.164	-117.964	-0.085	0.015
-535.150	788.334	0.051	-0.140
-534.135	-200.000	-0.041	-0.245
-533.121	41.807	0.223	0.202
-532.106	-200.000	0.007	0.077
-531.091	575.958	-0.035	-0.085
-530.077	14.797	-0.186	0.145
-529.062	759.111	0.147	-0.399
-528.048	57.135	-0.184	-0.179
-527.033	-109.841	-0.104	0.022
-526.018	-146.952	0.326	-0.028
-525.004	-160.700	0.231	0.012
-523.989	67.343	-0.073	-0.074
-522.975	-200.000	0.035	-0.287
-521.960	-80.762	-0.119	0.039
-520.945	-200.000	0.032	0.140
-519.931	132.135	0.039	0.050
-518.916	1.738	-0.168	0.121
-517.902	800.000	0.118	-0.371
-516.887	-132.359	0.618	0.080
-515.872	195.859	0.060	0.091
-514.858	800.000	-0.040	0.172
-513.843	-200.000	-0.041	0.304
-512.829	800.000	-0.019	0.066
-511.814	800.000	-0.025	0.097
-510.799	-200.000	0.004	-0.023
-509.785	54.409	-0.191	0.183
-508.770	3.391	0.035	-0.025
-507.756	800.000	0.085	-0.344
-506.741	774.515	0.050	0.135
-505.726	-200.000	-0.022	0.351
-504.712	-200.000	0.011	0.242
-503.697	-4.747	0.052	-0.036
-502.683	292.646	0.102	0.186
-501.668	150.745	0.229	-0.310
-500.653	175.883	0.202	-0.293
-499.639	-35.583	0.025	0.014
-498.624	-200.000	-0.059	-0.258
-497.610	-113.639	-0.122	0.024
-496.595	-200.000	0.004	-0.134
-495.581	-24.798	0.204	0.121
-494.566	-28.736	-0.241	-0.138
-493.551	-148.768	-0.056	0.005
-492.537	-73.413	-0.156	0.057
-491.522	497.260	0.030	0.068
-490.508	176.940	0.180	-0.261
-489.493	228.731	-0.054	0.088
-488.478	-41.480	0.251	-0.129
-487.464	-8.760	-0.064	-0.042
-486.449	-165.365	0.249	-0.011
-485.435	-200.000	0.007	-0.322
-484.420	800.000	0.091	0.283
-483.405	-168.025	0.066	-0.003
-482.391	-60.111	0.133	0.057
-481.376	-64.484	-0.457	0.185
-480.362	-127.077	0.186	0.027
-479.347	31.255	0.167	-0.143
-478.332	-175.437	-0.140	0.004
-477.318	-200.000	0.005	-0.083
-476.303	115.389	-0.226	-0.275
-475.289	-44.481	0.328	0.164
-474.274	-71.135	0.165	-0.062
-473.259	-177.588	-0.075	-0.002
-472.245	-94.767	0.144	0.039
-471.230	-88.382	-0.364	-0.108
-470.216	-200.000	-0.018	0.276
-469.201	-22.732	-0.136	-0.082
-468.186	-200.000	-0.005	-0.029
-467.172	800.000	0.026	0.090
-466.157	-0.380	-0.235	0.166
-465.143	-62.015	-0.143	0.059
-464.128	311.095	-0.082	-0.153
-463.113	-7.860	0.096	-0.064
-462.099	69.771	0.162	-0.166
-461.084	-200.000	-0.068	0.440
-460.070	-97.434	-0.081	0.021
-459.055	195.142	-0.113	-0.171
-458.040	214.198	0.094	0.148
-457.026	-50.528	0.200	-0.094
-456.011	270.571	0.162	0.283
-454.997	592.285	0.128	-0.314
-453.982	800.000	-0.022	0.067
-452.968	800.000	-0.039	0.160
-451.953	358.640	-0.076	0.151
-450.938	-98.969	0.135	-0.034
-449.924	-200.000	0.028	0.201
-448.909	210.044	-0.068	-0.107
-447.895	-200.000	0.013	-0.270
-446.880	-63.987	0.297	0.121
-445.865	-31.349	-0.276	-0.155
-444.851	-4.265	0.173	-0.119
-443.836	800.000	-0.093	0.311
-442.822	-110.947	-0.377	0.077
-441.807	-97.068	-0.179	0.047
-440.792	-14.450	-0.082	-0.052
-439.778	623.937	-0.159	-0.399
-438.763	54.568	-0.208	-0.199
-437.749	-143.449	-0.343	-0.033
-436.734	-170.342	-0.143	0.005
-435.719	6.038	-0.428	0.315
-434.705	95.713	-0.151	0.171
-433.690	602.979	-0.103	-0.254
-432.676	-14.554	-0.278	0.178
-431.661	22.715	0.116	0.094
-430.646	116.798	-0.113	-0.138
-429.632	-35.726	-0.188	0.101
-428.617	-200.000	0.028	-0.144
-427.603	-193.764	0.307	-0.003
-426.588	-200.000	0.007	-0.164
-425.573	79.660	-0.159	0.169
-424.559	800.000	-0.028	-0.103
-423.544	-200.000	0.012	-0.156
-422.530	-200.000	0.016	-0.236
-421.515	331.132	0.044	0.085
-420.500	31.817	-0.224	0.191
-419.486	-200.000	0.025	-0.334
-418.471	310.111	0.204	-0.380
-417.457	342.883	-0.120	0.234
-416.442	389.339	0.075	-0.154
-415.428	-200.000	0.012	-0.309
-414.413	-200.000	-0.042	-0.295
-413.398	-85.492	0.078	0.024
-412.384	-11.363	-0.140	0.091
-411.369	-122.107	0.234	-0.038
-410.355	-9.821	0.332	0.220
-409.340	19.757	0.097	0.077
-408.325	120.063	0.070	-0.087
-407.311	114.292	-0.059	-0.072
-406.296	-83.067	-0.009	0.003
-405.282	-200.000	-0.019	0.403
-404.267	617.300	0.048	0.121
-403.252	-192.624	-0.136	-0.001
-402.238	141.090	0.272	0.357
-401.223	-68.830	-0.106	0.041
-400.209	-154.828	0.139	0.009
-399.194	-46.116	-0.284	-0.139
-398.179	-27.001	-0.011	-0.007
-397.165	800.000	-0.104	0.298
-396.150	-83.410	0.217	-0.069
-395.136	800.000	-0.091	-0.266
-394.121	800.000	-0.048	0.133
-393.106	-106.346	-0.049	0.011
-392.092	87.936	-0.059	-0.065
-391.077	-125.596	-0.070	-0.011
-390.063	-105.463	0.055	-0.012
-389.048	-22.031	0.097	0.058
-388.033	-37.035	-0.233	-0.124
-387.019	-47.657	0.229	-0.110
-386.004	-200.000	0.020	0.183
-384.990	-200.000	-0.009	0.124
-383.975	-77.930	-0.164	0.056
-382.960	-64.314	0.393	-0.159
-381.946	544.824	0.086	0.203
-380.931	205.282	-0.230	-0.355
-379.917	-155.553	0.110	-0.007
-378.902	43.501	-0.062	-0.056
-377.888	444.546	-0.070	-0.152
-376.873	-129.521	0.339	0.047
-375.858	143.407	-0.124	0.164
-374.844	-183.943	0.341	-0.006
-373.829	186.480	-0.280	-0.413
-372.815	800.000	-0.057	-0.191
-371.800	-200.000	-0.110	0.000
-370.785	-42.622	0.337	0.170
-369.771	-49.208	-0.341	0.162
-368.756	-154.675	0.328	0.022
-367.742	9.543	0.118	0.089
-366.727	-200.000	-0.031	-0.225
-365.712	51.767	0.314	0.296
-364.698	-200.000	-0.019	0.160
-363.683	-166.140	0.188	-0.008
-362.669	9.485	0.036	-0.027
-361.654	-122.186	-0.076	0.012
-360.639	420.967	-0.010	-0.021
-359.625	425.258	0.040	-0.086
-358.610	-200.000	-0.045	-0.200
-357.596	-89.613	-0.180	-0.052
-356.581	-200.000	0.021	0.141
-355.566	33.632	-0.202	-0.174
-354.552	800.000	-0.020	-0.071
-353.537	714.769	-0.040	-0.104
-352.523	159.228	-0.240	0.331
-351.508	-96.750	0.167	-0.044
-350.493	-200.000	-0.000	0.046
-349.479	5.135	-0.209	-0.152
-348.464	800.000	-0.037	-0.145
-347.450	169.521	-0.086	0.121
-346.435	-138.961	-0.257	0.028
-345.420	-43.942	0.196	-0.098
-344.406	-200.000	-0.000	-0.108
-343.391	-184.596	-0.179	-0.003
-342.377	312.070	0.080	0.149
-341.362	-96.903	-0.311	-0.081
-340.348	121.031	-0.307	0.378
-339.333	-200.000	0.022	0.182
-338.318	159.640	0.209	0.289
-337.304	154.979	0.111	-0.152
-336.289	229.820	-0.066	-0.107
-335.275	-200.000	0.002	-0.189
-334.260	134.529	-0.177	0.227
-333.245	-113.218	0.089	0.017
-332.231	-200.000	0.024	-0.197
-331.216	-135.622	0.085	0.010
-330.202	-148.254	-0.317	0.026
-329.187	206.226	0.170	0.262
-328.172	-17.913	-0.294	0.182
-327.158	233.692	-0.272	-0.443
-326.143	-94.208	-0.291	-0.079
-325.129	261.162	-0.110	0.188
-324.114	-99.661	-0.568	-0.141
-323.099	-165.244	-0.110	-0.005
-322.085	-184.150	-0.069	0.001
-321.070	-85.805	0.210	0.064
-320.056	-116.481	-0.125	0.023
-319.041	330.678	-0.039	0.074
-318.026	161.407	0.299	0.414
-317.012	-200.000	-0.017	0.234
-315.997	-200.000	0.011	-0.224
-314.983	-200.000	-0.033	0.317
-313.968	15.430	0.200	0.156
-312.953	-19.843	-0.206	0.126
-311.939	334.033	0.020	-0.039
-310.924	-24.405	-0.317	-0.187
-309.910	-110.378	0.026	-0.005
-308.895	24.776	-0.035	0.029
-307.880	181.290	-0.126	-0.183
-306.866	-117.853	-0.284	-0.050
-305.851	-200.000	0.018	-0.203
-304.837	311.886	0.109	0.203
-303.822	-200.000	-0.069	-0.330
-302.807	-49.545	0.026	0.012
-301.793	415.024	0.102	0.215
-300.778	-200.000	-0.002	-0.112
-299.764	62.271	0.270	-0.266
-298.749	800.000	-0.056	-0.218
-297.735	-57.265	-0.311	0.136
-296.720	800.000	-0.093	-0.391
-295.705	46.447	-0.116	-0.106
-294.691	-200.000	-0.019	0.085
-293.676	-200.000	0.054	0.242
-292.662	246.093	-0.036	0.060
-291.647	800.000	0.058	0.175
-290.632	-141.154	0.292	0.029
-289.618	82.914	0.311	-0.335
-288.603	-110.090	-0.305	-0.063
-287.589	6.895	0.359	-0.265
-286.574	-9.414	0.204	0.135
-285.559	-64.764	-0.095	0.038
-284.545	-7.007	0.165	-0.111
-283.530	108.476	0.109	-0.129
-282.516	29.174	0.337	-0.283
-281.501	-78.619	-0.262	0.089
-280.486	532.768	0.129	-0.301
-279.472	-82.587	0.210	0.067
-278.457	-152.842	-0.188	0.013
-277.443	130.140	0.063	-0.080
-276.428	-200.000	-0.046	-0.327
-275.413	-200.000	-0.033	0.217
-274.399	-48.294	0.343	0.163
-273.384	747.368	0.029	-0.078
-272.370	176.796	0.145	-0.209
-271.355	-68.259	0.105	0.040
-270.340	-133.152	-0.126	-0.016
-269.326	-200.000	-0.051	0.424
-268.311	505.383	-0.010	-0.024
-267.297	-157.346	-0.293	0.017
-266.282	-88.167	0.353	0.104
-265.267	800.000	-0.087	-0.284
-264.253	81.316	-0.168	0.179
-263.238	-121.662	-0.068	-0.011
-262.224	645.864	0.134	-0.339
-261.209	148.379	-0.131	0.175
-260.195	-200.000	-0.061	0.276
-259.180	-15.032	0.283	0.179
-258.165	-84.514	-0.086	0.027
-257.151	-43.778	0.193	-0.096
-256.136	-78.844	-0.274	0.092
-255.122	-154.851	-0.397	-0.026
-254.107	-10.307	-0.159	-0.104
-253.092	123.309	0.074	0.092
-252.078	413.961	-0.083	0.175
-251.063	358.011	0.148	-0.292
-250.049	-142.532	0.220	0.021
-249.034	-110.667	0.333	-0.068
-248.019	-49.340	0.228	0.107
-247.005	800.000	0.072	-0.222
-245.990	-77.452	-0.046	0.016
-244.976	-115.001	-0.122	-0.023
-243.961	154.730	-0.215	0.292
-242.946	17.298	0.162	0.127
-241.932	-145.809	0.043	-0.004
-240.917	-35.404	-0.279	0.149
-239.903	800.000	0.035	0.108
-238.888	-155.942	0.013	-0.001
-237.873	167.848	-0.227	0.319
-236.859	-45.570	-0.098	-0.048
-235.844	-83.608	-0.229	-0.072
-234.830	744.725	0.144	0.381
-233.815	20.055	0.139	0.111
-232.800	-31.317	-0.110	0.061
-231.786	-153.950	-0.295	0.020
-230.771	2.267	0.357	-0.254
-229.757	386.464	-0.179	-0.365
-228.742	-200.000	-0.037	0.178
-227.727	332.820	0.159	0.302
-226.713	800.000	-0.129	0.427
-225.698	62.746	-0.120	-0.119
-224.684	-200.000	-0.021	0.184
-223.669	-118.089	0.266	-0.047
-222.655	-200.000	0.020	-0.360
-221.640	137.054	0.137	-0.177
-220.625	-200.000	0.016	-0.137
-219.611	-119.835	-0.244	-0.041
-218.596	-35.195	-0.121	-0.065
-217.582	-82.522	-0.258	0.083
-216.567	84.711	0.055	-0.059
-215.552	-200.000	-0.035	-0.245
-214.538	-103.896	-0.259	-0.060
-213.523	-200.000	-0.020	0.384
-212.509	800.000	-0.076	0.319
-211.494	273.416	0.115	-0.201
-210.479	454.122	0.063	0.138
-209.465	82.760	-0.237	0.253
-208.450	800.000	-0.023	0.082
-207.436	-200.000	0.033	-0.446
-206.421	-63.762	0.056	-0.023
-205.406	65.952	0.175	0.174
-204.392	-8.974	-0.151	-0.099
-203.377	-16.731	-0.296	0.184
-202.363	55.761	-0.226	-0.215
-201.348	-92.886	0.250	0.069
-200.333	-26.405	0.133	-0.077
-199.319	111.008	-0.222	0.263
-198.304	603.964	0.069	-0.169
-197.290	16.784	0.153	-0.120
-196.275	565.782	-0.103	0.247
-195.260	-136.546	-0.133	-0.015
-194.246	-51.821	-0.124	-0.057
-193.231	-138.261	0.251	0.027
-192.217	33.168	0.355	0.303
-191.202	800.000	0.082	-0.315
-190.187	-200.000	-0.028	0.164
-189.173	29.410	-0.122	0.102
-188.158	184.843	-0.110	-0.161
-187.144	-11.337	0.205	-0.133
-186.129	-62.171	0.073	0.030
-185.114	-200.000	0.040	0.223
-184.100	797.136	0.069	-0.188
-183.085	-127.429	0.074	0.011
-182.071	342.614	-0.184	-0.354
-181.056	800.000	0.044	-0.167
-180.042	84.701	0.232	0.250
-179.027	-7.799	0.124	-0.083
-178.012	-152.200	0.111	-0.008
-176.998	569.284	0.155	-0.371
-175.983	64.905	0.219	0.217
-174.969	-94.965	0.045	-0.012
-173.954	800.000	-0.057	-0.246
-172.939	182.962	0.195	0.283
-171.925	7.673	0.215	0.158
-170.910	146.531	-0.170	-0.225
-169.896	-81.299	-0.295	0.096
-168.881	-44.720	0.201	0.099
-167.866	-53.508	-0.187	0.084
-166.852	-200.000	0.019	0.134
-165.837	-4.802	0.401	0.272
-164.823	-81.010	0.429	-0.140
-163.808	-188.916	0.394	0.005
-162.793	168.581	-0.113	-0.158
-161.779	437.124	0.148	0.317
-160.764	-40.687	0.062	-0.031
-159.750	141.303	0.085	-0.111
-158.735	138.049	-0.151	0.195
-157.720	51.112	-0.140	-0.131
-156.706	-167.845	-0.110	0.004
-155.691	461.737	0.130	0.285
-154.677	-27.859	-0.059	0.034
-153.662	-20.329	-0.056	-0.034
-152.647	-200.000	0.013	-0.331
-151.633	800.000	-0.088	-0.345
-150.618	-80.444	-0.033	0.011
-149.604	800.000	0.062	-0.222
-148.589	438.915	-0.076	-0.162
-147.574	685.668	0.067	-0.172
-146.560	-200.000	0.144	-0.000
-145.545	-68.462	0.317	0.121
-144.531	-79.571	-0.115	0.038
-143.516	-200.000	0.018	0.198
-142.502	-157.252	0.175	-0.010
-141.487	-86.904	-0.478	-0.143
-140.472	800.000	0.040	-0.120
-139.458	-172.692	0.200	0.006
-138.443	-18.677	0.338	0.207
-137.429	-200.000	-0.011	0.126
-136.414	-200.000	-0.018	-0.216
-135.399	-99.258	0.312	0.078
-134.385	-60.773	0.489	0.203
-133.370	800.000	-0.097	0.301
-132.356	-102.281	0.347	0.082
-131.341	-89.895	0.131	0.037
-130.326	-1.892	-0.085	0.059
-129.312	493.479	-0.074	-0.167
-128.297	800.000	0.049	0.149
-127.283	-88.457	-0.384	0.113
-126.268	-54.802	-0.071	-0.031
-125.253	80.697	0.274	0.290
-124.239	474.032	0.049	0.108
-123.224	132.875	0.186	0.236
-122.210	-50.808	0.246	0.113
-121.195	401.488	-0.054	0.111
-120.180	-85.759	-0.400	0.122
-119.166	-82.367	0.120	0.038
-118.151	-165.658	0.257	0.011
-117.137	-61.411	0.148	-0.061
-116.122	-200.000	-0.010	-0.083
-115.107	-200.000	0.014	0.182
-114.093	300.448	-0.117	0.211
-113.078	106.481	-0.098	0.114
-112.064	59.975	-0.226	0.219
-111.049	-200.000	0.032	-0.218
-110.034	90.367	-0.064	0.070
-109.020	-42.139	0.306	0.154
-108.005	-163.517	0.227	-0.011
-106.991	-47.834	-0.280	0.133
-105.976	-200.000	-0.027	-0.193
-104.962	364.509	-0.032	0.063
-103.947	567.886	-0.068	-0.162
-102.932	800.000	0.074	0.213
-101.918	429.492	0.104	-0.220
-100.903	319.972	-0.112	0.208
-99.889	800.000	0.035	0.145
-98.874	-200.000	0.001	-0.264
-97.859	728.297	0.049	0.128
-96.845	-200.000	-0.070	0.350
-95.830	-12.845	0.162	0.104
-94.816	-9.782	-0.176	-0.115
-93.801	-200.000	-0.029	0.189
-92.786	66.645	0.237	0.236
-91.772	-146.328	0.272	-0.023
-90.757	344.052	-0.045	0.087
-89.743	193.448	0.045	-0.067
-88.728	100.875	-0.140	-0.160
-87.713	-178.171	0.216	0.005
-86.699	-200.000	0.006	0.097
-85.684	74.872	-0.099	-0.102
-84.670	-200.000	0.031	-0.478
-83.655	-200.000	-0.030	-0.168
-82.640	375.408	-0.069	0.138
-81.626	259.970	-0.041	0.069
-80.611	164.908	-0.111	-0.154
-79.597	-155.919	0.044	0.003
-78.582	-70.615	-0.225	0.083
-77.567	-54.592	0.318	-0.141
-76.553	800.000	0.050	-0.188
-75.538	308.779	-0.110	-0.202
-74.524	756.724	0.066	0.174
-73.509	216.156	0.057	-0.088
-72.494	359.080	-0.071	0.138
-71.480	800.000	0.087	-0.264
-70.465	116.774	0.152	-0.183
-69.451	161.572	0.161	0.221
-68.436	124.702	0.058	0.072
-67.422	-90.943	-0.069	0.019
-66.407	82.757	-0.031	-0.033
-65.392	-83.461	0.169	-0.053
-64.378	-178.194	0.235	0.005
-63.363	800.000	-0.058	-0.208
-62.349	108.839	0.323	0.378
-61.334	39.407	-1.250	-1.097
-60.319	-49.471	0.725	0.338
-59.305	270.955	-0.396	-0.682
-58.290	353.339	0.436	0.848
-57.276	695.789	0.593	1.524
-56.261	-200.000	106.382	623.094
-55.246	525.386	1505.331	3470.706
-54.232	177.310	2695.556	3844.862
-53.217	111.035	2178.262	2569.189
-52.203	40.051	1701.551	1497.553
-51.188	32.618	1513.862	1281.970
-50.173	30.184	1487.160	1243.021
-49.159	51.141	1543.450	1433.863
-48.144	51.375	1559.920	1450.708
-47.130	32.828	1515.393	1284.493
-46.115	29.805	1500.767	1251.626
-45.100	29.610	1497.165	1247.255
-44.086	29.503	1495.128	1244.791
-43.071	29.428	1493.221	1242.648
-42.057	29.379	1491.701	1241.003
-41.042	29.366	1490.629	1239.979
-40.027	29.539	1488.463	1239.286
-39.013	29.369	1487.141	1236.996
-37.998	29.432	1485.894	1236.335
-36.984	29.419	1485.163	1235.589
-35.969	29.323	1483.761	1233.726
-34.954	29.343	1482.208	1232.523
-33.940	29.359	1480.435	1231.104
-32.925	29.468	1478.977	1230.573
-31.911	29.484	1478.131	1229.927
-30.896	29.466	1476.876	1228.716
-29.881	29.543	1475.188	1227.774
-28.867	29.311	1474.877	1225.922
-27.852	29.456	1473.455	1225.652
-26.838	29.480	1471.493	1224.134
-25.823	29.581	1469.847	1223.386
-24.809	29.387	1468.762	1221.147
-23.794	29.521	1466.863	1220.410
-22.779	29.508	1465.881	1219.454
-21.765	29.550	1465.137	1219.068
-20.750	29.630	1463.740	1218.381
-19.736	29.566	1462.679	1217.032
-18.721	29.390	1462.090	1215.334
-17.706	29.562	1460.282	1214.915
-16.692	29.374	1459.438	1212.925
-15.677	29.470	1458.301	1212.564
-14.663	29.386	1457.505	1211.300
-13.648	29.449	1456.358	1210.714
-12.633	29.422	1455.455	1209.738
-11.619	29.333	1454.968	1208.703
-10.604	29.418	1453.636	1208.101
-9.590	29.369	1452.907	1207.131
-8.575	29.461	1451.785	1206.753
-7.560	29.469	1451.047	1206.140
-6.546	29.412	1450.177	1205.000
-5.531	29.388	1449.412	1204.158
-4.517	29.418	1448.270	1203.354
-3.502	29.420	1447.216	1202.449
-2.487	29.325	1446.338	1201.048
-1.473	29.467	1445.192	1200.977
-0.458	29.444	1443.950	1199.747
0.556	27.212	1434.578	1188.346
1.571	24.229	1408.881	1147.782
2.586	20.782	1348.566	1077.259
3.600	19.252	1267.377	1003.412
4.615	18.284	1222.826	962.609
5.629	15.758	1168.180	905.924
6.644	7.633	1084.950	800.516
7.659	0.958	1045.339	738.733
8.673	-0.173	1040.100	729.472
9.688	-0.360	1036.808	726.193
10.702	-0.342	1035.217	725.101
11.717	-0.394	1033.008	723.242
12.731	2.599	1035.684	739.512
13.746	11.240	1048.471	790.643
14.761	18.207	1057.186	831.106
15.775	19.776	1058.694	839.848
16.790	20.165	1057.813	840.964
17.804	19.859	1057.304	838.997
18.819	19.767	1056.283	837.670
19.834	19.824	1055.831	837.511
20.848	19.874	1055.425	837.357
21.863	19.998	1054.937	837.494
22.877	19.959	1054.365	836.780
23.892	19.964	1053.521	836.059
24.907	19.797	1053.135	834.873
25.921	19.786	1052.469	834.220
26.936	19.819	1051.809	833.782
27.950	19.938	1050.161	832.974
28.965	19.923	1049.044	831.943
29.980	19.859	1046.758	829.748
30.994	19.664	1045.908	828.068
32.009	19.844	1045.005	828.142
33.023	19.973	1044.270	828.099
34.038	19.846	1043.258	826.620
35.053	19.722	1042.239	825.146
36.067	19.937	1041.432	825.461
37.082	19.957	1041.106	825.224
38.096	19.917	1040.175	824.221
39.111	20.200	1039.435	824.908
40.126	20.286	1038.211	824.273
41.140	20.127	1037.275	822.703
42.155	19.845	1035.925	820.222
43.169	19.529	1034.705	817.687
44.184	19.564	1033.550	816.867
45.199	19.697	1032.512	816.601
46.213	19.732	1031.156	815.626
47.228	19.572	1030.108	813.967
48.242	19.755	1029.180	814.026
49.257	19.671	1028.834	813.284
50.271	19.725	1028.245	813.001
51.286	19.925	1027.031	812.909
52.301	19.991	1025.998	812.329
53.315	20.022	1025.712	812.177
54.330	19.995	1024.275	810.840
55.344	20.010	1023.871	810.518
56.359	19.887	1022.868	809.076
57.374	19.950	1021.985	808.601
58.388	19.857	1020.881	807.220
59.403	19.731	1020.343	806.138
60.417	19.686	1019.629	805.292
61.432	19.597	1018.596	803.992
62.447	19.629	1018.359	803.884
63.461	19.735	1017.447	803.582
64.476	19.861	1016.671	803.484
65.490	19.707	1016.050	802.209
66.505	19.791	1014.522	801.318
67.520	19.692	1013.544	800.018
68.534	19.893	1012.922	800.387
69.549	19.794	1011.922	799.067
70.563	19.436	1010.609	796.310
71.578	19.362	1010.084	795.481
72.593	19.388	1009.203	794.838
73.607	19.238	1008.075	793.190
74.622	19.389	1006.679	792.715
75.636	19.580	1006.463	793.353
76.651	19.735	1005.559	793.279
77.666	19.478	1004.932	791.538
78.680	19.436	1003.820	790.400
79.695	19.369	1003.297	789.609
80.709	19.622	1002.385	789.979
81.724	19.737	1001.677	789.880
82.739	19.573	1000.998	788.523
83.753	19.631	999.861	787.824
84.768	19.806	999.597	788.343
85.782	20.073	998.968	788.994
86.797	20.158	998.049	788.583
87.812	20.153	997.001	787.664
88.826	19.989	996.198	786.216
89.841	20.064	995.192	785.694
90.855	20.061	994.292	784.898
91.870	20.194	993.157	784.532
92.884	20.104	992.548	783.575
93.899	19.882	991.759	781.881
94.914	19.927	990.675	781.161
95.928	20.132	989.640	781.202
96.943	20.160	988.823	780.610
97.957	19.942	987.497	778.514
98.972	19.682	986.603	776.575
99.987	19.435	985.572	774.583
101.001	19.472	985.268	774.444
102.016	19.737	984.675	775.097
103.030	19.882	983.683	774.896
104.045	19.895	982.172	773.696
105.060	19.624	981.055	771.539
106.074	19.551	979.830	770.180
107.089	19.615	979.035	769.771
108.103	19.836	979.230	770.841
109.118	20.012	977.944	770.547
110.133	19.746	976.790	768.387
111.147	19.737	975.693	767.414
112.162	19.689	974.499	766.194
113.176	19.444	973.489	764.247
114.191	19.564	972.764	764.141
115.206	19.766	971.714	764.141
116.220	19.403	970.389	761.433
117.235	19.290	969.670	760.302
118.249	19.393	968.946	760.120
119.264	19.359	968.041	759.191
120.279	19.463	966.832	758.635
121.293	19.451	966.040	757.895
122.308	19.406	965.750	757.400
123.322	19.543	964.659	757.080
124.337	19.450	963.629	755.800
125.352	19.442	962.271	754.631
126.366	19.084	960.435	751.562
127.381	18.726	959.081	748.874
128.395	19.286	958.639	750.902
129.410	19.721	958.665	752.753
130.424	19.937	958.021	753.118
131.439	19.976	957.003	752.420
132.454	20.033	955.440	751.375
133.468	19.781	954.993	749.861
134.483	19.870	953.807	749.252
135.497	19.861	953.225	748.687
136.512	19.942	952.741	748.591
137.527	20.036	952.016	748.363
138.541	20.066	951.118	747.718
139.556	19.960	950.620	746.805
140.570	20.140	949.324	746.496
141.585	20.092	948.517	745.588
142.600	20.165	947.678	745.179
143.614	20.116	946.716	744.145
144.629	20.080	946.472	743.731
145.643	20.321	945.571	743.990
146.658	20.244	944.109	742.447
147.673	20.029	943.642	741.093
148.687	19.947	942.337	739.652
149.702	20.099	941.090	739.258
150.716	19.921	940.265	737.785
151.731	19.977	938.997	736.961
152.746	19.980	938.372	736.421
153.760	20.059	937.955	736.362
154.775	20.226	937.364	736.544
155.789	20.390	935.874	736.004
156.804	20.205	934.959	734.435
157.819	20.095	934.351	733.426
158.833	20.262	933.251	733.203
159.848	20.247	932.735	732.671
160.862	20.312	931.797	732.145
161.877	20.285	930.499	730.946
162.892	20.216	930.036	730.226
163.906	20.331	929.126	729.931
164.921	20.365	928.115	729.216
165.935	20.413	926.746	728.277
166.950	20.319	925.877	727.136
167.964	20.251	925.039	726.125
168.979	20.231	924.445	725.515
169.994	20.369	922.427	724.443
171.008	20.017	921.780	722.402
172.023	20.176	921.166	722.519
173.037	20.377	920.488	722.759
174.052	20.044	919.595	720.610
175.067	20.025	918.256	719.416
176.081	19.991	917.592	718.694
177.096	20.130	916.777	718.567
178.110	20.092	916.148	717.854
179.125	19.930	914.762	716.032
180.140	19.697	913.627	714.117
181.154	19.740	913.128	713.842
182.169	19.919	912.446	713.986
183.183	19.966	912.160	713.891
184.198	20.346	911.409	714.805
185.213	20.213	910.764	713.692
186.227	20.090	910.408	712.841
187.242	20.304	909.495	712.942
188.256	20.247	908.966	712.232
189.271	20.299	907.872	711.523
190.286	20.372	907.745	711.662
191.300	20.250	906.699	710.280
192.315	19.605	905.301	706.486
193.329	19.188	903.412	703.245
194.344	18.756	902.862	700.991
195.359	19.330	903.061	703.427
196.373	20.023	903.326	706.399
197.388	20.206	902.796	706.668
198.402	20.096	902.247	705.726
199.417	20.179	901.286	705.250
200.432	20.107	900.884	704.581
201.446	19.838	900.246	702.925
202.461	19.693	899.061	701.351
203.475	19.741	898.765	701.253
204.490	19.319	897.030	698.129
205.504	18.317	895.139	692.542
206.519	18.639	895.531	694.089
207.534	19.647	895.589	698.148
208.548	19.789	895.065	698.250
209.563	20.119	894.837	699.342
210.577	20.180	894.044	698.905
211.592	19.856	892.831	696.593
212.607	20.364	892.704	698.477
213.621	20.320	892.271	697.897
214.636	20.253	891.859	697.243
215.650	20.302	891.417	697.034
216.665	20.375	890.400	696.470
217.680	20.162	890.219	695.413
218.694	20.255	889.766	695.368
219.709	20.060	888.355	693.426
220.723	19.642	887.569	691.081
221.738	19.938	887.192	691.909
222.753	20.268	886.403	692.549
223.767	20.020	886.017	691.197
224.782	20.275	884.895	691.274
225.796	20.399	883.895	690.926
226.811	20.444	883.744	690.926
227.826	20.013	882.894	688.486
228.840	19.272	881.328	684.266
229.855	19.168	880.739	683.335
230.869	19.510	879.754	683.863
231.884	19.170	879.364	682.153
232.899	19.246	878.599	681.801
233.913	20.105	878.651	685.178
234.928	20.389	878.316	685.980
235.942	20.092	877.691	684.258
236.957	20.164	877.107	684.025
237.972	19.974	875.805	682.201
238.986	19.806	875.378	681.148
240.001	19.789	874.940	680.679
241.015	20.028	873.542	680.471
242.030	19.992	873.320	680.097
243.045	20.062	872.969	680.036
244.059	19.992	872.743	679.527
245.074	20.261	871.868	679.839
246.088	20.271	871.128	679.241
247.103	19.807	870.094	676.562
248.117	19.949	869.434	676.540
249.132	20.273	869.704	677.960
250.147	20.765	869.001	679.271
251.161	20.644	868.640	678.456
252.176	20.928	867.764	678.819
253.190	20.964	867.219	678.473
254.205	20.851	866.963	677.771
255.220	21.098	866.205	678.079
256.234	21.230	865.289	677.815
257.249	21.103	864.697	676.799
258.263	20.929	864.011	675.529
259.278	20.868	863.991	675.216
260.293	21.047	863.017	675.089
261.307	20.927	862.854	674.435
262.322	20.973	861.601	673.576
263.336	20.862	860.930	672.562
264.351	20.378	859.401	669.443
265.366	19.155	857.202	662.963
266.380	18.945	856.615	661.644
267.395	19.733	857.400	665.223
268.409	20.497	857.180	667.934
269.424	20.530	856.378	667.378
270.439	20.643	856.480	667.831
271.453	20.777	855.529	667.543
272.468	20.822	854.889	667.157
273.482	20.872	854.614	667.074
274.497	21.117	853.665	667.214
275.512	20.812	852.734	665.263
276.526	20.207	851.482	661.918
277.541	20.456	851.230	662.612
278.555	20.904	851.094	664.156
279.570	20.637	850.306	662.466
280.585	20.388	849.293	660.671
281.599	20.543	848.758	660.786
282.614	20.821	848.045	661.226
283.628	20.312	847.531	658.836
284.643	19.861	846.588	656.333
285.657	20.392	846.369	658.119
286.672	20.262	845.687	657.037
287.687	19.795	844.735	654.473
288.701	20.200	844.514	655.775
289.716	20.600	844.200	656.985
290.730	20.221	843.161	654.690
291.745	20.063	842.896	653.828
292.760	19.976	841.410	652.292
293.774	19.781	841.334	651.441
294.789	20.783	841.551	655.323
295.803	21.282	841.628	657.203
296.818	21.268	840.949	656.562
297.833	21.298	840.582	656.330
298.847	21.188	839.398	654.935
299.862	20.756	838.678	652.696
300.876	21.052	838.043	653.251
301.891	21.260	837.604	653.631
302.906	21.282	836.905	653.109
303.920	20.979	835.491	650.819
304.935	20.772	835.378	649.898
305.949	20.995	835.247	650.572
306.964	21.162	834.396	650.476
307.979	21.206	833.955	650.236
308.993	21.096	833.056	649.071
310.008	21.266	833.221	649.771
311.022	21.587	832.475	650.325
312.037	21.254	832.175	648.798
313.052	21.225	831.331	647.975
314.066	21.125	830.441	646.853
315.081	20.482	829.161	643.420
316.095	19.756	828.063	639.823
317.110	20.299	828.269	641.937
318.125	21.066	828.196	644.657
319.139	20.759	827.148	642.652
320.154	19.593	825.594	637.088
321.168	19.242	825.034	635.307
322.183	19.656	825.182	636.891
323.197	20.714	825.112	640.679
324.212	20.941	824.814	641.226
325.227	20.984	824.682	641.223
326.241	21.132	824.328	641.435
327.256	21.173	823.326	640.750
328.270	20.978	822.973	639.704
329.285	20.752	822.709	638.613
330.300	20.856	821.355	637.886
331.314	20.640	820.717	636.544
332.329	20.742	820.110	636.389
333.343	21.129	819.242	637.073
334.358	21.147	819.619	637.374
335.373	21.264	818.739	637.060
336.387	21.358	818.248	636.964
337.402	21.526	817.921	637.267
338.416	21.530	817.817	637.142
339.431	21.575	816.648	636.340
340.446	21.561	816.149	635.842
341.460	21.750	815.983	636.346
342.475	21.693	815.209	635.477
343.489	21.483	814.635	634.212
344.504	21.369	814.146	633.364
345.519	21.670	813.826	634.146
346.533	21.980	813.556	635.003
347.548	22.046	812.911	634.682
348.562	22.032	812.627	634.352
349.577	22.044	811.827	633.717
350.592	21.935	811.201	632.779
351.606	21.971	810.645	632.417
352.621	22.024	810.345	632.320
353.635	21.965	809.662	631.518
354.650	21.748	809.380	630.462
355.665	21.515	808.383	628.792
356.679	20.471	806.308	623.379
357.694	20.331	806.140	622.690
358.708	21.019	805.823	624.856
359.723	20.893	805.340	623.976
360.738	21.121	805.465	624.835
361.752	21.664	805.185	626.505
362.767	21.758	805.076	626.700
363.781	22.024	804.619	627.239
364.796	22.160	804.358	627.465
365.810	22.152	804.060	627.148
366.825	22.355	803.423	627.323
367.840	22.333	803.280	627.077
368.854	22.200	802.501	625.937
369.869	21.805	801.786	623.920
370.883	21.637	801.284	622.876
371.898	21.703	800.604	622.527
372.913	21.418	799.892	620.908
373.927	21.600	799.285	621.027
374.942	21.718	798.729	620.958
375.956	21.811	798.434	621.004
376.971	21.852	797.966	620.730
377.986	22.096	797.274	620.997
379.000	22.296	796.934	621.387
380.015	22.093	796.544	620.309
381.029	22.038	795.726	619.424
382.044	22.082	795.341	619.224
383.059	22.232	794.538	619.072
384.073	22.191	794.171	618.588
385.088	22.254	793.883	618.530
386.102	22.199	793.301	617.829
387.117	22.068	792.424	616.632
388.132	22.052	791.897	616.109
389.146	21.772	791.725	614.940
390.161	21.363	790.364	612.394
391.175	21.431	790.152	612.416
392.190	21.822	790.379	613.906
393.205	21.918	789.811	613.745
394.219	21.050	787.764	609.072
395.234	19.649	785.541	602.417
396.248	18.989	784.581	599.330
397.263	19.959	785.613	603.446
398.278	21.795	786.719	610.645
399.292	22.062	786.615	611.438
400.307	21.685	786.164	609.724
401.321	21.622	785.693	609.084
402.336	21.732	785.281	609.095
403.350	21.987	784.938	609.660
404.365	22.345	785.131	610.997
405.380	22.685	784.646	611.748
406.394	22.904	784.567	612.391
407.409	22.937	784.100	612.086
408.423	22.850	783.668	611.395
409.438	22.721	782.932	610.319
410.453	22.869	782.375	610.344
411.467	22.916	782.523	610.564
412.482	22.829	781.406	609.341
413.496	22.855	780.953	609.024
414.511	22.933	780.731	609.064
415.526	23.033	780.298	609.018
416.540	22.917	780.075	608.392
417.555	22.933	779.616	608.034
418.569	22.510	778.898	605.965
419.584	22.531	778.301	605.518
420.599	22.745	777.449	605.537
421.613	158.635	1362.349	1798.588
422.628	137.034	1447.563	1798.705
