DTS Sentinel unit serial number:	SN413079Multiplexer serial number:	ORYXHardware model number:	OX4-SRSoftware version number:	ORYX F/W v4.00 Oryx Data Collector v3.7.2.0data status	okinstallation	princeton_trtdifferential loss correction	single-endedforward channel	channel 3reverse channel	N/Adate	2019/09/16time	13:48:35forward acquisition time	60.00reverse acquisition time	0.00gamma	496.2192k internal	0.2294k external	0.2294temperature offset calibration	0.9940default loss term (dB/km)	0.3790temperature slope calibration	1.0000multiplexer offset coefficient	1.0000multiplexer slope coefficient	1.0000fibre end	0.00T internal ref (°C)	42.31T ext. ref 1 (°C)	13.94T ext. ref 2 (°C)	38.26length (m)	temperature (°C)	Stokes	anti-Stokes-747.200	-31.783	0.067	-0.038
-746.185	-69.609	-0.292	0.114
-745.171	593.531	0.068	0.172
-744.156	800.000	0.062	0.200
-743.142	800.000	0.049	-0.139
-742.127	724.390	0.092	-0.251
-741.112	-125.843	0.192	-0.030
-740.098	276.351	0.038	0.069
-739.083	800.000	0.016	0.047
-738.069	-64.124	-0.195	0.081
-737.054	-79.511	0.226	0.078
-736.039	-94.477	-0.313	0.087
-735.025	108.577	0.096	0.117
-734.010	182.868	0.201	-0.303
-732.996	701.472	-0.041	0.112
-731.981	145.298	-0.280	-0.383
-730.966	-134.921	-0.217	0.027
-729.952	-64.406	-0.364	-0.151
-728.937	24.324	-0.206	-0.174
-727.923	-41.114	0.350	-0.185
-726.908	-87.775	-0.263	-0.081
-725.894	22.627	-0.185	-0.155
-724.879	410.539	-0.138	0.299
-723.864	-200.000	-0.004	0.176
-722.850	381.211	-0.137	-0.287
-721.835	126.559	-0.103	-0.133
-720.821	37.758	-0.097	0.088
-719.806	-35.262	-0.174	0.096
-718.791	-57.607	-0.215	0.096
-717.777	-168.383	0.488	-0.019
-716.762	24.193	0.160	-0.135
-715.748	-200.000	-0.012	-0.129
-714.733	-74.338	0.004	-0.002
-713.718	-115.658	0.182	0.035
-712.704	100.267	-0.265	-0.314
-711.689	-200.000	-0.022	0.254
-710.675	20.317	0.074	-0.061
-709.660	800.000	-0.066	0.195
-708.645	34.414	0.242	-0.215
-707.631	128.884	-0.146	-0.190
-706.616	800.000	-0.118	-0.432
-705.602	-28.304	0.100	0.059
-704.587	296.266	0.021	-0.040
-703.572	-200.000	-0.043	-0.400
-702.558	-141.952	0.140	-0.014
-701.543	-26.271	-0.259	-0.155
-700.529	-200.000	0.005	-0.162
-699.514	-36.327	0.219	-0.120
-698.499	48.216	0.131	-0.125
-697.485	800.000	-0.095	0.342
-696.470	-200.000	-0.015	0.103
-695.456	-11.397	-0.195	0.131
-694.441	-200.000	-0.007	-0.178
-693.426	-200.000	-0.013	0.072
-692.412	262.536	-0.104	-0.184
-691.397	-63.293	-0.278	-0.117
-690.383	-92.005	0.041	-0.012
-689.368	47.355	0.125	-0.119
-688.354	800.000	-0.114	-0.417
-687.339	-38.465	-0.269	0.145
-686.324	-119.244	0.362	-0.064
-685.310	450.385	-0.052	-0.118
-684.295	800.000	0.095	0.273
-683.281	-110.997	-0.171	0.036
-682.266	-184.663	-0.108	-0.002
-681.251	-200.000	-0.017	-0.092
-680.237	-68.857	-0.322	0.127
-679.222	516.859	0.054	-0.128
-678.208	299.840	-0.187	-0.351
-677.193	-51.333	-0.387	-0.185
-676.178	147.829	0.287	-0.395
-675.164	-200.000	-0.025	-0.148
-674.149	800.000	0.075	0.222
-673.135	119.027	0.032	-0.040
-672.120	270.304	-0.148	-0.266
-671.105	263.903	0.113	0.200
-670.091	-20.403	-0.046	-0.029
-669.076	-6.637	-0.103	0.072
-668.062	171.902	0.182	-0.266
-667.047	-43.702	-0.235	0.121
-666.032	-46.707	0.181	0.090
-665.018	39.436	-0.149	-0.136
-664.003	574.294	-0.058	-0.145
-662.989	26.012	-0.104	-0.089
-661.974	-9.502	-0.246	0.168
-660.959	328.567	0.049	0.096
-659.945	800.000	-0.088	-0.272
-658.930	-59.036	-0.080	-0.035
-657.916	-200.000	0.036	-0.422
-656.901	800.000	-0.059	0.183
-655.886	-200.000	0.036	0.236
-654.872	-85.340	0.164	-0.052
-653.857	-200.000	0.045	-0.237
-652.843	595.111	-0.097	-0.245
-651.828	13.073	0.109	0.086
-650.814	-41.036	-0.124	-0.065
-649.799	-74.966	0.236	0.086
-648.784	-200.000	-0.006	-0.081
-647.770	-94.041	0.180	-0.050
-646.755	-178.620	-0.242	-0.006
-645.741	-73.057	0.176	0.066
-644.726	-167.406	-0.374	-0.015
-643.711	8.737	0.124	0.095
-642.697	-157.647	0.252	-0.015
-641.682	-2.036	-0.188	0.135
-640.668	383.919	0.140	0.294
-639.653	-200.000	-0.029	-0.188
-638.638	186.761	0.173	-0.262
-637.624	27.445	-0.282	-0.242
-636.609	312.545	0.091	0.175
-635.595	-200.000	0.041	0.279
-634.580	-129.611	-0.264	0.037
-633.565	32.702	0.124	-0.109
-632.551	-159.268	-0.239	-0.014
-631.536	78.898	0.162	0.177
-630.522	134.172	-0.204	0.269
-629.507	185.029	0.245	-0.370
-628.492	524.197	-0.102	0.245
-627.478	72.905	-0.146	-0.156
-626.463	800.000	-0.105	0.306
-625.449	238.695	-0.140	0.237
-624.434	-200.000	-0.006	0.092
-623.419	179.776	-0.086	-0.129
-622.405	18.249	0.120	-0.097
-621.390	-200.000	-0.046	0.222
-620.376	800.000	-0.135	-0.391
-619.361	11.585	-0.168	-0.131
-618.346	-43.323	-0.137	-0.071
-617.332	147.838	0.069	0.095
-616.317	459.731	0.015	-0.034
-615.303	800.000	-0.089	-0.300
-614.288	-13.672	-0.371	-0.244
-613.273	500.845	-0.098	0.229
-612.259	456.067	-0.119	0.268
-611.244	-90.490	0.222	0.065
-610.230	192.933	0.165	-0.254
-609.215	39.664	0.191	0.174
-608.201	-200.000	0.055	0.323
-607.186	-200.000	-0.005	-0.149
-606.171	-126.384	-0.203	-0.031
-605.157	128.039	-0.151	0.195
-604.142	414.279	0.077	0.167
-603.128	124.805	-0.086	0.110
-602.113	457.529	0.071	0.161
-601.098	800.000	-0.055	0.156
-600.084	-43.062	-0.082	-0.042
-599.069	282.931	-0.160	0.291
-598.055	-200.000	-0.074	-0.350
-597.040	800.000	0.069	0.245
-596.025	685.377	-0.059	0.158
-595.011	-88.764	0.216	-0.065
-593.996	10.463	-0.229	0.177
-592.982	-131.973	0.196	0.026
-591.967	-2.739	-0.139	-0.098
-590.952	-48.332	0.290	-0.142
-589.938	72.650	0.202	0.215
-588.923	800.000	0.059	0.179
-587.909	-159.663	0.193	-0.011
-586.894	-200.000	0.023	-0.178
-585.879	188.947	-0.117	0.179
-584.865	800.000	-0.077	-0.236
-583.850	-166.209	0.070	-0.003
-582.836	-31.253	-0.333	-0.191
-581.821	-15.653	0.278	-0.180
-580.806	-200.000	0.010	-0.069
-579.792	800.000	-0.049	-0.199
-578.777	-81.705	0.152	-0.051
-577.763	226.599	-0.035	0.058
-576.748	-200.000	-0.028	-0.167
-575.733	-121.525	0.153	-0.026
-574.719	32.450	0.180	0.158
-573.704	-200.000	-0.018	-0.166
-572.690	800.000	0.185	-0.541
-571.675	-200.000	0.018	0.134
-570.661	44.518	0.287	0.267
-569.646	129.304	0.047	-0.061
-568.631	399.500	-0.101	-0.214
-567.617	-31.990	-0.067	-0.038
-566.602	150.401	0.178	0.246
-565.588	-11.738	0.190	0.127
-564.573	235.884	-0.130	-0.218
-563.558	-200.000	0.008	0.046
-562.544	-45.715	-0.027	0.014
-561.529	-200.000	0.053	0.000
-560.515	-0.885	-0.188	0.135
-559.500	-200.000	0.001	-0.294
-558.485	-200.000	0.109	0.504
-557.471	251.674	0.107	-0.184
-556.456	-170.488	-0.427	0.015
-555.442	180.418	-0.109	-0.162
-554.427	-140.997	0.151	0.016
-553.412	-73.311	-0.278	-0.103
-552.398	162.261	-0.108	0.153
-551.383	800.000	-0.143	0.469
-550.369	-200.000	-0.006	0.157
-549.354	140.088	0.132	-0.177
-548.339	-143.323	-0.396	0.039
-547.325	-19.066	-0.283	0.179
-546.310	357.925	-0.071	0.145
-545.296	-143.467	0.400	-0.039
-544.281	-25.709	0.108	-0.065
-543.266	-42.355	-0.183	-0.095
-542.252	155.687	-0.190	-0.266
-541.237	105.147	0.088	-0.106
-540.223	44.662	-0.113	0.106
-539.208	-110.677	-0.151	0.032
-538.193	-200.000	-0.014	-0.202
-537.179	-103.374	-0.133	-0.032
-536.164	-149.096	0.142	0.012
-535.150	800.000	0.086	-0.267
-534.135	36.324	-0.274	-0.245
-533.121	-66.321	-0.226	0.091
-532.106	-164.282	0.315	-0.015
-531.091	187.019	-0.199	0.301
-530.077	419.781	-0.050	0.108
-529.062	-200.000	-0.025	0.341
-528.048	256.284	0.147	-0.255
-527.033	49.716	-0.255	0.244
-526.018	760.513	-0.054	-0.150
-525.004	-80.608	-0.088	-0.030
-523.989	-145.294	0.103	-0.009
-522.975	-159.990	-0.089	-0.005
-521.960	253.449	-0.122	0.212
-520.945	450.775	0.083	-0.185
-519.931	-111.283	0.478	-0.099
-518.916	-200.000	0.061	-0.277
-517.902	-200.000	-0.057	0.312
-516.887	-147.898	-0.292	-0.025
-515.872	800.000	-0.014	-0.053
-514.858	-163.776	0.076	-0.004
-513.843	-200.000	0.019	0.106
-512.829	-119.060	0.223	-0.040
-511.814	647.737	0.040	-0.102
-510.799	800.000	-0.073	0.272
-509.785	368.051	0.070	-0.143
-508.770	-46.313	-0.273	-0.136
-507.756	8.112	-0.094	0.072
-506.741	-53.093	-0.034	-0.016
-505.726	-84.871	0.480	0.153
-504.712	-199.713	0.135	0.001
-503.697	-55.728	-0.039	-0.017
-502.683	36.881	0.148	0.133
-501.668	-126.076	0.154	-0.023
-500.653	115.188	0.048	0.060
-499.639	800.000	0.036	-0.107
-498.624	-131.643	-0.330	-0.044
-497.610	126.296	0.126	0.161
-496.595	40.610	0.118	-0.108
-495.581	78.664	0.065	-0.070
-494.566	-6.041	-0.084	0.058
-493.551	-200.000	0.061	0.290
-492.537	317.411	-0.168	0.321
-491.522	596.063	0.088	0.222
-490.508	-136.725	0.089	-0.010
-489.493	-175.814	0.115	0.003
-488.478	559.751	-0.055	-0.135
-487.464	473.482	-0.172	0.392
-486.449	269.655	0.160	0.284
-485.435	28.358	0.089	-0.076
-484.420	129.366	-0.080	-0.103
-483.405	-41.901	0.201	-0.104
-482.391	58.864	-0.047	0.047
-481.376	129.003	0.126	0.163
-480.362	800.000	0.117	0.343
-479.347	-2.455	-0.229	-0.162
-478.332	141.297	0.087	-0.117
-477.318	800.000	-0.067	-0.206
-476.303	254.435	-0.105	-0.182
-475.289	38.709	-0.330	0.298
-474.274	-157.001	0.351	-0.022
-473.259	800.000	0.084	-0.278
-472.245	-118.322	0.208	-0.037
-471.230	-200.000	0.002	-0.010
-470.216	-126.384	-0.303	-0.046
-469.201	-159.789	0.344	0.019
-468.186	299.717	-0.129	-0.241
-467.172	-126.111	-0.162	0.025
-466.157	-103.265	0.165	-0.039
-465.143	-168.131	-0.192	0.008
-464.128	88.475	0.131	-0.147
-463.113	114.750	0.123	0.152
-462.099	29.124	-0.226	-0.194
-461.084	800.000	-0.067	-0.206
-460.070	800.000	-0.027	0.085
-459.055	-47.271	-0.014	-0.007
-458.040	800.000	-0.024	-0.096
-457.026	-133.555	0.336	0.043
-456.011	-200.000	0.074	-0.388
-454.997	800.000	-0.005	0.021
-453.982	193.801	0.077	0.118
-452.968	264.407	-0.135	-0.237
-451.953	507.226	0.092	-0.217
-450.938	-200.000	0.010	-0.262
-449.924	-60.430	0.222	0.096
-448.909	134.613	0.119	0.156
-447.895	187.493	-0.033	-0.050
-446.880	-19.623	0.142	-0.089
-445.865	75.476	-0.097	-0.104
-444.851	-38.046	-0.102	-0.055
-443.836	184.386	-0.176	0.263
-442.822	-58.796	-0.318	-0.139
-441.807	-200.000	-0.050	-0.288
-440.792	-164.881	-0.190	0.009
-439.778	-200.000	-0.003	-0.210
-438.763	21.225	0.111	0.091
-437.749	3.766	0.154	0.114
-436.734	255.704	0.094	-0.163
-435.719	143.088	-0.083	0.111
-434.705	462.392	-0.176	-0.397
-433.690	470.525	0.076	0.174
-432.676	-24.663	-0.157	0.094
-431.661	-200.000	0.020	0.242
-430.646	800.000	-0.013	-0.042
-429.632	368.083	-0.054	0.110
-428.617	412.176	0.011	-0.023
-427.603	-95.054	0.198	0.054
-426.588	698.661	0.087	0.231
-425.573	-200.000	-0.075	0.332
-424.559	-200.000	-0.034	0.270
-423.544	176.989	0.139	0.205
-422.530	-54.118	0.249	0.114
-421.515	-200.000	0.012	0.085
-420.500	800.000	-0.058	-0.169
-419.486	-121.057	0.223	-0.038
-418.471	564.688	-0.135	-0.330
-417.457	-200.000	0.034	0.191
-416.442	519.080	0.056	-0.133
-415.428	-142.742	-0.159	-0.016
-414.413	-92.769	0.275	0.078
-413.398	474.719	0.089	-0.202
-412.384	433.569	0.100	-0.219
-411.369	30.833	0.055	0.047
-410.355	-105.523	-0.097	-0.022
-409.340	390.528	0.090	0.188
-408.325	87.461	-0.387	0.432
-407.311	757.818	-0.168	0.459
-406.296	-108.455	-0.089	0.019
-405.282	1.180	0.169	0.122
-404.267	432.044	0.059	-0.129
-403.252	-139.832	0.380	-0.041
-402.238	163.500	-0.176	0.250
-401.223	429.795	-0.149	0.326
-400.209	-33.101	-0.069	0.039
-399.194	263.894	-0.096	0.169
-398.179	172.156	-0.060	0.087
-397.165	145.706	-0.153	0.206
-396.150	319.577	0.097	-0.186
-395.136	-149.426	-0.202	-0.016
-394.121	-200.000	0.014	0.322
-393.106	-92.700	0.113	-0.032
-392.092	8.342	0.101	-0.077
-391.077	25.971	0.088	0.074
-390.063	93.289	-0.107	-0.122
-389.048	45.596	-0.106	-0.099
-388.033	-173.734	-0.187	-0.006
-387.019	-200.000	0.070	0.422
-386.004	-42.493	-0.319	-0.164
-384.990	-155.473	-0.210	-0.014
-383.975	-200.000	0.005	-0.025
-382.960	800.000	-0.140	0.427
-381.946	40.792	0.198	0.180
-380.931	-79.166	-0.181	-0.062
-379.917	-42.009	-0.286	0.148
-378.902	-79.730	0.214	0.073
-377.888	-31.975	-0.149	0.084
-376.873	-200.000	-0.037	-0.251
-375.858	-90.621	-0.308	-0.090
-374.844	-200.000	0.207	-0.001
-373.829	800.000	0.045	-0.190
-372.815	800.000	0.060	0.176
-371.800	-40.856	0.135	0.070
-370.785	-134.934	0.133	-0.016
-369.771	329.379	-0.139	-0.269
-368.756	43.063	0.080	-0.074
-367.742	-188.855	-0.205	-0.003
-366.727	53.459	0.091	-0.088
-365.712	110.731	0.271	-0.329
-364.698	-200.000	0.002	-0.119
-363.683	-148.876	-0.266	0.022
-362.669	91.312	0.077	0.087
-361.654	-95.032	-0.234	-0.064
-360.639	800.000	0.104	0.408
-359.625	158.957	-0.207	0.290
-358.610	75.579	-0.146	-0.156
-357.596	-200.000	0.038	-0.237
-356.581	-98.537	-0.098	0.025
-355.566	-20.166	-0.192	-0.119
-354.552	-200.000	-0.005	0.201
-353.537	4.868	-0.215	0.159
-352.523	409.122	0.139	-0.297
-351.508	135.605	-0.099	0.130
-350.493	-129.128	0.177	-0.025
-349.479	-200.000	-0.031	0.451
-348.464	189.651	0.168	-0.254
-347.450	186.552	-0.011	-0.016
-346.435	-72.753	-0.187	0.069
-345.420	800.000	0.145	0.422
-344.406	-200.000	0.027	-0.235
-343.391	800.000	-0.102	-0.285
-342.377	18.359	-0.375	-0.302
-341.362	-200.000	-0.020	-0.258
-340.348	-178.751	0.082	0.002
-339.333	117.187	0.179	-0.221
-338.318	133.356	-0.086	0.112
-337.304	-7.079	-0.082	0.056
-336.289	321.366	-0.175	-0.335
-335.275	-17.897	-0.023	0.015
-334.260	43.792	-0.263	-0.242
-333.245	800.000	-0.057	-0.224
-332.231	-153.669	0.198	0.014
-331.216	190.880	0.153	-0.231
-330.202	778.872	0.049	-0.135
-329.187	-108.814	-0.411	0.089
-328.172	21.376	-0.312	-0.255
-327.158	800.000	-0.061	-0.207
-326.143	42.053	-0.323	-0.295
-325.129	-48.019	-0.177	0.086
-324.114	-50.183	-0.177	0.084
-323.099	570.995	0.043	0.104
-322.085	-105.609	-0.253	-0.058
-321.070	-200.000	-0.006	-0.338
-320.056	243.113	0.027	0.045
-319.041	558.609	0.077	-0.187
-318.026	281.203	0.069	-0.124
-317.012	55.768	-0.055	0.054
-315.997	98.598	-0.292	-0.339
-314.983	543.515	0.025	0.059
-313.968	-97.059	-0.381	0.100
-312.953	52.705	-0.047	0.045
-311.939	800.000	0.022	0.093
-310.924	-104.522	0.142	-0.033
-309.910	-14.754	0.178	-0.115
-308.895	800.000	-0.055	-0.209
-307.880	-200.000	-0.007	0.094
-306.866	-46.266	-0.167	-0.083
-305.851	118.060	0.166	-0.206
-304.837	45.708	0.206	0.192
-303.822	800.000	0.007	-0.019
-302.807	174.660	0.018	0.026
-301.793	3.647	0.119	-0.087
-300.778	-56.369	-0.132	-0.059
-299.764	-164.496	-0.385	0.018
-298.749	-200.000	0.021	-0.126
-297.735	800.000	-0.067	-0.196
-296.720	-200.000	0.024	0.143
-295.705	-200.000	0.004	0.253
-294.691	-171.109	0.183	-0.006
-293.676	75.269	0.111	0.118
-292.662	120.347	-0.156	-0.195
-291.647	-126.401	-0.111	0.017
-290.632	800.000	-0.125	-0.360
-289.618	-200.000	-0.034	-0.401
-288.603	447.674	0.100	-0.221
-287.589	-90.124	-0.264	0.077
-286.574	-38.372	-0.132	-0.070
-285.559	-51.184	0.153	0.072
-284.545	233.180	0.041	0.068
-283.530	112.028	0.234	0.284
-282.516	-200.000	0.034	0.234
-281.501	800.000	0.083	0.248
-280.486	-64.055	0.124	-0.051
-279.472	157.594	0.372	-0.517
-278.457	344.371	0.307	-0.604
-277.443	-195.117	-0.208	0.002
-276.428	356.655	-0.045	0.091
-275.413	-200.000	-0.009	0.168
-274.399	360.554	-0.072	-0.145
-273.384	2.011	0.322	0.233
-272.370	-200.000	-0.110	0.000
-271.355	66.479	0.230	0.234
-270.340	800.000	-0.105	0.320
-269.326	557.070	0.107	-0.258
-268.311	-135.032	0.063	0.008
-267.297	-84.574	-0.133	0.042
-266.282	74.271	0.151	0.159
-265.267	87.898	0.139	-0.154
-264.253	-200.000	0.006	0.093
-263.238	126.904	-0.035	-0.044
-262.224	759.128	-0.074	0.203
-261.209	-15.184	0.370	0.238
-260.195	555.167	0.151	-0.364
-259.180	319.331	-0.126	-0.239
-258.165	25.632	-0.191	-0.160
-257.151	-50.812	-0.052	0.025
-256.136	-200.000	0.003	0.035
-255.122	200.889	0.097	0.150
-254.107	800.000	0.071	0.235
-253.092	169.598	-0.114	0.163
-252.078	139.354	0.122	0.162
-251.063	70.636	-0.322	0.334
-250.049	-200.000	-0.008	0.320
-249.034	170.040	0.026	-0.037
-248.019	123.052	-0.149	-0.187
-247.005	533.359	-0.137	-0.325
-245.990	-200.000	0.073	0.445
-244.976	-110.000	0.585	-0.123
-243.961	-58.889	0.127	0.055
-242.946	-44.293	-0.145	0.073
-241.932	-158.105	0.234	-0.014
-240.917	-103.222	0.111	0.026
-239.903	-17.232	0.243	0.154
-238.888	326.186	-0.100	0.191
-237.873	141.620	-0.021	0.027
-236.859	709.827	-0.095	-0.251
-235.844	-200.000	-0.001	-0.154
-234.830	-30.219	0.125	-0.071
-233.815	-86.800	0.089	0.027
-232.800	-200.000	0.019	0.172
-231.786	800.000	0.050	0.145
-230.771	93.559	0.170	-0.192
-229.757	-112.443	-0.226	-0.045
-228.742	-116.486	0.138	0.026
-227.727	-200.000	-0.127	-0.621
-226.713	-200.000	-0.013	-0.191
-225.698	2.531	0.060	-0.044
-224.684	-200.000	-0.006	-0.182
-223.669	262.089	-0.051	0.089
-222.655	244.885	0.039	0.066
-221.640	-200.000	0.020	-0.122
-220.625	29.296	-0.128	-0.109
-219.611	4.682	-0.129	0.095
-218.596	800.000	-0.082	0.330
-217.582	-95.395	0.048	-0.013
-216.567	-129.586	0.202	-0.028
-215.552	-108.303	-0.264	-0.057
-214.538	535.566	-0.135	-0.321
-213.523	617.237	0.004	0.010
-212.509	-200.000	-0.036	-0.165
-211.494	468.735	-0.055	-0.124
-210.479	-91.968	0.328	-0.093
-209.465	-200.000	-0.031	-0.373
-208.450	370.026	-0.009	-0.019
-207.436	800.000	0.123	0.502
-206.421	-37.662	-0.140	0.075
-205.406	-200.000	0.008	0.220
-204.392	123.058	0.306	0.383
-203.377	414.366	0.122	-0.260
-202.363	-5.042	0.169	-0.116
-201.348	242.191	-0.121	0.202
-200.333	-111.144	0.179	0.037
-199.319	-200.000	0.066	0.381
-198.304	-34.156	-0.156	-0.086
-197.290	-133.284	-0.132	0.017
-196.275	-200.000	0.004	-0.039
-195.260	32.171	0.280	0.242
-194.246	87.427	-0.072	-0.079
-193.231	-85.539	0.099	-0.031
-192.217	-24.980	-0.252	-0.150
-191.202	75.064	0.120	-0.126
-190.187	-131.190	-0.266	-0.035
-189.173	-124.452	0.184	0.029
-188.158	-200.000	-0.006	0.055
-187.144	800.000	0.083	0.320
-186.129	800.000	-0.011	0.037
-185.114	-25.056	0.232	-0.138
-184.100	-73.469	0.266	-0.097
-183.085	-200.000	0.011	-0.065
-182.071	-177.917	0.296	0.007
-181.056	-200.000	-0.013	0.183
-180.042	219.509	0.068	0.109
-179.027	41.078	-0.208	-0.188
-178.012	270.635	0.154	0.272
-176.998	-200.000	0.020	-0.286
-175.983	182.775	0.228	-0.337
-174.969	-47.367	-0.169	0.082
-173.954	759.593	-0.062	-0.167
-172.939	157.607	0.158	0.219
-171.925	-102.681	0.457	-0.109
-170.910	-39.884	0.138	-0.072
-169.896	800.000	-0.059	-0.235
-168.881	133.669	0.040	-0.052
-167.866	643.979	-0.024	-0.061
-166.852	214.405	0.160	0.253
-165.837	-200.000	-0.011	-0.128
-164.823	-129.029	-0.247	-0.035
-163.808	37.508	-0.085	-0.076
-162.793	213.721	0.147	0.232
-161.779	-200.000	-0.008	0.123
-160.764	548.010	-0.032	0.076
-159.750	800.000	0.057	0.230
-158.735	70.095	0.146	0.150
-157.720	-200.000	-0.024	0.175
-156.706	266.783	0.114	-0.199
-155.691	800.000	-0.081	0.310
-154.677	-200.000	-0.011	0.207
-153.662	-26.083	0.551	-0.324
-152.647	281.716	-0.098	-0.176
-151.633	-117.072	0.187	-0.034
-150.618	-200.000	0.035	0.228
-149.604	-146.701	0.217	0.019
-148.589	-98.429	-0.285	-0.073
-147.574	800.000	-0.062	-0.254
-146.560	652.583	-0.056	-0.143
-145.545	-114.703	0.183	0.035
-144.531	56.663	-0.163	-0.158
-143.516	359.063	0.011	-0.021
-142.502	-200.000	-0.023	0.251
-141.487	-148.735	0.361	0.029
-140.472	-13.361	0.166	-0.108
-139.458	-144.078	-0.229	0.021
-138.443	613.228	-0.083	0.208
-137.429	67.552	0.152	-0.155
-136.414	98.918	-0.278	0.321
-135.399	-51.396	0.036	-0.017
-134.385	-143.765	0.243	0.023
-133.370	-93.822	0.408	0.112
-132.356	140.327	-0.059	-0.077
-131.341	91.134	0.127	-0.143
-130.326	-105.952	-0.150	-0.034
-129.312	-200.000	0.012	-0.240
-128.297	536.657	0.080	-0.189
-127.283	467.392	0.291	0.652
-126.268	-102.779	0.358	-0.085
-125.253	800.000	0.072	-0.215
-124.239	603.629	0.011	-0.028
-123.224	800.000	-0.040	0.127
-122.210	-174.610	-0.579	0.016
-121.195	800.000	-0.040	0.112
-120.180	800.000	-0.037	-0.126
-119.166	-200.000	-0.058	-0.336
-118.151	800.000	0.027	0.077
-117.137	738.931	-0.094	-0.251
-116.122	655.943	-0.072	-0.184
-115.107	800.000	0.123	-0.415
-114.093	349.098	-0.028	-0.055
-113.078	-129.695	0.207	0.028
-112.064	399.212	-0.190	0.397
-111.049	-172.503	-0.243	0.008
-110.034	800.000	0.044	-0.137
-109.020	-123.276	0.119	0.019
-108.005	262.719	0.067	-0.115
-106.991	169.632	0.338	0.482
-105.976	-200.000	-0.009	0.225
-104.962	-200.000	0.090	-0.393
-103.947	129.778	0.133	-0.169
-102.932	800.000	-0.071	0.272
-101.918	-200.000	-0.002	-0.045
-100.903	68.815	0.092	0.095
-99.889	-75.404	0.227	-0.081
-98.874	141.286	0.195	0.258
-97.859	-200.000	-0.014	0.258
-96.845	-64.334	0.121	-0.049
-95.830	28.598	-0.134	0.113
-94.816	-45.796	0.062	-0.031
-93.801	-52.368	-0.198	-0.091
-92.786	800.000	-0.130	0.392
-91.772	-7.292	0.123	-0.083
-90.757	-102.612	0.111	0.026
-89.743	3.512	0.092	0.067
-88.728	67.457	-0.080	0.081
-87.713	-23.033	-0.158	-0.095
-86.699	-73.606	0.090	0.033
-85.684	-118.480	0.177	-0.031
-84.670	-172.430	-0.106	0.003
-83.655	-18.853	-0.104	-0.064
-82.640	800.000	0.059	0.178
-81.626	-32.959	-0.095	-0.053
-80.611	31.668	-0.255	-0.218
-79.597	235.088	-0.125	0.206
-78.582	415.427	0.101	-0.215
-77.567	-200.000	0.011	-0.116
-76.553	66.610	0.072	-0.073
-75.538	-128.141	0.085	0.012
-74.524	-48.229	0.117	0.056
-73.509	157.012	0.252	-0.346
-72.494	-30.590	0.252	0.142
-71.480	95.131	0.169	0.192
-70.465	252.420	-0.055	-0.093
-69.451	736.107	-0.055	-0.146
-68.436	-60.786	0.297	0.125
-67.422	-4.042	-0.229	-0.158
-66.407	800.000	0.080	0.298
-65.392	-56.927	0.219	-0.096
-64.378	699.086	0.110	-0.289
-63.363	-112.943	0.096	0.019
-62.349	186.777	0.071	0.106
-61.334	8.924	-0.638	-0.479
-60.319	111.521	0.243	0.291
-59.305	-200.000	-0.137	-0.877
-58.290	542.962	0.347	0.825
-57.276	629.955	0.549	1.383
-56.261	-200.000	75.848	538.438
-55.246	515.430	1350.587	3140.269
-54.232	137.804	2597.300	3387.109
-53.217	118.080	2272.830	2788.816
-52.203	53.702	1777.903	1699.211
-51.188	45.872	1569.301	1444.928
-50.173	42.962	1539.371	1397.165
-49.159	58.782	1575.950	1541.422
-48.144	65.450	1595.984	1607.588
-47.130	46.467	1558.761	1439.158
-46.115	42.583	1544.158	1398.645
-45.100	42.500	1540.285	1394.506
-44.086	42.408	1538.486	1392.188
-43.071	42.348	1536.862	1390.243
-42.057	42.215	1534.830	1387.432
-41.042	42.303	1533.012	1386.342
-40.027	42.312	1531.681	1385.140
-39.013	42.326	1530.457	1384.077
-37.998	42.331	1528.712	1382.477
-36.984	42.336	1527.558	1381.412
-35.969	42.358	1526.329	1380.400
-34.954	42.383	1524.587	1378.944
-33.940	42.309	1523.454	1377.357
-32.925	42.407	1521.508	1376.216
-31.911	42.430	1520.271	1375.196
-30.896	42.289	1519.456	1373.438
-29.881	42.313	1518.357	1372.554
-28.867	42.486	1515.968	1371.526
-27.852	42.416	1514.609	1369.760
-26.838	42.330	1513.380	1368.012
-25.823	42.302	1511.767	1366.304
-24.809	42.375	1509.477	1364.679
-23.794	42.355	1508.529	1363.634
-22.779	42.343	1507.439	1362.513
-21.765	42.321	1506.706	1361.648
-20.750	42.394	1505.011	1360.553
-19.736	42.332	1503.850	1359.029
-18.721	42.296	1502.878	1357.852
-17.706	42.231	1501.964	1356.538
-16.692	42.211	1501.068	1355.536
-15.677	42.331	1499.689	1355.048
-14.663	42.326	1498.564	1353.946
-13.648	42.234	1497.833	1352.606
-12.633	42.268	1497.076	1352.100
-11.619	42.292	1496.187	1351.404
-10.604	42.282	1495.008	1350.223
-9.590	42.137	1494.415	1348.657
-8.575	42.290	1493.112	1348.453
-7.560	42.271	1492.464	1347.691
-6.546	42.253	1491.463	1346.613
-5.531	42.309	1490.144	1345.739
-4.517	42.246	1489.861	1345.011
-3.502	42.200	1488.368	1343.298
-2.487	42.209	1487.760	1342.757
-1.473	42.262	1486.408	1341.840
-0.458	42.279	1485.047	1340.669
0.556	40.552	1475.759	1330.766
1.571	37.621	1448.589	1286.808
2.586	33.535	1384.947	1204.273
3.600	31.225	1300.763	1117.165
4.615	28.711	1251.139	1059.963
5.629	25.629	1196.235	996.318
6.644	19.858	1113.038	897.111
7.659	15.005	1071.110	838.967
8.673	14.167	1065.552	830.358
9.688	13.911	1062.668	826.764
10.702	13.831	1060.949	824.956
11.717	13.842	1059.629	823.914
12.731	16.046	1061.487	836.232
13.746	20.780	1067.553	864.501
14.761	21.361	1067.068	866.910
15.775	18.622	1061.834	849.047
16.790	16.931	1059.074	838.414
17.804	15.826	1056.951	831.203
18.819	14.922	1055.031	825.159
19.834	14.376	1053.310	821.050
20.848	13.996	1051.929	818.032
21.863	13.657	1051.587	816.024
22.877	13.394	1050.766	814.024
23.892	13.318	1049.975	812.964
24.907	13.235	1048.829	811.599
25.921	13.174	1048.283	810.801
26.936	13.292	1047.598	810.781
27.950	13.336	1046.460	810.046
28.965	13.278	1045.327	808.811
29.980	13.411	1044.619	808.841
30.994	13.411	1042.895	807.437
32.009	13.398	1042.048	806.643
33.023	13.610	1041.072	806.850
34.038	13.475	1040.392	805.596
35.053	13.488	1039.263	804.713
36.067	13.453	1038.723	804.054
37.082	13.357	1037.571	802.625
38.096	13.431	1037.149	802.588
39.111	13.494	1036.239	802.118
40.126	13.529	1035.561	801.688
41.140	13.376	1034.500	800.055
42.155	13.292	1033.415	798.740
43.169	13.181	1032.812	797.671
44.184	13.348	1031.137	797.108
45.199	13.094	1030.424	795.265
46.213	13.269	1028.848	794.820
47.228	13.243	1028.138	794.077
48.242	13.307	1027.293	793.659
49.257	13.322	1026.449	793.008
50.271	13.285	1025.653	792.145
51.286	13.236	1024.535	790.978
52.301	13.322	1023.593	790.594
53.315	13.383	1022.995	790.353
54.330	13.399	1022.106	789.675
55.344	13.255	1021.471	788.425
56.359	13.167	1019.747	786.606
57.374	13.271	1019.335	786.716
58.388	13.248	1018.682	786.031
59.403	13.170	1017.719	784.845
60.417	13.118	1016.945	783.936
61.432	13.193	1015.986	783.479
62.447	13.133	1015.541	782.785
63.461	13.188	1014.414	782.108
64.476	12.956	1014.053	780.660
65.490	13.159	1013.010	780.747
66.505	13.088	1012.182	779.705
67.520	13.134	1011.682	779.470
68.534	13.132	1010.701	778.634
69.549	13.127	1010.141	778.109
70.563	13.183	1009.067	777.479
71.578	13.184	1008.562	777.027
72.593	13.229	1007.318	776.208
73.607	13.212	1006.371	775.332
74.622	12.955	1005.785	773.608
75.636	13.112	1004.631	773.385
76.651	13.051	1004.046	772.581
77.666	13.091	1003.197	772.046
78.680	13.042	1002.749	771.406
79.695	12.986	1002.198	770.651
80.709	13.149	1001.115	770.511
81.724	13.173	1000.714	770.246
82.739	13.249	1000.077	770.043
83.753	13.186	998.995	768.848
84.768	13.290	998.447	768.842
85.782	13.347	997.300	768.156
86.797	13.391	996.851	767.944
87.812	13.406	996.096	767.366
88.826	13.393	995.449	766.737
89.841	13.185	994.814	765.219
90.855	13.358	994.180	765.462
91.870	13.410	993.083	764.793
92.884	13.382	992.623	764.238
93.899	13.317	991.966	763.366
94.914	13.500	990.670	763.145
95.928	13.561	989.695	762.607
96.943	13.536	989.313	762.132
97.957	13.412	988.665	760.993
98.972	13.460	987.830	760.504
99.987	13.410	987.306	759.802
101.001	13.453	986.247	759.118
102.016	13.504	985.372	758.612
103.030	13.410	984.698	757.595
104.045	13.466	983.757	757.060
105.060	13.437	982.584	755.958
106.074	13.387	981.596	754.903
107.089	13.222	981.207	753.786
108.103	13.236	980.118	752.944
109.118	13.161	978.853	751.565
110.133	13.264	978.007	751.318
111.147	13.302	977.040	750.681
112.162	13.275	976.340	749.954
113.176	13.180	976.088	749.264
114.191	13.284	975.221	749.004
115.206	13.496	973.740	748.759
116.220	13.335	973.395	747.699
117.235	13.281	972.567	746.753
118.249	13.393	971.400	746.294
119.264	13.301	970.746	745.312
120.279	13.186	969.994	744.151
121.293	13.318	968.675	743.666
122.308	13.162	968.588	742.832
123.322	13.190	967.722	742.230
124.337	13.278	966.227	741.413
125.352	13.164	965.328	740.145
126.366	13.111	964.405	739.134
127.381	13.243	963.307	738.819
128.395	13.181	962.204	737.632
129.410	13.264	960.885	736.922
130.424	13.173	960.591	736.226
131.439	13.287	959.744	736.023
132.454	13.338	958.902	735.535
133.468	13.413	958.048	735.148
134.483	13.358	957.430	734.365
135.497	13.318	956.947	733.755
136.512	13.232	956.087	732.649
137.527	13.473	955.070	732.871
138.541	13.295	954.606	731.664
139.556	13.341	953.891	731.252
140.570	13.331	953.225	730.635
141.585	13.471	952.505	730.634
142.600	13.583	951.840	730.554
143.614	13.517	951.078	729.613
144.629	13.504	950.304	728.897
145.643	13.572	949.569	728.569
146.658	13.479	948.802	727.506
147.673	13.528	947.644	726.771
148.687	13.432	946.827	725.659
149.702	13.466	945.949	725.070
150.716	13.385	945.338	724.184
151.731	13.360	944.009	722.991
152.746	13.331	943.899	722.717
153.760	13.487	942.429	722.209
154.775	13.324	942.053	721.146
155.789	13.423	941.385	721.002
156.804	13.494	940.605	720.649
157.819	13.535	939.557	719.962
158.833	13.530	938.811	719.305
159.848	13.477	938.827	719.022
160.862	13.527	937.578	718.220
161.877	13.568	937.217	718.058
162.892	13.332	936.446	716.382
163.906	13.477	935.219	716.004
164.921	13.492	934.433	715.407
165.935	13.456	933.269	714.297
166.950	13.377	932.615	713.391
167.964	13.516	931.214	712.855
168.979	13.503	930.562	712.239
169.994	13.472	929.558	711.273
171.008	13.431	928.550	710.261
172.023	13.541	927.694	710.018
173.037	13.483	927.382	709.468
174.052	13.676	926.506	709.558
175.067	13.668	925.773	708.901
176.081	13.587	925.029	707.921
177.096	13.630	924.135	707.356
178.110	13.544	923.317	706.302
179.125	13.518	922.464	705.476
180.140	13.527	921.953	705.061
181.154	13.598	921.331	704.827
182.169	13.572	921.278	704.613
183.183	13.605	920.027	703.733
184.198	13.662	919.086	703.194
185.213	13.740	918.308	702.867
186.227	13.735	918.073	702.605
187.242	13.858	917.286	702.460
188.256	13.845	916.265	701.562
189.271	13.863	915.756	701.184
190.286	13.892	915.180	700.804
191.300	13.779	914.553	699.784
192.315	13.676	914.051	698.904
193.329	13.547	913.008	697.501
194.344	13.590	912.442	697.187
195.359	13.668	911.698	696.888
196.373	13.873	911.175	697.288
197.388	13.832	911.076	696.976
198.402	13.847	910.470	696.514
199.417	13.875	910.104	696.289
200.432	13.942	909.598	696.122
201.446	13.924	909.165	695.654
202.461	14.092	908.427	695.729
203.475	13.986	908.401	695.208
204.490	13.952	907.825	694.562
205.504	14.017	906.669	693.885
206.519	13.975	905.805	692.989
207.534	13.987	905.123	692.457
208.548	13.976	904.626	691.967
209.563	13.889	904.097	691.143
210.577	14.069	903.317	691.233
211.592	14.051	902.344	690.351
212.607	14.019	901.842	689.772
213.621	14.264	901.179	690.221
214.636	14.091	900.582	688.985
215.650	14.205	900.119	689.043
216.665	14.026	899.509	687.775
217.680	14.201	898.711	687.829
218.694	14.350	898.272	688.045
219.709	14.274	897.745	687.268
220.723	14.151	897.517	686.525
221.738	14.363	896.547	686.594
222.753	14.212	895.783	685.328
223.767	14.209	895.125	684.750
224.782	14.214	894.305	684.085
225.796	14.400	893.658	684.294
226.811	14.479	892.459	683.637
227.826	14.341	892.427	682.987
228.840	14.502	891.515	682.887
229.855	14.338	890.920	681.701
230.869	14.450	890.178	681.531
231.884	14.266	889.983	680.567
232.899	14.340	889.140	680.167
233.913	14.195	888.715	679.191
234.928	14.379	887.652	679.068
235.942	14.347	887.008	678.386
236.957	14.418	886.037	677.868
237.972	14.344	885.292	676.940
238.986	14.235	885.423	676.535
240.001	14.274	884.632	676.032
241.015	14.207	883.977	675.199
242.030	14.374	883.286	675.287
243.045	14.392	882.326	674.566
244.059	14.568	881.835	674.846
245.074	14.450	881.272	673.877
246.088	14.527	880.547	673.572
247.103	14.526	880.079	673.153
248.117	14.545	879.630	672.826
249.132	14.467	878.989	671.962
250.147	14.692	878.557	672.479
251.161	14.775	877.659	672.066
252.176	14.750	877.376	671.689
253.190	14.733	876.487	670.880
254.205	14.814	875.943	670.731
255.220	15.018	874.695	670.533
256.234	14.866	874.586	669.780
257.249	14.963	873.703	669.432
258.263	14.954	873.199	668.951
259.278	14.919	872.878	668.505
260.293	14.964	872.456	668.305
261.307	14.984	871.568	667.645
262.322	15.092	870.749	667.390
263.336	15.104	870.456	667.153
264.351	15.079	869.668	666.391
265.366	15.212	869.329	666.602
266.380	14.922	869.037	665.165
267.395	15.000	867.975	664.601
268.409	15.055	867.235	664.194
269.424	15.153	866.212	663.740
270.439	15.057	865.778	662.971
271.453	15.114	864.884	662.452
272.468	14.995	864.286	661.463
273.482	14.914	864.063	660.916
274.497	15.056	863.095	660.677
275.512	15.086	862.537	660.310
276.526	15.120	861.686	659.733
277.541	15.126	860.640	658.900
278.555	15.007	860.457	658.233
279.570	15.196	859.926	658.511
280.585	15.128	859.329	657.728
281.599	15.154	859.107	657.601
282.614	15.213	858.326	657.176
283.628	15.299	857.307	656.677
284.643	15.202	856.873	655.907
285.657	15.263	856.446	655.759
286.672	15.190	856.014	655.085
287.687	15.462	855.478	655.678
288.701	15.264	855.126	654.578
289.716	15.127	855.046	653.923
290.730	15.302	853.857	653.639
291.745	15.389	852.947	653.225
292.760	15.375	852.337	652.645
293.774	15.407	851.919	652.390
294.789	15.424	851.374	651.983
295.803	15.406	850.869	651.470
296.818	15.464	850.071	651.024
297.833	15.375	849.902	650.491
298.847	15.438	849.055	650.032
299.862	15.365	848.334	649.140
300.876	15.563	847.025	648.845
301.891	15.622	846.542	648.646
302.906	15.514	846.463	648.110
303.920	15.573	845.733	647.722
304.935	15.555	845.149	647.148
305.949	15.603	844.603	646.857
306.964	15.624	844.215	646.582
307.979	15.703	843.402	646.207
308.993	15.483	843.131	645.094
310.008	15.731	842.470	645.485
311.022	15.784	841.874	645.175
312.037	15.830	840.841	644.501
313.052	15.758	840.604	643.986
314.066	15.564	840.322	642.972
315.081	15.629	839.306	642.389
316.095	15.693	838.938	642.292
317.110	15.689	838.614	641.972
318.125	15.747	837.738	641.468
319.139	15.788	837.071	641.055
320.154	15.712	836.923	640.595
321.168	15.748	836.240	640.155
322.183	15.732	835.808	639.703
323.197	15.642	835.667	639.199
324.212	15.737	834.844	638.875
325.227	15.779	834.214	638.493
326.241	15.848	833.646	638.265
327.256	15.791	833.466	637.854
328.270	15.811	832.672	637.266
329.285	15.758	832.241	636.679
330.300	15.789	831.648	636.284
331.314	15.763	830.905	635.565
332.329	15.697	830.559	634.993
333.343	15.828	829.892	634.921
334.358	15.948	829.092	634.706
335.373	15.858	829.015	634.250
336.387	15.993	827.909	633.858
337.402	16.059	827.264	633.554
338.416	16.077	826.835	633.238
339.431	16.038	826.690	632.922
340.446	16.032	826.050	632.354
341.460	16.189	824.960	632.053
342.475	16.193	824.779	631.875
343.489	16.173	824.186	631.288
344.504	16.242	823.730	631.142
345.519	16.269	822.975	630.607
346.533	16.250	822.829	630.369
347.548	16.283	822.233	629.980
348.562	16.322	821.478	629.491
349.577	16.228	821.060	628.764
350.592	16.123	820.244	627.694
351.606	16.218	819.863	627.700
352.621	16.189	819.497	627.256
353.635	16.131	819.287	626.825
354.650	16.261	818.582	626.712
355.665	16.404	818.199	626.894
356.679	16.313	818.069	626.400
357.694	16.386	817.228	625.971
358.708	16.449	816.557	625.636
359.723	16.262	816.153	624.579
360.738	16.263	815.517	624.043
361.752	16.373	815.128	624.095
362.767	16.423	814.521	623.761
363.781	16.382	814.498	623.536
364.796	16.494	813.910	623.444
365.810	16.523	813.384	623.092
366.825	16.691	812.891	623.279
367.840	16.608	812.885	622.912
368.854	16.637	812.384	622.581
369.869	16.520	811.962	621.771
370.883	16.611	811.249	621.505
371.898	16.598	810.857	621.104
372.913	16.631	810.241	620.695
373.927	16.628	809.426	620.005
374.942	16.669	809.035	619.802
375.956	16.528	808.591	618.889
376.971	16.659	807.779	618.692
377.986	16.813	807.219	618.774
379.000	16.877	806.939	618.737
380.015	16.883	806.598	618.441
381.029	16.879	805.925	617.857
382.044	17.001	804.837	617.412
383.059	16.738	804.803	616.372
384.073	16.713	804.388	615.912
385.088	16.750	803.889	615.607
386.102	16.785	803.245	615.186
387.117	16.702	802.789	614.482
388.132	16.847	802.328	614.603
389.146	16.764	801.877	613.902
390.161	16.719	801.751	613.589
391.175	16.821	801.114	613.415
392.190	16.856	800.644	613.128
393.205	16.937	800.162	612.996
394.219	16.892	799.611	612.358
395.234	16.871	799.215	611.925
396.248	16.899	798.700	611.578
397.263	16.701	798.453	610.622
398.278	16.816	797.875	610.538
399.292	16.985	796.875	610.327
400.307	16.821	796.698	609.547
401.321	17.050	796.253	609.976
402.336	16.874	796.289	609.316
403.350	16.881	795.767	608.891
404.365	16.840	795.557	608.526
405.380	16.886	795.052	608.251
406.394	17.132	794.280	608.491
407.409	17.131	793.959	608.185
408.423	17.221	793.355	607.993
409.438	17.211	792.885	607.542
410.453	17.165	792.757	607.227
411.467	17.222	792.221	606.964
412.482	17.220	791.565	606.404
413.496	17.275	791.135	606.215
414.511	17.445	790.726	606.454
415.526	17.281	790.684	605.784
416.540	17.339	790.252	605.605
417.555	17.344	789.890	605.291
418.569	17.380	789.140	604.792
419.584	17.413	788.766	604.569
420.599	17.370	788.190	603.921
421.613	87.587	1253.381	1339.006
422.628	74.322	1321.199	1339.130
