DTS Sentinel unit serial number:	SN413079Multiplexer serial number:	ORYXHardware model number:	OX4-SRSoftware version number:	ORYX F/W v4.00 Oryx Data Collector v3.7.2.0data status	okinstallation	princeton_trtdifferential loss correction	single-endedforward channel	channel 3reverse channel	N/Adate	2019/09/19time	14:32:35forward acquisition time	60.00reverse acquisition time	0.00gamma	496.2192k internal	0.2319k external	0.2319temperature offset calibration	1.0001default loss term (dB/km)	0.3790temperature slope calibration	1.0000multiplexer offset coefficient	1.0000multiplexer slope coefficient	1.0000fibre end	0.00T internal ref (°C)	32.25T ext. ref 1 (°C)	1.06T ext. ref 2 (°C)	29.31length (m)	temperature (°C)	Stokes	anti-Stokes-747.200	25.722	0.056	0.048
-746.185	5.153	-0.240	0.179
-745.171	-33.738	-0.099	0.055
-744.156	-133.465	-0.249	0.032
-743.142	256.656	-0.043	-0.075
-742.127	115.748	-0.154	-0.191
-741.112	-64.756	-0.148	-0.061
-740.098	-183.397	-0.236	0.004
-739.083	-26.566	-0.313	0.185
-738.069	92.457	0.328	0.374
-737.054	-200.000	-0.000	-0.250
-736.039	184.515	-0.207	0.310
-735.025	-27.921	-0.198	0.116
-734.010	-199.130	-0.164	0.001
-732.996	-200.000	0.014	-0.119
-731.981	179.458	-0.107	-0.158
-730.966	257.944	-0.173	-0.301
-729.952	-200.000	-0.007	-0.148
-728.937	-28.902	-0.083	0.048
-727.923	229.992	-0.248	0.410
-726.908	800.000	-0.038	0.147
-725.894	-200.000	-0.048	-0.231
-724.879	-200.000	0.016	-0.275
-723.864	346.008	0.135	0.267
-722.850	-15.187	-0.292	0.189
-721.835	-11.407	0.344	0.229
-720.821	0.385	-0.180	-0.130
-719.806	-200.000	0.003	-0.127
-718.791	-71.849	-0.237	0.089
-717.777	-35.856	0.079	0.043
-716.762	-200.000	0.004	0.402
-715.748	18.318	-0.054	0.043
-714.733	-61.979	0.331	0.140
-713.718	122.981	-0.161	-0.203
-712.704	27.883	0.155	0.132
-711.689	-200.000	-0.010	-0.085
-710.675	-138.781	0.123	0.014
-709.660	-200.000	-0.048	-0.257
-708.645	-105.846	-0.051	-0.012
-707.631	148.927	-0.102	0.140
-706.616	-200.000	0.034	0.360
-705.602	-200.000	0.021	0.189
-704.587	-42.569	0.234	0.120
-703.572	317.127	-0.099	-0.188
-702.558	132.783	0.144	-0.187
-701.543	-200.000	-0.028	0.160
-700.529	-200.000	0.045	0.317
-699.514	105.873	0.063	-0.076
-698.499	-73.868	-0.502	-0.184
-697.485	394.362	0.155	-0.326
-696.470	197.385	0.057	-0.088
-695.456	463.521	-0.068	-0.153
-694.441	-164.319	-0.274	-0.013
-693.426	-200.000	-0.023	0.106
-692.412	-133.981	-0.267	0.033
-691.397	-40.802	0.203	-0.106
-690.383	-74.964	0.150	0.054
-689.368	36.621	-0.023	-0.021
-688.354	-57.973	-0.202	-0.089
-687.339	800.000	0.042	-0.170
-686.324	745.268	0.049	-0.134
-685.310	-200.000	0.065	0.348
-684.295	-22.580	0.090	0.055
-683.281	-77.440	-0.171	-0.060
-682.266	-90.881	-0.117	-0.034
-681.251	218.569	0.195	-0.314
-680.237	-14.876	0.316	0.205
-679.222	-159.423	0.071	0.004
-678.208	232.895	0.061	-0.101
-677.193	-19.357	0.160	0.100
-676.178	-20.029	0.246	0.153
-675.164	-155.445	-0.150	-0.010
-674.149	800.000	0.025	-0.086
-673.135	186.198	-0.172	0.258
-672.120	-200.000	-0.047	-0.344
-671.105	-130.015	-0.230	0.032
-670.091	800.000	0.036	0.131
-669.076	505.671	0.164	-0.383
-668.062	800.000	0.090	-0.387
-667.047	51.198	0.144	-0.138
-666.032	800.000	-0.092	-0.307
-665.018	-61.795	0.431	-0.182
-664.003	800.000	-0.033	-0.101
-662.989	-132.305	-0.104	0.014
-661.974	-200.000	-0.004	-0.239
-660.959	84.549	0.171	-0.189
-659.945	-138.790	-0.148	0.016
-658.930	-70.860	-0.367	-0.140
-657.916	-200.000	-0.045	0.231
-656.901	101.919	0.129	-0.152
-655.886	300.234	0.184	0.343
-654.872	184.147	-0.218	0.325
-653.857	-70.041	0.312	0.120
-652.843	-122.578	0.105	-0.017
-651.828	189.987	-0.131	0.199
-650.814	-44.480	-0.295	-0.149
-649.799	-200.000	0.035	0.182
-648.784	800.000	0.045	0.140
-647.770	99.969	0.211	-0.246
-646.755	-56.459	-0.141	-0.063
-645.741	-200.000	-0.016	0.324
-644.726	-80.628	-0.140	0.047
-643.711	-125.805	0.196	-0.030
-642.697	-48.008	-0.094	-0.046
-641.682	-96.111	0.223	0.060
-640.668	-48.090	0.212	0.103
-639.653	-200.000	0.042	0.208
-638.638	-126.833	-0.310	-0.046
-637.624	69.494	0.156	0.162
-636.609	-50.007	-0.126	-0.060
-635.595	-151.097	0.179	0.014
-634.580	-39.539	0.100	0.053
-633.565	669.628	0.053	-0.139
-632.551	19.458	-0.125	-0.101
-631.536	800.000	-0.034	-0.129
-630.522	-200.000	0.009	0.063
-629.507	19.140	-0.097	-0.078
-628.492	1.420	0.435	0.315
-627.478	-156.035	0.276	-0.018
-626.463	-200.000	-0.054	-0.447
-625.449	-29.838	-0.175	-0.100
-624.434	800.000	-0.107	-0.440
-623.419	-200.000	-0.014	0.110
-622.405	12.504	-0.235	0.182
-621.390	-200.000	0.009	-0.094
-620.376	-140.450	0.316	-0.033
-619.361	-200.000	-0.176	0.001
-618.346	-55.494	-0.098	-0.044
-617.332	-88.584	-0.268	0.080
-616.317	-60.764	0.138	0.059
-615.303	800.000	0.083	0.307
-614.288	-200.000	-0.007	-0.167
-613.273	-200.000	0.010	-0.200
-612.259	-47.286	-0.106	-0.052
-611.244	97.026	0.104	0.120
-610.230	449.824	0.073	0.161
-609.215	-200.000	-0.004	-0.163
-608.201	55.368	0.094	-0.092
-607.186	-39.972	-0.046	-0.024
-606.171	96.085	-0.074	-0.085
-605.157	-200.000	-0.041	-0.194
-604.142	-11.162	-0.268	-0.177
-603.128	161.355	-0.063	-0.089
-602.113	-86.399	0.447	-0.138
-601.098	456.790	-0.046	-0.102
-600.084	698.514	-0.096	-0.255
-599.069	800.000	-0.108	0.417
-598.055	-180.320	-0.212	-0.004
-597.040	222.921	-0.127	-0.206
-596.025	-200.000	-0.006	-0.075
-595.011	45.514	-0.189	-0.176
-593.996	27.475	0.145	-0.123
-592.982	134.838	-0.106	-0.139
-591.967	656.531	0.080	0.206
-590.952	45.752	-0.259	-0.241
-589.938	61.976	0.144	-0.144
-588.923	102.225	-0.168	0.197
-587.909	18.604	0.257	0.206
-586.894	-70.227	-0.321	-0.123
-585.879	26.214	-0.244	-0.205
-584.865	-12.061	-0.237	0.156
-583.850	-61.438	-0.188	0.080
-582.836	-144.682	-0.251	0.023
-581.821	-46.182	-0.355	0.176
-580.806	-115.529	-0.067	-0.013
-579.792	800.000	-0.074	-0.230
-578.777	6.724	0.037	0.028
-577.763	-200.000	-0.003	0.120
-576.748	-79.426	0.240	0.082
-575.733	-159.661	-0.088	0.005
-574.719	-200.000	0.059	-0.527
-573.704	-200.000	-0.035	0.206
-572.690	339.613	0.069	0.135
-571.675	-26.756	0.320	-0.188
-570.661	-17.510	0.178	-0.112
-569.646	-168.248	-0.199	-0.008
-568.631	-141.585	0.089	-0.009
-567.617	385.162	-0.126	-0.261
-566.602	587.824	0.090	-0.222
-565.588	-25.173	0.237	-0.141
-564.573	-106.773	-0.317	-0.071
-563.558	800.000	-0.069	-0.193
-562.544	800.000	-0.035	0.121
-561.529	-200.000	-0.078	0.486
-560.515	-46.275	0.249	0.123
-559.500	-200.000	0.031	-0.338
-558.485	320.153	-0.165	0.315
-557.471	-200.000	0.036	0.279
-556.456	-70.143	-0.414	0.158
-555.442	474.960	0.073	0.166
-554.427	9.499	-0.232	-0.176
-553.412	-200.000	0.007	-0.114
-552.398	-22.865	0.032	0.019
-551.383	-123.500	0.272	0.043
-550.369	-200.000	-0.015	0.149
-549.354	3.760	-0.138	-0.102
-548.339	-79.810	0.176	0.060
-547.325	-200.000	-0.005	0.249
-546.310	800.000	0.048	0.160
-545.296	800.000	-0.058	0.180
-544.281	462.369	0.125	-0.280
-543.266	328.446	-0.232	0.447
-542.252	150.404	0.165	0.225
-541.237	40.227	-0.287	0.259
-540.223	800.000	0.021	0.086
-539.208	-98.983	-0.072	0.018
-538.193	-145.361	-0.175	-0.016
-537.179	26.140	-0.143	-0.120
-536.164	-200.000	0.013	-0.401
-535.150	760.237	0.157	-0.426
-534.135	701.230	0.133	-0.353
-533.121	26.987	0.237	-0.199
-532.106	253.333	0.166	-0.284
-531.091	-150.142	0.095	0.007
-530.077	373.025	0.166	-0.339
-529.062	-122.497	0.076	-0.012
-528.048	-72.975	-0.281	0.104
-527.033	49.634	-0.100	0.094
-526.018	-138.288	0.302	0.033
-525.004	-200.000	0.025	-0.272
-523.989	-200.000	0.018	0.080
-522.975	-200.000	0.003	0.301
-521.960	800.000	-0.075	0.214
-520.945	305.083	-0.260	-0.484
-519.931	-107.119	0.100	-0.022
-518.916	-64.003	0.170	-0.070
-517.902	-119.838	-0.152	0.026
-516.887	-118.467	-0.141	-0.025
-515.872	90.559	-0.084	0.095
-514.858	-22.757	-0.193	-0.117
-513.843	-60.606	-0.231	0.098
-512.829	800.000	-0.077	0.248
-511.814	-34.099	-0.111	-0.061
-510.799	71.312	-0.162	-0.169
-509.785	-35.287	0.212	0.116
-508.770	60.809	-0.102	-0.101
-507.756	800.000	-0.058	-0.234
-506.741	-0.513	-0.249	-0.177
-505.726	37.173	-0.131	0.116
-504.712	800.000	-0.086	-0.290
-503.697	-80.958	0.280	0.093
-502.683	52.081	-0.404	0.386
-501.668	-0.557	-0.389	0.277
-500.653	-133.558	0.267	0.034
-499.639	-107.174	0.178	0.039
-498.624	-200.000	0.028	0.153
-497.610	55.043	0.050	0.048
-496.595	-157.187	0.085	0.005
-495.581	98.173	-0.236	-0.272
-494.566	-130.805	0.248	-0.033
-493.551	-21.385	-0.092	-0.056
-492.537	-122.915	-0.147	-0.024
-491.522	76.549	-0.042	0.045
-490.508	581.540	0.094	-0.231
-489.493	800.000	0.073	0.237
-488.478	-16.185	-0.201	-0.128
-487.464	-50.718	-0.137	-0.064
-486.449	93.120	0.190	0.215
-485.435	-4.804	0.163	0.113
-484.420	724.808	0.012	0.032
-483.405	800.000	-0.087	0.338
-482.391	-93.620	0.456	0.126
-481.376	-123.178	-0.278	0.045
-480.362	-200.000	-0.065	-0.414
-479.347	-200.000	-0.006	-0.373
-478.332	254.216	0.098	-0.168
-477.318	322.947	-0.357	0.681
-476.303	5.189	0.131	-0.096
-475.289	-57.960	-0.274	0.120
-474.274	-46.221	-0.190	-0.093
-473.259	55.704	0.111	-0.108
-472.245	-200.000	-0.020	0.126
-471.230	462.769	-0.077	-0.173
-470.216	-200.000	0.032	0.162
-469.201	-115.724	-0.211	-0.040
-468.186	800.000	0.083	0.282
-467.172	-200.000	0.025	0.225
-466.157	-50.170	-0.026	0.012
-465.143	-200.000	0.008	0.282
-464.128	-99.856	-0.312	-0.078
-463.113	-200.000	-0.002	0.271
-462.099	737.267	0.047	-0.127
-461.084	-200.000	0.002	-0.097
-460.070	-28.173	0.086	0.050
-459.055	56.430	0.187	-0.182
-458.040	-131.166	0.196	-0.026
-457.026	-113.514	-0.055	0.011
-456.011	474.170	-0.075	0.169
-454.997	49.418	0.160	-0.151
-453.982	174.350	0.058	-0.084
-452.968	-143.002	0.399	0.039
-451.953	-67.341	0.241	0.095
-450.938	800.000	-0.098	0.364
-449.924	800.000	-0.052	-0.210
-448.909	244.257	0.055	0.093
-447.895	207.186	-0.051	0.079
-446.880	22.547	0.163	-0.133
-445.865	-39.806	0.130	-0.068
-444.851	-58.199	0.179	-0.078
-443.836	163.840	0.078	-0.110
-442.822	17.828	0.191	0.152
-441.807	-200.000	0.002	-0.100
-440.792	-68.165	-0.265	0.103
-439.778	-141.549	0.312	-0.031
-438.763	-21.163	0.072	-0.044
-437.749	28.154	0.328	-0.277
-436.734	-200.000	-0.013	-0.350
-435.719	131.454	-0.165	-0.212
-434.705	800.000	0.034	-0.112
-433.690	800.000	0.099	-0.379
-432.676	-180.841	-0.275	-0.006
-431.661	-81.695	0.307	-0.101
-430.646	-79.611	0.384	-0.130
-429.632	-200.000	-0.059	0.297
-428.617	-67.868	0.125	0.049
-427.603	-87.522	0.025	0.008
-426.588	214.042	0.082	-0.130
-425.573	4.844	-0.119	0.087
-424.559	-200.000	0.018	-0.116
-423.544	-50.179	-0.388	-0.183
-422.530	-85.789	0.436	0.135
-421.515	800.000	0.031	0.133
-420.500	88.714	0.279	-0.310
-419.486	147.056	-0.113	0.151
-418.471	9.007	-0.370	-0.279
-417.457	-200.000	0.012	-0.119
-416.442	89.055	0.139	0.155
-415.428	800.000	0.026	-0.095
-414.413	-200.000	-0.027	-0.208
-413.398	-177.109	-0.160	-0.004
-412.384	626.743	0.143	-0.361
-411.369	-200.000	0.016	-0.254
-410.355	-132.887	-0.227	-0.029
-409.340	5.092	-0.195	0.143
-408.325	-66.003	0.447	-0.178
-407.311	-24.914	-0.243	0.144
-406.296	-200.000	-0.007	0.032
-405.282	800.000	-0.057	0.205
-404.267	800.000	0.049	-0.150
-403.252	16.336	-0.102	-0.080
-402.238	432.735	0.084	-0.183
-401.223	13.532	-0.183	0.142
-400.209	-30.141	-0.124	-0.070
-399.194	-200.000	0.040	-0.347
-398.179	7.851	-0.421	-0.315
-397.165	-145.509	-0.233	-0.021
-396.150	406.957	-0.047	0.098
-395.136	739.364	0.035	-0.095
-394.121	-120.778	0.233	-0.039
-393.106	74.553	0.088	0.092
-392.092	-120.192	0.350	-0.060
-391.077	3.199	-0.211	0.153
-390.063	-200.000	0.083	-0.368
-389.048	-200.000	0.000	-0.121
-388.033	-146.421	-0.023	0.002
-387.019	-81.473	0.048	-0.016
-386.004	203.847	-0.059	0.092
-384.990	309.813	0.180	0.336
-383.975	-80.031	-0.165	0.055
-382.960	800.000	-0.094	0.284
-381.946	134.252	0.237	0.307
-380.931	238.964	-0.040	0.066
-379.917	-200.000	0.029	-0.192
-378.902	-46.917	-0.535	0.261
-377.888	-109.274	0.020	0.004
-376.873	-92.128	0.387	-0.109
-375.858	288.693	0.037	-0.066
-374.844	248.444	-0.106	-0.178
-373.829	42.166	-0.203	-0.184
-372.815	-200.000	-0.052	0.322
-371.800	590.327	0.100	0.246
-370.785	3.699	-0.176	0.128
-369.771	-15.364	0.058	0.037
-368.756	-147.101	-0.141	-0.012
-367.742	287.781	0.045	0.080
-366.727	-200.000	-0.000	-0.245
-365.712	539.221	-0.022	-0.051
-364.698	-0.693	-0.035	0.025
-363.683	-140.931	-0.337	-0.035
-362.669	-47.661	0.175	-0.085
-361.654	-149.822	0.383	0.030
-360.639	40.660	-0.287	0.258
-359.625	-200.000	-0.029	0.238
-358.610	-200.000	0.001	-0.013
-357.596	-200.000	0.019	-0.089
-356.581	194.944	0.195	0.295
-355.566	-150.994	-0.159	-0.012
-354.552	-23.219	0.240	0.144
-353.537	-32.868	-0.171	0.094
-352.523	101.795	-0.182	0.212
-351.508	319.414	0.170	0.322
-350.493	-200.000	0.069	0.308
-349.479	-123.658	0.273	0.043
-348.464	610.540	-0.033	0.082
-347.450	-127.605	-0.304	-0.044
-346.435	-152.020	0.487	0.035
-345.420	-2.247	-0.192	0.134
-344.406	-127.751	0.123	0.018
-343.391	307.324	0.251	-0.466
-342.377	-200.000	-0.055	-0.298
-341.362	227.250	-0.069	0.111
-340.348	800.000	0.096	-0.353
-339.333	379.184	0.115	-0.234
-338.318	-127.558	0.208	-0.030
-337.304	800.000	-0.022	0.074
-336.289	-200.000	0.034	-0.267
-335.275	254.358	0.145	-0.246
-334.260	-200.000	0.015	0.067
-333.245	-200.000	0.061	-0.284
-332.231	308.699	0.073	-0.136
-331.216	-42.457	-0.158	0.080
-330.202	47.915	0.069	-0.065
-329.187	-200.000	0.012	-0.385
-328.172	800.000	-0.051	0.201
-327.158	101.328	-0.128	0.149
-326.143	68.437	0.296	-0.302
-325.129	-20.010	-0.154	-0.094
-324.114	161.495	-0.061	0.085
-323.099	-200.000	0.001	0.158
-322.085	-110.816	0.111	-0.023
-321.070	-73.899	0.187	-0.067
-320.056	-200.000	0.023	0.118
-319.041	-40.572	-0.345	-0.178
-318.026	-124.334	0.266	0.041
-317.012	9.664	0.219	-0.165
-315.997	-147.183	0.280	-0.024
-314.983	-134.796	0.324	0.039
-313.968	129.351	-0.161	-0.204
-312.953	-3.415	-0.265	0.183
-311.939	58.639	-0.071	0.069
-310.924	-103.061	0.216	0.051
-309.910	164.011	0.226	-0.317
-308.895	-1.857	-0.269	0.189
-307.880	-29.559	0.154	0.087
-306.866	-200.000	0.035	0.317
-305.851	420.683	0.086	0.184
-304.837	-23.222	-0.229	-0.137
-303.822	-200.000	-0.010	0.059
-302.807	197.114	-0.092	0.139
-301.793	94.926	0.289	-0.327
-300.778	135.839	-0.138	0.179
-299.764	-200.000	0.005	0.114
-298.749	-32.795	0.278	-0.153
-297.735	-150.562	-0.215	-0.016
-296.720	-104.335	0.145	-0.033
-295.705	-53.191	0.035	-0.016
-294.691	458.481	-0.082	0.182
-293.676	800.000	0.072	-0.217
-292.662	-200.000	-0.016	-0.217
-291.647	563.786	-0.030	0.073
-290.632	-200.000	-0.043	0.279
-289.618	-17.092	-0.246	-0.154
-288.603	800.000	-0.042	-0.165
-287.589	-110.750	-0.299	0.061
-286.574	33.120	-0.172	-0.148
-285.559	-132.334	0.184	0.024
-284.545	165.093	-0.064	0.090
-283.530	38.564	0.202	-0.179
-282.516	-2.586	-0.087	0.060
-281.501	800.000	0.048	-0.138
-280.486	303.732	0.026	0.048
-279.472	155.309	0.130	-0.178
-278.457	163.546	0.058	-0.081
-277.443	-104.028	0.401	0.093
-276.428	800.000	-0.062	0.190
-275.413	800.000	-0.056	0.186
-274.399	63.026	0.233	-0.232
-273.384	-1.439	0.056	0.039
-272.370	800.000	-0.096	0.294
-271.355	-200.000	0.003	0.079
-270.340	84.245	0.105	0.113
-269.326	-55.804	0.210	0.093
-268.311	800.000	0.111	0.399
-267.297	-26.049	-0.229	0.134
-266.282	-200.000	0.045	-0.307
-265.267	800.000	0.083	-0.346
-264.253	-157.351	-0.202	0.012
-263.238	76.502	0.236	0.249
-262.224	800.000	0.046	0.173
-261.209	224.793	0.065	-0.104
-260.195	290.068	-0.029	0.053
-259.180	-200.000	-0.056	-0.255
-258.165	-80.875	-0.414	-0.136
-257.151	-1.234	-0.313	-0.220
-256.136	-200.000	-0.018	0.098
-255.122	800.000	0.101	0.427
-254.107	800.000	0.075	-0.260
-253.092	-80.998	-0.245	0.081
-252.078	660.262	0.096	-0.245
-251.063	-61.126	-0.093	-0.039
-250.049	-130.577	-0.390	0.052
-249.034	-200.000	-0.026	0.154
-248.019	19.782	-0.145	0.116
-247.005	-120.078	-0.088	-0.015
-245.990	-87.325	0.133	0.040
-244.976	-200.000	-0.076	0.413
-243.961	-154.391	0.206	0.014
-242.946	-164.163	0.496	-0.023
-241.932	190.327	-0.142	0.212
-240.917	-61.647	-0.345	0.144
-239.903	-162.932	0.415	-0.020
-238.888	104.745	0.245	-0.287
-237.873	-45.589	0.069	0.034
-236.859	200.555	-0.130	0.198
-235.844	-8.359	-0.095	0.063
-234.830	-22.132	0.076	0.046
-233.815	800.000	-0.040	-0.122
-232.800	-200.000	0.051	0.446
-231.786	256.884	0.127	-0.216
-230.771	172.204	0.015	0.022
-229.757	-104.454	-0.253	-0.058
-228.742	687.117	-0.106	-0.275
-227.727	-200.000	-0.023	0.203
-226.713	-192.596	0.259	-0.002
-225.698	-200.000	0.009	0.310
-224.684	156.782	0.038	-0.052
-223.669	800.000	-0.066	0.260
-222.655	-39.994	0.036	0.019
-221.640	-200.000	-0.029	-0.169
-220.625	98.655	0.217	0.248
-219.611	800.000	-0.076	0.283
-218.596	-200.000	0.034	0.158
-217.582	22.670	0.019	-0.015
-216.567	10.151	-0.138	-0.104
-215.552	42.588	0.106	0.095
-214.538	-4.004	0.130	-0.089
-213.523	-74.250	0.142	-0.051
-212.509	-58.879	-0.198	-0.085
-211.494	89.906	0.055	-0.061
-210.479	800.000	-0.107	0.374
-209.465	-200.000	0.044	-0.414
-208.450	-200.000	0.007	0.059
-207.436	46.311	-0.280	0.257
-206.421	145.020	-0.143	-0.190
-205.406	164.755	0.186	-0.261
-204.392	800.000	0.048	-0.190
-203.377	-35.287	0.453	-0.244
-202.363	-197.069	-0.256	0.002
-201.348	-11.039	0.102	0.067
-200.333	-200.000	0.002	0.142
-199.319	195.387	0.098	0.147
-198.304	-79.312	-0.282	0.095
-197.290	-200.000	0.005	0.152
-196.275	351.049	-0.059	0.116
-195.260	-200.000	0.058	0.381
-194.246	65.192	-0.340	0.340
-193.231	90.793	0.093	-0.103
-192.217	-37.160	0.130	0.069
-191.202	48.376	0.093	0.086
-190.187	-200.000	-0.121	0.000
-189.173	20.397	-0.019	-0.016
-188.158	-72.973	-0.310	-0.113
-187.144	-45.507	-0.473	-0.232
-186.129	198.101	0.094	-0.142
-185.114	-56.193	-0.022	0.010
-184.100	-20.299	-0.254	-0.155
-183.085	-200.000	0.032	-0.401
-182.071	10.307	0.128	-0.096
-181.056	-137.328	0.156	0.018
-180.042	-57.150	0.176	-0.077
-179.027	193.701	-0.176	0.264
-178.012	-60.361	0.292	-0.123
-176.998	104.671	-0.191	0.223
-175.983	-200.000	0.003	-0.314
-174.969	-34.821	0.246	-0.133
-173.954	302.229	0.196	0.358
-172.939	19.350	0.149	-0.118
-171.925	685.969	-0.183	0.473
-170.910	7.047	0.037	-0.027
-169.896	-135.121	-0.269	0.032
-168.881	324.919	-0.160	0.302
-167.866	705.427	-0.065	-0.169
-166.852	173.480	0.056	-0.080
-165.837	-200.000	-0.017	0.238
-164.823	-30.115	0.056	-0.031
-163.808	-200.000	0.007	-0.225
-162.793	293.146	-0.215	0.388
-161.779	-200.000	0.040	0.276
-160.764	800.000	-0.036	-0.104
-159.750	112.173	-0.287	0.343
-158.735	-16.545	0.250	0.156
-157.720	63.218	0.175	0.173
-156.706	-111.357	0.173	-0.035
-155.691	-35.391	-0.075	-0.040
-154.677	626.105	0.139	0.346
-153.662	-99.124	0.467	0.117
-152.647	19.613	-0.217	-0.172
-151.633	-170.692	0.048	0.002
-150.618	-95.498	0.234	0.062
-149.604	800.000	-0.010	-0.031
-148.589	236.609	0.116	0.189
-147.574	80.046	-0.095	0.100
-146.560	-168.647	0.152	0.006
-145.545	165.483	-0.136	-0.190
-144.531	367.655	-0.143	-0.285
-143.516	154.393	0.128	0.174
-142.502	-200.000	-0.037	-0.164
-141.487	182.368	0.169	0.247
-140.472	-200.000	-0.059	0.357
-139.458	36.229	-0.079	0.069
-138.443	-95.141	0.297	-0.079
-137.429	-89.558	0.133	-0.038
-136.414	268.079	0.080	-0.138
-135.399	-87.803	0.325	0.097
-134.385	-200.000	-0.008	-0.221
-133.370	535.518	0.186	-0.435
-132.356	74.575	-0.230	-0.238
-131.341	-94.771	0.124	-0.033
-130.326	-77.664	0.137	-0.047
-129.312	-162.831	-0.302	0.015
-128.297	800.000	-0.046	-0.141
-127.283	65.116	0.197	-0.197
-126.268	-130.200	-0.215	0.029
-125.253	14.539	0.284	0.219
-124.239	-66.007	-0.116	0.046
-123.224	-200.000	-0.014	0.467
-122.210	-106.860	-0.355	0.078
-121.195	-200.000	0.002	-0.199
-120.180	-130.783	0.386	-0.051
-119.166	800.000	-0.079	0.325
-118.151	47.053	-0.233	0.214
-117.137	-46.638	0.141	-0.068
-116.122	56.790	-0.231	0.222
-115.107	-28.526	-0.200	0.114
-114.093	-69.455	0.248	0.094
-113.078	14.261	-0.078	0.060
-112.064	-200.000	-0.035	0.502
-111.049	-61.584	0.030	0.012
-110.034	8.012	-0.201	0.149
-109.020	22.507	-0.163	-0.132
-108.005	-104.415	-0.150	-0.034
-106.991	-43.344	0.060	-0.030
-105.976	-200.000	-0.033	0.158
-104.962	34.478	-0.167	0.144
-103.947	457.854	0.074	-0.162
-102.932	-200.000	0.034	-0.292
-101.918	-123.786	-0.134	-0.021
-100.903	154.905	0.036	-0.049
-99.889	91.222	0.320	0.354
-98.874	-39.551	-0.237	0.122
-97.859	279.346	0.082	-0.144
-96.845	697.579	-0.127	0.329
-95.830	-154.089	-0.083	0.006
-94.816	800.000	-0.046	0.173
-93.801	-200.000	-0.023	-0.108
-92.786	-64.599	-0.303	-0.121
-91.772	-50.738	0.167	-0.078
-90.757	17.205	-0.203	-0.159
-89.743	84.016	-0.063	0.068
-88.728	588.811	-0.083	-0.201
-87.713	42.219	-0.132	-0.119
-86.699	324.813	0.126	0.238
-85.684	-200.000	0.016	0.189
-84.670	-135.506	-0.039	0.005
-83.655	228.007	0.089	0.142
-82.640	409.680	0.058	-0.121
-81.626	98.206	-0.157	-0.178
-80.611	284.214	0.032	-0.058
-79.597	211.654	0.116	0.180
-78.582	28.870	-0.254	-0.212
-77.567	-103.690	0.073	0.017
-76.553	-57.912	-0.109	-0.047
-75.538	-148.884	0.168	0.013
-74.524	-200.000	-0.005	0.110
-73.509	200.380	-0.058	-0.087
-72.494	-13.179	-0.174	-0.111
-71.480	-107.997	0.168	-0.036
-70.465	55.546	0.174	-0.166
-69.451	427.539	-0.073	-0.155
-68.436	-200.000	0.029	-0.183
-67.422	389.045	0.147	0.300
-66.407	-18.994	-0.269	0.165
-65.392	-33.350	-0.102	0.056
-64.378	-63.648	0.266	-0.107
-63.363	800.000	-0.082	-0.257
-62.349	-49.897	-0.313	-0.146
-61.334	-0.405	-1.036	-0.725
-60.319	133.571	0.607	0.773
-59.305	800.000	-0.299	-0.944
-58.290	426.706	0.385	0.817
-57.276	317.772	0.797	1.484
-56.261	-200.000	93.397	546.071
-55.246	494.241	1414.860	3197.543
-54.232	150.609	2622.104	3507.583
-53.217	108.838	2225.596	2619.238
-52.203	42.847	1753.917	1573.631
-51.188	35.496	1561.042	1349.116
-50.173	32.995	1533.939	1308.340
-49.159	51.800	1581.435	1481.440
-48.144	53.334	1598.869	1508.495
-47.130	35.609	1559.570	1348.422
-46.115	32.543	1544.372	1313.876
-45.100	32.340	1541.489	1309.962
-44.086	32.378	1539.844	1308.775
-43.071	32.180	1538.466	1306.176
-42.057	32.214	1535.974	1304.243
-41.042	32.240	1534.364	1303.004
-40.027	32.268	1532.718	1301.746
-39.013	32.205	1531.578	1300.293
-37.998	32.254	1529.841	1299.105
-36.984	32.243	1528.928	1298.203
-35.969	32.194	1528.051	1297.068
-34.954	32.251	1525.924	1295.605
-33.940	32.226	1524.573	1294.233
-32.925	32.298	1523.142	1293.461
-31.911	32.361	1521.166	1292.166
-30.896	32.353	1520.530	1291.517
-29.881	32.429	1518.932	1290.632
-28.867	32.318	1517.618	1288.706
-27.852	32.226	1516.030	1286.673
-26.838	32.258	1514.837	1285.830
-25.823	32.289	1513.138	1284.547
-24.809	32.382	1510.920	1283.249
-23.794	32.327	1509.756	1281.832
-22.779	32.309	1508.984	1281.006
-21.765	32.277	1507.524	1279.500
-20.750	32.429	1505.697	1278.930
-19.736	32.257	1505.326	1277.395
-18.721	32.187	1504.579	1276.236
-17.706	32.284	1503.476	1275.906
-16.692	32.196	1502.524	1274.448
-15.677	32.205	1501.594	1273.670
-14.663	32.217	1500.265	1272.574
-13.648	32.104	1499.586	1271.186
-12.633	32.197	1498.129	1270.526
-11.619	32.117	1497.381	1269.303
-10.604	32.223	1496.352	1269.098
-9.590	32.147	1495.165	1267.525
-8.575	32.268	1494.645	1267.851
-7.560	32.229	1493.992	1266.987
-6.546	32.260	1492.627	1265.988
-5.531	32.224	1491.842	1265.025
-4.517	32.156	1490.920	1263.734
-3.502	32.203	1489.797	1263.051
-2.487	32.158	1489.070	1262.082
-1.473	32.237	1487.407	1261.156
-0.458	32.247	1486.266	1260.205
0.556	31.805	1477.281	1251.431
1.571	29.208	1450.996	1212.002
2.586	25.432	1387.272	1134.868
3.600	23.040	1300.160	1049.336
4.615	20.629	1252.598	997.053
5.629	17.445	1194.326	933.157
6.644	8.920	1107.311	821.577
7.659	2.217	1065.537	757.376
8.673	1.170	1059.645	747.961
9.688	1.139	1056.417	745.463
10.702	0.993	1055.720	744.190
11.717	0.948	1053.537	742.362
12.731	3.222	1055.943	755.158
13.746	10.601	1065.947	798.681
14.761	16.243	1072.730	831.562
15.775	17.522	1073.298	838.231
16.790	17.092	1072.262	835.233
17.804	16.221	1069.637	828.840
18.819	15.402	1067.985	823.468
19.834	14.890	1066.488	819.729
20.848	14.570	1065.592	817.403
21.863	14.204	1064.994	815.075
22.877	14.081	1063.966	813.619
23.892	13.797	1063.475	811.781
24.907	13.700	1062.299	810.339
25.921	13.597	1061.926	809.478
26.936	13.736	1060.875	809.281
27.950	13.852	1059.881	809.017
28.965	13.689	1059.580	807.924
29.980	13.888	1058.483	807.986
30.994	13.869	1057.805	807.303
32.009	13.970	1056.835	806.982
33.023	13.910	1056.674	806.496
34.038	13.896	1055.983	805.828
35.053	13.977	1054.552	805.057
36.067	13.949	1053.544	804.080
37.082	13.842	1053.115	803.167
38.096	13.910	1052.010	802.580
39.111	13.829	1051.681	801.868
40.126	13.956	1050.319	801.370
41.140	13.908	1049.413	800.374
42.155	13.826	1048.386	799.126
43.169	13.626	1048.278	798.011
44.184	13.587	1046.993	796.777
45.199	13.644	1045.200	795.615
46.213	13.756	1044.467	795.522
47.228	13.868	1043.378	795.160
48.242	13.847	1042.134	794.040
49.257	13.866	1041.376	793.483
50.271	13.769	1040.347	792.166
51.286	13.817	1039.458	791.649
52.301	13.876	1038.865	791.407
53.315	13.841	1038.066	790.562
54.330	13.891	1037.072	789.973
55.344	13.808	1036.212	788.852
56.359	13.848	1034.745	787.856
57.374	13.832	1034.164	787.270
58.388	13.833	1033.260	786.517
59.403	13.843	1032.684	786.055
60.417	13.703	1032.024	784.821
61.432	13.827	1031.072	784.614
62.447	13.816	1030.607	784.141
63.461	13.694	1030.206	783.187
64.476	13.614	1029.053	781.867
65.490	13.731	1027.980	781.531
66.505	13.791	1026.652	780.736
67.520	13.636	1026.456	779.788
68.534	13.832	1025.298	779.762
69.549	13.771	1024.797	779.025
70.563	13.722	1023.746	777.924
71.578	13.693	1023.576	777.592
72.593	13.748	1022.469	776.941
73.607	13.698	1021.278	775.733
74.622	13.682	1020.241	774.800
75.636	13.749	1019.568	774.536
76.651	13.667	1019.000	773.651
77.666	13.667	1018.109	772.909
78.680	13.626	1017.374	772.090
79.695	13.566	1017.287	771.676
80.709	13.727	1016.076	771.437
81.724	13.714	1015.220	770.659
82.739	13.717	1014.600	770.132
83.753	13.672	1014.201	769.555
84.768	13.732	1013.335	769.109
85.782	13.833	1012.232	768.671
86.797	13.807	1011.554	767.965
87.812	13.987	1010.204	767.705
88.826	13.838	1009.657	766.535
89.841	13.854	1009.000	766.041
90.855	13.849	1008.195	765.337
91.870	13.907	1007.491	765.007
92.884	13.933	1006.464	764.276
93.899	13.881	1006.490	763.988
94.914	13.971	1005.085	763.268
95.928	13.977	1004.499	762.785
96.943	13.894	1003.939	761.911
97.957	13.938	1002.979	761.315
98.972	13.924	1002.157	760.560
99.987	13.960	1001.382	760.070
101.001	13.873	1001.388	759.607
102.016	13.989	999.722	758.809
103.030	13.826	999.104	757.527
104.045	13.954	997.892	757.125
105.060	13.950	996.947	756.325
106.074	13.917	996.160	755.508
107.089	13.896	995.338	754.723
108.103	13.917	994.440	754.071
109.118	13.838	993.212	752.713
110.133	13.757	993.197	752.272
111.147	13.767	992.156	751.461
112.162	13.763	990.948	750.463
113.176	13.916	990.418	750.686
114.191	13.810	989.823	749.690
115.206	13.903	988.413	748.974
116.220	13.948	987.419	748.356
117.235	13.860	987.093	747.647
118.249	13.836	986.123	746.738
119.264	13.810	984.998	745.704
120.279	13.790	984.332	745.045
121.293	13.861	983.439	744.618
122.308	13.947	982.447	744.188
123.322	13.796	981.843	742.988
124.337	13.925	980.765	742.683
125.352	13.921	979.884	741.935
126.366	13.832	978.562	740.471
127.381	13.857	977.501	739.714
128.395	13.740	976.755	738.564
129.410	13.842	975.759	738.196
130.424	13.882	974.774	737.566
131.439	13.838	973.767	736.544
132.454	13.858	973.118	736.073
133.468	13.925	972.141	735.568
134.483	13.856	971.793	734.933
135.497	13.900	970.530	734.107
136.512	13.894	970.181	733.753
137.527	13.907	969.490	733.224
138.541	13.899	968.494	732.370
139.556	13.968	967.458	731.826
140.570	13.959	967.236	731.553
141.585	13.918	966.122	730.466
142.600	14.020	965.858	730.649
143.614	14.057	965.191	730.241
144.629	14.110	964.200	729.660
145.643	13.998	963.556	728.619
146.658	13.959	962.796	727.808
147.673	14.113	961.207	727.214
148.687	13.970	960.961	726.340
149.702	14.037	959.429	725.410
150.716	13.920	959.160	724.632
151.731	13.990	958.333	724.249
152.746	13.992	957.878	723.851
153.760	14.045	956.823	723.220
154.775	14.054	955.947	722.531
155.789	13.943	955.446	721.605
156.804	14.017	954.992	721.521
157.819	14.102	953.942	721.030
158.833	14.071	953.427	720.445
159.848	14.249	952.462	720.423
160.862	14.039	952.153	719.215
161.877	14.168	951.125	718.934
162.892	14.239	950.186	718.469
163.906	14.165	949.372	717.470
164.921	13.921	948.813	715.931
165.935	14.114	947.601	715.786
166.950	14.099	946.858	715.096
167.964	14.157	945.821	714.496
168.979	14.117	944.797	713.488
169.994	14.107	943.913	712.714
171.008	14.123	943.578	712.469
172.023	14.191	942.420	711.821
173.037	14.237	941.447	711.220
174.052	14.254	940.886	710.806
175.067	14.207	940.608	710.332
176.081	14.205	939.298	709.273
177.096	14.208	938.952	708.962
178.110	14.092	937.799	707.532
179.125	14.057	937.198	706.868
180.140	14.185	936.605	706.904
181.154	14.347	935.571	706.749
182.169	14.261	935.585	706.331
183.183	14.344	934.695	705.950
184.198	14.343	933.758	705.173
185.213	14.422	932.934	704.822
186.227	14.358	932.606	704.245
187.242	14.319	932.014	703.568
188.256	14.528	931.033	703.647
189.271	14.473	930.597	703.023
190.286	14.401	929.991	702.201
191.300	14.398	929.120	701.469
192.315	14.389	928.407	700.829
193.329	14.318	927.638	699.889
194.344	14.289	926.851	699.114
195.359	14.406	926.510	699.283
196.373	14.321	925.599	698.179
197.388	14.396	925.188	698.119
198.402	14.535	924.317	697.985
199.417	14.385	924.215	697.218
200.432	14.502	923.960	697.454
201.446	14.624	922.969	697.150
202.461	14.615	922.636	696.803
203.475	14.570	922.041	696.104
204.490	14.593	921.446	695.688
205.504	14.562	920.677	694.918
206.519	14.634	919.923	694.585
207.534	14.679	919.203	694.167
208.548	14.713	918.484	693.702
209.563	14.731	917.723	693.141
210.577	14.644	917.419	692.491
211.592	14.755	916.403	692.124
212.607	14.556	916.011	690.942
213.621	14.771	915.366	691.284
214.636	14.796	914.499	690.672
215.650	14.701	914.109	689.921
216.665	14.669	913.686	689.411
217.680	14.816	912.821	689.305
218.694	14.845	912.312	688.977
219.709	14.981	911.451	688.825
220.723	14.998	911.044	688.525
221.738	14.961	910.068	687.577
222.753	14.862	909.575	686.738
223.767	14.941	909.080	686.625
224.782	14.977	907.873	685.802
225.796	15.017	907.170	685.375
226.811	14.913	906.636	684.484
227.826	15.019	905.649	684.111
228.840	14.935	905.513	683.603
229.855	14.896	905.123	683.092
230.869	14.906	904.072	682.276
231.884	14.827	903.677	681.598
232.899	14.935	902.732	681.263
233.913	14.856	902.019	680.346
234.928	14.999	901.273	680.302
235.942	15.036	900.309	679.667
236.957	14.837	899.982	678.552
237.972	14.883	899.353	678.203
238.986	14.938	898.449	677.684
240.001	15.045	897.511	677.351
241.015	15.104	897.024	677.162
242.030	15.013	896.588	676.402
243.045	15.099	895.748	676.057
244.059	15.136	894.938	675.536
245.074	15.189	894.306	675.214
246.088	15.020	894.453	674.581
247.103	15.262	893.331	674.650
248.117	15.266	892.782	674.192
249.132	15.147	892.462	673.411
250.147	15.221	891.437	672.878
251.161	15.309	890.686	672.602
252.176	15.396	890.087	672.440
253.190	15.414	889.352	671.898
254.205	15.378	888.928	671.375
255.220	15.352	888.432	670.834
256.234	15.565	887.403	670.852
257.249	15.576	887.041	670.560
258.263	15.387	886.821	669.581
259.278	15.430	886.090	669.140
260.293	15.498	885.559	668.951
261.307	15.493	884.847	668.333
262.322	15.629	884.014	668.189
263.336	15.535	883.535	667.391
264.351	15.694	882.782	667.397
265.366	15.728	882.126	666.977
266.380	15.712	881.452	666.343
267.395	15.713	880.672	665.698
268.409	15.672	880.144	665.077
269.424	15.688	879.448	664.560
270.439	15.714	878.496	663.880
271.453	15.814	877.967	663.817
272.468	15.644	877.560	662.781
273.482	15.568	876.742	661.804
274.497	15.601	876.288	661.533
275.512	15.752	875.414	661.411
276.526	15.737	874.538	660.628
277.541	15.788	874.070	660.420
278.555	15.773	873.422	659.814
279.570	15.837	872.872	659.588
280.585	15.839	872.497	659.254
281.599	15.900	871.720	658.846
282.614	15.855	871.057	658.113
283.628	15.823	870.630	657.605
284.643	15.947	870.096	657.628
285.657	15.880	869.558	656.903
286.672	15.932	869.266	656.826
287.687	15.920	868.661	656.264
288.701	15.944	867.959	655.772
289.716	15.965	867.430	655.393
290.730	15.976	866.516	654.688
291.745	16.019	865.843	654.289
292.760	15.971	865.530	653.806
293.774	15.947	865.310	653.493
294.789	16.204	863.902	653.366
295.803	16.095	863.547	652.618
296.818	16.028	862.998	651.884
297.833	16.113	862.391	651.696
298.847	16.069	861.714	650.960
299.862	16.135	860.917	650.554
300.876	16.132	860.006	649.797
301.891	16.170	859.819	649.742
302.906	16.275	858.961	649.441
303.920	16.286	858.291	648.922
304.935	16.183	857.610	647.952
305.949	16.299	856.922	647.820
306.964	16.316	856.068	647.184
307.979	16.162	855.960	646.454
308.993	16.237	855.483	646.321
310.008	16.497	854.876	646.802
311.022	16.287	854.541	645.687
312.037	16.271	853.965	645.133
313.052	16.353	853.686	645.178
314.066	16.434	852.908	644.845
315.081	16.365	852.061	643.883
316.095	16.267	851.809	643.264
317.110	16.383	850.966	643.009
318.125	16.235	850.650	642.152
319.139	16.406	849.946	642.216
320.154	16.274	849.573	641.375
321.168	16.388	848.912	641.251
322.183	16.376	848.687	640.977
323.197	16.383	847.742	640.236
324.212	16.432	847.217	639.967
325.227	16.573	846.571	639.956
326.241	16.542	846.130	639.449
327.256	16.437	845.850	638.785
328.270	16.454	845.196	638.297
329.285	16.452	844.381	637.619
330.300	16.425	844.125	637.268
331.314	16.410	843.769	636.885
332.329	16.544	842.770	636.579
333.343	16.412	841.970	635.422
334.358	16.535	841.313	635.334
335.373	16.585	840.965	635.201
336.387	16.575	840.470	634.734
337.402	16.611	839.786	634.297
338.416	16.581	839.345	633.795
339.431	16.731	838.560	633.704
340.446	16.720	838.031	633.209
341.460	16.849	837.495	633.230
342.475	16.812	836.889	632.579
343.489	16.845	836.482	632.339
344.504	16.842	835.914	631.839
345.519	16.827	835.258	631.233
346.533	16.961	834.925	631.422
347.548	16.979	834.255	630.930
348.562	16.850	834.236	630.379
349.577	16.877	833.444	629.824
350.592	16.904	832.980	629.519
351.606	16.840	832.497	628.861
352.621	16.873	831.944	628.509
353.635	17.002	831.512	628.604
354.650	16.821	831.499	627.868
355.665	16.874	831.059	627.677
356.679	16.972	830.151	627.298
357.694	17.070	829.420	627.053
358.708	17.015	828.911	626.411
359.723	17.073	828.449	626.219
360.738	17.034	828.190	625.826
361.752	17.060	827.702	625.497
362.767	16.928	827.378	624.709
363.781	17.136	826.589	624.825
364.796	17.065	826.345	624.325
365.810	17.151	825.345	623.828
366.825	17.163	825.168	623.685
367.840	17.270	825.199	624.044
368.854	17.204	824.455	623.185
369.869	17.226	824.155	622.982
370.883	17.214	823.348	622.273
371.898	17.185	823.103	621.926
372.913	17.369	822.172	621.844
373.927	17.256	821.576	620.923
374.942	17.368	820.833	620.717
375.956	17.427	820.297	620.470
376.971	17.346	819.542	619.549
377.986	17.327	819.285	619.232
379.000	17.437	818.788	619.201
380.015	17.553	817.921	618.914
381.029	17.462	818.014	618.599
382.044	17.473	817.151	617.930
383.059	17.398	816.797	617.335
384.073	17.452	816.170	617.004
385.088	17.625	815.568	617.119
386.102	17.496	815.129	616.267
387.117	17.374	814.565	615.343
388.132	17.537	813.931	615.399
389.146	17.560	813.862	615.375
390.161	17.508	813.444	614.816
391.175	17.421	813.194	614.260
392.190	17.586	812.596	614.348
393.205	17.530	812.187	613.784
394.219	17.516	811.942	613.494
395.234	17.622	810.874	613.014
396.248	17.584	810.560	612.584
397.263	17.550	810.204	612.140
398.278	17.543	809.696	611.677
399.292	17.533	809.410	611.370
400.307	17.573	808.994	611.146
401.321	17.715	808.421	611.166
402.336	17.577	808.241	610.482
403.350	17.614	807.836	610.257
404.365	17.639	807.134	609.761
405.380	17.546	806.940	609.227
406.394	17.703	806.253	609.218
407.409	17.757	805.667	608.913
408.423	17.881	805.096	608.870
409.438	17.898	804.640	608.532
410.453	17.787	804.576	608.032
411.467	17.903	803.859	607.851
412.482	17.905	803.386	607.445
413.496	17.990	802.821	607.268
414.511	18.129	802.486	607.455
415.526	18.076	802.225	607.016
416.540	17.987	802.229	606.649
417.555	18.112	801.285	606.323
418.569	18.030	800.923	605.706
419.584	18.093	800.470	605.533
420.599	18.049	800.092	605.039
421.613	108.530	1288.821	1459.606
422.628	93.418	1360.006	1459.717
