DTS Sentinel unit serial number:	SN413079Multiplexer serial number:	ORYXHardware model number:	OX4-SRSoftware version number:	ORYX F/W v4.00 Oryx Data Collector v3.7.2.0data status	okinstallation	princeton_trtdifferential loss correction	single-endedforward channel	channel 3reverse channel	N/Adate	2019/09/19time	05:04:34forward acquisition time	60.00reverse acquisition time	0.00gamma	496.2192k internal	0.2348k external	0.2348temperature offset calibration	0.9991default loss term (dB/km)	0.3790temperature slope calibration	1.0000multiplexer offset coefficient	1.0000multiplexer slope coefficient	1.0000fibre end	0.00T internal ref (°C)	19.62T ext. ref 1 (°C)	0.61T ext. ref 2 (°C)	12.83length (m)	temperature (°C)	Stokes	anti-Stokes-747.200	-83.877	-0.173	-0.055
-746.185	-200.000	0.014	-0.086
-745.171	-86.083	0.243	-0.075
-744.156	-76.873	-0.249	0.087
-743.142	478.224	0.052	0.118
-742.127	484.706	-0.077	0.175
-741.112	461.950	-0.016	-0.036
-740.098	329.721	-0.150	0.288
-739.083	-79.484	-0.211	-0.071
-738.069	509.202	-0.184	0.427
-737.054	256.569	-0.117	0.200
-736.039	12.660	-0.275	-0.212
-735.025	-90.179	0.474	0.138
-734.010	9.874	0.126	-0.096
-732.996	82.387	-0.232	-0.252
-731.981	200.887	0.077	-0.119
-730.966	-29.816	-0.110	-0.063
-729.952	755.022	-0.045	-0.120
-728.937	28.235	-0.244	-0.206
-727.923	18.287	-0.232	-0.185
-726.908	800.000	-0.030	-0.111
-725.894	-77.886	0.352	-0.121
-724.879	-44.955	-0.138	0.068
-723.864	335.267	-0.232	-0.449
-722.850	183.596	-0.252	-0.372
-721.835	-200.000	-0.004	-0.045
-720.821	171.155	0.128	0.183
-719.806	-154.569	-0.027	-0.002
-718.791	103.754	0.239	-0.280
-717.777	-52.904	-0.181	-0.083
-716.762	-3.942	0.152	-0.106
-715.748	27.791	0.041	-0.035
-714.733	438.813	-0.209	0.455
-713.718	-67.609	-0.159	0.062
-712.704	-64.353	0.210	-0.085
-711.689	272.978	-0.094	0.165
-710.675	800.000	0.086	-0.299
-709.660	-200.000	-0.045	-0.358
-708.645	531.477	0.063	-0.148
-707.631	-53.853	-0.245	0.111
-706.616	746.470	0.140	-0.376
-705.602	-7.700	0.202	-0.136
-704.587	800.000	0.099	-0.344
-703.572	-36.965	0.183	-0.098
-702.558	-62.981	0.432	0.178
-701.543	-200.000	0.001	0.035
-700.529	-146.678	-0.171	-0.015
-699.514	43.017	0.165	0.150
-698.499	77.026	0.147	-0.155
-697.485	-200.000	0.008	-0.093
-696.470	-138.111	-0.243	0.027
-695.456	18.956	0.202	0.162
-694.441	246.910	0.033	-0.055
-693.426	-166.081	-0.438	-0.019
-692.412	509.021	0.106	-0.245
-691.397	-8.517	-0.377	0.252
-690.383	-81.761	-0.120	-0.039
-689.368	116.405	0.049	0.060
-688.354	-115.323	0.189	-0.036
-687.339	-28.077	-0.274	-0.158
-686.324	-200.000	0.029	0.311
-685.310	579.340	-0.046	-0.111
-684.295	800.000	0.114	-0.320
-683.281	800.000	0.037	-0.144
-682.266	25.299	0.180	0.149
-681.251	67.899	-0.060	-0.061
-680.237	177.938	0.037	-0.054
-679.222	746.671	-0.050	0.136
-678.208	22.153	0.109	0.089
-677.193	71.517	0.109	-0.113
-676.178	-94.704	0.042	0.011
-675.164	73.878	0.136	0.142
-674.149	-34.040	0.300	-0.164
-673.135	131.518	0.099	0.127
-672.120	800.000	0.051	0.146
-671.105	800.000	-0.104	-0.305
-670.091	800.000	0.115	-0.408
-669.076	800.000	-0.097	0.306
-668.062	-200.000	-0.003	0.275
-667.047	-26.641	-0.195	-0.113
-666.032	-200.000	-0.006	0.107
-665.018	394.831	0.051	-0.105
-664.003	95.313	-0.166	0.189
-662.989	-200.000	-0.013	-0.178
-661.974	205.274	-0.097	-0.150
-660.959	84.002	-0.074	-0.081
-659.945	-200.000	0.019	-0.226
-658.930	800.000	0.056	-0.223
-657.916	-47.849	-0.080	0.039
-656.901	126.705	-0.029	-0.036
-655.886	-88.273	-0.216	0.064
-654.872	77.325	0.047	-0.050
-653.857	-83.073	-0.131	-0.042
-652.843	800.000	0.041	-0.124
-651.828	800.000	0.144	0.431
-650.814	98.381	-0.154	-0.177
-649.799	379.958	0.169	-0.346
-648.784	-80.166	-0.275	-0.092
-647.770	-0.479	-0.415	0.293
-646.755	-90.478	0.379	-0.109
-645.741	-7.294	-0.197	0.133
-644.726	-200.000	0.040	-0.197
-643.711	-178.111	-0.205	0.005
-642.697	-148.923	0.523	-0.042
-641.682	800.000	0.090	-0.326
-640.668	351.316	-0.030	0.058
-639.653	-44.019	-0.461	0.230
-638.638	-38.677	0.194	0.102
-637.624	197.815	0.150	-0.229
-636.609	139.411	0.070	0.092
-635.595	-95.395	-0.288	-0.077
-634.580	226.857	-0.097	0.157
-633.565	71.391	-0.097	-0.100
-632.551	-200.000	-0.017	0.128
-631.536	-104.355	0.052	0.012
-630.522	64.109	-0.072	0.072
-629.507	56.984	0.185	0.180
-628.492	135.783	-0.262	-0.340
-627.478	123.077	0.049	-0.061
-626.463	-200.000	-0.011	-0.213
-625.449	0.436	0.157	-0.111
-624.434	198.210	0.133	0.202
-623.419	73.887	-0.150	-0.156
-622.405	208.479	0.155	-0.240
-621.390	-115.087	-0.139	-0.026
-620.376	-200.000	0.000	-0.096
-619.361	15.925	-0.198	0.155
-618.346	106.540	-0.059	-0.069
-617.332	800.000	-0.074	-0.253
-616.317	-8.627	0.304	-0.203
-615.303	-200.000	-0.016	0.270
-614.288	703.642	-0.173	-0.453
-613.273	-200.000	-0.031	-0.289
-612.259	-100.802	-0.204	0.050
-611.244	794.008	0.173	-0.474
-610.230	411.308	0.086	0.182
-609.215	54.837	-0.181	0.173
-608.201	38.967	0.211	-0.188
-607.186	-20.983	-0.231	-0.140
-606.171	-42.949	-0.240	0.121
-605.157	800.000	0.040	0.131
-604.142	32.497	-0.436	0.374
-603.128	-131.410	-0.088	0.011
-602.113	-200.000	0.029	-0.199
-601.098	-6.006	-0.136	0.093
-600.084	337.132	-0.074	-0.143
-599.069	800.000	0.073	0.231
-598.055	-71.068	-0.152	0.057
-597.040	-200.000	-0.033	0.177
-596.025	-200.000	0.014	0.073
-595.011	-21.760	0.343	-0.208
-593.996	800.000	0.057	0.245
-592.982	800.000	-0.115	0.319
-591.967	186.170	-0.163	-0.241
-590.952	-53.334	0.096	0.044
-589.938	-200.000	-0.046	0.253
-588.923	-65.715	-0.235	-0.094
-587.909	-200.000	-0.037	-0.344
-586.894	215.746	-0.093	-0.146
-585.879	22.797	-0.108	-0.088
-584.865	436.462	0.157	-0.340
-583.850	4.733	-0.137	0.100
-582.836	249.161	-0.086	0.145
-581.821	68.244	0.111	-0.113
-580.806	800.000	-0.056	-0.207
-579.792	204.428	0.186	-0.287
-578.777	-0.718	0.181	-0.128
-577.763	-119.128	-0.334	-0.058
-576.748	-28.535	-0.206	0.118
-575.733	50.857	0.065	-0.062
-574.719	-85.382	-0.261	-0.081
-573.704	100.651	-0.109	0.126
-572.690	-33.333	-0.280	0.154
-571.675	-3.410	-0.199	0.138
-570.661	-200.000	-0.020	-0.141
-569.646	425.856	-0.063	-0.134
-568.631	-103.502	0.177	0.041
-567.617	258.251	-0.123	0.211
-566.602	-200.000	0.045	-0.270
-565.588	-135.017	-0.076	-0.009
-564.573	-97.190	0.067	0.017
-563.558	-90.654	0.196	-0.056
-562.544	-200.000	0.018	0.105
-561.529	92.512	-0.061	-0.068
-560.515	800.000	0.063	-0.254
-559.500	-200.000	-0.076	-0.495
-558.485	44.019	-0.096	0.087
-557.471	80.960	-0.167	0.179
-556.456	800.000	-0.027	-0.076
-555.442	-200.000	0.002	0.058
-554.427	800.000	-0.047	0.133
-553.412	-28.511	-0.099	0.056
-552.398	-200.000	0.035	0.180
-551.383	-200.000	0.042	0.340
-550.369	41.259	-0.108	0.097
-549.354	-86.449	0.352	0.107
-548.339	74.462	-0.257	0.268
-547.325	-200.000	-0.041	-0.368
-546.310	183.782	-0.205	0.300
-545.296	-6.524	0.312	-0.211
-544.281	376.028	-0.112	0.227
-543.266	-107.957	0.303	0.065
-542.252	-68.358	-0.232	0.089
-541.237	12.741	0.217	-0.166
-540.223	89.861	-0.153	0.169
-539.208	-172.640	-0.070	0.002
-538.193	-27.248	0.387	-0.223
-537.179	273.310	0.106	-0.186
-536.164	-200.000	-0.021	-0.141
-535.150	-118.838	0.173	0.030
-534.135	-200.000	0.013	-0.089
-533.121	200.799	-0.072	-0.109
-532.106	133.876	0.097	0.125
-531.091	800.000	-0.129	-0.400
-530.077	-200.000	-0.019	0.114
-529.062	800.000	0.099	-0.319
-528.048	77.254	-0.126	-0.132
-527.033	152.223	0.187	0.253
-526.018	-37.097	-0.322	0.171
-525.004	704.953	0.095	-0.247
-523.989	237.887	0.069	0.114
-522.975	-200.000	0.015	0.100
-521.960	-200.000	0.021	0.164
-520.945	800.000	0.064	0.189
-519.931	5.737	0.051	-0.037
-518.916	348.750	0.127	0.247
-517.902	193.162	0.162	-0.243
-516.887	800.000	-0.079	-0.304
-515.872	-200.000	-0.056	-0.445
-514.858	221.897	-0.125	-0.198
-513.843	81.403	-0.146	0.156
-512.829	-173.918	-0.179	-0.005
-511.814	14.858	0.163	-0.126
-510.799	800.000	-0.102	-0.356
-509.785	-69.701	-0.220	-0.083
-508.770	-200.000	0.028	-0.174
-507.756	-36.269	-0.002	-0.001
-506.741	-200.000	-0.001	-0.194
-505.726	-200.000	0.027	-0.269
-504.712	322.894	-0.046	0.086
-503.697	55.215	0.176	-0.169
-502.683	800.000	-0.096	-0.395
-501.668	-187.779	-0.268	-0.003
-500.653	800.000	-0.109	-0.381
-499.639	129.419	0.077	-0.097
-498.624	-52.706	0.266	-0.122
-497.610	-200.000	0.015	-0.520
-496.595	-149.050	-0.230	-0.018
-495.581	75.334	0.141	0.148
-494.566	-66.805	-0.158	-0.062
-493.551	10.480	-0.173	-0.131
-492.537	-200.000	0.033	-0.173
-491.522	9.496	-0.062	0.047
-490.508	67.499	-0.258	0.261
-489.493	190.679	-0.135	0.200
-488.478	-103.154	0.260	0.061
-487.464	-200.000	0.058	-0.283
-486.449	-200.000	-0.010	-0.116
-485.435	62.674	0.070	-0.069
-484.420	93.253	0.210	-0.234
-483.405	-136.499	-0.149	-0.017
-482.391	219.969	-0.077	-0.122
-481.376	-115.264	0.124	-0.023
-480.362	-159.603	0.367	0.020
-479.347	-95.792	-0.060	0.016
-478.332	-30.589	0.177	-0.099
-477.318	-200.000	-0.002	-0.032
-476.303	3.296	0.151	-0.109
-475.289	-54.450	0.214	-0.096
-474.274	800.000	-0.077	0.237
-473.259	-9.814	-0.139	-0.091
-472.245	548.059	0.057	-0.134
-471.230	-9.480	0.174	0.115
-470.216	-20.921	-0.142	-0.086
-469.201	-57.825	0.081	-0.035
-468.186	340.363	-0.149	-0.288
-467.172	15.579	0.137	0.106
-466.157	-121.437	-0.191	-0.031
-465.143	-200.000	0.039	0.270
-464.128	53.859	0.152	0.144
-463.113	86.417	0.091	0.099
-462.099	800.000	-0.084	0.319
-461.084	22.448	-0.065	-0.052
-460.070	-113.979	-0.343	0.066
-459.055	116.245	0.122	0.147
-458.040	49.345	0.232	0.216
-457.026	-200.000	0.039	0.171
-456.011	397.560	0.181	-0.374
-454.997	-35.192	-0.017	0.009
-453.982	-115.143	-0.324	-0.061
-452.968	-135.333	0.247	0.029
-451.953	800.000	-0.025	0.101
-450.938	0.504	0.232	-0.163
-449.924	800.000	-0.072	-0.206
-448.909	239.166	-0.051	0.084
-447.895	518.764	0.108	0.251
-446.880	704.613	0.070	-0.183
-445.865	478.044	0.153	-0.341
-444.851	-163.039	0.113	-0.005
-443.836	114.393	0.005	0.006
-442.822	-56.533	0.233	0.102
-441.807	-64.918	-0.181	0.072
-440.792	-149.171	0.329	0.026
-439.778	45.853	-0.028	0.026
-438.763	19.682	0.205	-0.163
-437.749	-99.709	-0.223	0.055
-436.734	-70.528	0.149	0.056
-435.719	169.517	-0.157	-0.221
-434.705	233.323	0.204	-0.331
-433.690	-19.267	-0.123	-0.075
-432.676	18.283	-0.170	0.134
-431.661	-179.314	-0.232	-0.005
-430.646	201.335	0.082	0.125
-429.632	27.137	-0.313	0.259
-428.617	-200.000	-0.007	-0.142
-427.603	-66.726	0.081	0.032
-426.588	521.345	-0.061	-0.142
-425.573	99.430	-0.210	-0.239
-424.559	-96.406	-0.329	0.086
-423.544	-22.264	0.173	-0.103
-422.530	-200.000	0.019	-0.120
-421.515	800.000	-0.062	-0.226
-420.500	175.732	0.036	0.051
-419.486	-102.671	0.233	0.055
-418.471	-85.855	-0.241	0.074
-417.457	-130.350	-0.206	-0.028
-416.442	-144.956	0.353	0.032
-415.428	79.188	-0.335	0.354
-414.413	-200.000	-0.019	0.159
-413.398	16.738	0.310	0.242
-412.384	412.907	0.148	-0.309
-411.369	-200.000	0.033	0.208
-410.355	74.062	0.037	-0.038
-409.340	22.875	-0.209	0.169
-408.325	-34.953	-0.236	0.127
-407.311	319.428	0.069	0.129
-406.296	-200.000	-0.036	0.169
-405.282	-200.000	0.067	0.292
-404.267	-169.729	-0.173	-0.006
-403.252	-48.198	0.337	0.161
-402.238	98.962	-0.216	0.246
-401.223	-83.698	0.112	0.035
-400.209	-67.684	0.222	0.085
-399.194	-78.650	0.295	0.099
-398.179	800.000	-0.058	0.243
-397.165	210.470	-0.146	0.226
-396.150	79.601	0.176	-0.186
-395.136	800.000	0.019	-0.068
-394.121	-104.524	0.170	0.039
-393.106	-23.229	-0.122	-0.072
-392.092	80.789	-0.145	-0.154
-391.077	-66.008	-0.333	-0.131
-390.063	-0.269	0.329	0.231
-389.048	22.794	-0.083	-0.067
-388.033	-88.036	-0.117	-0.035
-387.019	-47.383	-0.244	-0.117
-386.004	-60.088	-0.353	-0.148
-384.990	214.728	0.137	0.214
-383.975	319.709	0.111	-0.208
-382.960	-136.153	0.029	-0.003
-381.946	55.096	0.216	0.206
-380.931	-174.494	0.148	-0.004
-379.917	686.258	0.065	-0.168
-378.902	-57.757	-0.397	-0.171
-377.888	-20.459	0.219	0.133
-376.873	23.000	-0.165	-0.133
-375.858	20.795	-0.189	-0.151
-374.844	79.070	0.059	-0.062
-373.829	56.632	0.360	-0.345
-372.815	674.806	0.110	-0.281
-371.800	800.000	-0.057	-0.211
-370.785	-102.495	-0.157	0.037
-369.771	-123.897	0.227	-0.035
-368.756	-119.019	0.244	0.042
-367.742	20.924	0.096	0.077
-366.727	115.808	-0.071	-0.085
-365.712	582.423	0.205	-0.495
-364.698	-160.224	0.127	0.007
-363.683	-200.000	-0.242	0.000
-362.669	-200.000	-0.096	-0.448
-361.654	0.715	0.152	-0.107
-360.639	-184.310	0.323	-0.005
-359.625	-200.000	0.022	0.197
-358.610	-200.000	-0.049	-0.302
-357.596	-58.282	-0.101	-0.043
-356.581	-200.000	-0.047	-0.226
-355.566	800.000	0.061	0.190
-354.552	265.020	0.079	0.135
-353.537	208.792	0.184	0.284
-352.523	-65.007	0.276	0.110
-351.508	-7.626	-0.334	0.222
-350.493	-128.002	0.103	-0.015
-349.479	-200.000	0.000	0.180
-348.464	-200.000	0.000	0.238
-347.450	494.292	-0.023	0.052
-346.435	-100.718	-0.253	0.061
-345.420	-26.814	0.389	0.224
-344.406	-43.302	0.031	0.015
-343.391	-84.207	-0.165	-0.051
-342.377	191.464	0.201	0.297
-341.362	100.398	0.059	-0.068
-340.348	484.505	0.082	-0.182
-339.333	-37.591	-0.164	-0.086
-338.318	159.954	-0.185	0.253
-337.304	441.341	-0.065	0.139
-336.289	406.143	-0.150	0.311
-335.275	-107.212	-0.222	-0.048
-334.260	-108.131	0.387	-0.082
-333.245	339.613	0.041	-0.079
-332.231	94.978	0.230	0.257
-331.216	-72.457	0.190	-0.069
-330.202	-40.495	-0.199	-0.102
-329.187	800.000	0.044	0.134
-328.172	-43.872	-0.272	0.135
-327.158	172.666	0.115	-0.162
-326.143	-200.000	-0.064	0.444
-325.129	326.481	-0.071	0.133
-324.114	31.516	-0.326	0.276
-323.099	-52.540	0.171	-0.078
-322.085	-200.000	0.036	-0.225
-321.070	8.450	-0.288	-0.213
-320.056	37.984	0.246	-0.215
-319.041	-135.629	0.120	-0.014
-318.026	11.724	-0.043	0.032
-317.012	670.156	0.012	0.031
-315.997	496.527	0.155	0.350
-314.983	-200.000	0.047	-0.386
-313.968	604.201	0.120	-0.292
-312.953	334.388	0.181	0.345
-311.939	237.042	-0.121	0.196
-310.924	-145.874	0.319	0.028
-309.910	109.553	-0.110	0.130
-308.895	81.504	-0.203	0.216
-307.880	-131.153	0.176	0.023
-306.866	-132.425	-0.227	-0.029
-305.851	-200.000	0.013	-0.101
-304.837	112.334	0.112	-0.133
-303.822	-64.926	0.181	0.072
-302.807	-64.995	-0.055	-0.022
-301.793	-37.907	-0.176	-0.092
-300.778	52.108	-0.085	0.079
-299.764	101.246	0.237	-0.271
-298.749	-123.302	0.183	0.029
-297.735	-200.000	-0.003	-0.082
-296.720	-200.000	0.072	0.312
-295.705	800.000	-0.044	-0.154
-294.691	229.927	-0.219	-0.351
-293.676	-200.000	-0.061	-0.286
-292.662	-200.000	-0.003	0.305
-291.647	-200.000	-0.007	-0.183
-290.632	79.795	-0.091	-0.096
-289.618	-16.140	-0.140	-0.087
-288.603	-123.627	0.054	-0.008
-287.589	394.813	0.106	0.216
-286.574	351.274	0.036	-0.070
-285.559	-51.135	0.065	-0.030
-284.545	473.174	0.135	0.299
-283.530	800.000	0.015	-0.058
-282.516	181.085	-0.314	0.453
-281.501	-93.219	0.147	-0.040
-280.486	-200.000	-0.010	0.059
-279.472	800.000	-0.103	0.343
-278.457	-200.000	-0.038	-0.359
-277.443	32.773	0.108	-0.092
-276.428	-49.603	0.266	0.124
-275.413	-51.539	-0.226	-0.103
-274.399	-39.822	-0.159	-0.081
-273.384	-200.000	-0.008	0.351
-272.370	-38.252	-0.243	-0.126
-271.355	-200.000	0.015	0.210
-270.340	78.805	-0.079	-0.083
-269.326	-200.000	0.029	-0.131
-268.311	-143.759	0.439	0.041
-267.297	134.712	0.220	0.280
-266.282	19.328	-0.094	0.074
-265.267	11.112	0.254	-0.190
-264.253	593.027	0.070	-0.169
-263.238	-73.867	0.341	0.122
-262.224	-105.434	0.079	0.018
-261.209	-200.000	0.001	-0.211
-260.195	-200.000	-0.016	0.168
-259.180	-78.034	0.046	-0.016
-258.165	10.365	-0.242	0.180
-257.151	48.513	-0.111	-0.102
-256.136	284.969	-0.105	0.185
-255.122	800.000	0.055	0.231
-254.107	37.199	-0.086	0.075
-253.092	240.382	-0.240	-0.392
-252.078	800.000	0.067	-0.280
-251.063	70.822	-0.079	-0.080
-250.049	-93.399	-0.156	0.042
-249.034	-94.341	-0.314	0.084
-248.019	-19.314	-0.210	0.128
-247.005	-178.217	0.269	0.006
-245.990	604.823	-0.086	-0.211
-244.976	-97.706	-0.103	-0.026
-243.961	-200.000	0.054	-0.328
-242.946	-21.717	0.474	-0.283
-241.932	-200.000	0.014	-0.093
-240.917	800.000	-0.053	0.179
-239.903	72.484	-0.154	-0.158
-238.888	-200.000	-0.335	0.001
-237.873	-36.551	0.240	0.126
-236.859	800.000	0.064	-0.194
-235.844	-63.746	0.185	0.074
-234.830	18.793	-0.060	0.047
-233.815	-55.382	0.241	0.106
-232.800	-47.450	0.165	0.078
-231.786	-38.324	-0.071	0.037
-230.771	140.033	0.250	0.323
-229.757	76.027	-0.183	-0.189
-228.742	-43.053	0.106	0.052
-227.727	-48.118	-0.527	-0.249
-226.713	-200.000	0.040	-0.256
-225.698	-138.000	-0.194	0.021
-224.684	197.919	-0.181	0.270
-223.669	800.000	-0.073	0.224
-222.655	18.903	0.192	0.150
-221.640	281.371	-0.190	0.332
-220.625	124.380	-0.220	0.271
-219.611	-200.000	0.028	-0.194
-218.596	-170.740	-0.140	0.005
-217.582	36.863	-0.214	0.185
-216.567	-105.536	-0.108	0.024
-215.552	-123.049	-0.033	-0.005
-214.538	-185.672	-0.384	-0.006
-213.523	-200.000	0.034	-0.203
-212.509	39.363	-0.131	-0.115
-211.494	-86.903	0.208	-0.062
-210.479	127.902	0.135	0.168
-209.465	29.248	0.252	0.209
-208.450	42.451	0.289	0.257
-207.436	-79.578	-0.042	0.014
-206.421	-200.000	-0.019	0.165
-205.406	800.000	-0.050	0.178
-204.392	-84.571	0.190	0.059
-203.377	15.922	0.368	0.284
-202.363	8.663	0.112	-0.082
-201.348	800.000	-0.083	0.331
-200.333	478.520	0.058	0.128
-199.319	-58.321	0.180	0.076
-198.304	387.877	0.147	0.297
-197.290	-17.426	-0.287	0.177
-196.275	-200.000	-0.036	0.167
-195.260	-5.039	0.350	0.236
-194.246	100.314	0.230	-0.261
-193.231	-49.774	0.119	0.055
-192.217	800.000	-0.044	0.147
-191.202	174.678	0.062	0.087
-190.187	-200.000	-0.016	0.158
-189.173	-108.877	0.169	-0.035
-188.158	228.905	0.204	0.326
-187.144	-35.238	0.155	-0.083
-186.129	-200.000	0.007	-0.158
-185.114	-3.612	0.223	0.152
-184.100	-29.825	-0.115	0.064
-183.085	800.000	0.054	0.188
-182.071	-64.986	0.289	0.114
-181.056	165.264	-0.090	-0.124
-180.042	800.000	-0.010	0.029
-179.027	-200.000	-0.027	-0.255
-178.012	638.094	-0.035	0.086
-176.998	-92.777	0.146	0.040
-175.983	800.000	0.028	0.084
-174.969	-200.000	0.024	0.213
-173.954	800.000	-0.106	0.361
-172.939	190.908	0.163	-0.240
-171.925	534.150	0.141	0.325
-170.910	800.000	0.082	-0.230
-169.896	-11.813	-0.176	0.113
-168.881	-67.985	-0.207	0.079
-167.866	-72.967	-0.254	0.091
-166.852	-145.522	0.244	-0.021
-165.837	800.000	-0.024	-0.090
-164.823	-131.046	-0.037	-0.005
-163.808	-200.000	0.041	0.363
-162.793	-200.000	-0.072	0.417
-161.779	270.141	-0.085	-0.145
-160.764	-23.549	-0.094	0.055
-159.750	-106.681	-0.236	0.051
-158.735	-81.027	-0.216	-0.070
-157.720	-200.000	0.019	0.267
-156.706	-86.171	0.169	-0.051
-155.691	1.200	-0.143	0.100
-154.677	800.000	0.052	-0.204
-153.662	-3.141	-0.252	0.172
-152.647	-200.000	0.045	-0.215
-151.633	-48.773	0.240	0.113
-150.618	38.503	-0.369	0.321
-149.604	-200.000	-0.044	0.271
-148.589	-30.009	0.313	-0.174
-147.574	37.879	0.303	0.263
-146.560	52.490	-0.154	0.143
-145.545	181.843	0.406	-0.583
-144.531	800.000	-0.022	0.061
-143.516	-65.850	0.259	0.101
-142.502	106.913	-0.121	0.140
-141.487	-98.371	0.359	-0.090
-140.472	323.115	0.158	0.294
-139.458	99.611	0.214	-0.242
-138.443	-137.523	0.095	-0.010
-137.429	317.503	-0.083	0.152
-136.414	-200.000	0.051	0.241
-135.399	-49.677	-0.202	-0.094
-134.385	700.804	-0.078	-0.200
-133.370	800.000	0.013	-0.039
-132.356	10.125	-0.151	-0.112
-131.341	91.694	-0.155	0.170
-130.326	12.958	-0.096	0.073
-129.312	677.534	-0.015	0.039
-128.297	-100.984	0.382	0.091
-127.283	-7.737	0.098	-0.065
-126.268	-145.074	0.180	0.016
-125.253	-101.155	0.135	0.032
-124.239	515.735	-0.088	0.199
-123.224	59.128	0.246	0.236
-122.210	-200.000	-0.004	-0.306
-121.195	-200.000	-0.002	-0.159
-120.180	135.484	-0.187	0.237
-119.166	-108.074	-0.171	-0.036
-118.151	-200.000	-0.019	0.128
-117.137	-161.535	0.399	0.020
-116.122	-46.371	-0.283	-0.135
-115.107	-200.000	-0.070	-0.416
-114.093	128.680	0.379	0.471
-113.078	181.724	-0.296	-0.425
-112.064	370.461	0.006	0.012
-111.049	38.886	-0.116	-0.101
-110.034	-50.063	-0.103	0.048
-109.020	140.335	0.199	0.255
-108.005	39.739	-0.264	0.231
-106.991	-166.876	0.097	-0.004
-105.976	25.688	0.152	0.123
-104.962	250.618	-0.122	-0.201
-103.947	342.559	0.193	-0.368
-102.932	-8.946	0.116	0.075
-101.918	762.931	0.079	-0.209
-100.903	77.342	0.255	0.264
-99.889	-200.000	0.053	0.348
-98.874	38.419	0.021	0.018
-97.859	-23.031	0.276	-0.162
-96.845	-1.748	0.202	0.138
-95.830	371.675	0.136	0.268
-94.816	52.035	-0.178	0.165
-93.801	74.644	-0.080	-0.082
-92.786	-200.000	0.037	0.281
-91.772	-200.000	-0.035	-0.151
-90.757	-147.730	0.524	-0.043
-89.743	800.000	0.061	-0.203
-88.728	-200.000	0.008	-0.117
-87.713	-3.897	-0.066	-0.044
-86.699	-200.000	-0.017	0.341
-85.684	46.157	-0.219	-0.197
-84.670	33.759	-0.131	-0.111
-83.655	-105.470	0.167	-0.037
-82.640	18.964	-0.261	-0.204
-81.626	345.076	0.205	-0.391
-80.611	-200.000	0.057	0.361
-79.597	357.086	-0.113	0.219
-78.582	99.955	0.085	0.096
-77.567	96.422	0.082	0.091
-76.553	43.658	-0.165	0.147
-75.538	33.618	0.299	0.253
-74.524	800.000	-0.064	-0.178
-73.509	-129.463	0.160	0.022
-72.494	-110.538	-0.118	0.024
-71.480	-200.000	-0.049	0.215
-70.465	-200.000	0.186	0.000
-69.451	800.000	0.039	-0.134
-68.436	600.014	-0.099	0.240
-67.422	54.252	0.131	0.123
-66.407	800.000	0.093	0.330
-65.392	-81.573	0.113	0.036
-64.378	7.391	0.193	-0.140
-63.363	800.000	0.048	-0.155
-62.349	301.081	-0.015	0.026
-61.334	119.661	-1.042	-1.256
-60.319	16.454	0.847	0.651
-59.305	694.102	-0.448	-1.144
-58.290	292.575	0.858	1.521
-57.276	478.298	0.712	1.568
-56.261	-200.000	136.812	623.035
-55.246	338.309	1647.529	3118.376
-54.232	137.109	2780.201	3534.332
-53.217	81.478	2181.646	2294.011
-52.203	29.236	1700.544	1404.086
-51.188	22.516	1525.877	1213.694
-50.173	21.019	1505.025	1186.878
-49.159	43.514	1582.190	1406.521
-48.144	39.902	1592.189	1389.991
-47.130	22.488	1541.216	1225.504
-46.115	19.859	1525.306	1194.682
-45.100	19.749	1521.656	1191.017
-44.086	19.684	1519.823	1189.085
-43.071	19.590	1517.695	1186.730
-42.057	19.540	1516.559	1185.447
-41.042	19.588	1515.290	1184.742
-40.027	19.731	1513.312	1184.126
-39.013	19.553	1512.094	1181.904
-37.998	19.601	1510.544	1180.979
-36.984	19.569	1509.526	1179.917
-35.969	19.673	1508.217	1179.558
-34.954	19.463	1507.515	1177.530
-33.940	19.561	1505.595	1176.649
-32.925	19.666	1504.096	1176.143
-31.911	19.666	1502.820	1175.099
-30.896	19.636	1501.799	1174.054
-29.881	19.748	1499.986	1173.349
-28.867	19.661	1498.672	1171.682
-27.852	19.633	1497.772	1170.742
-26.838	19.747	1495.954	1170.050
-25.823	19.694	1494.521	1168.525
-24.809	19.708	1493.359	1167.662
-23.794	19.665	1491.763	1166.077
-22.779	19.750	1490.576	1165.675
-21.765	19.674	1489.944	1164.620
-20.750	19.653	1488.683	1163.448
-19.736	19.644	1487.273	1162.240
-18.721	19.578	1486.709	1161.312
-17.706	19.642	1485.059	1160.407
-16.692	19.553	1484.271	1159.145
-15.677	19.698	1483.366	1159.366
-14.663	19.621	1482.326	1157.991
-13.648	19.603	1481.160	1156.914
-12.633	19.571	1480.258	1155.946
-11.619	19.558	1479.574	1155.285
-10.604	19.536	1478.807	1154.493
-9.590	19.604	1477.636	1153.983
-8.575	19.712	1476.540	1153.803
-7.560	19.646	1475.893	1152.813
-6.546	19.547	1475.244	1151.598
-5.531	19.642	1474.112	1151.302
-4.517	19.623	1472.339	1149.743
-3.502	19.581	1472.003	1149.156
-2.487	19.674	1470.745	1148.749
-1.473	19.659	1469.737	1147.815
-0.458	19.703	1468.541	1147.130
0.556	18.642	1458.013	1134.611
1.571	15.182	1434.703	1093.825
2.586	11.531	1373.158	1023.954
3.600	9.963	1288.423	951.456
4.615	9.206	1244.433	914.581
5.629	8.310	1188.920	868.828
6.644	4.310	1110.286	790.937
7.659	1.138	1076.796	751.306
8.673	0.785	1071.692	745.940
9.688	0.567	1068.297	742.439
10.702	0.559	1066.697	741.221
11.717	0.510	1064.659	739.500
12.731	1.968	1064.502	746.466
13.746	6.734	1071.295	774.592
14.761	13.167	1079.736	812.346
15.775	16.782	1084.067	833.349
16.790	16.892	1082.934	832.944
17.804	15.995	1080.795	826.827
18.819	15.199	1078.955	821.443
19.834	14.620	1077.436	817.382
20.848	14.394	1076.684	815.632
21.863	14.090	1075.920	813.493
22.877	13.934	1075.177	812.098
23.892	13.649	1074.372	810.024
24.907	13.616	1073.520	809.148
25.921	13.612	1072.650	808.405
26.936	13.709	1072.068	808.366
27.950	13.678	1071.251	807.529
28.965	13.717	1070.798	807.303
29.980	13.749	1069.427	806.356
30.994	13.814	1068.720	806.068
32.009	13.815	1067.929	805.401
33.023	13.958	1066.931	805.273
34.038	13.877	1066.504	804.486
35.053	13.827	1065.471	803.395
36.067	13.875	1064.271	802.650
37.082	13.828	1063.816	802.009
38.096	13.827	1063.219	801.482
39.111	13.917	1062.057	800.969
40.126	13.829	1061.328	799.927
41.140	13.701	1060.308	798.468
42.155	13.652	1059.346	797.439
43.169	13.700	1058.253	796.774
44.184	13.762	1057.019	796.076
45.199	13.657	1056.248	794.921
46.213	13.642	1054.852	793.727
47.228	13.790	1053.886	793.638
48.242	13.798	1053.072	792.995
49.257	13.686	1052.544	791.989
50.271	13.735	1051.133	791.092
51.286	13.657	1050.813	790.410
52.301	13.757	1049.500	789.827
53.315	13.763	1048.855	789.301
54.330	13.851	1047.921	788.944
55.344	13.822	1047.092	788.113
56.359	13.702	1045.776	786.486
57.374	13.812	1044.832	786.229
58.388	13.678	1044.411	785.205
59.403	13.719	1043.115	784.358
60.417	13.638	1042.611	783.523
61.432	13.785	1041.564	783.365
62.447	13.657	1041.012	782.275
63.461	13.655	1040.121	781.526
64.476	13.647	1039.139	780.680
65.490	13.678	1038.038	779.932
66.505	13.700	1037.262	779.384
67.520	13.610	1036.663	778.442
68.534	13.706	1035.886	778.237
69.549	13.644	1035.325	777.459
70.563	13.696	1034.580	777.072
71.578	13.719	1034.025	776.696
72.593	13.686	1032.783	775.541
73.607	13.735	1031.287	774.578
74.622	13.599	1031.204	773.812
75.636	13.652	1030.365	773.360
76.651	13.646	1029.784	772.827
77.666	13.660	1028.488	771.850
78.680	13.559	1027.866	770.846
79.695	13.555	1027.581	770.544
80.709	13.672	1026.755	770.400
81.724	13.642	1026.028	769.651
82.739	13.634	1024.994	768.769
83.753	13.821	1024.256	769.014
84.768	13.770	1023.413	768.076
85.782	13.724	1022.946	767.445
86.797	13.951	1021.731	767.516
87.812	13.754	1021.170	766.117
88.826	13.834	1019.982	765.526
89.841	13.818	1019.123	764.740
90.855	13.972	1018.327	764.785
91.870	13.793	1017.690	763.414
92.884	13.744	1017.253	762.791
93.899	13.913	1015.879	762.470
94.914	13.878	1015.782	762.168
95.928	13.940	1014.818	761.663
96.943	13.865	1014.171	760.767
97.957	13.941	1013.009	760.177
98.972	13.928	1012.315	759.527
99.987	13.949	1011.222	758.736
101.001	13.844	1010.843	757.906
102.016	14.016	1010.216	758.155
103.030	13.793	1009.123	756.252
104.045	13.850	1008.086	755.667
105.060	13.934	1007.220	755.331
106.074	13.865	1005.672	753.793
107.089	13.746	1005.170	752.809
108.103	13.924	1004.284	752.886
109.118	13.811	1003.475	751.700
110.133	13.706	1002.487	750.417
111.147	13.669	1002.145	749.930
112.162	13.752	1001.038	749.407
113.176	13.904	999.941	749.209
114.191	13.940	999.109	748.681
115.206	13.809	998.338	747.446
116.220	13.812	997.238	746.568
117.235	13.863	996.413	746.117
118.249	13.847	995.954	745.633
119.264	13.755	995.108	744.520
120.279	13.755	994.327	743.870
121.293	13.895	993.195	743.587
122.308	13.811	992.447	742.584
123.322	13.783	991.675	741.817
124.337	13.741	990.646	740.791
125.352	13.825	989.388	740.161
126.366	13.725	988.483	738.972
127.381	13.788	987.207	738.232
128.395	13.760	986.394	737.438
129.410	13.671	985.583	736.368
130.424	13.792	984.302	735.885
131.439	13.762	983.683	735.221
132.454	13.850	982.581	734.723
133.468	13.871	982.142	734.421
134.483	13.641	981.937	733.189
135.497	13.783	980.854	732.942
136.512	13.773	980.257	732.389
137.527	13.768	979.252	731.548
138.541	13.906	978.148	731.268
139.556	13.835	977.728	730.574
140.570	13.884	976.948	730.145
141.585	13.996	976.250	730.051
142.600	13.944	975.792	729.415
143.614	14.037	974.901	729.093
144.629	14.007	974.024	728.241
145.643	13.967	973.478	727.593
146.658	13.909	972.875	726.822
147.673	14.082	971.432	726.434
148.687	13.970	970.490	725.178
149.702	14.031	969.661	724.760
150.716	14.005	969.115	724.177
151.731	13.930	968.088	723.018
152.746	13.913	967.196	722.214
153.760	14.012	966.683	722.197
154.775	13.935	965.883	721.200
155.789	14.110	964.429	720.812
156.804	14.229	964.007	720.947
157.819	14.115	963.295	719.859
158.833	14.253	962.758	719.988
159.848	14.185	962.170	719.194
160.862	14.120	961.593	718.416
161.877	14.059	960.676	717.403
162.892	14.127	959.866	717.029
163.906	14.060	959.058	716.075
164.921	14.013	958.454	715.355
165.935	14.091	957.004	714.548
166.950	14.161	955.586	713.724
167.964	14.125	955.012	713.078
168.979	14.091	954.374	712.393
169.994	14.141	953.003	711.519
171.008	14.162	952.483	711.162
172.023	14.058	951.743	710.098
173.037	14.099	950.949	709.619
174.052	14.184	949.783	709.050
175.067	14.248	949.319	708.912
176.081	14.215	948.409	708.032
177.096	14.162	947.886	707.352
178.110	14.132	947.094	706.569
179.125	14.081	946.446	705.806
180.140	14.185	945.585	705.544
181.154	14.279	944.576	705.125
182.169	14.196	944.203	704.434
183.183	14.230	943.101	703.693
184.198	14.326	942.852	703.852
185.213	14.441	942.036	703.667
186.227	14.320	941.086	702.385
187.242	14.346	941.015	702.377
188.256	14.375	940.579	702.112
189.271	14.480	939.728	701.856
190.286	14.361	938.977	700.735
191.300	14.396	937.984	700.077
192.315	14.209	937.550	698.907
193.329	14.347	936.442	698.600
194.344	14.270	935.820	697.750
195.359	14.326	935.575	697.738
196.373	14.347	934.856	697.231
197.388	14.478	934.587	697.514
198.402	14.577	933.654	697.170
199.417	14.612	933.251	696.955
200.432	14.477	932.866	696.041
201.446	14.513	932.352	695.747
202.461	14.630	931.884	695.824
203.475	14.608	931.246	695.194
204.490	14.717	930.344	694.911
205.504	14.709	929.555	694.231
206.519	14.626	928.686	693.174
207.534	14.559	928.275	692.526
208.548	14.631	927.358	692.081
209.563	14.676	926.640	691.669
210.577	14.716	925.766	691.123
211.592	14.656	925.702	690.766
212.607	14.810	924.942	690.775
213.621	14.764	924.686	690.331
214.636	14.742	923.729	689.465
215.650	14.687	923.235	688.806
216.665	14.719	922.602	688.407
217.680	14.865	921.976	688.482
218.694	14.815	921.628	687.953
219.709	14.722	921.275	687.246
220.723	14.771	920.210	686.591
221.738	14.854	918.978	685.952
222.753	14.872	918.727	685.777
223.767	14.893	917.940	685.216
224.782	14.885	916.887	684.339
225.796	14.950	916.241	684.062
226.811	15.059	915.408	683.824
227.826	14.973	914.948	683.070
228.840	14.847	914.321	682.027
229.855	15.049	913.589	682.243
230.869	15.015	912.989	681.594
231.884	14.897	912.450	680.652
232.899	15.050	911.568	680.556
233.913	14.970	910.885	679.662
234.928	14.975	910.182	679.095
235.942	14.945	909.678	678.538
236.957	15.023	908.790	678.135
237.972	14.894	908.573	677.387
238.986	14.997	907.717	677.107
240.001	15.003	907.014	676.546
241.015	14.996	906.394	675.995
242.030	14.951	905.664	675.211
243.045	15.082	904.886	675.101
244.059	15.136	904.102	674.672
245.074	15.161	903.420	674.204
246.088	15.230	902.448	673.695
247.103	15.276	902.320	673.726
248.117	15.176	901.724	672.821
249.132	15.212	901.311	672.596
250.147	15.290	900.862	672.514
251.161	15.170	900.012	671.339
252.176	15.303	899.012	671.066
253.190	15.369	898.532	670.914
254.205	15.326	897.982	670.271
255.220	15.552	897.273	670.587
256.234	15.529	896.433	669.808
257.249	15.365	895.970	668.746
258.263	15.528	895.159	668.730
259.278	15.466	894.422	667.876
260.293	15.489	894.355	667.860
261.307	15.621	893.585	667.748
262.322	15.602	893.094	667.246
263.336	15.664	892.254	666.806
264.351	15.583	891.992	666.231
265.366	15.726	891.344	666.252
266.380	15.537	890.943	665.147
267.395	15.662	889.589	664.571
268.409	15.753	888.858	664.327
269.424	15.649	888.281	663.425
270.439	15.558	887.911	662.731
271.453	15.627	887.049	662.300
272.468	15.688	886.176	661.830
273.482	15.705	885.480	661.320
274.497	15.621	884.858	660.467
275.512	15.671	884.088	660.028
276.526	15.846	883.261	660.040
277.541	15.921	882.729	659.876
278.555	15.869	882.386	659.358
279.570	15.936	881.610	658.982
280.585	15.771	881.332	658.071
281.599	15.869	880.670	657.901
282.614	15.875	880.079	657.425
283.628	15.912	879.364	656.979
284.643	15.925	878.669	656.453
285.657	15.838	878.475	655.908
286.672	15.979	878.038	656.075
287.687	15.833	877.443	655.005
288.701	15.939	876.604	654.731
289.716	15.962	876.517	654.696
290.730	16.070	875.645	654.408
291.745	16.056	875.028	653.834
292.760	16.045	874.193	653.112
293.774	16.040	873.367	652.418
294.789	15.939	873.346	651.950
295.803	16.185	872.449	652.175
296.818	16.064	871.738	651.118
297.833	16.055	870.999	650.475
298.847	16.094	870.043	649.853
299.862	16.124	869.573	649.561
300.876	16.111	868.824	648.893
301.891	16.168	868.229	648.609
302.906	16.258	867.710	648.510
303.920	16.208	866.999	647.730
304.935	16.260	866.428	647.449
305.949	16.390	865.459	647.163
306.964	16.410	865.046	646.873
307.979	16.251	864.619	645.890
308.993	16.211	864.287	645.429
310.008	16.282	863.509	645.062
311.022	16.263	862.842	644.436
312.037	16.399	862.368	644.544
313.052	16.326	861.904	643.863
314.066	16.226	861.265	642.947
315.081	16.339	860.562	642.794
316.095	16.415	860.308	642.838
317.110	16.395	859.766	642.298
318.125	16.310	858.969	641.324
319.139	16.299	858.416	640.814
320.154	16.461	858.114	641.144
321.168	16.340	857.655	640.286
322.183	16.373	857.187	640.006
323.197	16.457	856.370	639.658
324.212	16.383	855.859	638.938
325.227	16.533	855.251	638.995
326.241	16.623	854.333	638.592
327.256	16.516	853.931	637.831
328.270	16.434	853.560	637.189
329.285	16.523	852.395	636.599
330.300	16.574	852.088	636.507
331.314	16.461	851.415	635.522
332.329	16.497	850.841	635.172
333.343	16.627	850.217	635.139
334.358	16.614	850.108	634.949
335.373	16.665	849.180	634.394
336.387	16.668	848.594	633.911
337.402	16.762	848.180	633.895
338.416	16.721	847.450	633.140
339.431	16.648	846.993	632.471
340.446	16.715	846.493	632.293
341.460	16.795	846.070	632.218
342.475	16.805	845.401	631.701
343.489	16.841	844.762	631.300
344.504	16.861	844.131	630.847
345.519	16.818	843.671	630.290
346.533	17.009	843.020	630.456
347.548	16.984	842.507	629.925
348.562	16.855	842.168	629.137
349.577	17.012	841.591	629.230
350.592	16.860	841.095	628.241
351.606	16.881	840.308	627.675
352.621	16.938	840.101	627.676
353.635	16.819	839.895	627.028
354.650	16.819	839.247	626.488
355.665	16.823	838.985	626.252
356.679	16.891	838.434	626.035
357.694	16.980	837.779	625.821
358.708	17.103	837.354	625.901
359.723	16.926	836.992	624.921
360.738	17.097	835.725	624.548
361.752	17.070	835.197	624.000
362.767	17.019	835.284	623.821
363.781	17.139	834.559	623.669
364.796	17.092	834.346	623.279
365.810	17.174	833.823	623.134
366.825	17.097	833.530	622.578
367.840	17.156	833.445	622.678
368.854	17.228	832.775	622.384
369.869	17.245	832.232	621.988
370.883	17.339	831.486	621.718
371.898	17.249	830.831	620.842
372.913	17.277	830.061	620.316
373.927	17.169	830.002	619.823
374.942	17.383	829.181	619.936
375.956	17.330	828.572	619.231
376.971	17.342	827.616	618.507
377.986	17.287	827.161	617.913
379.000	17.476	826.696	618.196
380.015	17.330	826.471	617.442
381.029	17.543	825.727	617.604
382.044	17.360	825.605	616.793
383.059	17.655	824.364	616.879
384.073	17.626	824.130	616.548
385.088	17.516	823.683	615.760
386.102	17.577	823.007	615.421
387.117	17.498	822.595	614.773
388.132	17.345	822.464	614.069
389.146	17.533	821.809	614.204
390.161	17.430	821.464	613.518
391.175	17.528	821.166	613.594
392.190	17.514	820.399	612.918
393.205	17.664	819.982	613.091
394.219	17.565	819.806	612.550
395.234	17.596	818.954	611.970
396.248	17.626	818.462	611.658
397.263	17.496	817.902	610.716
398.278	17.558	817.515	610.596
399.292	17.684	816.782	610.445
400.307	17.782	816.761	610.727
401.321	17.581	816.388	609.676
402.336	17.583	816.268	609.540
403.350	17.635	815.512	609.105
404.365	17.665	814.999	608.775
405.380	17.747	814.585	608.706
406.394	17.762	814.068	608.320
407.409	17.793	813.512	607.962
408.423	17.891	812.954	607.837
409.438	17.939	812.320	607.483
410.453	17.954	812.108	607.324
411.467	17.898	811.882	606.902
412.482	17.865	811.511	606.454
413.496	18.021	810.783	606.409
414.511	17.997	810.392	605.978
415.526	17.948	809.828	605.328
416.540	18.069	809.507	605.462
417.555	18.109	809.261	605.368
418.569	18.209	808.301	604.948
419.584	18.026	808.217	604.188
420.599	18.016	807.741	603.743
421.613	115.775	1300.202	1491.392
422.628	100.108	1371.904	1491.450
