DTS Sentinel unit serial number:	SN413079Multiplexer serial number:	ORYXHardware model number:	OX4-SRSoftware version number:	ORYX F/W v4.00 Oryx Data Collector v3.7.2.0data status	okinstallation	princeton_trtdifferential loss correction	single-endedforward channel	channel 3reverse channel	N/Adate	2019/09/17time	15:52:35forward acquisition time	60.00reverse acquisition time	0.00gamma	496.2192k internal	0.2292k external	0.2292temperature offset calibration	0.9949default loss term (dB/km)	0.3790temperature slope calibration	1.0000multiplexer offset coefficient	1.0000multiplexer slope coefficient	1.0000fibre end	0.00T internal ref (°C)	39.37T ext. ref 1 (°C)	0.38T ext. ref 2 (°C)	38.06length (m)	temperature (°C)	Stokes	anti-Stokes-747.200	-200.000	-0.030	0.218
-746.185	-21.063	0.152	0.095
-745.171	-50.570	0.261	-0.126
-744.156	-177.253	-0.127	0.003
-743.142	-113.696	0.233	0.046
-742.127	-200.000	-0.049	0.446
-741.112	-153.759	-0.180	-0.013
-740.098	800.000	0.105	0.318
-739.083	794.613	-0.094	0.265
-738.069	589.972	0.069	0.175
-737.054	-200.000	-0.006	0.220
-736.039	50.789	-0.185	0.180
-735.025	-85.343	0.120	0.038
-734.010	578.242	-0.048	-0.119
-732.996	402.503	-0.140	0.302
-731.981	-200.000	-0.005	-0.264
-730.966	-200.000	0.004	-0.384
-729.952	-14.942	-0.051	-0.033
-728.937	314.540	-0.083	-0.159
-727.923	-135.777	-0.145	0.017
-726.908	237.295	0.146	0.247
-725.894	256.190	-0.091	0.160
-724.879	21.482	-0.055	0.046
-723.864	-80.602	-0.222	-0.075
-722.850	223.472	0.095	0.156
-721.835	413.773	-0.062	-0.135
-720.821	620.794	0.081	-0.209
-719.806	79.780	-0.044	-0.048
-718.791	-165.391	-0.171	0.008
-717.777	-95.936	0.070	-0.019
-716.762	-18.403	0.151	0.096
-715.748	-45.092	-0.063	0.032
-714.733	-122.016	-0.440	-0.074
-713.718	-200.000	0.009	-0.119
-712.704	-170.401	-0.205	-0.007
-711.689	800.000	-0.090	0.261
-710.675	224.135	0.152	0.251
-709.660	-80.955	0.241	0.082
-708.645	-57.652	0.036	-0.016
-707.631	-200.000	-0.007	-0.038
-706.616	-115.683	0.293	-0.056
-705.602	-118.244	0.022	-0.004
-704.587	47.435	-0.115	-0.109
-703.572	43.958	-0.111	0.104
-702.558	113.586	0.111	-0.138
-701.543	-15.220	0.275	-0.180
-700.529	162.298	-0.131	-0.187
-699.514	71.567	0.207	-0.220
-698.499	-127.850	0.287	0.042
-697.485	-65.425	-0.167	0.069
-696.470	-93.299	-0.330	-0.093
-695.456	-9.735	0.205	-0.139
-694.441	355.617	-0.065	0.132
-693.426	53.903	0.260	0.255
-692.412	-2.237	-0.184	-0.132
-691.397	-160.024	-0.113	-0.006
-690.383	-86.732	-0.110	0.034
-689.368	-200.000	-0.021	0.203
-688.354	-167.479	0.158	-0.006
-687.339	-67.766	0.164	0.066
-686.324	68.193	0.287	0.300
-685.310	409.878	-0.078	0.169
-684.295	-200.000	0.012	-0.109
-683.281	-79.320	0.067	-0.023
-682.266	800.000	-0.021	0.062
-681.251	-20.771	0.210	-0.131
-680.237	15.575	0.106	-0.085
-679.222	-200.000	0.061	0.279
-678.208	-200.000	0.067	0.344
-677.193	-79.253	-0.161	-0.056
-676.178	30.568	0.156	-0.137
-675.164	292.699	0.142	-0.265
-674.149	100.334	0.189	-0.224
-673.135	30.521	0.126	0.110
-672.120	-22.130	-0.156	-0.097
-671.105	62.409	0.092	0.094
-670.091	-53.572	-0.293	-0.137
-669.076	453.040	0.084	-0.191
-668.062	-143.996	-0.075	0.007
-667.047	518.011	-0.090	0.216
-666.032	251.998	-0.087	0.151
-665.018	284.216	-0.089	0.164
-664.003	-51.821	-0.273	0.130
-662.989	-200.000	0.019	-0.094
-661.974	204.844	0.185	-0.294
-660.959	66.560	0.166	0.173
-659.945	-200.000	0.015	-0.251
-658.930	133.798	-0.093	0.123
-657.916	90.449	-0.170	-0.194
-656.901	-196.920	0.173	0.001
-655.886	-113.408	0.313	-0.063
-654.872	86.466	-0.121	0.136
-653.857	195.363	-0.097	0.151
-652.843	48.292	-0.134	-0.128
-651.828	-90.421	-0.160	-0.047
-650.814	114.192	0.045	-0.055
-649.799	-110.358	-0.370	-0.078
-648.784	-70.589	0.138	0.053
-647.770	270.399	-0.171	0.307
-646.755	800.000	-0.077	0.322
-645.741	-200.000	-0.015	0.131
-644.726	88.709	-0.209	0.237
-643.711	-200.000	0.012	0.062
-642.697	-142.371	0.049	-0.005
-641.682	42.339	-0.119	-0.110
-640.668	229.912	-0.232	-0.386
-639.653	114.101	-0.105	0.131
-638.638	157.456	0.206	-0.290
-637.624	-200.000	0.023	0.154
-636.609	229.815	0.067	-0.112
-635.595	-25.405	-0.067	0.041
-634.580	-97.554	0.285	0.075
-633.565	12.320	0.080	0.063
-632.551	-47.118	-0.200	0.100
-631.536	-165.444	-0.389	0.017
-630.522	0.557	-0.205	-0.149
-629.507	800.000	-0.064	0.201
-628.492	419.204	-0.064	-0.139
-627.478	-121.329	-0.212	-0.036
-626.463	324.721	-0.108	0.211
-625.449	-200.000	-0.000	0.135
-624.434	-110.444	0.055	0.012
-623.419	-80.429	-0.110	0.037
-622.405	37.134	-0.106	-0.096
-621.390	-88.101	0.141	-0.043
-620.376	56.992	0.041	0.041
-619.361	-200.000	-0.001	-0.174
-618.346	138.094	-0.075	0.100
-617.332	211.622	-0.049	0.078
-616.317	-72.566	-0.163	-0.061
-615.303	-72.532	-0.221	0.083
-614.288	649.526	-0.039	0.100
-613.273	26.999	0.118	0.101
-612.259	-200.000	-0.104	-0.498
-611.244	-100.500	0.334	-0.084
-610.230	48.388	0.162	0.155
-609.215	800.000	-0.070	-0.216
-608.201	-68.647	-0.146	0.058
-607.186	-200.000	-0.011	-0.062
-606.171	-78.013	0.214	0.075
-605.157	-142.237	-0.381	0.038
-604.142	800.000	0.146	0.440
-603.128	-5.327	0.316	0.221
-602.113	-53.754	-0.333	0.155
-601.098	-200.000	-0.016	0.232
-600.084	-200.000	-0.033	-0.152
-599.069	-35.404	-0.122	0.067
-598.055	-50.455	-0.071	0.034
-597.040	244.788	0.049	0.085
-596.025	-92.574	-0.309	-0.088
-595.011	-61.689	-0.280	0.120
-593.996	410.235	-0.068	0.147
-592.982	622.575	-0.063	0.162
-591.967	-200.000	0.007	-0.176
-590.952	-200.000	-0.031	-0.373
-589.938	53.855	0.142	-0.139
-588.923	309.113	-0.108	-0.205
-587.909	356.539	-0.127	0.257
-586.894	-190.162	-0.245	0.003
-585.879	-70.215	0.195	0.075
-584.865	97.944	0.128	-0.149
-583.850	-28.424	-0.231	0.136
-582.836	200.488	-0.248	-0.388
-581.821	26.826	0.261	0.223
-580.806	-200.000	-0.044	0.251
-579.792	-133.440	0.128	-0.016
-578.777	193.643	-0.021	0.032
-577.763	40.049	-0.169	-0.154
-576.748	-38.892	-0.118	-0.063
-575.733	57.748	0.274	0.273
-574.719	409.415	-0.127	0.274
-573.704	155.439	0.181	0.254
-572.690	-117.578	0.081	-0.015
-571.675	220.700	0.060	0.098
-570.661	-76.198	0.045	-0.016
-569.646	131.411	0.105	0.137
-568.631	-96.256	-0.142	-0.038
-567.617	119.376	-0.142	0.179
-566.602	800.000	-0.057	0.200
-565.588	-59.027	0.350	0.154
-564.573	6.058	0.206	-0.155
-563.558	-200.000	0.012	-0.106
-562.544	-97.200	0.119	-0.032
-561.529	587.866	0.083	-0.207
-560.515	95.123	0.132	-0.153
-559.500	800.000	0.062	0.208
-558.485	-102.690	-0.336	0.081
-557.471	4.643	-0.251	-0.187
-556.456	58.265	-0.221	-0.220
-555.442	56.667	0.281	0.278
-554.427	-200.000	0.060	-0.341
-553.412	-67.309	0.114	0.046
-552.398	800.000	-0.108	0.410
-551.383	152.040	-0.146	0.202
-550.369	4.847	-0.044	-0.033
-549.354	126.579	0.241	0.310
-548.339	708.754	-0.090	-0.242
-547.325	-48.164	0.219	0.107
-546.310	282.765	0.099	0.181
-545.296	800.000	0.066	-0.207
-544.281	800.000	0.018	0.077
-543.266	699.430	-0.049	0.131
-542.252	-76.574	0.308	-0.110
-541.237	38.035	-0.110	0.099
-540.223	-39.594	-0.086	-0.046
-539.208	177.304	-0.096	-0.141
-538.193	237.455	-0.172	0.290
-537.179	-133.409	-0.150	-0.019
-536.164	19.736	0.157	0.129
-535.150	46.407	0.124	0.117
-534.135	-40.864	-0.333	-0.175
-533.121	-200.000	-0.024	-0.123
-532.106	-200.000	0.011	0.146
-531.091	262.699	0.093	0.164
-530.077	800.000	-0.119	0.350
-529.062	80.633	-0.046	-0.050
-528.048	-128.452	-0.291	-0.042
-527.033	800.000	0.029	-0.092
-526.018	800.000	-0.042	-0.183
-525.004	41.899	0.065	0.060
-523.989	-87.333	-0.267	-0.082
-522.975	-87.064	0.073	-0.023
-521.960	-79.599	-0.135	0.046
-520.945	-2.301	0.108	-0.077
-519.931	800.000	-0.172	0.583
-518.916	-40.451	-0.113	0.060
-517.902	84.129	-0.169	-0.187
-516.887	-101.369	-0.418	-0.103
-515.872	800.000	-0.063	0.231
-514.858	19.734	-0.143	0.117
-513.843	392.290	-0.093	-0.197
-512.829	-200.000	-0.021	0.317
-511.814	-200.000	-0.004	0.112
-510.799	46.029	0.111	-0.104
-509.785	214.927	-0.084	-0.136
-508.770	14.999	-0.172	-0.136
-507.756	-8.852	-0.290	-0.197
-506.741	572.857	0.069	0.170
-505.726	247.320	-0.093	0.160
-504.712	57.454	0.384	-0.380
-503.697	122.700	-0.139	0.177
-502.683	-200.000	-0.085	-0.391
-501.668	60.326	0.199	-0.199
-500.653	151.594	0.077	-0.107
-499.639	161.071	0.080	0.113
-498.624	-200.000	0.013	0.192
-497.610	-73.657	0.142	-0.052
-496.595	-156.602	0.076	-0.005
-495.581	-121.988	0.252	-0.042
-494.566	-162.597	0.127	0.006
-493.551	-42.978	0.380	0.195
-492.537	53.557	-0.184	-0.179
-491.522	446.787	0.090	-0.200
-490.508	-89.373	-0.200	0.060
-489.493	272.435	0.047	0.084
-488.478	-6.140	-0.244	0.169
-487.464	-200.000	0.008	0.214
-486.449	-10.178	-0.113	-0.076
-485.435	-177.140	-0.203	0.005
-484.420	364.039	0.066	-0.135
-483.405	0.326	0.136	-0.098
-482.391	-200.000	0.001	-0.081
-481.376	59.005	0.199	-0.199
-480.362	202.012	-0.090	0.141
-479.347	-27.422	-0.251	0.148
-478.332	-176.660	-0.276	-0.007
-477.318	351.264	0.080	0.161
-476.303	800.000	-0.027	0.112
-475.289	-200.000	-0.067	-0.376
-474.274	-200.000	0.021	-0.223
-473.259	-71.263	0.120	-0.046
-472.245	-138.389	-0.369	-0.041
-471.230	194.313	-0.170	-0.262
-470.216	87.017	0.350	-0.392
-469.201	143.014	-0.192	-0.259
-468.186	26.494	-0.092	-0.078
-467.172	198.871	-0.213	0.330
-466.157	140.683	-0.030	-0.041
-465.143	-42.003	-0.264	-0.137
-464.128	76.553	0.046	-0.049
-463.113	-131.695	0.078	0.010
-462.099	255.205	-0.066	-0.115
-461.084	-1.624	-0.308	0.220
-460.070	10.158	0.217	0.167
-459.055	138.966	0.157	0.208
-458.040	800.000	0.018	-0.057
-457.026	117.006	-0.124	0.155
-456.011	165.444	-0.324	-0.463
-454.997	800.000	0.057	-0.171
-453.982	-25.904	-0.355	0.212
-452.968	-133.226	0.111	-0.014
-451.953	-113.024	-0.102	-0.020
-450.938	117.153	-0.078	0.098
-449.924	-129.788	0.087	-0.012
-448.909	384.873	0.063	-0.132
-447.895	109.752	-0.161	-0.195
-446.880	16.076	0.121	-0.097
-445.865	-110.555	-0.077	-0.016
-444.851	71.517	-0.054	-0.056
-443.836	-85.239	0.274	0.087
-442.822	-73.073	0.207	0.077
-441.807	71.292	0.072	0.076
-440.792	45.076	0.030	-0.028
-439.778	-130.127	-0.081	-0.011
-438.763	60.798	-0.421	-0.423
-437.749	-200.000	0.021	-0.385
-436.734	-190.172	-0.194	0.002
-435.719	800.000	-0.052	0.161
-434.705	645.239	0.089	0.229
-433.690	-157.557	0.213	0.013
-432.676	-76.764	-0.291	-0.103
-431.661	-193.578	0.304	0.003
-430.646	800.000	0.020	0.069
-429.632	800.000	-0.015	0.047
-428.617	-9.919	0.153	-0.103
-427.603	-131.892	0.195	0.026
-426.588	-69.377	-0.253	-0.098
-425.573	-55.769	-0.381	-0.172
-424.559	-200.000	-0.063	-0.305
-423.544	256.132	-0.129	-0.224
-422.530	-44.469	-0.319	-0.161
-421.515	-200.000	-0.011	0.238
-420.500	37.698	0.268	0.241
-419.486	-200.000	-0.009	-0.366
-418.471	151.058	0.054	-0.074
-417.457	-41.011	0.379	-0.198
-416.442	800.000	0.077	-0.226
-415.428	167.542	-0.162	0.232
-414.413	-115.604	-0.580	-0.110
-413.398	672.941	-0.017	-0.044
-412.384	305.175	0.038	-0.072
-411.369	42.115	-0.212	-0.195
-410.355	19.542	0.347	-0.282
-409.340	-72.497	-0.229	0.085
-408.325	-200.000	0.015	-0.115
-407.311	-200.000	-0.091	0.597
-406.296	-200.000	0.054	0.324
-405.282	368.363	0.115	-0.236
-404.267	-125.463	-0.453	0.070
-403.252	-73.928	-0.157	0.058
-402.238	-38.830	0.224	-0.119
-401.223	231.367	-0.175	0.290
-400.209	183.286	-0.214	0.320
-399.194	-98.528	0.518	-0.134
-398.179	46.508	0.185	0.173
-397.165	-200.000	-0.003	0.238
-396.150	-200.000	0.050	0.233
-395.136	-136.920	0.134	-0.015
-394.121	800.000	-0.030	-0.108
-393.106	-78.063	0.327	0.114
-392.092	-13.374	0.224	0.147
-391.077	-116.929	0.169	-0.031
-390.063	-106.173	0.089	-0.020
-389.048	-157.760	0.181	-0.011
-388.033	44.658	0.092	-0.086
-387.019	-163.142	0.238	0.012
-386.004	-38.787	0.031	0.016
-384.990	-200.000	0.025	0.430
-383.975	27.040	0.387	-0.328
-382.960	33.182	0.127	-0.111
-381.946	-200.000	0.022	0.313
-380.931	78.483	0.100	-0.107
-379.917	-130.300	0.086	-0.012
-378.902	-58.945	-0.263	0.115
-377.888	289.969	0.182	0.333
-376.873	51.962	0.064	0.062
-375.858	8.464	0.224	0.170
-374.844	410.200	-0.147	0.314
-373.829	-200.000	0.024	-0.229
-372.815	-120.309	-0.229	0.039
-371.800	30.204	0.133	-0.115
-370.785	-90.424	-0.223	0.065
-369.771	-200.000	0.008	0.167
-368.756	-116.159	-0.275	-0.052
-367.742	75.243	0.207	0.220
-366.727	-110.523	-0.192	0.040
-365.712	101.262	0.082	0.096
-364.698	-200.000	0.006	-0.176
-363.683	-60.151	0.164	-0.070
-362.669	-200.000	0.030	0.229
-361.654	80.733	-0.264	-0.288
-360.639	124.194	-0.196	0.248
-359.625	-78.849	-0.057	0.020
-358.610	67.495	-0.060	-0.062
-357.596	-30.884	0.293	-0.167
-356.581	800.000	0.037	0.164
-355.566	800.000	-0.076	-0.261
-354.552	-48.128	0.132	0.064
-353.537	75.890	0.290	0.309
-352.523	-86.568	-0.127	0.039
-351.508	-141.239	0.237	0.024
-350.493	-3.178	0.150	0.106
-349.479	-200.000	0.051	0.000
-348.464	-54.328	-0.146	0.067
-347.450	800.000	0.018	-0.071
-346.435	-106.567	0.172	0.039
-345.420	-63.804	0.177	0.073
-344.406	574.421	0.085	0.209
-343.391	800.000	0.049	-0.176
-342.377	659.855	-0.122	-0.318
-341.362	-48.467	-0.138	0.067
-340.348	182.735	-0.269	-0.400
-339.333	-97.476	0.176	-0.046
-338.318	750.035	0.087	0.237
-337.304	-199.555	0.161	0.001
-336.289	89.129	0.257	-0.289
-335.275	-200.000	0.041	-0.215
-334.260	129.913	-0.171	-0.221
-333.245	-136.987	-0.278	0.032
-332.231	-8.647	0.237	-0.160
-331.216	682.983	0.121	-0.319
-330.202	-70.967	0.083	-0.032
-329.187	-123.657	0.184	0.029
-328.172	800.000	0.042	0.182
-327.158	-48.974	-0.146	0.071
-326.143	-187.227	0.128	0.002
-325.129	-40.659	-0.199	0.104
-324.114	-151.212	0.088	0.007
-323.099	-110.075	-0.183	0.038
-322.085	-200.000	0.037	-0.333
-321.070	-200.000	0.028	-0.134
-320.056	329.073	-0.102	-0.197
-319.041	-147.303	0.201	0.017
-318.026	-93.530	0.062	0.017
-317.012	483.127	-0.116	0.264
-315.997	-109.626	-0.021	0.004
-314.983	457.300	0.143	-0.320
-313.968	-200.000	-0.014	0.141
-312.953	-200.000	-0.030	0.263
-311.939	800.000	0.036	0.157
-310.924	33.636	0.357	-0.312
-309.910	-73.095	0.238	-0.088
-308.895	59.351	0.109	0.108
-307.880	-125.710	0.218	-0.033
-306.866	-200.000	-0.014	-0.292
-305.851	-200.000	0.010	0.178
-304.837	496.680	0.089	-0.206
-303.822	230.025	0.020	-0.032
-302.807	-99.321	0.218	-0.055
-301.793	-86.064	0.477	-0.148
-300.778	169.584	-0.194	-0.279
-299.764	-10.194	-0.195	0.130
-298.749	482.854	-0.086	-0.196
-297.735	-160.759	0.115	-0.006
-296.720	-200.000	0.043	0.211
-295.705	-200.000	0.027	-0.129
-294.691	120.003	-0.338	-0.421
-293.676	800.000	0.110	-0.328
-292.662	800.000	-0.053	0.190
-291.647	117.735	0.068	-0.084
-290.632	800.000	-0.046	0.166
-289.618	-200.000	-0.036	-0.227
-288.603	-94.458	-0.203	0.056
-287.589	-200.000	0.004	-0.268
-286.574	-155.268	-0.053	-0.003
-285.559	800.000	0.108	0.379
-284.545	26.879	0.132	0.111
-283.530	268.761	0.113	0.200
-282.516	-200.000	-0.001	-0.018
-281.501	54.231	-0.181	0.175
-280.486	738.181	-0.069	0.185
-279.472	-160.951	-0.312	-0.017
-278.457	18.083	0.047	0.037
-277.443	463.719	0.077	-0.173
-276.428	232.552	0.308	0.508
-275.413	313.934	0.049	-0.093
-274.399	-200.000	-0.006	-0.055
-273.384	-19.267	0.090	0.056
-272.370	-28.992	0.169	-0.097
-271.355	-137.766	0.232	-0.026
-270.340	112.052	0.095	-0.115
-269.326	800.000	-0.081	0.238
-268.311	-77.771	0.171	-0.059
-267.297	800.000	-0.068	0.259
-266.282	-96.151	0.185	0.049
-265.267	-200.000	0.008	-0.101
-264.253	64.392	0.352	-0.356
-263.238	246.241	0.073	-0.124
-262.224	-200.000	-0.056	-0.410
-261.209	-23.822	0.120	-0.072
-260.195	392.099	0.098	-0.204
-259.180	765.998	-0.036	-0.097
-258.165	-117.382	0.256	-0.047
-257.151	123.376	-0.175	-0.221
-256.136	-200.000	0.028	-0.256
-255.122	-52.788	-0.102	-0.047
-254.107	-13.694	-0.485	0.315
-253.092	-168.152	0.087	0.003
-252.078	-200.000	-0.000	-0.011
-251.063	-161.887	0.064	0.003
-250.049	289.715	0.094	0.172
-249.034	-189.890	-0.160	-0.002
-248.019	567.569	-0.158	-0.386
-247.005	548.638	-0.180	-0.434
-245.990	18.800	0.140	-0.112
-244.976	800.000	0.021	-0.078
-243.961	78.301	-0.048	-0.052
-242.946	353.174	-0.129	-0.256
-241.932	-52.172	0.124	-0.058
-240.917	233.733	0.192	-0.317
-239.903	22.056	0.109	0.089
-238.888	282.944	-0.168	0.303
-237.873	105.446	-0.111	-0.131
-236.859	-61.886	-0.134	-0.056
-235.844	-40.869	0.559	-0.290
-234.830	17.219	-0.199	0.159
-233.815	-84.162	-0.345	-0.110
-232.800	-154.115	-0.579	-0.039
-231.786	410.090	0.097	0.206
-230.771	-136.938	-0.090	0.010
-229.757	-46.856	-0.034	-0.017
-228.742	-92.259	0.221	0.063
-227.727	376.582	0.066	-0.136
-226.713	52.850	-0.038	0.037
-225.698	82.274	0.176	-0.192
-224.684	-200.000	-0.000	0.242
-223.669	73.871	0.102	0.108
-222.655	521.710	0.098	-0.230
-221.640	491.463	0.057	0.132
-220.625	-200.000	0.017	0.296
-219.611	176.228	-0.065	0.094
-218.596	58.634	0.126	0.124
-217.582	394.387	0.051	0.107
-216.567	-141.178	-0.266	-0.027
-215.552	-200.000	0.000	-0.161
-214.538	800.000	0.081	0.312
-213.523	-41.918	-0.308	0.158
-212.509	-200.000	-0.038	0.374
-211.494	-109.386	0.195	0.041
-210.479	9.481	-0.254	0.192
-209.465	-94.754	0.347	0.095
-208.450	-125.228	0.064	0.010
-207.436	41.283	0.140	0.127
-206.421	-200.000	0.037	-0.228
-205.406	140.227	0.039	-0.051
-204.392	-190.956	0.266	0.003
-203.377	38.865	0.210	0.188
-202.363	-200.000	0.002	-0.043
-201.348	800.000	-0.108	0.309
-200.333	-125.630	0.327	-0.050
-199.319	-43.018	0.142	-0.072
-198.304	329.430	-0.191	0.367
-197.290	11.738	-0.053	0.041
-196.275	84.273	0.185	-0.202
-195.260	800.000	-0.053	-0.171
-194.246	-200.000	0.004	-0.153
-193.231	144.894	0.074	0.099
-192.217	165.844	0.126	-0.179
-191.202	-108.064	0.115	-0.025
-190.187	49.511	-0.017	0.016
-189.173	372.525	-0.166	-0.338
-188.158	-60.121	0.254	-0.109
-187.144	800.000	0.094	0.276
-186.129	-33.583	-0.180	0.099
-185.114	-200.000	-0.021	0.250
-184.100	82.798	0.078	-0.085
-183.085	12.309	-0.136	-0.105
-182.071	337.011	0.201	0.391
-181.056	-154.944	-0.290	0.019
-180.042	-33.829	0.186	-0.103
-179.027	-200.000	-0.015	-0.124
-178.012	157.142	0.246	0.340
-176.998	233.098	-0.049	0.080
-175.983	-106.268	-0.204	0.046
-174.969	-15.917	0.270	0.172
-173.954	-200.000	0.027	-0.246
-172.939	-200.000	-0.038	0.000
-171.925	289.284	0.112	-0.203
-170.910	-62.523	0.049	-0.020
-169.896	-200.000	0.030	-0.199
-168.881	-40.775	0.216	0.112
-167.866	800.000	0.101	-0.303
-166.852	-6.790	0.153	-0.104
-165.837	-181.969	-0.197	-0.004
-164.823	-32.716	-0.260	-0.145
-163.808	-97.663	-0.217	-0.056
-162.793	168.024	0.044	0.063
-161.779	50.657	-0.186	0.177
-160.764	25.855	0.208	0.173
-159.750	-200.000	-0.001	-0.175
-158.735	-87.445	0.185	-0.056
-157.720	-100.803	-0.262	-0.064
-156.706	-18.222	0.166	0.104
-155.691	-9.778	0.316	-0.210
-154.677	174.053	-0.150	0.216
-153.662	119.606	-0.072	0.089
-152.647	-200.000	-0.002	0.332
-151.633	203.999	-0.078	-0.121
-150.618	-73.529	-0.108	0.039
-149.604	800.000	0.017	0.055
-148.589	-45.575	0.102	0.050
-147.574	68.508	-0.146	-0.150
-146.560	43.450	-0.167	-0.153
-145.545	800.000	-0.064	-0.193
-144.531	-200.000	-0.044	0.195
-143.516	617.562	-0.069	-0.173
-142.502	11.037	-0.131	0.100
-141.487	136.691	0.305	0.398
-140.472	47.167	-0.018	0.017
-139.458	-200.000	-0.011	-0.272
-138.443	-104.831	-0.350	0.080
-137.429	51.185	-0.138	-0.131
-136.414	-26.940	0.143	0.084
-135.399	-44.029	0.128	-0.064
-134.385	3.151	0.224	-0.163
-133.370	-24.536	-0.121	0.072
-132.356	530.560	-0.121	0.285
-131.341	-41.784	0.307	-0.157
-130.326	-140.385	-0.416	-0.043
-129.312	84.245	-0.076	0.083
-128.297	-55.074	0.295	-0.133
-127.283	191.325	-0.011	-0.016
-126.268	-63.631	0.195	0.080
-125.253	607.775	0.060	-0.150
-124.239	-96.222	0.219	-0.058
-123.224	68.988	0.160	-0.164
-122.210	-41.590	-0.163	-0.084
-121.195	-70.811	-0.072	-0.027
-120.180	-8.473	0.160	-0.107
-119.166	173.663	0.111	-0.161
-118.151	-200.000	-0.004	0.027
-117.137	19.936	-0.109	0.088
-116.122	-200.000	0.004	-0.287
-115.107	800.000	-0.045	0.153
-114.093	-95.437	0.267	-0.071
-113.078	70.005	0.080	-0.083
-112.064	-200.000	-0.049	-0.328
-111.049	225.746	0.148	0.239
-110.034	-73.033	-0.274	0.100
-109.020	429.378	-0.160	-0.346
-108.005	800.000	0.034	-0.098
-106.991	-147.264	0.063	-0.005
-105.976	-34.444	-0.045	-0.025
-104.962	47.020	0.145	0.135
-103.947	632.387	0.112	0.283
-102.932	472.970	-0.089	-0.200
-101.918	-200.000	-0.012	-0.145
-100.903	250.776	0.249	0.423
-99.889	-200.000	0.038	-0.180
-98.874	333.631	0.070	0.135
-97.859	207.777	0.203	-0.316
-96.845	800.000	0.087	0.247
-95.830	600.091	0.129	0.320
-94.816	100.974	-0.056	-0.065
-93.801	335.093	0.088	0.171
-92.786	-129.018	0.243	-0.034
-91.772	81.908	-0.179	0.194
-90.757	43.047	0.105	-0.096
-89.743	415.015	-0.162	-0.345
-88.728	800.000	-0.063	0.272
-87.713	192.052	-0.210	-0.316
-86.699	461.878	0.038	0.085
-85.684	560.448	-0.128	-0.308
-84.670	331.603	-0.034	-0.065
-83.655	709.724	0.039	-0.103
-82.640	109.981	-0.248	0.297
-81.626	71.601	0.085	0.088
-80.611	-200.000	0.014	-0.105
-79.597	318.134	0.053	0.101
-78.582	-162.507	-0.203	-0.010
-77.567	800.000	0.070	0.277
-76.553	-168.391	-0.131	0.005
-75.538	-111.123	0.464	-0.095
-74.524	110.352	0.287	-0.344
-73.509	5.640	-0.152	-0.112
-72.494	800.000	0.011	-0.038
-71.480	-200.000	0.027	0.172
-70.465	64.612	0.211	-0.212
-69.451	-132.715	0.094	-0.012
-68.436	-111.151	-0.120	-0.025
-67.422	29.416	0.104	-0.088
-66.407	110.733	-0.091	-0.109
-65.392	-200.000	-0.049	0.293
-64.378	-107.163	0.214	-0.047
-63.363	-38.757	0.597	0.314
-62.349	85.076	-0.111	0.121
-61.334	-24.615	-0.815	-0.484
-60.319	-200.000	0.050	0.340
-59.305	-200.000	-0.066	-0.691
-58.290	257.089	0.480	0.821
-57.276	800.000	0.409	1.574
-56.261	-200.000	77.329	516.934
-55.246	485.693	1360.786	3089.410
-54.232	140.694	2611.993	3437.886
-53.217	112.365	2277.655	2744.889
-52.203	49.579	1797.801	1686.585
-51.188	42.669	1595.309	1447.048
-50.173	40.077	1565.192	1401.335
-49.159	55.996	1603.427	1549.826
-48.144	61.191	1622.834	1605.697
-47.130	43.280	1585.823	1442.588
-46.115	39.766	1570.991	1404.096
-45.100	39.487	1568.167	1399.532
-44.086	39.393	1566.019	1396.890
-43.071	39.388	1563.977	1394.980
-42.057	39.335	1562.002	1392.791
-41.042	39.410	1560.099	1391.567
-40.027	39.275	1559.570	1390.084
-39.013	39.384	1556.846	1388.373
-37.998	39.315	1555.965	1387.041
-36.984	39.452	1554.410	1386.571
-35.969	39.454	1553.448	1385.668
-34.954	39.394	1552.401	1384.258
-33.940	39.270	1551.153	1382.218
-32.925	39.404	1549.464	1381.602
-31.911	39.375	1547.735	1379.801
-30.896	39.458	1546.536	1379.259
-29.881	39.504	1544.906	1378.069
-28.867	39.447	1543.742	1376.578
-27.852	39.435	1542.382	1375.225
-26.838	39.416	1540.672	1373.518
-25.823	39.385	1539.432	1372.143
-24.809	39.426	1537.148	1370.332
-23.794	39.429	1535.914	1369.200
-22.779	39.395	1534.900	1368.004
-21.765	39.289	1534.257	1366.644
-20.750	39.445	1532.231	1365.866
-19.736	39.393	1531.463	1364.766
-18.721	39.350	1530.712	1363.743
-17.706	39.404	1528.663	1362.243
-16.692	39.365	1527.618	1360.986
-15.677	39.456	1526.426	1360.500
-14.663	39.372	1525.707	1359.222
-13.648	39.332	1524.371	1357.704
-12.633	39.403	1523.437	1357.303
-11.619	39.334	1522.942	1356.337
-10.604	39.381	1522.152	1355.901
-9.590	39.350	1521.220	1354.801
-8.575	39.280	1520.583	1353.699
-7.560	39.333	1519.494	1353.044
-6.546	39.242	1518.158	1351.175
-5.531	39.333	1517.247	1350.935
-4.517	39.251	1516.760	1349.885
-3.502	39.313	1515.481	1349.115
-2.487	39.350	1514.310	1348.275
-1.473	39.246	1513.423	1346.720
-0.458	39.351	1512.194	1346.291
0.556	38.250	1503.992	1340.280
1.571	36.384	1477.625	1304.075
2.586	32.880	1412.834	1224.109
3.600	29.951	1324.674	1129.781
4.615	27.344	1274.988	1071.976
5.629	22.759	1213.997	994.824
6.644	11.468	1119.803	858.499
7.659	2.145	1071.880	774.577
8.673	0.575	1065.898	762.261
9.688	0.467	1062.339	759.105
10.702	0.186	1061.395	756.953
11.717	0.283	1059.500	756.024
12.731	3.017	1062.597	771.910
13.746	12.273	1076.217	828.636
14.761	18.265	1083.175	864.272
15.775	17.717	1080.803	859.541
16.790	16.653	1078.932	852.619
17.804	15.520	1076.667	845.056
18.819	14.637	1074.626	838.941
19.834	14.244	1073.271	835.837
20.848	13.902	1072.438	833.396
21.863	13.603	1071.265	830.912
22.877	13.319	1070.278	828.650
23.892	13.112	1069.419	826.877
24.907	13.217	1068.519	826.636
25.921	13.066	1067.966	825.379
26.936	13.048	1067.424	824.795
27.950	13.238	1066.305	824.805
28.965	13.126	1066.255	824.135
29.980	13.180	1065.279	823.578
30.994	13.369	1063.854	823.344
32.009	13.425	1062.904	822.812
33.023	13.376	1062.113	821.887
34.038	13.335	1061.625	821.233
35.053	13.390	1060.617	820.653
36.067	13.276	1060.115	819.626
37.082	13.239	1058.960	818.475
38.096	13.210	1058.247	817.712
39.111	13.327	1057.301	817.483
40.126	13.432	1056.392	817.230
41.140	13.232	1055.529	815.502
42.155	13.271	1054.174	814.576
43.169	13.207	1053.892	813.968
44.184	13.144	1052.267	812.334
45.199	13.173	1051.229	811.601
46.213	13.063	1050.478	810.411
47.228	13.128	1049.818	810.149
48.242	13.033	1048.831	808.849
49.257	13.240	1047.354	808.654
50.271	13.349	1046.341	808.333
51.286	13.204	1045.610	806.987
52.301	13.282	1044.773	806.650
53.315	13.212	1044.453	805.990
54.330	13.260	1043.131	805.130
55.344	13.143	1042.396	803.926
56.359	13.192	1041.095	803.087
57.374	13.222	1040.386	802.616
58.388	13.121	1039.186	801.131
59.403	13.128	1038.914	800.882
60.417	13.163	1037.745	800.080
61.432	13.208	1036.919	799.590
62.447	13.110	1036.455	798.686
63.461	13.145	1035.769	798.256
64.476	13.119	1034.806	797.318
65.490	13.064	1033.749	796.171
66.505	13.048	1032.820	795.304
67.520	13.056	1032.565	795.077
68.534	13.068	1031.365	794.141
69.549	13.129	1030.912	794.013
70.563	13.189	1029.680	793.282
71.578	13.061	1029.663	792.587
72.593	13.009	1028.478	791.356
73.607	12.973	1027.617	790.451
74.622	13.002	1026.785	789.878
75.636	12.962	1025.759	788.827
76.651	13.106	1024.439	788.429
77.666	12.943	1024.195	787.395
78.680	12.926	1023.775	786.923
79.695	12.952	1023.169	786.512
80.709	13.093	1022.180	786.350
81.724	12.969	1021.845	785.435
82.739	13.173	1020.436	785.251
83.753	13.159	1019.830	784.650
84.768	13.208	1019.230	784.353
85.782	13.258	1018.388	783.873
86.797	13.292	1017.891	783.581
87.812	13.273	1016.716	782.516
88.826	13.075	1016.305	781.195
89.841	13.125	1015.811	780.980
90.855	13.202	1014.225	780.058
91.870	13.290	1013.469	779.823
92.884	13.283	1012.833	779.230
93.899	13.196	1012.520	778.508
94.914	13.271	1011.574	778.066
95.928	13.366	1010.769	777.826
96.943	13.237	1010.123	776.654
97.957	13.288	1009.740	776.529
98.972	13.232	1008.671	775.378
99.987	13.213	1007.726	774.491
101.001	13.313	1006.978	774.317
102.016	13.243	1005.991	773.163
103.030	13.202	1005.236	772.322
104.045	13.383	1003.860	772.039
105.060	13.386	1002.933	771.275
106.074	13.321	1001.981	770.173
107.089	13.336	1000.896	769.336
108.103	13.103	1000.789	768.103
109.118	12.997	1000.053	766.978
110.133	13.198	998.813	766.894
111.147	13.095	997.713	765.504
112.162	13.129	996.855	764.935
113.176	13.277	996.224	765.067
114.191	13.227	995.238	764.010
115.206	13.221	994.390	763.267
116.220	13.276	993.252	762.578
117.235	13.218	992.962	762.023
118.249	13.126	992.049	760.829
119.264	13.255	990.589	760.235
120.279	13.225	990.204	759.734
121.293	13.173	989.352	758.773
122.308	13.185	988.561	758.155
123.322	13.197	987.562	757.378
124.337	13.227	986.858	756.906
125.352	13.142	985.471	755.388
126.366	13.164	984.375	754.582
127.381	13.176	983.608	753.982
128.395	13.200	982.643	753.286
129.410	13.256	981.415	752.532
130.424	13.172	981.092	751.837
131.439	13.319	979.855	751.487
132.454	13.276	979.217	750.737
133.468	13.221	978.587	749.940
134.483	13.273	977.965	749.633
135.497	13.247	977.141	748.815
136.512	13.374	976.096	748.522
137.527	13.275	975.450	747.514
138.541	13.377	974.683	747.320
139.556	13.343	973.849	746.462
140.570	13.278	973.378	745.741
141.585	13.303	972.053	744.774
142.600	13.374	971.382	744.513
143.614	13.489	970.768	744.492
144.629	13.442	970.337	743.885
145.643	13.502	969.272	743.273
146.658	13.288	969.003	742.040
147.673	13.351	967.744	741.292
148.687	13.274	966.884	740.226
149.702	13.293	965.768	739.387
150.716	13.310	964.837	738.687
151.731	13.275	964.581	738.268
152.746	13.345	963.300	737.536
153.760	13.312	962.647	736.822
154.775	13.423	961.871	736.658
155.789	13.468	961.032	736.153
156.804	13.409	960.479	735.401
157.819	13.484	959.667	735.045
158.833	13.441	959.049	734.316
159.848	13.392	958.628	733.712
160.862	13.397	957.991	733.181
161.877	13.510	957.036	732.888
162.892	13.388	956.239	731.672
163.906	13.493	955.054	731.166
164.921	13.294	954.827	730.047
165.935	13.374	953.801	729.550
166.950	13.416	952.816	728.920
167.964	13.471	951.553	728.128
168.979	13.432	950.787	727.309
169.994	13.358	950.003	726.320
171.008	13.458	949.014	725.938
172.023	13.393	948.326	725.061
173.037	13.486	947.591	724.843
174.052	13.540	946.802	724.409
175.067	13.552	946.052	723.826
176.081	13.561	945.193	723.144
177.096	13.418	944.485	721.913
178.110	13.486	943.192	721.159
179.125	13.449	942.770	720.610
180.140	13.488	942.182	720.268
181.154	13.596	941.032	719.795
182.169	13.418	940.592	718.619
183.183	13.546	939.872	718.563
184.198	13.675	939.245	718.577
185.213	13.620	938.439	717.661
186.227	13.660	937.732	717.228
187.242	13.706	937.456	717.155
188.256	13.745	936.319	716.389
189.271	13.771	935.822	716.057
190.286	13.657	935.084	714.937
191.300	13.709	934.091	714.340
192.315	13.684	933.103	713.414
193.329	13.545	932.525	712.308
194.344	13.497	932.116	711.726
195.359	13.570	931.463	711.478
196.373	13.596	930.971	711.151
197.388	13.623	930.761	711.043
198.402	13.817	929.683	710.990
199.417	13.818	929.525	710.808
200.432	13.871	928.976	710.555
201.446	13.941	928.471	710.406
202.461	14.007	927.906	710.191
203.475	14.085	927.401	710.077
204.490	13.968	926.689	708.966
205.504	14.077	925.822	708.709
206.519	13.810	925.514	707.271
207.534	13.927	924.443	706.888
208.548	13.941	923.685	706.304
209.563	13.891	923.476	705.868
210.577	13.960	922.531	705.377
211.592	13.985	922.034	705.042
212.607	14.055	921.431	704.816
213.621	14.067	920.717	704.256
214.636	14.137	919.847	703.826
215.650	14.107	919.325	703.239
216.665	14.027	918.824	702.453
217.680	14.128	918.294	702.415
218.694	14.116	917.459	701.662
219.709	13.980	917.577	701.115
220.723	14.248	916.190	701.121
221.738	14.159	915.581	700.219
222.753	14.194	915.087	699.928
223.767	14.204	914.061	699.122
224.782	14.267	913.055	698.555
225.796	14.287	912.485	698.143
226.811	14.335	911.630	697.626
227.826	14.179	911.246	696.617
228.840	14.333	910.406	696.561
229.855	14.345	910.199	696.390
230.869	14.315	909.304	695.516
231.884	14.215	908.485	694.414
232.899	14.257	907.863	694.052
233.913	14.297	907.038	693.527
234.928	14.255	906.515	692.888
235.942	14.235	905.595	692.044
236.957	14.194	905.252	691.547
237.972	14.215	904.217	690.784
238.986	14.303	903.729	690.713
240.001	14.221	903.442	690.094
241.015	14.349	902.305	689.692
242.030	14.293	901.979	689.150
243.045	14.372	900.823	688.535
244.059	14.335	900.361	687.965
245.074	14.493	899.559	687.946
246.088	14.489	899.163	687.564
247.103	14.403	898.772	686.850
248.117	14.556	897.950	686.792
249.132	14.477	897.405	685.989
250.147	14.641	896.636	686.015
251.161	14.754	896.012	685.939
252.176	14.648	895.575	685.110
253.190	14.682	894.946	684.709
254.205	14.698	894.486	684.360
255.220	14.769	893.725	684.009
256.234	14.762	893.043	683.398
257.249	14.779	892.595	683.063
258.263	14.759	892.145	682.579
259.278	14.738	891.508	681.945
260.293	14.816	890.839	681.692
261.307	14.810	890.468	681.323
262.322	14.914	889.504	680.947
263.336	14.729	889.104	679.827
264.351	14.963	888.218	680.042
265.366	14.944	887.738	679.538
266.380	15.006	887.143	679.275
267.395	14.925	886.718	678.558
268.409	14.932	885.831	677.847
269.424	15.019	884.798	677.352
270.439	14.937	884.425	676.674
271.453	14.963	883.512	676.021
272.468	14.912	883.057	675.406
273.482	14.845	882.580	674.711
274.497	15.157	881.524	675.103
275.512	15.040	880.807	674.023
276.526	15.046	880.423	673.693
277.541	14.978	879.799	672.880
278.555	15.077	879.151	672.725
279.570	15.103	878.454	672.235
280.585	15.112	877.960	671.834
281.599	15.131	877.409	671.431
282.614	15.241	876.644	671.226
283.628	15.150	875.961	670.280
284.643	15.248	875.728	670.435
285.657	15.218	875.204	669.852
286.672	15.221	874.597	669.342
287.687	15.170	874.049	668.657
288.701	15.300	873.357	668.588
289.716	15.239	872.821	667.875
290.730	15.250	872.015	667.243
291.745	15.389	871.425	667.288
292.760	15.322	870.671	666.382
293.774	15.273	870.733	666.179
294.789	15.417	869.810	665.982
295.803	15.335	869.541	665.393
296.818	15.325	868.743	664.686
297.833	15.463	867.491	664.214
298.847	15.262	867.404	663.292
299.862	15.451	866.219	663.077
300.876	15.331	865.707	662.149
301.891	15.497	865.022	662.223
302.906	15.530	864.073	661.566
303.920	15.466	863.618	660.908
304.935	15.460	862.937	660.307
305.949	15.656	862.378	660.590
306.964	15.601	862.081	660.087
307.979	15.499	861.347	659.069
308.993	15.672	860.764	659.239
310.008	15.625	860.082	658.476
311.022	15.585	860.121	658.289
312.037	15.703	859.322	658.083
313.052	15.669	858.431	657.211
314.066	15.669	857.787	656.659
315.081	15.510	857.500	655.760
316.095	15.725	856.674	655.908
317.110	15.611	856.116	654.978
318.125	15.651	855.828	654.858
319.139	15.644	855.267	654.341
320.154	15.614	854.933	653.912
321.168	15.521	854.475	653.141
322.183	15.742	853.477	653.181
323.197	15.737	852.911	652.671
324.212	15.772	852.004	652.053
325.227	15.658	852.010	651.558
326.241	15.721	851.148	651.084
327.256	15.838	850.378	650.893
328.270	15.882	849.851	650.602
329.285	15.675	849.930	649.803
330.300	15.739	848.790	649.122
331.314	15.794	848.212	648.836
332.329	15.877	847.958	648.901
333.343	15.849	847.459	648.354
334.358	15.876	846.830	647.920
335.373	15.868	846.346	647.462
336.387	15.762	846.038	646.763
337.402	15.855	845.044	646.302
338.416	16.070	844.166	646.398
339.431	16.003	843.786	645.791
340.446	16.184	843.332	646.082
341.460	16.175	842.520	645.368
342.475	16.105	842.020	644.661
343.489	16.008	841.892	644.134
344.504	16.089	841.512	644.096
345.519	16.223	840.452	643.737
346.533	16.174	840.227	643.323
347.548	16.112	839.790	642.695
348.562	16.148	839.234	642.349
349.577	16.134	838.452	641.641
350.592	16.166	837.881	641.269
351.606	16.048	837.874	640.757
352.621	16.068	837.083	640.171
353.635	16.241	836.531	640.351
354.650	16.218	835.830	639.669
355.665	16.071	836.071	639.240
356.679	16.149	835.067	638.711
357.694	16.250	834.624	638.698
358.708	16.214	834.424	638.351
359.723	16.187	833.589	637.554
360.738	16.241	833.488	637.627
361.752	16.270	832.713	637.087
362.767	16.374	832.331	637.127
363.781	16.417	831.734	636.777
364.796	16.419	831.441	636.504
365.810	16.353	830.832	635.735
366.825	16.494	830.366	635.850
367.840	16.546	829.873	635.614
368.854	16.516	829.943	635.496
369.869	16.395	829.176	634.400
370.883	16.497	828.584	634.273
371.898	16.491	827.960	633.717
372.913	16.751	826.858	633.792
373.927	16.594	826.789	633.093
374.942	16.596	826.133	632.545
375.956	16.514	825.519	631.710
376.971	16.624	825.112	631.753
377.986	16.638	824.368	631.182
379.000	16.740	823.972	631.204
380.015	16.719	823.789	630.929
381.029	16.754	822.906	630.328
382.044	16.720	822.328	629.702
383.059	16.747	821.612	629.196
384.073	16.714	821.118	628.642
385.088	16.763	820.619	628.384
386.102	16.699	820.253	627.813
387.117	16.765	819.419	627.362
388.132	16.708	818.984	626.761
389.146	16.803	818.883	626.983
390.161	16.601	818.880	626.176
391.175	16.849	818.105	626.447
392.190	16.699	818.051	625.795
393.205	16.788	817.439	625.598
394.219	16.926	816.879	625.623
395.234	16.958	815.992	625.009
396.248	16.872	815.520	624.273
397.263	16.786	815.308	623.740
398.278	16.667	815.036	623.040
399.292	16.839	814.080	622.885
400.307	16.830	813.797	622.581
401.321	16.692	813.525	621.811
402.336	16.850	812.932	621.881
403.350	16.917	812.854	622.014
404.365	16.931	812.173	621.489
405.380	17.007	811.363	621.091
406.394	16.962	811.102	620.672
407.409	16.968	810.984	620.550
408.423	17.022	810.365	620.218
409.438	17.147	809.889	620.257
410.453	17.084	809.576	619.732
411.467	17.214	808.898	619.631
412.482	17.250	808.395	619.324
413.496	17.158	807.453	618.209
414.511	17.318	807.200	618.544
415.526	17.181	807.291	618.059
416.540	17.260	806.889	617.986
417.555	17.315	806.103	617.530
418.569	17.359	805.310	617.026
419.584	17.309	805.427	616.881
420.599	17.193	804.971	616.055
421.613	94.131	1269.619	1389.821
422.628	80.573	1337.347	1389.957
