DTS Sentinel unit serial number:	SN413079Multiplexer serial number:	ORYXHardware model number:	OX4-SRSoftware version number:	ORYX F/W v4.00 Oryx Data Collector v3.7.2.0data status	okinstallation	princeton_trtdifferential loss correction	single-endedforward channel	channel 3reverse channel	N/Adate	2019/09/16time	13:40:34forward acquisition time	60.00reverse acquisition time	0.00gamma	496.2192k internal	0.2294k external	0.2294temperature offset calibration	0.9941default loss term (dB/km)	0.3790temperature slope calibration	1.0000multiplexer offset coefficient	1.0000multiplexer slope coefficient	1.0000fibre end	0.00T internal ref (°C)	42.14T ext. ref 1 (°C)	13.88T ext. ref 2 (°C)	38.76length (m)	temperature (°C)	Stokes	anti-Stokes-747.200	100.129	-0.011	0.013
-746.185	144.174	0.136	-0.185
-745.171	-200.000	0.005	0.179
-744.156	800.000	-0.046	0.184
-743.142	42.989	0.184	-0.172
-742.127	13.152	-0.164	0.130
-741.112	-200.000	-0.044	0.243
-740.098	-112.170	-0.022	0.004
-739.083	126.084	-0.117	-0.151
-738.069	-40.266	-0.108	-0.058
-737.054	-200.000	-0.041	-0.238
-736.039	-200.000	-0.008	-0.399
-735.025	-120.080	0.167	-0.029
-734.010	-90.400	0.118	-0.035
-732.996	-200.000	-0.012	-0.097
-731.981	261.240	-0.087	-0.153
-730.966	-7.972	-0.075	0.052
-729.952	-200.000	-0.007	0.159
-728.937	-120.860	-0.309	0.053
-727.923	-65.859	-0.207	0.085
-726.908	449.409	-0.187	-0.421
-725.894	800.000	-0.068	-0.246
-724.879	-14.191	-0.250	0.165
-723.864	-200.000	0.048	-0.333
-722.850	-47.227	0.254	-0.126
-721.835	-113.291	0.142	0.029
-720.821	800.000	0.021	0.071
-719.806	108.871	-0.179	-0.218
-718.791	13.350	0.150	-0.119
-717.777	800.000	0.060	0.190
-716.762	-22.428	-0.096	0.060
-715.748	-124.323	-0.191	0.031
-714.733	51.069	-0.139	-0.135
-713.718	-106.972	-0.144	0.032
-712.704	-174.384	-0.225	-0.007
-711.689	-200.000	-0.001	-0.087
-710.675	-200.000	-0.000	0.034
-709.660	-25.590	0.091	-0.055
-708.645	-200.000	-0.048	0.215
-707.631	-181.305	0.279	-0.006
-706.616	29.492	-0.068	-0.059
-705.602	-13.754	0.220	0.145
-704.587	20.695	-0.171	-0.142
-703.572	104.974	0.299	-0.360
-702.558	-161.147	-0.366	0.019
-701.543	-200.000	0.001	0.062
-700.529	-200.000	0.031	-0.177
-699.514	-10.042	-0.264	0.179
-698.499	-200.000	0.023	-0.144
-697.485	-147.990	0.084	0.007
-696.470	13.310	-0.171	-0.136
-695.456	-200.000	0.005	-0.205
-694.441	-113.202	0.111	0.022
-693.426	-13.001	0.199	0.132
-692.412	-200.000	-0.057	-0.444
-691.397	-74.035	0.008	0.003
-690.383	-36.340	-0.121	0.067
-689.368	-200.000	0.036	-0.274
-688.354	24.900	-0.062	0.053
-687.339	-136.954	-0.279	-0.033
-686.324	55.975	-0.096	0.096
-685.310	800.000	-0.056	0.246
-684.295	-200.000	-0.007	0.049
-683.281	-200.000	0.001	-0.151
-682.266	-148.387	-0.180	-0.015
-681.251	-151.377	0.398	-0.030
-680.237	42.877	0.160	-0.149
-679.222	23.755	-0.090	-0.076
-678.208	800.000	0.055	0.172
-677.193	800.000	0.117	-0.350
-676.178	35.018	-0.184	0.164
-675.164	562.587	-0.098	0.242
-674.149	81.043	-0.189	-0.208
-673.135	224.616	0.259	0.427
-672.120	-48.537	-0.029	-0.014
-671.105	105.622	-0.170	-0.205
-670.091	-53.695	-0.301	0.140
-669.076	149.813	0.099	0.137
-668.062	-200.000	0.027	-0.251
-667.047	-200.000	0.010	-0.220
-666.032	545.565	0.167	-0.408
-665.018	-137.534	-0.251	-0.029
-664.003	-132.291	0.306	-0.040
-662.989	69.431	0.285	-0.299
-661.974	-33.262	-0.168	0.095
-660.959	-49.449	0.180	-0.087
-659.945	76.151	-0.121	-0.131
-658.930	-45.161	0.345	0.175
-657.916	210.507	-0.231	0.370
-656.901	266.296	-0.101	-0.181
-655.886	-87.008	-0.335	-0.104
-654.872	-200.000	0.045	0.278
-653.857	98.718	-0.079	-0.093
-652.843	-51.326	-0.234	0.112
-651.828	-145.215	-0.147	0.014
-650.814	800.000	0.053	0.199
-649.799	-200.000	0.062	-0.349
-648.784	357.146	-0.031	0.063
-647.770	27.226	0.183	-0.156
-646.755	-93.075	-0.129	-0.037
-645.741	706.941	-0.084	-0.226
-644.726	133.474	0.117	-0.154
-643.711	-57.027	-0.111	0.050
-642.697	-94.236	0.139	-0.039
-641.682	-112.946	0.108	0.022
-640.668	491.161	-0.041	0.097
-639.653	-27.496	0.190	0.112
-638.638	165.571	0.032	-0.046
-637.624	-5.629	0.136	-0.095
-636.609	-15.232	0.059	-0.038
-635.595	331.964	-0.091	0.179
-634.580	4.462	-0.287	0.214
-633.565	800.000	0.066	0.275
-632.551	221.577	0.125	0.205
-631.536	-53.831	-0.279	-0.129
-630.522	-76.236	0.468	-0.168
-629.507	-200.000	0.062	-0.281
-628.492	213.220	-0.123	0.197
-627.478	65.875	-0.090	0.093
-626.463	26.364	0.304	-0.259
-625.449	-200.000	0.053	0.259
-624.434	-200.000	-0.005	0.099
-623.419	800.000	0.107	-0.384
-622.405	-200.000	0.001	-0.345
-621.390	111.119	-0.231	-0.284
-620.376	22.579	-0.195	-0.163
-619.361	800.000	-0.089	-0.255
-618.346	-55.464	-0.204	-0.093
-617.332	68.621	-0.190	0.199
-616.317	319.859	-0.139	0.268
-615.303	118.898	-0.160	-0.202
-614.288	-112.905	0.044	0.009
-613.273	-135.207	0.199	-0.024
-612.259	138.817	0.147	-0.197
-611.244	-127.073	-0.113	0.017
-610.230	143.122	-0.331	-0.448
-609.215	-122.558	0.151	0.025
-608.201	46.730	0.140	0.132
-607.186	-38.474	-0.230	0.124
-606.171	-131.619	0.317	0.042
-605.157	613.979	-0.076	-0.194
-604.142	-115.887	-0.347	0.066
-603.128	-53.745	0.199	-0.093
-602.113	-112.689	-0.267	-0.054
-601.098	716.160	-0.022	-0.058
-600.084	800.000	-0.014	-0.058
-599.069	800.000	-0.016	0.055
-598.055	23.059	-0.071	0.059
-597.040	-77.481	0.235	-0.083
-596.025	4.769	-0.216	-0.161
-595.011	-28.442	0.067	-0.039
-593.996	-200.000	0.028	-0.219
-592.982	-200.000	0.052	0.238
-591.967	209.841	0.144	-0.229
-590.952	-6.249	-0.152	0.106
-589.938	493.778	0.108	0.251
-588.923	-200.000	-0.082	0.430
-587.909	-200.000	-0.008	0.069
-586.894	138.078	-0.085	0.114
-585.879	47.984	-0.137	0.130
-584.865	-200.000	-0.009	0.063
-583.850	6.566	-0.109	-0.082
-582.836	-200.000	0.022	-0.189
-581.821	-200.000	-0.044	-0.312
-580.806	-124.893	-0.373	0.058
-579.792	33.072	-0.319	-0.281
-578.777	800.000	-0.084	-0.336
-577.763	-57.852	-0.246	0.109
-576.748	87.213	0.046	-0.052
-575.733	-200.000	0.004	0.144
-574.719	-40.853	-0.050	-0.026
-573.704	800.000	-0.032	0.125
-572.690	-130.761	0.169	-0.023
-571.675	33.651	-0.153	0.135
-570.661	572.164	-0.072	0.178
-569.646	125.932	-0.019	-0.024
-568.631	800.000	0.089	0.308
-567.617	800.000	0.024	-0.075
-566.602	-200.000	0.019	-0.112
-565.588	-70.260	0.325	-0.125
-564.573	-94.165	0.155	-0.043
-563.558	-102.866	0.159	0.038
-562.544	377.454	0.069	-0.144
-561.529	157.749	-0.189	0.266
-560.515	135.399	0.116	0.153
-559.500	-200.000	0.018	0.438
-558.485	-200.000	-0.001	0.086
-557.471	622.243	0.173	-0.441
-556.456	266.165	0.181	-0.320
-555.442	35.270	0.302	0.269
-554.427	102.272	0.058	0.069
-553.412	-128.580	-0.098	0.014
-552.398	-200.000	0.041	0.253
-551.383	63.465	0.153	-0.156
-550.369	-200.000	-0.001	-0.173
-549.354	-130.498	0.117	-0.016
-548.339	-57.202	0.107	-0.048
-547.325	-7.818	-0.185	0.127
-546.310	-120.146	-0.219	0.038
-545.296	129.780	-0.130	0.169
-544.281	197.192	-0.057	0.089
-543.266	245.314	-0.045	-0.077
-542.252	-157.877	-0.221	0.013
-541.237	-14.500	-0.134	-0.087
-540.223	800.000	-0.022	0.063
-539.208	-61.661	0.083	-0.035
-538.193	-22.136	0.272	0.167
-537.179	800.000	-0.017	0.069
-536.164	-139.253	-0.303	0.033
-535.150	-200.000	-0.027	-0.275
-534.135	-158.149	0.068	0.004
-533.121	-55.541	0.122	-0.055
-532.106	71.851	-0.037	-0.039
-531.091	16.165	0.164	-0.131
-530.077	-172.028	0.074	0.002
-529.062	-0.654	0.318	0.229
-528.048	178.691	0.314	0.466
-527.033	295.951	0.147	-0.273
-526.018	129.735	-0.152	-0.197
-525.004	18.878	-0.063	0.051
-523.989	-200.000	0.016	-0.336
-522.975	-36.941	0.058	0.032
-521.960	-138.604	-0.262	0.029
-520.945	800.000	-0.061	-0.179
-519.931	-200.000	0.043	0.226
-518.916	138.903	0.062	0.082
-517.902	-97.133	0.206	0.055
-516.887	108.950	0.250	0.303
-515.872	-200.000	-0.003	-0.234
-514.858	-200.000	-0.032	-0.254
-513.843	-88.349	0.253	-0.077
-512.829	-200.000	-0.035	0.234
-511.814	-27.283	-0.047	0.028
-510.799	-35.439	0.211	-0.116
-509.785	-200.000	-0.010	0.355
-508.770	72.513	0.058	-0.061
-507.756	272.820	-0.016	-0.028
-506.741	-134.674	-0.106	-0.013
-505.726	139.041	0.106	0.141
-504.712	-17.521	-0.080	-0.051
-503.697	-125.437	-0.389	-0.060
-502.683	-143.076	-0.127	-0.012
-501.668	42.858	0.179	0.166
-500.653	192.004	-0.058	-0.088
-499.639	-200.000	-0.012	-0.127
-498.624	-67.067	0.161	0.064
-497.610	-200.000	0.042	-0.297
-496.595	-200.000	-0.020	-0.257
-495.581	-200.000	-0.032	-0.179
-494.566	-73.558	-0.189	0.070
-493.551	20.639	0.249	0.204
-492.537	155.250	0.026	0.036
-491.522	136.556	-0.176	0.232
-490.508	119.940	0.245	0.307
-489.493	436.122	0.008	-0.018
-488.478	59.915	0.195	0.195
-487.464	347.270	-0.106	0.212
-486.449	800.000	-0.083	-0.320
-485.435	-54.106	0.195	-0.090
-484.420	790.393	0.093	0.259
-483.405	-42.981	-0.292	0.150
-482.391	119.968	0.095	0.119
-481.376	800.000	0.101	0.350
-480.362	87.598	0.140	-0.157
-479.347	-200.000	-0.040	-0.262
-478.332	5.099	0.225	-0.168
-477.318	238.421	-0.080	-0.134
-476.303	-156.463	-0.251	0.016
-475.289	-161.043	-0.474	-0.025
-474.274	162.498	0.089	-0.126
-473.259	-200.000	0.001	-0.065
-472.245	-94.566	0.271	-0.075
-471.230	800.000	-0.035	-0.148
-470.216	486.572	0.022	0.052
-469.201	-28.075	-0.329	-0.193
-468.186	42.317	0.145	0.134
-467.172	-8.771	-0.135	0.092
-466.157	-28.901	0.137	0.080
-465.143	603.068	0.029	-0.073
-464.128	182.740	-0.128	-0.191
-463.113	2.571	0.365	0.267
-462.099	-89.132	-0.407	-0.122
-461.084	14.063	-0.113	-0.089
-460.070	663.379	0.024	0.062
-459.055	69.317	0.216	0.225
-458.040	185.789	-0.103	-0.155
-457.026	-200.000	0.025	0.213
-456.011	93.781	0.189	-0.216
-454.997	-200.000	0.021	-0.337
-453.982	-177.516	-0.294	0.007
-452.968	424.063	0.041	0.089
-451.953	-158.029	0.047	0.003
-450.938	-60.735	0.257	-0.110
-449.924	235.321	-0.118	-0.197
-448.909	-200.000	-0.025	0.351
-447.895	800.000	-0.126	0.356
-446.880	524.571	0.129	0.307
-445.865	365.212	-0.081	0.165
-444.851	-50.143	0.225	-0.108
-443.836	-200.000	0.023	0.295
-442.822	800.000	0.017	0.075
-441.807	706.200	0.091	-0.242
-440.792	219.719	-0.221	0.358
-439.778	26.149	0.130	0.110
-438.763	-73.933	-0.310	0.114
-437.749	-115.976	0.040	0.008
-436.734	-21.762	-0.240	0.148
-435.719	477.663	0.170	-0.388
-434.705	-112.141	-0.135	0.027
-433.690	-45.803	0.442	-0.220
-432.676	587.528	0.122	-0.304
-431.661	-131.392	-0.236	0.032
-430.646	-3.237	0.120	0.084
-429.632	-115.220	-0.281	-0.054
-428.617	-153.360	0.008	-0.001
-427.603	98.732	0.121	-0.141
-426.588	-50.820	0.113	-0.054
-425.573	141.301	0.198	0.265
-424.559	-116.282	0.190	-0.036
-423.544	800.000	-0.025	0.071
-422.530	-86.709	0.050	-0.015
-421.515	474.064	0.019	0.044
-420.500	800.000	-0.044	-0.145
-419.486	474.769	-0.082	-0.186
-418.471	-200.000	-0.033	-0.250
-417.457	265.489	0.110	-0.193
-416.442	378.471	-0.181	0.374
-415.428	182.373	-0.042	0.062
-414.413	-33.247	-0.183	-0.103
-413.398	218.297	-0.147	-0.237
-412.384	310.125	-0.034	-0.064
-411.369	-200.000	0.066	-0.299
-410.355	800.000	0.050	-0.148
-409.340	305.269	0.032	-0.060
-408.325	-82.986	0.297	-0.097
-407.311	-24.477	-0.098	-0.059
-406.296	164.684	-0.145	0.206
-405.282	100.788	-0.283	0.332
-404.267	271.188	0.045	-0.080
-403.252	800.000	0.038	-0.119
-402.238	-200.000	-0.012	-0.160
-401.223	-200.000	-0.013	0.105
-400.209	-37.452	-0.261	0.141
-399.194	-176.885	0.343	0.009
-398.179	-147.860	0.300	-0.025
-397.165	243.500	-0.185	-0.312
-396.150	-200.000	-0.013	-0.358
-395.136	-200.000	-0.002	-0.226
-394.121	-170.676	-0.321	-0.011
-393.106	460.534	0.205	0.461
-392.092	4.081	-0.078	-0.058
-391.077	-154.887	0.205	-0.014
-390.063	-128.159	0.184	-0.026
-389.048	-22.779	-0.119	-0.072
-388.033	800.000	-0.130	0.367
-387.019	-141.029	-0.307	0.032
-386.004	-159.522	-0.054	0.003
-384.990	342.987	-0.038	-0.075
-383.975	10.881	-0.150	-0.116
-382.960	114.758	0.113	0.138
-381.946	-120.034	-0.200	0.035
-380.931	287.932	-0.176	0.321
-379.917	-200.000	0.002	-0.016
-378.902	-46.197	-0.201	-0.100
-377.888	200.104	0.070	0.108
-376.873	115.911	0.077	-0.095
-375.858	147.894	-0.106	0.144
-374.844	-40.486	-0.123	0.064
-373.829	-40.392	-0.187	-0.098
-372.815	714.959	0.056	0.150
-371.800	-200.000	-0.033	-0.271
-370.785	-200.000	-0.005	-0.024
-369.771	-123.520	0.029	-0.005
-368.756	-200.000	0.066	-0.298
-367.742	-200.000	0.011	0.049
-366.727	-40.575	-0.097	0.051
-365.712	-52.670	0.207	0.096
-364.698	490.228	0.103	-0.238
-363.683	-200.000	0.073	0.472
-362.669	-124.770	0.146	-0.023
-361.654	202.732	-0.153	0.238
-360.639	-12.565	0.275	-0.181
-359.625	-37.842	0.134	-0.072
-358.610	800.000	-0.044	0.177
-357.596	129.252	0.143	-0.183
-356.581	699.345	0.052	0.139
-355.566	-164.601	-0.077	-0.003
-354.552	-65.529	-0.351	-0.142
-353.537	-153.515	0.086	-0.006
-352.523	-148.962	-0.055	-0.004
-351.508	143.000	-0.145	0.194
-350.493	-15.177	-0.061	0.040
-349.479	800.000	-0.133	-0.573
-348.464	119.661	0.207	0.259
-347.450	800.000	0.073	0.215
-346.435	65.710	0.177	-0.180
-345.420	-200.000	0.019	-0.091
-344.406	-200.000	-0.011	0.140
-343.391	-200.000	-0.007	0.083
-342.377	-200.000	-0.005	0.023
-341.362	-102.903	0.311	0.074
-340.348	715.649	0.075	-0.201
-339.333	7.242	-0.044	-0.033
-338.318	-58.446	0.073	-0.032
-337.304	-31.735	-0.280	-0.158
-336.289	45.741	-0.231	0.215
-335.275	-200.000	-0.032	-0.213
-334.260	-155.787	-0.187	-0.012
-333.245	-61.436	-0.224	0.095
-332.231	-200.000	-0.014	0.159
-331.216	-40.787	-0.071	-0.037
-330.202	108.629	-0.111	-0.134
-329.187	-200.000	-0.003	-0.122
-328.172	530.703	-0.233	0.555
-327.158	-35.410	-0.110	-0.060
-326.143	-200.000	-0.042	-0.263
-325.129	272.537	0.110	0.195
-324.114	38.857	-0.271	0.243
-323.099	81.086	0.169	0.183
-322.085	-56.181	0.075	0.034
-321.070	-15.211	0.328	-0.211
-320.056	132.244	-0.317	0.411
-319.041	-39.100	-0.332	0.176
-318.026	354.274	0.174	0.349
-317.012	-200.000	-0.014	0.104
-315.997	800.000	0.022	-0.090
-314.983	152.122	-0.062	-0.085
-313.968	785.099	-0.030	-0.083
-312.953	687.646	-0.056	0.147
-311.939	-200.000	0.000	-0.080
-310.924	28.996	0.358	-0.305
-309.910	-62.007	0.062	-0.026
-308.895	38.048	0.209	0.187
-307.880	343.770	-0.228	-0.449
-306.866	-140.066	0.071	0.007
-305.851	-63.779	-0.431	0.178
-304.837	-117.880	-0.208	-0.037
-303.822	-200.000	0.040	0.246
-302.807	109.149	0.061	-0.073
-301.793	-80.276	0.229	0.077
-300.778	-106.347	0.162	-0.036
-299.764	-123.175	0.119	-0.019
-298.749	-124.898	0.219	-0.034
-297.735	-67.077	-0.083	0.033
-296.720	495.488	0.161	-0.371
-295.705	-46.979	-0.148	-0.073
-294.691	12.388	0.329	0.255
-293.676	800.000	-0.029	0.093
-292.662	35.560	0.122	0.108
-291.647	209.605	-0.061	-0.095
-290.632	-152.059	-0.287	0.021
-289.618	-26.934	0.110	0.065
-288.603	27.931	-0.200	-0.169
-287.589	-48.225	0.458	0.222
-286.574	45.553	0.065	0.061
-285.559	-11.192	0.117	0.077
-284.545	-163.912	-0.236	-0.011
-283.530	-180.750	0.109	0.002
-282.516	7.054	-0.073	0.055
-281.501	-90.006	0.266	0.078
-280.486	16.783	0.394	0.313
-279.472	788.449	0.178	0.490
-278.457	51.897	0.263	0.252
-277.443	287.362	-0.154	-0.279
-276.428	-186.158	-0.309	-0.005
-275.413	269.711	0.117	-0.206
-274.399	-200.000	0.009	-0.237
-273.384	-200.000	-0.023	-0.192
-272.370	6.704	0.189	0.141
-271.355	-200.000	-0.120	0.533
-270.340	-120.841	-0.160	0.027
-269.326	494.617	0.085	0.196
-268.311	-99.304	0.401	-0.102
-267.297	-93.357	-0.173	-0.048
-266.282	-200.000	0.000	0.036
-265.267	-200.000	0.004	-0.116
-264.253	-152.435	0.141	-0.010
-263.238	325.597	-0.062	-0.119
-262.224	-200.000	-0.025	0.584
-261.209	-83.703	0.075	0.024
-260.195	800.000	-0.051	-0.200
-259.180	-200.000	-0.057	-0.283
-258.165	240.972	0.006	-0.010
-257.151	301.433	0.145	0.269
-256.136	410.934	-0.082	-0.174
-255.122	661.040	0.098	0.253
-254.107	196.778	-0.089	0.136
-253.092	-22.046	0.280	-0.171
-252.078	61.430	-0.078	-0.078
-251.063	-196.924	0.090	-0.001
-250.049	-95.896	-0.309	-0.083
-249.034	-16.967	-0.217	-0.138
-248.019	10.483	0.156	-0.119
-247.005	-71.179	-0.298	-0.112
-245.990	-89.730	-0.037	0.011
-244.976	6.387	0.074	0.055
-243.961	-82.635	0.405	0.132
-242.946	101.078	-0.077	0.090
-241.932	-57.818	-0.445	0.195
-240.917	-200.000	-0.008	0.059
-239.903	117.474	-0.291	0.359
-238.888	-155.000	-0.061	0.004
-237.873	-7.847	-0.147	0.100
-236.859	-109.688	-0.039	-0.008
-235.844	494.018	0.103	-0.236
-234.830	165.055	0.077	-0.109
-233.815	282.758	-0.112	-0.202
-232.800	-93.466	-0.360	0.100
-231.786	193.302	0.243	-0.368
-230.771	-157.192	-0.200	-0.012
-229.757	-137.503	0.257	-0.029
-228.742	-200.000	-0.058	-0.331
-227.727	-157.227	0.126	-0.008
-226.713	800.000	-0.051	-0.183
-225.698	161.217	0.145	0.204
-224.684	-45.128	0.211	0.105
-223.669	256.621	0.238	0.410
-222.655	-107.279	-0.175	-0.039
-221.640	-200.000	-0.022	-0.218
-220.625	-64.427	0.488	-0.199
-219.611	331.545	-0.155	0.299
-218.596	800.000	0.063	-0.192
-217.582	-79.257	0.380	-0.129
-216.567	-80.118	-0.096	-0.032
-215.552	456.940	0.110	-0.245
-214.538	-168.830	-0.236	0.009
-213.523	207.914	0.140	0.219
-212.509	-64.290	-0.323	-0.132
-211.494	136.611	-0.227	-0.297
-210.479	66.364	-0.124	0.126
-209.465	9.638	-0.200	-0.151
-208.450	-86.927	-0.065	-0.020
-207.436	-180.026	0.191	0.004
-206.421	-118.497	0.218	0.039
-205.406	-139.623	-0.209	-0.022
-204.392	103.000	0.042	-0.049
-203.377	638.587	0.094	-0.239
-202.363	290.259	0.036	-0.065
-201.348	-29.335	-0.099	0.057
-200.333	167.345	-0.145	0.207
-199.319	-200.000	-0.001	0.140
-198.304	-169.882	0.442	0.016
-197.290	-200.000	-0.017	-0.225
-196.275	114.982	-0.084	0.103
-195.260	800.000	-0.080	0.224
-194.246	800.000	-0.049	-0.207
-193.231	181.708	-0.045	-0.067
-192.217	-200.000	-0.003	-0.205
-191.202	-138.416	0.132	0.015
-190.187	-53.040	-0.183	-0.084
-189.173	87.688	0.179	-0.199
-188.158	-200.000	-0.042	0.360
-187.144	-200.000	0.050	0.230
-186.129	244.160	-0.120	-0.202
-185.114	-165.581	0.397	-0.017
-184.100	57.545	0.133	-0.130
-183.085	12.179	0.143	0.110
-182.071	-200.000	-0.007	0.325
-181.056	-200.000	-0.017	0.195
-180.042	28.871	0.064	-0.054
-179.027	238.232	0.082	-0.136
-178.012	63.983	0.079	0.080
-176.998	-22.856	0.255	-0.154
-175.983	-73.386	0.152	0.056
-174.969	-41.377	0.264	-0.136
-173.954	-120.440	0.198	-0.034
-172.939	800.000	-0.011	-0.041
-171.925	-100.131	-0.229	-0.057
-170.910	-23.478	-0.186	-0.112
-169.896	-71.492	-0.207	-0.077
-168.881	129.976	-0.287	-0.367
-167.866	-33.195	0.217	0.120
-166.852	445.416	0.099	0.217
-165.837	7.301	-0.235	0.175
-164.823	-70.198	-0.266	-0.101
-163.808	135.974	0.186	0.242
-162.793	-152.468	-0.311	-0.022
-161.779	-200.000	0.002	-0.015
-160.764	510.281	-0.139	-0.324
-159.750	148.797	0.109	-0.147
-158.735	-117.060	-0.367	-0.067
-157.720	-200.000	0.001	0.279
-156.706	209.178	0.050	0.078
-155.691	-200.000	0.030	0.313
-154.677	-0.272	-0.285	0.202
-153.662	800.000	-0.092	0.262
-152.647	64.950	0.119	-0.120
-151.633	-137.544	0.079	-0.009
-150.618	131.572	0.144	-0.185
-149.604	12.265	0.432	0.332
-148.589	-83.204	-0.151	-0.048
-147.574	-23.870	0.053	0.032
-146.560	-21.073	0.325	-0.198
-145.545	322.564	0.091	0.174
-144.531	-157.274	0.171	-0.010
-143.516	-200.000	-0.006	0.143
-142.502	85.580	0.126	0.139
-141.487	-75.450	0.340	0.121
-140.472	-76.432	-0.331	0.116
-139.458	-14.183	0.180	-0.116
-138.443	-191.967	0.177	-0.002
-137.429	-32.683	0.188	0.104
-136.414	-194.530	-0.138	0.001
-135.399	800.000	0.101	0.308
-134.385	-161.309	-0.121	0.006
-133.370	-113.348	0.251	-0.049
-132.356	800.000	-0.075	-0.285
-131.341	-115.242	-0.300	0.057
-130.326	64.729	0.045	0.045
-129.312	275.416	-0.027	0.047
-128.297	-75.093	-0.056	-0.020
-127.283	-40.879	0.278	0.144
-126.268	-89.986	-0.148	0.043
-125.253	-91.451	0.118	-0.034
-124.239	-200.000	0.021	0.134
-123.224	800.000	-0.124	-0.351
-122.210	-200.000	-0.072	0.000
-121.195	-101.898	-0.073	-0.018
-120.180	34.962	0.128	-0.111
-119.166	-114.014	-0.300	0.058
-118.151	56.288	-0.095	0.092
-117.137	193.774	0.099	0.149
-116.122	127.120	0.083	-0.106
-115.107	-200.000	0.091	0.440
-114.093	57.777	-0.052	0.051
-113.078	14.065	-0.019	0.015
-112.064	19.297	-0.038	0.030
-111.049	-48.992	0.368	-0.176
-110.034	120.987	0.070	-0.087
-109.020	29.978	-0.290	0.247
-108.005	-61.208	-0.110	0.046
-106.991	-86.852	0.231	0.070
-105.976	104.891	0.034	0.040
-104.962	800.000	-0.091	0.317
-103.947	-6.993	0.210	0.143
-102.932	-90.521	-0.173	0.050
-101.918	174.728	0.022	0.031
-100.903	40.646	-0.156	-0.140
-99.889	-4.204	-0.162	-0.112
-98.874	-181.039	-0.222	-0.004
-97.859	800.000	-0.038	-0.130
-96.845	101.338	-0.173	0.201
-95.830	-99.595	0.368	0.092
-94.816	-64.638	0.056	0.023
-93.801	458.450	0.043	-0.096
-92.786	-31.920	-0.224	-0.125
-91.772	-200.000	0.003	-0.138
-90.757	786.765	0.041	0.111
-89.743	133.673	0.176	-0.226
-88.728	-58.837	-0.301	-0.130
-87.713	44.811	0.173	0.159
-86.699	-7.276	0.249	-0.168
-85.684	800.000	-0.031	0.094
-84.670	-200.000	-0.033	-0.385
-83.655	92.702	-0.100	-0.113
-82.640	-200.000	0.011	0.186
-81.626	81.545	0.141	0.152
-80.611	233.197	-0.176	-0.289
-79.597	-35.931	0.184	-0.099
-78.582	5.460	0.094	0.069
-77.567	-152.466	-0.180	-0.013
-76.553	-61.491	-0.167	-0.070
-75.538	655.384	0.127	0.324
-74.524	-152.127	-0.119	0.009
-73.509	55.791	0.051	0.049
-72.494	800.000	-0.056	-0.243
-71.480	275.240	0.120	-0.211
-70.465	-52.910	0.172	-0.079
-69.451	112.722	0.014	-0.017
-68.436	800.000	0.025	-0.082
-67.422	115.433	0.128	0.156
-66.407	800.000	-0.043	-0.155
-65.392	103.886	0.175	-0.205
-64.378	453.516	-0.066	0.146
-63.363	800.000	-0.098	-0.271
-62.349	-200.000	0.037	0.463
-61.334	5.247	-0.757	-0.556
-60.319	103.408	0.278	0.325
-59.305	-200.000	-0.019	-0.778
-58.290	82.206	0.396	0.428
-57.276	800.000	0.589	1.732
-56.261	-200.000	75.890	538.634
-55.246	513.622	1353.465	3142.495
-54.232	136.813	2606.223	3388.931
-53.217	117.918	2277.366	2792.981
-52.203	53.500	1779.456	1699.141
-51.188	45.631	1570.649	1444.507
-50.173	42.876	1540.202	1397.352
-49.159	58.837	1576.728	1542.598
-48.144	65.768	1596.653	1610.519
-47.130	46.242	1559.638	1438.429
-46.115	42.604	1544.236	1398.898
-45.100	42.345	1541.405	1394.482
-44.086	42.230	1539.790	1392.163
-43.071	42.232	1537.142	1389.727
-42.057	42.052	1536.235	1387.607
-41.042	42.120	1534.155	1386.142
-40.027	42.130	1532.528	1384.684
-39.013	42.134	1530.968	1383.252
-37.998	42.149	1529.739	1382.189
-36.984	42.138	1528.310	1380.763
-35.969	42.154	1527.271	1379.881
-34.954	42.215	1525.656	1378.787
-33.940	42.135	1523.709	1376.428
-32.925	42.151	1522.614	1375.491
-31.911	42.200	1521.279	1374.570
-30.896	42.239	1520.115	1373.725
-29.881	42.195	1518.653	1372.052
-28.867	42.247	1517.548	1371.353
-27.852	42.301	1515.820	1370.107
-26.838	42.196	1514.127	1367.803
-25.823	42.137	1512.462	1365.845
-24.809	42.095	1511.357	1364.508
-23.794	42.158	1509.491	1363.198
-22.779	42.158	1508.201	1361.979
-21.765	42.156	1507.179	1360.986
-20.750	42.257	1505.708	1360.289
-19.736	42.267	1504.384	1359.108
-18.721	42.166	1503.605	1357.666
-17.706	42.053	1502.852	1356.168
-16.692	42.193	1501.380	1355.731
-15.677	42.221	1500.057	1354.675
-14.663	42.099	1499.464	1353.257
-13.648	41.978	1499.010	1351.981
-12.633	42.129	1497.835	1351.882
-11.619	42.032	1497.421	1350.798
-10.604	42.073	1496.210	1349.933
-9.590	42.024	1495.240	1348.670
-8.575	42.111	1494.019	1348.101
-7.560	42.060	1493.828	1347.535
-6.546	42.167	1492.067	1346.610
-5.531	42.047	1491.610	1345.338
-4.517	42.043	1490.289	1344.070
-3.502	42.124	1489.730	1344.054
-2.487	42.085	1488.379	1342.522
-1.473	42.183	1487.269	1342.119
-0.458	42.078	1486.050	1340.264
0.556	40.489	1476.955	1331.320
1.571	37.802	1449.696	1288.888
2.586	33.762	1386.445	1206.920
3.600	31.259	1301.747	1118.128
4.615	28.897	1252.086	1061.754
5.629	25.905	1197.209	998.580
6.644	19.827	1113.523	897.270
7.659	14.934	1071.191	838.612
8.673	14.055	1065.730	829.876
9.688	13.903	1063.035	826.944
10.702	13.838	1061.101	825.045
11.717	13.725	1059.990	823.547
12.731	15.970	1061.531	835.824
13.746	20.762	1068.217	864.878
14.761	21.518	1067.470	867.949
15.775	18.632	1062.610	849.652
16.790	17.053	1059.371	839.185
17.804	15.835	1057.504	831.617
18.819	14.981	1055.053	825.403
19.834	14.407	1053.586	821.354
20.848	14.022	1052.390	818.455
21.863	13.758	1051.969	816.754
22.877	13.633	1050.929	815.259
23.892	13.369	1050.302	813.402
24.907	13.283	1049.238	812.088
25.921	13.255	1048.716	811.473
26.936	13.283	1047.703	810.754
27.950	13.433	1046.285	810.322
28.965	13.398	1045.362	809.361
29.980	13.400	1044.532	808.655
30.994	13.410	1043.499	807.836
32.009	13.418	1042.695	807.181
33.023	13.548	1041.906	807.133
34.038	13.506	1040.755	805.963
35.053	13.547	1040.070	805.561
36.067	13.493	1039.075	804.456
37.082	13.385	1038.032	803.052
38.096	13.528	1036.890	802.791
39.111	13.453	1036.165	801.797
40.126	13.460	1035.453	801.210
41.140	13.416	1034.359	800.082
42.155	13.182	1033.780	798.430
43.169	13.165	1032.966	797.647
44.184	13.164	1031.879	796.732
45.199	13.168	1030.223	795.402
46.213	13.144	1029.608	794.744
47.228	13.200	1028.372	793.990
48.242	13.372	1027.231	793.864
49.257	13.390	1026.494	793.310
50.271	13.398	1025.548	792.544
51.286	13.444	1024.349	791.771
52.301	13.455	1023.733	791.274
53.315	13.385	1022.967	790.281
54.330	13.422	1022.217	789.805
55.344	13.172	1021.562	788.040
56.359	13.443	1019.944	788.009
57.374	13.299	1019.170	786.660
58.388	13.293	1018.391	785.957
59.403	13.151	1017.400	784.450
60.417	13.085	1016.744	783.561
61.432	13.106	1016.415	783.340
62.447	13.308	1015.338	783.397
63.461	13.155	1014.343	781.834
64.476	13.141	1013.840	781.311
65.490	13.055	1013.053	780.231
66.505	13.099	1012.126	779.652
67.520	13.169	1011.385	779.343
68.534	13.195	1010.248	778.524
69.549	13.269	1009.498	778.225
70.563	13.102	1009.055	777.029
71.578	13.238	1007.966	776.762
72.593	13.173	1007.182	775.783
73.607	13.041	1006.101	774.260
74.622	13.163	1005.253	774.114
75.636	13.122	1004.299	773.119
76.651	13.104	1003.406	772.275
77.666	13.043	1003.543	772.027
78.680	13.121	1002.379	771.429
79.695	13.161	1001.677	771.008
80.709	13.137	1001.172	770.440
81.724	13.233	1000.436	770.251
82.739	13.204	1000.121	769.806
83.753	13.263	998.855	769.035
84.768	13.184	998.540	768.361
85.782	13.567	997.363	769.164
86.797	13.318	997.039	767.692
87.812	13.400	995.760	767.017
88.826	13.323	995.467	766.366
89.841	13.214	994.819	765.294
90.855	13.325	994.021	765.127
91.870	13.387	992.877	764.464
92.884	13.413	992.268	764.051
93.899	13.500	991.507	763.799
94.914	13.483	990.721	763.048
95.928	13.468	989.777	762.181
96.943	13.550	989.443	762.233
97.957	13.577	988.477	761.550
98.972	13.385	987.794	760.074
99.987	13.410	987.006	759.515
101.001	13.537	986.117	759.346
102.016	13.454	985.566	758.473
103.030	13.312	984.769	757.141
104.045	13.336	983.449	756.171
105.060	13.504	982.363	756.038
106.074	13.503	981.081	754.978
107.089	13.424	980.212	753.882
108.103	13.232	979.845	752.659
109.118	13.284	978.429	751.740
110.133	13.338	977.849	751.472
111.147	13.240	976.874	750.213
112.162	13.336	976.168	750.041
113.176	13.161	975.358	748.559
114.191	13.298	974.781	748.670
115.206	13.385	973.740	748.197
116.220	13.301	972.802	747.030
117.235	13.205	972.043	745.950
118.249	13.294	971.232	745.662
119.264	13.268	970.644	745.027
120.279	13.378	969.316	744.438
121.293	13.306	968.527	743.441
122.308	13.228	968.014	742.633
123.322	13.326	967.088	742.295
124.337	13.130	965.990	740.507
125.352	13.246	964.536	739.845
126.366	13.232	963.611	739.011
127.381	13.209	962.715	738.153
128.395	13.201	961.894	737.424
129.410	13.293	960.581	736.764
130.424	13.294	959.687	736.016
131.439	13.388	958.849	735.724
132.454	13.401	958.357	735.340
133.468	13.251	957.882	734.244
134.483	13.382	956.863	733.981
135.497	13.436	955.934	733.441
136.512	13.466	955.304	733.028
137.527	13.412	954.929	732.436
138.541	13.399	953.834	731.473
139.556	13.416	953.142	730.954
140.570	13.425	952.569	730.488
141.585	13.445	951.896	729.997
142.600	13.511	950.946	729.492
143.614	13.676	950.104	729.509
144.629	13.719	949.030	728.809
145.643	13.642	948.463	727.971
146.658	13.526	948.289	727.265
147.673	13.541	947.002	726.277
148.687	13.433	946.307	725.206
149.702	13.380	945.274	724.118
150.716	13.479	944.215	723.679
151.731	13.263	943.572	722.179
152.746	13.378	942.979	722.161
153.760	13.359	941.766	721.084
154.775	13.547	940.792	721.094
155.789	13.455	940.252	720.216
156.804	13.442	939.784	719.736
157.819	13.624	938.693	719.627
158.833	13.603	937.888	718.859
159.848	13.598	937.567	718.527
160.862	13.515	936.855	717.559
161.877	13.517	936.091	716.917
162.892	13.473	935.015	715.840
163.906	13.459	934.382	715.232
164.921	13.399	933.422	714.173
165.935	13.510	932.588	713.950
166.950	13.603	931.212	713.233
167.964	13.484	930.735	712.293
168.979	13.444	929.888	711.412
169.994	13.511	928.586	710.639
171.008	13.463	928.119	710.012
172.023	13.470	927.282	709.339
173.037	13.553	926.680	709.173
174.052	13.559	925.684	708.376
175.067	13.635	924.592	707.799
176.081	13.573	924.490	707.394
177.096	13.536	923.280	706.248
178.110	13.513	922.211	705.269
179.125	13.541	921.819	705.027
180.140	13.493	921.349	704.401
181.154	13.521	920.351	703.696
182.169	13.604	919.852	703.605
183.183	13.666	919.330	703.407
184.198	13.751	918.282	702.899
185.213	13.749	917.744	702.420
186.227	13.703	916.918	701.527
187.242	13.741	916.575	701.367
188.256	13.800	916.025	701.133
189.271	14.005	915.113	701.237
190.286	14.000	914.192	700.447
191.300	13.679	913.873	698.791
192.315	13.543	912.978	697.470
193.329	13.606	912.186	697.067
194.344	13.543	911.532	696.242
195.359	13.597	911.225	696.174
196.373	13.766	910.358	696.156
197.388	13.722	910.123	695.732
198.402	13.857	909.603	695.838
199.417	13.896	909.159	695.601
200.432	14.058	908.328	695.584
201.446	13.912	907.913	694.594
202.461	14.022	907.924	694.999
203.475	14.042	907.297	694.543
204.490	14.158	906.365	694.250
205.504	13.971	905.691	692.894
206.519	13.946	904.925	692.140
207.534	14.037	903.906	691.681
208.548	14.016	903.322	691.083
209.563	14.038	902.530	690.506
210.577	14.040	902.043	690.084
211.592	14.154	901.374	689.984
212.607	14.050	901.033	689.231
213.621	14.072	900.007	688.475
214.636	14.105	899.462	688.132
215.650	14.139	898.955	687.826
216.665	14.078	898.181	686.923
217.680	14.195	897.647	686.933
218.694	14.281	897.383	687.028
219.709	14.386	896.478	686.705
220.723	14.281	895.775	685.675
221.738	14.295	895.193	685.227
222.753	14.292	894.403	684.548
223.767	14.196	894.143	683.896
224.782	14.303	892.899	683.321
225.796	14.254	892.792	682.976
226.811	14.327	891.743	682.416
227.826	14.250	891.141	681.578
228.840	14.299	890.269	681.049
229.855	14.327	889.772	680.726
230.869	14.417	889.270	680.648
231.884	14.488	888.139	680.010
232.899	14.367	887.815	679.208
233.913	14.352	886.778	678.297
234.928	14.352	886.377	677.931
235.942	14.310	885.716	677.191
236.957	14.256	885.153	676.481
237.972	14.435	884.242	676.454
238.986	14.266	883.925	675.465
240.001	14.245	883.389	674.909
241.015	14.357	882.447	674.583
242.030	14.342	881.336	673.616
243.045	14.443	881.158	673.828
244.059	14.475	880.694	673.543
245.074	14.483	880.047	673.022
246.088	14.391	879.503	672.175
247.103	14.611	878.874	672.519
248.117	14.661	877.855	671.882
249.132	14.609	877.975	671.704
250.147	14.724	877.156	671.482
251.161	14.732	876.639	671.058
252.176	14.806	876.080	670.869
253.190	14.744	875.567	670.168
254.205	14.900	874.591	669.984
255.220	14.919	873.719	669.335
256.234	14.881	873.277	668.787
257.249	14.925	872.704	668.464
258.263	14.980	872.202	668.238
259.278	14.731	872.000	667.030
260.293	14.901	871.106	666.966
261.307	14.985	870.549	666.814
262.322	14.997	869.965	666.358
263.336	15.113	869.504	666.407
264.351	15.112	868.646	665.688
265.366	14.941	868.503	664.836
266.380	15.200	867.393	664.956
267.395	15.102	867.043	664.242
268.409	15.076	866.236	663.462
269.424	15.058	865.194	662.532
270.439	15.061	864.575	662.012
271.453	15.093	863.460	661.228
272.468	14.972	863.299	660.565
273.482	15.020	862.640	660.195
274.497	15.043	862.030	659.761
275.512	15.150	860.777	659.163
276.526	15.016	860.452	658.329
277.541	15.054	859.867	657.974
278.555	15.090	859.330	657.643
279.570	15.125	859.092	657.541
280.585	15.145	858.545	657.143
281.599	15.253	857.499	656.710
282.614	15.343	856.918	656.559
283.628	15.296	855.923	655.552
284.643	15.319	855.700	655.415
285.657	15.239	855.089	654.576
286.672	15.237	855.087	654.507
287.687	15.092	854.753	653.627
288.701	15.230	853.892	653.452
289.716	15.317	853.368	653.329
290.730	15.242	852.852	652.588
291.745	15.361	852.007	652.345
292.760	15.294	851.521	651.655
293.774	15.473	850.618	651.601
294.789	15.331	850.536	650.928
295.803	15.536	849.709	651.034
296.818	15.386	849.157	649.972
297.833	15.333	848.467	649.180
298.847	15.458	847.894	649.169
299.862	15.523	846.868	648.576
300.876	15.562	846.506	648.391
301.891	15.512	846.085	647.818
302.906	15.532	845.383	647.301
303.920	15.680	844.688	647.284
304.935	15.605	843.984	646.396
305.949	15.666	843.190	645.964
306.964	15.740	842.810	645.900
307.979	15.730	842.070	645.239
308.993	15.729	841.609	644.824
310.008	15.754	841.376	644.685
311.022	15.831	840.443	644.209
312.037	15.736	840.379	643.739
313.052	15.714	839.565	642.973
314.066	15.700	838.981	642.418
315.081	15.641	838.451	641.730
316.095	15.687	837.693	641.267
317.110	15.586	837.496	640.674
318.125	15.701	836.643	640.402
319.139	15.550	836.432	639.608
320.154	15.662	836.009	639.656
321.168	15.829	835.077	639.522
322.183	15.733	834.777	638.869
323.197	15.631	834.351	638.101
324.212	15.737	833.761	637.995
325.227	15.817	833.017	637.673
326.241	15.747	832.714	637.119
327.256	15.773	831.972	636.594
328.270	15.773	831.541	636.207
329.285	15.738	830.930	635.551
330.300	15.775	830.328	635.175
331.314	15.827	829.642	634.789
332.329	15.849	829.119	634.416
333.343	15.998	828.275	634.276
334.358	15.965	827.954	633.849
335.373	16.024	827.568	633.719
336.387	15.906	826.967	632.759
337.402	16.003	826.417	632.647
338.416	15.926	826.170	632.111
339.431	15.950	825.539	631.664
340.446	16.139	824.797	631.747
341.460	16.010	824.187	630.741
342.475	16.090	824.013	630.852
343.489	16.194	823.129	630.507
344.504	16.048	822.669	629.556
345.519	16.216	822.361	629.891
346.533	16.368	821.435	629.690
347.548	16.177	821.271	628.799
348.562	16.226	820.758	628.534
349.577	16.179	820.036	627.749
350.592	16.255	819.285	627.404
351.606	16.230	819.034	627.063
352.621	16.311	818.561	626.945
353.635	16.145	818.488	626.218
354.650	16.323	817.435	626.014
355.665	16.143	817.602	625.422
356.679	16.163	817.055	625.022
357.694	16.337	816.398	625.106
358.708	16.307	815.675	624.387
359.723	16.328	815.167	624.021
360.738	16.289	814.736	623.490
361.752	16.297	814.522	623.302
362.767	16.379	813.896	623.070
363.781	16.487	813.495	623.107
364.796	16.371	813.235	622.425
365.810	16.478	812.701	622.356
366.825	16.466	812.292	621.941
367.840	16.456	812.149	621.742
368.854	16.542	811.479	621.490
369.869	16.650	810.961	621.433
370.883	16.604	810.607	620.939
371.898	16.577	810.136	620.425
372.913	16.497	809.708	619.749
373.927	16.662	808.739	619.556
374.942	16.648	808.051	618.922
375.956	16.653	807.471	618.443
376.971	16.721	806.605	617.972
377.986	16.922	806.082	618.252
379.000	16.786	805.828	617.504
380.015	16.767	805.562	617.177
381.029	16.716	805.083	616.570
382.044	16.735	804.297	615.982
383.059	16.807	803.842	615.840
384.073	16.701	803.287	614.975
385.088	16.970	802.244	615.098
386.102	16.881	801.873	614.440
387.117	16.783	801.300	613.590
388.132	16.690	801.243	613.154
389.146	16.795	800.626	613.009
390.161	16.809	800.188	612.669
391.175	16.803	799.788	612.288
392.190	16.922	799.279	612.273
393.205	16.939	799.195	612.216
394.219	16.863	798.907	611.665
395.234	16.851	798.231	611.053
396.248	16.910	797.421	610.588
397.263	16.813	797.313	610.103
398.278	16.748	796.669	609.322
399.292	16.777	796.319	609.107
400.307	16.817	795.999	608.950
401.321	16.902	795.293	608.664
402.336	16.860	795.124	608.330
403.350	16.914	794.694	608.138
404.365	17.021	794.059	607.984
405.380	17.038	793.760	607.762
406.394	17.058	793.337	607.454
407.409	17.170	792.969	607.519
408.423	17.351	792.071	607.424
409.438	17.086	792.339	606.628
410.453	17.208	791.891	606.669
411.467	17.234	791.277	606.238
412.482	17.270	790.772	605.924
413.496	17.224	790.066	605.167
414.511	17.135	790.237	604.929
415.526	17.308	790.088	605.375
416.540	17.392	788.846	604.668
417.555	17.360	788.928	604.563
418.569	17.318	788.275	603.861
419.584	17.320	787.861	603.496
420.599	17.316	787.080	602.831
421.613	87.918	1253.576	1340.799
422.628	74.604	1321.583	1340.966
