DTS Sentinel unit serial number:	SN413079Multiplexer serial number:	ORYXHardware model number:	OX4-SRSoftware version number:	ORYX F/W v4.00 Oryx Data Collector v3.7.2.0data status	okinstallation	princeton_trtdifferential loss correction	single-endedforward channel	channel 3reverse channel	N/Adate	2019/09/13time	08:32:35forward acquisition time	60.00reverse acquisition time	0.00gamma	496.2192k internal	0.2332k external	0.2332temperature offset calibration	1.0139default loss term (dB/km)	0.3790temperature slope calibration	1.0000multiplexer offset coefficient	1.0000multiplexer slope coefficient	1.0000fibre end	0.00T internal ref (°C)	27.56T ext. ref 1 (°C)	4.28T ext. ref 2 (°C)	24.51length (m)	temperature (°C)	Stokes	anti-Stokes-747.200	550.804	-0.087	-0.211
-746.185	-42.268	0.066	0.034
-745.171	-125.054	0.257	-0.040
-744.156	-50.383	-0.106	0.051
-743.142	-106.073	0.175	-0.040
-742.127	-200.000	-0.054	0.329
-741.112	367.813	-0.205	-0.418
-740.098	88.015	-0.172	-0.192
-739.083	-108.452	-0.247	0.053
-738.069	-200.000	0.005	0.193
-737.054	23.178	-0.106	0.087
-736.039	-93.117	-0.232	0.065
-735.025	61.748	0.140	0.140
-734.010	800.000	-0.029	-0.086
-732.996	27.271	-0.411	-0.347
-731.981	-200.000	0.001	-0.153
-730.966	-155.778	-0.112	-0.007
-729.952	25.092	-0.122	-0.102
-728.937	-86.520	-0.083	0.026
-727.923	-132.653	-0.377	-0.049
-726.908	31.113	-0.134	-0.116
-725.894	-26.423	0.118	-0.070
-724.879	-40.911	0.035	-0.018
-723.864	-200.000	0.008	-0.239
-722.850	58.183	-0.091	0.090
-721.835	-24.167	-0.376	0.226
-720.821	-200.000	0.019	0.115
-719.806	481.778	-0.092	-0.210
-718.791	34.898	-0.121	-0.107
-717.777	-83.090	0.112	-0.036
-716.762	-200.000	-0.314	-0.001
-715.748	205.356	0.218	-0.340
-714.733	238.843	0.074	-0.123
-713.718	282.456	0.082	-0.149
-712.704	-104.407	0.317	-0.074
-711.689	-78.934	-0.102	-0.035
-710.675	31.142	0.079	-0.068
-709.660	-200.000	-0.056	-0.353
-708.645	800.000	0.029	0.084
-707.631	291.215	0.211	-0.386
-706.616	-200.000	-0.015	-0.172
-705.602	221.059	-0.100	-0.161
-704.587	-165.632	0.210	0.009
-703.572	7.806	0.110	0.083
-702.558	-125.473	0.030	-0.005
-701.543	59.561	-0.175	0.173
-700.529	-96.386	0.095	-0.025
-699.514	-93.017	-0.203	-0.057
-698.499	-200.000	0.009	-0.311
-697.485	-200.000	-0.007	0.033
-696.470	-200.000	-0.041	-0.214
-695.456	398.894	-0.098	0.206
-694.441	-38.868	0.167	-0.088
-693.426	-102.207	-0.186	0.045
-692.412	-12.033	0.108	-0.071
-691.397	391.764	0.012	-0.026
-690.383	-200.000	-0.002	0.212
-689.368	118.788	-0.148	0.184
-688.354	-87.174	-0.095	0.029
-687.339	72.656	-0.126	-0.132
-686.324	-58.366	-0.259	-0.113
-685.310	-60.690	-0.189	0.080
-684.295	73.256	-0.079	-0.083
-683.281	-60.073	0.127	-0.054
-682.266	-200.000	-0.021	0.201
-681.251	38.823	0.116	0.104
-680.237	-200.000	-0.006	-0.203
-679.222	-97.462	0.172	0.045
-678.208	396.496	0.123	0.257
-677.193	800.000	-0.071	-0.222
-676.178	-95.112	-0.504	0.136
-675.164	-109.675	0.180	0.038
-674.149	800.000	0.083	-0.267
-673.135	-13.794	-0.152	0.099
-672.120	-73.067	0.048	0.018
-671.105	92.993	-0.278	-0.315
-670.091	136.729	-0.085	0.111
-669.076	1.372	-0.216	-0.156
-668.062	-32.206	-0.344	0.193
-667.047	74.066	0.280	0.295
-666.032	-63.005	0.098	0.041
-665.018	-21.423	0.057	-0.035
-664.003	-200.000	-0.024	0.249
-662.989	635.602	-0.014	0.036
-661.974	800.000	0.045	0.140
-660.959	-96.652	0.215	-0.057
-659.945	-200.000	-0.045	0.236
-658.930	-119.010	0.321	0.056
-657.916	-200.000	0.022	-0.441
-656.901	-121.347	0.105	0.018
-655.886	-59.291	0.207	0.089
-654.872	5.773	0.328	-0.243
-653.857	-200.000	0.036	-0.193
-652.843	800.000	-0.071	-0.210
-651.828	460.002	-0.047	0.104
-650.814	-190.294	0.193	-0.002
-649.799	800.000	-0.006	-0.027
-648.784	-140.083	-0.255	-0.027
-647.770	188.563	-0.105	0.157
-646.755	-86.192	-0.312	0.096
-645.741	-28.543	-0.306	0.177
-644.726	398.851	-0.125	0.262
-643.711	-13.460	0.147	-0.095
-642.697	219.616	0.052	-0.084
-641.682	-200.000	0.001	0.103
-640.668	-168.378	-0.094	-0.004
-639.653	-142.322	0.089	-0.009
-638.638	222.448	-0.161	0.260
-637.624	-200.000	-0.010	0.110
-636.609	323.785	0.054	0.104
-635.595	-89.236	-0.167	0.049
-634.580	-200.000	0.023	0.399
-633.565	-200.000	-0.002	0.068
-632.551	140.589	0.152	-0.201
-631.536	-107.196	-0.224	0.049
-630.522	145.524	0.071	0.096
-629.507	-80.057	-0.344	0.116
-628.492	557.014	0.143	0.345
-627.478	-157.535	0.076	0.005
-626.463	-39.388	-0.210	0.110
-625.449	526.211	-0.036	0.086
-624.434	247.181	0.116	-0.197
-623.419	-200.000	-0.013	0.255
-622.405	14.949	-0.172	0.135
-621.390	-78.852	-0.340	-0.116
-620.376	-43.856	-0.085	0.043
-619.361	398.873	0.147	-0.309
-618.346	-124.693	0.206	0.032
-617.332	563.835	0.090	-0.218
-616.317	-44.779	0.079	0.040
-615.303	552.235	-0.063	0.152
-614.288	-38.826	0.084	0.044
-613.273	-137.088	0.179	-0.021
-612.259	216.893	-0.062	0.098
-611.244	-130.217	0.133	-0.018
-610.230	32.654	-0.175	0.151
-609.215	236.060	-0.129	-0.213
-608.201	-115.187	-0.214	-0.041
-607.186	105.525	-0.057	-0.068
-606.171	800.000	0.044	-0.134
-605.157	147.454	-0.153	-0.207
-604.142	-36.410	0.120	0.065
-603.128	800.000	-0.040	-0.148
-602.113	-86.472	-0.113	0.035
-601.098	-28.147	-0.331	0.192
-600.084	-17.945	0.233	0.146
-599.069	295.608	0.177	0.325
-598.055	800.000	-0.015	0.058
-597.040	-200.000	-0.016	-0.136
-596.025	36.024	0.378	-0.333
-595.011	375.469	-0.143	-0.291
-593.996	-5.070	-0.232	0.160
-592.982	22.641	-0.060	-0.049
-591.967	340.719	-0.096	-0.187
-590.952	-58.659	-0.083	0.036
-589.938	-9.631	0.124	-0.082
-588.923	-79.152	-0.140	-0.048
-587.909	-200.000	-0.025	-0.245
-586.894	800.000	0.087	-0.344
-585.879	-72.438	-0.322	-0.119
-584.865	-118.667	0.081	-0.014
-583.850	203.103	0.087	0.134
-582.836	-52.857	0.157	-0.072
-581.821	-124.339	0.229	-0.036
-580.806	-200.000	0.029	0.191
-579.792	-171.614	0.387	-0.013
-578.777	129.575	0.138	-0.176
-577.763	-107.354	0.247	-0.054
-576.748	-33.664	-0.186	-0.102
-575.733	-200.000	-0.030	0.177
-574.719	-200.000	-0.000	-0.096
-573.704	174.715	-0.102	-0.148
-572.690	-51.171	-0.315	0.147
-571.675	-128.830	-0.123	-0.017
-570.661	569.377	-0.169	0.411
-569.646	-154.445	0.446	-0.030
-568.631	57.952	-0.247	-0.242
-567.617	-200.000	0.019	-0.140
-566.602	-55.103	0.068	0.030
-565.588	-107.005	-0.069	0.015
-564.573	151.681	-0.173	-0.236
-563.558	525.452	0.061	-0.144
-562.544	350.716	-0.048	0.095
-561.529	630.133	0.039	0.099
-560.515	366.536	-0.108	-0.217
-559.500	326.835	-0.202	0.387
-558.485	-200.000	0.050	-0.295
-557.471	48.322	0.071	0.067
-556.456	-200.000	0.026	0.155
-555.442	-36.191	0.117	0.063
-554.427	-8.490	-0.163	-0.110
-553.412	-57.578	-0.162	0.071
-552.398	-142.547	0.234	-0.023
-551.383	-52.327	-0.222	-0.103
-550.369	-86.402	-0.041	0.013
-549.354	-48.794	0.190	-0.091
-548.339	-9.832	-0.149	-0.099
-547.325	-0.861	-0.147	0.104
-546.310	-12.775	0.167	0.109
-545.296	800.000	0.022	-0.062
-544.281	79.342	-0.069	0.074
-543.266	-60.352	-0.206	0.087
-542.252	240.640	-0.053	0.089
-541.237	31.042	0.292	0.250
-540.223	132.013	0.029	0.037
-539.208	-15.184	0.165	0.106
-538.193	-66.815	0.297	0.117
-537.179	322.160	0.168	0.320
-536.164	-79.262	-0.132	0.045
-535.150	531.273	0.130	0.306
-534.135	-200.000	-0.378	-0.001
-533.121	-145.621	0.195	0.017
-532.106	800.000	-0.088	-0.300
-531.091	800.000	-0.087	-0.291
-530.077	-102.981	-0.107	-0.025
-529.062	-50.793	-0.233	0.109
-528.048	-30.256	-0.159	-0.090
-527.033	89.929	0.257	-0.286
-526.018	-105.386	-0.305	0.069
-525.004	-14.180	-0.135	0.087
-523.989	12.304	-0.130	-0.100
-522.975	-54.425	-0.061	0.028
-521.960	128.997	0.027	0.034
-520.945	-140.139	0.233	-0.024
-519.931	692.420	-0.134	0.350
-518.916	-51.454	-0.134	0.063
-517.902	36.725	0.177	-0.156
-516.887	183.982	-0.093	0.137
-515.872	-40.519	0.238	-0.123
-514.858	172.946	-0.157	0.225
-513.843	201.167	0.079	-0.121
-512.829	200.963	-0.126	-0.194
-511.814	-129.414	0.263	0.036
-510.799	800.000	-0.063	0.203
-509.785	-200.000	-0.004	0.098
-508.770	-43.231	-0.042	-0.021
-507.756	-167.986	-0.245	-0.010
-506.741	561.285	0.118	-0.284
-505.726	-22.950	0.213	0.128
-504.712	505.761	-0.039	0.089
-503.697	-81.864	0.017	0.005
-502.683	21.051	-0.321	-0.260
-501.668	-106.354	-0.308	-0.069
-500.653	800.000	0.034	-0.126
-499.639	-82.782	-0.264	-0.085
-498.624	93.176	-0.062	-0.070
-497.610	110.111	-0.199	-0.237
-496.595	104.585	-0.138	-0.162
-495.581	-200.000	-0.014	0.213
-494.566	-200.000	0.056	-0.320
-493.551	33.327	0.152	-0.132
-492.537	-69.210	0.218	-0.084
-491.522	569.991	-0.043	-0.105
-490.508	72.583	-0.134	-0.139
-489.493	88.359	0.178	-0.196
-488.478	-128.232	0.218	-0.031
-487.464	800.000	-0.031	-0.121
-486.449	800.000	-0.073	-0.218
-485.435	8.771	0.252	-0.189
-484.420	-94.579	-0.196	-0.053
-483.405	-37.920	0.300	-0.159
-482.391	419.667	0.042	-0.089
-481.376	119.461	0.350	-0.431
-480.362	-129.717	-0.258	0.035
-479.347	590.754	0.055	-0.136
-478.332	-200.000	0.011	0.082
-477.318	-53.900	0.259	-0.118
-476.303	-130.551	-0.233	-0.031
-475.289	-33.020	-0.211	-0.116
-474.274	800.000	0.052	0.158
-473.259	25.074	-0.044	0.037
-472.245	-104.052	-0.360	0.083
-471.230	-154.896	-0.471	0.031
-470.216	-200.000	-0.021	-0.147
-469.201	350.391	0.139	-0.274
-468.186	-35.716	0.274	-0.148
-467.172	-126.274	0.178	0.026
-466.157	218.327	-0.141	0.224
-465.143	667.488	-0.153	0.394
-464.128	-200.000	-0.002	0.034
-463.113	-56.252	-0.201	-0.089
-462.099	800.000	0.090	-0.284
-461.084	31.738	0.177	-0.152
-460.070	-200.000	-0.059	0.263
-459.055	41.929	0.114	-0.103
-458.040	-53.611	0.516	0.235
-457.026	-200.000	-0.005	0.072
-456.011	209.731	0.259	-0.405
-454.997	771.374	-0.031	-0.083
-453.982	-200.000	-0.032	0.327
-452.968	-200.000	-0.005	0.039
-451.953	-47.436	-0.084	0.041
-450.938	505.368	-0.069	-0.159
-449.924	419.925	0.103	-0.220
-448.909	800.000	0.048	-0.169
-447.895	26.103	-0.057	0.047
-446.880	-200.000	0.002	0.040
-445.865	213.446	0.116	-0.182
-444.851	5.000	0.147	0.108
-443.836	3.306	0.161	-0.117
-442.822	189.797	0.097	-0.145
-441.807	800.000	-0.035	0.148
-440.792	-26.342	0.183	0.107
-439.778	177.115	0.089	-0.129
-438.763	-24.334	0.095	-0.057
-437.749	111.920	0.056	-0.067
-436.734	-183.986	0.077	0.001
-435.719	-41.433	0.250	0.128
-434.705	-132.996	0.211	0.027
-433.690	-8.072	-0.094	0.063
-432.676	737.072	0.161	0.429
-431.661	800.000	0.116	-0.341
-430.646	-15.079	-0.085	0.054
-429.632	115.682	-0.232	-0.282
-428.617	-104.271	-0.266	-0.061
-427.603	327.830	0.081	-0.154
-426.588	-200.000	0.055	0.299
-425.573	534.783	0.066	0.155
-424.559	180.496	0.211	-0.307
-423.544	-184.212	-0.042	0.001
-422.530	295.342	-0.112	-0.204
-421.515	-200.000	-0.036	-0.241
-420.500	-144.426	-0.227	-0.021
-419.486	141.194	-0.183	-0.240
-418.471	-44.499	-0.118	-0.059
-417.457	-200.000	0.011	-0.362
-416.442	299.909	0.183	-0.336
-415.428	-200.000	-0.006	-0.032
-414.413	-65.745	0.111	0.044
-413.398	382.972	-0.074	-0.152
-412.384	-200.000	-0.049	-0.344
-411.369	-16.253	-0.096	0.060
-410.355	-12.024	0.238	-0.155
-409.340	800.000	-0.030	0.094
-408.325	-39.082	-0.388	0.203
-407.311	-154.280	0.205	0.014
-406.296	-102.902	-0.098	0.023
-405.282	-200.000	-0.012	-0.097
-404.267	12.990	-0.141	0.108
-403.252	-61.245	0.206	-0.086
-402.238	92.386	0.177	-0.198
-401.223	47.947	-0.194	-0.179
-400.209	-200.000	-0.071	0.353
-399.194	-46.309	-0.119	-0.058
-398.179	456.022	0.032	0.070
-397.165	188.247	0.121	0.179
-396.150	-200.000	-0.006	0.464
-395.136	-45.900	-0.070	0.034
-394.121	209.007	0.035	0.055
-393.106	223.365	-0.147	0.235
-392.092	293.405	0.089	0.160
-391.077	-111.773	0.191	0.038
-390.063	436.862	0.050	0.107
-389.048	797.455	0.089	-0.245
-388.033	-146.055	0.280	0.025
-387.019	-200.000	0.014	0.154
-386.004	589.978	0.185	0.453
-384.990	-170.033	0.204	0.007
-383.975	-200.000	-0.017	-0.304
-382.960	217.673	-0.031	-0.049
-381.946	800.000	0.017	0.065
-380.931	323.533	-0.107	-0.202
-379.917	800.000	-0.050	0.151
-378.902	79.861	0.169	0.180
-377.888	800.000	-0.064	0.179
-376.873	-98.679	0.258	0.065
-375.858	-110.595	-0.244	-0.050
-374.844	12.077	0.088	0.067
-373.829	233.624	0.133	-0.217
-372.815	490.246	0.081	0.183
-371.800	-99.930	-0.067	0.017
-370.785	210.463	-0.063	0.098
-369.771	800.000	-0.035	0.131
-368.756	-45.481	-0.268	0.132
-367.742	-200.000	-0.028	-0.186
-366.727	123.521	-0.055	0.069
-365.712	-147.762	-0.354	-0.029
-364.698	124.602	0.247	-0.308
-363.683	7.402	0.305	-0.226
-362.669	-104.035	0.067	0.015
-361.654	291.678	-0.092	0.166
-360.639	800.000	0.048	0.201
-359.625	-5.359	0.188	-0.128
-358.610	298.002	-0.113	-0.207
-357.596	-200.000	-0.036	0.184
-356.581	-19.936	-0.120	0.073
-355.566	20.617	0.034	0.027
-354.552	-95.129	0.403	0.108
-353.537	-61.251	-0.291	-0.122
-352.523	-103.832	-0.155	-0.036
-351.508	-134.633	0.244	0.029
-350.493	-94.718	0.064	0.017
-349.479	800.000	-0.098	0.302
-348.464	-134.195	0.277	-0.034
-347.450	-75.169	-0.213	0.075
-346.435	-200.000	-0.001	0.420
-345.420	-8.426	0.294	-0.196
-344.406	800.000	-0.067	-0.204
-343.391	489.962	-0.039	-0.089
-342.377	-200.000	0.092	-0.414
-341.362	-104.149	-0.290	-0.067
-340.348	-132.703	-0.038	0.005
-339.333	-132.723	0.150	-0.019
-338.318	-9.617	0.174	0.115
-337.304	343.409	0.049	0.096
-336.289	-108.438	0.052	-0.011
-335.275	800.000	-0.031	0.129
-334.260	-200.000	-0.001	0.008
-333.245	-81.914	-0.155	-0.050
-332.231	64.228	0.319	0.317
-331.216	186.741	0.117	-0.172
-330.202	789.731	-0.052	0.141
-329.187	800.000	-0.079	0.322
-328.172	800.000	0.045	-0.133
-327.158	-76.018	0.148	0.052
-326.143	84.469	0.099	-0.107
-325.129	-148.880	0.051	-0.004
-324.114	-84.323	-0.116	-0.036
-323.099	-66.734	-0.111	-0.044
-322.085	271.891	0.170	0.297
-321.070	-104.526	0.204	-0.047
-320.056	-110.529	0.343	-0.070
-319.041	656.707	-0.102	0.259
-318.026	800.000	-0.034	0.118
-317.012	-200.000	0.000	0.076
-315.997	800.000	0.043	-0.165
-314.983	-70.561	0.101	-0.038
-313.968	448.077	-0.105	-0.229
-312.953	51.126	-0.178	0.167
-311.939	195.887	0.113	0.170
-310.924	454.454	-0.014	0.031
-309.910	-200.000	0.022	-0.191
-308.895	800.000	0.040	0.127
-307.880	-51.812	-0.256	0.118
-306.866	109.094	0.064	0.076
-305.851	-137.004	-0.252	0.029
-304.837	-114.997	-0.234	0.044
-303.822	800.000	0.077	0.214
-302.807	-71.321	0.313	0.116
-301.793	387.654	-0.042	0.087
-300.778	-133.716	-0.133	-0.016
-299.764	-200.000	-0.062	0.341
-298.749	419.617	-0.129	0.272
-297.735	6.857	0.295	-0.217
-296.720	-200.000	-0.015	-0.135
-295.705	-30.015	-0.050	-0.028
-294.691	-200.000	0.033	-0.156
-293.676	142.815	-0.278	-0.366
-292.662	-68.048	-0.092	-0.036
-291.647	-200.000	-0.002	-0.144
-290.632	-24.381	0.018	0.011
-289.618	42.248	0.173	-0.155
-288.603	509.175	0.105	0.240
-287.589	-33.510	-0.159	0.087
-286.574	92.975	0.021	-0.023
-285.559	-120.697	-0.445	0.074
-284.545	127.362	0.401	0.503
-283.530	800.000	0.062	0.202
-282.516	164.578	-0.046	0.064
-281.501	-26.021	-0.282	-0.164
-280.486	-23.283	0.229	-0.136
-279.472	93.573	-0.095	-0.107
-278.457	-99.994	0.135	0.033
-277.443	-137.860	-0.185	0.020
-276.428	800.000	-0.095	-0.296
-275.413	800.000	-0.022	0.063
-274.399	226.734	-0.067	-0.108
-273.384	393.055	0.068	-0.140
-272.370	-200.000	0.007	-0.031
-271.355	23.528	0.048	-0.039
-270.340	-87.002	-0.369	0.111
-269.326	-200.000	0.063	0.401
-268.311	120.459	0.248	0.304
-267.297	-200.000	0.005	0.135
-266.282	150.459	0.124	-0.166
-265.267	-43.149	0.117	0.059
-264.253	67.218	0.246	0.248
-263.238	-200.000	-0.009	0.048
-262.224	138.419	-0.173	0.224
-261.209	800.000	-0.089	-0.354
-260.195	-103.420	-0.239	-0.056
-259.180	-200.000	-0.013	-0.183
-258.165	-200.000	-0.042	-0.324
-257.151	-107.831	-0.199	-0.043
-256.136	50.594	0.177	0.165
-255.122	120.147	-0.089	-0.109
-254.107	800.000	-0.099	0.282
-253.092	662.572	0.025	0.064
-252.078	-145.676	0.169	0.015
-251.063	185.182	-0.110	0.161
-250.049	-164.718	0.178	-0.008
-249.034	-200.000	-0.032	0.150
-248.019	-84.488	0.273	0.085
-247.005	-11.312	-0.053	-0.034
-245.990	-99.936	0.266	0.065
-244.976	-7.659	0.161	-0.108
-243.961	427.651	-0.173	-0.368
-242.946	274.660	0.097	-0.170
-241.932	-200.000	-0.024	0.450
-240.917	147.700	-0.047	0.062
-239.903	201.061	0.091	-0.138
-238.888	112.023	-0.206	-0.245
-237.873	-101.916	0.627	-0.149
-236.859	-149.199	0.249	-0.020
-235.844	118.543	0.149	0.181
-234.830	-82.743	-0.097	-0.031
-233.815	3.981	-0.330	0.238
-232.800	-97.260	-0.229	0.059
-231.786	-88.768	-0.141	0.041
-230.771	55.796	-0.137	-0.131
-229.757	-168.390	0.182	-0.007
-228.742	-114.475	0.348	0.066
-227.727	-187.945	-0.179	-0.002
-226.713	800.000	-0.040	0.151
-225.698	-140.821	0.069	-0.007
-224.684	800.000	-0.085	0.258
-223.669	14.241	-0.413	-0.317
-222.655	255.146	-0.107	-0.181
-221.640	-32.194	0.272	-0.150
-220.625	-200.000	0.012	0.109
-219.611	-57.928	-0.099	-0.043
-218.596	-72.578	-0.250	-0.091
-217.582	100.135	0.174	0.199
-216.567	-17.086	-0.174	-0.108
-215.552	-128.983	-0.078	-0.011
-214.538	-48.582	-0.231	0.110
-213.523	-129.623	-0.185	-0.025
-212.509	114.770	0.232	0.278
-211.494	-148.584	-0.244	-0.020
-210.479	-200.000	-0.047	-0.286
-209.465	-200.000	0.032	0.183
-208.450	-13.785	0.064	-0.041
-207.436	800.000	-0.079	-0.288
-206.421	-138.804	-0.354	0.038
-205.406	204.693	0.187	0.285
-204.392	-107.041	-0.188	-0.041
-203.377	-28.001	0.159	-0.091
-202.363	-200.000	-0.010	-0.101
-201.348	233.191	0.047	0.076
-200.333	-73.010	-0.357	0.129
-199.319	-200.000	0.013	0.202
-198.304	-53.118	-0.074	-0.033
-197.290	-143.707	0.136	0.013
-196.275	-96.176	-0.371	0.097
-195.260	-22.646	-0.181	-0.108
-194.246	-25.747	0.106	-0.062
-193.231	-41.933	0.271	-0.137
-192.217	-119.365	0.240	0.041
-191.202	-155.620	-0.194	0.012
-190.187	800.000	0.015	-0.048
-189.173	35.602	-0.245	-0.212
-188.158	204.931	0.108	0.164
-187.144	-18.742	0.198	0.122
-186.129	-147.868	0.227	0.019
-185.114	-200.000	-0.038	0.501
-184.100	393.057	-0.186	0.380
-183.085	511.096	0.180	-0.412
-182.071	-111.596	0.391	-0.078
-181.056	96.676	0.280	-0.316
-180.042	-47.250	0.261	-0.125
-179.027	373.914	-0.157	-0.314
-178.012	8.266	0.108	-0.080
-176.998	-127.669	0.188	-0.027
-175.983	-102.888	-0.333	0.078
-174.969	-41.020	0.079	0.040
-173.954	800.000	-0.078	0.244
-172.939	32.342	-0.201	0.171
-171.925	575.795	0.043	0.104
-170.910	-24.133	-0.055	0.033
-169.896	70.195	0.077	-0.078
-168.881	-161.819	0.268	-0.013
-167.866	676.037	0.110	0.282
-166.852	-28.731	-0.306	0.173
-165.837	353.570	-0.152	-0.296
-164.823	-200.000	-0.012	0.185
-163.808	-200.000	-0.063	0.278
-162.793	800.000	-0.004	-0.012
-161.779	-55.701	0.128	-0.056
-160.764	-105.276	0.251	0.056
-159.750	154.332	0.148	-0.199
-158.735	-61.149	0.200	-0.083
-157.720	149.494	-0.120	-0.160
-156.706	-200.000	-0.001	-0.027
-155.691	-164.035	0.399	0.018
-154.677	226.880	-0.096	-0.153
-153.662	-200.000	-0.018	-0.127
-152.647	72.907	0.174	0.178
-151.633	-111.397	-0.188	0.038
-150.618	-84.626	-0.256	0.079
-149.604	-151.211	0.439	0.032
-148.589	0.861	-0.179	0.126
-147.574	-85.441	0.159	-0.049
-146.560	79.304	0.070	0.074
-145.545	-57.367	-0.178	0.077
-144.531	-5.119	0.413	0.279
-143.516	-126.660	-0.033	-0.005
-142.502	691.547	-0.127	-0.326
-141.487	302.953	-0.102	-0.185
-140.472	68.079	-0.147	-0.148
-139.458	-126.672	0.057	-0.008
-138.443	71.166	-0.125	0.128
-137.429	303.925	-0.137	0.249
-136.414	-57.520	0.255	-0.110
-135.399	-80.870	0.147	0.048
-134.385	-200.000	-0.033	0.287
-133.370	-117.061	0.093	0.017
-132.356	800.000	0.019	0.053
-131.341	27.624	-0.292	-0.241
-130.326	-33.943	-0.221	-0.119
-129.312	-68.965	-0.185	0.070
-128.297	800.000	-0.021	-0.060
-127.283	133.622	0.027	-0.034
-126.268	-200.000	-0.017	0.161
-125.253	168.595	-0.301	0.422
-124.239	-63.590	-0.171	0.069
-123.224	-138.209	0.242	0.026
-122.210	-200.000	-0.016	0.099
-121.195	-118.071	-0.031	-0.005
-120.180	-24.259	-0.108	-0.063
-119.166	-94.610	0.132	0.035
-118.151	-200.000	0.008	-0.288
-117.137	-97.323	-0.262	-0.067
-116.122	-200.000	-0.016	-0.172
-115.107	26.657	-0.296	-0.243
-114.093	-5.305	-0.023	-0.015
-113.078	227.132	-0.061	0.098
-112.064	-200.000	0.000	-0.109
-111.049	797.164	0.050	-0.134
-110.034	-111.548	-0.333	0.066
-109.020	-80.587	0.015	0.005
-108.005	49.141	0.171	0.157
-106.991	66.286	0.015	0.015
-105.976	-170.744	-0.067	-0.002
-104.962	-24.804	0.266	-0.155
-103.947	356.602	0.122	0.239
-102.932	-136.557	0.233	0.026
-101.918	577.487	-0.049	0.119
-100.903	130.767	-0.151	0.190
-99.889	-69.096	-0.187	0.071
-98.874	3.146	-0.164	0.117
-97.859	-81.463	0.161	-0.052
-96.845	5.139	0.303	0.219
-95.830	-200.000	-0.031	-0.146
-94.816	-103.079	-0.199	-0.046
-93.801	-32.432	0.148	-0.081
-92.786	-38.723	0.086	0.045
-91.772	-82.969	-0.193	0.061
-90.757	-137.850	0.009	0.001
-89.743	-59.389	0.037	-0.016
-88.728	-200.000	0.013	-0.112
-87.713	3.798	0.144	-0.103
-86.699	-191.361	-0.144	0.001
-85.684	-200.000	0.001	0.290
-84.670	-148.861	-0.160	-0.013
-83.655	-79.905	0.402	-0.132
-82.640	-110.428	-0.013	0.003
-81.626	796.224	0.062	0.168
-80.611	800.000	0.092	0.280
-79.597	-180.472	0.149	-0.003
-78.582	45.069	-0.045	0.040
-77.567	473.120	-0.086	-0.190
-76.553	-101.745	-0.017	-0.004
-75.538	65.699	-0.134	-0.133
-74.524	214.020	-0.065	0.101
-73.509	800.000	-0.056	0.152
-72.494	-107.198	0.131	-0.028
-71.480	-200.000	0.057	-0.263
-70.465	90.326	-0.206	0.226
-69.451	-137.609	-0.230	-0.025
-68.436	800.000	-0.105	-0.361
-67.422	800.000	0.012	-0.044
-66.407	-200.000	0.024	-0.154
-65.392	83.477	0.147	-0.157
-64.378	138.106	0.090	0.116
-63.363	598.331	-0.040	0.098
-62.349	185.957	-0.132	0.192
-61.334	77.352	-1.022	-1.064
-60.319	32.659	0.568	0.481
-59.305	-200.000	-0.037	-1.010
-58.290	260.711	0.644	1.091
-57.276	793.980	0.622	1.676
-56.261	-200.000	112.923	631.583
-55.246	517.785	1531.163	3508.497
-54.232	175.840	2702.722	3840.386
-53.217	108.230	2187.769	2555.455
-52.203	38.355	1712.082	1493.553
-51.188	30.800	1529.194	1282.175
-50.173	28.520	1504.666	1246.088
-49.159	51.206	1563.745	1452.850
-48.144	50.337	1578.288	1460.295
-47.130	30.898	1534.667	1287.233
-46.115	27.961	1519.775	1254.564
-45.100	27.706	1516.637	1250.173
-44.086	27.636	1514.314	1247.732
-43.071	27.582	1512.675	1245.961
-42.057	27.562	1511.070	1244.457
-41.042	27.549	1509.667	1243.163
-40.027	27.608	1507.995	1242.136
-39.013	27.477	1506.635	1240.079
-37.998	27.484	1505.523	1239.159
-36.984	27.583	1503.807	1238.372
-35.969	27.514	1502.974	1237.163
-34.954	27.542	1501.010	1235.688
-33.940	27.511	1500.181	1234.750
-32.925	27.642	1497.914	1233.720
-31.911	27.568	1496.876	1232.316
-30.896	27.667	1495.471	1231.779
-29.881	27.604	1494.442	1230.455
-28.867	27.595	1493.334	1229.436
-27.852	27.597	1492.374	1228.607
-26.838	27.572	1490.805	1227.100
-25.823	27.576	1489.057	1225.639
-24.809	27.620	1487.603	1224.694
-23.794	27.596	1486.055	1223.209
-22.779	27.625	1484.976	1222.462
-21.765	27.582	1484.492	1221.731
-20.750	27.623	1483.154	1220.852
-19.736	27.596	1481.767	1219.487
-18.721	27.624	1480.352	1218.455
-17.706	27.500	1480.142	1217.406
-16.692	27.580	1478.461	1216.510
-15.677	27.577	1477.482	1215.634
-14.663	27.625	1475.977	1214.672
-13.648	27.525	1475.480	1213.547
-12.633	27.578	1474.752	1213.250
-11.619	27.527	1473.900	1212.163
-10.604	27.566	1473.103	1211.722
-9.590	27.490	1472.590	1210.742
-8.575	27.569	1471.389	1210.234
-7.560	27.590	1470.136	1209.292
-6.546	27.515	1470.049	1208.675
-5.531	27.510	1468.929	1207.678
-4.517	27.699	1466.840	1207.158
-3.502	27.576	1466.876	1206.331
-2.487	27.555	1465.310	1204.856
-1.473	27.513	1464.138	1203.566
-0.458	27.550	1463.265	1203.047
0.556	29.455	1454.092	1193.225
1.571	26.704	1429.324	1155.282
2.586	23.475	1368.594	1086.353
3.600	22.027	1285.076	1011.630
4.615	20.443	1238.722	966.251
5.629	17.592	1182.298	906.997
6.644	10.745	1099.008	809.033
7.659	5.344	1061.388	755.229
8.673	4.471	1056.804	747.701
9.688	4.290	1052.674	743.841
10.702	4.165	1051.264	742.182
11.717	4.195	1049.483	741.001
12.731	6.833	1051.743	755.158
13.746	14.283	1062.081	798.355
14.761	20.418	1069.824	833.643
15.775	22.106	1071.098	842.666
16.790	21.597	1070.341	839.555
17.804	20.674	1068.085	833.296
18.819	19.899	1065.789	827.726
19.834	19.662	1064.508	825.524
20.848	19.409	1064.158	823.972
21.863	19.275	1064.019	823.152
22.877	19.244	1062.646	821.868
23.892	18.974	1061.885	819.922
24.907	18.875	1061.420	819.017
25.921	18.782	1060.878	818.082
26.936	18.918	1060.263	818.182
27.950	18.929	1058.892	817.105
28.965	18.859	1057.637	815.735
29.980	18.956	1056.415	815.176
30.994	19.280	1055.255	815.747
32.009	19.318	1054.685	815.414
33.023	19.341	1054.106	814.999
34.038	19.313	1053.382	814.236
35.053	19.253	1052.132	812.916
36.067	19.026	1051.227	811.074
37.082	19.072	1050.551	810.695
38.096	19.082	1049.780	810.076
39.111	19.141	1049.536	810.097
40.126	19.211	1048.271	809.378
41.140	19.092	1046.745	807.570
42.155	18.831	1045.523	805.332
43.169	18.680	1044.581	803.827
44.184	18.453	1043.444	801.818
45.199	18.575	1042.195	801.357
46.213	18.566	1041.220	800.494
47.228	18.599	1040.972	800.389
48.242	18.835	1039.762	800.486
49.257	19.208	1039.069	801.619
50.271	19.020	1038.601	800.314
51.286	18.915	1037.946	799.247
52.301	19.217	1036.180	799.218
53.315	19.272	1035.626	798.979
54.330	19.003	1034.968	797.152
55.344	18.877	1034.060	795.798
56.359	18.860	1032.700	794.604
57.374	18.776	1032.144	793.718
58.388	18.706	1031.352	792.715
59.403	18.684	1030.059	791.547
60.417	18.576	1029.329	790.419
61.432	18.533	1028.951	789.861
62.447	18.573	1028.320	789.491
63.461	18.484	1027.394	788.303
64.476	18.491	1026.549	787.618
65.490	18.304	1025.514	785.893
66.505	18.295	1024.854	785.274
67.520	18.365	1023.932	784.820
68.534	18.448	1022.923	784.358
69.549	18.373	1022.707	783.779
70.563	18.403	1021.433	782.873
71.578	18.340	1020.892	782.101
72.593	18.187	1020.089	780.719
73.607	18.027	1018.894	779.006
74.622	17.997	1017.735	777.914
75.636	18.191	1017.032	778.190
76.651	18.220	1015.804	777.313
77.666	18.211	1015.430	776.915
78.680	18.356	1014.405	776.723
79.695	18.269	1014.386	776.242
80.709	18.332	1013.755	775.978
81.724	18.434	1013.131	775.893
82.739	18.564	1012.328	775.799
83.753	18.533	1011.773	775.165
84.768	18.838	1010.942	775.834
85.782	19.136	1010.456	776.736
86.797	19.337	1009.891	777.141
87.812	19.356	1009.366	776.754
88.826	19.153	1008.341	774.982
89.841	19.148	1007.010	773.871
90.855	19.286	1006.367	773.926
91.870	19.325	1005.819	773.613
92.884	19.339	1004.846	772.859
93.899	19.324	1004.333	772.330
94.914	19.352	1003.805	771.979
95.928	19.365	1002.849	771.233
96.943	19.359	1002.128	770.581
97.957	19.390	1001.116	769.877
98.972	19.262	1000.200	768.532
99.987	19.296	999.055	767.736
101.001	19.272	998.858	767.412
102.016	19.288	998.225	766.925
103.030	19.069	997.044	764.979
104.045	19.187	996.207	764.794
105.060	19.275	995.215	764.352
106.074	19.145	994.352	763.048
107.089	18.907	992.887	760.802
108.103	18.577	992.236	758.777
109.118	18.425	990.852	756.981
110.133	18.489	990.301	756.772
111.147	18.484	989.157	755.809
112.162	18.468	987.818	754.649
113.176	18.454	987.668	754.408
114.191	18.637	986.973	754.614
115.206	18.697	985.746	753.875
116.220	18.667	985.076	753.162
117.235	18.594	984.229	752.128
118.249	18.512	983.512	751.153
119.264	18.553	982.939	750.828
120.279	18.360	981.869	749.103
121.293	18.486	980.945	748.882
122.308	18.330	980.342	747.672
123.322	18.102	979.471	745.948
124.337	18.139	978.402	745.230
125.352	18.186	977.075	744.356
126.366	18.149	975.817	743.172
127.381	18.160	974.972	742.510
128.395	18.144	973.957	741.602
129.410	18.164	973.221	741.065
130.424	18.253	972.447	740.793
131.439	18.348	971.820	740.660
132.454	18.503	970.884	740.551
133.468	18.595	969.799	740.058
134.483	18.474	969.714	739.404
135.497	18.659	969.023	739.609
136.512	18.652	968.071	738.789
137.527	18.601	967.266	737.886
138.541	18.633	966.564	737.424
139.556	18.690	965.724	736.964
140.570	18.607	965.616	736.457
141.585	18.740	964.558	736.156
142.600	18.985	964.187	736.860
143.614	19.051	963.776	736.764
144.629	19.213	962.587	736.483
145.643	19.162	962.283	735.966
146.658	19.141	960.982	734.814
147.673	18.918	960.280	733.264
148.687	18.972	959.045	732.486
149.702	18.877	957.803	731.068
150.716	18.604	957.140	729.336
151.731	18.697	956.286	729.017
152.746	18.599	955.978	728.302
153.760	18.676	955.139	727.925
154.775	18.779	954.101	727.505
155.789	18.823	953.618	727.257
156.804	19.044	952.395	727.193
157.819	18.893	952.139	726.298
158.833	18.969	951.250	725.877
159.848	19.088	951.077	726.181
160.862	19.288	949.927	726.080
161.877	19.196	949.655	725.422
162.892	18.922	948.196	723.092
163.906	18.769	946.923	721.412
164.921	18.612	946.414	720.302
165.935	18.628	945.175	719.362
166.950	18.792	944.041	719.122
167.964	18.787	943.630	718.726
168.979	18.858	942.450	718.061
169.994	18.783	941.222	716.747
171.008	18.745	940.257	715.792
172.023	18.813	939.489	715.426
173.037	18.982	939.288	715.912
174.052	19.103	938.546	715.788
175.067	19.250	937.215	715.321
176.081	18.836	936.687	713.136
177.096	18.752	935.333	711.695
178.110	18.669	934.725	710.823
179.125	18.577	934.466	710.182
180.140	18.824	932.919	709.967
181.154	18.864	932.496	709.748
182.169	19.011	931.899	709.835
183.183	19.031	931.918	709.870
184.198	19.094	931.242	709.553
185.213	19.077	930.475	708.833
186.227	19.188	930.223	709.037
187.242	19.284	929.420	708.755
188.256	19.305	928.631	708.177
189.271	19.396	928.025	708.029
190.286	19.527	927.236	707.900
191.300	19.358	926.079	706.264
192.315	18.748	925.281	703.093
193.329	18.536	924.118	701.282
194.344	18.475	924.199	701.029
195.359	18.567	923.756	701.009
196.373	18.922	923.002	701.825
197.388	18.915	922.604	701.432
198.402	19.167	922.392	702.234
199.417	19.382	921.760	702.567
200.432	19.476	921.653	702.810
201.446	19.569	921.195	702.776
202.461	19.675	921.239	703.176
203.475	19.723	920.596	702.818
204.490	19.803	919.525	702.266
205.504	19.420	918.867	700.145
206.519	19.261	917.508	698.403
207.534	19.465	916.724	698.573
208.548	19.212	915.857	696.824
209.563	19.268	915.265	696.540
210.577	19.193	914.912	695.905
211.592	19.290	914.393	695.843
212.607	19.573	913.724	696.411
213.621	19.693	913.206	696.439
214.636	19.578	912.108	695.078
215.650	19.493	911.786	694.428
216.665	19.651	911.067	694.457
217.680	19.676	910.814	694.303
218.694	19.767	910.435	694.319
219.709	19.881	909.857	694.272
220.723	19.895	908.956	693.580
221.738	19.654	908.868	692.484
222.753	19.490	907.928	691.050
223.767	19.641	907.055	690.929
224.782	19.697	906.598	690.744
225.796	19.844	905.652	690.547
226.811	19.800	905.389	690.113
227.826	19.880	904.150	689.423
228.840	19.728	903.442	688.220
229.855	19.496	902.871	686.799
230.869	19.680	902.216	686.974
231.884	19.533	901.484	685.769
232.899	19.586	900.583	685.233
233.913	19.327	899.909	683.634
234.928	19.229	899.198	682.646
235.942	19.170	898.794	682.045
236.957	19.260	897.665	681.484
237.972	19.241	896.772	680.671
238.986	19.347	896.654	680.938
240.001	19.306	895.781	680.053
241.015	19.278	894.888	679.206
242.030	19.210	894.652	678.698
243.045	19.545	893.995	679.457
244.059	19.579	893.548	679.190
245.074	19.599	892.535	678.441
246.088	19.595	892.122	678.052
247.103	19.847	891.560	678.551
248.117	19.900	891.199	678.424
249.132	20.023	890.606	678.395
250.147	20.211	890.510	679.000
251.161	20.389	890.482	679.615
252.176	20.577	889.473	679.519
253.190	20.552	889.077	679.057
254.205	20.534	888.755	678.681
255.220	20.726	887.776	678.622
256.234	20.532	887.199	677.366
257.249	20.550	886.512	676.852
258.263	20.617	885.832	676.531
259.278	20.493	885.546	675.774
260.293	20.586	884.596	675.351
261.307	20.613	884.196	675.088
262.322	20.647	884.046	675.047
263.336	20.752	883.148	674.708
264.351	20.825	882.711	674.598
265.366	20.684	881.935	673.399
266.380	20.673	881.574	673.022
267.395	20.744	880.442	672.371
268.409	20.586	879.858	671.257
269.424	20.509	878.901	670.171
270.439	20.500	878.252	669.582
271.453	20.507	877.664	669.099
272.468	20.316	877.148	667.914
273.482	20.310	876.313	667.194
274.497	20.340	875.885	666.925
275.512	20.412	875.199	666.618
276.526	20.482	873.986	665.907
277.541	20.426	873.565	665.312
278.555	20.282	873.441	664.607
279.570	20.518	872.798	664.960
280.585	20.744	872.685	665.682
281.599	20.861	871.780	665.377
282.614	20.687	870.676	663.815
283.628	20.464	870.139	662.493
284.643	20.573	869.423	662.306
285.657	20.611	868.997	662.069
286.672	20.596	868.522	661.591
287.687	20.521	868.334	661.106
288.701	20.513	868.000	660.759
289.716	20.612	867.170	660.445
290.730	20.539	866.825	659.849
291.745	20.492	866.010	658.991
292.760	20.662	865.058	658.853
293.774	20.783	864.519	658.843
294.789	20.941	864.327	659.232
295.803	20.901	863.515	658.405
296.818	20.713	862.615	656.952
297.833	20.543	862.266	655.985
298.847	20.585	861.572	655.557
299.862	20.519	861.020	654.831
300.876	20.587	860.238	654.434
301.891	20.867	859.422	654.810
302.906	21.006	859.330	655.202
303.920	21.049	858.757	654.869
304.935	21.190	857.963	654.735
305.949	21.370	857.637	655.101
306.964	21.184	857.274	654.070
307.979	21.079	855.901	652.572
308.993	20.951	855.573	651.787
310.008	21.141	855.096	652.073
311.022	21.211	854.572	651.879
312.037	21.145	854.115	651.224
313.052	20.945	853.504	649.957
314.066	20.884	852.695	649.058
315.081	20.599	852.318	647.650
316.095	20.610	851.561	647.058
317.110	20.609	851.125	646.665
318.125	20.571	850.502	645.996
319.139	20.683	849.584	645.658
320.154	20.661	849.339	645.333
321.168	20.682	848.821	644.959
322.183	20.798	848.337	644.965
323.197	20.702	847.825	644.162
324.212	20.883	847.135	644.251
325.227	20.800	846.841	643.662
326.241	20.871	845.626	642.944
327.256	20.703	845.024	641.810
328.270	20.692	845.165	641.819
329.285	20.667	844.707	641.322
330.300	20.856	843.635	641.148
331.314	20.701	842.974	640.017
332.329	20.710	842.624	639.731
333.343	21.022	842.024	640.365
334.358	20.881	841.796	639.615
335.373	21.031	841.072	639.561
336.387	21.106	840.593	639.413
337.402	21.062	840.249	638.935
338.416	21.269	839.732	639.241
339.431	21.246	839.308	638.779
340.446	21.357	839.083	638.955
341.460	21.585	838.333	639.160
342.475	21.670	837.783	638.997
343.489	21.667	837.046	638.366
344.504	21.688	836.700	638.120
345.519	21.786	836.239	638.071
346.533	21.753	835.866	637.609
347.548	21.741	834.937	636.801
348.562	21.712	834.277	636.137
349.577	21.286	834.012	634.331
350.592	21.095	833.046	632.847
351.606	21.317	832.333	633.056
352.621	21.098	831.776	631.782
353.635	21.094	831.453	631.466
354.650	21.217	831.257	631.707
355.665	21.188	830.836	631.226
356.679	21.363	830.264	631.367
357.694	21.359	829.962	631.065
358.708	21.457	829.480	630.998
359.723	21.276	829.036	629.952
360.738	21.470	828.136	629.912
361.752	21.538	827.653	629.733
362.767	21.386	827.579	629.074
363.781	21.636	827.227	629.651
364.796	21.769	826.920	629.839
365.810	21.914	826.508	629.988
366.825	21.947	826.355	629.936
367.840	21.980	826.131	629.829
368.854	22.134	824.929	629.409
369.869	21.977	824.776	628.673
370.883	21.824	824.115	627.566
371.898	21.660	823.634	626.557
372.913	21.839	823.004	626.661
373.927	21.964	822.262	626.488
374.942	22.024	821.656	626.186
375.956	21.990	821.052	625.547
376.971	22.113	820.485	625.497
377.986	22.071	820.242	625.107
379.000	22.241	819.743	625.276
380.015	22.206	819.704	625.068
381.029	22.159	818.382	623.836
382.044	22.144	817.729	623.231
383.059	22.164	817.472	623.052
384.073	22.163	817.146	622.742
385.088	22.187	816.456	622.247
386.102	21.934	815.479	620.555
387.117	21.860	814.974	619.853
388.132	21.685	814.324	618.685
389.146	21.740	814.086	618.646
390.161	21.850	813.724	618.703
391.175	22.141	813.123	619.217
392.190	22.180	813.183	619.345
393.205	22.209	812.396	618.791
394.219	21.860	812.055	617.249
395.234	21.823	811.153	616.381
396.248	21.773	810.881	615.942
397.263	21.660	809.980	614.807
398.278	21.663	809.608	614.482
399.292	21.490	809.333	613.611
400.307	21.762	808.530	613.900
401.321	21.543	808.515	613.069
402.336	21.808	807.877	613.459
403.350	21.784	807.779	613.244
404.365	21.864	807.385	613.172
405.380	22.044	806.843	613.336
406.394	22.361	806.393	614.045
407.409	22.271	806.365	613.653
408.423	22.438	805.691	613.669
409.438	22.440	805.370	613.376
410.453	22.438	804.997	613.031
411.467	22.551	804.489	612.983
412.482	22.655	803.761	612.736
413.496	22.642	803.843	612.701
414.511	22.683	803.506	612.532
415.526	22.715	802.967	612.178
416.540	22.547	802.595	611.256
417.555	22.483	802.104	610.607
418.569	22.454	801.813	610.229
419.584	22.487	801.238	609.854
420.599	22.661	800.544	609.871
421.613	163.675	1370.496	1794.204
422.628	142.221	1453.536	1794.322
