DTS Sentinel unit serial number:	SN413079Multiplexer serial number:	ORYXHardware model number:	OX4-SRSoftware version number:	ORYX F/W v4.00 Oryx Data Collector v3.7.2.0data status	okinstallation	princeton_trtdifferential loss correction	single-endedforward channel	channel 3reverse channel	N/Adate	2019/09/11time	21:58:11forward acquisition time	60.00reverse acquisition time	0.00gamma	496.2192k internal	0.2311k external	0.2311temperature offset calibration	1.0042default loss term (dB/km)	0.3790temperature slope calibration	1.0000multiplexer offset coefficient	1.0000multiplexer slope coefficient	1.0000fibre end	0.00T internal ref (°C)	35.55T ext. ref 1 (°C)	1.71T ext. ref 2 (°C)	29.71length (m)	temperature (°C)	Stokes	anti-Stokes-747.200	-20.114	-0.315	-0.197
-746.185	-200.000	0.007	0.184
-745.171	93.579	0.091	0.105
-744.156	-200.000	-0.012	0.324
-743.142	-46.732	-0.181	-0.090
-742.127	139.904	0.181	0.242
-741.112	-146.571	0.112	-0.010
-740.098	-59.586	-0.054	-0.023
-739.083	-200.000	-0.012	-0.149
-738.069	-200.000	-0.074	0.441
-737.054	-33.144	0.307	0.173
-736.039	-200.000	-0.019	-0.160
-735.025	-132.741	0.351	0.046
-734.010	10.069	-0.131	-0.101
-732.996	-200.000	-0.451	0.002
-731.981	240.876	0.162	-0.275
-730.966	-134.668	-0.106	0.013
-729.952	-100.623	-0.454	-0.114
-728.937	-200.000	-0.008	0.175
-727.923	159.865	0.051	-0.072
-726.908	-200.000	0.003	-0.054
-725.894	800.000	0.042	-0.126
-724.879	519.836	-0.016	-0.038
-723.864	-140.014	-0.243	-0.026
-722.850	800.000	-0.082	-0.341
-721.835	253.178	-0.033	0.057
-720.821	493.881	-0.113	-0.264
-719.806	-135.932	-0.281	-0.034
-718.791	98.564	0.079	0.092
-717.777	-153.671	-0.417	0.029
-716.762	-200.000	0.042	-0.267
-715.748	-165.703	-0.408	0.018
-714.733	-24.509	0.140	-0.085
-713.718	176.989	0.115	-0.170
-712.704	78.015	-0.096	0.104
-711.689	-55.642	-0.202	-0.092
-710.675	-200.000	-0.028	0.439
-709.660	-200.000	-0.045	0.208
-708.645	-138.777	0.501	0.055
-707.631	-200.000	-0.004	-0.385
-706.616	-200.000	-0.029	0.340
-705.602	-94.555	0.363	0.100
-704.587	-42.055	0.274	-0.142
-703.572	-200.000	-0.036	0.236
-702.558	-87.611	-0.185	-0.057
-701.543	-52.189	0.107	-0.050
-700.529	245.108	0.105	0.179
-699.514	-124.874	0.356	-0.056
-698.499	-62.536	-0.045	0.019
-697.485	557.864	-0.199	-0.486
-696.470	-102.491	-0.078	-0.019
-695.456	230.066	0.060	0.100
-694.441	-76.120	0.436	-0.156
-693.426	76.485	-0.066	-0.070
-692.412	-200.000	0.030	0.246
-691.397	33.571	-0.200	0.176
-690.383	130.925	0.112	-0.145
-689.368	163.230	-0.249	-0.354
-688.354	-119.359	-0.099	0.017
-687.339	-129.642	0.110	-0.015
-686.324	-33.530	0.241	-0.135
-685.310	65.490	0.179	-0.184
-684.295	-117.392	-0.207	-0.038
-683.281	-83.808	0.143	0.046
-682.266	-49.653	0.186	-0.090
-681.251	780.174	0.023	-0.064
-680.237	800.000	0.134	0.422
-679.222	-200.000	0.006	-0.091
-678.208	115.961	-0.223	-0.276
-677.193	-42.794	-0.285	0.147
-676.178	-58.784	0.127	0.056
-675.164	263.702	-0.048	0.084
-674.149	-200.000	0.008	-0.096
-673.135	-103.187	-0.086	0.021
-672.120	-135.296	-0.188	-0.023
-671.105	-1.834	0.131	0.093
-670.091	800.000	0.089	0.326
-669.076	-65.477	-0.021	-0.008
-668.062	-200.000	-0.007	0.039
-667.047	-167.744	-0.187	-0.007
-666.032	-200.000	0.049	-0.259
-665.018	-138.180	-0.280	0.031
-664.003	-48.391	-0.126	0.061
-662.989	-133.431	-0.153	-0.019
-661.974	54.350	0.346	0.337
-660.959	-2.972	-0.286	0.202
-659.945	800.000	-0.046	-0.160
-658.930	-98.416	0.179	-0.046
-657.916	-200.000	0.044	-0.345
-656.901	-50.345	0.304	-0.145
-655.886	-43.369	0.048	0.025
-654.872	-188.220	0.305	-0.004
-653.857	306.266	0.084	0.159
-652.843	-51.063	-0.224	-0.106
-651.828	19.046	-0.097	-0.079
-650.814	-66.273	0.174	-0.070
-649.799	60.091	-0.051	-0.051
-648.784	794.649	0.051	0.141
-647.770	-61.721	-0.097	-0.041
-646.755	-84.398	0.430	0.137
-645.741	-69.419	-0.252	0.098
-644.726	-62.306	-0.299	0.126
-643.711	-83.571	0.289	0.093
-642.697	-66.189	-0.188	0.076
-641.682	274.457	0.042	0.075
-640.668	122.101	-0.292	-0.369
-639.653	-154.817	-0.039	-0.003
-638.638	-200.000	0.020	0.256
-637.624	118.848	-0.163	-0.203
-636.609	144.744	-0.115	-0.156
-635.595	71.344	0.070	0.074
-634.580	98.780	0.161	0.188
-633.565	-200.000	-0.017	0.223
-632.551	-0.248	0.120	0.086
-631.536	18.847	0.433	-0.351
-630.522	58.224	-0.069	-0.068
-629.507	-71.855	-0.126	-0.047
-628.492	160.567	0.217	0.306
-627.478	-27.406	0.068	-0.040
-626.463	121.323	0.208	-0.262
-625.449	-28.024	-0.235	0.138
-624.434	-26.592	-0.248	0.147
-623.419	-24.323	-0.081	-0.049
-622.405	102.884	0.169	0.200
-621.390	-17.362	-0.333	-0.212
-620.376	-174.411	0.421	0.012
-619.361	-0.149	-0.153	-0.110
-618.346	800.000	-0.092	-0.402
-617.332	-70.266	-0.148	0.057
-616.317	141.745	-0.179	-0.240
-615.303	-70.970	0.205	0.078
-614.288	-13.400	0.191	-0.125
-613.273	800.000	-0.076	-0.290
-612.259	-200.000	0.009	0.156
-611.244	229.947	-0.070	0.115
-610.230	48.511	0.070	-0.067
-609.215	-200.000	0.001	-0.137
-608.201	264.567	-0.082	0.145
-607.186	660.000	-0.156	0.406
-606.171	800.000	0.033	0.133
-605.157	153.444	0.190	-0.263
-604.142	155.535	-0.121	0.168
-603.128	566.522	0.039	0.095
-602.113	256.306	0.175	-0.302
-601.098	240.251	-0.091	-0.152
-600.084	55.011	-0.121	-0.118
-599.069	-200.000	-0.036	-0.296
-598.055	-200.000	0.025	-0.156
-597.040	-139.521	0.257	0.028
-596.025	-200.000	-0.070	0.318
-595.011	-122.389	0.062	0.010
-593.996	-200.000	0.052	0.265
-592.982	-128.362	0.254	0.037
-591.967	231.209	-0.108	-0.179
-590.952	-101.950	-0.291	-0.071
-589.938	44.711	-0.207	-0.192
-588.923	584.008	-0.073	-0.181
-587.909	-200.000	-0.043	-0.353
-586.894	-44.667	0.044	-0.022
-585.879	-149.208	-0.211	0.017
-584.865	408.870	-0.132	0.282
-583.850	-3.793	-0.275	0.193
-582.836	800.000	-0.072	0.252
-581.821	-153.127	0.284	-0.020
-580.806	-200.000	0.003	-0.280
-579.792	-124.902	0.082	-0.013
-578.777	-27.337	0.269	0.158
-577.763	33.848	0.200	-0.175
-576.748	-52.114	-0.315	-0.147
-575.733	800.000	0.049	0.182
-574.719	-200.000	-0.012	0.141
-573.704	800.000	-0.040	-0.136
-572.690	-97.550	-0.171	0.045
-571.675	444.246	-0.061	0.136
-570.661	348.764	0.124	0.246
-569.646	-60.479	-0.103	0.044
-568.631	762.325	-0.107	0.293
-567.617	-45.376	-0.434	0.217
-566.602	-60.149	-0.233	0.100
-565.588	-148.722	-0.028	-0.002
-564.573	44.877	-0.106	0.098
-563.558	-142.785	-0.140	-0.014
-562.544	800.000	0.044	0.139
-561.529	-14.536	0.125	0.081
-560.515	115.748	-0.207	-0.255
-559.500	-142.590	0.274	0.027
-558.485	-34.989	0.178	-0.098
-557.471	454.827	0.015	0.034
-556.456	-75.484	0.174	-0.062
-555.442	-67.672	-0.396	-0.156
-554.427	-42.414	-0.264	0.136
-553.412	-162.704	-0.344	0.017
-552.398	3.343	0.021	0.015
-551.383	-89.611	-0.270	0.080
-550.369	-140.535	0.323	0.034
-549.354	-85.643	0.152	-0.048
-548.339	-31.545	0.108	0.061
-547.325	-50.638	0.172	0.082
-546.310	-200.000	-0.006	-0.109
-545.296	39.023	0.101	-0.091
-544.281	1.317	0.250	0.181
-543.266	84.606	-0.160	-0.177
-542.252	12.133	-0.078	0.061
-541.237	201.440	-0.120	0.186
-540.223	-73.835	0.078	0.029
-539.208	-200.000	-0.017	-0.184
-538.193	130.690	-0.229	-0.296
-537.179	333.328	0.155	-0.302
-536.164	-7.001	0.028	-0.019
-535.150	7.816	-0.269	0.203
-534.135	-95.646	-0.246	-0.066
-533.121	329.964	0.236	0.458
-532.106	-7.313	-0.151	0.103
-531.091	-10.849	0.257	-0.171
-530.077	800.000	0.133	0.461
-529.062	54.658	0.064	0.062
-528.048	5.045	0.040	-0.029
-527.033	-200.000	0.063	-0.314
-526.018	204.624	-0.087	0.135
-525.004	276.082	0.050	0.089
-523.989	-200.000	0.003	0.155
-522.975	-42.577	0.277	-0.142
-521.960	-111.717	0.163	-0.033
-520.945	392.696	-0.038	0.080
-519.931	-84.666	-0.099	0.031
-518.916	-200.000	0.003	0.098
-517.902	-0.008	0.252	-0.181
-516.887	-200.000	0.033	-0.220
-515.872	-121.800	-0.265	0.044
-514.858	-100.446	0.223	-0.056
-513.843	240.748	-0.183	-0.306
-512.829	-200.000	-0.016	-0.099
-511.814	-24.363	0.234	0.140
-510.799	195.710	-0.270	-0.413
-509.785	542.298	0.152	-0.364
-508.770	-200.000	-0.010	0.424
-507.756	54.376	0.113	0.109
-506.741	-3.002	-0.117	0.082
-505.726	800.000	0.049	0.147
-504.712	-200.000	-0.038	-0.437
-503.697	-172.887	-0.149	0.005
-502.683	47.846	-0.390	0.366
-501.668	-200.000	-0.023	0.219
-500.653	100.855	-0.219	0.256
-499.639	421.932	0.108	0.234
-498.624	-32.303	0.189	-0.106
-497.610	800.000	-0.125	-0.458
-496.595	165.914	-0.142	-0.201
-495.581	251.812	0.094	0.160
-494.566	-200.000	-0.020	0.139
-493.551	800.000	-0.087	0.274
-492.537	-160.930	-0.141	-0.007
-491.522	183.875	-0.052	-0.077
-490.508	-122.956	-0.056	-0.009
-489.493	-52.699	0.122	-0.057
-488.478	800.000	0.137	0.400
-487.464	678.062	0.065	0.169
-486.449	800.000	0.065	0.227
-485.435	-176.516	0.553	-0.014
-484.420	-200.000	-0.058	-0.376
-483.405	-3.227	-0.140	-0.098
-482.391	412.418	-0.022	0.046
-481.376	-107.096	-0.212	0.047
-480.362	-200.000	-0.052	0.285
-479.347	-172.097	-0.136	-0.004
-478.332	-200.000	-0.005	-0.108
-477.318	785.594	0.076	0.208
-476.303	-6.463	-0.202	0.139
-475.289	-200.000	0.014	-0.169
-474.274	13.157	-0.209	0.163
-473.259	-200.000	0.001	0.117
-472.245	274.294	-0.179	-0.318
-471.230	233.328	0.081	0.133
-470.216	-200.000	-0.004	0.368
-469.201	312.799	-0.091	-0.173
-468.186	-94.704	-0.238	-0.065
-467.172	-200.000	-0.026	-0.153
-466.157	-75.468	0.465	-0.166
-465.143	0.295	-0.107	-0.077
-464.128	-200.000	0.012	0.159
-463.113	-73.100	-0.246	-0.090
-462.099	113.483	0.202	-0.246
-461.084	-94.552	-0.242	0.066
-460.070	-31.747	0.311	-0.175
-459.055	-77.773	-0.106	-0.037
-458.040	539.042	-0.100	-0.238
-457.026	-200.000	0.001	0.258
-456.011	-200.000	0.015	-0.133
-454.997	-200.000	0.019	0.203
-453.982	584.352	-0.089	0.218
-452.968	800.000	-0.032	0.135
-451.953	-69.023	-0.126	-0.049
-450.938	-23.389	0.110	-0.066
-449.924	503.636	-0.055	0.127
-448.909	-120.469	0.348	0.059
-447.895	8.679	-0.382	-0.289
-446.880	7.793	-0.121	-0.091
-445.865	-123.171	0.369	-0.059
-444.851	-200.000	0.005	-0.111
-443.836	-41.535	0.009	0.005
-442.822	-54.254	0.324	0.148
-441.807	18.188	-0.147	-0.117
-440.792	657.676	0.097	0.251
-439.778	317.680	0.105	-0.200
-438.763	80.392	0.114	-0.123
-437.749	-61.153	0.364	-0.154
-436.734	54.302	-0.199	-0.192
-435.719	329.532	-0.228	0.440
-434.705	800.000	0.087	-0.254
-433.690	-32.439	0.213	0.119
-432.676	-200.000	-0.011	-0.124
-431.661	64.355	-0.158	-0.159
-430.646	163.010	-0.176	-0.249
-429.632	15.779	0.160	0.126
-428.617	-43.285	0.064	-0.032
-427.603	-57.665	0.319	-0.140
-426.588	-200.000	-0.017	-0.127
-425.573	60.114	-0.287	-0.284
-424.559	223.568	0.136	0.220
-423.544	-200.000	0.046	0.244
-422.530	11.631	-0.161	-0.123
-421.515	-60.167	-0.202	-0.086
-420.500	480.458	-0.061	-0.138
-419.486	458.384	0.061	0.135
-418.471	511.314	-0.072	-0.167
-417.457	255.587	0.127	-0.218
-416.442	-149.040	-0.167	-0.013
-415.428	-101.074	0.345	-0.085
-414.413	-200.000	-0.029	-0.205
-413.398	-165.241	0.190	0.008
-412.384	-200.000	0.035	-0.192
-411.369	-40.698	0.227	0.118
-410.355	32.791	-0.273	0.237
-409.340	-129.783	0.291	0.040
-408.325	-133.840	-0.460	-0.057
-407.311	-117.341	-0.253	0.046
-406.296	67.848	0.086	0.088
-405.282	-200.000	0.012	-0.135
-404.267	-17.353	-0.393	-0.248
-403.252	-200.000	-0.021	0.375
-402.238	235.460	0.067	-0.110
-401.223	55.997	0.245	0.238
-400.209	44.842	-0.281	0.259
-399.194	292.683	-0.070	-0.128
-398.179	282.022	-0.120	0.216
-397.165	-26.073	0.352	-0.207
-396.150	-200.000	-0.052	0.305
-395.136	35.798	0.392	0.345
-394.121	14.085	0.358	-0.279
-393.106	-58.806	0.261	-0.113
-392.092	142.521	0.124	-0.165
-391.077	-200.000	0.047	0.403
-390.063	-200.000	-0.002	-0.228
-389.048	800.000	0.077	-0.333
-388.033	-88.279	0.129	-0.039
-387.019	114.974	0.075	-0.091
-386.004	-200.000	-0.011	-0.051
-384.990	339.593	-0.116	0.227
-383.975	-145.045	-0.077	0.007
-382.960	516.426	0.055	-0.129
-381.946	618.612	-0.104	-0.261
-380.931	141.136	-0.091	0.121
-379.917	-124.353	0.296	0.046
-378.902	-95.655	0.350	-0.094
-377.888	48.429	0.213	-0.200
-376.873	-21.636	0.059	0.036
-375.858	66.101	-0.120	0.122
-374.844	-31.158	0.176	-0.099
-373.829	-128.630	-0.120	-0.017
-372.815	151.218	-0.143	0.194
-371.800	-200.000	0.020	0.438
-370.785	800.000	-0.047	0.196
-369.771	-61.109	0.228	0.096
-368.756	-33.974	0.151	0.083
-367.742	210.900	-0.224	0.352
-366.727	-153.632	-0.259	0.018
-365.712	175.030	-0.088	-0.127
-364.698	23.350	-0.271	-0.223
-363.683	-168.688	-0.249	-0.009
-362.669	242.991	-0.153	-0.256
-361.654	-120.505	0.312	-0.053
-360.639	-200.000	-0.054	-0.310
-359.625	540.525	0.079	0.187
-358.610	-88.168	0.199	0.060
-357.596	-50.165	0.171	-0.081
-356.581	174.231	0.018	-0.026
-355.566	-200.000	-0.017	0.501
-354.552	194.268	0.116	0.176
-353.537	351.735	-0.154	-0.305
-352.523	-165.855	-0.088	-0.004
-351.508	-39.881	0.221	0.115
-350.493	800.000	0.059	0.205
-349.479	88.029	0.182	-0.202
-348.464	-200.000	0.103	-0.525
-347.450	-200.000	0.025	-0.130
-346.435	-147.440	-0.169	0.014
-345.420	-30.820	0.121	-0.068
-344.406	-191.314	-0.516	-0.005
-343.391	-200.000	-0.004	-0.203
-342.377	-200.000	-0.004	0.136
-341.362	602.761	0.113	-0.280
-340.348	83.787	0.147	0.160
-339.333	-25.788	-0.166	0.098
-338.318	800.000	0.086	-0.297
-337.304	-200.000	0.008	-0.233
-336.289	27.591	0.113	0.095
-335.275	228.646	-0.062	-0.101
-334.260	-200.000	-0.031	0.222
-333.245	-154.753	0.100	-0.007
-332.231	-142.286	-0.235	0.023
-331.216	-103.039	0.322	-0.076
-330.202	-132.719	0.154	0.020
-329.187	207.992	-0.053	0.083
-328.172	210.539	0.176	-0.275
-327.158	-200.000	-0.023	-0.106
-326.143	-200.000	0.032	-0.152
-325.129	-68.363	0.176	0.068
-324.114	-84.962	0.166	-0.052
-323.099	-135.773	0.109	-0.013
-322.085	18.461	0.073	-0.058
-321.070	139.446	0.226	0.297
-320.056	-130.890	-0.095	0.013
-319.041	800.000	-0.091	0.305
-318.026	51.145	-0.035	0.033
-317.012	10.783	-0.257	-0.196
-315.997	165.540	0.056	-0.080
-314.983	-200.000	0.000	0.052
-313.968	-65.256	0.081	0.033
-312.953	800.000	0.055	0.178
-311.939	-200.000	0.032	0.271
-310.924	33.624	-0.098	0.085
-309.910	446.322	0.038	0.083
-308.895	-112.206	0.034	-0.007
-307.880	-62.373	-0.025	0.010
-306.866	-168.853	-0.211	0.008
-305.851	-38.651	0.058	0.030
-304.837	-10.318	0.073	-0.049
-303.822	800.000	-0.026	0.090
-302.807	800.000	0.012	0.042
-301.793	101.765	0.066	-0.076
-300.778	158.547	-0.149	0.207
-299.764	800.000	0.078	0.230
-298.749	-19.747	0.205	-0.127
-297.735	-0.265	-0.145	-0.103
-296.720	164.477	0.287	0.403
-295.705	800.000	0.079	0.338
-294.691	-200.000	0.008	0.046
-293.676	800.000	-0.021	0.063
-292.662	-17.603	0.308	0.193
-291.647	800.000	0.020	0.070
-290.632	-200.000	0.034	0.264
-289.618	-96.859	-0.237	0.062
-288.603	-79.372	0.115	0.039
-287.589	-55.978	0.252	-0.112
-286.574	-200.000	0.004	-0.571
-285.559	129.190	-0.029	-0.036
-284.545	-200.000	0.037	0.304
-283.530	4.657	-0.310	-0.227
-282.516	-146.389	-0.343	-0.030
-281.501	13.926	0.041	-0.032
-280.486	-200.000	-0.022	-0.287
-279.472	1.834	0.338	0.243
-278.457	-87.781	0.263	0.079
-277.443	16.321	-0.177	-0.139
-276.428	-8.591	-0.255	-0.171
-275.413	146.083	-0.175	-0.234
-274.399	38.364	0.260	-0.231
-273.384	800.000	0.071	-0.226
-272.370	-67.586	-0.342	-0.134
-271.355	-65.890	-0.249	-0.099
-270.340	-200.000	0.005	-0.337
-269.326	800.000	-0.084	-0.359
-268.311	-108.827	-0.137	0.029
-267.297	-141.159	-0.208	-0.021
-266.282	-9.321	0.274	-0.182
-265.267	269.097	0.112	0.196
-264.253	-200.000	-0.029	0.149
-263.238	-200.000	-0.003	0.167
-262.224	27.197	-0.173	0.144
-261.209	800.000	0.040	-0.136
-260.195	-177.093	0.186	0.005
-259.180	377.632	0.071	0.146
-258.165	40.629	0.205	0.184
-257.151	599.260	0.025	-0.061
-256.136	-200.000	-0.036	-0.284
-255.122	288.152	0.072	-0.130
-254.107	-140.944	-0.498	-0.051
-253.092	246.669	-0.085	0.142
-252.078	-96.357	-0.335	-0.088
-251.063	-188.530	-0.282	0.003
-250.049	-153.718	0.213	0.015
-249.034	47.434	-0.184	0.170
-248.019	-180.446	0.124	0.003
-247.005	-37.386	-0.239	-0.127
-245.990	65.119	-0.185	0.186
-244.976	-182.086	-0.036	0.001
-243.961	-150.256	-0.242	0.019
-242.946	-132.707	-0.297	0.038
-241.932	143.472	-0.032	-0.043
-240.917	-187.342	-0.160	-0.002
-239.903	119.776	-0.219	0.270
-238.888	-200.000	-0.001	0.008
-237.873	75.723	0.208	0.218
-236.859	-45.438	-0.098	0.048
-235.844	-122.400	0.255	0.041
-234.830	800.000	-0.059	-0.213
-233.815	293.819	-0.134	0.244
-232.800	800.000	-0.080	0.222
-231.786	7.504	0.263	-0.195
-230.771	-97.854	0.116	0.030
-229.757	119.191	-0.201	-0.248
-228.742	-200.000	0.009	-0.189
-227.727	-10.641	-0.123	0.081
-226.713	174.748	0.161	0.231
-225.698	5.361	0.184	-0.135
-224.684	104.091	-0.219	0.256
-223.669	53.281	0.151	0.144
-222.655	12.815	-0.094	-0.073
-221.640	342.867	-0.077	0.150
-220.625	258.478	0.158	-0.271
-219.611	800.000	0.057	-0.191
-218.596	-200.000	0.018	-0.112
-217.582	74.919	-0.153	-0.161
-216.567	-71.817	-0.082	-0.030
-215.552	-166.606	-0.191	0.008
-214.538	751.838	-0.023	-0.062
-213.523	-10.066	0.100	-0.066
-212.509	-40.644	0.147	-0.076
-211.494	800.000	0.111	-0.473
-210.479	230.510	-0.088	0.143
-209.465	9.685	-0.108	-0.082
-208.450	319.389	-0.178	0.336
-207.436	-200.000	0.012	0.140
-206.421	91.192	0.176	-0.197
-205.406	-151.201	-0.187	-0.014
-204.392	-69.638	0.175	-0.067
-203.377	-200.000	0.009	-0.115
-202.363	-200.000	0.047	-0.369
-201.348	-71.344	-0.171	-0.064
-200.333	-83.445	0.209	0.067
-199.319	26.120	0.080	-0.066
-198.304	-31.592	0.085	0.048
-197.290	305.552	0.116	0.215
-196.275	-160.950	-0.453	-0.024
-195.260	-148.845	0.395	0.032
-194.246	162.926	0.353	-0.492
-193.231	42.088	0.193	0.174
-192.217	450.731	-0.055	0.121
-191.202	776.805	0.085	-0.230
-190.187	22.592	0.188	-0.153
-189.173	-147.567	0.255	-0.021
-188.158	-24.082	-0.215	0.128
-187.144	-76.343	-0.107	-0.037
-186.129	-188.944	-0.352	0.004
-185.114	744.132	0.162	0.432
-184.100	-110.393	-0.102	0.021
-183.085	502.759	-0.107	0.245
-182.071	-200.000	-0.006	0.096
-181.056	-27.812	-0.144	0.083
-180.042	800.000	-0.023	0.089
-179.027	-43.657	0.053	0.026
-178.012	-73.230	-0.088	0.032
-176.998	67.543	0.232	-0.235
-175.983	-200.000	-0.097	0.566
-174.969	96.868	0.138	0.157
-173.954	-63.915	0.196	0.080
-172.939	-200.000	-0.001	0.077
-171.925	681.253	0.081	-0.208
-170.910	800.000	-0.047	-0.148
-169.896	668.920	0.161	-0.414
-168.881	638.195	-0.131	0.331
-167.866	-110.801	0.284	-0.058
-166.852	107.025	-0.023	-0.027
-165.837	49.566	0.239	-0.223
-164.823	-200.000	0.056	-0.256
-163.808	481.103	0.053	-0.118
-162.793	-110.505	0.179	-0.037
-161.779	-15.996	-0.219	0.138
-160.764	800.000	-0.069	0.293
-159.750	40.048	-0.093	0.083
-158.735	239.774	-0.034	-0.056
-157.720	800.000	0.140	0.591
-156.706	-68.425	0.303	0.117
-155.691	-185.348	-0.190	0.003
-154.677	-200.000	-0.025	-0.304
-153.662	211.323	-0.210	0.328
-152.647	-130.260	-0.153	0.021
-151.633	-117.059	0.338	-0.061
-150.618	-93.630	0.226	0.062
-149.604	800.000	-0.075	-0.231
-148.589	800.000	0.015	0.054
-147.574	-159.932	0.261	-0.014
-146.560	-200.000	-0.022	0.267
-145.545	800.000	0.099	-0.271
-144.531	38.829	0.211	0.187
-143.516	-92.946	0.266	-0.074
-142.502	-26.711	0.248	-0.144
-141.487	8.246	0.180	0.134
-140.472	-22.015	-0.281	0.169
-139.458	-200.000	0.005	-0.365
-138.443	162.573	-0.139	0.193
-137.429	25.043	0.178	0.147
-136.414	154.699	0.086	-0.117
-135.399	-177.021	0.313	-0.008
-134.385	68.993	-0.047	-0.048
-133.370	-87.941	-0.110	-0.033
-132.356	442.274	0.128	0.278
-131.341	-150.296	0.185	0.014
-130.326	341.116	-0.068	0.131
-129.312	-157.142	-0.129	0.008
-128.297	800.000	0.061	0.174
-127.283	117.631	0.208	0.254
-126.268	68.344	-0.219	0.222
-125.253	-33.898	0.111	0.060
-124.239	-115.562	-0.171	-0.032
-123.224	205.521	-0.110	-0.169
-122.210	17.227	-0.152	-0.119
-121.195	112.357	-0.092	0.110
-120.180	800.000	-0.045	-0.179
-119.166	54.117	-0.099	-0.094
-118.151	241.223	0.148	0.245
-117.137	-7.153	-0.252	-0.169
-116.122	-51.696	-0.018	-0.008
-115.107	37.790	0.081	-0.071
-114.093	-200.000	0.025	0.210
-113.078	44.396	0.037	-0.034
-112.064	800.000	-0.084	-0.356
-111.049	195.113	0.075	0.112
-110.034	-88.874	0.222	0.065
-109.020	180.868	-0.173	0.252
-108.005	-53.475	-0.227	-0.103
-106.991	800.000	-0.076	-0.279
-105.976	-161.308	0.287	0.015
-104.962	55.281	0.075	0.072
-103.947	-25.608	0.246	0.144
-102.932	-93.439	-0.406	0.111
-101.918	-200.000	-0.033	0.164
-100.903	-58.661	0.212	0.091
-99.889	-37.748	-0.157	0.082
-98.874	800.000	-0.069	0.283
-97.859	800.000	0.095	0.366
-96.845	491.309	-0.115	0.261
-95.830	406.980	0.059	0.123
-94.816	-19.112	-0.021	-0.013
-93.801	800.000	-0.045	-0.127
-92.786	-200.000	-0.002	-0.252
-91.772	-142.416	-0.182	-0.018
-90.757	-172.754	-0.233	0.007
-89.743	-200.000	0.011	0.154
-88.728	207.771	-0.174	-0.269
-87.713	800.000	-0.071	-0.215
-86.699	-159.866	0.370	0.020
-85.684	227.036	-0.191	-0.306
-84.670	800.000	0.042	0.125
-83.655	31.791	-0.275	0.234
-82.640	159.388	-0.176	0.242
-81.626	800.000	-0.078	0.323
-80.611	-135.641	0.530	-0.062
-79.597	-104.758	-0.160	-0.036
-78.582	-10.967	-0.141	0.092
-77.567	-152.399	0.191	-0.014
-76.553	147.293	0.070	-0.093
-75.538	-200.000	0.023	-0.331
-74.524	-68.961	-0.257	-0.098
-73.509	800.000	0.027	-0.088
-72.494	192.592	-0.099	0.147
-71.480	234.766	-0.057	-0.092
-70.465	-55.747	0.018	0.008
-69.451	150.323	-0.179	0.240
-68.436	-200.000	-0.007	-0.060
-67.422	-46.492	0.063	-0.031
-66.407	-117.673	-0.175	0.031
-65.392	-71.463	0.244	0.090
-64.378	-108.948	-0.225	0.047
-63.363	77.111	-0.076	-0.080
-62.349	-3.979	-0.364	0.250
-61.334	42.342	-0.768	-0.690
-60.319	6.395	0.407	0.298
-59.305	-200.000	0.098	-0.684
-58.290	151.020	0.568	0.763
-57.276	800.000	0.571	1.630
-56.261	-200.000	94.663	575.992
-55.246	569.026	1365.818	3280.418
-54.232	154.018	2573.683	3487.124
-53.217	116.252	2181.294	2640.469
-52.203	46.138	1720.825	1574.551
-51.188	38.602	1532.384	1350.378
-50.173	36.373	1504.696	1310.809
-49.159	55.461	1555.082	1486.863
-48.144	59.500	1574.246	1532.979
-47.130	39.094	1529.676	1351.160
-46.115	35.776	1514.228	1314.823
-45.100	35.642	1510.546	1310.662
-44.086	35.545	1509.325	1308.889
-43.071	35.589	1506.786	1306.939
-42.057	35.521	1505.469	1305.279
-41.042	35.437	1503.984	1303.372
-40.027	35.461	1502.486	1302.186
-39.013	35.519	1501.160	1301.376
-37.998	35.547	1499.704	1300.250
-36.984	35.532	1498.645	1299.182
-35.969	35.500	1497.483	1297.905
-34.954	35.577	1495.752	1296.873
-33.940	35.611	1494.055	1295.582
-32.925	35.481	1493.539	1294.202
-31.911	35.592	1492.056	1293.613
-30.896	35.625	1490.485	1292.423
-29.881	35.659	1489.070	1291.376
-28.867	35.598	1487.646	1289.679
-27.852	35.584	1486.449	1288.498
-26.838	35.516	1485.246	1286.943
-25.823	35.579	1483.400	1285.715
-24.809	35.626	1481.169	1284.048
-23.794	35.608	1480.236	1283.066
-22.779	35.544	1479.198	1281.689
-21.765	35.636	1478.350	1281.515
-20.750	35.540	1477.166	1279.797
-19.736	35.580	1476.026	1279.027
-18.721	35.659	1474.759	1278.405
-17.706	35.547	1473.829	1276.805
-16.692	35.526	1472.924	1275.830
-15.677	35.636	1471.673	1275.426
-14.663	35.457	1471.404	1273.955
-13.648	35.509	1469.926	1272.968
-12.633	35.618	1468.644	1272.526
-11.619	35.440	1468.415	1271.103
-10.604	35.431	1467.570	1270.257
-9.590	35.485	1466.436	1269.583
-8.575	35.538	1465.392	1268.980
-7.560	35.552	1464.438	1268.197
-6.546	35.475	1463.992	1267.249
-5.531	35.503	1462.988	1266.515
-4.517	35.488	1461.826	1265.360
-3.502	35.561	1460.768	1264.877
-2.487	35.534	1459.422	1263.481
-1.473	35.436	1458.700	1262.165
-0.458	35.474	1457.421	1261.256
0.556	35.467	1448.290	1249.946
1.571	32.684	1422.572	1209.809
2.586	29.356	1362.102	1137.790
3.600	27.697	1279.913	1059.417
4.615	26.520	1233.379	1014.216
5.629	22.454	1176.031	945.199
6.644	11.688	1087.468	820.211
7.659	3.130	1043.909	745.931
8.673	1.940	1037.651	735.653
9.688	1.663	1034.529	732.044
10.702	1.610	1033.380	730.914
11.717	1.637	1031.196	729.434
12.731	5.382	1035.972	750.757
13.746	15.682	1050.128	810.859
14.761	23.201	1060.073	854.931
15.775	24.631	1060.969	862.487
16.790	24.726	1060.535	862.513
17.804	24.539	1059.731	860.883
18.819	24.413	1058.466	859.175
19.834	24.506	1058.300	859.410
20.848	24.658	1057.530	859.438
21.863	24.705	1057.352	859.446
22.877	24.702	1056.595	858.740
23.892	24.618	1056.045	857.812
24.907	24.496	1055.659	856.836
25.921	24.632	1055.218	857.054
26.936	24.574	1053.894	855.626
27.950	24.521	1053.079	854.634
28.965	24.489	1051.990	853.524
29.980	24.340	1050.136	851.233
30.994	24.329	1049.181	850.333
32.009	24.536	1048.545	850.724
33.023	24.701	1047.668	850.723
34.038	24.495	1046.708	848.890
35.053	24.392	1046.064	847.804
36.067	24.664	1045.045	848.192
37.082	24.577	1044.602	847.347
38.096	24.650	1044.020	847.147
39.111	24.796	1043.317	847.193
40.126	24.942	1042.149	846.859
41.140	24.695	1041.416	845.020
42.155	24.536	1039.477	842.623
43.169	24.124	1038.516	839.829
44.184	24.058	1037.493	838.614
45.199	24.303	1035.808	838.329
46.213	24.116	1035.605	837.214
47.228	24.087	1034.651	836.231
48.242	24.337	1033.885	836.712
49.257	24.451	1033.026	836.478
50.271	24.586	1032.251	836.406
51.286	24.560	1031.725	835.784
52.301	24.630	1031.013	835.463
53.315	24.728	1029.814	834.873
54.330	24.608	1029.513	833.998
55.344	24.537	1028.699	832.932
56.359	24.518	1027.843	832.078
57.374	24.591	1027.086	831.732
58.388	24.330	1026.354	829.847
59.403	24.358	1025.332	829.077
60.417	24.397	1024.473	828.491
61.432	24.266	1023.519	827.039
62.447	24.170	1023.204	826.265
63.461	24.286	1022.674	826.302
64.476	24.419	1021.891	826.213
65.490	24.401	1020.835	825.205
66.505	24.314	1019.506	823.655
67.520	24.157	1019.254	822.652
68.534	24.381	1018.590	823.079
69.549	24.148	1017.557	821.098
70.563	23.915	1016.073	818.755
71.578	23.764	1015.667	817.661
72.593	23.920	1014.801	817.607
73.607	23.746	1013.743	815.882
74.622	23.776	1012.715	815.121
75.636	24.092	1012.163	816.053
76.651	24.118	1011.722	815.747
77.666	23.998	1010.523	814.157
78.680	23.909	1009.851	813.138
79.695	23.911	1009.071	812.443
80.709	24.142	1008.467	812.941
81.724	24.126	1007.627	812.121
82.739	24.098	1007.072	811.475
83.753	24.176	1006.086	810.964
84.768	24.439	1005.781	811.842
85.782	24.726	1005.009	812.452
86.797	24.925	1004.168	812.603
87.812	24.777	1003.619	811.413
88.826	24.653	1002.425	809.817
89.841	24.891	1000.816	809.521
90.855	24.826	1000.478	808.879
91.870	24.677	1000.194	807.907
92.884	24.918	999.025	807.981
93.899	24.705	998.538	806.551
94.914	24.627	997.221	805.065
95.928	24.778	996.840	805.365
96.943	24.761	995.772	804.358
97.957	24.498	994.826	802.340
98.972	24.297	993.459	800.262
99.987	23.939	992.790	798.049
101.001	23.929	992.710	797.867
102.016	24.581	991.421	799.681
103.030	24.470	990.754	798.575
104.045	24.347	989.904	797.269
105.060	24.395	988.365	796.172
106.074	24.141	987.251	794.076
107.089	24.220	986.645	793.867
108.103	24.441	986.603	794.748
109.118	24.716	985.129	794.714
110.133	24.295	984.071	791.921
111.147	24.355	983.242	791.452
112.162	24.206	982.299	789.961
113.176	23.886	981.319	787.685
114.191	24.161	980.296	788.012
115.206	24.299	979.184	787.656
116.220	24.010	978.195	785.517
117.235	23.889	976.979	783.939
118.249	23.900	976.871	783.830
119.264	23.926	976.442	783.531
120.279	23.758	975.287	781.797
121.293	23.812	974.695	781.489
122.308	23.827	974.350	781.209
123.322	23.946	973.046	780.616
124.337	23.859	971.943	779.281
125.352	23.847	970.488	777.995
126.366	23.612	968.744	775.501
127.381	23.132	968.051	772.778
128.395	23.514	967.763	774.147
129.410	24.255	967.616	777.197
130.424	24.529	966.553	777.467
131.439	24.431	965.609	776.212
132.454	24.502	964.424	775.497
133.468	24.390	963.490	774.193
134.483	24.308	963.539	773.810
135.497	24.437	962.414	773.397
136.512	24.633	961.859	773.729
137.527	24.798	961.304	773.929
138.541	24.720	960.527	772.900
139.556	24.606	960.210	772.080
140.570	24.703	959.093	771.534
141.585	24.610	958.554	770.630
142.600	24.788	957.668	770.615
143.614	24.722	956.279	769.145
144.629	24.817	955.590	768.934
145.643	24.991	954.951	769.100
146.658	24.880	954.199	767.947
147.673	24.716	952.762	766.020
148.687	24.545	951.423	764.146
149.702	24.409	950.694	762.913
150.716	24.564	949.380	762.450
151.731	24.431	948.667	761.243
152.746	24.489	947.838	760.760
153.760	24.812	947.260	761.600
154.775	24.769	946.407	760.665
155.789	24.845	945.892	760.506
156.804	24.837	945.223	759.868
157.819	24.746	943.779	758.253
158.833	24.811	942.960	757.806
159.848	24.894	942.535	757.748
160.862	24.921	941.809	757.211
161.877	24.879	940.664	756.047
162.892	24.702	940.186	754.849
163.906	24.790	939.161	754.332
164.921	24.769	938.132	753.347
165.935	24.746	937.085	752.343
166.950	24.744	936.090	751.472
167.964	24.982	934.707	751.292
168.979	24.882	933.986	750.226
169.994	24.727	932.921	748.657
171.008	24.789	931.715	747.880
172.023	24.829	931.373	747.706
173.037	24.880	930.590	747.227
174.052	24.749	929.358	745.625
175.067	24.511	929.079	744.344
176.081	24.523	927.882	743.368
177.096	24.469	927.473	742.751
178.110	24.699	926.303	742.704
179.125	24.304	925.600	740.434
180.140	24.250	924.082	738.930
181.154	24.273	923.249	738.292
182.169	24.341	922.841	738.183
183.183	24.479	922.879	738.718
184.198	24.947	922.214	740.058
185.213	24.771	921.720	738.869
186.227	24.681	921.358	738.140
187.242	24.786	920.685	737.970
188.256	24.877	920.043	737.762
189.271	24.785	919.320	736.739
190.286	24.881	918.317	736.265
191.300	24.898	917.322	735.472
192.315	24.186	915.911	731.354
193.329	23.431	914.704	727.229
194.344	23.156	913.054	724.730
195.359	23.685	913.891	727.498
196.373	24.553	913.770	730.890
197.388	24.748	913.530	731.428
198.402	24.634	913.004	730.478
199.417	24.692	912.606	730.335
200.432	24.615	912.025	729.488
201.446	24.618	911.231	728.802
202.461	24.283	910.510	726.794
203.475	24.403	909.772	726.629
204.490	23.938	908.476	723.637
205.504	22.912	906.290	717.668
206.519	23.200	906.400	718.861
207.534	24.052	907.071	722.792
208.548	24.294	906.360	723.142
209.563	24.656	906.323	724.514
210.577	24.761	905.268	724.035
211.592	24.398	904.296	721.726
212.607	24.862	904.298	723.540
213.621	24.996	903.671	723.514
214.636	25.026	903.043	723.067
215.650	24.859	902.892	722.210
216.665	24.792	902.205	721.326
217.680	24.909	901.411	721.098
218.694	24.928	901.283	721.009
219.709	24.650	900.056	718.846
220.723	24.195	899.250	716.308
221.738	24.364	899.075	716.787
222.753	24.849	898.345	718.086
223.767	24.631	897.423	716.414
224.782	24.741	896.759	716.261
225.796	24.809	896.598	716.341
226.811	24.935	895.871	716.200
227.826	24.551	894.565	713.558
228.840	23.782	893.187	709.328
229.855	23.607	892.587	708.091
230.869	23.997	892.058	709.164
231.884	23.622	891.058	706.812
232.899	23.543	890.946	706.348
233.913	24.347	891.029	709.550
234.928	24.597	890.320	709.914
235.942	24.587	889.550	709.200
236.957	24.776	888.652	709.169
237.972	24.418	887.882	707.073
238.986	24.175	887.567	705.796
240.001	24.384	886.952	706.073
241.015	24.422	886.399	705.719
242.030	24.388	885.836	705.075
243.045	24.543	885.174	705.099
244.059	24.684	884.707	705.221
245.074	24.856	884.185	705.421
246.088	24.921	883.550	705.107
247.103	24.503	882.465	702.535
248.117	24.361	882.362	701.831
249.132	24.933	882.433	704.076
250.147	25.381	881.944	705.385
251.161	25.423	881.063	704.781
252.176	25.600	881.171	705.501
253.190	25.616	880.052	704.605
254.205	25.587	879.741	704.180
255.220	25.717	879.778	704.656
256.234	25.832	878.639	704.131
257.249	25.680	878.301	703.201
258.263	25.457	877.670	701.766
259.278	25.493	876.939	701.260
260.293	25.511	876.775	701.136
261.307	25.681	876.136	701.227
262.322	25.470	875.479	699.815
263.336	25.442	874.507	698.869
264.351	25.244	872.725	696.615
265.366	23.949	871.170	690.290
266.380	23.366	870.392	687.350
267.395	24.285	871.058	691.382
268.409	25.169	870.890	694.614
269.424	25.141	870.133	693.837
270.439	25.120	870.035	693.619
271.453	25.415	869.231	694.056
272.468	25.393	868.366	693.218
273.482	25.510	868.245	693.511
274.497	25.728	868.041	694.130
275.512	25.455	866.930	692.126
276.526	24.940	865.312	688.793
277.541	25.145	865.053	689.316
278.555	25.591	864.991	690.920
279.570	25.280	864.302	689.112
280.585	24.955	863.759	687.371
281.599	25.233	863.133	687.878
282.614	25.241	863.076	687.804
283.628	25.030	861.243	685.475
284.643	24.544	860.667	683.096
285.657	25.006	860.764	684.880
286.672	24.893	859.772	683.598
287.687	24.386	859.058	681.036
288.701	24.513	858.939	681.366
289.716	25.028	858.443	682.877
290.730	24.651	857.642	680.743
291.745	24.718	856.688	680.179
292.760	24.349	856.287	678.398
293.774	24.163	855.744	677.202
294.789	25.351	856.124	681.956
295.803	25.912	855.796	683.764
296.818	25.937	855.725	683.740
297.833	25.997	855.556	683.775
298.847	25.694	854.232	681.506
299.862	25.444	853.144	679.634
300.876	25.480	852.558	679.242
301.891	25.762	852.295	680.039
302.906	25.860	851.720	679.891
303.920	25.576	850.641	677.895
304.935	25.346	849.988	676.453
305.949	25.718	849.788	677.634
306.964	25.885	849.176	677.713
307.979	25.720	848.293	676.328
308.993	25.471	848.414	675.430
310.008	25.899	848.111	676.734
311.022	26.097	847.310	676.777
312.037	25.954	846.836	675.805
313.052	25.714	846.179	674.323
314.066	25.633	845.311	673.267
315.081	24.998	843.878	669.695
316.095	24.060	842.892	665.346
317.110	24.665	842.904	667.558
318.125	25.614	843.152	671.237
319.139	25.061	842.302	668.441
320.154	24.000	840.538	663.031
321.168	23.497	839.769	660.492
322.183	24.257	839.521	663.066
323.197	24.966	840.048	666.063
324.212	25.217	840.211	667.065
325.227	25.446	839.973	667.669
326.241	25.716	839.039	667.870
327.256	25.625	838.171	666.782
328.270	25.512	837.631	665.875
329.285	25.325	837.202	664.784
330.300	25.226	836.421	663.737
331.314	24.926	835.677	661.981
332.329	25.144	834.990	662.182
333.343	25.465	834.624	663.019
334.358	25.800	834.460	664.063
335.373	25.765	833.848	663.389
336.387	25.696	833.554	662.843
337.402	25.885	833.074	663.097
338.416	26.137	832.816	663.761
339.431	26.197	831.938	663.223
340.446	26.184	831.619	662.864
341.460	26.507	830.629	663.197
342.475	26.179	830.582	661.899
343.489	26.173	829.432	660.903
344.504	26.015	829.287	660.152
345.519	26.360	828.631	660.833
346.533	26.533	828.572	661.360
347.548	26.719	828.204	661.686
348.562	26.845	827.453	661.486
349.577	26.531	826.932	659.865
350.592	26.472	826.592	659.322
351.606	26.528	825.812	658.845
352.621	26.538	825.380	658.480
353.635	26.354	825.020	657.465
354.650	26.338	824.394	656.850
355.665	26.018	823.499	654.916
356.679	25.013	821.760	649.831
357.694	24.784	821.318	648.595
358.708	25.562	821.342	651.375
359.723	25.359	821.079	650.375
360.738	25.800	820.407	651.380
361.752	26.044	820.439	652.231
362.767	26.333	820.117	652.959
363.781	26.519	819.878	653.384
364.796	26.817	819.903	654.420
365.810	26.833	819.227	653.881
366.825	26.871	819.009	653.789
367.840	26.855	818.690	653.417
368.854	26.792	818.017	652.595
369.869	26.526	816.903	650.692
370.883	26.198	816.203	648.898
371.898	26.212	815.747	648.531
372.913	26.234	815.055	647.999
373.927	26.170	814.237	647.065
374.942	26.317	814.206	647.507
375.956	26.508	813.191	647.327
376.971	26.514	813.055	647.184
377.986	26.650	812.404	647.092
379.000	26.937	812.261	647.946
380.015	26.925	811.985	647.628
381.029	26.683	811.240	646.111
382.044	26.684	810.457	645.434
383.059	26.808	809.941	645.407
384.073	26.888	809.518	645.300
385.088	26.903	808.760	644.692
386.102	26.905	808.626	644.533
387.117	26.727	807.552	642.988
388.132	26.524	807.386	642.080
389.146	26.394	806.424	640.796
390.161	25.834	805.547	638.061
391.175	25.853	805.267	637.852
392.190	26.467	805.170	639.890
393.205	26.583	804.249	639.512
394.219	25.559	803.217	635.020
395.234	23.953	800.628	627.260
396.248	23.068	799.752	623.400
397.263	24.275	800.350	628.063
398.278	26.052	801.821	635.427
399.292	26.505	801.636	636.819
400.307	26.139	801.037	635.001
401.321	26.264	800.190	634.712
402.336	26.191	800.233	634.434
403.350	26.440	800.101	635.149
404.365	27.035	799.866	636.991
405.380	27.298	799.530	637.590
406.394	27.498	799.864	638.502
407.409	27.596	799.569	638.553
408.423	27.456	799.118	637.648
409.438	27.556	797.930	636.991
410.453	27.453	797.773	636.451
411.467	27.752	796.832	636.685
412.482	27.401	796.833	635.406
413.496	27.492	796.054	635.044
414.511	27.664	795.638	635.256
415.526	27.518	795.737	634.771
416.540	27.562	795.022	634.299
417.555	27.661	794.282	633.996
418.569	27.411	793.727	632.627
419.584	27.194	793.351	631.518
420.599	27.185	792.992	631.144
421.613	107.003	1278.207	1439.069
422.628	91.991	1348.901	1439.181
