DTS Sentinel unit serial number:	SN413079Multiplexer serial number:	ORYXHardware model number:	OX4-SRSoftware version number:	ORYX F/W v4.00 Oryx Data Collector v3.7.2.0data status	okinstallation	princeton_trtdifferential loss correction	single-endedforward channel	channel 3reverse channel	N/Adate	2019/09/17time	17:40:35forward acquisition time	60.00reverse acquisition time	0.00gamma	496.2192k internal	0.2290k external	0.2290temperature offset calibration	0.9946default loss term (dB/km)	0.3790temperature slope calibration	1.0000multiplexer offset coefficient	1.0000multiplexer slope coefficient	1.0000fibre end	0.00T internal ref (°C)	43.37T ext. ref 1 (°C)	0.34T ext. ref 2 (°C)	38.86length (m)	temperature (°C)	Stokes	anti-Stokes-747.200	-200.000	0.006	0.120
-746.185	-200.000	-0.013	0.221
-745.171	156.199	-0.021	0.029
-744.156	-200.000	-0.020	0.121
-743.142	-92.133	0.294	0.085
-742.127	-200.000	-0.028	0.263
-741.112	-98.962	-0.168	-0.044
-740.098	-200.000	-0.062	0.520
-739.083	-158.683	0.493	0.029
-738.069	152.044	0.167	0.233
-737.054	-93.168	-0.185	-0.053
-736.039	227.854	0.093	0.155
-735.025	280.867	0.152	-0.278
-734.010	62.315	-0.178	-0.182
-732.996	629.436	-0.033	0.086
-731.981	40.578	0.235	-0.217
-730.966	-21.382	-0.187	-0.117
-729.952	-109.491	0.257	0.056
-728.937	-89.331	0.208	-0.063
-727.923	-131.871	0.335	0.045
-726.908	-26.855	0.147	0.088
-725.894	-164.926	-0.244	-0.011
-724.879	-66.095	-0.197	0.080
-723.864	800.000	-0.074	0.327
-722.850	324.916	0.093	-0.183
-721.835	-200.000	-0.026	-0.127
-720.821	-152.516	-0.242	-0.018
-719.806	67.593	0.328	-0.343
-718.791	778.929	-0.058	-0.164
-717.777	-130.993	-0.482	-0.066
-716.762	800.000	-0.044	-0.161
-715.748	-70.099	0.237	0.092
-714.733	25.634	-0.157	0.134
-713.718	-200.000	0.051	-0.405
-712.704	209.279	0.068	-0.109
-711.689	117.990	0.194	-0.244
-710.675	167.103	0.056	0.082
-709.660	136.662	-0.128	-0.170
-708.645	-200.000	0.026	-0.152
-707.631	-99.505	-0.184	-0.047
-706.616	-120.311	-0.321	-0.056
-705.602	-48.522	0.171	0.084
-704.587	-200.000	0.014	0.076
-703.572	-200.000	-0.026	-0.282
-702.558	494.449	-0.075	0.177
-701.543	-52.331	0.148	-0.070
-700.529	-82.398	0.138	0.046
-699.514	32.154	-0.205	-0.181
-698.499	-121.888	0.169	0.029
-697.485	19.732	-0.024	0.020
-696.470	800.000	0.108	0.467
-695.456	28.389	0.087	-0.075
-694.441	539.675	-0.062	-0.151
-693.426	156.258	0.106	-0.150
-692.412	440.768	-0.053	0.117
-691.397	-200.000	-0.011	0.093
-690.383	-61.959	-0.157	0.067
-689.368	800.000	0.067	-0.273
-688.354	288.031	-0.084	0.155
-687.339	240.454	-0.039	-0.066
-686.324	-200.000	0.007	0.300
-685.310	-173.241	0.090	0.003
-684.295	-200.000	-0.051	-0.292
-683.281	474.849	-0.082	-0.189
-682.266	800.000	0.040	-0.163
-681.251	33.012	-0.329	-0.292
-680.237	-65.181	0.041	0.017
-679.222	82.231	-0.315	-0.349
-678.208	-28.498	-0.104	-0.061
-677.193	12.334	0.188	0.148
-676.178	-200.000	0.019	0.191
-675.164	-9.917	-0.110	0.074
-674.149	800.000	0.078	0.280
-673.135	-200.000	0.194	-0.000
-672.120	-164.097	-0.224	0.011
-671.105	-73.470	-0.316	-0.118
-670.091	-63.064	0.201	-0.085
-669.076	-71.030	-0.196	-0.075
-668.062	-200.000	-0.008	-0.048
-667.047	-200.000	-0.007	0.045
-666.032	-45.659	0.170	-0.086
-665.018	-43.456	0.297	-0.153
-664.003	90.170	0.236	-0.269
-662.989	635.432	0.030	0.078
-661.974	99.968	0.055	-0.065
-660.959	38.323	-0.173	0.158
-659.945	-200.000	0.010	0.142
-658.930	-4.377	-0.159	0.112
-657.916	25.268	0.059	0.050
-656.901	291.467	-0.156	-0.290
-655.886	-21.141	-0.200	-0.125
-654.872	65.016	0.249	-0.257
-653.857	-200.000	0.002	-0.109
-652.843	-200.000	-0.041	-0.332
-651.828	800.000	-0.131	-0.402
-650.814	237.728	-0.152	-0.257
-649.799	317.062	-0.068	-0.132
-648.784	-110.601	0.424	0.090
-647.770	7.058	0.315	-0.240
-646.755	800.000	0.103	-0.314
-645.741	100.223	-0.157	-0.186
-644.726	-36.499	0.317	-0.174
-643.711	521.105	0.033	0.079
-642.697	-117.528	0.452	0.083
-641.682	-114.865	0.109	-0.021
-640.668	800.000	0.022	0.090
-639.653	14.083	-0.253	0.201
-638.638	-200.000	0.018	-0.201
-637.624	-84.086	0.144	-0.047
-636.609	-200.000	-0.006	0.239
-635.595	800.000	-0.079	-0.353
-634.580	-200.000	-0.014	-0.353
-633.565	800.000	0.055	0.220
-632.551	-6.855	0.178	-0.123
-631.536	-33.825	-0.132	-0.074
-630.522	-200.000	-0.023	0.154
-629.507	-126.382	-0.255	0.039
-628.492	-200.000	0.001	0.309
-627.478	196.474	0.186	-0.289
-626.463	84.766	0.143	-0.159
-625.449	-16.947	-0.126	-0.081
-624.434	-200.000	0.025	0.172
-623.419	-18.400	-0.101	0.064
-622.405	144.036	-0.056	-0.076
-621.390	-105.025	-0.168	-0.039
-620.376	3.239	-0.223	0.165
-619.361	-1.057	-0.028	0.021
-618.346	80.256	0.025	0.027
-617.332	-102.191	0.221	-0.054
-616.317	-58.315	0.206	-0.092
-615.303	-170.436	0.190	-0.007
-614.288	-13.354	-0.197	0.131
-613.273	-200.000	-0.015	0.156
-612.259	800.000	0.098	0.309
-611.244	-200.000	0.037	-0.169
-610.230	82.634	0.098	-0.108
-609.215	800.000	-0.066	0.230
-608.201	-120.695	0.247	-0.043
-607.186	-22.409	-0.192	-0.118
-606.171	509.835	-0.044	-0.105
-605.157	-109.939	0.140	-0.030
-604.142	178.228	-0.073	-0.109
-603.128	29.455	0.075	-0.065
-602.113	648.229	0.047	-0.121
-601.098	-178.657	0.435	-0.010
-600.084	161.535	-0.071	0.101
-599.069	116.822	-0.139	0.174
-598.055	-115.553	0.019	0.004
-597.040	-64.116	-0.113	-0.047
-596.025	126.178	-0.213	0.275
-595.011	281.846	0.082	-0.149
-593.996	-30.473	-0.423	-0.244
-592.982	-151.001	-0.175	0.013
-591.967	800.000	0.079	0.281
-590.952	241.076	-0.226	-0.384
-589.938	4.450	-0.086	-0.064
-588.923	-200.000	-0.012	-0.345
-587.909	-52.059	-0.268	-0.127
-586.894	-40.306	0.303	0.160
-585.879	-200.000	0.028	0.273
-584.865	-177.966	-0.309	-0.007
-583.850	-109.277	0.144	0.031
-582.836	293.857	0.052	0.097
-581.821	119.490	-0.173	-0.218
-580.806	73.670	0.233	0.248
-579.792	-16.820	0.143	-0.092
-578.777	76.578	0.327	-0.352
-577.763	-2.727	-0.226	-0.161
-576.748	-200.000	0.011	-0.054
-575.733	236.330	0.182	-0.306
-574.719	-200.000	0.026	0.198
-573.704	-147.161	-0.108	-0.009
-572.690	391.211	-0.084	-0.176
-571.675	401.685	0.035	0.075
-570.661	-79.612	-0.216	-0.074
-569.646	553.749	0.022	-0.054
-568.631	2.591	0.349	-0.257
-567.617	-91.228	-0.349	-0.102
-566.602	339.991	-0.034	0.068
-565.588	-55.913	-0.211	-0.096
-564.573	-51.108	-0.097	0.046
-563.558	164.048	0.128	0.184
-562.544	800.000	0.042	-0.179
-561.529	-200.000	0.060	-0.334
-560.515	800.000	0.053	0.228
-559.500	-162.386	0.405	0.020
-558.485	186.329	-0.186	0.282
-557.471	-200.000	0.009	0.264
-556.456	-137.322	0.102	-0.012
-555.442	-99.827	0.125	-0.032
-554.427	-37.098	-0.152	0.083
-553.412	-200.000	-0.032	-0.288
-552.398	-63.701	-0.355	-0.148
-551.383	-42.051	-0.088	0.046
-550.369	408.168	-0.085	0.183
-549.354	-150.311	0.276	-0.022
-548.339	-200.000	-0.007	-0.223
-547.325	800.000	0.049	0.139
-546.310	-120.617	-0.028	-0.005
-545.296	592.317	-0.116	-0.292
-544.281	-67.243	-0.245	-0.098
-543.266	-8.727	0.101	-0.069
-542.252	556.743	-0.097	-0.237
-541.237	-114.009	-0.275	-0.054
-540.223	-29.211	0.077	-0.045
-539.208	81.474	-0.161	0.177
-538.193	-46.865	0.195	0.097
-537.179	-24.996	-0.106	0.064
-536.164	-158.216	0.204	0.012
-535.150	-200.000	0.046	-0.239
-534.135	35.086	0.098	0.087
-533.121	84.081	-0.143	-0.158
-532.106	74.441	0.198	-0.211
-531.091	-132.272	-0.186	-0.025
-530.077	366.043	-0.125	-0.256
-529.062	-139.378	0.340	-0.037
-528.048	-62.538	0.217	0.091
-527.033	800.000	0.063	0.182
-526.018	800.000	-0.051	0.146
-525.004	-146.219	0.134	0.012
-523.989	-72.970	0.073	0.027
-522.975	168.972	-0.098	-0.142
-521.960	-63.643	-0.199	0.083
-520.945	-160.152	0.417	0.023
-519.931	-200.000	-0.010	0.233
-518.916	61.432	-0.240	-0.242
-517.902	-53.754	0.181	-0.084
-516.887	-200.000	-0.013	0.100
-515.872	-123.851	0.302	0.048
-514.858	73.999	-0.095	-0.101
-513.843	-200.000	0.058	0.276
-512.829	241.411	0.086	-0.147
-511.814	-200.000	0.024	0.408
-510.799	-200.000	0.013	0.123
-509.785	257.440	0.125	-0.218
-508.770	6.434	0.181	0.136
-507.756	44.757	-0.122	0.114
-506.741	458.305	-0.110	0.248
-505.726	128.124	-0.092	-0.119
-504.712	212.197	-0.141	-0.226
-503.697	556.598	0.124	0.303
-502.683	153.282	-0.175	0.243
-501.668	-38.977	0.158	0.084
-500.653	-65.340	0.396	0.162
-499.639	-35.447	-0.175	-0.097
-498.624	-53.812	0.232	-0.108
-497.610	286.700	0.107	-0.195
-496.595	-145.079	-0.104	0.010
-495.581	800.000	-0.050	0.209
-494.566	-88.264	-0.377	-0.115
-493.551	31.574	-0.145	-0.126
-492.537	800.000	-0.046	0.129
-491.522	128.654	0.079	0.102
-490.508	-160.827	-0.188	0.010
-489.493	-200.000	0.044	-0.375
-488.478	800.000	0.070	0.274
-487.464	141.121	-0.250	0.335
-486.449	-111.914	-0.393	0.081
-485.435	-92.142	0.187	0.053
-484.420	214.863	0.046	-0.074
-483.405	-200.000	0.033	-0.215
-482.391	-7.276	0.082	-0.056
-481.376	-200.000	-0.017	-0.171
-480.362	-6.390	0.149	0.103
-479.347	-200.000	0.122	-0.621
-478.332	-83.047	-0.183	0.060
-477.318	-200.000	0.043	-0.190
-476.303	296.058	-0.012	0.023
-475.289	733.002	-0.120	0.324
-474.274	61.243	0.107	0.108
-473.259	263.769	-0.177	0.313
-472.245	-164.197	0.104	0.005
-471.230	-91.762	0.066	0.019
-470.216	-35.854	-0.138	0.075
-469.201	404.389	0.174	0.372
-468.186	-136.670	0.426	0.050
-467.172	-176.229	0.199	-0.005
-466.157	-83.976	-0.169	-0.055
-465.143	-200.000	-0.056	0.305
-464.128	-70.643	0.117	0.045
-463.113	169.657	-0.142	-0.206
-462.099	189.473	0.186	-0.282
-461.084	116.546	0.110	-0.136
-460.070	103.777	0.078	-0.093
-459.055	-200.000	0.009	-0.056
-458.040	-200.000	-0.036	0.184
-457.026	-52.896	-0.161	-0.075
-456.011	-81.748	-0.328	0.109
-454.997	-200.000	0.003	-0.278
-453.982	336.868	-0.181	-0.357
-452.968	420.992	0.082	0.178
-451.953	136.614	-0.215	-0.285
-450.938	12.079	-0.276	0.215
-449.924	-62.962	0.141	-0.059
-448.909	800.000	-0.016	0.047
-447.895	800.000	-0.100	-0.366
-446.880	-200.000	-0.038	-0.287
-445.865	9.673	-0.084	-0.064
-444.851	14.404	0.283	-0.224
-443.836	14.901	0.181	-0.143
-442.822	-25.405	-0.095	-0.057
-441.807	-138.468	-0.174	0.019
-440.792	47.489	-0.260	-0.245
-439.778	-127.572	-0.143	0.021
-438.763	231.132	0.159	-0.263
-437.749	-87.670	0.095	0.029
-436.734	505.161	-0.069	-0.162
-435.719	-104.934	0.392	0.091
-434.705	65.809	-0.106	-0.109
-433.690	800.000	0.054	0.229
-432.676	116.356	0.269	0.334
-431.661	165.507	-0.130	0.186
-430.646	-77.884	-0.117	-0.041
-429.632	-65.719	-0.187	-0.076
-428.617	-200.000	-0.102	0.466
-427.603	-26.165	0.236	0.140
-426.588	-86.739	-0.206	-0.064
-425.573	175.580	-0.055	0.081
-424.559	315.441	0.091	-0.174
-423.544	-200.000	0.004	0.095
-422.530	-39.409	-0.255	0.135
-421.515	-126.508	0.343	0.052
-420.500	-133.815	0.028	-0.003
-419.486	-134.282	-0.262	0.033
-418.471	-78.134	0.059	-0.021
-417.457	800.000	-0.081	0.308
-416.442	-200.000	0.034	0.272
-415.428	-112.583	-0.331	-0.067
-414.413	800.000	-0.072	0.225
-413.398	280.462	0.112	0.202
-412.384	217.301	-0.152	-0.244
-411.369	-65.390	-0.265	0.108
-410.355	-25.882	-0.150	-0.089
-409.340	800.000	-0.108	-0.329
-408.325	-79.459	0.306	-0.105
-407.311	800.000	-0.074	-0.317
-406.296	-200.000	-0.021	0.219
-405.282	-200.000	0.042	-0.215
-404.267	-200.000	0.012	0.218
-403.252	-200.000	-0.057	0.410
-402.238	800.000	-0.036	0.105
-401.223	-200.000	0.001	0.167
-400.209	-200.000	-0.043	0.198
-399.194	16.768	0.104	-0.083
-398.179	-168.564	0.460	-0.018
-397.165	-29.062	0.255	0.148
-396.150	153.682	0.164	0.227
-395.136	-35.510	-0.097	-0.053
-394.121	228.505	-0.088	0.146
-393.106	232.270	0.024	-0.040
-392.092	-119.740	0.247	0.043
-391.077	-10.652	-0.046	0.031
-390.063	256.739	-0.083	0.144
-389.048	-200.000	-0.017	0.244
-388.033	-48.062	0.184	0.090
-387.019	-86.772	-0.451	0.139
-386.004	-72.431	-0.115	-0.043
-384.990	-31.043	-0.055	0.032
-383.975	109.590	-0.075	-0.091
-382.960	800.000	0.002	-0.006
-381.946	-60.017	0.201	-0.087
-380.931	592.971	0.050	-0.124
-379.917	-55.581	0.232	-0.105
-378.902	-200.000	0.042	-0.220
-377.888	-23.955	-0.088	0.053
-376.873	800.000	-0.068	0.267
-375.858	283.940	-0.157	0.284
-374.844	637.371	-0.081	-0.208
-373.829	-44.568	-0.124	0.062
-372.815	41.718	0.120	0.110
-371.800	-200.000	0.040	0.257
-370.785	-200.000	-0.008	0.157
-369.771	-90.239	-0.166	-0.049
-368.756	-5.169	0.032	0.023
-367.742	-200.000	0.003	0.198
-366.727	347.329	0.064	-0.127
-365.712	800.000	-0.011	0.039
-364.698	341.035	-0.060	-0.119
-363.683	399.050	-0.122	0.257
-362.669	-168.120	0.273	-0.011
-361.654	-200.000	-0.020	-0.116
-360.639	-81.187	-0.082	-0.027
-359.625	-200.000	0.050	0.334
-358.610	-121.129	0.419	0.071
-357.596	216.038	0.230	-0.369
-356.581	-200.000	-0.029	-0.322
-355.566	-200.000	-0.015	0.241
-354.552	-12.367	-0.199	-0.131
-353.537	423.888	0.145	-0.314
-352.523	-200.000	-0.008	0.185
-351.508	800.000	-0.049	-0.209
-350.493	-75.027	0.181	-0.065
-349.479	-200.000	-0.003	0.136
-348.464	231.476	0.059	0.097
-347.450	124.018	-0.202	-0.256
-346.435	27.653	-0.306	-0.260
-345.420	-82.838	-0.130	0.042
-344.406	121.207	-0.062	0.078
-343.391	292.383	-0.091	-0.167
-342.377	277.019	-0.132	-0.236
-341.362	-67.605	-0.285	0.113
-340.348	-200.000	0.006	-0.118
-339.333	-200.000	-0.021	0.213
-338.318	54.687	-0.116	0.113
-337.304	85.834	0.193	0.214
-336.289	-200.000	0.024	-0.155
-335.275	-14.706	-0.230	-0.149
-334.260	-200.000	-0.328	0.001
-333.245	-45.819	-0.216	-0.107
-332.231	800.000	-0.101	0.360
-331.216	-50.537	0.175	0.083
-330.202	-49.798	-0.340	0.163
-329.187	-140.120	-0.205	-0.022
-328.172	-123.570	-0.234	0.038
-327.158	-200.000	0.035	-0.202
-326.143	131.277	0.009	0.012
-325.129	749.801	-0.098	-0.267
-324.114	8.754	-0.222	0.169
-323.099	-200.000	0.004	0.157
-322.085	549.646	0.062	-0.149
-321.070	97.356	0.110	0.127
-320.056	203.522	-0.199	-0.310
-319.041	-200.000	0.034	-0.209
-318.026	722.938	-0.033	0.089
-317.012	218.061	-0.057	-0.092
-315.997	545.077	0.070	-0.169
-314.983	-6.740	0.347	0.238
-313.968	-32.249	-0.177	-0.100
-312.953	297.414	-0.206	-0.381
-311.939	-70.175	0.295	0.113
-310.924	328.641	-0.022	0.042
-309.910	-32.558	0.176	-0.099
-308.895	61.713	-0.136	-0.136
-307.880	-56.163	-0.069	-0.031
-306.866	-116.402	0.071	-0.013
-305.851	-7.124	0.143	-0.098
-304.837	-64.250	0.432	-0.177
-303.822	89.948	-0.273	-0.307
-302.807	79.574	-0.095	0.102
-301.793	22.608	-0.155	0.128
-300.778	-122.083	0.210	0.035
-299.764	234.132	0.193	-0.320
-298.749	308.766	-0.033	0.062
-297.735	-8.864	0.038	0.025
-296.720	-17.417	-0.100	0.063
-295.705	290.603	-0.198	-0.362
-294.691	26.327	-0.142	-0.119
-293.676	800.000	0.002	0.010
-292.662	147.985	-0.182	0.248
-291.647	13.704	0.286	0.223
-290.632	-200.000	0.049	-0.216
-289.618	15.599	-0.299	0.236
-288.603	-200.000	-0.013	0.064
-287.589	-1.568	0.275	0.195
-286.574	-27.979	0.233	0.136
-285.559	-52.737	-0.252	-0.117
-284.545	-110.129	-0.289	0.061
-283.530	-115.880	0.275	0.052
-282.516	-42.652	0.085	0.044
-281.501	800.000	0.066	-0.231
-280.486	-159.163	-0.069	-0.004
-279.472	4.203	-0.140	-0.103
-278.457	-3.294	-0.291	0.204
-277.443	65.858	-0.156	-0.159
-276.428	57.849	0.127	-0.125
-275.413	283.658	0.244	0.440
-274.399	99.862	-0.131	0.152
-273.384	-200.000	0.002	-0.080
-272.370	-90.578	0.285	-0.083
-271.355	-2.868	0.476	0.335
-270.340	291.945	0.073	0.134
-269.326	-59.637	0.127	-0.055
-268.311	-134.376	0.049	0.006
-267.297	800.000	0.058	-0.175
-266.282	714.480	-0.085	-0.225
-265.267	-200.000	0.021	0.235
-264.253	-106.985	0.217	-0.048
-263.238	800.000	-0.008	-0.025
-262.224	-200.000	0.029	-0.525
-261.209	-94.419	-0.275	-0.076
-260.195	168.110	-0.077	-0.110
-259.180	202.916	-0.059	-0.092
-258.165	-79.354	0.010	0.003
-257.151	338.514	-0.075	0.147
-256.136	-85.876	-0.391	-0.122
-255.122	-133.166	-0.132	0.017
-254.107	599.372	-0.119	0.296
-253.092	-200.000	-0.051	-0.392
-252.078	89.973	0.373	0.418
-251.063	-85.991	0.153	0.048
-250.049	-97.694	0.215	0.056
-249.034	254.549	-0.093	-0.160
-248.019	-54.511	-0.185	-0.084
-247.005	-156.190	-0.267	0.017
-245.990	-44.726	-0.105	-0.052
-244.976	7.841	-0.158	0.119
-243.961	-47.687	-0.071	0.034
-242.946	-49.608	0.408	0.195
-241.932	-94.774	-0.080	0.022
-240.917	-49.908	-0.255	-0.122
-239.903	-74.030	0.078	0.028
-238.888	76.956	-0.069	-0.073
-237.873	-143.742	-0.356	0.034
-236.859	595.487	-0.047	0.116
-235.844	-59.791	0.153	0.066
-234.830	-25.943	0.128	0.075
-233.815	89.668	0.147	-0.165
-232.800	-200.000	0.009	-0.143
-231.786	306.864	0.081	-0.151
-230.771	-200.000	-0.045	-0.294
-229.757	-200.000	0.017	0.269
-228.742	-107.589	-0.149	-0.033
-227.727	800.000	-0.068	0.190
-226.713	-3.009	0.084	0.059
-225.698	-55.846	0.164	-0.073
-224.684	-47.741	-0.048	0.024
-223.669	800.000	0.136	-0.567
-222.655	-69.001	-0.104	-0.040
-221.640	74.276	0.266	0.280
-220.625	655.151	-0.159	0.410
-219.611	-155.669	-0.231	0.015
-218.596	-80.688	0.296	-0.099
-217.582	800.000	0.059	0.244
-216.567	-131.899	-0.110	-0.014
-215.552	800.000	0.041	0.117
-214.538	-200.000	-0.021	0.124
-213.523	-5.578	-0.182	0.125
-212.509	800.000	0.076	-0.237
-211.494	-149.511	0.059	-0.005
-210.479	-144.352	0.437	0.041
-209.465	159.729	-0.137	-0.191
-208.450	117.961	0.122	-0.150
-207.436	-200.000	-0.014	-0.135
-206.421	-147.648	-0.325	0.027
-205.406	800.000	-0.052	-0.208
-204.392	-200.000	-0.016	0.261
-203.377	-132.656	-0.357	-0.046
-202.363	-200.000	-0.008	0.310
-201.348	800.000	-0.025	-0.104
-200.333	88.879	0.115	0.129
-199.319	577.805	0.103	-0.254
-198.304	800.000	-0.065	-0.201
-197.290	73.575	-0.096	0.101
-196.275	-37.198	-0.147	-0.079
-195.260	137.459	-0.232	-0.305
-194.246	234.842	-0.219	0.362
-193.231	-50.715	-0.165	0.078
-192.217	36.299	0.269	0.238
-191.202	-0.421	-0.158	0.113
-190.187	361.013	0.043	0.086
-189.173	-34.652	-0.054	-0.029
-188.158	46.573	0.276	-0.257
-187.144	-117.385	0.277	-0.050
-186.129	-144.704	0.155	-0.014
-185.114	-32.564	-0.308	0.172
-184.100	-128.537	-0.213	-0.030
-183.085	-94.932	0.333	-0.090
-182.071	-55.611	0.294	-0.132
-181.056	136.942	-0.039	0.051
-180.042	233.907	0.202	0.333
-179.027	-200.000	-0.035	-0.216
-178.012	260.613	-0.010	-0.018
-176.998	192.871	0.038	-0.057
-175.983	169.624	-0.039	0.056
-174.969	-151.956	0.112	0.008
-173.954	553.159	-0.063	0.152
-172.939	-109.364	0.082	-0.017
-171.925	660.632	0.068	0.175
-170.910	-200.000	-0.032	0.171
-169.896	62.344	0.239	0.239
-168.881	17.782	0.409	0.326
-167.866	-62.559	-0.302	-0.126
-166.852	85.053	0.064	0.070
-165.837	-200.000	-0.011	0.064
-164.823	-6.653	0.015	-0.010
-163.808	624.340	0.047	0.117
-162.793	690.371	-0.038	0.100
-161.779	-200.000	0.005	0.180
-160.764	540.087	-0.014	0.034
-159.750	162.088	0.050	-0.070
-158.735	83.037	0.228	-0.249
-157.720	-73.313	0.378	0.139
-156.706	800.000	0.110	0.430
-155.691	344.043	-0.022	-0.044
-154.677	-74.432	-0.086	-0.031
-153.662	-200.000	0.017	-0.098
-152.647	800.000	-0.079	0.330
-151.633	-130.691	0.300	-0.040
-150.618	-200.000	0.009	-0.411
-149.604	-200.000	-0.022	0.227
-148.589	-34.244	-0.470	-0.259
-147.574	800.000	0.050	0.143
-146.560	-112.029	0.181	-0.037
-145.545	78.727	-0.300	0.321
-144.531	-200.000	0.023	0.318
-143.516	15.407	0.101	0.079
-142.502	200.106	0.105	0.162
-141.487	176.393	0.361	-0.525
-140.472	81.775	0.254	-0.275
-139.458	-153.509	0.385	0.027
-138.443	81.245	0.203	0.219
-137.429	27.422	0.126	0.106
-136.414	-78.265	0.142	0.049
-135.399	-46.788	-0.057	-0.028
-134.385	-51.558	0.175	0.082
-133.370	285.288	0.134	0.242
-132.356	-62.678	-0.203	0.084
-131.341	-93.538	0.175	-0.049
-130.326	-200.000	-0.011	0.104
-129.312	-200.000	0.007	0.086
-128.297	800.000	0.051	0.206
-127.283	800.000	0.031	-0.090
-126.268	-200.000	0.003	-0.119
-125.253	115.517	0.084	0.103
-124.239	-19.316	-0.240	0.149
-123.224	22.026	-0.077	-0.062
-122.210	800.000	0.090	0.251
-121.195	-107.970	0.319	-0.069
-120.180	-200.000	0.018	0.122
-119.166	-134.707	-0.180	-0.022
-118.151	40.368	-0.104	0.094
-117.137	-200.000	-0.002	-0.138
-116.122	-88.652	0.154	0.046
-115.107	3.956	0.056	-0.041
-114.093	-200.000	0.013	-0.388
-113.078	-200.000	0.032	-0.177
-112.064	-75.706	0.239	0.085
-111.049	297.073	0.252	0.462
-110.034	-82.427	0.128	-0.041
-109.020	138.993	-0.045	-0.059
-108.005	-155.879	-0.199	0.013
-106.991	-200.000	0.080	-0.380
-105.976	40.529	-0.059	-0.053
-104.962	-148.669	-0.221	0.018
-103.947	9.424	0.097	-0.073
-102.932	300.424	0.083	-0.154
-101.918	-96.748	0.175	-0.046
-100.903	800.000	0.105	-0.366
-99.889	41.825	0.218	0.198
-98.874	61.037	0.050	0.049
-97.859	43.738	-0.152	0.139
-96.845	-63.173	0.262	-0.108
-95.830	-154.012	-0.320	0.022
-94.816	800.000	0.048	0.210
-93.801	-133.802	-0.213	-0.026
-92.786	149.462	0.229	-0.309
-91.772	-114.740	0.007	-0.001
-90.757	487.218	0.104	0.236
-89.743	-188.673	-0.452	0.006
-88.728	-67.388	-0.073	-0.029
-87.713	-78.641	-0.110	-0.038
-86.699	-200.000	-0.036	-0.222
-85.684	-200.000	0.051	-0.310
-84.670	498.303	0.166	-0.382
-83.655	2.960	0.140	-0.102
-82.640	800.000	0.034	-0.135
-81.626	-168.404	-0.339	0.013
-80.611	800.000	-0.065	0.258
-79.597	-200.000	-0.018	0.119
-78.582	800.000	-0.154	0.482
-77.567	162.902	0.109	-0.153
-76.553	-2.841	-0.070	-0.049
-75.538	-83.485	0.128	0.041
-74.524	800.000	0.078	0.269
-73.509	800.000	-0.064	-0.250
-72.494	50.413	0.324	-0.305
-71.480	96.255	0.357	0.407
-70.465	-8.979	-0.120	-0.080
-69.451	98.244	0.208	0.239
-68.436	220.192	0.151	0.242
-67.422	-62.383	-0.156	-0.065
-66.407	-47.948	-0.093	0.045
-65.392	91.182	-0.036	0.041
-64.378	761.719	0.093	-0.251
-63.363	226.688	-0.108	-0.175
-62.349	-196.362	-0.192	0.001
-61.334	9.127	-0.821	-0.619
-60.319	113.197	0.214	0.259
-59.305	-200.000	0.009	-0.626
-58.290	531.518	0.216	0.509
-57.276	-200.000	0.338	1.729
-56.261	-200.000	72.163	548.962
-55.246	564.494	1305.057	3153.588
-54.232	137.247	2574.196	3357.081
-53.217	119.708	2276.385	2812.581
-52.203	55.005	1786.023	1720.156
-51.188	47.072	1576.220	1462.216
-50.173	44.191	1544.763	1412.963
-49.159	59.848	1579.212	1554.606
-48.144	67.601	1599.396	1628.712
-47.130	47.488	1563.165	1452.795
-46.115	43.657	1548.866	1412.758
-45.100	43.525	1545.052	1408.301
-44.086	43.373	1543.758	1406.011
-43.071	43.339	1541.522	1403.681
-42.057	43.316	1539.660	1401.770
-41.042	43.277	1538.421	1400.317
-40.027	43.373	1536.851	1399.498
-39.013	43.347	1535.275	1397.826
-37.998	43.352	1533.928	1396.577
-36.984	43.342	1532.867	1395.488
-35.969	43.408	1531.640	1394.775
-34.954	43.461	1529.901	1393.502
-33.940	43.352	1528.734	1391.627
-32.925	43.364	1526.888	1389.973
-31.911	43.436	1525.062	1388.755
-30.896	43.411	1524.468	1387.988
-29.881	43.447	1523.279	1387.094
-28.867	43.492	1521.411	1385.651
-27.852	43.423	1520.100	1383.924
-26.838	43.428	1518.466	1382.416
-25.823	43.470	1516.829	1381.163
-24.809	43.402	1515.071	1379.041
-23.794	43.406	1513.471	1377.554
-22.779	43.347	1512.824	1376.509
-21.765	43.328	1512.130	1375.696
-20.750	43.496	1509.813	1374.678
-19.736	43.371	1509.436	1373.429
-18.721	43.402	1508.068	1372.338
-17.706	43.410	1506.702	1371.099
-16.692	43.437	1505.135	1369.801
-15.677	43.342	1504.704	1368.708
-14.663	43.313	1503.531	1367.391
-13.648	43.253	1502.646	1366.123
-12.633	43.381	1501.767	1366.139
-11.619	43.314	1500.707	1364.665
-10.604	43.401	1500.051	1364.605
-9.590	43.295	1499.391	1363.232
-8.575	43.224	1498.464	1361.855
-7.560	43.437	1496.856	1361.780
-6.546	43.450	1495.722	1360.779
-5.531	43.273	1495.733	1359.541
-4.517	43.343	1494.286	1358.643
-3.502	43.306	1492.935	1357.116
-2.487	43.282	1491.895	1355.956
-1.473	43.217	1491.365	1354.980
-0.458	43.299	1490.289	1354.503
0.556	41.757	1481.312	1345.254
1.571	39.188	1452.217	1301.729
2.586	34.156	1386.653	1210.939
3.600	30.312	1299.365	1111.638
4.615	27.285	1249.239	1051.197
5.629	22.685	1190.396	976.198
6.644	11.477	1097.640	842.523
7.659	2.240	1049.179	759.516
8.673	0.546	1043.394	746.886
9.688	0.342	1040.528	743.763
10.702	0.213	1038.928	741.918
11.717	0.239	1037.187	740.737
12.731	2.940	1040.772	756.545
13.746	11.956	1052.983	810.115
14.761	18.168	1059.977	846.253
15.775	17.720	1058.353	842.668
16.790	16.607	1056.596	835.702
17.804	15.540	1054.151	828.434
18.819	14.606	1052.350	822.343
19.834	14.294	1050.450	819.254
20.848	13.936	1049.431	816.626
21.863	13.699	1048.727	814.840
22.877	13.424	1048.096	812.929
23.892	13.122	1047.150	810.641
24.907	13.118	1046.092	809.730
25.921	13.179	1045.479	809.484
26.936	13.137	1044.880	808.740
27.950	13.223	1044.319	808.657
28.965	13.186	1043.635	807.873
29.980	13.270	1042.998	807.720
30.994	13.342	1041.723	807.011
32.009	13.389	1040.762	806.426
33.023	13.342	1040.398	805.843
34.038	13.430	1039.172	805.249
35.053	13.273	1038.987	804.274
36.067	13.235	1037.284	802.701
37.082	13.329	1036.561	802.524
38.096	13.265	1036.085	801.773
39.111	13.295	1035.353	801.281
40.126	13.527	1034.002	801.290
41.140	13.365	1033.514	800.056
42.155	13.273	1032.089	798.437
43.169	13.161	1031.683	797.512
44.184	13.162	1030.470	796.508
45.199	13.095	1029.236	795.162
46.213	13.142	1028.114	794.452
47.228	13.231	1027.179	794.084
48.242	13.233	1026.169	793.243
49.257	13.090	1025.452	791.933
50.271	13.159	1024.578	791.520
51.286	13.214	1023.274	790.704
52.301	13.245	1022.526	790.206
53.315	13.299	1021.797	789.830
54.330	13.142	1021.094	788.469
55.344	13.184	1019.900	787.675
56.359	13.183	1018.929	786.850
57.374	13.202	1018.465	786.513
58.388	13.131	1017.457	785.330
59.403	13.201	1016.367	784.748
60.417	13.237	1015.450	784.144
61.432	13.188	1014.569	783.165
62.447	13.202	1014.355	782.995
63.461	13.064	1013.433	781.561
64.476	12.971	1012.790	780.557
65.490	13.034	1011.533	779.815
66.505	13.000	1010.824	779.037
67.520	13.032	1010.001	778.485
68.534	13.088	1008.847	777.790
69.549	13.046	1008.609	777.341
70.563	13.028	1007.652	776.450
71.578	13.108	1007.084	776.321
72.593	13.038	1006.318	775.333
73.607	13.052	1005.136	774.418
74.622	13.025	1004.427	773.675
75.636	12.925	1003.909	772.743
76.651	13.029	1002.836	772.333
77.666	12.971	1002.654	771.854
78.680	13.034	1001.574	771.248
79.695	12.998	1001.019	770.583
80.709	13.092	1000.516	770.567
81.724	13.090	999.324	769.573
82.739	13.039	998.571	768.687
83.753	13.171	997.773	768.620
84.768	13.242	997.066	768.335
85.782	13.322	996.283	768.035
86.797	13.420	995.143	767.545
87.812	13.282	994.746	766.529
88.826	13.280	993.944	765.834
89.841	13.269	992.896	764.912
90.855	13.273	992.236	764.349
91.870	13.322	992.156	764.448
92.884	13.218	991.162	763.133
93.899	13.292	990.501	762.899
94.914	13.394	989.200	762.298
95.928	13.410	988.761	761.970
96.943	13.419	988.087	761.423
97.957	13.237	987.192	759.830
98.972	13.279	986.330	759.289
99.987	13.410	985.331	759.057
101.001	13.359	984.601	758.191
102.016	13.256	984.066	757.242
103.030	13.329	983.060	756.735
104.045	13.363	981.926	755.950
105.060	13.436	980.776	755.333
106.074	13.262	980.390	754.174
107.089	13.320	978.844	753.182
108.103	13.193	978.819	752.517
109.118	13.185	977.252	751.210
110.133	13.111	977.032	750.639
111.147	13.102	975.854	749.628
112.162	13.215	975.096	749.490
113.176	13.189	974.429	748.791
114.191	13.146	973.507	747.822
115.206	13.156	972.670	747.158
116.220	13.187	972.047	746.757
117.235	13.102	971.356	745.775
118.249	13.111	970.656	745.213
119.264	13.255	969.466	744.881
120.279	13.163	968.591	743.728
121.293	13.213	967.429	742.996
122.308	13.130	967.229	742.405
123.322	13.127	966.156	741.502
124.337	13.218	964.838	740.830
125.352	13.134	964.074	739.802
126.366	13.114	963.050	738.860
127.381	13.116	961.485	737.606
128.395	13.208	960.816	737.435
129.410	13.162	959.937	736.493
130.424	13.173	959.069	735.808
131.439	13.161	958.668	735.382
132.454	13.265	957.401	734.811
133.468	13.376	956.282	734.375
134.483	13.447	955.898	734.333
135.497	13.330	955.620	733.535
136.512	13.240	955.109	732.680
137.527	13.333	954.139	732.283
138.541	13.372	953.124	731.613
139.556	13.253	952.622	730.634
140.570	13.353	951.843	730.414
141.585	13.487	951.046	730.328
142.600	13.480	950.210	729.593
143.614	13.378	949.723	728.703
144.629	13.451	948.966	728.380
145.643	13.336	948.397	727.375
146.658	13.450	947.203	726.894
147.673	13.415	946.115	725.842
148.687	13.422	945.009	724.960
149.702	13.314	944.479	724.014
150.716	13.388	943.524	723.544
151.731	13.404	942.763	722.965
152.746	13.231	942.175	721.696
153.760	13.248	941.215	720.969
154.775	13.306	940.877	720.901
155.789	13.328	939.977	720.242
156.804	13.508	938.693	719.978
157.819	13.434	938.557	719.488
158.833	13.429	937.386	718.506
159.848	13.311	937.437	717.967
160.862	13.465	936.284	717.689
161.877	13.616	935.214	717.461
162.892	13.308	934.846	715.781
163.906	13.227	934.476	715.086
164.921	13.297	933.501	714.577
165.935	13.353	931.902	713.532
166.950	13.338	931.115	712.801
167.964	13.437	930.224	712.484
168.979	13.447	928.950	711.486
169.994	13.443	928.271	710.885
171.008	13.438	927.772	710.418
172.023	13.388	926.833	709.424
173.037	13.451	926.185	709.135
174.052	13.568	925.113	708.751
175.067	13.595	924.368	708.234
176.081	13.564	924.040	707.788
177.096	13.505	923.154	706.796
178.110	13.517	922.233	706.076
179.125	13.560	921.498	705.635
180.140	13.547	920.810	704.991
181.154	13.639	919.949	704.660
182.169	13.725	918.881	704.145
183.183	13.688	918.665	703.761
184.198	13.615	917.897	702.798
185.213	13.715	917.153	702.593
186.227	13.608	917.111	702.045
187.242	13.687	916.828	702.100
188.256	13.786	915.460	701.407
189.271	13.673	915.119	700.610
190.286	13.745	914.191	700.140
191.300	13.681	913.378	699.183
192.315	13.636	912.484	698.251
193.329	13.414	912.238	697.065
194.344	13.514	911.803	697.092
195.359	13.627	910.984	696.878
196.373	13.633	910.461	696.440
197.388	13.641	910.246	696.250
198.402	13.739	909.615	696.115
199.417	13.829	909.090	696.030
200.432	13.896	908.308	695.651
201.446	13.855	907.703	694.955
202.461	13.949	907.468	695.107
203.475	14.046	906.791	694.933
204.490	13.971	906.075	694.009
205.504	14.108	905.281	693.912
206.519	13.902	905.027	692.796
207.534	13.951	903.998	692.148
208.548	13.864	903.843	691.606
209.563	13.968	902.621	691.044
210.577	14.041	901.570	690.483
211.592	14.127	901.113	690.428
212.607	14.096	900.725	689.941
213.621	14.026	900.314	689.276
214.636	14.039	899.532	688.669
215.650	14.044	898.700	687.992
216.665	14.103	898.017	687.654
217.680	14.059	898.021	687.411
218.694	14.172	897.589	687.486
219.709	14.151	896.996	686.885
220.723	14.307	896.246	686.892
221.738	14.152	895.247	685.431
222.753	14.194	894.409	684.898
223.767	14.111	893.990	684.175
224.782	14.152	893.453	683.875
225.796	14.284	892.516	683.638
226.811	14.418	891.600	683.424
227.826	14.378	891.079	682.802
228.840	14.189	890.504	681.526
229.855	14.266	889.573	681.067
230.869	14.454	888.707	681.115
231.884	14.326	888.284	680.209
232.899	14.261	887.949	679.623
233.913	14.329	886.835	678.990
234.928	14.233	886.280	678.114
235.942	14.309	885.869	678.048
236.957	14.214	884.917	676.872
237.972	14.283	884.357	676.665
238.986	14.262	883.606	675.944
240.001	14.447	882.635	675.893
241.015	14.330	882.283	675.090
242.030	14.292	881.740	674.460
243.045	14.283	881.065	673.847
244.059	14.358	880.379	673.566
245.074	14.385	879.780	673.159
246.088	14.517	879.083	673.100
247.103	14.492	878.496	672.487
248.117	14.542	877.933	672.198
249.132	14.557	876.852	671.371
250.147	14.576	876.815	671.363
251.161	14.639	876.120	671.022
252.176	14.739	875.273	670.716
253.190	14.721	874.914	670.309
254.205	14.708	874.237	669.682
255.220	14.807	873.736	669.635
256.234	14.779	872.743	668.701
257.249	14.778	872.414	668.388
258.263	14.816	872.159	668.283
259.278	14.844	871.429	667.777
260.293	14.822	870.880	667.211
261.307	14.867	870.237	666.838
262.322	14.860	869.750	666.378
263.336	14.869	869.648	666.276
264.351	14.958	868.512	665.701
265.366	15.000	867.901	665.340
266.380	15.112	867.074	665.093
267.395	15.077	866.487	664.446
268.409	14.822	866.016	663.013
269.424	15.005	864.997	662.899
270.439	15.014	864.350	662.379
271.453	15.045	863.728	661.965
272.468	14.922	862.944	660.821
273.482	14.975	862.389	660.548
274.497	15.074	861.935	660.530
275.512	14.994	861.237	659.622
276.526	15.082	860.490	659.341
277.541	15.040	859.614	658.444
278.555	15.038	859.362	658.184
279.570	15.036	858.870	657.741
280.585	15.124	858.267	657.569
281.599	15.292	857.469	657.557
282.614	15.362	856.746	657.220
283.628	15.117	856.474	655.992
284.643	15.181	855.953	655.786
285.657	15.238	855.398	655.527
286.672	15.249	854.992	655.200
287.687	15.169	854.677	654.589
288.701	15.297	854.097	654.585
289.716	15.264	853.277	653.770
290.730	15.191	852.771	653.040
291.745	15.200	852.212	652.588
292.760	15.390	851.249	652.535
293.774	15.361	851.086	652.236
294.789	15.450	850.445	652.036
295.803	15.252	850.054	650.910
296.818	15.379	849.171	650.668
297.833	15.352	848.113	649.694
298.847	15.451	847.479	649.536
299.862	15.358	847.076	648.810
300.876	15.522	846.391	648.859
301.891	15.482	845.572	648.021
302.906	15.430	845.104	647.406
303.920	15.446	844.824	647.193
304.935	15.570	843.809	646.838
305.949	15.674	843.169	646.691
306.964	15.659	842.606	646.141
307.979	15.727	841.578	645.557
308.993	15.619	841.251	644.836
310.008	15.774	840.810	645.036
311.022	15.702	840.347	644.347
312.037	15.696	840.172	644.131
313.052	15.602	839.821	643.448
314.066	15.744	838.723	643.089
315.081	15.711	838.223	642.525
316.095	15.664	837.593	641.806
317.110	15.572	837.093	641.013
318.125	15.548	836.758	640.609
319.139	15.706	836.073	640.630
320.154	15.701	835.545	640.152
321.168	15.623	834.957	639.345
322.183	15.684	834.230	638.964
323.197	15.649	834.296	638.827
324.212	15.667	833.570	638.282
325.227	15.716	832.870	637.877
326.241	15.761	832.557	637.749
327.256	15.808	831.870	637.344
328.270	15.802	830.976	636.582
329.285	15.713	830.607	635.907
330.300	15.729	830.165	635.571
331.314	15.754	829.650	635.216
332.329	15.881	828.633	634.860
333.343	15.762	828.333	634.126
334.358	16.005	827.278	634.175
335.373	15.906	827.108	633.615
336.387	15.991	826.542	633.447
337.402	15.955	826.072	632.896
338.416	15.834	825.664	632.073
339.431	16.009	824.816	632.023
340.446	16.118	824.446	632.092
341.460	16.066	823.841	631.379
342.475	16.104	823.163	630.945
343.489	16.155	822.600	630.649
344.504	16.235	822.023	630.448
345.519	16.232	821.689	630.125
346.533	16.241	821.281	629.792
347.548	16.263	820.973	629.581
348.562	16.179	820.171	628.599
349.577	16.239	819.788	628.473
350.592	16.152	819.289	627.710
351.606	15.999	819.078	626.922
352.621	16.228	818.478	627.259
353.635	16.147	817.968	626.511
354.650	16.103	817.611	626.022
355.665	16.196	817.173	625.973
356.679	16.224	816.801	625.737
357.694	16.199	816.241	625.161
358.708	16.220	815.661	624.740
359.723	16.261	814.882	624.239
360.738	16.184	814.483	623.595
361.752	16.303	813.734	623.404
362.767	16.326	813.662	623.379
363.781	16.314	813.269	622.977
364.796	16.255	812.650	622.231
365.810	16.284	812.565	622.218
366.825	16.466	812.048	622.437
367.840	16.452	811.541	621.941
368.854	16.472	811.259	621.746
369.869	16.502	810.639	621.324
370.883	16.484	809.930	620.661
371.898	16.494	809.552	620.352
372.913	16.521	809.080	620.035
373.927	16.647	808.492	619.990
374.942	16.705	807.407	619.317
375.956	16.654	807.422	619.086
376.971	16.680	806.663	618.546
377.986	16.550	806.050	617.545
379.000	16.759	805.327	617.699
380.015	16.786	804.904	617.417
381.029	16.807	804.458	617.097
382.044	16.912	803.767	616.896
383.059	16.727	803.748	616.152
384.073	16.681	803.087	615.424
385.088	16.891	802.111	615.383
386.102	16.811	801.971	614.933
387.117	16.765	801.378	614.256
388.132	16.741	800.911	613.758
389.146	16.761	800.534	613.486
390.161	16.648	800.350	612.882
391.175	16.764	800.040	613.010
392.190	16.705	799.996	612.709
393.205	16.924	799.033	612.710
394.219	16.845	798.572	612.017
395.234	16.909	797.701	611.523
396.248	17.050	797.050	611.479
397.263	16.875	796.976	610.739
398.278	16.827	796.346	610.029
399.292	16.702	796.260	609.459
400.307	16.777	795.847	609.359
401.321	16.763	795.068	608.657
402.336	16.909	794.937	609.029
403.350	16.861	794.819	608.712
404.365	17.024	794.058	608.658
405.380	16.977	793.687	608.153
406.394	17.009	793.362	607.964
407.409	17.039	792.720	607.528
408.423	17.159	792.020	607.366
409.438	17.011	791.638	606.490
410.453	17.180	790.976	606.532
411.467	17.288	790.862	606.776
412.482	17.240	790.366	606.170
413.496	17.304	789.764	605.883
414.511	17.266	789.582	605.554
415.526	17.334	789.380	605.590
416.540	17.194	788.939	604.700
417.555	17.384	788.421	604.922
418.569	17.468	787.933	604.793
419.584	17.281	787.847	604.011
420.599	17.241	787.107	603.250
421.613	83.216	1244.831	1308.955
422.628	70.382	1311.561	1309.097
