DTS Sentinel unit serial number:	SN413079Multiplexer serial number:	ORYXHardware model number:	OX4-SRSoftware version number:	ORYX F/W v4.00 Oryx Data Collector v3.7.2.0data status	okinstallation	princeton_trtdifferential loss correction	single-endedforward channel	channel 3reverse channel	N/Adate	2019/09/16time	20:48:34forward acquisition time	60.00reverse acquisition time	0.00gamma	496.2192k internal	0.2324k external	0.2324temperature offset calibration	0.9941default loss term (dB/km)	0.3790temperature slope calibration	1.0000multiplexer offset coefficient	1.0000multiplexer slope coefficient	1.0000fibre end	0.00T internal ref (°C)	32.28T ext. ref 1 (°C)	0.08T ext. ref 2 (°C)	25.85length (m)	temperature (°C)	Stokes	anti-Stokes-747.200	81.148	0.115	0.126
-746.185	-79.141	-0.383	-0.131
-745.171	800.000	-0.016	0.050
-744.156	-62.116	0.193	-0.081
-743.142	-200.000	0.019	0.126
-742.127	536.924	-0.151	0.362
-741.112	-137.046	0.227	-0.026
-740.098	167.902	0.110	-0.158
-739.083	186.524	0.128	0.193
-738.069	-200.000	0.007	-0.211
-737.054	-136.321	-0.309	0.036
-736.039	-39.066	-0.118	-0.063
-735.025	-200.000	-0.077	-0.423
-734.010	-146.180	-0.305	-0.027
-732.996	-200.000	0.055	-0.331
-731.981	94.938	-0.186	-0.213
-730.966	-200.000	0.017	-0.188
-729.952	-91.050	-0.190	-0.055
-728.937	-200.000	0.023	0.117
-727.923	-111.195	0.231	0.048
-726.908	323.281	-0.238	-0.459
-725.894	-58.152	0.106	0.046
-724.879	189.898	-0.060	0.091
-723.864	-132.938	-0.248	-0.032
-722.850	-200.000	-0.017	0.168
-721.835	512.486	-0.135	-0.316
-720.821	-172.731	-0.499	0.016
-719.806	-129.603	-0.055	0.008
-718.791	226.607	-0.104	-0.170
-717.777	800.000	0.142	-0.528
-716.762	424.002	0.104	-0.224
-715.748	-200.000	0.000	-0.161
-714.733	-200.000	-0.001	0.109
-713.718	-200.000	0.026	0.149
-712.704	-96.498	-0.279	-0.074
-711.689	-200.000	0.027	-0.129
-710.675	205.723	0.031	0.049
-709.660	800.000	-0.023	-0.077
-708.645	592.130	-0.128	0.319
-707.631	132.487	-0.113	0.146
-706.616	191.748	0.237	0.360
-705.602	800.000	0.040	0.140
-704.587	-20.323	-0.185	0.115
-703.572	-48.731	-0.041	-0.020
-702.558	751.508	0.069	-0.187
-701.543	-144.993	0.154	0.014
-700.529	-115.571	0.172	0.033
-699.514	-51.456	0.115	0.054
-698.499	-109.797	0.212	-0.045
-697.485	357.525	-0.141	-0.284
-696.470	-19.983	-0.070	0.044
-695.456	162.800	0.160	-0.226
-694.441	-200.000	0.044	-0.212
-693.426	-95.226	0.515	-0.140
-692.412	-200.000	0.024	-0.189
-691.397	-48.874	-0.240	0.116
-690.383	-200.000	-0.017	-0.310
-689.368	-41.093	0.049	-0.025
-688.354	397.640	-0.057	-0.121
-687.339	-100.936	-0.217	0.054
-686.324	-200.000	0.003	-0.043
-685.310	91.002	-0.100	-0.113
-684.295	598.399	-0.070	0.175
-683.281	128.204	0.242	0.310
-682.266	28.811	0.153	0.131
-681.251	800.000	-0.074	0.251
-680.237	-200.000	0.019	-0.377
-679.222	-200.000	-0.008	0.052
-678.208	-159.510	-0.244	0.014
-677.193	-92.187	-0.088	0.025
-676.178	216.603	0.110	0.177
-675.164	-200.000	0.045	0.228
-674.149	-43.485	0.182	0.092
-673.135	-129.528	0.144	0.020
-672.120	800.000	0.064	-0.187
-671.105	-150.887	0.219	-0.017
-670.091	17.859	-0.117	0.094
-669.076	170.873	-0.084	0.121
-668.062	110.775	0.022	-0.026
-667.047	-200.000	-0.027	-0.270
-666.032	527.175	-0.182	-0.431
-665.018	-128.885	-0.492	0.070
-664.003	70.391	0.056	0.058
-662.989	-58.934	-0.261	-0.114
-661.974	-200.000	-0.011	0.231
-660.959	-50.299	0.115	-0.055
-659.945	221.295	-0.081	-0.131
-658.930	-63.255	0.233	-0.097
-657.916	-200.000	-0.091	0.577
-656.901	-115.230	-0.403	-0.077
-655.886	-200.000	0.018	0.235
-654.872	-0.044	-0.063	-0.045
-653.857	-187.650	0.137	0.002
-652.843	-200.000	-0.017	-0.322
-651.828	800.000	0.035	-0.148
-650.814	386.105	-0.144	-0.298
-649.799	-98.302	0.138	-0.036
-648.784	-200.000	0.007	-0.054
-647.770	-200.000	0.012	-0.106
-646.755	450.136	-0.154	-0.341
-645.741	-102.601	0.301	-0.072
-644.726	14.637	-0.029	0.023
-643.711	-200.000	-0.016	-0.200
-642.697	98.810	0.120	0.139
-641.682	-21.844	-0.339	0.207
-640.668	328.377	0.055	0.105
-639.653	800.000	0.084	0.304
-638.638	-181.798	-0.249	0.005
-637.624	-200.000	0.050	-0.291
-636.609	-16.636	-0.093	0.059
-635.595	-139.643	0.251	0.027
-634.580	-82.015	0.037	0.012
-633.565	-87.754	0.054	-0.016
-632.551	366.854	-0.029	-0.060
-631.536	-120.862	0.217	-0.037
-630.522	800.000	0.050	-0.153
-629.507	-200.000	0.045	-0.323
-628.492	42.414	-0.106	-0.096
-627.478	-107.558	0.258	-0.057
-626.463	-27.266	-0.096	-0.056
-625.449	-22.095	-0.110	0.067
-624.434	-149.538	0.283	0.022
-623.419	75.559	-0.179	0.190
-622.405	285.822	-0.025	-0.045
-621.390	-200.000	0.001	0.040
-620.376	-41.372	-0.069	-0.036
-619.361	-200.000	0.002	-0.356
-618.346	-37.116	-0.310	0.167
-617.332	-125.616	0.319	-0.049
-616.317	412.792	-0.025	0.053
-615.303	-64.009	0.163	-0.067
-614.288	-176.430	0.328	-0.009
-613.273	-34.075	-0.213	0.117
-612.259	-200.000	-0.032	-0.144
-611.244	-142.106	-0.223	-0.022
-610.230	-73.932	-0.232	0.085
-609.215	78.856	-0.111	-0.119
-608.201	32.606	-0.152	0.132
-607.186	20.779	-0.137	0.111
-606.171	-112.727	-0.185	0.037
-605.157	247.268	0.122	-0.207
-604.142	-100.900	-0.505	-0.125
-603.128	-200.000	-0.019	0.205
-602.113	-48.734	0.406	-0.196
-601.098	-61.820	0.210	-0.088
-600.084	-69.359	-0.298	0.115
-599.069	800.000	0.060	0.241
-598.055	-84.370	-0.100	-0.032
-597.040	-121.488	0.190	-0.032
-596.025	195.648	0.181	0.276
-595.011	374.192	0.188	-0.384
-593.996	21.538	0.282	-0.230
-592.982	-200.000	0.027	-0.232
-591.967	241.911	-0.162	0.272
-590.952	-117.443	0.188	-0.034
-589.938	-51.644	-0.187	-0.087
-588.923	102.614	-0.065	0.077
-587.909	-200.000	0.011	0.168
-586.894	245.148	-0.079	0.134
-585.879	-90.426	-0.232	0.068
-584.865	13.688	-0.105	0.081
-583.850	62.956	0.308	-0.309
-582.836	84.245	-0.089	-0.098
-581.821	-200.000	-0.002	0.017
-580.806	-200.000	-0.005	-0.029
-579.792	-120.808	-0.243	-0.041
-578.777	-104.677	0.116	-0.027
-577.763	-130.513	-0.032	0.004
-576.748	385.159	0.070	0.145
-575.733	-49.227	0.226	-0.108
-574.719	-60.075	0.226	0.097
-573.704	-69.632	0.083	-0.032
-572.690	-144.582	-0.256	-0.024
-571.675	-1.271	-0.111	0.079
-570.661	22.596	0.116	-0.095
-569.646	-200.000	-0.023	-0.353
-568.631	-93.404	-0.118	0.033
-567.617	800.000	-0.094	0.340
-566.602	95.523	0.056	0.064
-565.588	-161.657	0.152	-0.008
-564.573	-200.000	0.025	0.203
-563.558	19.256	0.399	-0.321
-562.544	168.270	0.120	0.171
-561.529	800.000	-0.068	-0.213
-560.515	-156.048	0.295	0.019
-559.500	-43.279	-0.071	0.036
-558.485	219.954	-0.112	0.180
-557.471	-39.925	-0.225	0.118
-556.456	93.654	-0.121	0.138
-555.442	-102.117	-0.041	-0.010
-554.427	33.266	-0.270	0.234
-553.412	-104.689	-0.259	0.060
-552.398	-49.126	0.162	0.078
-551.383	800.000	0.040	-0.117
-550.369	-149.944	0.368	0.029
-549.354	800.000	0.029	0.125
-548.339	461.429	0.151	0.338
-547.325	455.606	-0.036	0.079
-546.310	332.565	-0.190	-0.368
-545.296	292.998	0.177	-0.323
-544.281	138.185	0.128	0.168
-543.266	-44.682	-0.185	-0.093
-542.252	800.000	-0.070	-0.222
-541.237	94.183	-0.107	-0.122
-540.223	-200.000	-0.003	0.278
-539.208	60.745	-0.274	0.272
-538.193	36.484	-0.243	0.214
-537.179	-108.352	-0.120	0.026
-536.164	-58.819	0.561	0.243
-535.150	-117.616	-0.300	-0.054
-534.135	53.146	-0.189	0.181
-533.121	690.914	-0.020	-0.053
-532.106	800.000	-0.004	0.015
-531.091	-56.890	-0.106	-0.047
-530.077	-200.000	0.027	0.312
-529.062	-31.641	0.058	0.033
-528.048	-86.105	0.094	0.029
-527.033	308.557	-0.100	0.187
-526.018	230.085	0.065	-0.106
-525.004	-200.000	-0.004	0.064
-523.989	-16.166	0.053	-0.034
-522.975	275.241	0.080	0.142
-521.960	-50.834	0.080	-0.037
-520.945	184.434	-0.163	-0.242
-519.931	-139.531	0.577	-0.062
-518.916	800.000	0.046	-0.128
-517.902	-106.702	-0.160	-0.036
-516.887	-96.103	0.097	-0.026
-515.872	-200.000	0.060	-0.428
-514.858	-67.107	0.283	0.112
-513.843	800.000	0.048	0.165
-512.829	-200.000	0.004	-0.146
-511.814	3.943	-0.255	-0.187
-510.799	199.371	0.179	0.275
-509.785	-78.877	-0.260	0.089
-508.770	800.000	0.093	-0.378
-507.756	800.000	0.002	-0.009
-506.741	-131.080	0.212	-0.028
-505.726	555.125	-0.089	0.214
-504.712	-65.241	0.075	0.030
-503.697	412.332	0.067	-0.143
-502.683	-21.770	0.215	-0.131
-501.668	457.483	0.038	-0.084
-500.653	800.000	0.042	-0.117
-499.639	42.268	0.066	0.060
-498.624	-89.776	0.099	-0.029
-497.610	-51.040	-0.248	-0.116
-496.595	-200.000	0.048	0.272
-495.581	-101.508	-0.395	0.096
-494.566	-200.000	-0.015	-0.381
-493.551	-60.914	-0.082	0.035
-492.537	-119.004	0.188	-0.033
-491.522	-103.049	-0.350	-0.083
-490.508	46.091	-0.240	0.222
-489.493	-13.169	-0.363	-0.236
-488.478	249.220	-0.075	-0.127
-487.464	-133.790	0.112	-0.014
-486.449	-80.277	-0.187	0.063
-485.435	98.323	0.081	-0.093
-484.420	800.000	-0.083	0.317
-483.405	208.284	-0.236	-0.368
-482.391	407.161	-0.065	0.136
-481.376	-79.472	-0.150	-0.051
-480.362	750.803	-0.132	-0.355
-479.347	177.733	-0.197	0.287
-478.332	54.740	0.071	-0.068
-477.318	500.008	-0.067	-0.154
-476.303	800.000	0.043	-0.125
-475.289	92.559	-0.269	0.304
-474.274	312.834	0.056	0.105
-473.259	30.440	0.254	-0.216
-472.245	-64.124	0.247	0.101
-471.230	-105.577	0.342	0.077
-470.216	-200.000	-0.026	-0.457
-469.201	44.944	0.032	-0.029
-468.186	-177.964	0.502	-0.012
-467.172	225.210	0.066	0.106
-466.157	-5.414	0.171	0.117
-465.143	-200.000	0.014	-0.288
-464.128	-112.471	0.145	0.029
-463.113	477.150	0.113	0.256
-462.099	800.000	0.042	0.174
-461.084	475.290	0.035	-0.080
-460.070	426.502	0.168	0.362
-459.055	481.110	-0.143	0.323
-458.040	-102.315	-0.338	0.081
-457.026	5.614	0.357	-0.263
-456.011	-6.042	0.081	-0.056
-454.997	-95.318	0.042	0.011
-453.982	39.452	-0.264	-0.236
-452.968	-28.447	-0.044	-0.025
-451.953	-200.000	0.026	-0.402
-450.938	532.592	-0.031	-0.074
-449.924	-46.466	0.456	-0.224
-448.909	291.413	0.045	-0.082
-447.895	360.655	-0.137	0.274
-446.880	-23.765	0.169	0.101
-445.865	-180.333	-0.339	-0.007
-444.851	214.924	-0.213	0.337
-443.836	-130.227	-0.233	0.032
-442.822	-200.000	0.041	0.250
-441.807	-137.742	0.104	-0.012
-440.792	-84.623	0.276	-0.087
-439.778	-200.000	0.083	-0.562
-438.763	654.743	-0.022	-0.057
-437.749	-55.550	-0.214	0.095
-436.734	285.429	0.055	0.099
-435.719	-82.276	0.078	0.025
-434.705	31.435	-0.094	0.080
-433.690	177.831	-0.094	0.136
-432.676	418.637	-0.041	-0.088
-431.661	800.000	0.017	-0.068
-430.646	-200.000	0.055	0.245
-429.632	-108.943	0.097	-0.021
-428.617	-158.604	-0.068	0.004
-427.603	-117.364	0.091	0.016
-426.588	212.031	0.046	0.073
-425.573	-124.941	-0.289	0.044
-424.559	278.103	-0.175	-0.311
-423.544	-200.000	0.002	-0.074
-422.530	140.751	0.186	0.245
-421.515	49.673	-0.108	-0.101
-420.500	800.000	-0.093	-0.384
-419.486	249.696	-0.147	-0.248
-418.471	-51.828	0.053	0.024
-417.457	-24.063	0.284	0.169
-416.442	-149.898	-0.142	-0.011
-415.428	652.951	0.090	-0.231
-414.413	-108.695	-0.141	-0.030
-413.398	800.000	0.078	0.273
-412.384	-200.000	-0.009	-0.332
-411.369	-200.000	0.018	-0.153
-410.355	-186.733	0.257	0.004
-409.340	276.284	0.177	0.313
-408.325	-138.690	-0.270	0.029
-407.311	800.000	0.070	0.287
-406.296	-56.808	0.137	0.061
-405.282	-200.000	-0.011	0.252
-404.267	800.000	0.101	-0.361
-403.252	469.743	0.020	-0.044
-402.238	-200.000	0.021	-0.205
-401.223	538.725	-0.050	0.118
-400.209	151.070	-0.100	0.136
-399.194	-44.046	-0.230	0.115
-398.179	-132.073	0.211	0.027
-397.165	-96.500	-0.170	-0.045
-396.150	328.735	-0.079	-0.150
-395.136	-63.659	0.159	-0.065
-394.121	-128.539	0.206	-0.029
-393.106	-63.247	-0.127	-0.052
-392.092	43.849	0.194	-0.177
-391.077	-109.684	-0.090	-0.019
-390.063	-200.000	0.019	-0.211
-389.048	68.604	-0.088	-0.090
-388.033	-200.000	-0.005	0.220
-387.019	24.138	0.086	0.071
-386.004	-101.801	0.083	-0.020
-384.990	-79.810	-0.209	-0.070
-383.975	108.271	-0.074	-0.088
-382.960	-124.571	-0.383	0.059
-381.946	-116.649	0.118	-0.022
-380.931	14.119	0.357	-0.277
-379.917	116.027	-0.191	0.233
-378.902	122.046	0.230	-0.286
-377.888	71.690	-0.037	0.038
-376.873	495.081	-0.115	0.263
-375.858	341.485	-0.175	0.341
-374.844	-200.000	0.031	0.241
-373.829	-104.661	-0.481	0.110
-372.815	800.000	-0.105	0.318
-371.800	132.778	-0.193	0.248
-370.785	88.024	-0.144	-0.159
-369.771	-200.000	-0.011	-0.194
-368.756	162.037	-0.184	-0.257
-367.742	800.000	0.027	0.114
-366.727	-107.102	0.383	0.084
-365.712	121.943	-0.061	-0.075
-364.698	-70.357	-0.157	-0.059
-363.683	539.185	-0.090	0.213
-362.669	57.569	-0.177	0.172
-361.654	-149.423	0.115	0.009
-360.639	-14.082	-0.132	0.085
-359.625	800.000	-0.083	-0.228
-358.610	-200.000	0.022	0.183
-357.596	409.293	-0.044	0.093
-356.581	235.643	0.172	0.283
-355.566	-4.498	0.248	0.170
-354.552	45.726	0.169	0.155
-353.537	800.000	0.074	-0.205
-352.523	-28.663	0.256	0.147
-351.508	800.000	0.024	-0.104
-350.493	-179.619	0.244	-0.005
-349.479	800.000	0.031	0.093
-348.464	-200.000	-0.039	-0.202
-347.450	800.000	-0.140	0.396
-346.435	88.873	-0.107	-0.119
-345.420	-76.539	-0.189	0.066
-344.406	800.000	0.065	-0.201
-343.391	29.670	-0.171	-0.145
-342.377	26.562	0.293	0.244
-341.362	-200.000	-0.035	-0.342
-340.348	-119.699	-0.068	0.012
-339.333	-31.216	-0.381	-0.213
-338.318	81.422	-0.157	0.169
-337.304	-64.140	0.223	-0.090
-336.289	-1.874	0.208	0.145
-335.275	-93.996	-0.041	-0.011
-334.260	-151.844	0.178	-0.013
-333.245	-54.309	0.102	0.046
-332.231	195.109	-0.151	0.227
-331.216	-92.720	-0.103	0.029
-330.202	-67.507	0.267	-0.104
-329.187	800.000	0.056	-0.205
-328.172	187.200	0.205	0.304
-327.158	-200.000	0.034	0.295
-326.143	14.993	0.175	0.136
-325.129	444.539	0.151	-0.329
-324.114	-76.270	0.147	0.051
-323.099	12.400	0.104	0.079
-322.085	-185.057	-0.109	0.002
-321.070	19.175	0.197	-0.157
-320.056	142.401	-0.094	-0.124
-319.041	499.241	0.064	0.147
-318.026	89.928	-0.242	-0.268
-317.012	800.000	-0.064	-0.209
-315.997	38.033	-0.152	-0.135
-314.983	-200.000	-0.082	-0.409
-313.968	6.786	-0.195	-0.144
-312.953	-66.227	-0.316	0.125
-311.939	411.872	0.074	-0.156
-310.924	-55.728	-0.148	-0.066
-309.910	698.659	0.041	0.108
-308.895	-170.850	-0.128	0.004
-307.880	-142.279	-0.131	0.013
-306.866	-21.073	0.251	0.152
-305.851	4.500	0.501	0.364
-304.837	800.000	-0.076	-0.230
-303.822	290.801	0.168	-0.304
-302.807	-130.284	-0.316	0.043
-301.793	-66.602	-0.175	0.069
-300.778	37.017	0.064	0.056
-299.764	-31.191	-0.244	-0.136
-298.749	305.177	0.096	-0.177
-297.735	-147.932	0.067	-0.006
-296.720	-124.563	-0.374	-0.058
-295.705	-112.801	-0.168	0.033
-294.691	177.490	0.036	0.052
-293.676	-200.000	-0.069	0.336
-292.662	-156.000	0.108	-0.007
-291.647	48.490	0.112	0.104
-290.632	-44.204	-0.184	-0.091
-289.618	29.363	0.079	-0.067
-288.603	800.000	-0.054	-0.199
-287.589	223.135	0.035	0.056
-286.574	-144.042	0.363	-0.034
-285.559	72.848	-0.048	0.050
-284.545	-11.718	0.184	0.120
-283.530	-67.659	0.071	-0.028
-282.516	7.212	0.126	0.093
-281.501	-6.143	-0.128	0.086
-280.486	178.263	0.262	0.379
-279.472	315.542	-0.034	0.063
-278.457	-63.899	-0.098	-0.040
-277.443	-27.941	0.272	0.156
-276.428	-200.000	-0.007	0.195
-275.413	-59.502	-0.117	0.050
-274.399	-108.051	0.268	-0.058
-273.384	-53.380	0.147	0.067
-272.370	800.000	0.022	-0.083
-271.355	182.281	-0.132	0.192
-270.340	-44.486	-0.059	-0.029
-269.326	-180.806	0.100	-0.002
-268.311	392.346	-0.079	-0.164
-267.297	-72.375	-0.209	-0.077
-266.282	-200.000	0.050	-0.561
-265.267	505.207	-0.053	-0.121
-264.253	-84.778	-0.038	-0.012
-263.238	-110.382	-0.198	-0.041
-262.224	800.000	-0.063	-0.177
-261.209	54.114	0.086	-0.082
-260.195	-76.740	-0.135	-0.047
-259.180	-114.069	-0.288	0.055
-258.165	367.395	-0.054	-0.108
-257.151	171.691	0.210	-0.298
-256.136	17.598	0.224	0.176
-255.122	-73.746	0.030	0.011
-254.107	275.760	-0.111	0.196
-253.092	800.000	-0.111	0.370
-252.078	89.268	-0.130	0.143
-251.063	-99.106	0.242	-0.061
-250.049	188.515	-0.097	0.144
-249.034	-200.000	0.031	-0.148
-248.019	-181.155	0.239	-0.005
-247.005	-200.000	-0.003	0.403
-245.990	128.081	-0.070	-0.088
-244.976	-200.000	-0.015	-0.181
-243.961	72.715	-0.172	0.178
-242.946	-72.044	0.093	-0.034
-241.932	41.163	0.304	0.272
-240.917	-39.833	0.328	-0.170
-239.903	-27.183	0.218	-0.126
-238.888	274.009	0.063	-0.111
-237.873	-200.000	-0.045	-0.229
-236.859	-200.000	-0.009	-0.194
-235.844	249.711	-0.111	0.187
-234.830	-200.000	-0.041	0.209
-233.815	-149.138	0.507	0.040
-232.800	-11.364	-0.378	-0.246
-231.786	800.000	-0.007	-0.028
-230.771	-200.000	-0.057	0.399
-229.757	198.412	0.117	0.178
-228.742	-37.145	0.085	0.045
-227.727	777.315	0.080	0.216
-226.713	-16.448	0.271	-0.170
-225.698	68.122	-0.147	0.148
-224.684	-2.908	-0.276	0.190
-223.669	-59.435	0.026	-0.011
-222.655	-128.437	-0.153	0.022
-221.640	-5.934	-0.075	0.051
-220.625	51.143	0.303	-0.284
-219.611	-18.518	0.200	-0.123
-218.596	187.461	0.145	0.214
-217.582	107.455	-0.100	-0.118
-216.567	-200.000	-0.021	0.115
-215.552	-84.357	-0.447	-0.140
-214.538	216.777	-0.216	0.340
-213.523	-68.400	-0.120	-0.046
-212.509	-101.084	0.268	0.065
-211.494	206.030	-0.072	0.111
-210.479	215.131	-0.087	-0.136
-209.465	233.279	0.106	0.173
-208.450	-91.474	-0.169	-0.048
-207.436	-200.000	-0.068	-0.301
-206.421	800.000	-0.023	0.065
-205.406	-137.169	-0.351	0.039
-204.392	353.814	0.184	0.361
-203.377	520.670	0.063	0.145
-202.363	800.000	-0.051	-0.172
-201.348	-200.000	-0.006	-0.148
-200.333	232.690	0.047	-0.076
-199.319	200.494	-0.186	-0.283
-198.304	198.372	-0.170	-0.257
-197.290	424.535	-0.111	-0.235
-196.275	46.323	-0.168	-0.154
-195.260	800.000	0.013	0.057
-194.246	-97.938	0.367	0.094
-193.231	-200.000	0.018	-0.134
-192.217	-67.941	-0.283	-0.109
-191.202	72.479	-0.143	-0.147
-190.187	-53.770	0.301	-0.136
-189.173	-75.052	-0.086	0.030
-188.158	-200.000	-0.000	-0.188
-187.144	749.384	0.079	-0.210
-186.129	57.171	0.108	0.104
-185.114	67.648	-0.340	0.343
-184.100	-200.000	-0.070	0.345
-183.085	338.498	-0.114	0.218
-182.071	-132.155	0.293	-0.038
-181.056	12.719	-0.315	0.240
-180.042	235.326	0.093	-0.151
-179.027	46.517	0.127	0.116
-178.012	-95.706	0.229	-0.060
-176.998	-48.659	0.340	-0.161
-175.983	-26.804	-0.075	-0.043
-174.969	262.222	-0.187	-0.321
-173.954	176.426	0.151	-0.217
-172.939	-200.000	-0.068	-0.347
-171.925	71.352	0.071	-0.073
-170.910	-200.000	0.020	0.182
-169.896	-78.341	-0.470	0.159
-168.881	-105.096	0.214	0.048
-167.866	-83.603	-0.498	0.157
-166.852	-200.000	0.049	0.262
-165.837	800.000	0.042	-0.146
-164.823	800.000	-0.116	0.479
-163.808	-76.337	0.281	0.098
-162.793	683.024	0.093	0.240
-161.779	-94.023	-0.204	0.055
-160.764	256.106	-0.031	0.053
-159.750	-180.378	0.040	-0.001
-158.735	-200.000	0.008	0.231
-157.720	800.000	-0.061	0.189
-156.706	-81.715	0.345	-0.111
-155.691	800.000	0.058	-0.243
-154.677	77.589	-0.108	0.113
-153.662	-54.338	0.230	-0.103
-152.647	1.849	-0.078	-0.056
-151.633	-76.391	0.051	0.018
-150.618	15.814	0.138	-0.107
-149.604	368.234	-0.036	0.073
-148.589	-200.000	-0.008	-0.170
-147.574	-113.523	0.140	-0.027
-146.560	-107.769	0.244	-0.052
-145.545	-17.827	-0.239	-0.148
-144.531	312.103	0.145	0.268
-143.516	41.266	-0.106	-0.094
-142.502	-135.658	0.246	-0.029
-141.487	-193.611	-0.169	-0.001
-140.472	547.480	0.079	0.187
-139.458	11.307	0.213	-0.160
-138.443	36.667	0.219	-0.191
-137.429	43.896	-0.131	0.118
-136.414	-47.508	-0.184	0.088
-135.399	-200.000	0.005	0.088
-134.385	-56.527	0.160	-0.070
-133.370	332.586	0.044	-0.083
-132.356	-147.577	-0.164	-0.014
-131.341	-200.000	0.045	0.380
-130.326	368.418	-0.137	-0.272
-129.312	-162.356	-0.301	0.015
-128.297	320.489	0.209	0.391
-127.283	63.138	0.041	0.041
-126.268	-138.818	-0.276	-0.030
-125.253	-30.112	0.287	0.161
-124.239	130.017	0.059	-0.075
-123.224	-59.226	0.122	0.052
-122.210	-200.000	0.013	0.071
-121.195	114.502	0.218	0.261
-120.180	800.000	0.012	-0.037
-119.166	-200.000	-0.035	0.204
-118.151	-112.382	-0.115	0.023
-117.137	112.840	0.087	0.104
-116.122	-200.000	-0.039	0.338
-115.107	-200.000	-0.003	0.057
-114.093	16.170	-0.109	0.084
-113.078	100.913	0.103	0.118
-112.064	73.912	0.039	-0.040
-111.049	212.963	0.104	0.162
-110.034	800.000	-0.059	0.176
-109.020	14.406	-0.225	-0.173
-108.005	-29.379	-0.245	0.138
-106.991	-104.112	0.139	0.032
-105.976	14.816	0.280	0.215
-104.962	800.000	0.069	0.223
-103.947	-200.000	-0.064	-0.319
-102.932	-94.227	-0.191	0.051
-101.918	800.000	-0.033	0.108
-100.903	133.751	-0.059	-0.076
-99.889	303.947	0.087	0.159
-98.874	603.452	0.036	-0.087
-97.859	-125.344	0.213	-0.032
-96.845	15.756	0.309	0.240
-95.830	389.572	-0.232	0.472
-94.816	70.151	0.052	-0.053
-93.801	-200.000	-0.021	0.136
-92.786	41.598	-0.355	-0.316
-91.772	19.962	0.170	-0.134
-90.757	69.610	0.050	-0.051
-89.743	-2.871	0.111	0.076
-88.728	-200.000	-0.041	0.296
-87.713	-50.215	0.326	-0.152
-86.699	-117.149	-0.256	-0.046
-85.684	-150.395	0.177	0.013
-84.670	370.410	-0.056	-0.112
-83.655	-179.600	-0.251	0.005
-82.640	48.843	-0.126	-0.116
-81.626	-141.190	0.083	0.008
-80.611	800.000	-0.025	0.084
-79.597	-4.865	-0.146	0.099
-78.582	-69.472	0.344	-0.130
-77.567	-200.000	0.005	0.070
-76.553	-16.390	-0.057	0.036
-75.538	800.000	-0.030	0.087
-74.524	103.438	0.171	0.198
-73.509	279.349	0.069	-0.121
-72.494	642.996	0.072	-0.181
-71.480	-2.776	-0.194	-0.133
-70.465	-158.527	-0.153	-0.009
-69.451	89.699	0.298	-0.327
-68.436	239.805	0.115	0.188
-67.422	244.271	0.157	-0.260
-66.407	-49.297	-0.270	-0.127
-65.392	234.034	0.184	0.299
-64.378	19.223	0.116	-0.091
-63.363	178.640	0.112	-0.161
-62.349	340.018	-0.072	-0.139
-61.334	22.844	-1.385	-1.115
-60.319	-86.265	0.736	0.223
-59.305	-200.000	-0.092	-0.951
-58.290	79.158	0.866	0.912
-57.276	287.827	0.835	1.484
-56.261	-200.000	94.850	584.124
-55.246	568.215	1363.845	3255.513
-54.232	165.091	2527.888	3507.376
-53.217	113.901	2154.050	2572.915
-52.203	43.024	1700.745	1523.967
-51.188	35.492	1512.329	1304.164
-50.173	33.028	1485.362	1264.396
-49.159	52.582	1533.616	1438.809
-48.144	54.313	1551.846	1467.620
-47.130	35.747	1511.416	1304.901
-46.115	32.454	1497.578	1270.714
-45.100	32.305	1494.243	1266.829
-44.086	32.302	1492.424	1265.222
-43.071	32.298	1490.160	1263.219
-42.057	32.228	1488.489	1261.286
-41.042	32.278	1487.068	1260.365
-40.027	32.238	1485.803	1258.977
-39.013	32.296	1484.089	1257.860
-37.998	32.325	1482.605	1256.749
-36.984	32.290	1481.549	1255.569
-35.969	32.244	1480.311	1254.165
-34.954	32.259	1478.893	1253.012
-33.940	32.293	1477.508	1252.019
-32.925	32.318	1476.006	1250.860
-31.911	32.274	1474.609	1249.332
-30.896	32.399	1473.406	1249.098
-29.881	32.366	1472.355	1247.937
-28.867	32.308	1470.722	1246.120
-27.852	32.322	1469.312	1244.963
-26.838	32.333	1467.976	1243.855
-25.823	32.407	1466.066	1242.677
-24.809	32.303	1464.757	1240.834
-23.794	32.201	1463.430	1238.987
-22.779	32.331	1462.210	1238.763
-21.765	32.366	1461.125	1238.027
-20.750	32.295	1460.115	1236.652
-19.736	32.283	1458.584	1235.229
-18.721	32.250	1457.892	1234.375
-17.706	32.277	1456.528	1233.349
-16.692	32.234	1455.743	1232.355
-15.677	32.293	1454.256	1231.430
-14.663	32.310	1453.002	1230.430
-13.648	32.191	1452.754	1229.396
-12.633	32.153	1451.824	1228.309
-11.619	32.235	1450.903	1228.019
-10.604	32.216	1450.195	1227.245
-9.590	32.281	1449.128	1226.721
-8.575	32.301	1448.327	1226.125
-7.560	32.248	1447.722	1225.215
-6.546	32.329	1446.552	1224.707
-5.531	32.266	1445.563	1223.407
-4.517	32.178	1444.829	1222.168
-3.502	32.223	1443.788	1221.530
-2.487	32.206	1443.025	1220.728
-1.473	32.364	1441.180	1220.139
-0.458	32.210	1440.328	1218.375
0.556	30.174	1430.755	1206.066
1.571	27.058	1404.922	1164.244
2.586	23.260	1344.396	1090.646
3.600	21.357	1263.321	1013.754
4.615	20.033	1217.622	969.590
5.629	17.178	1161.681	909.699
6.644	8.708	1076.720	800.882
7.659	1.389	1034.968	734.466
8.673	0.295	1029.185	725.033
9.688	0.071	1026.006	721.655
10.702	0.002	1024.775	720.394
11.717	-0.067	1022.945	718.715
12.731	2.721	1025.520	733.816
13.746	11.220	1036.532	782.589
14.761	17.311	1044.379	817.826
15.775	17.417	1043.568	817.630
16.790	16.542	1040.965	811.324
17.804	15.531	1038.668	804.620
18.819	14.554	1037.326	798.832
19.834	14.161	1035.809	795.712
20.848	13.849	1035.085	793.594
21.863	13.597	1033.876	791.395
22.877	13.396	1033.005	789.701
23.892	13.134	1032.305	787.846
24.907	13.060	1031.709	786.967
25.921	13.078	1030.755	786.254
26.936	13.162	1029.995	786.005
27.950	13.230	1029.259	785.700
28.965	13.164	1028.899	785.039
29.980	13.212	1027.938	784.463
30.994	13.208	1027.104	783.742
32.009	13.402	1026.208	783.904
33.023	13.512	1025.350	783.703
34.038	13.444	1024.973	783.022
35.053	13.363	1023.913	781.760
36.067	13.292	1022.917	780.596
37.082	13.375	1022.013	780.227
38.096	13.240	1021.584	779.195
39.111	13.326	1021.102	779.163
40.126	13.362	1020.059	778.469
41.140	13.321	1018.662	777.141
42.155	13.272	1017.489	775.947
43.169	13.141	1016.941	774.845
44.184	13.078	1015.944	773.723
45.199	13.012	1014.999	772.626
46.213	13.170	1013.772	772.363
47.228	13.051	1012.666	770.895
48.242	13.212	1011.721	770.858
49.257	13.229	1010.962	770.293
50.271	13.236	1009.905	769.451
51.286	13.290	1009.400	769.248
52.301	13.197	1008.337	767.940
53.315	13.221	1007.807	767.581
54.330	13.106	1006.948	766.323
55.344	13.169	1006.284	766.042
56.359	13.099	1005.254	764.869
57.374	13.169	1004.374	764.452
58.388	13.079	1003.645	763.412
59.403	12.998	1002.931	762.428
60.417	13.134	1001.912	762.216
61.432	13.064	1001.436	761.462
62.447	12.950	1001.327	760.785
63.461	13.006	999.770	759.796
64.476	12.994	999.112	759.172
65.490	13.002	997.984	758.287
66.505	12.934	997.444	757.497
67.520	13.057	996.437	757.229
68.534	13.032	995.913	756.646
69.549	13.095	994.945	756.133
70.563	13.140	994.570	755.985
71.578	13.134	993.582	755.141
72.593	13.044	992.765	754.044
73.607	12.944	992.070	752.994
74.622	12.937	991.155	752.201
75.636	12.919	990.021	751.191
76.651	12.950	989.156	750.607
77.666	12.898	988.665	749.935
78.680	12.962	988.309	749.887
79.695	12.997	987.575	749.423
80.709	13.013	986.800	748.841
81.724	12.954	986.518	748.292
82.739	13.049	985.247	747.694
83.753	13.216	984.617	747.904
84.768	13.235	983.601	747.151
85.782	13.368	982.778	747.062
86.797	13.291	982.203	746.211
87.812	13.302	981.016	745.292
88.826	13.265	980.744	744.856
89.841	13.291	979.520	743.976
90.855	13.215	979.137	743.275
91.870	13.275	978.170	742.746
92.884	13.254	977.434	742.029
93.899	13.356	976.798	741.937
94.914	13.310	975.931	741.009
95.928	13.315	975.328	740.507
96.943	13.404	974.634	740.311
97.957	13.417	973.739	739.626
98.972	13.320	972.927	738.508
99.987	13.246	972.591	737.859
101.001	13.444	971.264	737.669
102.016	13.340	970.869	736.839
103.030	13.441	969.864	736.462
104.045	13.378	968.941	735.416
105.060	13.332	968.210	734.593
106.074	13.300	966.833	733.342
107.089	13.138	966.605	732.385
108.103	13.067	965.896	731.467
109.118	13.096	964.490	730.465
110.133	13.029	964.102	729.811
111.147	13.214	962.919	729.667
112.162	13.209	962.263	729.083
113.176	13.149	961.354	728.067
114.191	13.109	960.694	727.325
115.206	13.185	959.693	726.838
116.220	13.260	958.550	726.240
117.235	13.165	958.156	725.460
118.249	13.006	957.372	724.105
119.264	13.150	956.807	724.242
120.279	13.160	955.624	723.328
121.293	13.196	954.806	722.803
122.308	13.193	954.454	722.459
123.322	13.134	953.781	721.628
124.337	13.180	952.238	720.596
125.352	13.282	951.059	720.083
126.366	13.117	949.788	718.339
127.381	13.077	949.371	717.788
128.395	12.976	948.611	716.711
129.410	13.097	947.404	716.260
130.424	13.070	946.566	715.445
131.439	13.077	945.976	714.967
132.454	13.242	945.014	714.890
133.468	13.273	944.290	714.413
134.483	13.229	943.858	713.835
135.497	13.399	942.798	713.703
136.512	13.251	942.284	712.613
137.527	13.387	941.044	712.199
138.541	13.266	940.560	711.249
139.556	13.174	940.217	710.529
140.570	13.286	939.398	710.328
141.585	13.312	938.557	709.743
142.600	13.349	937.980	709.400
143.614	13.399	936.898	708.735
144.629	13.487	935.825	708.236
145.643	13.454	935.622	707.877
146.658	13.427	934.672	706.983
147.673	13.303	934.092	705.953
148.687	13.373	933.084	705.425
149.702	13.235	932.161	704.078
150.716	13.371	931.829	704.345
151.731	13.308	930.895	703.306
152.746	13.370	929.902	702.760
153.760	13.320	929.105	701.882
154.775	13.353	928.830	701.751
155.789	13.512	927.788	701.577
156.804	13.419	927.231	700.700
157.819	13.398	926.472	699.973
158.833	13.564	925.601	699.958
159.848	13.573	925.063	699.527
160.862	13.615	924.733	699.393
161.877	13.510	923.908	698.263
162.892	13.460	923.211	697.465
163.906	13.431	922.195	696.511
164.921	13.345	921.463	695.536
165.935	13.406	920.390	694.922
166.950	13.417	919.570	694.286
167.964	13.531	918.726	694.065
168.979	13.573	917.548	693.292
169.994	13.524	916.504	692.234
171.008	13.441	915.815	691.305
172.023	13.569	915.042	691.197
173.037	13.552	914.565	690.702
174.052	13.589	914.231	690.545
175.067	13.509	913.153	689.335
176.081	13.445	912.332	688.389
177.096	13.437	911.541	687.698
178.110	13.486	910.822	687.297
179.125	13.566	910.072	687.004
180.140	13.518	909.341	686.194
181.154	13.669	908.727	686.292
182.169	13.726	907.683	685.681
183.183	13.695	907.311	685.209
184.198	13.578	906.996	684.428
185.213	13.730	905.812	684.102
186.227	13.678	905.448	683.552
187.242	13.667	905.274	683.316
188.256	13.840	904.101	683.081
189.271	13.748	903.797	682.412
190.286	13.879	902.564	681.958
191.300	13.718	901.858	680.703
192.315	13.615	900.923	679.516
193.329	13.550	900.474	678.850
194.344	13.531	899.900	678.278
195.359	13.670	899.101	678.188
196.373	13.695	898.459	677.746
197.388	13.670	898.049	677.274
198.402	13.881	897.351	677.549
199.417	13.896	897.391	677.579
200.432	13.841	897.229	677.172
201.446	13.924	896.551	676.941
202.461	13.990	896.257	676.926
203.475	14.039	895.257	676.310
204.490	13.966	894.847	675.643
205.504	14.105	893.768	675.336
206.519	13.872	893.141	673.855
207.534	13.885	892.460	673.335
208.548	14.064	891.566	673.327
209.563	14.025	891.151	672.794
210.577	13.940	890.529	671.921
211.592	13.882	890.128	671.326
212.607	14.019	889.554	671.387
213.621	14.156	888.693	671.230
214.636	14.249	887.738	670.826
215.650	14.065	887.264	669.667
216.665	14.151	886.875	669.657
217.680	14.268	886.277	669.617
218.694	14.164	885.915	668.867
219.709	14.223	885.480	668.715
220.723	14.330	884.525	668.365
221.738	14.211	883.959	667.403
222.753	14.133	883.348	666.568
223.767	14.298	882.394	666.451
224.782	14.213	881.756	665.569
225.796	14.366	880.996	665.547
226.811	14.350	880.670	665.180
227.826	14.308	879.734	664.245
228.840	14.293	879.374	663.855
229.855	14.259	878.329	662.872
230.869	14.249	878.014	662.535
231.884	14.268	876.944	661.747
232.899	14.313	876.356	661.423
233.913	14.339	875.890	661.115
234.928	14.412	874.899	660.600
235.942	14.335	874.385	659.845
236.957	14.250	874.085	659.225
237.972	14.206	873.104	658.255
238.986	14.297	872.513	658.110
240.001	14.357	872.039	657.932
241.015	14.411	871.030	657.323
242.030	14.332	870.819	656.795
243.045	14.359	869.876	656.131
244.059	14.562	869.583	656.653
245.074	14.572	868.972	656.172
246.088	14.431	868.016	654.840
247.103	14.462	867.750	654.700
248.117	14.546	867.185	654.546
249.132	14.625	866.568	654.333
250.147	14.696	866.132	654.224
251.161	14.704	865.478	653.703
252.176	14.931	864.221	653.583
253.190	14.734	864.210	652.748
254.205	14.919	863.079	652.559
255.220	14.905	862.556	652.049
256.234	14.871	862.156	651.555
257.249	14.756	861.684	650.695
258.263	14.937	861.060	650.872
259.278	14.917	860.521	650.326
260.293	14.732	860.392	649.454
261.307	14.841	859.433	649.097
262.322	14.868	859.291	649.035
263.336	14.974	858.191	648.559
264.351	14.993	857.878	648.338
265.366	15.050	857.111	647.920
266.380	15.140	856.233	647.550
267.395	15.105	855.827	647.050
268.409	14.963	855.226	645.990
269.424	14.835	854.319	644.754
270.439	15.038	853.832	645.109
271.453	14.861	853.089	643.810
272.468	15.069	852.279	643.942
273.482	15.015	851.573	643.146
274.497	15.107	851.269	643.211
275.512	15.010	850.267	642.026
276.526	14.973	849.815	641.483
277.541	15.070	848.703	640.960
278.555	15.200	848.454	641.214
279.570	15.113	847.842	640.361
280.585	15.215	847.112	640.145
281.599	15.136	847.075	639.755
282.614	15.173	846.525	639.427
283.628	15.115	845.529	638.398
284.643	15.126	844.574	637.661
285.657	15.273	844.430	638.054
286.672	15.218	844.135	637.567
287.687	15.317	843.312	637.265
288.701	15.239	843.171	636.805
289.716	15.184	842.982	636.395
290.730	15.400	842.029	636.441
291.745	15.336	841.200	635.516
292.760	15.445	840.428	635.289
293.774	15.346	839.979	634.516
294.789	15.421	839.305	634.238
295.803	15.415	838.614	633.636
296.818	15.383	838.379	633.280
297.833	15.348	837.641	632.537
298.847	15.526	836.880	632.576
299.862	15.336	836.468	631.491
300.876	15.449	835.758	631.325
301.891	15.445	835.057	630.726
302.906	15.488	834.802	630.638
303.920	15.549	833.989	630.198
304.935	15.699	833.170	630.084
305.949	15.587	832.687	629.243
306.964	15.694	831.922	629.012
307.979	15.673	831.385	628.473
308.993	15.734	831.089	628.418
310.008	15.748	830.473	627.952
311.022	15.650	830.219	627.336
312.037	15.791	829.600	627.340
313.052	15.595	829.285	626.315
314.066	15.570	828.616	625.661
315.081	15.546	827.821	624.916
316.095	15.635	826.798	624.420
317.110	15.656	826.710	624.375
318.125	15.570	826.192	623.609
319.139	15.614	825.896	623.496
320.154	15.629	825.184	622.959
321.168	15.670	824.650	622.652
322.183	15.681	823.648	621.880
323.197	15.747	823.800	622.185
324.212	15.779	822.972	621.620
325.227	15.646	822.454	620.685
326.241	15.811	821.837	620.775
327.256	15.857	821.182	620.395
328.270	15.841	820.786	619.979
329.285	15.766	820.483	619.419
330.300	15.757	819.545	618.623
331.314	15.835	818.795	618.291
332.329	15.805	818.254	617.718
333.343	15.858	817.778	617.495
334.358	15.919	817.161	617.200
335.373	15.936	816.896	617.008
336.387	15.958	816.341	616.613
337.402	15.916	816.288	616.365
338.416	15.954	815.433	615.806
339.431	15.932	814.954	615.309
340.446	16.146	814.124	615.409
341.460	16.102	813.689	614.865
342.475	16.052	813.372	614.388
343.489	16.200	812.469	614.190
344.504	16.202	811.918	613.725
345.519	16.147	811.815	613.393
346.533	16.211	811.030	612.981
347.548	16.220	810.413	612.493
348.562	16.501	809.756	612.959
349.577	16.186	809.483	611.557
350.592	16.114	808.900	610.803
351.606	16.100	808.403	610.322
352.621	16.246	808.188	610.633
353.635	16.234	807.608	610.099
354.650	16.094	807.353	609.345
355.665	16.287	806.733	609.521
356.679	16.205	806.538	609.022
357.694	16.194	806.043	608.555
358.708	16.309	805.325	608.375
359.723	16.057	805.100	607.243
360.738	16.234	804.388	607.289
361.752	16.425	803.394	607.172
362.767	16.386	803.439	607.010
363.781	16.363	803.263	606.744
364.796	16.506	802.554	606.666
365.810	16.478	801.943	606.051
366.825	16.560	801.512	605.963
367.840	16.776	800.721	606.088
368.854	16.657	800.603	605.517
369.869	16.662	800.238	605.207
370.883	16.423	800.059	604.160
371.898	16.553	799.094	603.846
372.913	16.652	798.445	603.652
373.927	16.667	798.057	603.358
374.942	16.681	797.439	602.890
375.956	16.700	796.665	602.318
376.971	16.643	795.921	601.499
377.986	16.834	795.734	601.985
379.000	16.739	795.470	601.392
380.015	16.745	794.811	600.865
381.029	16.937	794.303	601.108
382.044	16.796	793.734	600.126
383.059	16.841	793.185	599.813
384.073	16.840	792.724	599.410
385.088	16.806	792.247	598.876
386.102	16.944	791.591	598.814
387.117	16.739	791.517	597.982
388.132	16.815	790.848	597.690
389.146	16.717	790.490	597.021
390.161	17.002	789.663	597.349
391.175	16.944	789.409	596.898
392.190	16.830	789.800	596.741
393.205	16.724	789.226	595.880
394.219	16.630	788.877	595.234
395.234	16.798	787.986	595.101
396.248	16.873	787.530	594.967
397.263	16.827	786.929	594.298
398.278	16.793	786.479	593.785
399.292	16.927	785.566	593.513
400.307	16.741	785.658	592.879
401.321	16.873	785.066	592.841
402.336	16.893	784.692	592.575
403.350	16.986	784.367	592.604
404.365	16.997	784.170	592.442
405.380	17.055	783.622	592.178
406.394	17.094	783.005	591.793
407.409	17.146	782.580	591.600
408.423	17.183	782.288	591.456
409.438	17.075	781.679	590.569
410.453	17.180	781.411	590.680
411.467	17.136	780.991	590.157
412.482	17.325	780.272	590.216
413.496	17.252	780.015	589.719
414.511	17.409	779.507	589.825
415.526	17.255	779.386	589.150
416.540	17.259	779.313	589.053
417.555	17.352	778.509	588.715
418.569	17.272	778.312	588.240
419.584	17.367	777.598	587.975
420.599	17.203	777.357	587.176
421.613	107.732	1287.177	1459.348
422.628	92.054	1361.437	1459.454
