DTS Sentinel unit serial number:	SN413079Multiplexer serial number:	ORYXHardware model number:	OX4-SRSoftware version number:	ORYX F/W v4.00 Oryx Data Collector v3.7.2.0data status	okinstallation	princeton_trtdifferential loss correction	single-endedforward channel	channel 3reverse channel	N/Adate	2019/09/12time	15:26:11forward acquisition time	60.00reverse acquisition time	0.00gamma	496.2192k internal	0.2292k external	0.2292temperature offset calibration	1.0058default loss term (dB/km)	0.3790temperature slope calibration	1.0000multiplexer offset coefficient	1.0000multiplexer slope coefficient	1.0000fibre end	0.00T internal ref (°C)	40.70T ext. ref 1 (°C)	2.42T ext. ref 2 (°C)	34.58length (m)	temperature (°C)	Stokes	anti-Stokes-747.200	-0.396	-0.197	0.143
-746.185	220.373	-0.068	0.111
-745.171	-80.685	0.061	-0.021
-744.156	174.592	-0.119	0.177
-743.142	-156.774	0.268	-0.017
-742.127	-200.000	0.031	0.226
-741.112	98.559	-0.214	-0.253
-740.098	7.647	-0.065	-0.050
-739.083	46.317	0.178	-0.169
-738.069	-200.000	-0.018	0.101
-737.054	-85.029	-0.316	0.101
-736.039	291.869	-0.070	0.131
-735.025	-32.421	-0.155	0.089
-734.010	-13.712	-0.122	0.081
-732.996	800.000	-0.067	0.251
-731.981	712.190	-0.079	-0.215
-730.966	-200.000	0.005	-0.216
-729.952	-112.425	-0.132	0.027
-728.937	-19.530	0.096	0.061
-727.923	-135.941	-0.369	-0.044
-726.908	-1.185	-0.337	-0.244
-725.894	-200.000	-0.032	0.170
-724.879	58.262	-0.203	0.204
-723.864	-106.755	-0.325	0.074
-722.850	-80.023	-0.064	-0.022
-721.835	-24.419	-0.258	-0.157
-720.821	139.180	-0.078	-0.104
-719.806	-130.396	0.258	0.036
-718.791	71.346	-0.314	-0.333
-717.777	122.130	0.143	0.183
-716.762	195.009	-0.047	0.072
-715.748	188.287	-0.156	0.239
-714.733	176.391	-0.170	0.252
-713.718	-114.265	0.230	0.045
-712.704	45.073	-0.274	0.258
-711.689	-200.000	-0.002	-0.027
-710.675	-57.259	-0.226	0.102
-709.660	-113.321	-0.252	0.051
-708.645	345.025	0.038	-0.077
-707.631	35.047	0.184	-0.164
-706.616	-200.000	-0.032	0.163
-705.602	-200.000	-0.078	0.386
-704.587	-200.000	0.014	-0.174
-703.572	129.193	-0.081	-0.106
-702.558	800.000	0.042	0.121
-701.543	194.059	-0.073	-0.114
-700.529	-200.000	0.008	0.070
-699.514	-200.000	0.051	0.287
-698.499	800.000	-0.024	-0.108
-697.485	276.326	0.072	0.130
-696.470	57.860	-0.191	0.191
-695.456	-87.426	-0.312	0.097
-694.441	742.724	0.026	0.071
-693.426	5.826	-0.318	-0.240
-692.412	688.225	0.069	-0.184
-691.397	260.338	-0.081	-0.144
-690.383	23.731	-0.220	-0.185
-689.368	800.000	-0.099	-0.389
-688.354	162.788	-0.137	-0.196
-687.339	-91.703	0.261	0.076
-686.324	216.939	0.169	-0.275
-685.310	-200.000	0.031	-0.175
-684.295	-83.882	-0.298	-0.097
-683.281	-61.919	-0.260	0.111
-682.266	158.418	-0.146	-0.206
-681.251	800.000	-0.039	0.130
-680.237	800.000	-0.065	0.198
-679.222	800.000	0.044	-0.168
-678.208	-200.000	-0.059	-0.353
-677.193	582.398	0.054	-0.136
-676.178	-49.004	0.153	0.075
-675.164	161.421	-0.073	-0.104
-674.149	-31.585	0.287	0.165
-673.135	800.000	0.023	-0.066
-672.120	650.489	0.098	-0.257
-671.105	-43.650	0.356	0.183
-670.091	-74.200	0.124	0.046
-669.076	-200.000	-0.105	-0.494
-668.062	61.534	0.173	0.175
-667.047	-146.480	-0.085	-0.008
-666.032	-41.406	-0.359	0.188
-665.018	-11.000	-0.150	-0.101
-664.003	-93.523	0.286	0.081
-662.989	-110.181	-0.307	-0.065
-661.974	776.382	0.106	0.295
-660.959	-11.556	-0.169	-0.113
-659.945	-21.580	-0.150	-0.093
-658.930	800.000	0.010	0.039
-657.916	82.650	-0.068	0.076
-656.901	41.767	0.104	-0.096
-655.886	-127.907	-0.472	0.069
-654.872	-145.029	-0.127	0.012
-653.857	143.785	-0.224	-0.305
-652.843	-163.618	0.242	-0.012
-651.828	149.579	0.122	-0.169
-650.814	99.236	-0.042	0.050
-649.799	298.076	-0.223	-0.417
-648.784	-48.278	-0.063	0.031
-647.770	12.964	-0.136	0.108
-646.755	277.809	0.027	-0.048
-645.741	538.969	-0.033	-0.079
-644.726	51.910	-0.285	0.277
-643.711	-180.865	0.451	-0.009
-642.697	432.416	0.029	-0.065
-641.682	-74.625	0.321	-0.118
-640.668	60.301	0.033	0.034
-639.653	-59.439	0.242	0.106
-638.638	113.294	0.057	-0.071
-637.624	-150.064	0.159	-0.013
-636.609	-200.000	-0.009	0.134
-635.595	-200.000	-0.028	-0.143
-634.580	800.000	-0.035	-0.116
-633.565	276.965	-0.071	0.128
-632.551	42.918	-0.278	-0.258
-631.536	800.000	0.067	0.225
-630.522	486.133	-0.100	-0.231
-629.507	-137.422	0.262	-0.030
-628.492	-98.085	0.239	-0.063
-627.478	215.037	0.089	-0.144
-626.463	-200.000	0.014	-0.150
-625.449	662.765	-0.128	0.337
-624.434	46.961	0.202	-0.192
-623.419	-92.989	-0.423	0.120
-622.405	34.819	0.214	-0.190
-621.390	462.633	0.102	-0.231
-620.376	-29.424	0.251	0.147
-619.361	-58.983	-0.337	-0.148
-618.346	354.681	-0.069	-0.139
-617.332	-76.881	0.297	-0.106
-616.317	147.092	-0.225	-0.308
-615.303	-200.000	-0.011	-0.310
-614.288	49.881	-0.108	-0.104
-613.273	-200.000	-0.021	-0.222
-612.259	29.761	0.240	0.208
-611.244	127.140	-0.079	0.102
-610.230	558.781	-0.055	-0.135
-609.215	8.382	0.270	0.207
-608.201	201.701	-0.037	0.059
-607.186	-10.731	-0.054	-0.037
-606.171	-12.647	0.162	0.107
-605.157	-30.260	0.311	0.180
-604.142	-60.914	0.144	0.062
-603.128	-7.517	-0.145	0.100
-602.113	63.486	0.356	-0.364
-601.098	411.530	-0.129	0.278
-600.084	-2.272	0.155	0.110
-599.069	437.023	0.088	-0.195
-598.055	-77.416	0.287	0.102
-597.040	-171.726	0.358	-0.012
-596.025	-200.000	0.009	0.405
-595.011	-51.614	0.496	0.236
-593.996	-133.495	0.263	-0.034
-592.982	116.704	0.091	0.114
-591.967	-35.258	-0.241	-0.134
-590.952	-200.000	0.031	0.243
-589.938	-160.042	-0.553	-0.031
-588.923	35.692	-0.103	0.092
-587.909	-200.000	0.003	-0.425
-586.894	800.000	0.018	0.054
-585.879	91.770	-0.089	-0.101
-584.865	-200.000	0.003	0.110
-583.850	-48.755	-0.404	0.197
-582.836	338.298	-0.009	-0.018
-581.821	210.861	0.085	-0.136
-580.806	-108.241	0.309	0.068
-579.792	-37.669	-0.154	-0.083
-578.777	-64.996	-0.186	-0.077
-577.763	-54.773	0.237	-0.109
-576.748	-200.000	0.019	0.366
-575.733	21.134	0.049	-0.040
-574.719	-165.093	-0.262	-0.012
-573.704	23.837	-0.106	0.089
-572.690	92.210	0.061	0.070
-571.675	392.168	0.203	0.428
-570.661	-150.692	-0.470	0.036
-569.646	35.492	-0.394	-0.352
-568.631	-60.280	0.166	-0.072
-567.617	-49.269	0.167	0.081
-566.602	623.292	-0.088	-0.226
-565.588	-60.972	-0.352	-0.151
-564.573	-104.686	-0.123	0.029
-563.558	800.000	0.090	0.293
-562.544	67.953	-0.152	0.158
-561.529	-97.236	-0.085	0.022
-560.515	800.000	0.082	-0.366
-559.500	-47.405	0.443	-0.219
-558.485	-200.000	0.035	-0.176
-557.471	-51.565	-0.347	-0.165
-556.456	32.435	-0.124	0.109
-555.442	-200.000	-0.023	-0.129
-554.427	482.180	-0.026	-0.060
-553.412	-200.000	0.011	-0.250
-552.398	800.000	0.078	0.334
-551.383	6.909	0.177	-0.134
-550.369	-155.450	0.384	-0.025
-549.354	-200.000	-0.028	0.244
-548.339	-200.000	-0.016	-0.155
-547.325	-84.793	0.260	0.083
-546.310	-105.836	-0.303	-0.070
-545.296	-2.944	-0.313	0.222
-544.281	-91.296	-0.136	-0.039
-543.266	436.424	-0.179	0.396
-542.252	491.512	-0.096	-0.222
-541.237	27.334	-0.314	0.268
-540.223	-55.054	0.262	0.120
-539.208	-127.312	-0.202	-0.030
-538.193	800.000	0.060	-0.179
-537.179	39.781	0.128	-0.117
-536.164	-200.000	-0.031	-0.283
-535.150	-52.980	-0.158	-0.074
-534.135	-92.598	-0.157	0.045
-533.121	-200.000	0.018	-0.119
-532.106	33.814	-0.286	0.253
-531.091	-200.000	0.008	0.237
-530.077	800.000	0.079	0.298
-529.062	-62.697	-0.291	0.123
-528.048	-200.000	0.031	0.232
-527.033	231.693	0.079	0.131
-526.018	65.539	-0.236	0.243
-525.004	-6.011	0.189	-0.131
-523.989	652.517	0.183	0.476
-522.975	-21.779	0.111	0.068
-521.960	-72.968	0.346	0.129
-520.945	58.443	-0.231	-0.230
-519.931	-143.370	-0.227	-0.022
-518.916	98.706	-0.258	0.302
-517.902	-200.000	-0.009	0.314
-516.887	15.183	-0.236	-0.188
-515.872	-193.850	0.153	-0.001
-514.858	-25.906	-0.118	-0.070
-513.843	800.000	0.061	-0.254
-512.829	-200.000	0.015	0.201
-511.814	-165.032	0.228	0.010
-510.799	-58.814	-0.081	0.036
-509.785	-193.067	-0.144	-0.001
-508.770	2.551	-0.142	0.104
-507.756	19.298	-0.087	0.071
-506.741	93.411	-0.114	-0.130
-505.726	-169.724	-0.206	-0.008
-504.712	-98.616	0.280	-0.072
-503.697	-89.988	0.229	-0.068
-502.683	800.000	-0.048	0.175
-501.668	-7.152	-0.238	0.164
-500.653	403.289	0.062	-0.133
-499.639	747.493	0.120	0.327
-498.624	-92.307	0.304	-0.087
-497.610	-157.203	0.458	-0.028
-496.595	800.000	0.141	-0.440
-495.581	-126.855	-0.145	0.022
-494.566	62.956	0.184	-0.187
-493.551	-54.723	-0.353	-0.162
-492.537	32.835	-0.066	0.058
-491.522	-73.874	-0.172	-0.063
-490.508	660.300	0.060	0.157
-489.493	1.403	-0.202	0.148
-488.478	-145.784	-0.248	-0.022
-487.464	-200.000	0.004	-0.051
-486.449	753.654	-0.052	0.144
-485.435	288.600	-0.047	-0.086
-484.420	800.000	-0.081	-0.245
-483.405	-35.425	0.189	0.104
-482.391	379.056	0.068	-0.140
-481.376	5.753	-0.308	-0.230
-480.362	-10.292	0.029	-0.020
-479.347	-200.000	0.005	0.114
-478.332	405.312	-0.086	0.184
-477.318	-143.294	0.118	0.011
-476.303	75.022	0.140	-0.149
-475.289	-61.513	-0.354	0.151
-474.274	123.304	-0.266	0.338
-473.259	-195.709	-0.239	-0.002
-472.245	-24.686	-0.272	0.164
-471.230	-32.702	-0.172	-0.097
-470.216	-121.908	0.110	0.018
-469.201	-28.262	0.380	-0.222
-468.186	800.000	-0.064	0.189
-467.172	-200.000	-0.047	0.219
-466.157	13.265	-0.136	0.107
-465.143	-61.137	-0.131	0.056
-464.128	-200.000	0.003	0.153
-463.113	10.281	-0.032	-0.025
-462.099	800.000	-0.047	-0.133
-461.084	800.000	0.086	-0.376
-460.070	800.000	0.036	0.141
-459.055	-200.000	0.032	-0.237
-458.040	800.000	-0.066	-0.278
-457.026	800.000	0.088	-0.341
-456.011	362.553	0.049	0.100
-454.997	-200.000	-0.005	0.189
-453.982	800.000	0.022	-0.073
-452.968	-58.091	0.110	0.049
-451.953	62.151	-0.080	-0.080
-450.938	245.351	0.070	0.120
-449.924	98.326	0.344	-0.401
-448.909	44.489	-0.033	-0.031
-447.895	176.716	0.050	0.074
-446.880	67.774	-0.114	-0.118
-445.865	246.991	0.057	-0.097
-444.851	-200.000	-0.024	-0.220
-443.836	-200.000	-0.010	-0.410
-442.822	514.575	-0.057	-0.135
-441.807	-14.067	-0.237	0.155
-440.792	205.593	0.074	-0.117
-439.778	-41.961	0.200	-0.104
-438.763	-200.000	0.008	-0.108
-437.749	-94.089	-0.577	-0.160
-436.734	123.423	-0.196	0.249
-435.719	800.000	-0.146	0.443
-434.705	-200.000	0.029	0.301
-433.690	-200.000	-0.020	-0.112
-432.676	-138.655	0.220	-0.024
-431.661	297.785	0.308	0.573
-430.646	-134.727	-0.290	0.036
-429.632	-200.000	0.006	-0.098
-428.617	570.736	-0.107	-0.264
-427.603	161.548	-0.114	-0.162
-426.588	-175.715	-0.339	0.009
-425.573	-200.000	-0.041	0.255
-424.559	-200.000	0.054	0.249
-423.544	-4.723	-0.164	0.114
-422.530	-72.818	-0.117	0.043
-421.515	-143.302	-0.122	-0.012
-420.500	-200.000	-0.081	0.400
-419.486	-78.238	0.583	-0.203
-418.471	-200.000	0.015	-0.141
-417.457	-200.000	0.042	0.244
-416.442	45.140	0.204	0.190
-415.428	-103.672	-0.150	-0.036
-414.413	21.880	-0.147	-0.121
-413.398	45.598	-0.335	0.312
-412.384	80.936	0.250	0.272
-411.369	800.000	-0.077	0.280
-410.355	-136.589	-0.103	0.012
-409.340	-200.000	-0.005	0.096
-408.325	-167.262	-0.094	-0.004
-407.311	-175.188	-0.089	-0.002
-406.296	-158.370	0.434	-0.025
-405.282	800.000	0.030	-0.122
-404.267	67.011	-0.085	0.088
-403.252	604.359	-0.109	0.273
-402.238	-200.000	0.018	0.146
-401.223	800.000	0.096	-0.378
-400.209	-200.000	0.061	-0.449
-399.194	-56.920	0.240	0.107
-398.179	-200.000	0.000	0.112
-397.165	-83.569	-0.255	0.082
-396.150	-47.411	-0.100	-0.049
-395.136	-22.472	0.419	0.256
-394.121	-16.841	0.395	-0.252
-393.106	-6.634	-0.155	-0.106
-392.092	0.977	0.122	-0.089
-391.077	-53.221	-0.007	-0.003
-390.063	139.761	0.038	-0.050
-389.048	91.272	0.116	0.131
-388.033	-77.407	0.055	0.019
-387.019	800.000	-0.126	0.512
-386.004	290.004	0.048	0.089
-384.990	-48.667	0.058	0.028
-383.975	337.480	-0.097	0.191
-382.960	626.171	-0.064	-0.163
-381.946	-200.000	0.037	-0.643
-380.931	141.584	-0.087	0.117
-379.917	22.629	-0.060	-0.050
-378.902	58.430	-0.137	0.136
-377.888	0.864	-0.293	-0.212
-376.873	458.920	-0.157	-0.353
-375.858	-57.630	0.144	-0.063
-374.844	138.803	0.235	0.312
-373.829	788.659	-0.089	-0.246
-372.815	-33.516	0.209	-0.117
-371.800	-62.854	-0.427	0.178
-370.785	293.634	-0.100	-0.184
-369.771	-70.665	-0.147	-0.056
-368.756	-83.544	0.248	-0.080
-367.742	260.917	0.181	-0.315
-366.727	127.331	-0.198	-0.254
-365.712	-124.437	0.220	0.035
-364.698	800.000	-0.156	-0.484
-363.683	-200.000	-0.043	-0.318
-362.669	-200.000	0.045	-0.311
-361.654	-200.000	-0.008	-0.113
-360.639	-53.054	0.301	-0.140
-359.625	293.094	0.118	-0.218
-358.610	-57.171	0.100	0.045
-357.596	800.000	-0.054	0.158
-356.581	185.068	-0.079	-0.118
-355.566	26.357	-0.147	-0.124
-354.552	-72.485	-0.254	-0.095
-353.537	66.287	0.054	0.056
-352.523	-40.458	-0.447	0.234
-351.508	-150.785	0.465	-0.036
-350.493	171.123	-0.052	0.075
-349.479	74.544	0.205	0.217
-348.464	658.485	0.039	-0.101
-347.450	800.000	-0.052	-0.216
-346.435	-82.283	0.340	-0.111
-345.420	-92.000	-0.141	-0.040
-344.406	-95.488	0.108	-0.029
-343.391	800.000	-0.061	0.232
-342.377	534.779	0.030	-0.073
-341.362	-45.811	0.098	0.049
-340.348	22.405	-0.128	-0.105
-339.333	-26.143	-0.145	0.086
-338.318	200.193	0.057	0.088
-337.304	-125.047	-0.240	0.037
-336.289	-147.910	0.247	-0.021
-335.275	-200.000	-0.015	0.162
-334.260	-138.433	0.532	-0.059
-333.245	24.967	-0.145	-0.121
-332.231	-34.905	0.103	0.057
-331.216	-133.909	-0.139	0.017
-330.202	108.422	-0.127	0.152
-329.187	59.736	-0.066	-0.066
-328.172	-97.548	0.217	-0.057
-327.158	355.512	-0.218	-0.437
-326.143	-41.561	-0.130	0.067
-325.129	-161.818	0.415	0.021
-324.114	800.000	-0.108	0.417
-323.099	584.279	-0.092	0.227
-322.085	118.904	0.105	-0.131
-321.070	-66.795	-0.409	-0.163
-320.056	51.975	0.179	-0.172
-319.041	3.462	0.198	0.145
-318.026	-12.704	0.023	-0.015
-317.012	122.351	0.273	0.344
-315.997	562.942	0.158	0.384
-314.983	558.137	-0.037	0.090
-313.968	-95.362	-0.135	-0.037
-312.953	12.599	-0.241	0.187
-311.939	-106.070	-0.044	0.010
-310.924	800.000	-0.023	-0.085
-309.910	-91.632	-0.109	0.031
-308.895	264.211	0.056	-0.097
-307.880	-200.000	0.014	-0.476
-306.866	147.857	0.138	0.187
-305.851	-63.316	0.165	-0.069
-304.837	-200.000	0.001	-0.090
-303.822	-200.000	-0.049	-0.362
-302.807	-200.000	0.033	0.286
-301.793	92.185	0.258	0.293
-300.778	242.071	0.051	0.086
-299.764	-4.037	-0.085	-0.059
-298.749	-24.835	-0.111	0.066
-297.735	-65.990	0.290	-0.116
-296.720	-200.000	0.045	-0.366
-295.705	800.000	0.081	0.230
-294.691	-2.842	-0.214	-0.150
-293.676	800.000	0.032	-0.131
-292.662	-200.000	0.020	-0.272
-291.647	3.618	0.222	-0.163
-290.632	800.000	0.143	-0.406
-289.618	59.826	0.246	0.244
-288.603	5.878	0.085	-0.063
-287.589	-200.000	0.027	-0.185
-286.574	193.172	0.067	0.101
-285.559	61.249	-0.257	-0.257
-284.545	-200.000	-0.012	0.092
-283.530	53.261	0.221	-0.212
-282.516	-200.000	0.052	-0.523
-281.501	800.000	0.076	-0.302
-280.486	113.176	0.109	-0.132
-279.472	-200.000	0.028	0.175
-278.457	-200.000	-0.006	-0.041
-277.443	-200.000	0.002	-0.101
-276.428	-61.754	0.170	-0.072
-275.413	96.010	0.060	0.069
-274.399	-48.591	0.084	0.041
-273.384	307.398	0.168	-0.316
-272.370	21.926	-0.230	-0.188
-271.355	325.616	0.185	-0.356
-270.340	-159.973	-0.044	0.002
-269.326	22.520	0.216	-0.178
-268.311	122.583	-0.050	-0.063
-267.297	7.671	-0.154	0.116
-266.282	-128.786	0.238	0.034
-265.267	627.031	-0.227	-0.575
-264.253	328.632	0.175	0.337
-263.238	-200.000	0.003	0.075
-262.224	-200.000	0.035	0.227
-261.209	-200.000	-0.002	-0.134
-260.195	205.848	-0.197	-0.307
-259.180	-94.272	0.460	-0.126
-258.165	95.113	-0.286	-0.327
-257.151	113.502	0.071	-0.086
-256.136	800.000	0.080	-0.341
-255.122	52.337	-0.067	-0.064
-254.107	575.169	0.044	0.108
-253.092	193.272	-0.145	0.220
-252.078	-185.149	-0.206	-0.003
-251.063	287.421	0.090	0.163
-250.049	-6.337	0.167	0.114
-249.034	-126.702	0.065	-0.010
-248.019	-200.000	-0.040	-0.254
-247.005	-76.105	-0.365	-0.129
-245.990	-121.797	-0.238	-0.039
-244.976	238.808	0.080	0.133
-243.961	-120.947	-0.246	-0.042
-242.946	-200.000	0.017	0.116
-241.932	797.457	-0.079	0.219
-240.917	-30.144	0.192	-0.110
-239.903	-36.608	-0.288	-0.155
-238.888	800.000	-0.154	0.614
-237.873	39.352	-0.107	0.096
-236.859	175.677	0.021	0.030
-235.844	219.588	0.181	-0.291
-234.830	800.000	-0.147	-0.431
-233.815	38.432	0.239	0.214
-232.800	87.556	0.091	0.101
-231.786	800.000	0.058	-0.186
-230.771	209.758	-0.131	0.206
-229.757	34.329	0.164	0.144
-228.742	305.592	-0.117	0.219
-227.727	86.561	-0.166	0.183
-226.713	-177.650	0.236	-0.006
-225.698	-50.756	0.244	0.115
-224.684	191.213	0.164	-0.248
-223.669	-62.419	0.116	0.049
-222.655	116.666	-0.071	-0.087
-221.640	672.855	-0.114	0.297
-220.625	574.507	0.113	-0.276
-219.611	-59.917	-0.236	-0.101
-218.596	-92.819	-0.327	0.092
-217.582	-16.578	-0.057	0.036
-216.567	126.030	-0.301	0.381
-215.552	675.794	0.153	0.399
-214.538	168.458	-0.125	0.179
-213.523	-200.000	-0.018	0.129
-212.509	28.650	-0.143	0.122
-211.494	-200.000	0.016	0.305
-210.479	86.525	-0.183	0.202
-209.465	154.089	-0.215	-0.295
-208.450	-200.000	-0.019	-0.281
-207.436	-15.409	0.105	-0.067
-206.421	11.974	-0.098	0.076
-205.406	-47.067	-0.313	0.153
-204.392	258.250	-0.052	0.091
-203.377	115.554	0.261	0.320
-202.363	-145.024	-0.067	0.006
-201.348	-55.429	-0.347	-0.156
-200.333	-179.747	-0.235	0.005
-199.319	-17.132	0.193	0.122
-198.304	500.875	-0.114	0.264
-197.290	64.101	-0.209	-0.210
-196.275	-78.820	0.286	-0.098
-195.260	800.000	-0.018	0.059
-194.246	800.000	0.034	0.099
-193.231	211.121	0.145	-0.228
-192.217	62.178	0.164	-0.164
-191.202	284.310	-0.119	0.215
-190.187	268.755	-0.113	0.199
-189.173	140.070	-0.105	-0.138
-188.158	-117.320	0.131	0.024
-187.144	-20.532	-0.099	0.061
-186.129	800.000	0.063	0.224
-185.114	-68.219	0.446	0.174
-184.100	-5.740	0.082	0.056
-183.085	-77.858	-0.019	-0.007
-182.071	-139.804	-0.190	-0.020
-181.056	-68.187	-0.162	0.063
-180.042	-58.905	0.151	0.065
-179.027	-200.000	0.007	-0.088
-178.012	117.285	0.036	0.044
-176.998	-200.000	-0.022	-0.102
-175.983	800.000	0.100	0.279
-174.969	284.287	0.025	0.045
-173.954	-10.499	-0.100	0.066
-172.939	-77.124	0.359	-0.125
-171.925	151.808	0.133	0.182
-170.910	33.035	0.126	-0.109
-169.896	161.398	-0.271	0.380
-168.881	97.995	0.076	0.088
-167.866	63.700	0.115	0.115
-166.852	-17.048	-0.132	0.083
-165.837	-37.780	0.220	0.117
-164.823	-116.729	-0.066	0.012
-163.808	800.000	-0.057	-0.192
-162.793	182.113	0.074	0.110
-161.779	177.361	0.120	0.175
-160.764	-25.991	-0.344	0.202
-159.750	337.940	0.040	0.078
-158.735	-66.601	0.180	-0.071
-157.720	-200.000	-0.015	0.124
-156.706	-65.202	0.144	0.058
-155.691	-200.000	-0.064	0.285
-154.677	-35.119	0.239	0.130
-153.662	-67.140	0.093	-0.037
-152.647	-58.629	0.273	0.118
-151.633	295.343	-0.043	-0.079
-150.618	-8.028	-0.074	-0.050
-149.604	-53.740	0.311	-0.142
-148.589	-200.000	0.014	-0.080
-147.574	109.037	0.128	-0.153
-146.560	800.000	-0.157	0.531
-145.545	-84.778	-0.256	-0.080
-144.531	83.886	-0.121	0.132
-143.516	-200.000	0.079	0.346
-142.502	27.351	0.129	0.109
-141.487	18.713	-0.284	-0.227
-140.472	-19.656	0.178	-0.110
-139.458	110.002	0.147	-0.177
-138.443	-109.564	0.151	0.032
-137.429	-48.918	-0.439	0.210
-136.414	-200.000	0.040	0.188
-135.399	357.002	-0.078	0.156
-134.385	-200.000	-0.029	-0.138
-133.370	-133.621	0.084	-0.010
-132.356	800.000	-0.078	0.262
-131.341	77.374	-0.043	-0.045
-130.326	-141.226	0.252	0.026
-129.312	-129.593	-0.066	-0.009
-128.297	800.000	0.078	0.234
-127.283	-106.392	-0.145	0.032
-126.268	-51.014	-0.306	-0.143
-125.253	-42.710	-0.160	-0.081
-124.239	-48.262	-0.151	-0.073
-123.224	800.000	-0.059	0.193
-122.210	-48.514	0.196	0.094
-121.195	-83.468	-0.083	-0.027
-120.180	541.110	-0.083	-0.198
-119.166	-103.323	0.107	-0.025
-118.151	-200.000	0.070	0.375
-117.137	228.244	0.014	-0.022
-116.122	41.893	0.162	-0.147
-115.107	-136.506	0.245	0.028
-114.093	225.288	0.205	-0.331
-113.078	-77.259	-0.446	0.155
-112.064	53.415	0.339	0.325
-111.049	-49.447	-0.297	0.141
-110.034	-31.837	-0.246	0.138
-109.020	62.704	0.191	0.191
-108.005	344.555	0.079	0.155
-106.991	-77.444	-0.331	-0.115
-105.976	-102.495	0.350	-0.084
-104.962	376.052	-0.073	0.149
-103.947	-200.000	0.003	0.313
-102.932	428.413	0.066	-0.143
-101.918	128.974	0.087	0.110
-100.903	800.000	-0.059	0.216
-99.889	570.332	-0.040	-0.098
-98.874	-44.721	0.164	-0.082
-97.859	121.004	0.209	0.259
-96.845	-16.799	-0.355	0.224
-95.830	-14.389	-0.202	-0.130
-94.816	800.000	-0.036	0.104
-93.801	62.178	0.122	-0.122
-92.786	136.853	0.290	0.378
-91.772	-43.187	0.154	0.078
-90.757	-200.000	0.030	-0.150
-89.743	-121.234	0.263	0.044
-88.728	-64.647	-0.174	-0.071
-87.713	-56.302	0.173	-0.077
-86.699	800.000	-0.036	-0.123
-85.684	111.464	-0.130	0.156
-84.670	-82.044	-0.206	0.067
-83.655	15.186	0.213	-0.166
-82.640	-200.000	0.026	0.242
-81.626	-200.000	-0.048	0.211
-80.611	-27.388	0.051	-0.029
-79.597	206.232	0.037	-0.058
-78.582	549.520	0.061	-0.145
-77.567	-200.000	0.035	-0.291
-76.553	-100.552	-0.215	0.053
-75.538	465.524	-0.068	-0.153
-74.524	320.437	0.069	-0.130
-73.509	-137.840	0.084	0.009
-72.494	-69.420	0.200	-0.077
-71.480	143.260	-0.101	0.134
-70.465	800.000	-0.043	-0.127
-69.451	-104.946	0.129	0.030
-68.436	142.814	0.268	-0.355
-67.422	10.066	-0.333	-0.252
-66.407	-43.289	-0.219	-0.111
-65.392	-59.187	-0.342	-0.147
-64.378	-105.135	-0.144	0.033
-63.363	36.507	-0.255	0.225
-62.349	-85.209	-0.151	0.047
-61.334	-85.946	-0.917	-0.283
-60.319	642.558	0.191	0.486
-59.305	-200.000	0.036	-0.415
-58.290	129.110	0.540	0.687
-57.276	389.367	0.684	1.413
-56.261	-200.000	76.330	513.221
-55.246	516.851	1321.586	3078.641
-54.232	147.928	2547.835	3423.062
-53.217	115.604	2240.350	2728.901
-52.203	51.001	1768.582	1670.314
-51.188	44.063	1568.473	1432.492
-50.173	41.381	1538.591	1386.524
-49.159	57.458	1575.064	1532.512
-48.144	63.208	1595.528	1592.707
-47.130	44.701	1558.386	1427.525
-46.115	41.015	1544.339	1388.930
-45.100	40.863	1540.586	1384.439
-44.086	40.774	1538.527	1381.914
-43.071	40.770	1536.466	1379.979
-42.057	40.663	1534.668	1377.572
-41.042	40.586	1533.444	1375.880
-40.027	40.633	1531.632	1374.524
-39.013	40.613	1529.970	1372.840
-37.998	40.602	1528.991	1371.834
-36.984	40.661	1528.072	1371.360
-35.969	40.717	1526.558	1370.338
-34.954	40.646	1525.351	1368.707
-33.940	40.712	1523.306	1367.271
-32.925	40.787	1521.825	1366.405
-31.911	40.799	1520.406	1365.158
-30.896	40.830	1519.047	1364.099
-29.881	40.835	1517.725	1362.891
-28.867	40.735	1516.793	1361.313
-27.852	40.768	1515.740	1360.543
-26.838	40.824	1513.580	1358.933
-25.823	40.819	1511.782	1357.231
-24.809	40.747	1510.187	1355.255
-23.794	40.631	1509.105	1353.434
-22.779	40.719	1507.924	1352.921
-21.765	40.744	1506.909	1352.129
-20.750	40.687	1505.694	1350.596
-19.736	40.790	1504.484	1350.160
-18.721	40.807	1503.109	1348.984
-17.706	40.810	1501.768	1347.750
-16.692	40.661	1500.761	1345.786
-15.677	40.658	1499.782	1344.831
-14.663	40.591	1498.625	1343.285
-13.648	40.683	1497.643	1342.974
-12.633	40.668	1496.922	1342.175
-11.619	40.666	1496.302	1341.552
-10.604	40.690	1495.250	1340.717
-9.590	40.614	1494.620	1339.583
-8.575	40.624	1493.170	1338.299
-7.560	40.638	1492.196	1337.466
-6.546	40.682	1491.582	1337.159
-5.531	40.698	1490.711	1336.437
-4.517	40.714	1489.715	1335.597
-3.502	40.559	1489.427	1334.241
-2.487	40.631	1488.081	1333.470
-1.473	40.582	1486.940	1332.063
-0.458	40.688	1485.671	1331.586
0.556	40.975	1475.912	1319.099
1.571	37.535	1446.964	1270.689
2.586	32.991	1382.722	1185.724
3.600	30.594	1298.463	1099.219
4.615	28.515	1249.891	1046.159
5.629	23.880	1190.915	971.450
6.644	12.727	1100.219	840.765
7.659	4.053	1053.803	762.657
8.673	2.669	1048.176	751.734
9.688	2.420	1045.032	748.197
10.702	2.275	1043.564	746.371
11.717	2.336	1041.748	745.302
12.731	5.499	1046.350	763.993
13.746	16.193	1061.198	827.474
14.761	24.280	1071.569	875.366
15.775	25.711	1072.599	883.159
16.790	25.942	1071.776	883.534
17.804	25.782	1071.493	882.436
18.819	25.430	1070.630	879.928
19.834	25.562	1070.052	880.018
20.848	25.748	1069.544	880.432
21.863	25.788	1069.236	880.298
22.877	25.832	1068.507	879.832
23.892	25.721	1068.082	878.862
24.907	25.622	1067.329	877.682
25.921	25.829	1066.418	877.865
26.936	25.760	1065.746	876.899
27.950	25.730	1064.692	875.808
28.965	25.767	1062.970	874.494
29.980	25.542	1062.182	872.674
30.994	25.563	1060.337	871.183
32.009	25.893	1059.574	872.078
33.023	25.912	1059.053	871.662
34.038	25.706	1058.147	869.844
35.053	25.608	1057.593	868.840
36.067	25.746	1056.794	868.775
37.082	25.588	1056.286	867.516
38.096	25.690	1055.519	867.302
39.111	25.976	1055.336	868.454
40.126	26.000	1054.131	867.498
41.140	25.888	1052.971	865.929
42.155	25.656	1051.513	863.539
43.169	25.269	1050.384	860.679
44.184	25.359	1049.186	860.055
45.199	25.469	1048.371	859.838
46.213	25.389	1047.304	858.501
47.228	25.223	1046.632	857.082
48.242	25.500	1045.990	857.803
49.257	25.579	1044.909	857.220
50.271	25.703	1044.197	857.148
51.286	25.802	1043.539	857.003
52.301	25.844	1042.616	856.370
53.315	25.843	1042.004	855.785
54.330	25.869	1041.021	855.026
55.344	25.644	1040.600	853.540
56.359	25.766	1039.646	853.259
57.374	25.551	1039.588	852.119
58.388	25.510	1038.293	850.785
59.403	25.543	1037.457	850.183
60.417	25.366	1037.047	848.933
61.432	25.286	1036.033	847.650
62.447	25.263	1035.213	846.794
63.461	25.499	1034.548	847.288
64.476	25.289	1034.358	846.071
65.490	25.521	1032.877	845.876
66.505	25.288	1032.097	844.066
67.520	25.450	1031.096	843.932
68.534	25.433	1030.631	843.399
69.549	25.359	1029.970	842.434
70.563	25.050	1028.507	839.717
71.578	25.004	1027.496	838.599
72.593	25.102	1026.670	838.311
73.607	24.831	1025.765	836.230
74.622	24.843	1024.787	835.418
75.636	25.131	1024.441	836.405
76.651	25.341	1023.641	836.658
77.666	25.106	1023.024	834.982
78.680	25.064	1021.975	833.860
79.695	25.157	1021.063	833.471
80.709	25.284	1020.519	833.547
81.724	25.247	1020.209	833.043
82.739	25.345	1018.882	832.342
83.753	25.158	1018.591	831.167
84.768	25.664	1017.394	832.457
85.782	25.860	1017.335	833.240
86.797	26.180	1016.484	833.946
87.812	26.072	1015.608	832.659
88.826	25.799	1014.829	830.686
89.841	25.853	1014.211	830.357
90.855	26.026	1013.407	830.421
91.870	26.034	1012.832	829.911
92.884	25.998	1011.532	828.606
93.899	25.938	1010.836	827.690
94.914	25.820	1009.875	826.286
95.928	25.952	1009.151	826.228
96.943	26.046	1008.213	825.816
97.957	25.716	1007.315	823.499
98.972	25.460	1006.116	821.275
99.987	25.308	1004.722	819.370
101.001	25.232	1004.737	818.964
102.016	25.664	1004.084	820.330
103.030	25.715	1003.464	819.981
104.045	25.538	1002.242	818.105
105.060	25.476	1001.280	816.965
106.074	25.397	999.458	815.051
107.089	25.185	999.613	814.144
108.103	25.508	999.450	815.403
109.118	25.809	998.353	815.799
110.133	25.480	996.816	812.982
111.147	25.470	995.733	811.984
112.162	25.270	994.819	810.264
113.176	25.081	993.602	808.349
114.191	25.228	993.224	808.631
115.206	25.329	992.628	808.530
116.220	25.046	991.539	806.299
117.235	24.955	990.110	804.657
118.249	25.167	989.464	805.011
119.264	25.143	988.536	804.078
120.279	25.154	987.722	803.393
121.293	24.992	987.050	802.051
122.308	25.054	986.626	801.913
123.322	25.069	985.796	801.233
124.337	25.056	984.972	800.435
125.352	24.825	983.827	798.404
126.366	24.493	981.683	795.114
127.381	24.136	980.487	792.486
128.395	24.692	980.655	795.024
129.410	25.435	980.265	797.941
130.424	25.554	979.610	797.867
131.439	25.632	978.633	797.344
132.454	25.522	977.671	796.002
133.468	25.558	977.156	795.674
134.483	25.559	976.194	794.823
135.497	25.546	975.652	794.253
136.512	25.880	974.922	795.066
137.527	25.911	974.376	794.686
138.541	25.944	973.405	793.967
139.556	25.804	973.224	793.135
140.570	25.820	972.218	792.313
141.585	25.932	971.021	791.762
142.600	25.989	970.367	791.407
143.614	25.912	969.395	790.208
144.629	25.980	968.964	790.082
145.643	26.147	967.960	789.924
146.658	26.059	966.943	788.643
147.673	25.893	965.776	786.896
148.687	25.857	964.504	785.632
149.702	25.706	963.840	784.362
150.716	25.697	962.757	783.374
151.731	25.617	961.796	782.175
152.746	25.675	961.006	781.713
153.760	25.875	960.424	782.043
154.775	25.993	959.718	781.910
155.789	26.067	959.001	781.575
156.804	26.059	957.949	780.615
157.819	25.881	957.315	779.259
158.833	26.075	956.315	779.214
159.848	26.092	955.628	778.658
160.862	26.269	954.702	778.599
161.877	25.968	954.240	776.857
162.892	25.858	953.570	775.770
163.906	26.015	952.366	775.394
164.921	25.987	951.561	774.550
165.935	25.939	950.479	773.394
166.950	25.957	949.383	772.514
167.964	26.015	948.680	772.120
168.979	25.898	947.550	770.632
169.994	25.896	946.179	769.441
171.008	25.722	945.532	768.102
172.023	25.964	944.926	768.574
173.037	26.170	943.949	768.592
174.052	26.019	942.861	766.994
175.067	25.692	941.848	764.713
176.081	25.646	941.402	764.089
177.096	25.783	940.281	763.690
178.110	25.790	939.991	763.418
179.125	25.458	938.933	761.084
180.140	25.294	937.383	759.066
181.154	25.301	937.204	758.886
182.169	25.548	936.330	759.153
183.183	25.559	936.452	759.232
184.198	26.059	935.698	760.662
185.213	25.942	935.081	759.600
186.227	25.909	934.319	758.774
187.242	25.900	934.053	758.454
188.256	25.987	933.782	758.531
189.271	25.955	932.737	757.483
190.286	26.066	932.132	757.390
191.300	25.840	931.599	755.941
192.315	25.372	929.690	752.366
193.329	24.624	927.805	747.646
194.344	24.142	926.779	744.738
195.359	24.631	927.251	747.097
196.373	25.532	927.748	751.196
197.388	25.768	927.614	752.005
198.402	25.753	927.268	751.598
199.417	25.784	926.359	750.925
200.432	25.950	925.545	750.891
201.446	25.720	925.047	749.461
202.461	25.512	924.221	747.862
203.475	25.425	924.253	747.460
204.490	25.133	922.550	744.803
205.504	23.994	920.144	738.072
206.519	24.363	920.038	739.450
207.534	25.233	920.691	743.518
208.548	25.333	920.175	743.451
209.563	25.740	919.695	744.679
210.577	25.886	918.831	744.519
211.592	25.528	918.166	742.437
212.607	25.907	918.052	743.840
213.621	26.198	917.995	744.929
214.636	25.964	917.284	743.323
215.650	26.116	916.236	743.035
216.665	26.004	915.866	742.206
217.680	25.900	915.942	741.775
218.694	26.165	914.976	742.016
219.709	25.878	913.874	739.879
220.723	25.417	913.008	737.218
221.738	25.673	912.252	737.595
222.753	25.869	912.369	738.429
223.767	25.863	911.232	737.416
224.782	25.934	910.104	736.729
225.796	26.121	910.094	737.418
226.811	26.152	909.848	737.284
227.826	25.740	908.693	734.600
228.840	24.918	907.084	729.887
229.855	24.810	906.295	728.746
230.869	25.027	906.377	729.632
231.884	24.723	905.552	727.665
232.899	24.889	904.386	727.339
233.913	25.517	905.332	730.588
234.928	25.789	904.225	730.733
235.942	25.583	903.813	729.499
236.957	25.715	903.141	729.430
237.972	25.361	902.211	727.179
238.986	25.247	901.410	726.010
240.001	25.381	901.089	726.227
241.015	25.435	900.184	725.652
242.030	25.473	899.714	725.362
243.045	25.634	899.362	725.664
244.059	25.878	898.885	726.200
245.074	25.911	898.558	726.002
246.088	25.937	897.451	725.149
247.103	25.591	896.457	722.891
248.117	25.664	895.856	722.637
249.132	26.175	896.090	724.814
250.147	26.445	895.998	725.757
251.161	26.504	895.569	725.581
252.176	26.639	895.230	725.785
253.190	26.783	894.095	725.378
254.205	26.785	893.872	725.139
255.220	27.035	893.481	725.757
256.234	26.883	893.141	724.808
257.249	26.816	892.231	723.741
258.263	26.676	891.568	722.578
259.278	26.771	891.083	722.502
260.293	26.772	890.343	721.841
261.307	26.714	889.991	721.261
262.322	26.721	889.244	720.619
263.336	26.677	888.390	719.688
264.351	26.144	887.289	716.620
265.366	25.060	885.702	710.974
266.380	24.609	884.653	708.284
267.395	25.358	885.230	711.650
268.409	26.252	884.618	714.637
269.424	26.194	884.035	713.873
270.439	26.392	883.712	714.330
271.453	26.563	883.245	714.566
272.468	26.613	882.591	714.171
273.482	26.655	882.219	713.971
274.497	26.838	881.699	714.207
275.512	26.647	880.724	712.602
276.526	25.996	879.394	708.906
277.541	26.126	879.288	709.268
278.555	26.609	878.995	710.864
279.570	26.433	878.425	709.653
280.585	26.176	877.529	707.858
281.599	26.445	876.788	708.251
282.614	26.565	876.354	708.307
283.628	26.095	875.293	705.548
284.643	25.643	874.404	703.004
285.657	26.007	874.669	704.579
286.672	25.938	874.123	703.805
287.687	25.413	872.667	700.525
288.701	25.798	872.886	702.139
289.716	26.151	872.379	703.044
290.730	25.868	871.512	701.182
291.745	25.668	870.933	699.880
292.760	25.579	869.505	698.322
293.774	25.605	868.950	697.916
294.789	26.423	869.406	701.393
295.803	27.086	870.164	704.514
296.818	27.124	869.348	703.942
297.833	27.122	869.176	703.730
298.847	26.881	867.710	701.552
299.862	26.513	866.652	699.212
300.876	26.730	866.258	699.668
301.891	27.093	865.975	700.778
302.906	27.054	865.606	700.269
303.920	26.771	864.544	698.258
304.935	26.537	863.968	696.830
305.949	26.974	863.478	698.056
306.964	27.024	863.270	698.015
307.979	26.770	862.491	696.349
308.993	26.737	861.946	695.719
310.008	26.975	861.889	696.526
311.022	27.143	861.563	696.847
312.037	27.052	860.642	695.690
313.052	26.804	859.844	694.033
314.066	26.702	859.111	692.992
315.081	25.912	857.865	688.907
316.095	25.152	856.694	685.002
317.110	25.690	856.769	687.056
318.125	26.593	856.857	690.514
319.139	26.312	855.589	688.358
320.154	25.099	854.092	682.481
321.168	24.596	853.322	679.890
322.183	25.220	853.296	682.183
323.197	26.254	853.740	686.407
324.212	26.454	853.515	686.925
325.227	26.766	852.943	687.590
326.241	26.873	852.878	687.881
327.256	26.868	852.008	687.100
328.270	26.589	851.398	685.492
329.285	26.466	850.836	684.512
330.300	26.348	850.045	683.371
331.314	26.156	849.250	681.944
332.329	26.157	848.900	681.606
333.343	26.634	848.424	682.965
334.358	26.952	848.032	683.785
335.373	26.924	847.753	683.396
336.387	27.172	846.752	683.459
337.402	27.173	846.803	683.443
338.416	27.434	846.165	683.850
339.431	27.310	845.926	683.131
340.446	27.349	845.391	682.782
341.460	27.548	844.917	683.086
342.475	27.483	844.261	682.252
343.489	27.417	843.676	681.472
344.504	27.297	843.032	680.443
345.519	27.441	842.710	680.663
346.533	27.895	842.144	681.841
347.548	27.782	841.988	681.232
348.562	27.702	841.567	680.533
349.577	27.634	840.763	679.569
350.592	27.733	840.341	679.536
351.606	27.606	839.892	678.641
352.621	27.487	839.673	677.959
353.635	27.488	838.888	677.271
354.650	27.400	838.345	676.443
355.665	27.266	837.051	674.842
356.679	26.169	835.277	669.288
357.694	26.058	835.047	668.634
358.708	26.665	835.042	670.821
359.723	26.654	834.597	670.363
360.738	26.743	834.633	670.662
361.752	27.240	834.113	672.021
362.767	27.540	833.403	672.496
363.781	27.607	833.773	672.985
364.796	27.845	833.692	673.736
365.810	28.115	833.115	674.207
366.825	28.180	832.572	673.948
367.840	28.161	832.506	673.765
368.854	27.883	831.638	671.981
369.869	27.436	830.929	669.705
370.883	27.333	830.122	668.614
371.898	27.359	829.668	668.286
372.913	27.353	829.178	667.811
373.927	27.450	828.231	667.345
374.942	27.445	827.842	666.954
375.956	27.661	827.409	667.335
376.971	27.878	826.584	667.406
377.986	27.993	826.326	667.556
379.000	28.105	825.742	667.436
380.015	27.958	825.380	666.548
381.029	27.804	825.025	665.640
382.044	27.829	824.211	665.017
383.059	27.951	823.830	665.094
384.073	28.056	823.101	664.829
385.088	28.138	822.581	664.647
386.102	28.142	822.002	664.136
387.117	27.721	821.572	662.200
388.132	27.654	821.096	661.517
389.146	27.517	820.269	660.294
390.161	27.019	819.316	657.666
391.175	27.069	818.778	657.355
392.190	27.601	818.866	659.295
393.205	27.761	818.341	659.391
394.219	26.776	816.822	654.555
395.234	25.088	814.477	646.534
396.248	24.341	813.235	642.801
397.263	25.262	814.151	646.788
398.278	26.978	815.774	654.209
399.292	27.689	815.182	656.237
400.307	27.366	814.376	654.368
401.321	27.203	814.400	653.743
402.336	27.424	813.999	654.158
403.350	27.590	813.814	654.548
404.365	28.067	813.579	656.014
405.380	28.328	813.588	656.900
406.394	28.777	813.115	658.068
407.409	28.834	813.055	658.164
408.423	28.735	812.479	657.284
409.438	28.594	811.971	656.314
410.453	28.749	811.335	656.293
411.467	28.843	810.905	656.225
412.482	28.562	810.633	654.942
413.496	28.641	810.045	654.691
414.511	28.739	809.913	654.876
415.526	28.805	809.453	654.683
416.540	28.613	809.109	653.662
417.555	28.812	807.874	653.313
418.569	28.432	807.681	651.751
419.584	28.284	806.869	650.510
420.599	28.548	806.439	651.045
421.613	95.453	1263.717	1375.003
422.628	81.943	1330.364	1375.124
