DTS Sentinel unit serial number:	SN413079Multiplexer serial number:	ORYXHardware model number:	OX4-SRSoftware version number:	ORYX F/W v4.00 Oryx Data Collector v3.7.2.0data status	okinstallation	princeton_trtdifferential loss correction	single-endedforward channel	channel 3reverse channel	N/Adate	2019/09/13time	14:20:35forward acquisition time	60.00reverse acquisition time	0.00gamma	496.2192k internal	0.2302k external	0.2302temperature offset calibration	1.0142default loss term (dB/km)	0.3790temperature slope calibration	1.0000multiplexer offset coefficient	1.0000multiplexer slope coefficient	1.0000fibre end	0.00T internal ref (°C)	35.27T ext. ref 1 (°C)	4.61T ext. ref 2 (°C)	31.19length (m)	temperature (°C)	Stokes	anti-Stokes-747.200	175.061	0.183	0.271
-746.185	578.215	-0.045	0.113
-745.171	-141.705	-0.385	0.039
-744.156	790.610	-0.054	-0.152
-743.142	159.175	-0.148	0.209
-742.127	-193.352	0.130	0.001
-741.112	-83.918	0.104	-0.034
-740.098	-200.000	0.065	0.307
-739.083	-85.297	-0.218	-0.069
-738.069	-200.000	-0.044	0.278
-737.054	399.573	-0.259	-0.553
-736.039	-30.900	-0.350	-0.201
-735.025	4.126	0.065	0.049
-734.010	-82.135	-0.567	-0.189
-732.996	-118.546	0.264	-0.048
-731.981	-9.478	-0.174	0.118
-730.966	57.200	0.151	0.150
-729.952	-160.652	-0.258	-0.014
-728.937	112.622	0.083	0.102
-727.923	-106.329	-0.299	-0.068
-726.908	-41.415	-0.195	-0.102
-725.894	800.000	-0.116	0.353
-724.879	800.000	0.013	-0.044
-723.864	-56.652	-0.339	-0.153
-722.850	24.665	0.037	-0.032
-721.835	-93.406	-0.248	-0.070
-720.821	-75.323	-0.230	-0.084
-719.806	-7.995	-0.117	-0.080
-718.791	41.791	0.032	-0.029
-717.777	-100.998	-0.566	-0.141
-716.762	800.000	-0.043	0.183
-715.748	306.206	0.125	-0.237
-714.733	-71.375	-0.308	0.117
-713.718	742.847	0.116	-0.317
-712.704	175.713	0.112	-0.166
-711.689	-88.636	0.292	-0.089
-710.675	184.033	-0.175	-0.264
-709.660	800.000	-0.135	-0.420
-708.645	18.478	-0.147	0.120
-707.631	71.753	0.099	0.105
-706.616	-200.000	-0.079	-0.364
-705.602	-23.086	-0.128	0.078
-704.587	-49.743	0.122	-0.059
-703.572	151.288	0.118	0.164
-702.558	15.080	-0.165	0.132
-701.543	-200.000	0.006	-0.149
-700.529	-52.561	-0.156	-0.073
-699.514	-136.416	0.271	-0.032
-698.499	181.744	0.078	-0.116
-697.485	160.419	0.115	0.163
-696.470	58.278	-0.188	0.188
-695.456	-200.000	-0.009	-0.156
-694.441	800.000	-0.052	-0.166
-693.426	51.071	0.117	-0.113
-692.412	133.736	0.059	-0.077
-691.397	-6.391	0.046	0.032
-690.383	176.420	0.080	0.119
-689.368	-164.214	-0.181	-0.008
-688.354	499.175	-0.127	0.298
-687.339	-124.570	0.126	0.020
-686.324	-145.388	0.254	-0.023
-685.310	102.526	-0.130	-0.154
-684.295	-17.380	0.040	-0.025
-683.281	800.000	-0.025	-0.082
-682.266	68.504	-0.274	-0.285
-681.251	-51.069	-0.219	0.104
-680.237	642.578	0.095	0.247
-679.222	79.946	0.211	0.230
-678.208	212.737	-0.162	0.260
-677.193	4.885	-0.113	-0.085
-676.178	-200.000	0.002	0.305
-675.164	-200.000	-0.012	0.155
-674.149	-139.650	-0.122	0.013
-673.135	-179.040	0.044	0.001
-672.120	-62.892	0.069	-0.029
-671.105	-60.901	0.211	-0.091
-670.091	-200.000	-0.010	-0.135
-669.076	652.335	-0.168	-0.439
-668.062	170.979	-0.057	0.083
-667.047	212.845	-0.134	-0.216
-666.032	-84.211	-0.500	-0.161
-665.018	106.413	0.091	-0.109
-664.003	-134.397	0.275	-0.034
-662.989	-110.182	0.219	0.046
-661.974	-200.000	0.239	-0.000
-660.959	227.672	-0.130	-0.215
-659.945	5.296	-0.046	-0.034
-658.930	502.804	0.090	0.210
-657.916	-18.803	0.102	0.065
-656.901	-99.062	-0.248	-0.064
-655.886	-125.565	-0.237	-0.037
-654.872	-200.000	0.050	0.223
-653.857	5.524	-0.112	-0.084
-652.843	800.000	-0.056	-0.164
-651.828	185.699	-0.123	0.185
-650.814	-140.255	0.161	-0.017
-649.799	-30.465	0.127	0.073
-648.784	-200.000	0.004	-0.115
-647.770	475.230	0.124	-0.284
-646.755	-152.440	0.128	0.009
-645.741	4.285	-0.197	-0.147
-644.726	-200.000	-0.022	-0.481
-643.711	-75.788	0.305	0.110
-642.697	-200.000	0.004	-0.096
-641.682	-78.617	-0.235	0.081
-640.668	81.111	-0.059	0.064
-639.653	-163.679	0.055	-0.003
-638.638	384.155	-0.100	-0.208
-637.624	-144.359	-0.168	0.016
-636.609	10.591	-0.137	-0.106
-635.595	-31.200	0.139	0.080
-634.580	-20.462	-0.365	-0.228
-633.565	454.695	0.093	0.210
-632.551	195.094	-0.132	0.203
-631.536	-200.000	-0.015	0.197
-630.522	800.000	0.042	-0.164
-629.507	349.042	0.117	-0.234
-628.492	7.159	0.061	0.046
-627.478	-200.000	0.001	-0.045
-626.463	-122.967	-0.063	-0.010
-625.449	799.241	-0.151	-0.424
-624.434	-108.354	0.058	-0.013
-623.419	-70.765	-0.203	0.078
-622.405	-200.000	0.018	-0.150
-621.390	-138.689	0.255	-0.028
-620.376	-32.926	0.203	-0.114
-619.361	800.000	-0.037	-0.125
-618.346	-45.622	0.284	-0.142
-617.332	-89.646	-0.143	0.043
-616.317	454.905	-0.126	0.283
-615.303	175.385	0.086	0.126
-614.288	121.734	0.070	-0.089
-613.273	-200.000	0.025	0.250
-612.259	800.000	0.071	-0.202
-611.244	-43.914	0.233	-0.119
-610.230	310.275	-0.116	-0.221
-609.215	97.652	0.072	0.084
-608.201	163.812	0.164	-0.233
-607.186	-162.063	0.130	-0.007
-606.171	547.632	0.128	0.310
-605.157	-200.000	0.004	-0.036
-604.142	486.258	-0.069	0.159
-603.128	-54.394	0.229	0.105
-602.113	800.000	-0.040	0.161
-601.098	295.444	-0.121	0.224
-600.084	31.760	0.117	-0.102
-599.069	-156.913	-0.231	-0.014
-598.055	43.288	0.126	0.117
-597.040	40.383	0.122	0.111
-596.025	-200.000	-0.026	-0.283
-595.011	304.359	0.116	-0.219
-593.996	-106.052	-0.026	0.006
-592.982	800.000	0.034	-0.113
-591.967	800.000	-0.038	-0.110
-590.952	-115.782	-0.163	-0.031
-589.938	60.771	-0.071	0.071
-588.923	56.356	-0.208	-0.204
-587.909	-70.825	-0.167	0.064
-586.894	67.808	0.056	-0.058
-585.879	135.282	0.164	-0.216
-584.865	-3.900	0.204	-0.143
-583.850	310.844	-0.109	0.207
-582.836	121.391	-0.076	0.096
-581.821	40.034	-0.218	-0.199
-580.806	-175.230	0.206	-0.006
-579.792	121.496	0.179	-0.226
-578.777	-42.713	-0.240	0.124
-577.763	800.000	-0.047	0.206
-576.748	153.740	-0.151	0.210
-575.733	-123.562	-0.067	0.011
-574.719	-122.971	-0.256	0.042
-573.704	-173.892	-0.480	0.014
-572.690	27.064	0.268	0.228
-571.675	-160.310	-0.242	-0.013
-570.661	242.202	-0.114	0.193
-569.646	-47.143	-0.048	0.024
-568.631	503.179	0.107	-0.250
-567.617	130.014	0.194	-0.251
-566.602	239.087	0.132	-0.222
-565.588	462.063	0.108	-0.245
-564.573	-155.778	0.170	0.011
-563.558	-56.773	-0.142	-0.063
-562.544	57.925	0.114	0.113
-561.529	-64.792	0.017	0.007
-560.515	61.710	0.048	-0.049
-559.500	185.860	0.067	-0.101
-558.485	-26.198	-0.268	0.160
-557.471	726.553	-0.054	-0.145
-556.456	-95.281	-0.177	-0.048
-555.442	-200.000	-0.010	-0.274
-554.427	-25.202	-0.096	0.057
-553.412	-166.956	0.097	-0.004
-552.398	-176.283	0.038	-0.001
-551.383	426.496	-0.066	0.144
-550.369	-200.000	0.001	0.054
-549.354	-200.000	0.003	-0.066
-548.339	-105.980	-0.096	0.022
-547.325	125.126	-0.266	0.339
-546.310	800.000	0.024	0.097
-545.296	486.439	0.051	0.117
-544.281	576.040	-0.102	-0.251
-543.266	-109.125	0.277	-0.059
-542.252	101.609	0.183	-0.216
-541.237	168.913	0.127	-0.183
-540.223	800.000	0.073	-0.211
-539.208	89.874	0.099	-0.111
-538.193	71.812	-0.300	-0.315
-537.179	449.900	0.033	-0.073
-536.164	69.198	0.153	0.159
-535.150	-37.256	0.193	-0.104
-534.135	-8.100	0.347	-0.237
-533.121	-200.000	-0.049	0.287
-532.106	-92.119	-0.405	-0.116
-531.091	-186.378	0.120	0.002
-530.077	283.379	0.131	0.238
-529.062	34.024	-0.255	-0.224
-528.048	-37.128	-0.154	-0.083
-527.033	270.201	0.153	0.272
-526.018	-108.772	0.127	-0.027
-525.004	50.711	0.084	0.080
-523.989	-117.669	0.252	-0.046
-522.975	-142.879	-0.142	-0.014
-521.960	-34.634	-0.153	0.084
-520.945	-129.554	-0.197	0.028
-519.931	83.521	0.082	0.090
-518.916	-64.892	-0.383	-0.156
-517.902	26.795	0.168	0.142
-516.887	41.611	-0.088	-0.081
-515.872	64.850	-0.096	0.097
-514.858	-126.006	0.285	-0.043
-513.843	-50.088	-0.176	0.084
-512.829	355.823	-0.047	0.094
-511.814	-109.389	-0.136	0.029
-510.799	513.134	0.039	0.093
-509.785	-113.982	0.281	-0.055
-508.770	5.212	-0.102	0.076
-507.756	171.478	0.072	0.104
-506.741	800.000	-0.031	0.122
-505.726	-110.890	-0.517	0.107
-504.712	125.884	0.230	-0.294
-503.697	800.000	0.021	0.062
-502.683	-126.044	-0.403	0.061
-501.668	-200.000	-0.014	0.143
-500.653	673.784	-0.019	-0.050
-499.639	-200.000	0.010	-0.073
-498.624	800.000	0.122	-0.353
-497.610	800.000	0.038	-0.146
-496.595	-145.094	0.318	0.029
-495.581	6.047	-0.135	0.101
-494.566	-7.983	-0.208	0.142
-493.551	-87.259	-0.028	-0.008
-492.537	-200.000	-0.011	-0.063
-491.522	544.295	0.099	0.239
-490.508	59.757	0.198	0.197
-489.493	-200.000	0.008	-0.252
-488.478	207.836	0.086	-0.135
-487.464	123.846	0.138	0.175
-486.449	-16.523	-0.393	-0.251
-485.435	-200.000	-0.019	0.094
-484.420	-33.167	0.171	-0.096
-483.405	312.644	0.120	-0.227
-482.391	-200.000	-0.011	0.216
-481.376	428.717	0.061	0.134
-480.362	-167.814	-0.010	0.000
-479.347	430.237	0.037	-0.081
-478.332	-100.789	0.123	-0.031
-477.318	-200.000	0.026	-0.239
-476.303	-200.000	-0.048	-0.240
-475.289	800.000	0.052	-0.158
-474.274	73.288	0.280	-0.296
-473.259	-200.000	-0.021	-0.190
-472.245	800.000	-0.041	-0.133
-471.230	34.884	-0.176	0.155
-470.216	-147.925	-0.167	0.014
-469.201	-63.436	-0.214	-0.089
-468.186	470.360	-0.093	-0.210
-467.172	800.000	-0.050	0.144
-466.157	46.970	0.198	0.185
-465.143	-200.000	0.002	0.198
-464.128	-82.331	-0.175	-0.057
-463.113	74.390	-0.032	0.033
-462.099	-62.744	-0.231	0.096
-461.084	-200.000	-0.018	-0.186
-460.070	198.042	0.168	0.258
-459.055	800.000	0.045	0.195
-458.040	-68.827	-0.143	-0.056
-457.026	-93.035	-0.237	0.066
-456.011	3.586	0.046	0.033
-454.997	-51.853	0.215	0.101
-453.982	745.641	0.131	0.356
-452.968	-60.334	0.052	0.022
-451.953	-42.486	0.394	0.203
-450.938	-88.710	-0.104	0.031
-449.924	-106.170	0.495	-0.112
-448.909	-33.511	-0.168	-0.093
-447.895	117.447	-0.255	-0.316
-446.880	146.448	0.052	0.071
-445.865	113.918	0.090	-0.111
-444.851	166.513	-0.011	-0.016
-443.836	-200.000	-0.030	0.000
-442.822	404.235	0.071	-0.150
-441.807	-200.000	-0.016	0.406
-440.792	55.239	0.211	0.206
-439.778	162.992	-0.125	-0.176
-438.763	346.508	0.055	-0.110
-437.749	-200.000	0.003	0.240
-436.734	47.619	-0.189	0.178
-435.719	-39.755	-0.174	0.092
-434.705	542.850	0.014	-0.034
-433.690	-200.000	-0.012	-0.337
-432.676	-4.556	0.225	-0.156
-431.661	-200.000	0.005	0.272
-430.646	800.000	0.078	-0.219
-429.632	-200.000	-0.040	-0.456
-428.617	-200.000	0.050	-0.259
-427.603	-37.879	0.224	0.120
-426.588	-3.455	-0.284	0.199
-425.573	800.000	0.091	0.252
-424.559	-200.000	0.023	0.575
-423.544	-87.632	-0.259	0.079
-422.530	55.099	-0.207	0.201
-421.515	-19.593	0.208	-0.130
-420.500	-141.053	-0.102	0.011
-419.486	800.000	0.072	0.313
-418.471	76.565	-0.072	0.077
-417.457	179.425	-0.010	-0.015
-416.442	-34.600	-0.042	0.023
-415.428	110.305	0.022	-0.027
-414.413	-97.169	-0.060	-0.016
-413.398	501.304	0.099	-0.229
-412.384	-2.951	-0.216	0.151
-411.369	-93.670	0.176	0.049
-410.355	-200.000	0.005	-0.055
-409.340	-192.017	0.195	0.002
-408.325	-164.766	-0.285	-0.013
-407.311	89.499	0.365	-0.410
-406.296	800.000	-0.009	0.039
-405.282	-68.495	-0.442	0.172
-404.267	800.000	-0.071	-0.231
-403.252	-200.000	-0.043	-0.303
-402.238	-114.705	-0.222	0.043
-401.223	-52.571	0.240	-0.112
-400.209	-200.000	-0.047	-0.299
-399.194	513.674	0.071	0.167
-398.179	-27.669	0.075	0.044
-397.165	-200.000	0.003	0.273
-396.150	214.762	0.126	0.201
-395.136	267.322	0.038	-0.066
-394.121	5.466	0.074	0.055
-393.106	632.839	0.178	0.455
-392.092	-200.000	-0.027	0.119
-391.077	82.962	-0.099	0.108
-390.063	-149.751	0.383	-0.030
-389.048	-6.993	0.143	0.097
-388.033	-33.926	0.199	0.110
-387.019	-200.000	-0.100	-0.464
-386.004	459.692	0.110	-0.246
-384.990	800.000	-0.057	0.232
-383.975	-99.321	-0.095	0.024
-382.960	134.800	-0.082	-0.106
-381.946	-200.000	-0.011	0.252
-380.931	-200.000	-0.028	-0.220
-379.917	-142.794	0.417	0.041
-378.902	-200.000	0.043	-0.384
-377.888	-94.153	-0.263	-0.072
-376.873	-159.475	-0.281	-0.016
-375.858	199.955	0.100	0.155
-374.844	-63.267	0.052	-0.022
-373.829	800.000	-0.039	0.149
-372.815	188.345	-0.092	-0.138
-371.800	-70.124	-0.143	-0.055
-370.785	-200.000	-0.001	-0.355
-369.771	-200.000	0.056	-0.290
-368.756	-200.000	0.019	0.109
-367.742	-42.362	0.156	-0.080
-366.727	567.492	-0.074	0.179
-365.712	-106.240	-0.015	-0.003
-364.698	-162.834	0.230	0.011
-363.683	-57.710	-0.198	-0.087
-362.669	800.000	-0.094	0.302
-361.654	-200.000	-0.067	0.322
-360.639	-72.720	0.166	0.062
-359.625	-97.621	0.236	-0.061
-358.610	-156.855	0.336	0.021
-357.596	84.529	0.045	0.049
-356.581	-34.501	-0.337	-0.185
-355.566	81.304	-0.183	-0.198
-354.552	-82.615	0.267	-0.087
-353.537	-79.477	0.352	-0.120
-352.523	-66.677	0.143	0.057
-351.508	800.000	-0.027	0.112
-350.493	136.272	-0.107	0.140
-349.479	-23.581	-0.108	-0.065
-348.464	12.269	-0.063	0.049
-347.450	56.691	0.093	-0.091
-346.435	-36.498	-0.107	0.058
-345.420	-26.271	0.314	0.185
-344.406	14.197	-0.219	-0.171
-343.391	93.797	0.235	-0.268
-342.377	420.950	0.116	0.250
-341.362	-36.672	-0.216	-0.117
-340.348	-200.000	0.060	-0.378
-339.333	-41.830	-0.134	-0.069
-338.318	-44.369	-0.122	0.062
-337.304	93.163	0.154	-0.175
-336.289	354.916	0.116	-0.230
-335.275	-98.703	-0.159	0.041
-334.260	172.609	0.135	-0.194
-333.245	-56.817	-0.213	-0.094
-332.231	-200.000	0.004	0.114
-331.216	665.635	0.081	0.209
-330.202	-52.950	-0.202	0.093
-329.187	-126.811	0.276	0.041
-328.172	618.203	-0.019	-0.049
-327.158	-76.531	-0.331	0.116
-326.143	171.336	-0.112	-0.161
-325.129	67.492	-0.134	-0.137
-324.114	-40.241	0.329	0.171
-323.099	-200.000	-0.054	0.364
-322.085	97.749	0.182	0.210
-321.070	-86.173	-0.263	0.081
-320.056	800.000	0.087	-0.303
-319.041	-43.461	0.168	-0.085
-318.026	-200.000	0.001	-0.036
-317.012	769.637	-0.029	-0.079
-315.997	103.572	0.095	-0.112
-314.983	19.298	-0.205	-0.165
-313.968	429.397	-0.050	0.109
-312.953	380.435	-0.138	0.283
-311.939	-200.000	0.001	-0.101
-310.924	-200.000	-0.040	0.289
-309.910	184.621	0.101	-0.150
-308.895	-200.000	-0.009	-0.097
-307.880	-34.619	-0.175	0.096
-306.866	800.000	0.011	0.035
-305.851	126.131	0.237	0.300
-304.837	800.000	-0.079	-0.347
-303.822	250.822	-0.015	0.025
-302.807	16.799	-0.024	-0.019
-301.793	-118.247	0.029	0.005
-300.778	-93.742	-0.213	0.059
-299.764	-86.445	0.158	0.048
-298.749	-200.000	0.086	0.392
-297.735	-1.723	0.186	0.131
-296.720	-114.922	-0.254	0.048
-295.705	763.321	-0.028	0.076
-294.691	-99.343	0.277	-0.070
-293.676	787.999	-0.026	0.072
-292.662	-121.187	0.368	-0.062
-291.647	-51.050	0.352	0.165
-290.632	-67.984	-0.196	-0.076
-289.618	285.250	-0.169	0.305
-288.603	-200.000	-0.035	-0.434
-287.589	124.609	-0.100	0.126
-286.574	286.025	0.148	0.267
-285.559	602.371	0.058	-0.143
-284.545	-200.000	-0.017	0.095
-283.530	128.174	0.076	-0.097
-282.516	-200.000	-0.013	-0.072
-281.501	-200.000	-0.018	0.177
-280.486	800.000	0.018	-0.051
-279.472	-200.000	-0.033	0.412
-278.457	410.892	-0.072	-0.153
-277.443	-200.000	-0.001	0.015
-276.428	800.000	-0.058	-0.238
-275.413	-200.000	-0.025	-0.121
-274.399	361.049	0.120	-0.241
-273.384	-99.411	-0.109	-0.027
-272.370	113.257	-0.071	-0.086
-271.355	-21.042	0.288	0.176
-270.340	36.539	-0.243	0.214
-269.326	77.571	-0.110	0.117
-268.311	-130.170	0.312	0.043
-267.297	93.214	0.057	0.065
-266.282	-104.804	-0.190	0.044
-265.267	-90.412	0.065	0.019
-264.253	58.324	-0.281	0.276
-263.238	10.607	0.119	-0.090
-262.224	-151.938	0.203	-0.015
-261.209	133.306	0.063	0.081
-260.195	535.163	0.103	-0.243
-259.180	-147.824	-0.308	0.026
-258.165	716.590	-0.073	0.194
-257.151	28.093	-0.150	-0.127
-256.136	94.772	0.089	-0.101
-255.122	-200.000	-0.035	0.299
-254.107	323.498	-0.157	-0.299
-253.092	184.032	-0.076	-0.112
-252.078	-24.355	-0.132	-0.079
-251.063	797.378	-0.110	0.303
-250.049	-200.000	-0.006	0.083
-249.034	-200.000	0.007	-0.051
-248.019	-200.000	-0.030	0.140
-247.005	14.252	-0.257	-0.200
-245.990	-200.000	-0.005	0.137
-244.976	-35.903	0.092	0.050
-243.961	-20.861	0.269	0.165
-242.946	-200.000	-0.016	0.094
-241.932	-57.213	-0.291	-0.128
-240.917	-105.731	-0.274	0.062
-239.903	-200.000	-0.010	0.107
-238.888	-46.231	0.120	0.059
-237.873	-42.726	0.280	0.142
-236.859	113.002	0.261	0.316
-235.844	539.649	0.051	0.121
-234.830	-200.000	0.051	0.370
-233.815	10.088	-0.072	-0.055
-232.800	-200.000	0.012	-0.171
-231.786	159.428	-0.082	0.115
-230.771	-29.305	0.284	-0.163
-229.757	188.760	0.038	-0.057
-228.742	-107.168	-0.186	0.041
-227.727	91.695	-0.106	0.119
-226.713	287.359	0.181	0.327
-225.698	-76.653	0.132	0.046
-224.684	159.055	-0.205	0.285
-223.669	165.326	0.030	-0.042
-222.655	-64.071	0.095	0.039
-221.640	404.957	-0.107	-0.226
-220.625	-200.000	0.018	0.079
-219.611	-137.076	0.099	0.011
-218.596	376.121	-0.097	0.198
-217.582	147.838	0.108	0.146
-216.567	126.841	-0.098	-0.124
-215.552	102.585	0.116	-0.136
-214.538	92.013	-0.183	-0.205
-213.523	26.357	-0.080	0.067
-212.509	-200.000	-0.030	0.205
-211.494	-51.800	0.114	0.053
-210.479	-200.000	-0.109	-0.480
-209.465	800.000	0.023	0.089
-208.450	800.000	-0.036	0.109
-207.436	-27.411	-0.154	-0.089
-206.421	-40.084	0.078	-0.041
-205.406	22.696	-0.155	0.127
-204.392	112.505	0.163	0.197
-203.377	89.935	0.059	0.066
-202.363	-53.233	-0.254	0.116
-201.348	-95.020	-0.318	-0.086
-200.333	16.524	0.210	-0.166
-199.319	-200.000	0.018	-0.399
-198.304	414.422	0.039	0.082
-197.290	-121.576	0.161	0.027
-196.275	-78.268	-0.278	-0.095
-195.260	-43.573	0.430	-0.216
-194.246	-138.634	0.174	-0.019
-193.231	-200.000	-0.060	-0.275
-192.217	-54.479	-0.098	-0.044
-191.202	800.000	-0.070	0.296
-190.187	800.000	-0.020	-0.073
-189.173	-200.000	-0.059	0.372
-188.158	-70.746	0.292	-0.110
-187.144	251.480	-0.078	0.133
-186.129	800.000	-0.109	0.305
-185.114	-0.151	-0.405	-0.288
-184.100	62.204	-0.169	0.168
-183.085	-200.000	0.038	0.222
-182.071	129.288	0.123	-0.157
-181.056	-80.174	0.188	0.063
-180.042	28.655	0.219	0.185
-179.027	-105.992	0.071	0.016
-178.012	-200.000	-0.002	0.178
-176.998	-200.000	0.009	0.066
-175.983	63.507	-0.054	0.054
-174.969	606.642	-0.031	0.077
-173.954	800.000	-0.134	-0.385
-172.939	48.528	0.203	-0.189
-171.925	-5.579	0.076	0.052
-170.910	800.000	0.019	-0.075
-169.896	800.000	0.085	0.292
-168.881	-165.790	0.210	-0.009
-167.866	800.000	-0.069	-0.205
-166.852	800.000	0.026	-0.096
-165.837	-200.000	-0.045	0.238
-164.823	-132.580	-0.167	-0.021
-163.808	-168.532	-0.362	0.014
-162.793	-3.805	0.278	-0.192
-161.779	6.335	-0.100	-0.074
-160.764	-200.000	-0.024	-0.200
-159.750	-50.731	-0.241	0.113
-158.735	-119.661	-0.196	0.034
-157.720	-16.146	-0.267	0.169
-156.706	-115.932	0.213	0.040
-155.691	77.860	-0.217	0.231
-154.677	24.090	0.267	-0.219
-153.662	800.000	0.014	0.056
-152.647	-26.736	0.083	-0.048
-151.633	93.525	-0.115	-0.129
-150.618	21.581	-0.039	0.032
-149.604	-0.154	-0.057	-0.040
-148.589	-163.174	0.226	-0.011
-147.574	-200.000	0.050	0.224
-146.560	-200.000	0.005	0.178
-145.545	-200.000	0.025	-0.214
-144.531	-75.289	0.068	0.024
-143.516	457.256	0.080	0.177
-142.502	7.226	0.111	0.082
-141.487	-64.882	0.268	0.108
-140.472	-166.576	-0.114	-0.005
-139.458	207.068	0.127	-0.197
-138.443	683.208	-0.175	-0.455
-137.429	600.313	0.073	0.180
-136.414	-200.000	-0.029	0.370
-135.399	22.078	0.143	0.116
-134.385	-123.623	-0.187	0.030
-133.370	-74.968	0.114	-0.041
-132.356	-200.000	-0.009	-0.048
-131.341	-200.000	-0.074	-0.416
-130.326	-145.038	-0.290	0.026
-129.312	107.393	0.146	-0.172
-128.297	-200.000	0.066	-0.399
-127.283	-200.000	-0.041	0.211
-126.268	-200.000	0.023	-0.215
-125.253	-200.000	-0.035	0.491
-124.239	-200.000	-0.030	0.195
-123.224	800.000	0.103	0.283
-122.210	-150.595	-0.255	-0.019
-121.195	-200.000	-0.034	-0.242
-120.180	-200.000	-0.013	0.208
-119.166	-66.235	-0.266	-0.105
-118.151	-200.000	-0.037	0.292
-117.137	31.984	0.096	0.082
-116.122	173.163	-0.087	0.125
-115.107	22.814	0.108	0.088
-114.093	48.912	0.083	0.077
-113.078	800.000	0.053	0.145
-112.064	66.403	-0.134	-0.135
-111.049	-155.130	0.244	-0.016
-110.034	-200.000	-0.030	-0.270
-109.020	-18.909	0.093	0.057
-108.005	36.364	-0.331	0.290
-106.991	348.756	0.106	0.208
-105.976	-48.369	0.052	-0.025
-104.962	-200.000	0.013	0.215
-103.947	239.723	-0.081	-0.135
-102.932	24.022	-0.253	0.207
-101.918	377.735	0.075	-0.151
-100.903	-68.413	-0.300	-0.116
-99.889	193.005	0.118	0.177
-98.874	323.064	-0.154	0.292
-97.859	800.000	0.045	0.180
-96.845	384.011	-0.111	-0.228
-95.830	24.260	-0.059	-0.048
-94.816	-200.000	-0.028	0.268
-93.801	-35.744	0.371	0.200
-92.786	-88.820	-0.339	-0.100
-91.772	78.589	-0.161	-0.171
-90.757	185.845	0.052	-0.077
-89.743	-142.624	-0.197	-0.019
-88.728	-6.526	-0.244	0.165
-87.713	-94.263	-0.229	-0.062
-86.699	248.822	0.039	0.066
-85.684	-129.617	0.352	0.048
-84.670	39.990	0.215	0.192
-83.655	35.856	0.072	0.063
-82.640	114.368	-0.297	-0.359
-81.626	-200.000	-0.037	-0.294
-80.611	-200.000	0.016	-0.122
-79.597	168.036	-0.003	-0.005
-78.582	53.395	0.307	0.292
-77.567	-200.000	-0.212	0.000
-76.553	-55.910	-0.280	0.124
-75.538	-200.000	0.018	0.349
-74.524	111.446	-0.194	-0.232
-73.509	800.000	0.053	0.214
-72.494	-184.958	0.358	0.006
-71.480	800.000	0.048	0.159
-70.465	-0.613	0.159	-0.112
-69.451	-200.000	0.003	0.146
-68.436	-41.488	0.267	0.136
-67.422	800.000	-0.167	-0.578
-66.407	85.579	-0.180	0.197
-65.392	598.490	0.028	-0.068
-64.378	-50.507	0.123	0.057
-63.363	435.335	0.137	-0.295
-62.349	-132.350	-0.093	-0.012
-61.334	8.217	-1.081	-0.806
-60.319	-5.790	0.238	0.162
-59.305	-200.000	0.141	-0.924
-58.290	334.942	0.522	1.004
-57.276	800.000	0.444	1.668
-56.261	-200.000	94.322	557.784
-55.246	627.928	1382.841	3465.584
-54.232	185.821	2602.575	3837.200
-53.217	121.360	2215.996	2738.056
-52.203	45.746	1748.374	1603.116
-51.188	38.365	1557.183	1376.073
-50.173	35.965	1529.303	1334.769
-49.159	53.667	1579.951	1504.185
-48.144	57.322	1598.417	1547.477
-47.130	38.765	1554.627	1376.405
-46.115	35.620	1538.357	1340.055
-45.100	35.319	1535.528	1335.442
-44.086	35.330	1533.849	1334.007
-43.071	35.262	1531.425	1331.374
-42.057	35.226	1529.960	1329.796
-41.042	35.282	1528.321	1328.708
-40.027	35.254	1527.219	1327.503
-39.013	35.273	1525.358	1325.964
-37.998	35.249	1524.812	1325.271
-36.984	35.277	1523.228	1324.033
-35.969	35.284	1521.787	1322.776
-34.954	35.231	1520.324	1321.084
-33.940	35.210	1518.901	1319.650
-32.925	35.243	1517.598	1318.699
-31.911	35.293	1516.384	1317.932
-30.896	35.341	1515.029	1317.033
-29.881	35.220	1514.109	1315.348
-28.867	35.376	1511.902	1314.449
-27.852	35.294	1510.567	1312.672
-26.838	35.346	1508.875	1311.506
-25.823	35.291	1507.769	1310.121
-24.809	35.309	1506.038	1308.684
-23.794	35.272	1504.811	1307.313
-22.779	35.276	1503.534	1306.180
-21.765	35.318	1502.814	1305.793
-20.750	35.370	1501.001	1304.520
-19.736	35.328	1500.107	1303.402
-18.721	35.303	1499.148	1302.349
-17.706	35.235	1497.665	1300.547
-16.692	35.312	1496.801	1300.269
-15.677	35.224	1495.953	1298.883
-14.663	35.310	1494.716	1298.335
-13.648	35.222	1494.004	1297.075
-12.633	35.176	1493.053	1295.887
-11.619	35.229	1492.021	1295.298
-10.604	35.189	1491.134	1294.207
-9.590	35.248	1490.123	1293.670
-8.575	35.229	1489.729	1293.150
-7.560	35.272	1488.375	1292.214
-6.546	35.255	1487.477	1291.267
-5.531	35.273	1486.670	1290.636
-4.517	35.213	1485.746	1289.384
-3.502	35.202	1485.048	1288.650
-2.487	35.243	1483.776	1287.772
-1.473	35.140	1483.045	1286.392
-0.458	35.221	1481.024	1285.135
0.556	37.248	1471.734	1274.340
1.571	34.176	1444.335	1230.685
2.586	29.909	1379.894	1149.245
3.600	27.534	1294.976	1064.565
4.615	25.166	1246.785	1011.522
5.629	21.168	1189.055	943.048
6.644	12.597	1103.563	832.009
7.659	5.930	1061.177	767.473
8.673	4.801	1054.850	757.341
9.688	4.651	1051.591	754.208
10.702	4.390	1050.447	752.053
11.717	4.608	1049.184	752.140
12.731	7.725	1052.692	769.694
13.746	16.218	1064.141	819.404
14.761	21.798	1071.389	852.110
15.775	22.120	1070.427	852.836
16.790	21.326	1068.722	847.554
17.804	20.449	1066.521	841.487
18.819	19.491	1064.528	835.206
19.834	18.962	1063.542	831.797
20.848	18.764	1062.493	829.948
21.863	18.621	1062.273	829.011
22.877	18.558	1060.986	827.628
23.892	18.363	1060.253	826.045
24.907	18.378	1059.630	825.558
25.921	18.303	1058.709	824.407
26.936	18.151	1058.367	823.338
27.950	18.164	1057.205	822.420
28.965	18.293	1056.096	822.103
29.980	18.472	1054.639	821.758
30.994	18.553	1053.656	821.307
32.009	18.609	1052.875	820.894
33.023	18.641	1052.205	820.449
34.038	18.723	1051.276	820.047
35.053	18.473	1050.611	818.263
36.067	18.428	1049.112	816.805
37.082	18.398	1048.328	815.981
38.096	18.366	1047.773	815.324
39.111	18.484	1047.325	815.464
40.126	18.591	1046.429	815.204
41.140	18.603	1044.773	813.898
42.155	18.185	1043.863	811.135
43.169	18.028	1042.986	809.641
44.184	17.839	1041.768	807.726
45.199	17.929	1040.849	807.367
46.213	18.060	1039.394	806.787
47.228	18.107	1038.501	806.246
48.242	18.383	1037.858	806.974
49.257	18.409	1037.260	806.560
50.271	18.303	1036.200	805.165
51.286	18.334	1035.099	804.385
52.301	18.416	1034.991	804.617
53.315	18.503	1033.786	804.017
54.330	18.272	1032.828	802.115
55.344	18.172	1031.633	800.648
56.359	18.087	1030.831	799.561
57.374	18.160	1029.814	799.040
58.388	18.139	1028.906	798.166
59.403	18.091	1028.128	797.267
60.417	17.958	1027.141	795.813
61.432	17.935	1026.650	795.256
62.447	17.975	1026.126	794.967
63.461	18.030	1024.823	794.143
64.476	17.896	1023.987	792.800
65.490	17.913	1023.106	792.130
66.505	17.785	1022.436	790.945
67.520	17.851	1021.237	790.253
68.534	17.874	1020.767	789.926
69.549	17.816	1019.789	788.832
70.563	17.887	1019.236	788.660
71.578	17.920	1018.091	787.859
72.593	17.701	1017.620	786.414
73.607	17.646	1016.276	785.054
74.622	17.590	1015.562	784.173
75.636	17.684	1014.507	783.720
76.651	17.692	1013.945	783.256
77.666	17.630	1013.567	782.609
78.680	17.734	1012.584	782.258
79.695	17.779	1011.912	781.874
80.709	17.771	1011.123	781.163
81.724	17.948	1010.532	781.445
82.739	17.949	1010.152	781.088
83.753	18.041	1009.387	780.845
84.768	18.166	1008.914	780.983
85.782	18.452	1008.354	781.786
86.797	18.708	1007.496	782.216
87.812	18.569	1007.178	781.268
88.826	18.455	1005.829	779.634
89.841	18.411	1004.781	778.554
90.855	18.552	1003.860	778.409
91.870	18.619	1003.439	778.317
92.884	18.543	1002.788	777.400
93.899	18.679	1001.997	777.336
94.914	18.572	1001.319	776.253
95.928	18.570	1000.571	775.600
96.943	18.791	999.350	775.583
97.957	18.575	998.628	773.975
98.972	18.380	998.311	772.782
99.987	18.400	997.647	772.290
101.001	18.577	996.805	772.366
102.016	18.548	995.863	771.439
103.030	18.592	994.577	770.573
104.045	18.547	994.060	769.904
105.060	18.529	993.387	769.233
106.074	18.535	991.813	767.970
107.089	18.235	991.093	766.002
108.103	17.942	990.173	763.913
109.118	17.913	988.875	762.716
110.133	17.861	987.893	761.657
111.147	17.853	987.062	760.914
112.162	17.746	986.334	759.810
113.176	17.805	985.717	759.532
114.191	17.917	984.926	759.352
115.206	18.029	984.062	759.115
116.220	18.136	983.004	758.707
117.235	17.981	982.350	757.449
118.249	17.943	981.734	756.736
119.264	17.915	980.671	755.729
120.279	18.021	979.220	755.010
121.293	17.918	978.298	753.778
122.308	17.835	977.652	752.848
123.322	17.860	976.857	752.280
124.337	17.644	976.034	750.628
125.352	17.767	974.831	750.176
126.366	17.655	974.000	748.979
127.381	17.592	973.185	748.009
128.395	17.654	971.870	747.202
129.410	17.659	971.413	746.807
130.424	17.772	969.953	746.115
131.439	17.890	969.309	746.067
132.454	17.924	968.884	745.825
133.468	17.968	968.151	745.386
134.483	18.027	967.543	745.110
135.497	18.116	966.939	744.964
136.512	18.131	966.018	744.256
137.527	18.180	965.412	743.935
138.541	18.058	964.463	742.611
139.556	18.046	963.937	742.088
140.570	18.188	962.958	741.881
141.585	18.246	962.273	741.543
142.600	18.378	961.690	741.599
143.614	18.483	961.295	741.681
144.629	18.520	960.286	740.999
145.643	18.737	959.234	741.059
146.658	18.611	958.680	740.019
147.673	18.357	958.069	738.387
148.687	18.179	957.026	736.754
149.702	18.124	955.612	735.364
150.716	18.111	954.654	734.502
151.731	18.055	953.750	733.500
152.746	18.166	953.301	733.569
153.760	18.131	952.622	732.831
154.775	18.159	952.009	732.413
155.789	18.305	951.319	732.444
156.804	18.363	950.144	731.724
157.819	18.336	949.603	731.125
158.833	18.359	949.026	730.714
159.848	18.488	948.271	730.619
160.862	18.653	947.628	730.762
161.877	18.595	947.282	730.185
162.892	18.243	946.171	727.764
163.906	18.061	944.761	725.842
164.921	17.982	944.053	724.900
165.935	18.051	942.841	724.199
166.950	18.186	941.771	723.883
167.964	18.268	941.072	723.630
168.979	18.249	940.714	723.211
169.994	18.360	938.942	722.249
171.008	18.178	938.286	720.915
172.023	18.225	937.794	720.672
173.037	18.335	937.164	720.588
174.052	18.628	936.527	721.263
175.067	18.517	935.405	719.872
176.081	18.336	934.397	718.270
177.096	18.009	933.778	716.364
178.110	18.058	932.737	715.704
179.125	18.183	931.932	715.546
180.140	18.155	931.836	715.291
181.154	18.035	931.126	714.183
182.169	18.334	930.420	714.829
183.183	18.396	929.923	714.639
184.198	18.510	929.152	714.459
185.213	18.432	928.637	713.676
186.227	18.538	927.859	713.454
187.242	18.584	927.394	713.227
188.256	18.686	926.875	713.188
189.271	18.636	926.488	712.621
190.286	18.894	925.498	712.867
191.300	18.577	924.659	710.841
192.315	18.250	923.219	708.321
193.329	17.996	922.435	706.604
194.344	18.102	921.743	706.452
195.359	18.090	921.353	706.038
196.373	18.234	921.075	706.357
197.388	18.431	920.538	706.697
198.402	18.618	920.070	707.043
199.417	18.618	919.990	706.921
200.432	18.820	919.655	707.434
201.446	18.877	919.303	707.334
202.461	19.024	918.716	707.425
203.475	19.056	918.422	707.268
204.490	19.194	917.138	706.781
205.504	18.878	916.404	704.858
206.519	18.803	915.028	703.430
207.534	18.759	914.229	702.575
208.548	18.664	913.718	701.731
209.563	18.638	913.440	701.350
210.577	18.603	912.789	700.643
211.592	18.683	911.965	700.275
212.607	18.883	911.937	701.009
213.621	18.914	911.395	700.658
214.636	19.047	910.288	700.283
215.650	18.889	909.914	699.293
216.665	18.915	909.011	698.643
217.680	19.027	908.805	698.877
218.694	19.011	908.488	698.504
219.709	19.029	907.986	698.131
220.723	19.141	906.979	697.748
221.738	19.082	906.271	696.905
222.753	19.116	905.676	696.521
223.767	18.966	905.028	695.357
224.782	19.086	904.236	695.170
225.796	19.171	903.354	694.771
226.811	19.122	903.088	694.310
227.826	19.202	902.258	693.932
228.840	18.930	901.668	692.324
229.855	18.936	900.804	691.623
230.869	18.998	899.818	691.051
231.884	18.998	899.442	690.702
232.899	18.904	898.749	689.734
233.913	18.839	898.300	689.067
234.928	18.882	897.188	688.323
235.942	18.761	896.221	687.038
236.957	18.809	895.593	686.689
237.972	18.690	895.231	685.873
238.986	18.728	894.321	685.269
240.001	18.797	893.859	685.128
241.015	18.734	893.638	684.648
242.030	18.855	892.452	684.160
243.045	18.954	891.910	684.077
244.059	19.130	891.244	684.205
245.074	18.960	890.811	683.136
246.088	19.198	890.460	683.751
247.103	19.130	889.683	682.824
248.117	19.148	889.510	682.702
249.132	19.276	889.306	682.994
250.147	19.602	888.395	683.526
251.161	19.768	888.122	683.910
252.176	19.742	887.446	683.225
253.190	19.989	886.618	683.502
254.205	20.000	886.422	683.334
255.220	19.837	886.013	682.316
256.234	19.855	885.093	681.618
257.249	19.800	884.703	681.041
258.263	19.840	884.206	680.758
259.278	19.760	883.362	679.731
260.293	19.922	882.696	679.793
261.307	19.844	882.326	679.145
262.322	20.010	881.719	679.268
263.336	20.125	881.287	679.327
264.351	20.084	880.294	678.341
265.366	20.068	880.007	677.994
266.380	20.153	878.944	677.448
267.395	20.113	878.823	677.141
268.409	19.969	877.696	675.647
269.424	19.856	876.900	674.536
270.439	19.864	876.227	673.991
271.453	19.992	875.140	673.593
272.468	19.919	874.034	672.398
273.482	19.652	874.401	671.581
274.497	19.761	873.661	671.378
275.512	19.752	872.767	670.598
276.526	19.801	871.976	670.118
277.541	19.796	871.346	669.559
278.555	19.826	870.916	669.282
279.570	19.983	870.618	669.601
280.585	19.998	870.272	669.335
281.599	20.132	869.496	669.198
282.614	19.939	869.050	668.049
283.628	19.659	868.703	666.642
284.643	19.897	867.781	666.793
285.657	19.854	867.367	666.253
286.672	19.976	866.404	665.921
287.687	19.895	866.245	665.430
288.701	19.809	865.934	664.800
289.716	19.926	865.209	664.634
290.730	19.959	864.401	664.081
291.745	20.021	863.558	663.613
292.760	20.045	863.030	663.241
293.774	20.026	862.496	662.698
294.789	20.332	862.027	663.448
295.803	20.264	861.817	662.968
296.818	20.017	860.988	661.332
297.833	20.035	859.862	660.474
298.847	20.166	858.862	660.148
299.862	20.137	858.526	659.720
300.876	20.149	858.376	659.594
301.891	20.207	857.289	658.918
302.906	20.317	856.850	658.941
303.920	20.412	856.336	658.850
304.935	20.583	855.725	658.967
305.949	20.731	855.382	659.206
306.964	20.554	854.656	657.919
307.979	20.608	853.930	657.505
308.993	20.547	853.469	656.861
310.008	20.475	853.155	656.289
311.022	20.541	852.786	656.197
312.037	20.476	851.801	655.137
313.052	20.395	851.324	654.405
314.066	20.348	850.875	653.825
315.081	20.085	850.008	652.112
316.095	20.135	849.429	651.797
317.110	20.069	848.945	651.123
318.125	20.209	848.383	651.159
319.139	20.142	847.743	650.357
320.154	20.211	847.262	650.192
321.168	20.159	846.545	649.389
322.183	20.328	845.797	649.388
323.197	20.207	845.700	648.802
324.212	20.452	844.794	648.969
325.227	20.351	844.471	648.286
326.241	20.271	844.202	647.723
327.256	20.399	843.210	647.380
328.270	20.276	842.587	646.387
329.285	20.291	842.377	646.223
330.300	20.251	841.682	645.485
331.314	20.164	841.217	644.749
332.329	20.149	840.824	644.334
333.343	20.442	840.024	644.752
334.358	20.467	839.749	644.575
335.373	20.526	839.061	644.211
336.387	20.506	838.428	643.591
337.402	20.624	837.942	643.599
338.416	20.718	837.578	643.612
339.431	20.721	837.290	643.342
340.446	20.876	836.549	643.288
341.460	21.036	836.119	643.493
342.475	21.013	835.551	642.915
343.489	21.066	834.949	642.587
344.504	21.051	834.782	642.349
345.519	21.045	834.162	641.794
346.533	21.192	833.330	641.637
347.548	21.358	832.902	641.860
348.562	20.922	832.465	639.864
349.577	20.699	831.652	638.366
350.592	20.785	830.957	638.090
351.606	20.599	830.855	637.272
352.621	20.560	830.171	636.550
353.635	20.712	829.396	636.458
354.650	20.789	829.027	636.399
355.665	20.829	828.699	636.237
356.679	20.846	828.633	636.190
357.694	20.917	827.717	635.690
358.708	20.959	827.063	635.286
359.723	21.085	826.142	634.978
360.738	20.972	825.958	634.370
361.752	20.932	825.630	633.919
362.767	21.007	825.076	633.709
363.781	20.957	824.968	633.387
364.796	21.133	824.659	633.732
365.810	21.319	824.266	634.051
366.825	21.369	823.984	633.957
367.840	21.399	823.688	633.783
368.854	21.394	823.236	633.362
369.869	21.403	822.677	632.910
370.883	21.255	821.803	631.645
371.898	21.287	820.980	631.072
372.913	21.368	820.713	631.104
373.927	21.464	820.273	631.056
374.942	21.357	819.525	630.039
375.956	21.308	819.110	629.487
376.971	21.484	818.370	629.497
377.986	21.365	818.147	628.841
379.000	21.616	817.464	629.163
380.015	21.669	817.171	629.073
381.029	21.763	816.461	628.807
382.044	21.494	815.921	627.371
383.059	21.689	815.398	627.612
384.073	21.730	814.765	627.216
385.088	21.749	814.211	626.801
386.102	21.424	813.386	624.951
387.117	21.292	813.036	624.154
388.132	21.199	812.646	623.466
389.146	21.352	811.917	623.396
390.161	21.335	811.699	623.115
391.175	21.523	811.444	623.534
392.190	21.583	810.952	623.314
393.205	21.528	810.485	622.706
394.219	21.460	809.713	621.813
395.234	21.431	809.370	621.394
396.248	21.246	808.867	620.294
397.263	21.246	808.321	619.821
398.278	21.056	807.933	618.794
399.292	21.135	807.409	618.618
400.307	21.133	806.855	618.134
401.321	21.175	806.265	617.775
402.336	21.147	806.258	617.615
403.350	21.274	805.747	617.620
404.365	21.449	805.420	617.933
405.380	21.438	805.217	617.683
406.394	21.548	804.894	617.770
407.409	21.760	804.133	617.878
408.423	21.880	803.590	617.830
409.438	21.798	803.338	617.292
410.453	21.790	803.278	617.161
411.467	22.109	802.448	617.592
412.482	22.061	801.908	616.954
413.496	22.022	801.466	616.420
414.511	22.144	801.168	616.564
415.526	22.070	800.871	616.022
416.540	22.205	800.594	616.226
417.555	21.874	800.211	614.721
418.569	22.014	799.500	614.609
419.584	22.083	798.932	614.357
420.599	22.095	798.428	613.960
421.613	158.650	1367.837	1789.510
422.628	137.654	1450.816	1789.638
