DTS Sentinel unit serial number:	SN413079Multiplexer serial number:	ORYXHardware model number:	OX4-SRSoftware version number:	ORYX F/W v4.00 Oryx Data Collector v3.7.2.0data status	okinstallation	princeton_trtdifferential loss correction	single-endedforward channel	channel 3reverse channel	N/Adate	2019/09/12time	18:24:03forward acquisition time	15.00reverse acquisition time	0.00gamma	496.2192k internal	0.2317k external	0.2317temperature offset calibration	1.0099default loss term (dB/km)	0.3790temperature slope calibration	1.0000multiplexer offset coefficient	1.0000multiplexer slope coefficient	1.0000fibre end	0.00T internal ref (°C)	33.37T ext. ref 1 (°C)	2.98T ext. ref 2 (°C)	27.96length (m)	temperature (°C)	Stokes	anti-Stokes-747.200	23.327	0.887	-0.738
-746.185	800.000	-0.149	0.586
-745.171	-36.296	-0.210	0.115
-744.156	305.472	-0.386	0.726
-743.142	-88.767	0.820	0.247
-742.127	363.801	0.337	-0.685
-741.112	-81.722	-0.573	-0.190
-740.098	-82.057	-0.086	-0.029
-739.083	353.362	-0.219	0.441
-738.069	193.235	-0.268	0.411
-737.054	-200.000	0.140	0.782
-736.039	168.493	0.312	0.450
-735.025	-138.929	-0.561	-0.062
-734.010	-59.241	-0.810	-0.353
-732.996	89.249	-0.238	0.269
-731.981	-148.531	-0.710	-0.059
-730.966	800.000	0.253	-1.101
-729.952	-89.588	-0.222	0.066
-728.937	-200.000	0.045	0.264
-727.923	-136.892	0.532	-0.062
-726.908	-200.000	-0.054	-0.275
-725.894	-140.842	0.399	0.042
-724.879	-22.182	0.381	0.234
-723.864	146.675	-0.342	-0.465
-722.850	-85.316	-0.174	0.055
-721.835	-200.000	-0.060	-1.155
-720.821	-200.000	0.227	0.001
-719.806	-200.000	-0.132	-0.705
-718.791	-121.852	-0.315	-0.053
-717.777	800.000	0.096	0.346
-716.762	-13.596	0.192	0.126
-715.748	-114.545	0.390	-0.076
-714.733	-78.976	-0.570	-0.196
-713.718	62.258	-0.366	0.369
-712.704	-96.656	-0.103	0.028
-711.689	800.000	0.122	-0.435
-710.675	-114.516	-0.395	-0.077
-709.660	-30.761	0.314	-0.180
-708.645	-9.707	0.696	0.469
-707.631	-140.140	0.527	0.056
-706.616	123.017	-0.394	-0.498
-705.602	203.291	0.461	-0.721
-704.587	-200.000	-0.025	0.247
-703.572	-5.938	-0.410	0.283
-702.558	-95.657	-0.440	0.119
-701.543	511.688	0.128	-0.301
-700.529	483.005	0.162	0.372
-699.514	-200.000	0.166	-0.812
-698.499	-86.633	-0.470	0.145
-697.485	-78.476	1.037	-0.359
-696.470	80.979	0.325	-0.354
-695.456	-1.099	0.068	0.048
-694.441	684.157	-0.127	0.335
-693.426	34.036	-0.271	-0.239
-692.412	55.125	0.306	0.299
-691.397	5.867	-0.130	-0.097
-690.383	800.000	-0.271	-0.853
-689.368	-200.000	0.127	-0.880
-688.354	122.415	-0.057	-0.072
-687.339	23.131	-0.511	-0.423
-686.324	-131.425	-0.766	-0.102
-685.310	-171.837	0.648	0.021
-684.295	315.806	-0.375	-0.715
-683.281	-91.614	0.425	-0.122
-682.266	82.365	-0.047	0.051
-681.251	800.000	-0.217	0.644
-680.237	-200.000	0.192	-1.005
-679.222	-43.062	-0.705	-0.361
-678.208	-70.769	0.353	0.135
-677.193	45.644	-0.315	0.294
-676.178	-112.621	-0.898	-0.181
-675.164	65.003	-0.074	-0.076
-674.149	-11.924	-0.567	-0.376
-673.135	-21.618	-0.312	-0.192
-672.120	37.418	-0.093	0.083
-671.105	245.424	-0.402	-0.682
-670.091	800.000	-0.175	0.525
-669.076	-200.000	-0.080	-0.613
-668.062	800.000	0.054	-0.159
-667.047	800.000	0.145	-0.412
-666.032	-112.234	0.458	-0.093
-665.018	442.000	-0.250	-0.551
-664.003	715.986	-0.199	0.532
-662.989	7.534	-0.129	-0.098
-661.974	-116.298	-0.420	-0.078
-660.959	-3.134	-0.664	-0.467
-659.945	-85.839	0.198	-0.062
-658.930	800.000	-0.126	0.361
-657.916	332.047	0.285	0.554
-656.901	800.000	0.207	-0.721
-655.886	28.798	0.276	-0.236
-654.872	-84.562	0.496	-0.158
-653.857	148.786	-0.186	-0.253
-652.843	78.572	0.508	-0.548
-651.828	800.000	0.151	-0.530
-650.814	-99.461	-0.144	0.037
-649.799	187.424	-0.149	-0.224
-648.784	800.000	-0.073	-0.220
-647.770	86.865	-0.240	-0.267
-646.755	-200.000	0.231	-1.047
-645.741	31.017	-0.690	0.597
-644.726	-200.000	-0.030	-0.413
-643.711	260.507	-0.215	-0.375
-642.697	-200.000	-0.147	0.861
-641.682	800.000	-0.172	0.684
-640.668	800.000	0.203	-0.585
-639.653	-171.917	-0.108	-0.004
-638.638	-18.381	-0.592	0.373
-637.624	28.657	-0.163	-0.139
-636.609	-144.789	-0.401	0.037
-635.595	-39.694	-0.330	-0.174
-634.580	-87.856	0.289	-0.088
-633.565	184.538	-0.212	-0.317
-632.551	38.080	0.136	0.122
-631.536	193.538	-0.119	-0.182
-630.522	304.385	0.374	0.699
-629.507	-73.299	0.691	0.255
-628.492	-61.934	0.589	-0.248
-627.478	-144.052	0.465	-0.044
-626.463	-97.660	0.383	-0.100
-625.449	199.844	0.133	0.206
-624.434	-143.201	0.360	-0.035
-623.419	-90.597	0.273	-0.080
-622.405	-46.385	0.302	-0.149
-621.390	555.982	-0.029	-0.070
-620.376	-49.345	0.308	-0.148
-619.361	800.000	0.198	-0.723
-618.346	60.726	-0.699	0.698
-617.332	800.000	0.063	0.236
-616.317	122.675	0.309	0.389
-615.303	158.620	0.591	0.827
-614.288	96.450	-0.245	-0.283
-613.273	78.752	0.138	0.149
-612.259	0.167	0.853	0.613
-611.244	55.598	-0.592	0.578
-610.230	131.569	-0.377	0.489
-609.215	-200.000	0.094	0.481
-608.201	55.537	-0.409	-0.399
-607.186	-94.612	-0.365	-0.100
-606.171	-125.123	-0.156	-0.024
-605.157	173.402	0.173	0.251
-604.142	-103.421	0.258	0.061
-603.128	-79.250	0.096	-0.033
-602.113	-46.773	0.494	0.244
-601.098	-133.197	1.046	0.133
-600.084	24.409	-0.299	-0.249
-599.069	20.816	-0.327	0.267
-598.055	-102.292	0.121	-0.029
-597.040	-126.467	0.222	0.033
-596.025	85.561	0.246	-0.272
-595.011	-71.694	0.720	0.270
-593.996	-200.000	-0.137	0.692
-592.982	-200.000	0.067	-0.562
-591.967	-107.199	-0.514	0.114
-590.952	79.278	-0.241	0.260
-589.938	-6.091	-0.367	0.253
-588.923	-59.693	-0.372	0.161
-587.909	-17.610	0.218	-0.138
-586.894	-200.000	-0.040	-0.481
-585.879	116.647	0.258	-0.318
-584.865	-50.540	-0.191	0.091
-583.850	-200.000	-0.014	0.411
-582.836	-25.645	-0.898	0.533
-581.821	-200.000	0.021	-0.814
-580.806	-200.000	0.126	-0.659
-579.792	105.002	-0.636	0.755
-578.777	-200.000	-0.067	-0.377
-577.763	-125.323	-0.833	-0.128
-576.748	398.489	-0.138	-0.290
-575.733	-33.272	0.432	-0.241
-574.719	638.646	0.108	-0.276
-573.704	20.062	0.391	-0.317
-572.690	681.283	-0.295	-0.772
-571.675	-200.000	-0.126	-1.030
-570.661	12.674	-0.363	-0.282
-569.646	-93.213	-0.619	0.173
-568.631	-200.000	0.123	-0.751
-567.617	-43.058	-0.717	-0.365
-566.602	156.016	-0.130	-0.180
-565.588	284.782	0.213	0.385
-564.573	677.507	0.381	-0.995
-563.558	-200.000	-0.044	0.423
-562.544	144.988	-0.455	0.611
-561.529	-161.283	-0.368	0.019
-560.515	143.249	0.311	0.416
-559.500	800.000	0.067	-0.242
-558.485	80.326	-0.453	-0.490
-557.471	-98.371	0.218	-0.056
-556.456	-19.058	0.756	0.472
-555.442	-47.415	-0.402	-0.196
-554.427	281.819	-0.112	-0.202
-553.412	-200.000	-0.026	0.667
-552.398	553.218	-0.270	0.652
-551.383	-55.976	-0.849	-0.380
-550.369	177.911	-0.280	0.410
-549.354	-63.200	-0.272	0.112
-548.339	36.373	-0.704	-0.623
-547.325	15.998	0.284	-0.224
-546.310	800.000	0.069	0.232
-545.296	304.450	-0.159	-0.297
-544.281	-200.000	-0.110	0.561
-543.266	53.760	-0.238	-0.230
-542.252	-192.191	0.590	-0.006
-541.237	-173.002	-0.792	-0.025
-540.223	127.375	-0.415	-0.529
-539.208	-200.000	0.006	-0.363
-538.193	138.564	0.304	-0.401
-537.179	74.781	0.289	-0.306
-536.164	-99.888	-0.639	-0.160
-535.150	10.462	0.624	0.478
-534.135	60.797	0.635	-0.633
-533.121	225.240	-0.074	0.120
-532.106	-114.932	0.432	0.082
-531.091	111.079	-0.320	-0.387
-530.077	-200.000	0.020	-0.259
-529.062	9.817	-0.396	-0.301
-528.048	-83.054	0.536	-0.173
-527.033	28.887	-0.382	-0.325
-526.018	-200.000	-0.063	0.932
-525.004	135.212	-0.314	-0.409
-523.989	99.721	0.274	0.318
-522.975	-141.065	0.894	-0.092
-521.960	800.000	0.206	0.744
-520.945	196.956	-0.183	0.280
-519.931	-67.296	-0.407	-0.161
-518.916	-130.130	0.506	-0.069
-517.902	-10.740	-0.723	0.479
-516.887	-200.000	0.039	0.209
-515.872	52.970	-0.356	0.342
-514.858	-69.893	0.478	0.183
-513.843	-200.000	-0.017	-0.422
-512.829	-200.000	-0.003	0.593
-511.814	-122.909	0.427	-0.069
-510.799	-108.549	0.365	-0.079
-509.785	-74.381	0.101	-0.037
-508.770	272.126	0.675	-1.194
-507.756	109.860	-0.294	0.354
-506.741	146.320	0.478	0.644
-505.726	-99.014	0.907	-0.231
-504.712	125.319	-0.581	-0.735
-503.697	-200.000	0.117	0.582
-502.683	-161.490	0.436	0.023
-501.668	-59.381	-0.646	0.279
-500.653	-19.015	0.128	0.080
-499.639	-35.851	-0.831	-0.451
-498.624	-43.744	-0.182	-0.092
-497.610	10.329	0.152	-0.116
-496.595	-200.000	-0.103	-0.713
-495.581	347.716	-0.320	0.632
-494.566	-200.000	-0.029	-0.256
-493.551	800.000	0.306	-1.055
-492.537	309.914	0.158	0.296
-491.522	800.000	0.163	0.485
-490.508	171.026	0.399	0.573
-489.493	31.047	-0.195	-0.168
-488.478	-67.832	-0.558	-0.219
-487.464	641.526	0.246	0.628
-486.449	-200.000	0.029	0.679
-485.435	-167.846	0.428	-0.017
-484.420	129.551	-0.594	0.761
-483.405	-168.821	-0.422	0.016
-482.391	1.268	-0.259	0.186
-481.376	9.969	-0.200	-0.152
-480.362	-200.000	0.173	-1.054
-479.347	-161.756	-0.506	0.026
-478.332	68.412	-0.369	-0.379
-477.318	-114.916	0.602	-0.115
-476.303	-33.194	-0.180	0.100
-475.289	534.313	-0.305	0.723
-474.274	-88.195	0.388	-0.116
-473.259	-86.473	-0.268	-0.083
-472.245	-200.000	0.064	-0.504
-471.230	-200.000	0.029	-0.245
-470.216	-1.971	-0.240	-0.169
-469.201	-120.490	0.914	0.155
-468.186	-88.978	-0.546	-0.162
-467.172	-80.723	1.217	0.405
-466.157	-51.777	-0.139	0.065
-465.143	38.621	0.204	0.183
-464.128	-200.000	0.233	1.289
-463.113	-16.820	0.370	0.234
-462.099	269.276	0.162	-0.284
-461.084	-167.672	-0.283	-0.011
-460.070	-109.974	-0.433	0.091
-459.055	-200.000	0.012	0.156
-458.040	36.760	0.388	-0.343
-457.026	-74.494	0.822	0.296
-456.011	-135.710	-1.086	-0.129
-454.997	-161.444	0.356	0.018
-453.982	161.489	0.523	-0.733
-452.968	800.000	-0.053	0.212
-451.953	-200.000	0.038	-0.565
-450.938	-119.353	-0.890	0.155
-449.924	-87.860	0.515	0.155
-448.909	12.703	-0.499	0.386
-447.895	-200.000	0.010	0.065
-446.880	-124.115	0.263	-0.041
-445.865	800.000	-0.151	0.495
-444.851	-200.000	-0.044	-0.280
-443.836	483.203	0.256	0.583
-442.822	79.309	-0.247	0.265
-441.807	-200.000	-0.066	0.613
-440.792	120.523	-0.361	-0.449
-439.778	172.335	-0.389	-0.559
-438.763	144.099	-0.426	-0.568
-437.749	-87.209	0.222	-0.067
-436.734	-77.947	0.519	-0.179
-435.719	-93.268	0.342	-0.095
-434.705	266.601	-0.286	0.500
-433.690	-200.000	0.063	-0.367
-432.676	-90.077	0.420	-0.122
-431.661	-61.730	0.890	0.373
-430.646	-110.903	-0.483	-0.099
-429.632	157.377	-0.669	0.925
-428.617	-200.000	-0.065	-0.774
-427.603	617.466	-0.109	-0.274
-426.588	-120.017	-0.461	-0.079
-425.573	273.978	-0.158	-0.279
-424.559	235.018	-0.178	-0.294
-423.544	-67.247	0.650	-0.256
-422.530	271.062	0.332	0.584
-421.515	82.686	-0.120	-0.131
-420.500	-147.325	-0.703	-0.060
-419.486	191.101	-0.214	0.322
-418.471	157.380	0.280	0.387
-417.457	-93.997	-0.467	0.128
-416.442	-20.736	0.332	0.204
-415.428	-200.000	-0.038	0.343
-414.413	-77.223	0.740	-0.258
-413.398	-200.000	-0.047	0.486
-412.384	236.540	-0.296	0.490
-411.369	800.000	0.114	-0.435
-410.355	-59.212	-0.733	0.315
-409.340	800.000	-0.150	0.531
-408.325	-125.757	-0.603	0.091
-407.311	-143.555	0.249	0.024
-406.296	-52.535	0.386	-0.178
-405.282	448.680	-0.152	-0.335
-404.267	-3.935	-0.331	0.229
-403.252	-18.845	-0.581	-0.361
-402.238	-200.000	0.064	-0.588
-401.223	-58.435	-0.157	0.068
-400.209	800.000	0.206	-0.894
-399.194	-15.729	-0.746	-0.475
-398.179	230.015	0.176	0.287
-397.165	-37.901	0.677	-0.359
-396.150	171.949	0.415	-0.595
-395.136	-200.000	0.050	0.742
-394.121	800.000	-0.060	0.209
-393.106	-3.490	-0.210	0.146
-392.092	-62.356	-0.128	0.053
-391.077	-2.354	-0.250	-0.175
-390.063	800.000	0.214	-0.661
-389.048	111.650	-0.222	-0.268
-388.033	50.329	0.325	-0.307
-387.019	183.865	0.776	1.147
-386.004	-45.152	0.719	0.357
-384.990	-40.924	-0.354	0.183
-383.975	-35.941	1.126	0.608
-382.960	76.613	-0.069	-0.073
-381.946	-8.881	0.563	-0.377
-380.931	-200.000	0.142	1.137
-379.917	-28.795	-0.319	0.183
-378.902	-200.000	0.028	-0.294
-377.888	-200.000	0.083	0.933
-376.873	-84.946	-0.849	0.266
-375.858	-140.260	0.687	-0.072
-374.844	281.069	0.262	-0.468
-373.829	348.454	-0.145	0.285
-372.815	-151.353	0.239	-0.018
-371.800	168.031	-0.195	-0.277
-370.785	-144.640	-0.353	-0.032
-369.771	-147.686	0.618	-0.052
-368.756	225.047	-0.229	0.369
-367.742	114.309	0.187	0.228
-366.727	-23.853	0.148	-0.088
-365.712	-184.447	0.268	0.004
-364.698	-44.949	0.774	0.384
-363.683	239.541	-0.211	0.350
-362.669	721.625	-0.178	0.473
-361.654	320.045	-0.268	-0.507
-360.639	-74.941	0.671	0.240
-359.625	290.897	-0.177	-0.320
-358.610	-131.710	0.882	0.115
-357.596	63.595	0.233	0.233
-356.581	-200.000	0.026	-0.221
-355.566	-200.000	-0.007	-0.034
-354.552	-114.332	0.579	-0.111
-353.537	-194.794	-0.662	0.005
-352.523	-36.339	-0.581	0.312
-351.508	123.960	0.293	0.367
-350.493	191.853	-0.473	-0.711
-349.479	55.724	-0.301	0.291
-348.464	234.515	-0.377	0.619
-347.450	259.573	-0.542	-0.933
-346.435	-200.000	0.009	-0.126
-345.420	-59.147	-0.627	-0.269
-344.406	800.000	-0.260	-1.003
-343.391	800.000	0.183	0.521
-342.377	-200.000	-0.005	-0.470
-341.362	106.351	-0.400	-0.473
-340.348	315.235	-0.199	-0.374
-339.333	716.138	-0.230	0.607
-338.318	60.960	-0.651	0.643
-337.304	-200.000	0.011	-0.649
-336.289	114.481	0.510	0.619
-335.275	48.797	-0.211	0.197
-334.260	-49.569	-0.684	0.324
-333.245	104.035	-0.500	0.586
-332.231	17.434	-0.204	-0.162
-331.216	79.419	-0.380	0.406
-330.202	-129.466	0.985	0.136
-329.187	329.271	-0.279	0.534
-328.172	-200.000	0.009	0.324
-327.158	37.318	0.231	-0.203
-326.143	800.000	0.217	-0.597
-325.129	-177.025	0.544	0.014
-324.114	78.456	0.774	0.824
-323.099	-88.020	-0.486	-0.145
-322.085	-143.852	0.095	-0.009
-321.070	506.175	-0.049	-0.113
-320.056	800.000	0.202	0.745
-319.041	-35.074	-0.434	0.236
-318.026	99.632	0.432	-0.498
-317.012	-200.000	0.003	0.050
-315.997	800.000	0.167	-0.468
-314.983	-200.000	0.128	0.565
-313.968	800.000	-0.046	-0.182
-312.953	219.796	0.051	-0.081
-311.939	-145.587	1.024	-0.091
-310.924	800.000	0.213	0.738
-309.910	-142.544	-1.000	0.098
-308.895	19.726	0.520	0.416
-307.880	-200.000	-0.054	-0.277
-306.866	441.312	0.009	-0.019
-305.851	22.416	0.265	-0.216
-304.837	-200.000	-0.338	0.001
-303.822	205.663	0.447	-0.692
-302.807	-102.012	-1.207	0.290
-301.793	800.000	-0.199	-0.758
-300.778	800.000	0.189	-0.608
-299.764	-143.625	0.572	-0.054
-298.749	-51.044	-0.631	-0.294
-297.735	140.682	0.182	0.239
-296.720	-200.000	-0.020	-0.592
-295.705	447.331	0.316	-0.692
-294.691	10.708	0.371	0.282
-293.676	262.764	0.189	-0.326
-292.662	164.241	-0.137	-0.193
-291.647	-55.771	0.457	0.203
-290.632	-40.459	-0.765	-0.395
-289.618	23.147	0.678	0.554
-288.603	69.367	-0.248	0.254
-287.589	112.568	0.204	-0.245
-286.574	-36.976	-0.208	0.111
-285.559	415.877	0.222	0.471
-284.545	9.965	-0.174	0.132
-283.530	800.000	0.200	0.809
-282.516	26.108	0.672	0.557
-281.501	31.551	0.376	-0.322
-280.486	43.079	-0.215	0.195
-279.472	587.347	-0.126	0.309
-278.457	-15.354	-0.459	-0.292
-277.443	-44.183	-0.522	-0.261
-276.428	59.206	-0.265	0.259
-275.413	-67.067	0.477	0.187
-274.399	-200.000	0.025	-0.319
-273.384	-200.000	0.057	-0.261
-272.370	800.000	-0.081	0.285
-271.355	143.945	-0.298	-0.395
-270.340	-86.419	0.753	-0.230
-269.326	-200.000	0.009	0.488
-268.311	219.879	-0.294	0.467
-267.297	-200.000	-0.055	0.250
-266.282	181.694	-0.668	0.977
-265.267	-200.000	-0.061	0.286
-264.253	130.868	0.305	-0.389
-263.238	-200.000	-0.007	-0.234
-262.224	800.000	0.119	-0.425
-261.209	247.745	-0.448	-0.752
-260.195	6.734	1.400	-1.035
-259.180	65.322	0.351	0.353
-258.165	-200.000	-0.077	-1.160
-257.151	-200.000	0.034	-0.374
-256.136	-200.000	-0.139	0.705
-255.122	-129.165	0.797	-0.110
-254.107	-200.000	0.179	-0.928
-253.092	-192.788	-1.037	0.009
-252.078	-152.669	1.213	0.086
-251.063	-109.233	-0.440	-0.093
-250.049	23.025	-0.773	-0.630
-249.034	-165.131	0.943	-0.041
-248.019	-82.753	-0.412	0.132
-247.005	33.430	-0.696	0.600
-245.990	-101.719	0.324	-0.078
-244.976	-13.985	-0.624	-0.400
-243.961	-13.897	0.614	0.394
-242.946	-77.511	-0.167	-0.058
-241.932	-38.525	0.596	-0.313
-240.917	-69.123	0.414	-0.158
-239.903	677.046	0.215	-0.555
-238.888	-95.383	-0.117	0.031
-237.873	-33.183	-0.322	-0.177
-236.859	-175.346	-0.390	0.011
-235.844	-53.076	0.498	0.227
-234.830	-200.000	-0.016	0.129
-233.815	-171.722	-0.617	-0.020
-232.800	800.000	-0.010	0.035
-231.786	480.618	0.156	-0.351
-230.771	265.461	0.060	0.104
-229.757	-93.987	0.446	0.121
-228.742	-32.211	0.870	0.482
-227.727	-157.217	-0.663	0.040
-226.713	800.000	0.179	-0.675
-225.698	800.000	0.146	-0.432
-224.684	258.747	-0.561	-0.960
-223.669	110.431	-0.027	-0.032
-222.655	95.703	0.061	0.070
-221.640	95.925	0.220	0.250
-220.625	-180.050	-0.050	0.001
-219.611	-145.042	-0.415	-0.037
-218.596	-152.033	0.475	0.034
-217.582	-83.875	0.200	-0.063
-216.567	-112.944	-0.443	-0.087
-215.552	-41.902	-0.444	-0.225
-214.538	800.000	-0.315	-1.059
-213.523	800.000	-0.032	-0.136
-212.509	108.629	0.419	-0.496
-211.494	-52.639	0.266	-0.122
-210.479	-118.231	0.382	-0.067
-209.465	-200.000	0.028	0.318
-208.450	-53.478	0.566	-0.257
-207.436	-200.000	-0.003	-0.920
-206.421	-51.775	-0.565	-0.261
-205.406	-50.431	0.253	0.118
-204.392	-149.513	0.691	0.054
-203.377	-136.100	0.883	-0.103
-202.363	-11.932	-0.808	0.525
-201.348	10.535	-0.231	0.175
-200.333	29.617	-0.123	-0.103
-199.319	217.691	0.486	0.768
-198.304	441.266	-0.144	0.313
-197.290	263.855	0.216	0.372
-196.275	-200.000	-0.108	0.923
-195.260	38.444	0.237	-0.210
-194.246	637.429	-0.136	0.343
-193.231	800.000	-0.048	0.168
-192.217	750.537	0.308	0.823
-191.202	173.554	-0.102	0.146
-190.187	142.074	-0.302	0.397
-189.173	-69.157	-0.176	-0.067
-188.158	-6.372	0.380	0.257
-187.144	71.556	-0.452	-0.465
-186.129	800.000	0.242	0.680
-185.114	149.787	-0.034	0.046
-184.100	-51.647	-0.433	0.200
-183.085	-14.751	0.270	0.172
-182.071	121.276	-0.572	-0.706
-181.056	-166.942	-0.404	0.016
-180.042	-200.000	0.062	0.376
-179.027	38.432	-0.627	-0.554
-178.012	128.288	0.130	0.164
-176.998	-38.651	0.794	0.415
-175.983	-182.953	-0.280	-0.005
-174.969	-149.239	-0.281	-0.022
-173.954	164.238	-0.027	-0.037
-172.939	195.398	0.113	-0.170
-171.925	62.104	-0.488	-0.482
-170.910	298.659	0.194	0.354
-169.896	-100.164	0.390	-0.096
-168.881	7.486	-0.375	-0.277
-167.866	97.562	-0.222	-0.252
-166.852	800.000	-0.136	-0.394
-165.837	449.290	-0.330	-0.720
-164.823	800.000	-0.239	-0.769
-163.808	-200.000	-0.037	0.408
-162.793	-133.446	0.266	-0.033
-161.779	617.899	0.140	0.347
-160.764	800.000	0.046	0.152
-159.750	31.634	0.549	0.468
-158.735	-73.028	0.246	0.090
-157.720	-162.784	-0.264	-0.013
-156.706	127.241	0.144	0.181
-155.691	-125.650	-0.412	0.062
-154.677	-59.748	0.178	0.075
-153.662	-200.000	-0.102	0.491
-152.647	800.000	-0.095	0.282
-151.633	-155.734	-0.205	0.013
-150.618	-0.507	-0.327	0.230
-149.604	-200.000	0.094	0.838
-148.589	-200.000	0.626	-0.001
-147.574	-18.791	0.899	0.554
-146.560	-116.239	0.771	-0.141
-145.545	16.563	-0.177	0.138
-144.531	-87.531	-0.438	-0.131
-143.516	117.619	-0.725	-0.882
-142.502	639.136	0.073	-0.184
-141.487	-200.000	-0.040	-0.479
-140.472	800.000	-0.081	-0.270
-139.458	-29.914	-0.466	-0.263
-138.443	-200.000	0.074	1.172
-137.429	-154.348	-0.528	0.035
-136.414	-91.945	-0.458	-0.128
-135.399	238.802	-0.146	-0.239
-134.385	-144.502	-0.648	-0.059
-133.370	-0.270	0.153	0.107
-132.356	186.379	0.267	-0.393
-131.341	-200.000	0.194	-1.184
-130.326	77.978	-0.679	-0.716
-129.312	800.000	0.148	-0.427
-128.297	162.060	0.329	0.456
-127.283	-200.000	0.098	0.458
-126.268	40.165	0.136	-0.121
-125.253	471.656	0.340	-0.756
-124.239	-200.000	0.003	-0.095
-123.224	175.796	-0.434	0.622
-122.210	-200.000	0.075	0.374
-121.195	-200.000	-0.003	0.378
-120.180	179.912	-0.110	-0.159
-119.166	179.161	0.225	0.325
-118.151	383.812	-0.284	0.577
-117.137	800.000	-0.094	-0.289
-116.122	-200.000	-0.055	0.435
-115.107	-91.745	0.570	0.160
-114.093	800.000	0.123	-0.471
-113.078	138.304	-0.341	0.442
-112.064	-200.000	0.044	0.367
-111.049	-182.917	-0.406	-0.007
-110.034	-75.094	0.722	-0.255
-109.020	-3.159	0.522	0.359
-108.005	140.173	-0.431	-0.561
-106.991	-97.646	0.682	-0.175
-105.976	-200.000	-0.068	-0.512
-104.962	-43.206	0.285	-0.143
-103.947	-118.273	0.878	0.154
-102.932	80.631	0.468	-0.498
-101.918	159.804	0.055	0.075
-100.903	-80.138	0.515	-0.170
-99.889	-200.000	-0.336	0.000
-98.874	91.841	0.060	-0.067
-97.859	167.651	0.684	-0.960
-96.845	800.000	0.122	0.504
-95.830	800.000	-0.179	0.552
-94.816	-200.000	0.093	-0.712
-93.801	148.699	0.336	-0.449
-92.786	502.177	0.547	1.247
-91.772	-74.224	-0.226	-0.081
-90.757	238.907	-0.239	0.393
-89.743	800.000	0.223	-0.865
-88.728	-50.868	0.848	-0.393
-87.713	-119.385	-0.307	-0.053
-86.699	-4.504	0.687	0.469
-85.684	800.000	-0.126	0.523
-84.670	60.323	-0.701	0.684
-83.655	53.763	-0.148	0.140
-82.640	-75.808	-0.778	-0.272
-81.626	192.010	-0.228	0.339
-80.611	-155.057	0.362	0.023
-79.597	-186.654	0.049	0.001
-78.582	-100.049	0.775	-0.191
-77.567	-200.000	0.119	-0.693
-76.553	646.655	-0.349	-0.880
-75.538	800.000	0.143	-0.604
-74.524	-140.175	-0.234	0.024
-73.509	63.900	0.126	0.125
-72.494	-200.000	-0.032	0.352
-71.480	-121.572	0.951	-0.156
-70.465	-200.000	-0.009	-0.692
-69.451	-200.000	0.012	-0.148
-68.436	376.313	-0.197	0.396
-67.422	-200.000	-0.023	0.526
-66.407	10.210	0.269	-0.201
-65.392	-57.192	-0.273	0.119
-64.378	-102.852	0.646	-0.151
-63.363	-67.377	0.272	0.105
-62.349	-62.324	0.139	0.057
-61.334	1.543	-0.640	-0.454
-60.319	-38.680	0.536	0.279
-59.305	-200.000	-0.331	-1.571
-58.290	691.564	0.603	1.557
-57.276	692.518	0.540	1.394
-56.261	-200.000	94.396	564.932
-55.246	633.359	1371.371	3425.244
-54.232	199.545	2540.206	3838.946
-53.217	116.664	2151.393	2600.830
-52.203	43.625	1699.506	1531.895
-51.188	36.485	1513.207	1315.525
-50.173	34.218	1487.652	1278.063
-49.159	54.123	1539.243	1458.760
-48.144	54.966	1556.815	1481.116
-47.130	36.581	1514.851	1317.397
-46.115	33.601	1499.946	1284.241
-45.100	33.313	1496.681	1279.452
-44.086	33.318	1494.039	1277.174
-43.071	33.402	1493.388	1277.133
-42.057	33.297	1491.328	1274.614
-41.042	33.563	1489.641	1274.908
-40.027	33.451	1489.291	1273.805
-39.013	33.268	1487.188	1270.731
-37.998	33.401	1485.075	1269.764
-36.984	33.654	1484.229	1270.684
-35.969	33.342	1483.433	1267.865
-34.954	33.398	1481.847	1266.837
-33.940	33.426	1480.276	1265.629
-32.925	33.536	1479.178	1265.371
-31.911	33.496	1477.634	1263.734
-30.896	33.476	1476.499	1262.582
-29.881	33.336	1474.795	1260.140
-28.867	33.628	1472.925	1260.437
-27.852	33.326	1472.796	1258.269
-26.838	33.328	1472.300	1257.809
-25.823	33.185	1469.951	1254.799
-24.809	33.370	1467.794	1254.136
-23.794	33.535	1465.114	1252.885
-22.779	33.420	1465.684	1252.563
-21.765	33.666	1463.207	1252.019
-20.750	33.602	1461.568	1250.149
-19.736	33.316	1462.439	1248.953
-18.721	33.224	1461.494	1247.489
-17.706	33.176	1460.249	1246.065
-16.692	33.541	1458.597	1247.008
-15.677	33.291	1458.811	1245.493
-14.663	33.323	1458.007	1244.967
-13.648	33.501	1455.386	1243.850
-12.633	33.344	1455.128	1242.553
-11.619	33.271	1454.634	1241.602
-10.604	33.192	1454.303	1240.751
-9.590	33.257	1452.333	1239.449
-8.575	33.099	1451.533	1237.680
-7.560	33.268	1451.039	1238.314
-6.546	33.211	1450.529	1237.456
-5.531	33.587	1447.810	1237.541
-4.517	33.189	1448.368	1235.376
-3.502	33.069	1447.137	1233.492
-2.487	33.074	1446.378	1232.825
-1.473	33.498	1444.547	1233.977
-0.458	33.506	1441.757	1231.599
0.556	34.377	1433.495	1219.975
1.571	31.133	1408.784	1178.387
2.586	27.578	1348.865	1106.633
3.600	25.659	1267.610	1028.916
4.615	24.250	1221.759	983.837
5.629	20.840	1164.984	920.057
6.644	11.644	1078.861	806.773
7.659	4.327	1038.787	741.858
8.673	3.150	1033.529	732.436
9.688	3.047	1029.414	728.968
10.702	2.778	1027.930	726.577
11.717	2.945	1024.926	725.178
12.731	5.996	1029.480	742.785
13.746	15.445	1043.090	797.639
14.761	23.406	1053.421	843.517
15.775	25.249	1055.171	853.620
16.790	25.851	1054.233	855.646
17.804	25.233	1053.930	852.387
18.819	25.227	1052.763	851.340
19.834	25.589	1051.681	852.105
20.848	25.661	1052.459	853.001
21.863	25.437	1051.715	851.261
22.877	25.804	1051.571	852.809
23.892	25.642	1050.086	850.761
24.907	25.580	1049.549	849.958
25.921	25.457	1049.190	849.011
26.936	25.010	1048.754	846.470
27.950	25.659	1046.009	847.239
28.965	25.438	1046.132	846.223
29.980	25.374	1045.377	845.235
30.994	25.400	1043.764	843.981
32.009	25.838	1042.989	845.333
33.023	25.742	1041.960	843.974
34.038	25.436	1041.626	842.197
35.053	25.501	1040.477	841.494
36.067	25.343	1040.131	840.402
37.082	25.467	1039.154	840.119
38.096	25.388	1038.802	839.390
39.111	25.427	1038.310	839.103
40.126	25.805	1036.494	839.320
41.140	25.810	1035.549	838.503
42.155	25.918	1034.125	837.780
43.169	25.499	1033.073	834.907
44.184	25.338	1031.919	833.152
45.199	25.477	1030.704	832.743
46.213	25.165	1030.539	831.091
47.228	25.315	1029.447	830.832
48.242	25.489	1029.402	831.528
49.257	25.382	1029.301	830.876
50.271	25.397	1027.329	829.280
51.286	25.730	1026.222	829.848
52.301	25.577	1026.249	829.092
53.315	25.548	1025.659	828.407
54.330	25.671	1024.485	827.954
55.344	25.160	1024.460	825.507
56.359	25.394	1023.576	825.798
57.374	25.651	1021.380	825.134
58.388	25.564	1021.495	824.752
59.403	25.469	1020.713	823.613
60.417	25.470	1019.720	822.742
61.432	25.508	1018.515	821.870
62.447	25.233	1019.521	821.351
63.461	25.604	1017.084	821.011
64.476	25.525	1017.434	820.861
65.490	25.496	1016.117	819.594
66.505	25.268	1015.944	818.338
67.520	25.103	1015.179	816.901
68.534	25.358	1014.765	817.656
69.549	25.172	1013.825	815.978
70.563	24.913	1013.023	814.086
71.578	24.878	1012.043	813.069
72.593	25.004	1010.448	812.285
73.607	24.777	1010.209	810.991
74.622	24.802	1008.840	809.933
75.636	25.208	1008.239	811.218
76.651	25.445	1006.999	811.218
77.666	25.168	1006.393	809.405
78.680	24.987	1005.940	808.155
79.695	25.219	1005.509	808.781
80.709	25.287	1004.080	807.870
81.724	25.073	1004.718	807.345
82.739	25.480	1002.757	807.526
83.753	25.269	1002.748	806.501
84.768	25.245	1003.205	806.687
85.782	26.330	999.993	808.893
86.797	25.975	999.911	807.168
87.812	26.265	999.306	807.904
88.826	26.104	998.303	806.301
89.841	25.922	997.396	804.687
90.855	25.905	997.598	804.704
91.870	25.822	996.429	803.318
92.884	26.050	995.791	803.748
93.899	25.803	995.832	802.608
94.914	25.611	994.234	800.397
95.928	26.151	992.884	801.636
96.943	26.121	992.092	800.794
97.957	25.701	991.165	798.112
98.972	25.790	990.156	797.622
99.987	25.462	990.026	795.998
101.001	25.397	989.355	795.100
102.016	25.621	988.983	795.718
103.030	25.639	988.711	795.510
104.045	25.770	986.042	793.872
105.060	25.780	985.254	793.209
106.074	25.554	985.413	792.271
107.089	25.566	984.322	791.376
108.103	25.807	982.843	791.176
109.118	25.609	982.254	789.762
110.133	25.677	981.195	789.139
111.147	25.570	980.104	787.726
112.162	25.314	980.043	786.485
113.176	25.241	977.409	783.982
114.191	25.032	978.248	783.673
115.206	25.129	978.134	783.934
116.220	25.124	975.658	781.859
117.235	24.674	976.329	780.364
118.249	25.326	974.510	781.683
119.264	24.863	973.602	778.870
120.279	24.861	972.646	778.028
121.293	24.791	972.256	777.343
122.308	24.953	972.059	777.821
123.322	24.937	971.067	776.890
124.337	25.171	969.598	776.659
125.352	25.248	967.765	775.452
126.366	24.671	967.687	772.829
127.381	24.488	965.437	770.175
128.395	24.741	965.510	771.255
129.410	25.618	965.118	774.650
130.424	25.826	964.137	774.689
131.439	25.914	962.703	773.845
132.454	25.781	962.428	772.989
133.468	26.037	960.790	772.702
134.483	25.578	960.254	770.233
135.497	25.684	960.171	770.556
136.512	25.565	960.771	770.456
137.527	25.612	959.198	769.331
138.541	25.644	959.017	769.255
139.556	26.118	956.968	769.562
140.570	25.996	956.023	768.217
141.585	25.656	956.509	767.090
142.600	26.208	954.622	767.853
143.614	25.733	954.660	765.798
144.629	26.165	953.209	766.402
145.643	26.428	953.069	767.335
146.658	25.899	952.056	764.210
147.673	26.079	950.728	763.839
148.687	25.753	950.300	762.047
149.702	25.676	949.306	760.859
150.716	25.604	948.552	759.880
151.731	25.516	947.654	758.722
152.746	25.682	946.435	758.381
153.760	26.008	945.281	758.758
154.775	26.161	945.733	759.698
155.789	25.943	944.349	757.604
156.804	25.991	943.296	756.893
157.819	25.840	942.470	755.531
158.833	26.284	941.889	756.861
159.848	25.971	941.254	754.970
160.862	26.274	940.952	755.929
161.877	25.999	939.781	753.775
162.892	26.030	938.608	752.897
163.906	26.059	937.441	752.015
164.921	25.964	936.918	751.132
165.935	25.783	936.161	749.706
166.950	25.787	935.195	748.880
167.964	25.754	934.673	748.261
168.979	26.347	932.241	748.707
169.994	25.893	932.351	746.846
171.008	25.714	931.591	745.432
172.023	26.131	930.554	746.259
173.037	26.060	930.582	745.919
174.052	26.267	929.208	745.609
175.067	26.238	928.116	744.546
176.081	26.065	927.424	743.212
177.096	26.053	926.667	742.490
178.110	26.257	925.113	742.019
179.125	25.993	924.725	740.558
180.140	25.348	925.075	738.120
181.154	25.480	923.369	737.238
182.169	25.722	922.706	737.635
183.183	25.874	923.166	738.558
184.198	25.905	922.423	738.024
185.213	25.939	921.699	737.522
186.227	26.374	919.439	737.421
187.242	26.182	920.692	737.577
188.256	26.074	919.714	736.287
189.271	25.970	919.626	735.730
190.286	25.964	918.400	734.659
191.300	26.056	917.971	734.626
192.315	25.575	916.657	731.553
193.329	25.143	914.423	727.951
194.344	24.783	913.777	725.910
195.359	25.264	913.823	727.837
196.373	25.956	914.340	730.990
197.388	26.159	914.199	731.634
198.402	26.303	912.963	731.164
199.417	26.104	913.460	730.692
200.432	26.235	913.016	730.802
201.446	25.968	911.498	728.445
202.461	25.977	910.671	727.754
203.475	26.093	910.331	727.888
204.490	25.328	909.683	724.217
205.504	24.534	908.224	719.794
206.519	24.896	907.064	720.268
207.534	25.658	906.875	723.120
208.548	26.037	905.969	723.853
209.563	26.030	906.451	724.146
210.577	26.121	905.267	723.501
211.592	25.931	905.292	722.694
212.607	26.171	904.128	722.662
213.621	26.163	903.929	722.410
214.636	26.576	903.088	723.324
215.650	26.509	903.057	722.967
216.665	26.215	902.890	721.591
217.680	26.251	901.589	720.635
218.694	26.439	901.711	721.416
219.709	26.276	900.262	719.547
220.723	25.983	899.290	717.538
221.738	26.256	898.894	718.245
222.753	26.231	898.115	717.459
223.767	26.222	898.644	717.783
224.782	26.368	897.057	717.032
225.796	26.580	896.428	717.306
226.811	26.648	895.541	716.801
227.826	26.320	894.785	714.836
228.840	25.292	893.842	709.954
229.855	25.335	893.335	709.660
230.869	25.610	892.373	709.916
231.884	25.362	891.482	708.169
232.899	25.323	891.525	707.986
233.913	26.255	890.717	710.950
234.928	26.390	890.883	711.551
235.942	25.850	890.992	709.452
236.957	26.013	889.749	709.039
237.972	26.139	887.966	708.049
238.986	26.115	887.352	707.405
240.001	25.914	887.168	706.406
241.015	25.856	887.248	706.181
242.030	25.967	885.789	705.389
243.045	25.968	885.964	705.473
244.059	26.242	885.472	706.091
245.074	26.260	885.106	705.803
246.088	26.006	884.529	704.289
247.103	26.207	882.890	703.707
248.117	25.955	883.005	702.755
249.132	26.806	882.360	705.490
250.147	26.897	882.878	706.197
251.161	26.682	883.002	705.397
252.176	26.997	881.378	705.260
253.190	27.140	881.485	705.840
254.205	27.193	880.310	705.043
255.220	27.064	880.719	704.805
256.234	27.344	879.299	704.693
257.249	27.167	879.568	704.158
258.263	27.384	878.247	703.878
259.278	27.052	878.321	702.592
260.293	27.018	877.314	701.591
261.307	27.218	876.373	701.548
262.322	27.063	876.316	700.844
263.336	27.236	875.517	700.810
264.351	26.825	874.159	698.078
265.366	25.825	872.760	693.055
266.380	25.519	871.896	691.132
267.395	26.005	872.426	693.358
268.409	26.821	872.240	696.285
269.424	26.813	870.500	694.802
270.439	27.028	870.527	695.589
271.453	27.029	869.444	694.663
272.468	27.140	868.574	694.331
273.482	27.105	868.962	694.446
274.497	27.301	868.707	694.928
275.512	27.144	868.031	693.727
276.526	26.747	866.648	691.048
277.541	26.442	866.408	689.634
278.555	27.195	865.729	691.898
279.570	26.911	865.888	690.886
280.585	26.844	865.291	690.092
281.599	26.823	864.517	689.335
282.614	27.203	863.107	689.588
283.628	26.421	863.394	686.790
284.643	26.478	861.510	685.445
285.657	26.614	862.133	686.397
286.672	26.362	862.322	685.532
287.687	26.191	860.412	683.305
288.701	26.067	861.001	683.242
289.716	26.625	860.069	684.552
290.730	26.496	858.588	682.826
291.745	26.579	857.979	682.595
292.760	26.375	857.021	681.004
293.774	26.059	857.123	679.834
294.789	26.904	857.492	683.250
295.803	27.362	857.860	685.208
296.818	27.883	856.304	685.864
297.833	27.956	855.893	685.745
298.847	27.491	854.298	682.664
299.862	27.047	854.473	681.079
300.876	27.325	854.412	682.014
301.891	27.408	854.215	682.107
302.906	27.601	853.235	681.985
303.920	27.009	852.773	679.342
304.935	27.182	851.928	679.254
305.949	27.568	851.121	679.990
306.964	27.649	851.033	680.162
307.979	27.553	849.835	678.788
308.993	27.482	848.712	677.567
310.008	27.273	850.010	677.766
311.022	27.419	848.975	677.424
312.037	27.218	848.037	675.866
313.052	27.421	848.016	676.545
314.066	27.154	846.419	674.222
315.081	26.496	845.715	671.161
316.095	25.980	843.765	667.645
317.110	26.418	845.031	670.211
318.125	27.028	845.183	672.532
319.139	26.556	843.638	669.497
320.154	25.846	842.093	665.590
321.168	25.774	841.002	664.402
322.183	25.846	841.717	665.177
323.197	26.825	841.283	668.385
324.212	27.087	842.740	670.451
325.227	27.039	841.271	669.044
326.241	26.825	841.100	668.061
327.256	26.903	840.205	667.578
328.270	27.026	839.891	667.724
329.285	27.141	838.278	666.803
330.300	26.830	838.085	665.447
331.314	26.770	837.215	664.481
332.329	26.787	836.973	664.289
333.343	27.190	836.885	665.639
334.358	27.131	836.617	665.150
335.373	27.358	834.971	664.612
336.387	27.668	834.832	665.573
337.402	27.579	834.514	664.935
338.416	27.990	834.001	665.966
339.431	27.797	833.575	664.864
340.446	27.716	833.474	664.431
341.460	27.796	833.286	664.514
342.475	27.662	832.469	663.316
343.489	27.931	830.894	662.979
344.504	27.697	831.658	662.679
345.519	28.086	831.036	663.537
346.533	28.467	830.305	664.276
347.548	28.197	830.079	663.059
348.562	28.682	829.362	664.183
349.577	28.313	828.868	662.395
350.592	28.082	828.466	661.179
351.606	28.142	827.957	660.929
352.621	28.009	827.699	660.185
353.635	28.099	826.592	659.567
354.650	27.973	825.451	658.147
355.665	27.868	825.096	657.426
356.679	27.365	823.184	654.037
357.694	26.536	823.381	651.156
358.708	27.108	823.572	653.307
359.723	27.315	822.643	653.253
360.738	27.030	822.170	651.798
361.752	27.789	821.959	654.295
362.767	27.743	822.080	654.171
363.781	28.114	821.608	655.065
364.796	28.705	821.409	656.965
365.810	29.004	820.593	657.321
366.825	28.528	820.964	655.859
367.840	28.637	820.278	655.642
368.854	28.422	820.089	654.665
369.869	28.332	819.099	653.494
370.883	27.744	819.068	651.313
371.898	27.889	817.872	650.823
372.913	28.184	816.658	650.849
373.927	27.990	816.461	649.945
374.942	27.817	816.207	649.070
375.956	27.942	815.818	649.146
376.971	27.867	815.226	648.353
377.986	28.080	813.621	647.773
379.000	28.214	814.444	648.848
380.015	28.736	814.532	650.708
381.029	28.080	813.483	647.493
382.044	28.304	813.418	648.173
383.059	28.152	812.066	646.503
384.073	28.700	810.633	647.236
385.088	28.524	810.065	646.107
386.102	28.671	809.983	646.503
387.117	28.364	809.595	645.053
388.132	27.785	809.480	642.866
389.146	27.761	808.512	641.957
390.161	27.342	808.094	640.092
391.175	27.335	808.345	640.212
392.190	28.429	807.635	643.436
393.205	28.074	807.394	641.941
394.219	27.316	805.036	637.354
395.234	25.838	803.465	630.885
396.248	25.298	801.812	627.642
397.263	26.458	802.013	631.797
398.278	27.789	803.271	637.384
399.292	27.793	803.730	637.707
400.307	27.059	803.617	634.997
401.321	27.212	802.830	634.854
402.336	27.499	802.206	635.303
403.350	27.980	801.846	636.638
404.365	28.434	801.405	637.813
405.380	28.463	801.992	638.322
406.394	28.841	801.031	638.815
407.409	28.587	801.119	637.947
408.423	28.835	800.159	637.986
409.438	28.558	800.052	636.883
410.453	28.670	799.770	636.991
411.467	28.647	799.728	636.821
412.482	28.634	798.514	635.755
413.496	28.657	797.693	635.124
414.511	28.609	797.898	635.064
415.526	28.643	796.799	634.251
416.540	28.770	796.479	634.379
417.555	28.670	796.742	634.185
418.569	28.149	796.719	632.313
419.584	28.415	795.468	632.180
420.599	28.795	793.981	632.252
421.613	159.631	1370.149	1792.988
422.628	138.330	1454.137	1793.080
