DTS Sentinel unit serial number:	SN413079Multiplexer serial number:	ORYXHardware model number:	OX4-SRSoftware version number:	ORYX F/W v4.00 Oryx Data Collector v3.7.2.0data status	okinstallation	princeton_trtdifferential loss correction	single-endedforward channel	channel 3reverse channel	N/Adate	2019/09/12time	18:14:04forward acquisition time	15.00reverse acquisition time	0.00gamma	496.2192k internal	0.2316k external	0.2316temperature offset calibration	1.0097default loss term (dB/km)	0.3790temperature slope calibration	1.0000multiplexer offset coefficient	1.0000multiplexer slope coefficient	1.0000fibre end	0.00T internal ref (°C)	33.50T ext. ref 1 (°C)	2.98T ext. ref 2 (°C)	28.07length (m)	temperature (°C)	Stokes	anti-Stokes-747.200	-135.858	-0.175	-0.021
-746.185	-79.813	-0.300	-0.102
-745.171	800.000	0.161	0.624
-744.156	-120.824	-0.301	0.051
-743.142	594.868	0.219	0.549
-742.127	33.508	-0.515	-0.453
-741.112	546.633	0.135	0.327
-740.098	200.506	-0.340	-0.529
-739.083	-115.220	0.843	0.162
-738.069	304.593	-0.228	-0.429
-737.054	121.086	-0.420	-0.529
-736.039	800.000	-0.040	0.164
-735.025	90.041	-0.375	0.424
-734.010	-125.058	-0.525	0.082
-732.996	4.909	0.181	-0.135
-731.981	-10.587	0.856	-0.574
-730.966	7.023	0.333	0.251
-729.952	509.416	0.291	-0.686
-728.937	162.185	-0.369	-0.523
-727.923	-20.894	-0.315	-0.195
-726.908	-162.768	0.171	0.008
-725.894	-141.948	-0.463	0.047
-724.879	-200.000	-0.059	0.272
-723.864	-128.332	-0.583	-0.084
-722.850	130.311	0.592	-0.767
-721.835	-200.000	0.149	-0.819
-720.821	-136.244	-1.079	0.128
-719.806	-68.966	-0.524	-0.205
-718.791	41.774	0.370	0.339
-717.777	6.120	0.226	0.169
-716.762	509.600	-0.189	-0.444
-715.748	-60.389	0.340	-0.146
-714.733	24.073	0.291	-0.243
-713.718	-174.606	0.727	0.021
-712.704	-117.359	-0.553	0.101
-711.689	83.579	-0.476	0.525
-710.675	154.875	0.592	0.823
-709.660	41.814	0.141	-0.130
-708.645	90.414	-0.413	0.467
-707.631	-200.000	0.015	0.145
-706.616	28.754	0.161	-0.138
-705.602	-16.451	0.270	-0.173
-704.587	225.525	0.360	-0.590
-703.572	-5.191	0.281	-0.196
-702.558	75.710	-0.219	0.234
-701.543	-192.246	0.925	-0.009
-700.529	121.180	0.510	0.641
-699.514	-66.114	-0.322	0.130
-698.499	-110.801	-0.863	-0.180
-697.485	14.389	0.123	0.097
-696.470	-130.890	-0.823	0.111
-695.456	412.530	0.452	-0.971
-694.441	-6.082	0.490	-0.338
-693.426	453.870	-0.051	0.114
-692.412	-153.723	0.491	-0.034
-691.397	-116.943	-0.671	-0.124
-690.383	-61.875	-0.241	0.102
-689.368	228.933	0.091	0.151
-688.354	466.933	-0.319	0.723
-687.339	-18.387	-1.047	0.661
-686.324	347.903	0.571	1.138
-685.310	-200.000	0.028	-0.450
-684.295	-38.195	-0.920	0.493
-683.281	-23.746	-0.086	-0.052
-682.266	-200.000	-0.012	-0.360
-681.251	204.534	0.123	0.193
-680.237	800.000	0.088	0.309
-679.222	29.135	0.245	0.210
-678.208	-200.000	0.109	-0.526
-677.193	800.000	-0.310	-1.352
-676.178	-166.944	0.294	0.012
-675.164	-0.093	-0.248	-0.178
-674.149	109.392	-0.227	-0.275
-673.135	-11.460	-0.702	-0.466
-672.120	108.527	-0.399	0.481
-671.105	-26.324	0.413	0.245
-670.091	-148.003	-0.641	0.054
-669.076	-105.527	0.984	0.226
-668.062	-71.840	-0.351	0.132
-667.047	-23.615	0.548	-0.332
-666.032	-37.882	-0.694	0.373
-665.018	-141.491	-1.295	-0.132
-664.003	224.608	-0.046	-0.076
-662.989	62.870	-0.514	0.519
-661.974	-200.000	-0.057	-0.435
-660.959	-68.839	-0.204	-0.080
-659.945	156.389	0.249	0.347
-658.930	772.893	-0.186	-0.512
-657.916	435.851	0.326	-0.716
-656.901	451.006	-0.302	0.673
-655.886	61.976	0.117	-0.118
-654.872	-200.000	0.150	-0.815
-653.857	536.204	-0.171	-0.410
-652.843	13.698	0.450	-0.353
-651.828	800.000	0.066	-0.231
-650.814	800.000	0.142	-0.544
-649.799	-92.433	0.205	-0.058
-648.784	22.556	0.145	0.119
-647.770	-124.135	-1.457	0.231
-646.755	800.000	0.274	-0.835
-645.741	181.244	-0.262	-0.389
-644.726	-55.255	0.403	0.183
-643.711	61.055	0.614	-0.615
-642.697	-200.000	0.014	0.282
-641.682	-51.720	-0.534	0.251
-640.668	78.689	-0.218	-0.235
-639.653	800.000	0.063	0.226
-638.638	800.000	0.294	-0.899
-637.624	-200.000	0.199	0.934
-636.609	-173.368	-0.487	0.015
-635.595	29.311	-0.392	0.336
-634.580	-200.000	-0.069	0.384
-633.565	800.000	-0.129	-0.435
-632.551	13.080	0.278	-0.217
-631.536	-80.519	0.249	-0.084
-630.522	-99.265	-0.185	-0.047
-629.507	800.000	0.103	-0.322
-628.492	-200.000	-0.108	0.619
-627.478	-200.000	-0.073	0.606
-626.463	-172.843	0.496	0.016
-625.449	113.947	0.285	-0.350
-624.434	92.973	0.417	0.475
-623.419	722.929	-0.109	0.292
-622.405	800.000	0.215	0.601
-621.390	33.465	0.300	0.263
-620.376	412.886	0.330	-0.708
-619.361	-200.000	0.076	0.803
-618.346	78.139	0.527	0.567
-617.332	601.580	-0.108	-0.270
-616.317	-194.583	0.433	0.003
-615.303	-101.031	-0.543	0.134
-614.288	800.000	-0.128	0.496
-613.273	-119.556	0.509	0.089
-612.259	301.207	-0.547	1.017
-611.244	39.143	-0.123	-0.111
-610.230	-8.825	-0.621	0.420
-609.215	800.000	-0.202	-0.607
-608.201	9.013	-0.412	-0.313
-607.186	-164.204	0.184	0.009
-606.171	-42.514	0.878	-0.451
-605.157	-200.000	0.058	-0.345
-604.142	-200.000	0.020	0.286
-603.128	800.000	0.081	0.243
-602.113	156.512	0.377	-0.525
-601.098	-7.739	-0.759	-0.516
-600.084	139.133	0.522	-0.692
-599.069	-71.333	-0.677	0.256
-598.055	733.807	-0.169	-0.455
-597.040	-14.461	0.277	0.180
-596.025	-17.867	0.373	-0.235
-595.011	800.000	0.205	0.795
-593.996	-71.595	-0.181	-0.068
-592.982	-50.860	0.656	-0.311
-591.967	85.067	0.194	0.214
-590.952	-92.808	-0.735	0.207
-589.938	-66.185	0.692	0.278
-588.923	-200.000	0.050	0.776
-587.909	231.293	-0.009	-0.015
-586.894	527.278	-0.115	-0.272
-585.879	-77.918	0.805	-0.280
-584.865	-200.000	-0.138	1.126
-583.850	95.153	-0.218	-0.250
-582.836	37.374	0.567	0.506
-581.821	-200.000	-0.171	0.803
-580.806	-25.795	0.706	-0.419
-579.792	-79.304	0.387	0.132
-578.777	-200.000	0.926	0.003
-577.763	171.825	0.464	-0.671
-576.748	-200.000	0.097	-0.931
-575.733	-200.000	0.084	-0.539
-574.719	628.494	0.436	-1.110
-573.704	54.554	-0.493	0.478
-572.690	-17.930	-0.935	0.590
-571.675	800.000	-0.143	0.549
-570.661	-181.265	0.387	-0.008
-569.646	-116.112	-0.520	-0.097
-568.631	99.126	-0.448	0.520
-567.617	-78.129	0.584	0.202
-566.602	417.995	-0.172	-0.370
-565.588	-58.141	-0.481	0.211
-564.573	-18.406	0.393	-0.247
-563.558	-31.841	-0.485	0.273
-562.544	-161.842	0.126	0.006
-561.529	-200.000	0.010	-1.318
-560.515	13.150	-0.304	-0.237
-559.500	-116.505	0.680	-0.126
-558.485	-14.387	-0.833	0.539
-557.471	-200.000	-0.052	-0.845
-556.456	-28.204	0.610	-0.354
-555.442	-103.749	-0.314	0.074
-554.427	95.338	0.601	0.688
-553.412	-57.824	-0.617	0.271
-552.398	-200.000	-0.020	-0.180
-551.383	-25.545	-0.197	0.117
-550.369	-175.998	0.772	0.021
-549.354	-75.998	0.306	-0.109
-548.339	-76.753	-0.405	0.142
-547.325	145.278	0.296	0.399
-546.310	55.327	-0.941	-0.915
-545.296	71.879	-0.480	0.501
-544.281	11.249	-0.311	0.240
-543.266	23.484	0.920	0.761
-542.252	-200.000	0.127	0.676
-541.237	475.165	-0.221	0.501
-540.223	-197.954	-0.080	0.000
-539.208	-200.000	0.037	0.798
-538.193	-140.187	0.542	0.057
-537.179	-200.000	0.033	-0.796
-536.164	-115.415	0.659	-0.125
-535.150	800.000	0.128	-0.499
-534.135	142.833	-0.494	-0.660
-533.121	-153.043	0.751	-0.053
-532.106	356.571	-0.171	-0.342
-531.091	141.575	-0.427	-0.569
-530.077	415.075	-0.345	-0.738
-529.062	372.146	-0.203	0.415
-528.048	-47.041	0.334	-0.164
-527.033	202.042	-0.372	0.576
-526.018	-200.000	-0.040	-0.485
-525.004	-200.000	-0.012	-0.377
-523.989	149.370	0.461	-0.627
-522.975	800.000	0.054	0.156
-521.960	581.242	0.223	0.549
-520.945	36.410	-0.501	-0.444
-519.931	-200.000	0.021	-0.186
-518.916	359.582	0.161	0.322
-517.902	98.336	-0.629	0.728
-516.887	-140.998	-0.715	0.074
-515.872	800.000	-0.058	0.217
-514.858	-8.036	0.532	-0.360
-513.843	-160.248	0.454	0.025
-512.829	-200.000	0.072	0.319
-511.814	-28.557	0.755	0.436
-510.799	-200.000	0.113	-0.659
-509.785	77.041	-0.222	0.236
-508.770	65.855	0.236	-0.240
-507.756	-113.493	-0.386	-0.076
-506.741	548.676	-0.204	0.490
-505.726	-129.361	-0.416	0.058
-504.712	509.478	0.058	-0.135
-503.697	-151.745	-0.834	-0.062
-502.683	-156.112	-0.445	-0.028
-501.668	-200.000	0.055	-0.256
-500.653	-138.516	0.299	-0.033
-499.639	45.965	-0.468	-0.435
-498.624	-124.570	-0.159	-0.025
-497.610	290.075	-0.205	-0.374
-496.595	-151.117	-0.116	0.009
-495.581	-56.286	-0.266	0.118
-494.566	106.110	0.621	-0.738
-493.551	-200.000	0.075	-0.552
-492.537	-200.000	0.011	0.523
-491.522	65.516	-0.218	0.222
-490.508	39.032	-0.766	-0.687
-489.493	188.558	0.244	-0.366
-488.478	-83.383	-0.782	-0.251
-487.464	-13.118	0.944	0.615
-486.449	800.000	0.063	-0.219
-485.435	1.395	-0.393	0.283
-484.420	-64.941	0.229	-0.093
-483.405	-18.381	0.717	-0.449
-482.391	75.971	0.295	-0.312
-481.376	-149.407	0.413	0.033
-480.362	-171.295	0.458	-0.015
-479.347	197.073	-0.317	-0.484
-478.332	-125.059	0.630	-0.097
-477.318	498.821	0.058	-0.135
-476.303	41.036	-0.360	-0.326
-475.289	-129.716	-0.140	-0.019
-474.274	287.989	0.279	0.506
-473.259	178.809	-0.169	0.248
-472.245	47.744	-0.419	-0.392
-471.230	-200.000	0.083	-0.443
-470.216	-27.320	0.424	0.247
-469.201	-32.636	0.714	-0.398
-468.186	-37.900	0.639	-0.340
-467.172	21.574	-0.326	-0.265
-466.157	134.070	0.593	0.769
-465.143	-43.412	0.223	-0.113
-464.128	-101.963	-0.400	0.097
-463.113	17.555	-0.320	0.255
-462.099	88.489	0.561	0.625
-461.084	-126.707	0.324	-0.048
-460.070	74.476	-0.207	-0.218
-459.055	-200.000	0.119	-0.872
-458.040	17.363	-0.646	-0.514
-457.026	800.000	-0.035	-0.105
-456.011	-25.558	-0.188	-0.111
-454.997	-41.518	-0.381	-0.196
-453.982	-162.560	-0.654	0.032
-452.968	-117.630	0.217	0.039
-451.953	-19.974	0.019	-0.012
-450.938	-161.648	0.797	-0.041
-449.924	-1.108	-0.334	-0.236
-448.909	703.203	0.384	1.013
-447.895	800.000	0.024	-0.069
-446.880	-200.000	0.034	0.189
-445.865	-90.118	-0.697	0.203
-444.851	87.390	0.188	0.208
-443.836	-88.772	0.327	0.097
-442.822	55.227	-0.230	-0.223
-441.807	-9.335	-0.343	-0.229
-440.792	157.086	-0.299	-0.414
-439.778	-8.307	-0.069	0.047
-438.763	-200.000	0.010	0.309
-437.749	-108.211	0.552	0.119
-436.734	-200.000	-0.026	0.679
-435.719	664.420	0.241	0.623
-434.705	-12.455	-0.491	-0.321
-433.690	-110.278	-0.963	0.201
-432.676	385.986	0.251	0.518
-431.661	-20.287	0.935	-0.576
-430.646	-31.980	-0.998	0.559
-429.632	-49.417	-0.562	-0.268
-428.617	530.291	0.147	0.347
-427.603	-106.037	-0.826	-0.186
-426.588	170.453	0.310	0.444
-425.573	-108.551	0.131	-0.028
-424.559	227.202	0.197	0.320
-423.544	244.167	-0.493	0.828
-422.530	-121.197	0.350	-0.059
-421.515	-99.831	-0.228	0.057
-420.500	-74.435	-0.758	0.273
-419.486	35.328	-0.540	0.473
-418.471	800.000	0.035	0.132
-417.457	-200.000	-0.088	1.078
-416.442	-116.624	0.770	-0.142
-415.428	-200.000	-0.073	0.527
-414.413	-200.000	0.013	1.002
-413.398	-200.000	-0.006	-0.056
-412.384	-149.954	0.559	-0.044
-411.369	99.365	-0.507	0.586
-410.355	-44.574	-0.570	0.285
-409.340	16.256	0.261	-0.206
-408.325	800.000	-0.109	0.334
-407.311	-14.398	-0.281	-0.181
-406.296	134.808	0.459	0.596
-405.282	-147.239	-0.501	0.043
-404.267	-31.006	-0.576	0.325
-403.252	-200.000	-0.047	-0.621
-402.238	-200.000	-0.005	0.335
-401.223	21.586	-0.241	-0.196
-400.209	-9.211	0.781	-0.522
-399.194	-200.000	0.024	0.567
-398.179	-114.202	-0.400	0.077
-397.165	-55.819	0.093	-0.042
-396.150	-80.849	-1.011	0.335
-395.136	26.920	0.324	0.272
-394.121	-69.138	-0.633	0.243
-393.106	-200.000	0.004	0.272
-392.092	63.426	-0.160	-0.160
-391.077	247.175	-0.464	-0.783
-390.063	800.000	-0.073	-0.262
-389.048	52.138	-0.349	-0.332
-388.033	-200.000	0.068	0.439
-387.019	-167.805	0.260	-0.010
-386.004	-200.000	0.019	0.502
-384.990	800.000	0.104	-0.436
-383.975	-171.311	0.487	0.016
-382.960	312.555	-0.365	-0.684
-381.946	-200.000	0.061	0.556
-380.931	90.545	0.618	-0.691
-379.917	20.760	0.259	-0.209
-378.902	800.000	0.092	0.368
-377.888	-156.566	0.714	0.044
-376.873	146.644	0.311	-0.418
-375.858	-27.225	-0.333	-0.193
-374.844	119.887	0.308	0.381
-373.829	-200.000	0.142	0.713
-372.815	-200.000	-0.073	-0.702
-371.800	-200.000	-0.062	0.499
-370.785	20.366	-0.547	-0.441
-369.771	39.602	-0.228	-0.204
-368.756	-117.674	-0.480	-0.086
-367.742	539.540	-0.050	-0.119
-366.727	-71.971	-0.433	-0.161
-365.712	800.000	0.356	1.024
-364.698	167.568	0.266	-0.377
-363.683	-145.968	0.389	0.034
-362.669	-200.000	-0.036	0.721
-361.654	-200.000	0.015	-0.932
-360.639	-143.542	1.386	0.132
-359.625	-53.599	0.611	-0.279
-358.610	-90.475	-0.591	-0.171
-357.596	-50.815	-0.988	-0.463
-356.581	-200.000	-0.184	-0.855
-355.566	36.709	-0.220	-0.194
-354.552	-200.000	-0.037	0.560
-353.537	-200.000	-0.092	0.676
-352.523	-26.713	-0.672	0.392
-351.508	-91.306	-0.389	0.111
-350.493	-88.305	-0.436	0.130
-349.479	183.598	-0.028	-0.041
-348.464	-25.472	-0.496	0.292
-347.450	12.359	0.552	-0.424
-346.435	-200.000	-0.021	0.427
-345.420	-45.129	-0.043	-0.022
-344.406	234.430	-0.490	-0.805
-343.391	-78.621	-0.266	-0.091
-342.377	96.370	0.196	0.224
-341.362	18.701	-0.289	-0.230
-340.348	69.142	0.151	-0.154
-339.333	800.000	0.272	-1.176
-338.318	-200.000	-0.086	-0.787
-337.304	-65.427	0.762	0.305
-336.289	-60.110	-0.674	0.287
-335.275	-162.986	0.177	0.009
-334.260	-45.271	-0.264	-0.131
-333.245	169.508	-0.218	0.311
-332.231	-200.000	0.091	0.871
-331.216	-60.582	0.546	0.231
-330.202	36.402	0.655	0.576
-329.187	227.722	0.396	0.643
-328.172	-11.904	-0.394	-0.257
-327.158	24.402	-0.200	0.165
-326.143	294.048	-0.340	0.618
-325.129	-200.000	-0.011	-0.284
-324.114	281.754	0.196	0.349
-323.099	-200.000	0.029	0.397
-322.085	11.077	-0.655	0.499
-321.070	-200.000	-0.019	-0.221
-320.056	238.463	0.465	0.770
-319.041	16.757	-0.474	-0.374
-318.026	717.550	-0.134	0.355
-317.012	75.710	0.565	0.595
-315.997	-115.786	-0.291	0.054
-314.983	-180.538	0.419	-0.009
-313.968	218.359	0.202	-0.321
-312.953	27.588	-0.359	-0.301
-311.939	-24.760	-0.214	0.127
-310.924	-200.000	-0.034	0.258
-309.910	-200.000	-0.021	0.157
-308.895	-122.972	-0.873	-0.140
-307.880	-27.505	0.169	0.098
-306.866	-200.000	-0.090	-0.693
-305.851	19.577	-0.726	0.581
-304.837	100.442	-0.187	-0.216
-303.822	-157.716	-0.282	0.017
-302.807	266.610	-0.037	-0.064
-301.793	-200.000	-0.025	-0.521
-300.778	389.391	-0.198	-0.409
-299.764	135.870	0.310	0.402
-298.749	-114.500	-0.696	-0.133
-297.735	-142.235	-0.204	-0.020
-296.720	-183.228	0.274	-0.005
-295.705	800.000	-0.318	0.925
-294.691	-21.599	-0.287	0.174
-293.676	-131.499	0.621	0.082
-292.662	-27.929	-0.566	0.326
-291.647	354.625	0.275	-0.545
-290.632	-84.029	-0.956	-0.302
-289.618	7.465	0.206	-0.153
-288.603	-159.863	-0.110	-0.006
-287.589	-19.538	0.277	-0.171
-286.574	705.891	-0.066	-0.174
-285.559	-200.000	-0.014	0.547
-284.545	-200.000	-0.095	-0.490
-283.530	55.851	0.307	0.296
-282.516	-78.963	-0.139	0.047
-281.501	731.105	0.337	0.896
-280.486	220.308	-0.383	-0.610
-279.472	-200.000	-0.040	0.402
-278.457	-93.106	0.767	-0.212
-277.443	-30.066	0.517	0.293
-276.428	-50.832	0.823	-0.385
-275.413	-200.000	0.063	-0.453
-274.399	45.720	0.540	0.496
-273.384	-200.000	-0.012	-0.422
-272.370	26.281	0.094	0.078
-271.355	697.970	0.327	-0.855
-270.340	-200.000	0.120	-0.753
-269.326	72.050	-0.345	-0.357
-268.311	-152.965	-1.198	-0.084
-267.297	-138.681	-0.442	-0.048
-266.282	-200.000	-0.076	0.358
-265.267	-2.574	0.491	-0.342
-264.253	109.370	-0.473	0.563
-263.238	-60.897	0.564	-0.237
-262.224	31.496	-0.677	0.578
-261.209	-66.244	-0.295	0.117
-260.195	0.823	-0.053	0.038
-259.180	-200.000	-0.012	0.325
-258.165	9.488	-0.652	0.491
-257.151	151.819	0.344	0.467
-256.136	-182.415	0.365	-0.007
-255.122	109.779	-0.199	-0.237
-254.107	-113.351	0.554	0.108
-253.092	-22.862	0.591	0.355
-252.078	800.000	0.070	0.213
-251.063	-97.874	-1.193	0.306
-250.049	800.000	0.297	-1.075
-249.034	-15.206	0.805	0.512
-248.019	142.112	0.232	-0.306
-247.005	-200.000	-0.099	-0.598
-245.990	720.075	0.279	-0.736
-244.976	800.000	0.160	0.531
-243.961	-155.725	-0.349	-0.022
-242.946	-74.105	0.376	0.135
-241.932	684.913	-0.174	-0.451
-240.917	-35.067	0.577	0.312
-239.903	612.893	-0.235	-0.583
-238.888	-22.150	-0.422	0.255
-237.873	110.528	0.605	-0.722
-236.859	-144.922	0.597	-0.054
-235.844	148.952	0.494	-0.663
-234.830	102.135	0.477	-0.553
-233.815	800.000	0.219	-0.806
-232.800	505.499	-0.037	0.086
-231.786	-138.841	0.948	0.102
-230.771	800.000	0.077	0.323
-229.757	800.000	0.137	-0.482
-228.742	329.729	-0.131	-0.251
-227.727	201.242	0.243	-0.371
-226.713	-52.176	-0.842	-0.388
-225.698	5.377	-0.808	-0.591
-224.684	-41.983	0.688	-0.350
-223.669	121.169	0.065	-0.081
-222.655	193.711	-0.592	-0.890
-221.640	-10.933	0.365	-0.239
-220.625	133.613	-0.316	-0.405
-219.611	379.321	-0.560	-1.139
-218.596	-200.000	-0.089	-0.471
-217.582	42.391	-0.596	-0.538
-216.567	-200.000	-0.099	0.631
-215.552	-46.493	-0.599	0.291
-214.538	-200.000	0.059	0.881
-213.523	-64.336	0.814	-0.329
-212.509	-5.427	0.385	-0.262
-211.494	-84.856	-0.084	0.026
-210.479	67.443	0.298	0.302
-209.465	-12.026	0.809	0.526
-208.450	-200.000	0.103	0.550
-207.436	-131.184	0.494	-0.065
-206.421	-200.000	0.041	0.333
-205.406	-39.430	-0.399	0.207
-204.392	119.084	0.092	0.113
-203.377	679.750	-0.136	0.351
-202.363	31.689	0.248	-0.212
-201.348	-75.525	-0.632	0.223
-200.333	58.730	0.086	0.084
-199.319	-38.644	0.317	-0.166
-198.304	304.351	0.247	-0.455
-197.290	791.541	0.215	0.587
-196.275	-169.588	0.443	-0.016
-195.260	-94.471	0.627	-0.169
-194.246	-82.588	-0.308	-0.099
-193.231	81.581	0.603	-0.646
-192.217	-15.371	-0.237	-0.150
-191.202	-200.000	-0.071	0.861
-190.187	-200.000	0.051	-0.543
-189.173	-11.414	0.341	0.223
-188.158	-137.916	-0.442	0.049
-187.144	-200.000	0.057	0.872
-186.129	-200.000	0.007	0.784
-185.114	266.712	-0.199	-0.345
-184.100	-42.373	0.266	-0.134
-183.085	-98.728	-0.887	0.224
-182.071	-176.950	-0.374	-0.009
-181.056	14.598	0.386	0.299
-180.042	93.446	0.504	-0.566
-179.027	800.000	0.086	-0.273
-178.012	-64.829	0.707	-0.284
-176.998	173.717	0.545	0.780
-175.983	800.000	-0.092	-0.330
-174.969	35.374	0.365	0.317
-173.954	113.822	0.359	0.433
-172.939	-104.006	0.608	-0.140
-171.925	-200.000	-0.048	-0.321
-170.910	401.121	-0.134	0.278
-169.896	-10.716	0.536	0.351
-168.881	-200.000	-0.143	-0.809
-167.866	68.166	-0.595	-0.603
-166.852	-93.053	-0.673	0.186
-165.837	800.000	-0.322	-0.880
-164.823	-103.926	-0.140	0.032
-163.808	109.351	0.056	0.066
-162.793	312.723	0.192	0.357
-161.779	-3.832	0.173	-0.119
-160.764	-90.012	-0.465	-0.134
-159.750	-56.594	-0.464	0.203
-158.735	-7.521	-0.606	-0.406
-157.720	800.000	0.220	-0.837
-156.706	61.656	0.343	0.338
-155.691	109.728	-0.514	0.609
-154.677	108.026	-0.335	0.395
-153.662	-200.000	0.070	-0.419
-152.647	157.658	0.403	0.552
-151.633	469.044	-0.273	-0.607
-150.618	13.257	-0.353	0.271
-149.604	-200.000	-0.010	0.156
-148.589	34.579	-0.200	-0.173
-147.574	-30.685	0.397	-0.222
-146.560	125.483	-0.212	-0.265
-145.545	-40.938	-0.353	0.180
-144.531	-200.000	-0.137	0.893
-143.516	-200.000	-0.011	-0.181
-142.502	38.619	-0.544	0.480
-141.487	211.585	0.324	-0.504
-140.472	-149.166	0.875	0.069
-139.458	773.348	-0.069	0.187
-138.443	-200.000	-0.051	-0.436
-137.429	-28.529	0.163	0.093
-136.414	800.000	-0.376	-1.390
-135.399	5.833	-0.132	0.097
-134.385	800.000	-0.166	0.493
-133.370	-121.146	0.332	0.055
-132.356	-11.179	0.579	0.377
-131.341	-200.000	-0.069	0.526
-130.326	-200.000	0.097	-0.463
-129.312	-33.340	0.205	0.112
-128.297	44.305	-0.631	0.572
-127.283	509.409	0.139	-0.319
-126.268	583.931	0.266	0.646
-125.253	-157.902	-0.265	0.015
-124.239	423.302	0.189	0.402
-123.224	-57.485	0.490	-0.213
-122.210	295.530	0.156	0.283
-121.195	800.000	0.119	-0.333
-120.180	-28.675	0.818	0.465
-119.166	800.000	0.212	0.728
-118.151	34.095	-0.364	-0.314
-117.137	304.106	-0.290	-0.532
-116.122	-36.155	-0.553	-0.295
-115.107	-87.851	0.165	-0.049
-114.093	-200.000	-0.075	1.080
-113.078	56.751	0.331	0.319
-112.064	-16.069	0.803	-0.505
-111.049	-94.773	-0.550	0.147
-110.034	-200.000	0.061	-0.366
-109.020	800.000	-0.079	0.298
-108.005	-200.000	0.020	-0.090
-106.991	106.147	0.266	-0.312
-105.976	-119.789	0.311	-0.053
-104.962	103.749	0.302	0.350
-103.947	-67.218	-0.238	-0.093
-102.932	87.351	0.362	0.396
-101.918	-200.000	-0.093	-0.953
-100.903	-47.373	0.492	-0.236
-99.889	-56.113	0.667	0.293
-98.874	-67.607	-0.710	-0.275
-97.859	90.339	0.194	-0.214
-96.845	46.983	0.326	-0.300
-95.830	-21.649	-0.740	0.445
-94.816	-200.000	0.077	-0.792
-93.801	-49.002	-0.162	-0.076
-92.786	-94.432	0.963	-0.259
-91.772	800.000	0.032	0.094
-90.757	-200.000	0.002	-0.470
-89.743	68.362	-0.073	0.074
-88.728	-134.084	0.539	-0.066
-87.713	198.051	0.421	0.636
-86.699	140.881	-0.204	0.266
-85.684	26.344	0.535	0.441
-84.670	-95.970	0.733	-0.193
-83.655	81.904	-0.405	-0.433
-82.640	-24.177	-0.843	-0.497
-81.626	81.745	0.140	-0.150
-80.611	-142.502	0.348	-0.034
-79.597	-72.335	-0.752	0.275
-78.582	-200.000	-0.021	0.197
-77.567	-63.676	0.965	0.390
-76.553	357.933	-0.239	0.472
-75.538	-200.000	0.039	0.565
-74.524	-200.000	-0.122	-0.675
-73.509	-70.327	-0.542	-0.203
-72.494	-121.814	1.007	0.164
-71.480	-182.294	-0.680	0.012
-70.465	-154.123	0.117	0.008
-69.451	-32.193	-0.337	-0.186
-68.436	-91.817	-0.765	-0.214
-67.422	-59.145	0.366	0.156
-66.407	800.000	-0.177	0.672
-65.392	-13.998	-0.372	-0.237
-64.378	-200.000	-0.093	0.000
-63.363	112.898	-0.389	0.465
-62.349	199.362	0.285	-0.431
-61.334	60.476	-0.786	-0.767
-60.319	15.145	0.745	0.576
-59.305	218.667	0.389	-0.613
-58.290	-17.285	1.229	0.764
-57.276	-200.000	0.238	1.700
-56.261	-200.000	97.047	569.539
-55.246	623.351	1376.767	3419.516
-54.232	198.090	2547.288	3839.142
-53.217	116.342	2152.057	2600.217
-52.203	43.747	1699.428	1533.527
-51.188	36.621	1514.479	1318.231
-50.173	34.325	1488.556	1280.208
-49.159	54.204	1539.400	1460.200
-48.144	55.299	1556.887	1484.207
-47.130	36.981	1515.394	1321.274
-46.115	33.721	1501.217	1286.799
-45.100	33.515	1497.075	1281.803
-44.086	33.547	1495.540	1280.656
-43.071	33.699	1492.817	1279.296
-42.057	33.403	1491.908	1276.476
-41.042	33.493	1490.448	1275.779
-40.027	33.540	1488.993	1274.799
-39.013	33.628	1487.060	1273.683
-37.998	33.456	1486.864	1272.313
-36.984	33.458	1485.632	1271.217
-35.969	33.400	1484.529	1269.838
-34.954	33.620	1482.494	1269.519
-33.940	33.397	1481.426	1267.060
-32.925	33.443	1480.387	1266.433
-31.911	33.432	1478.211	1264.445
-30.896	33.727	1476.737	1265.103
-29.881	33.793	1474.911	1263.929
-28.867	33.497	1475.391	1262.315
-27.852	33.543	1473.531	1260.980
-26.838	33.429	1472.303	1259.123
-25.823	33.613	1470.153	1258.454
-24.809	33.607	1469.552	1257.849
-23.794	33.590	1467.048	1255.545
-22.779	33.409	1466.976	1254.236
-21.765	33.690	1464.422	1253.858
-20.750	33.699	1463.438	1253.025
-19.736	33.389	1462.821	1250.399
-18.721	33.278	1461.738	1248.691
-17.706	33.528	1461.397	1250.001
-16.692	33.433	1460.279	1248.369
-15.677	33.504	1457.791	1246.660
-14.663	33.395	1457.336	1245.501
-13.648	33.470	1456.445	1245.185
-12.633	33.283	1456.247	1243.737
-11.619	33.643	1454.410	1244.486
-10.604	33.584	1453.284	1243.086
-9.590	33.360	1453.063	1241.380
-8.575	33.484	1451.861	1241.115
-7.560	33.500	1451.664	1240.998
-6.546	33.425	1450.760	1239.686
-5.531	33.539	1449.619	1239.411
-4.517	33.254	1449.639	1237.509
-3.502	33.479	1448.241	1237.737
-2.487	33.402	1447.302	1236.383
-1.473	33.475	1445.300	1235.100
-0.458	33.465	1444.480	1234.288
0.556	34.468	1434.888	1222.511
1.571	31.408	1409.516	1181.487
2.586	27.470	1350.538	1108.043
3.600	25.689	1270.315	1031.932
4.615	24.227	1223.084	985.401
5.629	21.122	1165.750	922.732
6.644	11.650	1081.556	809.328
7.659	4.102	1040.051	742.153
8.673	3.122	1034.688	733.586
9.688	3.144	1030.459	730.628
10.702	2.841	1029.563	728.490
11.717	2.814	1027.610	726.915
12.731	6.407	1030.210	745.729
13.746	15.699	1043.886	799.955
14.761	23.175	1054.376	843.714
15.775	25.726	1057.058	857.956
16.790	26.260	1056.291	859.804
17.804	26.151	1055.914	858.902
18.819	25.549	1055.519	855.640
19.834	26.148	1053.772	856.993
20.848	26.150	1053.836	856.978
21.863	26.266	1053.573	857.241
22.877	26.316	1053.509	857.349
23.892	25.996	1052.914	855.272
24.907	26.041	1052.360	854.958
25.921	26.132	1050.991	854.200
26.936	26.013	1049.679	852.499
27.950	25.842	1049.789	851.700
28.965	25.907	1047.978	850.466
29.980	25.893	1047.041	849.564
30.994	25.879	1046.336	848.849
32.009	26.293	1043.956	848.791
33.023	25.933	1045.570	848.330
34.038	26.103	1043.409	847.301
35.053	25.859	1042.075	845.000
36.067	25.872	1041.975	844.905
37.082	25.847	1041.452	844.291
38.096	26.140	1040.128	844.512
39.111	26.016	1040.726	844.343
40.126	26.169	1039.743	844.187
41.140	26.287	1037.043	842.469
42.155	25.780	1037.624	840.499
43.169	25.598	1034.570	837.104
44.184	25.865	1033.874	837.708
45.199	25.742	1032.866	836.247
46.213	25.829	1032.330	836.144
47.228	25.499	1032.431	834.618
48.242	26.002	1030.557	835.361
49.257	25.997	1029.682	834.554
50.271	26.185	1029.374	835.100
51.286	26.203	1028.890	834.715
52.301	26.217	1028.562	834.443
53.315	25.966	1027.876	832.654
54.330	25.945	1027.040	831.807
55.344	25.866	1026.321	830.786
56.359	26.170	1025.039	831.075
57.374	25.911	1025.953	830.546
58.388	25.966	1023.200	828.497
59.403	25.489	1023.757	826.684
60.417	25.994	1022.170	827.648
61.432	25.654	1021.950	825.836
62.447	25.718	1020.891	825.199
63.461	26.021	1020.136	825.905
64.476	25.804	1018.939	823.869
65.490	25.737	1019.126	823.641
66.505	25.863	1017.405	822.754
67.520	25.725	1017.058	821.768
68.534	25.888	1015.716	821.355
69.549	25.886	1013.938	819.837
70.563	25.309	1013.861	817.077
71.578	25.370	1013.037	816.615
72.593	25.311	1013.354	816.534
73.607	24.952	1011.444	813.288
74.622	25.119	1010.070	812.872
75.636	25.537	1009.049	813.870
76.651	25.730	1008.639	814.342
77.666	25.427	1009.102	813.270
78.680	25.442	1006.854	811.452
79.695	25.817	1006.238	812.578
80.709	25.496	1006.411	811.196
81.724	25.588	1004.470	809.976
82.739	25.872	1004.024	810.820
83.753	25.621	1004.124	809.703
84.768	25.960	1003.316	810.504
85.782	26.323	1003.315	812.060
86.797	26.327	1002.988	811.744
87.812	26.272	1001.524	810.239
88.826	26.365	999.624	809.047
89.841	26.302	999.611	808.682
90.855	26.340	999.495	808.689
91.870	26.326	998.442	807.701
92.884	26.509	997.161	807.410
93.899	26.657	995.620	806.750
94.914	26.121	995.227	803.974
95.928	26.319	994.937	804.549
96.943	26.219	994.486	803.670
97.957	26.352	993.661	803.522
98.972	25.738	991.991	799.375
99.987	25.593	991.778	798.492
101.001	25.794	990.247	798.078
102.016	26.364	989.095	799.600
103.030	26.026	989.142	798.073
104.045	26.119	988.246	797.689
105.060	25.836	987.392	795.682
106.074	25.915	985.370	794.329
107.089	25.932	984.477	793.613
108.103	25.994	984.910	794.166
109.118	25.939	984.400	793.440
110.133	25.886	982.629	791.713
111.147	25.756	981.691	790.315
112.162	25.562	980.417	788.369
113.176	25.629	979.496	787.854
114.191	25.826	978.696	788.002
115.206	25.611	978.343	786.708
116.220	25.278	976.939	784.055
117.235	25.124	976.930	783.303
118.249	25.564	974.873	783.503
119.264	25.548	975.025	783.486
120.279	25.397	974.630	782.443
121.293	25.419	973.084	781.227
122.308	25.517	972.109	780.799
123.322	25.572	971.440	780.434
124.337	25.533	970.059	779.087
125.352	25.784	968.102	778.532
126.366	25.208	966.998	775.084
127.381	24.816	966.426	772.865
128.395	25.452	966.733	775.790
129.410	25.713	965.763	776.070
130.424	25.942	965.738	776.968
131.439	26.185	963.465	776.113
132.454	25.986	962.196	774.167
133.468	25.864	961.928	773.362
134.483	25.851	962.203	773.457
135.497	26.181	960.695	773.594
136.512	26.338	960.413	773.968
137.527	26.328	959.905	773.447
138.541	26.393	959.503	773.335
139.556	26.339	958.530	772.252
140.570	26.581	956.875	771.881
141.585	26.425	957.437	771.599
142.600	26.327	956.911	770.689
143.614	26.450	954.573	769.262
144.629	26.693	954.438	770.116
145.643	26.755	955.159	770.895
146.658	26.647	953.415	768.961
147.673	26.460	951.629	766.660
148.687	26.126	950.710	764.439
149.702	26.233	949.553	763.893
150.716	25.773	949.503	761.837
151.731	26.023	948.070	761.676
152.746	26.373	947.608	762.715
153.760	26.458	946.438	762.063
154.775	26.188	946.756	761.115
155.789	26.662	944.296	761.062
156.804	26.827	943.861	761.337
157.819	26.517	943.583	759.745
158.833	26.796	942.351	759.853
159.848	26.741	941.883	759.181
160.862	26.872	940.976	758.928
161.877	26.705	939.759	757.183
162.892	26.287	940.356	755.850
163.906	26.432	939.355	755.583
164.921	26.469	938.215	754.755
165.935	26.711	935.522	753.526
166.950	26.590	935.166	752.669
167.964	26.130	935.751	751.163
168.979	26.470	934.221	751.278
169.994	26.574	933.020	750.678
171.008	26.468	931.465	748.921
172.023	26.502	931.551	749.064
173.037	26.297	931.893	748.426
174.052	26.512	930.229	747.912
175.067	26.343	928.665	745.891
176.081	26.214	928.368	745.055
177.096	26.274	927.371	744.434
178.110	26.200	925.901	742.886
179.125	25.920	925.301	741.185
180.140	26.036	924.229	740.740
181.154	25.856	922.848	738.828
182.169	25.996	922.505	739.064
183.183	25.998	923.011	739.410
184.198	26.296	923.321	740.813
185.213	26.420	921.974	740.177
186.227	25.966	921.458	737.839
187.242	26.168	921.322	738.491
188.256	26.474	919.477	738.197
189.271	26.544	918.809	737.881
190.286	26.617	918.444	737.816
191.300	26.481	918.351	737.123
192.315	26.132	915.803	733.597
193.329	25.244	914.464	728.853
194.344	24.754	913.807	726.278
195.359	25.554	913.437	729.163
196.373	26.337	914.744	733.320
197.388	26.568	914.239	733.786
198.402	26.303	913.949	732.414
199.417	26.123	913.605	731.347
200.432	26.669	912.344	732.480
201.446	26.587	911.725	731.585
202.461	26.203	910.331	728.853
203.475	26.169	910.826	729.048
204.490	25.831	909.754	726.762
205.504	24.911	907.407	721.119
206.519	25.080	906.731	721.200
207.534	26.056	906.687	725.024
208.548	26.400	906.683	726.340
209.563	26.496	906.119	726.208
210.577	26.642	906.011	726.645
211.592	26.111	905.935	724.388
212.607	26.692	905.708	726.471
213.621	26.426	905.449	725.134
214.636	26.488	904.289	724.389
215.650	26.630	903.830	724.523
216.665	26.479	902.998	723.190
217.680	26.533	902.676	723.086
218.694	26.884	900.904	723.002
219.709	26.556	899.917	720.837
220.723	25.989	900.199	718.741
221.738	26.521	898.853	719.720
222.753	26.331	899.700	719.577
223.767	26.335	898.529	718.593
224.782	26.157	898.057	717.444
225.796	26.199	897.938	717.452
226.811	26.551	897.273	718.254
227.826	26.347	895.429	715.907
228.840	25.765	893.025	711.622
229.855	25.426	893.305	710.444
230.869	25.952	893.401	712.536
231.884	25.678	892.398	710.589
232.899	25.457	891.676	709.081
233.913	26.230	892.571	712.780
234.928	26.279	891.553	712.101
235.942	26.609	890.552	712.534
236.957	26.331	890.220	711.114
237.972	26.156	889.494	709.782
238.986	26.155	888.983	709.309
240.001	25.856	889.007	708.091
241.015	26.155	887.735	708.188
242.030	26.407	886.639	708.237
243.045	26.534	886.555	708.604
244.059	26.392	886.379	707.845
245.074	26.426	886.298	707.852
246.088	26.469	884.928	706.861
247.103	26.032	883.859	704.239
248.117	26.156	883.421	704.311
249.132	26.902	883.725	707.404
250.147	27.233	882.999	708.049
251.161	27.275	883.459	708.516
252.176	26.913	882.429	706.219
253.190	27.192	881.895	706.816
254.205	27.468	880.686	706.856
255.220	27.706	881.075	708.028
256.234	27.240	880.612	705.785
257.249	27.401	879.064	705.106
258.263	27.248	878.568	704.053
259.278	27.291	877.781	703.527
260.293	27.205	877.716	703.079
261.307	27.985	876.239	704.844
262.322	27.059	877.491	702.213
263.336	27.261	876.739	702.329
264.351	26.906	874.377	699.004
265.366	26.095	872.540	694.355
266.380	25.490	872.114	691.630
267.395	26.174	872.397	694.424
268.409	26.708	873.471	697.271
269.424	26.937	872.560	697.365
270.439	27.054	870.933	696.451
271.453	27.189	870.217	696.332
272.468	27.205	869.772	695.975
273.482	27.117	870.152	695.883
274.497	27.406	869.035	696.034
275.512	27.067	868.338	694.119
276.526	26.553	867.510	691.430
277.541	26.910	867.491	692.720
278.555	27.079	866.566	692.564
279.570	27.023	866.091	691.909
280.585	26.653	865.429	689.909
281.599	26.638	865.538	689.880
282.614	27.195	863.963	690.681
283.628	26.472	864.180	688.043
284.643	26.249	862.679	685.939
285.657	26.802	862.030	687.461
286.672	26.888	861.178	687.047
287.687	25.964	860.872	683.243
288.701	26.775	860.347	685.834
289.716	26.785	860.395	685.848
290.730	26.483	859.713	684.102
291.745	26.593	858.995	683.889
292.760	26.509	857.593	682.396
293.774	26.519	856.202	681.266
294.789	26.925	857.830	684.030
295.803	27.863	857.742	687.433
296.818	27.862	857.330	687.036
297.833	27.328	857.124	684.803
298.847	27.573	856.160	684.892
299.862	26.758	854.830	680.709
300.876	27.380	853.949	682.280
301.891	27.763	853.492	683.288
302.906	27.503	854.347	682.938
303.920	27.294	853.314	681.269
304.935	27.660	851.604	681.212
305.949	27.512	852.097	680.994
306.964	27.830	851.103	681.326
307.979	27.502	849.939	679.112
308.993	27.151	850.051	677.830
310.008	27.742	849.468	679.509
311.022	27.794	850.171	680.203
312.037	27.392	848.933	677.657
313.052	27.449	848.124	677.165
314.066	27.540	847.415	676.876
315.081	26.621	846.140	672.385
316.095	26.099	844.612	669.176
317.110	26.474	845.163	670.947
318.125	26.998	844.895	672.614
319.139	26.958	843.593	671.373
320.154	25.942	841.762	666.102
321.168	25.037	842.161	663.014
322.183	25.970	841.535	665.910
323.197	26.624	842.320	668.888
324.212	27.154	841.311	669.982
325.227	27.117	842.157	670.461
326.241	27.379	840.756	670.252
327.256	27.536	839.755	669.969
328.270	27.193	840.058	668.889
329.285	26.938	839.020	667.069
330.300	27.117	837.533	666.482
331.314	26.846	836.387	664.519
332.329	26.459	837.819	664.177
333.343	26.914	838.106	666.018
334.358	27.395	837.013	666.850
335.373	27.359	836.223	666.033
336.387	27.450	835.586	665.799
337.402	27.800	834.907	666.478
338.416	27.994	834.914	667.132
339.431	27.961	833.883	666.127
340.446	28.061	833.771	666.344
341.460	28.187	833.349	666.406
342.475	28.012	832.567	665.088
343.489	28.093	832.160	664.998
344.504	27.810	831.877	663.685
345.519	28.318	831.047	664.806
346.533	28.883	830.715	666.531
347.548	28.587	830.113	664.916
348.562	28.466	830.032	664.355
349.577	28.200	829.040	662.539
350.592	28.052	828.746	661.710
351.606	28.485	827.772	662.437
352.621	28.278	827.343	661.290
353.635	28.019	827.059	660.069
354.650	28.517	825.983	660.947
355.665	27.623	825.248	657.080
356.679	26.440	824.910	652.489
357.694	26.596	823.327	651.739
358.708	27.435	823.883	655.144
359.723	27.055	823.252	653.217
360.738	27.758	822.496	655.084
361.752	27.802	823.263	655.794
362.767	27.964	822.919	656.045
363.781	28.140	821.699	655.645
364.796	28.651	821.210	657.025
365.810	28.552	822.054	657.287
366.825	28.869	821.893	658.237
367.840	28.538	821.795	656.914
368.854	28.521	820.479	655.744
369.869	28.097	819.563	653.438
370.883	27.895	819.117	652.303
371.898	28.072	818.345	652.264
372.913	28.238	817.359	652.011
373.927	28.183	817.527	651.891
374.942	27.922	816.928	650.425
375.956	28.360	815.511	650.797
376.971	28.358	815.316	650.577
377.986	28.424	815.058	650.547
379.000	28.723	814.463	651.074
380.015	28.885	814.306	651.465
381.029	28.640	812.800	649.338
382.044	28.257	812.904	648.009
383.059	28.880	812.023	649.450
384.073	28.962	811.868	649.557
385.088	28.202	812.148	647.038
386.102	28.906	810.819	648.406
387.117	28.696	809.796	646.792
388.132	28.374	809.770	645.577
389.146	28.247	808.538	644.092
390.161	27.687	807.672	641.376
391.175	27.554	807.993	641.107
392.190	28.334	808.295	644.035
393.205	28.572	807.086	643.850
394.219	27.399	805.471	638.392
395.234	25.596	803.709	630.625
396.248	24.864	802.908	627.375
397.263	25.881	803.573	631.405
398.278	27.899	804.042	638.784
399.292	27.846	804.514	638.918
400.307	27.336	805.252	637.659
401.321	27.596	803.404	637.047
402.336	27.562	803.310	636.799
403.350	28.328	802.645	638.888
404.365	28.580	803.416	640.326
405.380	28.941	803.166	641.330
406.394	28.987	802.323	640.760
407.409	29.490	801.805	642.037
408.423	29.198	801.712	640.891
409.438	29.201	801.094	640.351
410.453	29.437	799.926	640.181
411.467	29.579	799.727	640.457
412.482	29.640	799.221	640.207
413.496	29.659	797.988	639.228
414.511	29.414	798.459	638.701
415.526	29.538	797.932	638.650
416.540	29.572	797.608	638.453
417.555	29.453	797.763	638.107
418.569	28.842	796.547	634.971
419.584	28.975	795.895	634.854
420.599	28.803	796.121	634.382
421.613	159.435	1370.341	1793.443
422.628	138.217	1453.987	1793.433
