DTS Sentinel unit serial number:	SN413079Multiplexer serial number:	ORYXHardware model number:	OX4-SRSoftware version number:	ORYX F/W v4.00 Oryx Data Collector v3.7.2.0data status	okinstallation	princeton_trtdifferential loss correction	single-endedforward channel	channel 3reverse channel	N/Adate	2019/09/14time	16:28:35forward acquisition time	60.00reverse acquisition time	0.00gamma	496.2192k internal	0.2295k external	0.2295temperature offset calibration	1.0040default loss term (dB/km)	0.3790temperature slope calibration	1.0000multiplexer offset coefficient	1.0000multiplexer slope coefficient	1.0000fibre end	0.00T internal ref (°C)	38.00T ext. ref 1 (°C)	5.05T ext. ref 2 (°C)	33.54length (m)	temperature (°C)	Stokes	anti-Stokes-747.200	-200.000	-0.011	-0.075
-746.185	633.160	0.110	0.285
-745.171	-31.239	0.123	0.071
-744.156	793.015	0.082	0.229
-743.142	62.030	0.122	-0.124
-742.127	-200.000	-0.031	-0.245
-741.112	-124.595	-0.273	-0.043
-740.098	91.870	-0.131	-0.150
-739.083	60.033	-0.115	-0.117
-738.069	-200.000	0.014	0.205
-737.054	1.180	0.081	-0.060
-736.039	123.344	-0.143	-0.183
-735.025	-200.000	-0.014	-0.098
-734.010	671.289	-0.115	-0.303
-732.996	-200.000	-0.001	0.115
-731.981	-134.476	-0.171	-0.021
-730.966	-96.182	-0.083	-0.022
-729.952	-44.174	-0.166	0.085
-728.937	800.000	0.095	-0.371
-727.923	-200.000	0.028	-0.145
-726.908	2.924	-0.081	0.060
-725.894	-200.000	-0.044	-0.249
-724.879	800.000	0.039	-0.161
-723.864	30.014	0.392	-0.341
-722.850	473.626	-0.109	0.250
-721.835	-5.310	0.156	0.110
-720.821	-166.637	0.083	0.004
-719.806	-15.908	-0.155	-0.101
-718.791	-70.954	-0.124	0.048
-717.777	-188.708	0.201	-0.003
-716.762	268.872	0.106	-0.189
-715.748	-29.552	0.205	-0.120
-714.733	156.466	0.008	0.011
-713.718	800.000	-0.021	0.066
-712.704	69.039	-0.096	-0.100
-711.689	162.584	0.026	-0.037
-710.675	475.008	-0.064	-0.148
-709.660	-64.030	0.419	-0.175
-708.645	7.293	-0.285	-0.217
-707.631	83.560	0.192	0.214
-706.616	309.205	-0.102	-0.195
-705.602	800.000	0.061	-0.189
-704.587	110.109	0.149	-0.183
-703.572	800.000	0.102	-0.412
-702.558	95.271	-0.220	-0.256
-701.543	-61.462	-0.090	0.038
-700.529	-46.959	-0.353	-0.176
-699.514	28.990	0.118	-0.102
-698.499	-151.018	-0.098	0.008
-697.485	-0.503	0.216	0.156
-696.470	-29.610	0.210	0.122
-695.456	696.438	-0.070	0.187
-694.441	-200.000	-0.024	0.258
-693.426	-200.000	-0.083	-0.440
-692.412	141.581	-0.125	0.169
-691.397	-10.560	-0.268	0.181
-690.383	13.021	-0.088	-0.070
-689.368	-40.566	-0.122	0.065
-688.354	-49.557	0.134	0.065
-687.339	119.227	0.058	-0.073
-686.324	-89.057	-0.372	-0.112
-685.310	20.516	0.114	-0.094
-684.295	-155.125	-0.306	0.020
-683.281	-200.000	0.018	0.151
-682.266	-8.182	0.309	0.212
-681.251	-200.000	0.017	-0.093
-680.237	-84.222	0.053	0.017
-679.222	98.478	-0.234	0.276
-678.208	-200.000	-0.201	-0.001
-677.193	-200.000	-0.016	-0.234
-676.178	-31.439	-0.200	-0.115
-675.164	99.249	-0.082	0.097
-674.149	-24.821	-0.443	0.269
-673.135	-73.853	-0.421	0.156
-672.120	-131.990	-0.246	-0.033
-671.105	471.650	0.059	-0.135
-670.091	55.350	-0.046	-0.045
-669.076	-149.755	-0.076	-0.006
-668.062	-200.000	0.017	-0.120
-667.047	-21.400	0.035	0.022
-666.032	800.000	0.065	-0.200
-665.018	-101.036	-0.253	-0.063
-664.003	-200.000	-0.040	0.263
-662.989	23.466	-0.136	-0.114
-661.974	86.391	-0.019	-0.021
-660.959	7.173	0.064	0.048
-659.945	54.778	-0.125	-0.123
-658.930	-47.248	0.303	-0.150
-657.916	659.181	0.058	-0.151
-656.901	-48.379	-0.321	-0.158
-655.886	43.041	-0.181	-0.168
-654.872	-165.150	-0.237	-0.011
-653.857	-200.000	-0.058	0.359
-652.843	800.000	-0.034	0.112
-651.828	-59.730	0.154	-0.067
-650.814	262.519	0.071	-0.126
-649.799	347.059	-0.151	0.303
-648.784	1.023	0.105	-0.076
-647.770	86.736	-0.191	-0.215
-646.755	179.409	0.034	0.050
-645.741	710.416	0.084	0.227
-644.726	-200.000	-0.006	-0.047
-643.711	358.468	0.079	0.160
-642.697	133.039	0.082	-0.108
-641.682	5.597	-0.262	0.197
-640.668	91.787	0.285	0.326
-639.653	-112.451	0.339	0.069
-638.638	-104.153	0.190	-0.045
-637.624	-200.000	0.019	0.201
-636.609	-47.794	-0.107	0.053
-635.595	330.593	-0.146	-0.285
-634.580	132.176	0.079	0.103
-633.565	-17.030	0.103	0.066
-632.551	-75.704	0.064	0.023
-631.536	-77.052	-0.082	0.029
-630.522	-77.556	-0.441	-0.156
-629.507	-32.342	-0.180	-0.102
-628.492	800.000	-0.093	0.412
-627.478	116.582	0.131	-0.164
-626.463	121.112	0.250	0.317
-625.449	-200.000	0.012	0.121
-624.434	519.329	0.154	-0.368
-623.419	272.357	0.205	-0.369
-622.405	-42.069	-0.105	0.055
-621.390	-78.237	0.297	-0.104
-620.376	157.990	-0.038	-0.054
-619.361	-63.954	-0.254	0.106
-618.346	-130.460	-0.170	-0.023
-617.332	800.000	-0.089	-0.285
-616.317	140.255	-0.061	-0.082
-615.303	800.000	0.056	-0.200
-614.288	-51.430	-0.162	0.077
-613.273	326.240	-0.059	0.115
-612.259	-200.000	-0.010	-0.214
-611.244	102.707	-0.062	-0.074
-610.230	-144.856	-0.115	-0.011
-609.215	0.775	0.078	0.057
-608.201	800.000	0.127	-0.418
-607.186	131.849	-0.240	0.314
-606.171	-167.888	0.301	0.012
-605.157	-31.649	-0.087	0.050
-604.142	124.011	0.027	0.034
-603.128	-124.489	0.319	-0.050
-602.113	-60.789	-0.163	0.070
-601.098	8.589	-0.083	-0.063
-600.084	-83.099	-0.096	-0.031
-599.069	-49.689	-0.093	0.045
-598.055	-200.000	-0.009	-0.192
-597.040	-200.000	0.024	0.496
-596.025	-96.920	-0.063	-0.017
-595.011	194.479	-0.063	-0.097
-593.996	-97.250	0.078	0.021
-592.982	800.000	0.043	0.138
-591.967	800.000	-0.023	-0.098
-590.952	-13.438	-0.084	0.055
-589.938	186.495	0.087	0.132
-588.923	201.988	-0.154	-0.241
-587.909	524.268	0.051	-0.123
-586.894	443.800	0.073	0.162
-585.879	-200.000	0.002	0.163
-584.865	800.000	-0.039	0.140
-583.850	-78.641	-0.151	-0.052
-582.836	-85.637	0.101	-0.032
-581.821	466.072	0.027	-0.061
-580.806	800.000	-0.063	0.238
-579.792	-200.000	-0.039	0.192
-578.777	57.193	0.055	-0.054
-577.763	-200.000	0.037	0.231
-576.748	301.974	-0.209	-0.393
-575.733	800.000	0.152	-0.435
-574.719	-101.311	-0.169	-0.042
-573.704	-52.254	-0.292	-0.138
-572.690	-7.790	-0.231	0.158
-571.675	800.000	-0.040	-0.151
-570.661	154.211	0.069	0.096
-569.646	268.990	-0.095	-0.170
-568.631	-58.847	-0.037	0.016
-567.617	-89.828	-0.245	0.073
-566.602	800.000	-0.080	0.243
-565.588	800.000	-0.033	0.139
-564.573	342.662	-0.054	-0.107
-563.558	133.174	0.080	-0.105
-562.544	-101.694	0.231	0.057
-561.529	-48.275	-0.386	-0.189
-560.515	71.960	-0.058	-0.061
-559.500	23.833	-0.181	0.151
-558.485	-2.926	0.259	0.184
-557.471	125.195	-0.132	-0.169
-556.456	154.822	0.075	-0.105
-555.442	800.000	0.039	-0.131
-554.427	-200.000	0.009	-0.060
-553.412	-18.395	-0.098	-0.062
-552.398	558.797	-0.136	0.332
-551.383	800.000	0.078	0.223
-550.369	-100.232	-0.408	-0.103
-549.354	-0.214	0.211	0.153
-548.339	-115.208	0.081	-0.016
-547.325	-91.533	-0.425	-0.123
-546.310	-200.000	-0.004	0.302
-545.296	800.000	-0.032	-0.099
-544.281	0.977	-0.117	0.085
-543.266	800.000	0.046	-0.137
-542.252	153.831	-0.098	0.136
-541.237	11.719	-0.208	-0.162
-540.223	-200.000	0.019	-0.530
-539.208	14.298	-0.212	0.168
-538.193	46.309	-0.198	-0.186
-537.179	-200.000	0.002	0.033
-536.164	564.023	0.074	0.181
-535.150	581.179	-0.061	0.152
-534.135	167.576	-0.092	0.133
-533.121	97.612	-0.134	-0.156
-532.106	-1.077	-0.086	-0.062
-531.091	-48.169	0.245	0.120
-530.077	378.515	-0.156	0.324
-529.062	-200.000	-0.059	-0.449
-528.048	6.914	0.130	0.098
-527.033	300.809	-0.216	0.405
-526.018	-6.066	-0.179	-0.124
-525.004	48.515	0.091	-0.087
-523.989	-47.639	0.065	-0.032
-522.975	-97.939	-0.078	0.020
-521.960	-138.568	-0.444	0.049
-520.945	-135.673	0.180	0.022
-519.931	174.886	0.099	-0.145
-518.916	800.000	-0.144	0.477
-517.902	165.125	0.358	0.512
-516.887	-68.009	-0.138	0.055
-515.872	-200.000	-0.013	0.284
-514.858	10.893	0.123	0.095
-513.843	800.000	-0.044	-0.179
-512.829	-70.811	0.198	-0.075
-511.814	-87.912	0.398	0.121
-510.799	57.210	-0.225	-0.222
-509.785	-93.081	0.444	-0.125
-508.770	80.623	-0.210	0.229
-507.756	258.509	-0.138	-0.241
-506.741	251.393	0.093	-0.161
-505.726	-22.367	-0.015	0.009
-504.712	157.033	0.135	-0.189
-503.697	490.977	0.085	0.198
-502.683	-9.072	0.229	-0.155
-501.668	-93.336	0.211	-0.059
-500.653	-110.749	0.467	-0.098
-499.639	-22.572	-0.051	-0.031
-498.624	13.225	0.110	0.086
-497.610	-200.000	0.003	0.105
-496.595	-0.118	0.243	0.175
-495.581	-115.335	0.470	0.090
-494.566	34.027	0.093	-0.082
-493.551	-200.000	-0.005	-0.166
-492.537	269.654	0.072	-0.128
-491.522	-10.968	-0.278	-0.186
-490.508	-200.000	0.045	0.243
-489.493	800.000	-0.092	-0.300
-488.478	201.509	-0.172	-0.268
-487.464	-200.000	0.050	-0.317
-486.449	-200.000	-0.027	0.265
-485.435	342.908	-0.048	0.095
-484.420	800.000	0.123	-0.363
-483.405	351.892	0.099	0.198
-482.391	-200.000	-0.021	0.197
-481.376	-97.094	0.241	-0.064
-480.362	523.523	-0.026	0.061
-479.347	-44.588	-0.296	0.150
-478.332	-200.000	-0.028	0.161
-477.318	-200.000	-0.021	0.377
-476.303	-51.947	0.185	-0.087
-475.289	12.012	-0.123	-0.096
-474.274	-30.584	0.077	0.044
-473.259	-200.000	0.017	0.292
-472.245	800.000	-0.032	-0.137
-471.230	252.693	0.083	-0.144
-470.216	-96.146	-0.101	0.027
-469.201	97.764	0.153	0.178
-468.186	131.742	0.223	-0.290
-467.172	273.880	0.120	0.215
-466.157	270.956	-0.134	-0.239
-465.143	48.494	-0.416	-0.394
-464.128	-37.672	-0.114	-0.061
-463.113	-102.919	-0.338	0.081
-462.099	21.832	-0.107	-0.088
-461.084	-200.000	-0.006	-0.084
-460.070	800.000	-0.005	0.019
-459.055	-106.868	-0.007	0.002
-458.040	800.000	0.054	-0.214
-457.026	527.333	-0.053	0.127
-456.011	348.180	-0.114	0.227
-454.997	145.673	-0.025	-0.034
-453.982	77.416	0.169	0.182
-452.968	-27.006	0.224	0.132
-451.953	-48.304	0.250	0.122
-450.938	-38.621	-0.172	0.092
-449.924	-200.000	0.040	0.347
-448.909	33.206	0.046	-0.040
-447.895	461.668	-0.090	0.203
-446.880	15.727	-0.111	0.088
-445.865	246.810	0.119	0.203
-444.851	174.118	0.048	0.069
-443.836	-200.000	0.056	0.419
-442.822	-196.304	-0.110	-0.001
-441.807	-121.512	0.016	-0.003
-440.792	-112.716	0.082	-0.016
-439.778	109.324	0.093	0.113
-438.763	-38.538	-0.301	0.161
-437.749	154.349	-0.240	-0.332
-436.734	3.338	0.385	-0.283
-435.719	-200.000	-0.008	-0.051
-434.705	98.789	-0.062	0.072
-433.690	-149.739	0.428	-0.034
-432.676	-200.000	-0.011	-0.189
-431.661	-44.470	-0.159	-0.080
-430.646	13.351	-0.165	-0.129
-429.632	80.267	0.171	-0.186
-428.617	-200.000	-0.001	0.223
-427.603	-12.605	-0.139	0.092
-426.588	106.876	0.138	-0.165
-425.573	487.917	0.089	0.205
-424.559	-137.777	-0.388	-0.044
-423.544	726.758	0.114	0.307
-422.530	-200.000	0.005	-0.104
-421.515	-26.172	0.074	0.044
-420.500	800.000	-0.076	-0.221
-419.486	-69.653	-0.108	-0.042
-418.471	800.000	-0.052	-0.212
-417.457	-67.701	0.145	0.057
-416.442	358.698	0.035	0.070
-415.428	52.342	-0.111	-0.107
-414.413	-198.837	-0.164	-0.001
-413.398	-200.000	0.010	0.346
-412.384	62.461	-0.178	0.179
-411.369	-122.565	0.504	0.083
-410.355	800.000	0.079	0.239
-409.340	31.606	0.188	-0.163
-408.325	-200.000	-0.031	-0.141
-407.311	-20.906	-0.106	0.065
-406.296	800.000	-0.110	-0.379
-405.282	-118.615	0.122	0.022
-404.267	51.685	0.060	-0.057
-403.252	-200.000	-0.059	0.288
-402.238	-200.000	0.048	-0.287
-401.223	48.861	0.308	-0.291
-400.209	530.099	0.055	-0.131
-399.194	-94.291	0.102	-0.028
-398.179	431.836	-0.029	0.063
-397.165	-200.000	-0.006	-0.353
-396.150	-200.000	-0.017	-0.082
-395.136	70.763	0.271	-0.283
-394.121	122.368	-0.274	-0.346
-393.106	-200.000	-0.046	0.410
-392.092	800.000	0.010	-0.040
-391.077	-131.664	-0.406	-0.054
-390.063	-9.787	-0.321	-0.216
-389.048	-200.000	0.006	0.000
-388.033	-200.000	0.005	0.341
-387.019	-200.000	-0.067	0.383
-386.004	-124.993	0.246	0.038
-384.990	162.555	-0.162	0.229
-383.975	384.911	-0.180	0.373
-382.960	40.152	0.139	0.126
-381.946	231.107	-0.079	0.130
-380.931	115.299	-0.093	0.115
-379.917	72.508	0.174	-0.183
-378.902	-200.000	-0.067	-0.331
-377.888	-89.898	0.278	-0.082
-376.873	-200.000	-0.044	0.207
-375.858	300.770	0.064	0.118
-374.844	110.238	-0.253	0.306
-373.829	409.659	-0.034	-0.074
-372.815	474.598	-0.035	-0.081
-371.800	-200.000	0.013	-0.061
-370.785	-200.000	-0.021	0.485
-369.771	-194.666	-0.222	0.002
-368.756	163.488	0.120	-0.170
-367.742	-158.223	-0.118	0.007
-366.727	89.673	-0.199	0.223
-365.712	-101.221	0.205	0.051
-364.698	148.773	0.047	-0.064
-363.683	-22.288	-0.268	-0.164
-362.669	94.984	0.042	-0.049
-361.654	-200.000	0.032	0.296
-360.639	-200.000	0.017	-0.119
-359.625	285.182	0.162	0.294
-358.610	-81.137	0.214	0.071
-357.596	59.255	0.081	0.080
-356.581	214.559	0.090	0.144
-355.566	-0.931	0.100	-0.072
-354.552	46.185	-0.290	0.270
-353.537	347.300	-0.152	0.301
-352.523	127.627	-0.215	-0.275
-351.508	-102.951	-0.426	0.102
-350.493	103.674	0.165	0.195
-349.479	-200.000	-0.038	-0.229
-348.464	-200.000	0.002	0.012
-347.450	-57.753	-0.299	0.132
-346.435	152.499	-0.066	0.090
-345.420	36.727	0.266	0.236
-344.406	-64.903	-0.345	0.140
-343.391	-167.269	0.212	-0.009
-342.377	316.030	-0.088	0.167
-341.362	-91.091	-0.097	-0.028
-340.348	-200.000	0.046	0.296
-339.333	420.564	0.119	-0.257
-338.318	-200.000	-0.023	-0.205
-337.304	-200.000	-0.022	0.242
-336.289	247.855	0.078	0.132
-335.275	-13.933	-0.184	0.119
-334.260	-122.925	-0.287	0.047
-333.245	55.840	-0.122	-0.119
-332.231	-200.000	0.004	-0.310
-331.216	-200.000	-0.017	-0.275
-330.202	-103.211	-0.066	0.016
-329.187	56.791	0.120	0.117
-328.172	82.016	0.173	0.189
-327.158	-84.429	0.118	0.037
-326.143	-20.271	0.152	0.094
-325.129	-200.000	0.020	0.163
-324.114	483.158	0.053	-0.122
-323.099	-154.926	0.383	-0.025
-322.085	800.000	0.129	-0.370
-321.070	128.473	-0.175	0.224
-320.056	-86.008	0.094	-0.029
-319.041	-7.399	-0.142	0.097
-318.026	-200.000	0.006	0.028
-317.012	244.531	0.251	-0.423
-315.997	-200.000	0.004	0.068
-314.983	-0.205	0.278	0.199
-313.968	-119.647	0.278	-0.048
-312.953	-116.797	-0.107	-0.020
-311.939	-48.788	-0.108	0.052
-310.924	-123.740	0.321	0.051
-309.910	-147.200	-0.154	-0.013
-308.895	-107.209	-0.143	-0.032
-307.880	-72.040	0.290	0.108
-306.866	170.659	-0.171	-0.246
-305.851	-16.464	-0.165	-0.105
-304.837	-49.656	0.178	0.085
-303.822	-17.334	0.097	0.061
-302.807	-136.754	-0.190	-0.022
-301.793	-200.000	0.049	0.229
-300.778	-200.000	-0.007	-0.113
-299.764	-165.131	-0.283	-0.013
-298.749	-45.765	-0.436	-0.216
-297.735	491.454	0.077	-0.177
-296.720	-8.866	0.240	0.161
-295.705	14.879	-0.120	-0.095
-294.691	-50.844	0.275	-0.130
-293.676	-200.000	0.023	-0.380
-292.662	144.386	0.062	-0.083
-291.647	-2.486	-0.120	0.084
-290.632	221.133	-0.130	-0.210
-289.618	-191.013	-0.170	-0.002
-288.603	1.911	0.163	0.118
-287.589	-200.000	0.065	-0.290
-286.574	-30.689	0.443	-0.252
-285.559	-200.000	0.007	-0.101
-284.545	-19.530	-0.156	-0.097
-283.530	-200.000	-0.002	-0.264
-282.516	-98.185	-0.279	-0.072
-281.501	-170.364	0.185	-0.007
-280.486	8.056	-0.047	0.035
-279.472	185.353	0.177	-0.264
-278.457	-88.459	0.272	-0.081
-277.443	-200.000	-0.031	-0.247
-276.428	349.558	-0.065	-0.128
-275.413	64.462	-0.094	-0.095
-274.399	-149.547	0.259	0.021
-273.384	-200.000	0.000	0.025
-272.370	213.135	-0.149	0.236
-271.355	333.529	-0.171	-0.332
-270.340	-200.000	0.016	-0.240
-269.326	-124.479	0.416	0.065
-268.311	800.000	0.009	-0.029
-267.297	-85.471	0.258	0.081
-266.282	-43.507	0.236	-0.120
-265.267	-164.396	-0.278	-0.013
-264.253	-141.115	0.506	0.052
-263.238	195.324	-0.237	-0.361
-262.224	32.420	-0.108	0.094
-261.209	-16.731	0.175	0.111
-260.195	-47.777	-0.116	0.056
-259.180	800.000	-0.208	0.576
-258.165	24.485	0.266	-0.220
-257.151	36.024	0.223	0.197
-256.136	-200.000	0.030	0.177
-255.122	800.000	-0.016	-0.060
-254.107	41.255	-0.160	0.145
-253.092	-200.000	-0.043	0.219
-252.078	245.296	0.094	-0.159
-251.063	-125.509	-0.309	-0.047
-250.049	-151.824	-0.284	0.021
-249.034	115.531	-0.079	-0.097
-248.019	-200.000	0.007	-0.303
-247.005	278.127	-0.076	-0.136
-245.990	202.098	0.033	-0.051
-244.976	-37.828	-0.217	-0.116
-243.961	158.105	0.098	-0.137
-242.946	-8.175	-0.226	0.153
-241.932	-26.675	0.119	0.070
-240.917	-58.642	-0.282	-0.122
-239.903	-19.014	0.465	-0.290
-238.888	-32.264	-0.312	0.175
-237.873	97.283	0.085	-0.098
-236.859	72.482	0.086	0.090
-235.844	763.187	0.189	0.515
-234.830	-124.804	0.280	-0.043
-233.815	-115.858	0.116	-0.022
-232.800	-143.107	-0.143	-0.014
-231.786	145.263	-0.109	0.147
-230.771	-84.320	0.210	0.067
-229.757	67.405	-0.117	-0.120
-228.742	131.276	-0.082	0.106
-227.727	61.531	-0.098	-0.097
-226.713	-200.000	0.004	-0.181
-225.698	800.000	-0.040	0.126
-224.684	153.091	0.057	0.078
-223.669	-35.835	-0.192	0.104
-222.655	-57.112	-0.404	-0.178
-221.640	213.499	0.236	-0.374
-220.625	329.719	0.176	-0.340
-219.611	759.622	-0.116	-0.315
-218.596	-36.123	0.134	0.073
-217.582	-200.000	-0.021	0.172
-216.567	800.000	0.114	0.351
-215.552	94.352	0.019	-0.022
-214.538	138.466	0.052	0.069
-213.523	250.349	-0.081	-0.139
-212.509	338.325	-0.123	0.239
-211.494	800.000	-0.021	-0.071
-210.479	-20.911	0.312	-0.191
-209.465	273.040	-0.019	-0.034
-208.450	56.848	0.137	0.134
-207.436	-200.000	0.024	-0.196
-206.421	127.678	0.225	-0.286
-205.406	148.919	0.120	0.162
-204.392	-200.000	-0.013	0.082
-203.377	800.000	-0.019	0.060
-202.363	800.000	-0.038	-0.125
-201.348	145.800	0.133	0.178
-200.333	800.000	-0.092	-0.297
-199.319	-184.218	0.181	-0.003
-198.304	36.470	-0.179	0.158
-197.290	46.524	0.248	0.230
-196.275	-65.732	0.188	-0.075
-195.260	211.447	-0.170	-0.268
-194.246	69.838	0.074	-0.077
-193.231	-15.752	0.064	-0.041
-192.217	-200.000	-0.000	0.127
-191.202	-76.686	-0.346	0.121
-190.187	-63.638	-0.320	0.131
-189.173	-44.739	0.280	-0.140
-188.158	-96.936	-0.257	-0.067
-187.144	-94.013	-0.255	0.070
-186.129	167.828	0.079	-0.112
-185.114	-79.787	0.375	-0.126
-184.100	664.583	-0.075	-0.192
-183.085	114.685	0.032	-0.039
-182.071	800.000	-0.023	0.089
-181.056	-80.697	0.356	0.118
-180.042	-181.277	0.090	-0.002
-179.027	72.370	-0.168	0.175
-178.012	4.986	-0.080	-0.059
-176.998	121.932	0.076	-0.095
-175.983	52.135	-0.172	-0.164
-174.969	5.720	-0.037	0.028
-173.954	-200.000	0.026	0.160
-172.939	-109.367	0.079	-0.017
-171.925	-164.369	0.217	0.010
-170.910	-153.560	-0.183	-0.013
-169.896	-200.000	-0.027	-0.126
-168.881	-137.582	-0.067	0.008
-167.866	283.710	-0.022	-0.040
-166.852	19.517	-0.176	-0.141
-165.837	223.847	-0.029	-0.047
-164.823	-57.575	0.191	-0.084
-163.808	-57.354	0.115	-0.050
-162.793	18.768	0.119	-0.095
-161.779	800.000	0.099	0.307
-160.764	800.000	-0.095	0.329
-159.750	-145.656	-0.060	-0.005
-158.735	-10.695	-0.106	-0.070
-157.720	800.000	0.085	-0.304
-156.706	-200.000	0.059	0.284
-155.691	-150.426	-0.079	-0.006
-154.677	389.170	-0.058	-0.121
-153.662	5.991	0.323	0.239
-152.647	-200.000	0.020	-0.159
-151.633	-1.041	0.263	-0.186
-150.618	15.779	-0.165	-0.129
-149.604	800.000	0.122	0.362
-148.589	-58.722	0.099	0.043
-147.574	-200.000	-0.017	-0.167
-146.560	800.000	0.131	-0.452
-145.545	-33.652	0.190	0.105
-144.531	-76.632	0.246	0.086
-143.516	-142.920	0.054	-0.005
-142.502	51.419	-0.180	0.170
-141.487	-200.000	0.046	-0.616
-140.472	-200.000	-0.003	-0.078
-139.458	-75.592	0.275	-0.098
-138.443	-2.896	-0.093	0.065
-137.429	53.471	-0.149	0.142
-136.414	77.775	0.270	0.287
-135.399	-29.680	0.080	0.045
-134.385	410.779	0.105	0.222
-133.370	24.946	-0.097	-0.080
-132.356	800.000	-0.058	0.251
-131.341	331.627	0.127	0.244
-130.326	-200.000	0.010	0.096
-129.312	11.492	-0.108	0.083
-128.297	-24.525	0.199	0.118
-127.283	-32.528	0.124	-0.069
-126.268	268.166	-0.071	0.124
-125.253	-116.174	0.141	0.026
-124.239	377.620	0.087	-0.178
-123.224	-72.987	0.167	-0.061
-122.210	800.000	0.046	0.172
-121.195	-3.670	0.275	-0.191
-120.180	174.830	-0.055	0.079
-119.166	-128.080	-0.168	0.024
-118.151	-200.000	-0.003	0.228
-117.137	174.918	0.145	-0.209
-116.122	-46.299	0.221	0.108
-115.107	-148.329	0.174	-0.014
-114.093	-151.960	0.279	-0.020
-113.078	-200.000	0.007	-0.402
-112.064	154.595	-0.107	0.147
-111.049	-18.790	-0.237	0.147
-110.034	398.861	-0.152	-0.318
-109.020	71.188	-0.132	-0.136
-108.005	-63.847	-0.215	0.088
-106.991	-63.036	-0.210	0.086
-105.976	800.000	0.064	0.250
-104.962	-22.313	0.332	-0.201
-103.947	381.159	-0.154	0.316
-102.932	-40.452	-0.217	-0.113
-101.918	-115.343	0.301	-0.057
-100.903	153.335	0.173	-0.236
-99.889	41.773	-0.300	0.271
-98.874	50.663	-0.246	0.232
-97.859	131.700	0.060	0.077
-96.845	-200.000	-0.001	-0.016
-95.830	-200.000	-0.035	0.184
-94.816	108.992	0.203	0.242
-93.801	-82.655	-0.227	0.073
-92.786	-29.725	-0.268	0.153
-91.772	-200.000	-0.042	0.383
-90.757	800.000	-0.052	-0.186
-89.743	279.310	-0.072	0.127
-88.728	800.000	-0.081	0.334
-87.713	172.073	-0.093	0.134
-86.699	474.241	-0.166	0.373
-85.684	256.318	0.166	0.284
-84.670	74.808	0.238	0.249
-83.655	-200.000	0.073	0.480
-82.640	83.083	0.166	0.180
-81.626	527.310	0.095	0.223
-80.611	-172.742	0.143	-0.004
-79.597	-200.000	0.056	0.304
-78.582	-61.598	0.397	-0.166
-77.567	-94.547	-0.426	-0.116
-76.553	-69.979	-0.234	0.089
-75.538	-56.982	0.071	-0.031
-74.524	43.059	0.215	0.196
-73.509	800.000	-0.136	0.407
-72.494	487.557	0.030	0.068
-71.480	-163.518	0.556	-0.026
-70.465	302.876	0.131	-0.241
-69.451	800.000	0.025	0.075
-68.436	-103.606	-0.143	-0.033
-67.422	430.122	-0.037	0.079
-66.407	33.681	0.190	-0.164
-65.392	-40.011	-0.116	-0.060
-64.378	-145.103	-0.193	-0.017
-63.363	20.131	0.183	0.147
-62.349	-200.000	-0.010	0.225
-61.334	54.558	-0.675	-0.647
-60.319	800.000	0.176	0.542
-59.305	800.000	0.158	-0.640
-58.290	800.000	0.157	0.540
-57.276	373.599	0.696	1.408
-56.261	-200.000	86.721	499.115
-55.246	534.591	1382.801	3261.397
-54.232	183.822	2598.144	3823.805
-53.217	117.713	2238.498	2741.628
-52.203	47.610	1766.201	1638.985
-51.188	41.038	1572.242	1412.484
-50.173	38.497	1544.741	1369.963
-49.159	54.642	1589.597	1524.690
-48.144	58.877	1609.383	1573.702
-47.130	41.478	1567.962	1411.529
-46.115	38.166	1553.122	1374.850
-45.100	38.021	1549.569	1370.627
-44.086	38.032	1547.351	1368.689
-43.071	37.953	1545.260	1366.233
-42.057	37.980	1543.804	1365.079
-41.042	37.883	1542.259	1362.981
-40.027	37.916	1541.095	1362.129
-39.013	37.862	1539.225	1360.047
-37.998	38.079	1537.144	1359.663
-36.984	37.860	1536.598	1357.605
-35.969	37.943	1534.851	1356.587
-34.954	37.993	1533.470	1355.658
-33.940	38.044	1532.379	1354.990
-32.925	38.097	1530.901	1354.002
-31.911	38.003	1529.572	1352.118
-30.896	38.054	1528.373	1351.358
-29.881	38.057	1526.914	1350.038
-28.867	38.126	1525.386	1349.109
-27.852	38.082	1523.596	1347.167
-26.838	38.068	1522.080	1345.679
-25.823	38.048	1520.610	1344.186
-24.809	38.061	1519.188	1342.963
-23.794	38.089	1517.587	1341.687
-22.779	38.065	1516.322	1340.353
-21.765	38.072	1515.438	1339.566
-20.750	38.021	1514.589	1338.410
-19.736	38.020	1513.130	1337.062
-18.721	38.000	1511.646	1335.560
-17.706	37.972	1510.591	1334.383
-16.692	37.896	1509.792	1333.106
-15.677	38.079	1508.187	1332.890
-14.663	38.021	1507.150	1331.519
-13.648	37.952	1505.997	1329.977
-12.633	38.000	1505.148	1329.504
-11.619	38.007	1504.104	1328.574
-10.604	37.906	1503.878	1327.636
-9.590	37.956	1502.275	1326.506
-8.575	37.949	1501.317	1325.565
-7.560	37.956	1500.764	1325.071
-6.546	37.999	1499.959	1324.601
-5.531	37.919	1499.394	1323.504
-4.517	37.901	1498.302	1322.366
-3.502	37.884	1497.092	1321.130
-2.487	37.909	1495.829	1320.133
-1.473	37.766	1495.247	1318.599
-0.458	37.953	1493.846	1318.577
0.556	38.091	1484.094	1307.576
1.571	35.038	1456.536	1263.079
2.586	31.186	1392.651	1183.208
3.600	29.047	1306.918	1097.531
4.615	27.116	1257.692	1045.003
5.629	22.920	1199.226	973.274
6.644	13.425	1111.444	853.230
7.659	6.107	1067.012	782.711
8.673	5.071	1061.128	773.194
9.688	5.097	1058.301	771.194
10.702	4.996	1057.042	769.714
11.717	5.046	1055.330	768.646
12.731	7.621	1058.065	783.279
13.746	15.992	1070.013	833.635
14.761	21.176	1076.172	864.086
15.775	20.108	1073.333	856.452
16.790	18.821	1070.794	848.002
17.804	17.744	1068.931	841.145
18.819	16.805	1066.798	834.769
19.834	16.480	1065.099	831.764
20.848	16.236	1064.089	829.706
21.863	15.865	1063.692	827.495
22.877	15.622	1063.094	825.764
23.892	15.691	1062.006	825.184
24.907	15.424	1061.119	823.115
25.921	15.484	1060.581	822.920
26.936	15.421	1059.778	821.913
27.950	15.553	1058.436	821.444
28.965	15.491	1058.057	820.774
29.980	15.692	1056.201	820.245
30.994	15.596	1055.218	818.939
32.009	15.744	1054.329	818.898
33.023	15.789	1053.811	818.643
34.038	15.680	1053.299	817.643
35.053	15.588	1052.259	816.315
36.067	15.573	1051.089	815.261
37.082	15.549	1050.130	814.328
38.096	15.622	1049.279	813.951
39.111	15.713	1048.496	813.712
40.126	15.697	1047.589	812.862
41.140	15.636	1046.513	811.660
42.155	15.444	1045.589	809.942
43.169	15.288	1044.936	808.613
44.184	15.259	1043.592	807.363
45.199	15.226	1042.404	806.213
46.213	15.185	1041.778	805.461
47.228	15.299	1040.733	805.130
48.242	15.411	1039.889	804.943
49.257	15.462	1039.101	804.507
50.271	15.515	1037.600	803.526
51.286	15.574	1036.633	802.986
52.301	15.623	1035.812	802.514
53.315	15.372	1035.627	801.101
54.330	15.458	1034.062	800.232
55.344	15.372	1033.551	799.352
56.359	15.281	1032.418	797.973
57.374	15.375	1031.705	797.802
58.388	15.409	1030.578	797.018
59.403	15.316	1029.928	796.005
60.417	15.258	1029.004	794.945
61.432	15.332	1028.073	794.504
62.447	15.167	1027.463	793.184
63.461	15.135	1026.708	792.377
64.476	15.171	1025.636	791.650
65.490	15.147	1024.940	790.929
66.505	15.086	1024.083	789.910
67.520	15.081	1023.247	789.172
68.534	15.225	1022.115	788.908
69.549	15.227	1021.587	788.442
70.563	15.311	1020.872	788.215
71.578	15.290	1019.616	787.075
72.593	15.120	1019.008	785.738
73.607	15.068	1018.163	784.773
74.622	15.078	1016.860	783.747
75.636	15.038	1016.139	782.933
76.651	15.103	1015.538	782.706
77.666	15.079	1014.871	782.013
78.680	15.139	1013.755	781.360
79.695	15.048	1013.893	780.974
80.709	15.162	1012.893	780.665
81.724	15.172	1012.442	780.295
82.739	15.340	1011.235	780.077
83.753	15.354	1010.865	779.790
84.768	15.420	1010.008	779.367
85.782	15.608	1009.163	779.517
86.797	15.609	1008.591	779.010
87.812	15.893	1007.584	779.479
88.826	15.470	1007.371	777.287
89.841	15.438	1006.232	776.190
90.855	15.422	1005.593	775.558
91.870	15.620	1004.789	775.782
92.884	15.600	1003.901	774.937
93.899	15.683	1003.127	774.651
94.914	15.784	1002.207	774.336
95.928	15.617	1001.662	773.078
96.943	15.653	1000.733	772.459
97.957	15.617	999.849	771.541
98.972	15.657	998.964	770.975
99.987	15.664	998.306	770.433
101.001	15.551	997.647	769.338
102.016	15.691	996.539	769.055
103.030	15.612	996.098	768.285
104.045	15.656	995.079	767.633
105.060	15.564	994.329	766.569
106.074	15.562	992.708	765.241
107.089	15.410	992.475	764.299
108.103	15.404	990.698	762.839
109.118	15.314	989.467	761.415
110.133	15.097	989.868	760.668
111.147	15.259	988.449	760.246
112.162	15.083	987.822	758.900
113.176	15.186	986.583	758.344
114.191	15.301	985.914	758.286
115.206	15.307	985.105	757.623
116.220	15.316	984.006	756.749
117.235	15.350	983.283	756.280
118.249	15.289	982.538	755.367
119.264	15.304	981.987	754.944
120.279	15.238	981.070	753.875
121.293	15.271	980.111	753.219
122.308	15.170	979.450	752.191
123.322	15.157	978.514	751.348
124.337	15.135	977.335	750.278
125.352	15.264	976.335	750.019
126.366	15.157	975.478	748.819
127.381	15.187	974.117	747.838
128.395	15.118	973.378	746.902
129.410	15.090	972.585	746.098
130.424	15.136	971.722	745.578
131.439	15.252	970.773	745.298
132.454	15.129	970.154	744.213
133.468	15.303	969.105	744.114
134.483	15.353	968.818	744.048
135.497	15.418	967.705	743.416
136.512	15.291	967.632	742.732
137.527	15.406	966.399	742.229
138.541	15.433	965.567	741.641
139.556	15.513	964.709	741.272
140.570	15.270	964.550	740.011
141.585	15.322	963.579	739.429
142.600	15.539	963.072	739.929
143.614	15.569	962.054	739.214
144.629	15.698	961.411	739.223
145.643	15.723	960.642	738.677
146.658	15.754	959.507	737.876
147.673	15.571	958.726	736.404
148.687	15.379	958.031	734.965
149.702	15.450	956.987	734.413
150.716	15.297	956.176	733.056
151.731	15.369	955.477	732.768
152.746	15.295	954.840	731.891
153.760	15.304	954.185	731.365
154.775	15.356	953.217	730.786
155.789	15.588	952.256	730.993
156.804	15.493	951.613	730.022
157.819	15.564	950.918	729.732
158.833	15.661	949.932	729.331
159.848	15.753	949.199	729.103
160.862	15.689	948.628	728.323
161.877	15.774	947.992	728.139
162.892	15.579	946.898	726.390
163.906	15.509	946.073	725.391
164.921	15.461	945.218	724.465
165.935	15.523	944.165	723.862
166.950	15.419	943.271	722.662
167.964	15.501	942.346	722.243
168.979	15.586	941.404	721.824
169.994	15.553	940.261	720.742
171.008	15.548	939.763	720.272
172.023	15.494	938.862	719.288
173.037	15.707	938.237	719.657
174.052	15.717	937.261	718.888
175.067	15.692	936.707	718.290
176.081	15.543	936.062	717.098
177.096	15.458	935.205	716.017
178.110	15.501	934.215	715.377
179.125	15.512	933.542	714.846
180.140	15.537	932.931	714.420
181.154	15.588	932.019	713.877
182.169	15.666	931.322	713.611
183.183	15.630	931.227	713.322
184.198	15.788	930.255	713.183
185.213	15.784	929.611	712.611
186.227	15.855	929.095	712.453
187.242	15.827	928.232	711.609
188.256	15.817	927.668	711.069
189.271	15.983	926.817	711.058
190.286	15.991	926.261	710.599
191.300	15.757	925.369	708.868
192.315	15.499	924.541	707.083
193.329	15.545	923.310	706.271
194.344	15.511	923.086	705.896
195.359	15.531	922.090	705.156
196.373	15.657	921.986	705.545
197.388	15.697	921.557	705.323
198.402	15.883	921.179	705.751
199.417	15.798	920.770	705.018
200.432	16.063	920.522	705.874
201.446	16.142	919.473	705.338
202.461	16.162	919.526	705.401
203.475	16.252	919.022	705.328
204.490	16.256	917.770	704.319
205.504	16.172	916.852	703.203
206.519	16.039	916.143	702.042
207.534	15.930	915.693	701.182
208.548	15.971	914.711	700.539
209.563	16.047	914.152	700.364
210.577	15.905	913.703	699.369
211.592	16.005	912.514	698.813
212.607	16.208	912.470	699.558
213.621	16.302	911.906	699.453
214.636	16.285	910.548	698.282
215.650	16.135	910.569	697.613
216.665	16.200	909.839	697.263
217.680	16.201	909.324	696.807
218.694	16.273	908.765	696.615
219.709	16.409	908.370	696.814
220.723	16.263	907.641	695.588
221.738	16.310	906.788	695.068
222.753	16.284	906.632	694.782
223.767	16.308	905.426	693.894
224.782	16.360	904.576	693.393
225.796	16.371	904.123	693.031
226.811	16.303	903.643	692.324
227.826	16.367	902.881	691.938
228.840	16.447	902.021	691.548
229.855	16.141	901.838	690.090
230.869	16.371	900.497	689.945
231.884	16.258	900.247	689.233
232.899	16.274	899.512	688.673
233.913	16.312	898.397	687.914
234.928	16.187	897.803	686.887
235.942	16.239	897.133	686.527
236.957	16.093	896.517	685.400
237.972	16.252	896.040	685.621
238.986	16.268	895.257	685.026
240.001	16.358	894.105	684.451
241.015	16.220	893.965	683.723
242.030	16.168	893.696	683.247
243.045	16.246	892.886	682.880
244.059	16.406	891.979	682.775
245.074	16.509	891.250	682.571
246.088	16.554	890.406	682.047
247.103	16.582	890.006	681.791
248.117	16.524	889.406	681.040
249.132	16.579	889.375	681.174
250.147	16.848	888.716	681.692
251.161	16.939	888.261	681.651
252.176	16.836	887.542	680.626
253.190	16.992	886.494	680.386
254.205	17.081	886.190	680.449
255.220	17.071	885.721	679.988
256.234	16.980	884.943	678.969
257.249	17.002	884.374	678.558
258.263	17.012	883.775	678.080
259.278	16.970	883.386	677.553
260.293	17.091	882.514	677.307
261.307	17.107	882.205	677.074
262.322	17.054	881.749	676.454
263.336	17.142	881.143	676.280
264.351	17.011	880.612	675.289
265.366	17.192	879.830	675.350
266.380	17.137	879.269	674.641
267.395	17.226	878.609	674.427
268.409	17.085	877.507	672.963
269.424	16.984	876.822	671.977
270.439	17.163	875.933	671.947
271.453	17.171	875.136	671.306
272.468	17.091	874.156	670.180
273.482	17.073	873.925	669.874
274.497	16.905	873.339	668.700
275.512	17.009	872.483	668.398
276.526	16.985	871.899	667.796
277.541	17.072	871.238	667.571
278.555	17.070	870.673	667.070
279.570	17.230	870.386	667.422
280.585	17.268	869.766	667.038
281.599	17.427	868.998	667.010
282.614	17.285	868.582	666.077
283.628	17.205	868.212	665.420
284.643	17.222	867.415	664.818
285.657	17.112	866.994	664.006
286.672	17.107	866.499	663.548
287.687	17.362	865.513	663.729
288.701	17.221	865.197	662.880
289.716	17.271	864.782	662.698
290.730	17.239	864.000	661.916
291.745	17.502	863.093	662.184
292.760	17.381	863.314	661.825
293.774	17.406	862.192	661.004
294.789	17.398	861.911	660.697
295.803	17.531	860.961	660.429
296.818	17.393	860.295	659.324
297.833	17.253	859.940	658.450
298.847	17.263	859.438	658.046
299.862	17.406	858.405	657.750
300.876	17.407	857.978	657.371
301.891	17.482	857.296	657.078
302.906	17.363	856.723	656.121
303.920	17.547	856.064	656.268
304.935	17.592	855.290	655.788
305.949	17.748	854.636	655.829
306.964	17.685	854.251	655.235
307.979	17.619	853.826	654.597
308.993	17.688	853.224	654.341
310.008	17.756	852.460	653.959
311.022	17.765	852.000	653.582
312.037	17.705	851.762	653.114
313.052	17.856	850.884	652.961
314.066	17.466	850.155	650.851
315.081	17.671	849.519	651.088
316.095	17.470	849.044	649.901
317.110	17.586	848.239	649.668
318.125	17.633	847.629	649.322
319.139	17.575	847.372	648.850
320.154	17.593	846.990	648.568
321.168	17.560	846.497	648.007
322.183	17.729	845.448	647.788
323.197	17.752	845.288	647.695
324.212	17.721	844.814	647.157
325.227	17.703	844.552	646.834
326.241	17.694	843.683	646.075
327.256	17.700	842.948	645.479
328.270	17.711	842.541	645.152
329.285	17.623	842.224	644.519
330.300	17.640	841.691	644.118
331.314	17.683	840.739	643.494
332.329	17.735	840.022	643.085
333.343	17.881	839.247	642.983
334.358	17.802	839.357	642.714
335.373	17.925	838.305	642.313
336.387	17.892	837.837	641.776
337.402	17.976	837.412	641.710
338.416	17.955	836.824	641.122
339.431	18.053	836.502	641.184
340.446	18.117	835.827	640.851
341.460	18.113	835.480	640.513
342.475	18.244	834.602	640.277
343.489	18.235	833.946	639.680
344.504	18.346	833.460	639.665
345.519	18.404	832.835	639.348
346.533	18.274	832.652	638.664
347.548	18.399	832.110	638.660
348.562	18.330	831.488	637.867
349.577	18.239	830.873	636.999
350.592	18.081	830.289	635.909
351.606	18.109	829.680	635.490
352.621	18.118	829.066	634.999
353.635	18.084	829.187	634.909
354.650	18.259	828.531	634.998
355.665	18.139	828.455	634.439
356.679	18.173	827.725	633.949
357.694	18.295	827.045	633.824
358.708	18.235	826.344	633.008
359.723	18.282	825.692	632.626
360.738	18.368	825.119	632.449
361.752	18.311	825.162	632.218
362.767	18.370	824.304	631.720
363.781	18.290	824.346	631.402
364.796	18.520	823.673	631.679
365.810	18.555	823.463	631.591
366.825	18.550	823.016	631.173
367.840	18.587	822.536	630.887
368.854	18.686	822.161	630.905
369.869	18.681	821.608	630.406
370.883	18.675	820.727	629.654
371.898	18.708	820.391	629.459
372.913	18.501	820.199	628.498
373.927	18.646	819.296	628.281
374.942	18.756	818.710	628.178
375.956	18.699	817.877	627.278
376.971	18.756	817.460	627.109
377.986	18.770	817.276	626.965
379.000	18.849	816.506	626.607
380.015	18.815	815.752	625.848
381.029	18.889	815.744	626.057
382.044	18.852	814.877	625.200
383.059	18.931	814.409	625.072
384.073	18.876	813.535	624.147
385.088	18.919	812.978	623.820
386.102	18.646	812.733	622.588
387.117	18.762	811.889	622.306
388.132	18.664	811.509	621.603
389.146	18.621	811.121	621.098
390.161	18.767	810.969	621.452
391.175	18.773	810.491	621.054
392.190	18.795	810.169	620.833
393.205	18.903	809.394	620.574
394.219	18.763	809.188	619.854
395.234	18.759	808.519	619.272
396.248	18.605	808.010	618.273
397.263	18.700	807.471	618.148
398.278	18.558	807.292	617.447
399.292	18.682	806.562	617.279
400.307	18.649	806.283	616.890
401.321	18.676	805.840	616.595
402.336	18.630	805.269	615.939
403.350	18.625	805.195	615.810
404.365	18.808	804.479	615.863
405.380	18.921	803.703	615.621
406.394	18.906	803.558	615.399
407.409	19.115	803.114	615.755
408.423	19.150	802.856	615.628
409.438	19.179	802.336	615.279
410.453	19.173	802.107	615.025
411.467	19.272	801.507	614.863
412.482	19.243	801.274	614.528
413.496	19.349	800.849	614.526
414.511	19.490	800.298	614.550
415.526	19.306	799.882	613.522
416.540	19.227	799.594	612.965
417.555	19.446	798.862	613.129
418.569	19.269	798.314	612.025
419.584	19.409	797.993	612.221
420.599	19.443	797.508	611.914
421.613	151.823	1365.334	1776.598
422.628	131.477	1448.107	1776.703
