DTS Sentinel unit serial number:	SN413079Multiplexer serial number:	ORYXHardware model number:	OX4-SRSoftware version number:	ORYX F/W v4.00 Oryx Data Collector v3.7.2.0data status	okinstallation	princeton_trtdifferential loss correction	single-endedforward channel	channel 3reverse channel	N/Adate	2019/09/10time	20:06:10forward acquisition time	60.00reverse acquisition time	0.00gamma	496.2192k internal	0.2324k external	0.2324temperature offset calibration	0.9920default loss term (dB/km)	0.3790temperature slope calibration	1.0000multiplexer offset coefficient	1.0000multiplexer slope coefficient	1.0000fibre end	0.00T internal ref (°C)	32.52T ext. ref 1 (°C)	-0.31T ext. ref 2 (°C)	25.58length (m)	temperature (°C)	Stokes	anti-Stokes-747.200	-73.119	0.121	-0.045
-746.185	-59.200	0.131	-0.057
-745.171	46.905	-0.212	0.199
-744.156	47.617	-0.236	0.222
-743.142	127.580	0.181	0.232
-742.127	800.000	0.084	0.262
-741.112	-161.458	0.148	0.008
-740.098	-7.353	-0.201	-0.137
-739.083	304.127	-0.105	-0.197
-738.069	-145.038	-0.272	0.025
-737.054	-200.000	-0.051	-0.315
-736.039	-83.740	-0.592	-0.191
-735.025	-105.235	0.169	0.039
-734.010	-162.427	-0.418	-0.021
-732.996	134.218	-0.390	-0.510
-731.981	-78.516	-0.090	-0.031
-730.966	343.978	-0.131	0.258
-729.952	24.469	0.088	-0.073
-728.937	589.537	-0.033	-0.083
-727.923	77.556	-0.270	-0.290
-726.908	161.084	-0.056	-0.079
-725.894	-32.791	-0.293	0.164
-724.879	133.267	-0.020	-0.026
-723.864	253.079	0.030	0.052
-722.850	79.494	0.186	0.201
-721.835	-63.282	-0.230	-0.096
-720.821	-200.000	0.030	-0.134
-719.806	-66.984	0.174	-0.069
-718.791	-47.414	0.274	0.134
-717.777	-200.000	0.020	0.149
-716.762	-200.000	0.003	-0.387
-715.748	-200.000	0.001	-0.071
-714.733	-16.396	0.235	-0.150
-713.718	-17.609	-0.246	-0.156
-712.704	800.000	-0.053	0.156
-711.689	800.000	0.114	-0.348
-710.675	271.388	0.105	-0.187
-709.660	-200.000	0.040	-0.426
-708.645	-25.534	-0.170	0.101
-707.631	-200.000	0.031	0.395
-706.616	42.041	-0.200	0.183
-705.602	91.390	0.153	0.173
-704.587	41.482	0.039	0.036
-703.572	308.514	-0.088	0.166
-702.558	-29.713	0.146	-0.084
-701.543	-112.121	0.302	0.061
-700.529	-200.000	-0.019	0.370
-699.514	727.702	-0.019	-0.051
-698.499	-43.107	0.089	0.046
-697.485	800.000	-0.034	-0.108
-696.470	-49.571	-0.488	0.234
-695.456	800.000	-0.068	0.287
-694.441	800.000	0.053	0.191
-693.426	800.000	-0.010	0.034
-692.412	72.756	0.040	-0.043
-691.397	-200.000	0.000	0.136
-690.383	800.000	0.039	-0.110
-689.368	27.030	-0.335	-0.283
-688.354	-120.389	-0.565	0.097
-687.339	800.000	0.040	-0.136
-686.324	643.754	0.152	0.390
-685.310	387.789	-0.213	-0.443
-684.295	-114.248	0.285	-0.055
-683.281	-200.000	-0.038	-0.263
-682.266	-32.399	0.065	0.036
-681.251	-200.000	-0.029	-0.323
-680.237	255.488	-0.110	-0.189
-679.222	-45.482	-0.090	-0.045
-678.208	800.000	-0.031	0.135
-677.193	49.367	0.066	0.063
-676.178	-86.413	-0.294	0.091
-675.164	-112.581	0.110	-0.022
-674.149	-128.602	0.182	0.026
-673.135	497.331	0.145	-0.335
-672.120	-200.000	-0.001	0.122
-671.105	-125.279	0.199	0.031
-670.091	146.162	0.231	0.312
-669.076	-200.000	0.004	0.286
-668.062	80.249	-0.195	-0.211
-667.047	61.404	0.107	0.107
-666.032	-138.418	0.171	-0.019
-665.018	167.796	0.146	-0.209
-664.003	-9.047	-0.088	-0.059
-662.989	-112.821	-0.219	-0.044
-661.974	800.000	-0.078	0.279
-660.959	287.079	0.081	0.147
-659.945	-93.150	-0.343	0.096
-658.930	-30.793	-0.139	-0.079
-657.916	-157.172	-0.058	-0.004
-656.901	-92.598	-0.314	-0.089
-655.886	62.873	-0.487	0.490
-654.872	73.560	0.210	-0.221
-653.857	36.315	0.029	0.026
-652.843	-200.000	0.039	-0.302
-651.828	-24.710	-0.130	-0.078
-650.814	-200.000	0.022	0.106
-649.799	114.233	-0.038	0.046
-648.784	224.122	-0.064	-0.104
-647.770	267.547	0.226	-0.398
-646.755	800.000	0.083	-0.363
-645.741	-200.000	0.009	0.054
-644.726	-200.000	0.007	0.049
-643.711	110.087	-0.155	-0.187
-642.697	-112.392	-0.191	-0.038
-641.682	-200.000	0.007	0.138
-640.668	-172.650	-0.192	0.006
-639.653	-26.144	0.099	0.058
-638.638	-183.518	0.178	0.003
-637.624	-100.012	-0.166	-0.042
-636.609	137.827	0.156	0.206
-635.595	128.292	0.146	0.187
-634.580	-108.910	-0.202	0.043
-633.565	-200.000	0.322	0.001
-632.551	18.892	-0.019	-0.016
-631.536	800.000	0.031	0.125
-630.522	588.849	0.046	-0.114
-629.507	152.145	-0.016	-0.022
-628.492	-167.074	0.193	-0.008
-627.478	432.010	0.098	0.214
-626.463	800.000	-0.044	0.166
-625.449	64.208	0.249	-0.252
-624.434	302.691	-0.123	0.229
-623.419	174.722	0.075	-0.109
-622.405	800.000	-0.029	-0.129
-621.390	-200.000	-0.002	0.303
-620.376	-142.467	-0.310	-0.031
-619.361	800.000	0.147	0.429
-618.346	155.034	0.174	0.240
-617.332	506.716	-0.085	-0.197
-616.317	-200.000	0.047	-0.254
-615.303	-9.219	0.173	0.116
-614.288	-200.000	0.020	0.340
-613.273	209.773	-0.045	0.071
-612.259	-200.000	0.014	-0.298
-611.244	800.000	-0.139	-0.435
-610.230	-129.570	-0.315	0.044
-609.215	127.825	0.117	-0.149
-608.201	-65.155	0.195	-0.079
-607.186	800.000	-0.083	-0.231
-606.171	-124.015	0.212	-0.034
-605.157	800.000	0.139	0.431
-604.142	429.332	0.080	-0.174
-603.128	-164.299	-0.061	-0.003
-602.113	-109.461	0.252	0.054
-601.098	800.000	-0.014	0.049
-600.084	-10.625	0.134	-0.089
-599.069	93.329	0.235	0.267
-598.055	-200.000	0.005	-0.058
-597.040	-113.522	-0.204	-0.040
-596.025	-72.086	0.183	0.068
-595.011	325.756	-0.205	-0.393
-593.996	-200.000	0.011	-0.211
-592.982	-109.559	0.259	0.055
-591.967	-94.438	0.084	0.023
-590.952	-162.695	-0.410	0.020
-589.938	-200.000	-0.005	-0.107
-588.923	320.829	0.189	0.361
-587.909	-200.000	0.034	-0.250
-586.894	-150.528	0.272	-0.021
-585.879	-131.486	0.334	-0.044
-584.865	-45.137	-0.186	0.093
-583.850	56.092	0.178	0.174
-582.836	102.700	-0.164	0.192
-581.821	-68.575	-0.099	0.039
-580.806	-200.000	0.073	0.397
-579.792	23.779	0.095	0.079
-578.777	152.660	-0.006	0.009
-577.763	-200.000	-0.013	-0.292
-576.748	-172.602	-0.075	0.002
-575.733	45.518	-0.294	0.272
-574.719	-27.410	0.024	-0.014
-573.704	800.000	-0.035	-0.140
-572.690	-27.181	0.426	-0.249
-571.675	13.881	0.094	-0.073
-570.661	236.057	-0.101	-0.167
-569.646	790.830	0.046	0.126
-568.631	-200.000	-0.001	0.009
-567.617	212.406	0.024	-0.038
-566.602	-99.934	0.070	0.018
-565.588	-200.000	-0.003	-0.332
-564.573	-42.608	0.172	-0.088
-563.558	-131.043	0.330	-0.044
-562.544	-200.000	0.008	-0.222
-561.529	40.858	-0.097	-0.088
-560.515	-200.000	-0.048	-0.260
-559.500	-42.154	-0.195	-0.100
-558.485	4.976	0.072	0.053
-557.471	800.000	0.083	-0.308
-556.456	-95.355	0.318	0.086
-555.442	-124.535	-0.280	0.044
-554.427	225.535	-0.185	-0.300
-553.412	95.556	-0.314	-0.359
-552.398	689.268	0.082	-0.215
-551.383	-43.505	-0.300	-0.152
-550.369	44.433	0.160	0.147
-549.354	54.725	0.073	0.071
-548.339	-200.000	0.012	0.187
-547.325	44.802	-0.077	0.071
-546.310	410.402	-0.092	-0.196
-545.296	-132.494	0.216	0.028
-544.281	356.140	0.282	0.562
-543.266	57.114	0.157	0.153
-542.252	-161.537	-0.170	0.009
-541.237	-133.769	0.093	-0.012
-540.223	800.000	-0.045	-0.141
-539.208	682.792	-0.121	-0.316
-538.193	-200.000	0.020	0.206
-537.179	194.754	-0.056	-0.085
-536.164	38.103	-0.221	-0.197
-535.150	800.000	0.108	-0.314
-534.135	800.000	0.061	-0.231
-533.121	-200.000	0.085	0.453
-532.106	-200.000	0.002	0.014
-531.091	21.339	0.073	-0.060
-530.077	-90.192	0.414	0.121
-529.062	11.056	-0.238	-0.182
-528.048	25.467	-0.134	-0.111
-527.033	-200.000	0.032	-0.254
-526.018	41.977	-0.184	0.167
-525.004	-57.663	0.201	-0.088
-523.989	-200.000	0.029	-0.214
-522.975	113.780	0.137	0.166
-521.960	-6.556	0.241	-0.164
-520.945	-137.477	0.214	-0.024
-519.931	226.309	0.041	-0.066
-518.916	-11.749	0.214	-0.140
-517.902	57.279	0.121	0.118
-516.887	266.015	-0.143	-0.250
-515.872	40.221	0.061	0.055
-514.858	-30.081	-0.145	0.082
-513.843	-200.000	-0.020	0.337
-512.829	261.233	-0.097	-0.169
-511.814	642.342	-0.127	0.323
-510.799	-98.403	-0.090	-0.023
-509.785	118.501	-0.106	0.131
-508.770	-101.902	0.179	0.043
-507.756	-52.904	-0.111	0.051
-506.741	-75.548	0.124	-0.044
-505.726	516.368	-0.071	0.166
-504.712	800.000	0.016	-0.054
-503.697	671.226	0.148	0.382
-502.683	370.959	-0.064	-0.129
-501.668	-26.809	-0.455	-0.266
-500.653	800.000	-0.057	-0.213
-499.639	122.465	0.131	-0.164
-498.624	89.617	-0.319	-0.356
-497.610	-39.079	-0.325	-0.171
-496.595	-83.670	0.084	0.027
-495.581	800.000	0.062	0.214
-494.566	153.525	0.059	-0.081
-493.551	98.472	-0.252	0.291
-492.537	3.903	-0.063	-0.046
-491.522	-200.000	-0.029	-0.208
-490.508	290.846	-0.047	0.086
-489.493	223.574	0.076	0.123
-488.478	-8.767	-0.114	0.076
-487.464	-200.000	-0.006	-0.040
-486.449	743.432	0.135	-0.364
-485.435	224.200	-0.161	-0.260
-484.420	47.706	-0.156	0.145
-483.405	158.980	-0.338	0.470
-482.391	-158.666	-0.472	0.027
-481.376	153.167	0.138	0.188
-480.362	-157.753	-0.293	-0.017
-479.347	800.000	0.061	-0.185
-478.332	800.000	-0.040	-0.118
-477.318	384.085	0.067	-0.139
-476.303	-200.000	-0.060	0.282
-475.289	-200.000	0.029	0.274
-474.274	93.845	0.146	-0.165
-473.259	-144.681	-0.087	-0.008
-472.245	335.372	-0.068	-0.131
-471.230	-74.649	-0.377	0.135
-470.216	512.060	-0.073	-0.169
-469.201	-165.088	-0.515	-0.023
-468.186	399.206	0.144	-0.302
-467.172	-138.598	-0.200	0.022
-466.157	-200.000	0.009	0.165
-465.143	-40.774	-0.432	0.224
-464.128	110.960	-0.067	0.081
-463.113	6.390	0.284	0.211
-462.099	74.546	0.183	0.192
-461.084	-32.889	0.307	-0.170
-460.070	-144.390	0.214	0.020
-459.055	800.000	-0.069	0.225
-458.040	-200.000	0.015	-0.099
-457.026	800.000	0.075	-0.220
-456.011	-200.000	0.009	0.272
-454.997	-165.587	-0.147	-0.006
-453.982	187.142	0.067	-0.100
-452.968	-200.000	0.054	-0.319
-451.953	800.000	-0.074	0.313
-450.938	402.554	-0.066	0.139
-449.924	17.660	-0.207	-0.164
-448.909	-165.551	0.123	0.005
-447.895	-54.863	0.412	0.186
-446.880	-200.000	0.005	0.188
-445.865	68.569	-0.211	0.216
-444.851	-200.000	-0.010	-0.183
-443.836	-125.211	0.111	0.017
-442.822	-200.000	0.045	-0.372
-441.807	800.000	0.051	-0.192
-440.792	470.136	0.129	-0.289
-439.778	-58.365	-0.070	0.031
-438.763	800.000	-0.087	-0.330
-437.749	603.745	-0.076	-0.189
-436.734	76.410	0.204	-0.215
-435.719	25.273	0.146	-0.121
-434.705	168.003	-0.076	0.108
-433.690	-145.507	0.356	-0.032
-432.676	-35.850	0.220	-0.119
-431.661	102.289	0.239	-0.278
-430.646	17.700	0.256	-0.203
-429.632	-96.680	-0.213	-0.056
-428.617	-33.658	-0.088	0.049
-427.603	-14.363	-0.078	0.050
-426.588	-200.000	0.004	-0.079
-425.573	209.416	-0.134	-0.210
-424.559	-142.655	-0.122	0.012
-423.544	-150.988	0.174	-0.013
-422.530	231.493	0.066	-0.108
-421.515	35.023	0.305	0.266
-420.500	-34.324	0.327	0.179
-419.486	-29.573	-0.156	0.089
-418.471	-7.492	-0.134	-0.090
-417.457	-200.000	0.021	-0.180
-416.442	-200.000	0.020	0.227
-415.428	63.084	0.101	-0.101
-414.413	-156.689	-0.489	-0.030
-413.398	-11.212	0.195	0.128
-412.384	-170.102	-0.146	0.005
-411.369	800.000	0.053	0.179
-410.355	430.353	-0.049	-0.106
-409.340	800.000	-0.014	-0.045
-408.325	-111.332	-0.473	-0.096
-407.311	-200.000	0.010	0.096
-406.296	800.000	-0.063	0.219
-405.282	277.177	0.070	-0.124
-404.267	34.446	0.096	0.083
-403.252	-200.000	0.008	-0.195
-402.238	285.978	0.058	0.105
-401.223	470.289	-0.039	-0.088
-400.209	104.195	-0.273	-0.320
-399.194	21.727	-0.109	-0.088
-398.179	-46.654	-0.454	-0.222
-397.165	132.312	0.042	0.053
-396.150	-142.014	0.132	-0.013
-395.136	-200.000	-0.018	0.543
-394.121	800.000	-0.071	-0.200
-393.106	686.391	0.173	0.449
-392.092	-164.186	0.484	0.022
-391.077	38.321	-0.049	0.044
-390.063	-55.237	0.318	0.142
-389.048	-116.689	0.178	-0.033
-388.033	307.852	-0.199	-0.369
-387.019	-77.035	0.162	-0.056
-386.004	269.261	-0.096	0.167
-384.990	-62.449	-0.184	-0.076
-383.975	-62.747	-0.547	-0.226
-382.960	-200.000	-0.005	0.105
-381.946	-24.331	0.348	-0.207
-380.931	150.464	0.174	0.235
-379.917	201.464	-0.242	-0.372
-378.902	502.278	0.019	0.044
-377.888	-200.000	0.004	0.036
-376.873	-200.000	0.005	0.031
-375.858	142.972	-0.006	0.008
-374.844	-74.650	-0.275	-0.098
-373.829	-200.000	0.002	-0.100
-372.815	226.822	-0.154	-0.249
-371.800	-55.790	-0.042	0.019
-370.785	-200.000	0.014	-0.390
-369.771	-36.448	0.248	-0.133
-368.756	277.650	-0.084	0.148
-367.742	-62.939	-0.306	-0.126
-366.727	-101.961	-0.298	0.071
-365.712	22.394	0.131	0.106
-364.698	31.755	0.181	0.155
-363.683	190.288	0.232	-0.346
-362.669	-200.000	0.032	-0.297
-361.654	-200.000	0.043	0.398
-360.639	257.073	-0.066	-0.112
-359.625	-159.415	0.118	-0.007
-358.610	800.000	-0.022	0.067
-357.596	208.544	0.053	-0.082
-356.581	-124.766	0.192	-0.030
-355.566	-200.000	0.007	0.416
-354.552	-13.282	0.210	0.135
-353.537	-27.797	0.358	-0.206
-352.523	28.423	-0.151	-0.127
-351.508	-200.000	0.011	-0.096
-350.493	-200.000	-0.024	0.340
-349.479	29.031	0.070	0.059
-348.464	16.425	0.090	-0.070
-347.450	24.506	0.123	-0.101
-346.435	800.000	0.075	0.275
-345.420	21.922	0.205	0.166
-344.406	27.971	0.215	-0.181
-343.391	-85.112	-0.169	0.053
-342.377	-200.000	-0.061	0.277
-341.362	-200.000	-0.053	-0.286
-340.348	398.202	-0.064	-0.132
-339.333	-40.242	-0.096	-0.050
-338.318	71.636	0.099	0.102
-337.304	-90.722	0.380	-0.109
-336.289	-200.000	0.044	0.637
-335.275	654.553	0.077	0.197
-334.260	-200.000	0.012	0.154
-333.245	-19.064	-0.173	0.107
-332.231	-200.000	0.014	0.364
-331.216	16.299	-0.205	0.161
-330.202	-64.798	0.321	-0.129
-329.187	-84.611	0.301	0.094
-328.172	-148.289	-0.228	0.019
-327.158	-64.509	-0.395	-0.159
-326.143	433.150	-0.080	0.172
-325.129	-29.041	-0.322	-0.183
-324.114	302.326	0.045	0.082
-323.099	-183.828	-0.370	0.006
-322.085	-142.141	0.040	0.004
-321.070	800.000	-0.099	0.362
-320.056	-125.354	-0.379	-0.057
-319.041	-92.407	0.169	0.047
-318.026	-120.890	-0.176	0.029
-317.012	800.000	-0.042	0.122
-315.997	-200.000	-0.318	-0.001
-314.983	-200.000	-0.011	-0.328
-313.968	-200.000	-0.033	0.240
-312.953	-200.000	-0.012	-0.141
-311.939	-200.000	-0.017	0.117
-310.924	-65.280	0.426	-0.170
-309.910	-117.606	-0.165	-0.030
-308.895	503.089	-0.097	-0.222
-307.880	-200.000	0.001	0.043
-306.866	-200.000	-0.028	-0.184
-305.851	-1.382	-0.193	-0.135
-304.837	800.000	0.065	-0.228
-303.822	-148.288	0.170	0.014
-302.807	-59.031	-0.117	-0.050
-301.793	800.000	0.017	-0.066
-300.778	-135.910	-0.129	-0.015
-299.764	-31.255	-0.128	-0.072
-298.749	83.964	-0.225	0.243
-297.735	98.924	-0.146	-0.168
-296.720	118.599	-0.032	-0.039
-295.705	-127.154	-0.112	-0.016
-294.691	58.208	-0.117	0.114
-293.676	249.770	0.182	-0.307
-292.662	-80.644	0.320	0.106
-291.647	-62.821	-0.120	0.049
-290.632	-76.448	-0.217	-0.075
-289.618	-80.042	-0.081	0.027
-288.603	-68.644	-0.110	-0.042
-287.589	-200.000	-0.016	0.501
-286.574	329.280	0.056	0.106
-285.559	-176.590	0.150	0.004
-284.545	282.058	-0.048	-0.085
-283.530	-57.311	-0.058	-0.025
-282.516	-200.000	-0.012	-0.116
-281.501	276.042	0.052	-0.092
-280.486	800.000	-0.048	0.144
-279.472	-200.000	-0.029	0.250
-278.457	145.391	0.238	-0.316
-277.443	62.338	-0.063	-0.062
-276.428	-0.593	0.083	0.059
-275.413	228.517	0.115	-0.186
-274.399	-21.630	0.097	0.059
-273.384	-100.516	0.396	0.097
-272.370	164.761	-0.148	-0.207
-271.355	407.457	0.037	-0.077
-270.340	-59.257	-0.108	-0.046
-269.326	640.002	0.109	0.275
-268.311	-200.000	0.047	-0.362
-267.297	-30.970	0.205	0.115
-266.282	71.995	0.168	-0.174
-265.267	-200.000	-0.013	0.206
-264.253	143.431	-0.148	-0.195
-263.238	-99.222	-0.344	-0.086
-262.224	-44.528	0.173	-0.086
-261.209	-200.000	0.016	-0.202
-260.195	-82.800	0.232	-0.074
-259.180	-171.948	0.142	0.005
-258.165	-200.000	0.039	0.181
-257.151	-47.910	0.092	0.044
-256.136	-82.567	-0.254	-0.082
-255.122	-7.772	0.127	0.085
-254.107	-19.730	-0.265	0.162
-253.092	-23.281	0.123	-0.073
-252.078	800.000	-0.083	0.317
-251.063	153.798	0.300	0.407
-250.049	451.774	-0.013	0.029
-249.034	800.000	-0.108	0.361
-248.019	36.659	0.135	0.118
-247.005	-49.443	0.040	-0.019
-245.990	-120.215	-0.239	0.040
-244.976	-129.930	-0.191	0.026
-243.961	-178.407	0.038	0.001
-242.946	-55.100	-0.184	0.082
-241.932	-74.074	-0.324	0.116
-240.917	-2.509	-0.127	-0.088
-239.903	267.213	-0.216	-0.374
-238.888	-200.000	0.054	0.338
-237.873	-160.376	0.253	0.013
-236.859	172.855	0.190	-0.270
-235.844	91.463	0.167	0.186
-234.830	-69.382	0.182	0.069
-233.815	-12.236	0.129	-0.084
-232.800	-132.929	-0.419	0.053
-231.786	5.087	-0.152	-0.111
-230.771	-200.000	-0.252	0.000
-229.757	800.000	-0.050	0.181
-228.742	42.545	-0.174	-0.157
-227.727	-132.316	-0.067	0.009
-226.713	17.359	-0.110	0.087
-225.698	-39.488	-0.036	0.019
-224.684	-22.471	-0.207	-0.124
-223.669	89.354	0.147	0.163
-222.655	-104.420	0.105	0.024
-221.640	-113.832	-0.213	-0.041
-220.625	-40.728	0.085	0.044
-219.611	-192.143	0.281	0.003
-218.596	243.008	-0.073	0.121
-217.582	-53.987	-0.122	0.055
-216.567	-21.541	0.210	-0.126
-215.552	-200.000	0.023	0.189
-214.538	-200.000	0.000	0.192
-213.523	-14.128	-0.165	0.105
-212.509	-40.322	-0.241	0.124
-211.494	-139.230	0.200	0.021
-210.479	148.483	-0.029	-0.039
-209.465	800.000	0.030	-0.089
-208.450	429.954	-0.078	-0.167
-207.436	-127.945	-0.094	0.013
-206.421	32.845	0.270	0.231
-205.406	-143.879	0.281	0.026
-204.392	67.604	-0.268	0.271
-203.377	295.651	-0.041	0.074
-202.363	32.413	0.032	-0.027
-201.348	-200.000	0.034	0.168
-200.333	44.674	0.080	-0.073
-199.319	-163.984	0.258	0.012
-198.304	86.476	-0.359	0.391
-197.290	-200.000	0.033	-0.276
-196.275	-200.000	-0.073	0.364
-195.260	20.160	0.064	-0.051
-194.246	-200.000	-0.048	-0.382
-193.231	187.277	-0.189	-0.278
-192.217	-149.009	0.224	-0.018
-191.202	18.727	-0.154	-0.122
-190.187	484.851	0.123	-0.276
-189.173	22.079	0.176	0.142
-188.158	800.000	0.032	0.125
-187.144	-200.000	-0.014	0.193
-186.129	-39.164	-0.217	-0.112
-185.114	324.592	-0.050	0.094
-184.100	79.035	-0.189	0.200
-183.085	247.587	-0.097	0.162
-182.071	146.769	0.148	0.197
-181.056	55.505	0.125	0.119
-180.042	-200.000	0.013	0.166
-179.027	104.670	0.186	0.216
-178.012	-200.000	0.015	-0.089
-176.998	-67.949	0.364	0.140
-175.983	-85.612	-0.419	-0.128
-174.969	-200.000	0.027	0.250
-173.954	-43.459	-0.126	-0.063
-172.939	67.683	-0.136	0.137
-171.925	67.245	-0.182	0.184
-170.910	-73.899	0.254	0.091
-169.896	58.452	0.227	-0.220
-168.881	800.000	-0.050	-0.137
-167.866	-18.816	0.183	0.112
-166.852	-200.000	-0.002	-0.090
-165.837	42.727	0.199	0.179
-164.823	-125.153	-0.279	-0.042
-163.808	-97.458	0.142	-0.036
-162.793	758.046	0.079	0.210
-161.779	-118.497	0.127	-0.022
-160.764	8.641	0.170	-0.127
-159.750	-200.000	-0.074	-0.334
-158.735	268.255	0.065	0.113
-157.720	26.147	-0.091	0.075
-156.706	45.405	0.247	0.225
-155.691	-200.000	-0.023	-0.176
-154.677	800.000	-0.107	0.355
-153.662	-200.000	-0.028	0.152
-152.647	92.827	0.056	0.062
-151.633	-200.000	0.025	-0.111
-150.618	-21.933	0.403	-0.242
-149.604	85.314	-0.132	0.142
-148.589	53.662	0.039	-0.037
-147.574	55.905	-0.284	-0.272
-146.560	-95.408	-0.135	-0.036
-145.545	-200.000	0.008	0.198
-144.531	283.341	0.169	0.299
-143.516	12.967	-0.017	-0.013
-142.502	50.797	-0.150	-0.140
-141.487	-135.852	-0.134	-0.016
-140.472	800.000	0.090	-0.272
-139.458	-54.261	0.446	0.199
-138.443	354.383	-0.094	0.184
-137.429	33.662	-0.205	0.176
-136.414	-48.992	0.161	-0.076
-135.399	-200.000	-0.025	-0.248
-134.385	731.639	0.041	-0.108
-133.370	-106.267	0.340	-0.075
-132.356	-28.319	0.117	-0.067
-131.341	73.576	-0.121	0.125
-130.326	-83.261	0.252	-0.080
-129.312	170.826	0.081	0.115
-128.297	-81.632	-0.189	0.061
-127.283	41.918	-0.146	0.131
-126.268	-118.163	0.075	-0.013
-125.253	-33.831	0.180	0.098
-124.239	-80.871	-0.339	0.111
-123.224	-94.413	-0.074	0.020
-122.210	-200.000	-0.043	-0.228
-121.195	39.046	0.040	-0.035
-120.180	-200.000	-0.044	-0.413
-119.166	-190.950	0.084	0.001
-118.151	375.537	0.034	0.067
-117.137	-200.000	-0.008	-0.093
-116.122	92.018	0.161	-0.178
-115.107	-73.862	0.295	0.106
-114.093	-200.000	0.039	-0.203
-113.078	-82.640	-0.100	-0.032
-112.064	-0.425	-0.450	0.315
-111.049	111.612	-0.017	-0.020
-110.034	-46.564	-0.135	0.065
-109.020	800.000	0.042	-0.119
-108.005	137.347	0.041	-0.053
-106.991	-195.288	0.406	-0.003
-105.976	800.000	-0.027	-0.086
-104.962	17.439	-0.262	0.205
-103.947	41.010	0.082	0.073
-102.932	-152.333	0.353	-0.025
-101.918	36.447	0.196	0.170
-100.903	-24.564	-0.055	-0.032
-99.889	129.556	-0.314	0.395
-98.874	20.102	0.249	0.198
-97.859	-147.110	-0.326	-0.027
-96.845	146.338	-0.127	0.167
-95.830	-76.912	-0.071	-0.024
-94.816	-85.883	0.198	0.060
-93.801	303.491	-0.142	0.259
-92.786	-27.245	0.213	-0.122
-91.772	-200.000	-0.003	-0.308
-90.757	-134.218	-0.240	-0.029
-89.743	-110.754	-0.307	-0.062
-88.728	-85.136	0.400	0.123
-87.713	-160.596	0.311	-0.016
-86.699	-54.615	0.052	0.023
-85.684	425.524	-0.118	0.251
-84.670	24.037	-0.189	-0.154
-83.655	668.593	0.067	0.172
-82.640	-148.863	0.278	-0.022
-81.626	-142.370	0.214	0.021
-80.611	-84.236	0.308	0.096
-79.597	17.444	-0.207	-0.162
-78.582	-55.073	-0.270	0.119
-77.567	134.497	0.274	0.349
-76.553	-200.000	-0.009	0.279
-75.538	800.000	-0.040	-0.161
-74.524	-82.904	0.145	-0.046
-73.509	139.444	-0.192	0.249
-72.494	-200.000	0.029	0.171
-71.480	48.791	-0.161	0.148
-70.465	-76.648	-0.344	0.119
-69.451	800.000	0.025	-0.067
-68.436	50.411	-0.121	-0.112
-67.422	228.788	0.046	-0.074
-66.407	310.220	-0.035	-0.065
-65.392	-200.000	0.046	0.201
-64.378	-200.000	0.023	0.350
-63.363	-200.000	-0.000	-0.138
-62.349	-80.395	-0.260	0.085
-61.334	31.579	-1.112	-0.939
-60.319	66.280	0.369	0.369
-59.305	-200.000	-0.064	-0.917
-58.290	165.725	0.718	0.998
-57.276	371.444	0.671	1.338
-56.261	-200.000	99.376	603.733
-55.246	604.033	1417.288	3465.780
-54.232	188.759	2611.917	3840.702
-53.217	115.644	2177.870	2616.538
-52.203	42.918	1714.588	1535.666
-51.188	35.664	1529.113	1319.906
-50.173	33.366	1501.961	1280.900
-49.159	52.029	1553.039	1453.356
-48.144	53.826	1570.422	1481.944
-47.130	35.862	1528.419	1320.457
-46.115	32.796	1513.790	1286.891
-45.100	32.654	1510.336	1282.939
-44.086	32.656	1508.325	1281.194
-43.071	32.541	1506.882	1279.135
-42.057	32.546	1505.133	1277.638
-41.042	32.536	1503.526	1276.153
-40.027	32.573	1502.167	1275.198
-39.013	32.537	1500.407	1273.407
-37.998	32.502	1499.673	1272.500
-36.984	32.443	1498.809	1271.318
-35.969	32.515	1497.138	1270.333
-34.954	32.565	1495.835	1269.518
-33.940	32.518	1494.631	1268.126
-32.925	32.683	1492.624	1267.482
-31.911	32.588	1491.725	1266.029
-30.896	32.554	1490.516	1264.726
-29.881	32.610	1489.055	1263.814
-28.867	32.627	1487.027	1262.157
-27.852	32.598	1485.743	1260.819
-26.838	32.688	1484.087	1259.969
-25.823	32.479	1483.036	1257.629
-24.809	32.531	1481.009	1256.209
-23.794	32.598	1479.650	1255.454
-22.779	32.624	1478.744	1254.807
-21.765	32.536	1477.596	1253.194
-20.750	32.600	1476.570	1252.702
-19.736	32.431	1476.114	1251.141
-18.721	32.422	1474.879	1249.988
-17.706	32.564	1473.292	1249.537
-16.692	32.508	1471.976	1247.995
-15.677	32.494	1471.246	1247.236
-14.663	32.393	1470.654	1246.018
-13.648	32.521	1469.311	1245.672
-12.633	32.454	1468.562	1244.548
-11.619	32.382	1467.878	1243.441
-10.604	32.430	1466.562	1242.594
-9.590	32.482	1466.023	1242.435
-8.575	32.397	1465.344	1241.249
-7.560	32.528	1463.800	1240.755
-6.546	32.471	1462.986	1239.637
-5.531	32.496	1462.663	1239.479
-4.517	32.445	1461.526	1238.134
-3.502	32.476	1460.000	1236.992
-2.487	32.414	1459.349	1235.986
-1.473	32.424	1458.454	1235.247
-0.458	32.495	1456.648	1234.130
0.556	30.193	1446.777	1222.317
1.571	26.770	1420.761	1178.034
2.586	22.959	1357.688	1101.918
3.600	21.345	1274.828	1025.120
4.615	20.194	1229.948	982.427
5.629	17.360	1174.444	922.657
6.644	8.438	1088.680	810.149
7.659	0.973	1047.425	742.862
8.673	-0.189	1041.917	733.219
9.688	-0.263	1038.609	730.462
10.702	-0.441	1037.109	728.481
11.717	-0.337	1035.012	727.448
12.731	2.767	1038.782	745.121
13.746	11.944	1051.195	798.896
14.761	18.069	1059.213	834.928
15.775	18.583	1059.138	837.305
16.790	18.540	1058.085	836.190
17.804	18.295	1057.243	834.257
18.819	18.081	1056.258	832.365
19.834	18.221	1055.630	832.477
20.848	18.156	1055.583	832.048
21.863	18.179	1054.937	831.578
22.877	18.110	1054.484	830.814
23.892	18.163	1053.882	830.525
24.907	18.089	1052.982	829.384
25.921	18.141	1052.163	828.913
26.936	18.142	1051.541	828.357
27.950	18.055	1050.599	827.121
28.965	18.128	1049.218	826.311
29.980	18.014	1047.160	824.068
30.994	17.978	1045.601	822.594
32.009	18.221	1044.560	822.875
33.023	18.265	1044.435	822.914
34.038	18.179	1042.731	821.086
35.053	18.014	1042.253	819.844
36.067	18.273	1041.660	820.548
37.082	18.219	1040.806	819.544
38.096	18.331	1039.520	818.995
39.111	18.373	1039.499	819.104
40.126	18.521	1037.969	818.537
41.140	18.513	1036.862	817.550
42.155	18.152	1035.406	814.611
43.169	18.075	1033.788	812.899
44.184	18.016	1033.117	812.020
45.199	18.013	1032.343	811.327
46.213	17.930	1031.055	809.847
47.228	17.920	1030.237	809.088
48.242	17.952	1029.027	808.217
49.257	18.090	1028.022	808.009
50.271	18.210	1026.916	807.631
51.286	18.139	1026.721	807.073
52.301	18.137	1026.203	806.584
53.315	18.212	1024.864	805.814
54.330	18.218	1024.187	805.238
55.344	18.109	1023.486	804.105
56.359	18.183	1022.157	803.337
57.374	18.256	1021.449	803.053
58.388	18.057	1020.412	801.233
59.403	18.080	1019.507	800.558
60.417	18.059	1019.050	800.032
61.432	17.955	1017.899	798.568
62.447	18.015	1017.201	798.233
63.461	18.029	1017.073	798.126
64.476	18.163	1015.780	797.666
65.490	18.089	1015.065	796.689
66.505	17.938	1014.072	795.136
67.520	18.060	1012.912	794.723
68.534	18.192	1012.057	794.598
69.549	18.019	1011.309	793.134
70.563	17.852	1009.848	791.146
71.578	17.718	1009.067	789.844
72.593	17.877	1008.234	789.855
73.607	17.668	1007.140	787.962
74.622	17.700	1006.496	787.540
75.636	18.029	1005.365	788.103
76.651	18.092	1004.907	787.964
77.666	17.812	1004.226	786.071
78.680	17.744	1002.975	784.709
79.695	17.798	1002.598	784.592
80.709	17.982	1001.728	784.687
81.724	18.126	1000.576	784.374
82.739	18.073	999.983	783.600
83.753	17.955	999.268	782.429
84.768	18.140	998.925	782.939
85.782	18.403	997.584	783.020
86.797	18.531	996.851	782.962
87.812	18.376	996.011	781.522
88.826	18.372	994.738	780.439
89.841	18.426	994.090	780.104
90.855	18.269	993.633	778.963
91.870	18.534	992.746	779.404
92.884	18.422	991.850	778.125
93.899	18.240	991.039	776.591
94.914	18.204	989.784	775.375
95.928	18.377	988.959	775.445
96.943	18.405	987.923	774.690
97.957	18.090	987.560	772.912
98.972	17.987	986.005	771.164
99.987	17.761	984.892	769.203
101.001	17.754	984.613	768.888
102.016	18.134	983.721	769.835
103.030	18.134	983.192	769.353
104.045	18.025	981.930	767.806
105.060	17.976	980.235	766.192
106.074	17.690	979.234	764.060
107.089	17.766	978.934	764.099
108.103	18.297	978.396	765.989
109.118	18.412	977.575	765.792
110.133	18.032	976.528	763.207
111.147	18.234	975.318	763.094
112.162	18.066	974.393	761.556
113.176	17.821	972.760	759.125
114.191	18.049	971.862	759.370
115.206	18.045	971.301	758.844
116.220	17.757	970.067	756.535
117.235	17.750	969.091	755.677
118.249	17.703	968.732	755.122
119.264	17.940	967.093	754.826
120.279	17.765	966.361	753.417
121.293	17.856	965.570	753.135
122.308	17.945	964.739	752.809
123.322	18.046	964.376	752.904
124.337	17.971	962.655	751.166
125.352	17.917	961.771	750.171
126.366	17.550	959.955	747.080
127.381	17.249	958.766	744.771
128.395	17.616	958.570	746.157
129.410	18.216	957.848	748.153
130.424	18.422	956.945	748.285
131.439	18.406	955.676	747.157
132.454	18.243	955.108	745.934
133.468	18.385	953.985	745.612
134.483	18.134	952.735	743.475
135.497	18.277	952.365	743.743
136.512	18.328	951.977	743.596
137.527	18.471	951.125	743.487
138.541	18.566	949.873	742.851
139.556	18.507	949.360	742.128
140.570	18.409	948.279	740.794
141.585	18.451	947.347	740.184
142.600	18.522	946.552	739.805
143.614	18.417	945.559	738.509
144.629	18.469	945.043	738.266
145.643	18.575	944.621	738.327
146.658	18.536	943.584	737.283
147.673	18.409	942.213	735.600
148.687	18.390	941.119	734.601
149.702	18.445	940.027	733.919
150.716	18.293	939.068	732.453
151.731	18.205	938.279	731.399
152.746	18.298	937.621	731.218
153.760	18.417	936.811	731.031
154.775	18.573	936.557	731.430
155.789	18.647	935.217	730.636
156.804	18.527	934.459	729.467
157.819	18.614	933.268	728.842
158.833	18.603	932.493	728.126
159.848	18.570	932.025	727.556
160.862	18.717	930.700	727.082
161.877	18.538	929.585	725.387
162.892	18.540	929.055	724.919
163.906	18.699	928.366	724.991
164.921	18.627	927.704	724.105
165.935	18.683	926.430	723.283
166.950	18.508	925.976	722.127
167.964	18.742	924.369	721.790
168.979	18.589	923.264	720.225
169.994	18.584	922.099	719.230
171.008	18.505	921.174	718.115
172.023	18.596	920.973	718.275
173.037	18.582	919.668	717.134
174.052	18.489	918.649	715.890
175.067	18.291	917.416	714.038
176.081	18.454	916.666	714.072
177.096	18.554	915.774	713.729
178.110	18.580	915.167	713.302
179.125	18.402	913.944	711.547
180.140	18.120	912.717	709.356
181.154	18.117	912.558	709.160
182.169	18.283	912.013	709.360
183.183	18.334	911.494	709.106
184.198	18.644	910.906	709.867
185.213	18.566	910.181	708.918
186.227	18.603	909.429	708.421
187.242	18.581	909.228	708.110
188.256	18.718	908.318	707.905
189.271	18.667	907.196	706.758
190.286	18.628	906.436	705.945
191.300	18.601	905.779	705.256
192.315	18.155	905.027	702.778
193.329	17.575	903.310	699.003
194.344	17.361	902.111	697.137
195.359	17.884	902.290	699.355
196.373	18.558	902.416	702.153
197.388	18.692	901.943	702.272
198.402	18.467	901.150	700.673
199.417	18.213	901.016	699.466
200.432	18.417	900.350	699.722
201.446	18.130	899.584	697.891
202.461	17.950	898.531	696.279
203.475	18.038	897.870	696.065
204.490	17.718	896.339	693.517
205.504	16.726	894.544	688.037
206.519	17.177	894.466	689.747
207.534	17.968	895.005	693.315
208.548	18.001	894.567	693.046
209.563	18.551	894.060	694.822
210.577	18.404	893.366	693.626
211.592	18.160	892.637	692.010
212.607	18.465	892.314	692.933
213.621	18.508	891.696	692.565
214.636	18.460	891.110	691.855
215.650	18.737	890.311	692.292
216.665	18.579	889.915	691.286
217.680	18.619	889.247	690.865
218.694	18.846	888.355	691.024
219.709	18.378	887.343	688.296
220.723	18.038	886.546	686.250
221.738	18.249	886.423	686.943
222.753	18.593	885.557	687.589
223.767	18.461	884.566	686.233
224.782	18.593	883.903	686.184
225.796	18.713	883.355	686.177
226.811	18.750	882.707	685.762
227.826	18.426	881.218	683.254
228.840	17.617	879.961	678.995
229.855	17.670	879.759	678.989
230.869	18.061	878.682	679.653
231.884	17.666	877.977	677.481
232.899	17.672	877.158	676.811
233.913	18.511	877.561	680.395
234.928	18.578	877.053	680.206
235.942	18.663	876.189	679.813
236.957	18.590	875.495	678.923
237.972	18.345	874.959	677.478
238.986	18.320	873.777	676.407
240.001	18.326	873.355	676.041
241.015	18.379	872.662	675.655
242.030	18.539	871.734	675.509
243.045	18.570	871.521	675.403
244.059	18.488	871.355	674.895
245.074	18.729	870.128	674.830
246.088	18.627	869.777	674.098
247.103	18.321	868.291	671.688
248.117	18.266	867.833	671.057
249.132	18.728	867.740	672.736
250.147	19.080	866.852	673.365
251.161	18.951	866.391	672.446
252.176	19.160	865.940	672.851
253.190	19.250	864.759	672.225
254.205	19.173	864.742	671.851
255.220	19.428	864.134	672.312
256.234	19.341	863.635	671.528
257.249	19.292	862.792	670.622
258.263	19.111	862.261	669.444
259.278	19.237	861.302	669.132
260.293	19.270	861.310	669.207
261.307	19.404	860.213	668.815
262.322	19.331	859.382	667.826
263.336	19.208	858.563	666.657
264.351	18.665	857.009	663.291
265.366	17.458	855.796	657.634
266.380	17.086	854.618	655.234
267.395	18.139	854.866	659.428
268.409	18.759	855.263	662.066
269.424	18.920	854.218	661.821
270.439	18.942	854.539	662.096
271.453	19.177	853.378	662.042
272.468	19.086	852.804	661.188
273.482	19.338	852.185	661.616
274.497	19.526	851.375	661.651
275.512	19.259	850.389	659.804
276.526	18.691	849.140	656.601
277.541	18.841	848.719	656.791
278.555	19.224	848.379	657.935
279.570	18.901	847.639	656.068
280.585	18.811	846.365	654.681
281.599	18.872	845.920	654.512
282.614	18.985	845.831	654.816
283.628	18.712	844.502	652.692
284.643	18.377	843.985	650.961
285.657	18.826	843.596	652.308
286.672	18.652	843.006	651.136
287.687	18.198	842.033	648.605
288.701	18.493	842.042	649.671
289.716	18.964	841.481	650.966
290.730	18.696	840.546	649.173
291.745	18.408	840.015	647.617
292.760	18.224	838.866	645.976
293.774	18.191	837.981	645.115
294.789	18.940	838.714	648.449
295.803	19.761	838.335	651.191
296.818	19.775	837.945	650.882
297.833	19.938	837.453	651.055
298.847	19.582	836.383	648.829
299.862	19.282	835.583	647.025
300.876	19.490	834.925	647.238
301.891	19.570	834.529	647.172
302.906	19.734	833.745	647.123
303.920	19.170	832.768	644.198
304.935	19.144	832.068	643.503
305.949	19.358	831.665	643.935
306.964	19.584	831.042	644.236
307.979	19.478	830.422	643.304
308.993	19.347	830.210	642.594
310.008	19.799	829.678	643.810
311.022	19.859	829.306	643.688
312.037	19.661	828.646	642.379
313.052	19.518	828.226	641.467
314.066	19.428	827.373	640.414
315.081	18.921	825.894	637.335
316.095	18.484	824.738	634.770
317.110	18.807	824.864	636.005
318.125	19.420	825.134	638.425
319.139	19.110	824.333	636.606
320.154	18.353	822.180	632.091
321.168	17.808	821.721	629.674
322.183	18.421	821.789	631.930
323.197	19.276	822.098	635.265
324.212	19.480	821.120	635.204
325.227	19.356	821.332	634.857
326.241	19.692	820.586	635.460
327.256	19.793	819.806	635.170
328.270	19.503	819.369	633.710
329.285	19.637	818.368	633.373
330.300	19.312	817.858	631.728
331.314	19.104	817.314	630.492
332.329	19.153	816.394	629.905
333.343	19.522	815.866	630.791
334.358	19.641	815.874	631.178
335.373	19.710	815.021	630.713
336.387	19.675	814.685	630.271
337.402	19.862	814.207	630.525
338.416	19.964	813.998	630.678
339.431	19.802	813.517	629.662
340.446	19.972	812.918	629.759
341.460	20.285	811.892	630.046
342.475	20.079	811.148	628.666
343.489	19.925	810.443	627.506
344.504	19.839	810.164	626.922
345.519	20.098	809.749	627.485
346.533	20.160	809.455	627.425
347.548	20.373	808.896	627.707
348.562	20.376	808.710	627.516
349.577	20.269	808.477	626.893
350.592	20.341	807.547	626.379
351.606	20.353	806.972	625.918
352.621	20.377	806.726	625.758
353.635	20.252	806.486	625.067
354.650	20.278	805.503	624.342
355.665	20.063	804.538	622.768
356.679	19.131	803.058	618.220
357.694	18.854	802.458	616.711
358.708	19.418	802.575	618.770
359.723	19.393	802.136	618.286
360.738	19.649	801.545	618.693
361.752	20.203	801.191	620.348
362.767	20.225	800.786	620.058
363.781	20.330	800.601	620.237
364.796	20.621	800.418	621.079
365.810	20.533	800.300	620.618
366.825	20.572	799.518	620.094
367.840	20.627	799.287	620.057
368.854	20.442	798.717	618.901
369.869	20.106	797.926	617.038
370.883	20.105	797.248	616.453
371.898	20.076	796.799	615.949
372.913	20.063	795.745	615.034
373.927	19.991	795.253	614.343
374.942	20.157	794.612	614.384
375.956	20.262	794.455	614.579
376.971	20.396	793.819	614.508
377.986	20.355	793.113	613.761
379.000	20.580	792.967	614.391
380.015	20.522	792.858	614.046
381.029	20.309	791.968	612.552
382.044	20.498	791.303	612.648
383.059	20.436	790.824	612.003
384.073	20.509	790.468	611.933
385.088	20.739	789.668	612.068
386.102	20.701	789.289	611.587
387.117	20.549	788.602	610.466
388.132	20.471	788.274	609.884
389.146	20.367	787.453	608.830
390.161	19.903	786.498	606.414
391.175	19.840	786.083	605.818
392.190	20.209	786.139	607.100
393.205	20.242	785.818	606.914
394.219	19.518	784.209	603.087
395.234	18.277	782.127	597.109
396.248	17.493	781.568	593.893
397.263	18.497	781.797	597.518
398.278	20.142	783.185	604.265
399.292	20.535	782.574	605.107
400.307	20.186	782.415	603.715
401.321	20.164	782.100	603.342
402.336	20.083	781.744	602.735
403.350	20.389	781.419	603.492
404.365	20.689	781.287	604.378
405.380	20.873	781.127	604.842
406.394	21.186	780.453	605.353
407.409	21.336	780.115	605.557
408.423	21.218	779.600	604.692
409.438	21.213	778.589	603.840
410.453	21.095	778.622	603.405
411.467	21.349	778.334	604.005
412.482	21.267	777.761	603.221
413.496	21.338	777.244	603.014
414.511	21.171	777.101	602.274
415.526	21.328	776.375	602.199
416.540	21.318	776.228	601.995
417.555	21.199	775.486	600.957
418.569	20.809	775.017	599.201
419.584	20.864	774.311	598.789
420.599	20.951	773.628	598.506
421.613	156.988	1360.159	1794.047
422.628	135.445	1445.637	1794.114
