DTS Sentinel unit serial number:	SN413079Multiplexer serial number:	ORYXHardware model number:	OX4-SRSoftware version number:	ORYX F/W v4.00 Oryx Data Collector v3.7.2.0data status	okinstallation	princeton_trtdifferential loss correction	single-endedforward channel	channel 3reverse channel	N/Adate	2019/09/12time	18:41:03forward acquisition time	15.00reverse acquisition time	0.00gamma	496.2192k internal	0.2317k external	0.2317temperature offset calibration	1.0097default loss term (dB/km)	0.3790temperature slope calibration	1.0000multiplexer offset coefficient	1.0000multiplexer slope coefficient	1.0000fibre end	0.00T internal ref (°C)	33.06T ext. ref 1 (°C)	2.97T ext. ref 2 (°C)	27.63length (m)	temperature (°C)	Stokes	anti-Stokes-747.200	-82.716	-0.757	-0.248
-746.185	8.384	-0.734	0.559
-745.171	800.000	0.171	0.518
-744.156	-200.000	-0.125	0.941
-743.142	-48.706	-0.346	-0.168
-742.127	-200.000	0.017	0.618
-741.112	207.256	-0.221	0.349
-740.098	-36.921	-0.065	0.035
-739.083	337.555	0.255	-0.501
-738.069	36.599	0.204	0.182
-737.054	614.230	-0.089	0.226
-736.039	27.585	0.398	-0.339
-735.025	-11.164	-0.426	0.284
-734.010	-45.989	-0.212	-0.106
-732.996	-200.000	0.008	0.275
-731.981	-129.512	-1.153	-0.162
-730.966	-200.000	-0.060	0.459
-729.952	7.107	-0.362	0.273
-728.937	73.060	0.283	-0.299
-727.923	-200.000	-0.071	0.429
-726.908	-179.671	-0.394	0.009
-725.894	166.792	0.474	-0.680
-724.879	-116.749	1.000	-0.186
-723.864	-144.541	0.522	0.049
-722.850	-200.000	0.062	-0.299
-721.835	223.330	-0.271	-0.443
-720.821	26.998	-0.637	0.541
-719.806	800.000	0.197	0.638
-718.791	800.000	-0.155	-0.514
-717.777	-95.544	-0.422	0.115
-716.762	-111.505	-0.334	-0.069
-715.748	398.956	-0.410	0.867
-714.733	-200.000	0.077	0.600
-713.718	800.000	0.155	-0.514
-712.704	-18.807	-0.530	0.334
-711.689	99.637	0.557	0.652
-710.675	-48.354	-0.466	-0.227
-709.660	14.961	0.661	0.523
-708.645	-129.502	0.528	0.074
-707.631	731.015	0.049	0.132
-706.616	284.200	-0.257	0.467
-705.602	43.529	-0.188	0.174
-704.587	800.000	-0.118	0.459
-703.572	-96.113	-0.510	-0.137
-702.558	-200.000	0.128	-1.011
-701.543	489.216	0.309	-0.713
-700.529	-61.208	-1.156	0.492
-699.514	-115.883	-0.555	-0.105
-698.499	-94.570	0.757	-0.208
-697.485	48.182	-0.146	-0.138
-696.470	91.767	0.496	-0.564
-695.456	-200.000	0.053	-0.469
-694.441	-60.717	0.580	-0.248
-693.426	-31.600	0.383	0.218
-692.412	620.102	0.078	-0.197
-691.397	-200.000	-0.032	0.344
-690.383	171.080	-0.282	0.408
-689.368	72.605	0.201	0.211
-688.354	-50.660	-1.083	-0.515
-687.339	-200.000	0.018	0.480
-686.324	-119.716	-0.739	-0.129
-685.310	2.938	-0.485	-0.356
-684.295	-71.966	0.250	-0.094
-683.281	125.032	-0.085	0.108
-682.266	-53.305	0.972	0.450
-681.251	-112.622	-0.648	0.130
-680.237	700.256	-0.029	-0.077
-679.222	411.907	0.393	0.842
-678.208	191.385	-0.585	0.889
-677.193	-200.000	-0.096	-0.444
-676.178	-120.943	0.471	0.080
-675.164	1.032	-0.474	-0.343
-674.149	-200.000	0.057	0.261
-673.135	528.268	0.171	-0.407
-672.120	-200.000	0.046	-0.504
-671.105	-80.380	0.241	0.081
-670.091	-200.000	0.060	-0.526
-669.076	767.638	0.143	-0.394
-668.062	30.720	-0.206	0.178
-667.047	-200.000	0.105	0.551
-666.032	163.327	-0.456	0.647
-665.018	81.586	-0.582	0.636
-664.003	414.935	-0.023	0.050
-662.989	-89.055	0.431	0.129
-661.974	-200.000	0.123	0.952
-660.959	-36.717	-0.490	0.266
-659.945	-200.000	-0.079	-0.633
-658.930	-53.242	0.411	-0.190
-657.916	-26.670	-0.720	0.425
-656.901	-146.185	0.563	0.050
-655.886	-100.066	0.532	-0.134
-654.872	800.000	0.076	-0.255
-653.857	137.677	-0.300	0.396
-652.843	-200.000	-0.560	-0.003
-651.828	-99.294	0.451	0.115
-650.814	-41.623	-0.429	-0.223
-649.799	29.521	-0.281	-0.241
-648.784	4.229	-0.434	0.321
-647.770	-88.023	-0.256	0.078
-646.755	-186.954	0.206	0.003
-645.741	-47.408	0.082	0.040
-644.726	-76.672	-0.548	-0.194
-643.711	-90.837	0.494	0.144
-642.697	5.215	0.249	0.185
-641.682	-41.348	0.232	0.120
-640.668	-58.812	-0.507	0.221
-639.653	202.814	-0.208	-0.324
-638.638	-200.000	0.115	0.753
-637.624	-62.682	0.968	0.405
-636.609	227.849	-0.408	0.669
-635.595	218.191	-0.146	0.236
-634.580	338.038	0.307	0.601
-633.565	94.461	-0.252	-0.289
-632.551	98.362	-0.283	-0.328
-631.536	435.824	0.356	0.781
-630.522	-197.961	-0.683	0.004
-629.507	-114.828	-0.420	0.081
-628.492	152.291	0.350	0.482
-627.478	-47.915	-0.333	0.162
-626.463	-117.171	0.562	0.103
-625.449	-172.996	-0.741	-0.023
-624.434	-18.016	-0.207	0.131
-623.419	-113.189	-0.116	-0.023
-622.405	-200.000	-0.137	-0.632
-621.390	191.596	0.307	-0.466
-620.376	-130.541	-0.930	-0.127
-619.361	4.000	0.244	-0.180
-618.346	-33.411	-0.632	-0.352
-617.332	-81.681	-0.319	-0.105
-616.317	-137.866	0.312	-0.035
-615.303	-200.000	-0.041	-0.437
-614.288	-54.191	0.689	0.315
-613.273	108.641	-0.266	0.320
-612.259	786.875	-0.347	-0.959
-611.244	2.616	0.288	0.210
-610.230	368.298	-0.369	0.752
-609.215	800.000	0.075	-0.314
-608.201	-139.682	-0.927	-0.099
-607.186	207.750	-0.216	0.340
-606.171	-57.221	0.743	-0.329
-605.157	71.695	0.475	-0.497
-604.142	37.815	-0.236	-0.211
-603.128	284.070	0.057	-0.104
-602.113	-16.173	-0.358	-0.229
-601.098	119.372	-0.332	-0.413
-600.084	117.725	0.198	-0.246
-599.069	-200.000	-0.025	-0.299
-598.055	-200.000	0.094	-0.802
-597.040	-191.499	0.315	0.003
-596.025	-52.616	-0.167	-0.078
-595.011	250.242	-0.581	0.993
-593.996	-54.885	0.717	-0.326
-592.982	-79.572	-0.449	0.153
-591.967	-156.686	0.193	-0.012
-590.952	800.000	-0.155	0.651
-589.938	-117.070	0.301	-0.055
-588.923	288.298	0.288	-0.524
-587.909	22.697	-0.061	0.051
-586.894	-45.106	-0.264	0.132
-585.879	-200.000	0.092	0.604
-584.865	11.177	0.797	-0.614
-583.850	-200.000	0.008	-0.272
-582.836	-97.057	-0.509	0.134
-581.821	-36.278	-0.210	-0.114
-580.806	105.717	0.189	0.225
-579.792	-78.730	0.332	0.114
-578.777	-95.174	-0.501	0.136
-577.763	785.665	0.070	-0.192
-576.748	-200.000	0.005	0.617
-575.733	310.639	-0.540	1.017
-574.719	-46.388	0.307	0.152
-573.704	-200.000	0.097	0.795
-572.690	-200.000	0.005	0.025
-571.675	167.206	-0.360	0.514
-570.661	312.751	0.481	0.908
-569.646	47.704	0.161	0.151
-568.631	-72.971	-0.382	-0.141
-567.617	32.609	0.292	-0.254
-566.602	-200.000	0.060	-0.317
-565.588	-35.458	-0.031	0.017
-564.573	-146.513	-0.171	-0.015
-563.558	730.689	0.137	0.368
-562.544	29.650	0.358	-0.306
-561.529	11.754	0.157	-0.121
-560.515	121.284	-0.306	-0.383
-559.500	800.000	0.160	-0.689
-558.485	-66.442	0.577	-0.230
-557.471	-98.735	0.724	0.185
-556.456	800.000	-0.101	-0.342
-555.442	10.572	-0.404	-0.309
-554.427	-133.113	-1.142	0.145
-553.412	-102.714	0.184	-0.044
-552.398	-156.146	0.228	0.014
-551.383	353.304	0.289	0.576
-550.369	-78.476	-0.353	-0.121
-549.354	176.168	0.085	-0.124
-548.339	-43.512	-0.878	0.445
-547.325	-142.096	0.340	0.034
-546.310	571.404	-0.368	0.900
-545.296	34.364	0.313	-0.274
-544.281	118.845	-0.381	-0.473
-543.266	177.456	-0.191	0.280
-542.252	308.235	0.311	0.583
-541.237	-200.000	0.150	-0.910
-540.223	136.114	0.249	-0.326
-539.208	576.142	0.069	0.169
-538.193	-114.132	0.676	0.131
-537.179	-136.273	-0.195	-0.023
-536.164	-200.000	0.023	-0.350
-535.150	-81.669	0.270	0.089
-534.135	-200.000	-0.103	-0.466
-533.121	-97.672	0.270	-0.070
-532.106	33.819	0.386	0.338
-531.091	-200.000	0.034	-0.434
-530.077	199.615	0.073	0.112
-529.062	-34.916	-0.418	0.229
-528.048	-77.454	0.590	0.206
-527.033	172.417	-0.111	-0.160
-526.018	-200.000	0.029	-0.308
-525.004	-14.982	-0.509	-0.327
-523.989	-168.049	-0.383	0.015
-522.975	26.618	0.413	0.347
-521.960	57.220	0.279	-0.273
-520.945	800.000	-0.056	0.209
-519.931	-39.850	-0.318	-0.167
-518.916	-43.296	-0.809	-0.411
-517.902	-5.694	0.340	-0.234
-516.887	-158.452	-0.425	0.025
-515.872	-200.000	0.053	0.385
-514.858	-183.196	-0.498	-0.009
-513.843	125.362	-0.541	0.685
-512.829	143.511	0.134	0.180
-511.814	676.028	0.117	-0.306
-510.799	10.976	0.335	0.257
-509.785	258.232	-0.450	0.777
-508.770	-138.299	-0.727	0.081
-507.756	-200.000	-0.008	0.319
-506.741	-200.000	-0.042	-0.382
-505.726	800.000	-0.242	0.687
-504.712	-200.000	0.074	-0.379
-503.697	-104.277	0.664	0.155
-502.683	26.707	-0.429	-0.361
-501.668	23.898	0.056	0.046
-500.653	194.590	0.273	-0.415
-499.639	-40.601	-0.967	0.503
-498.624	-34.890	0.052	-0.029
-497.610	-123.291	0.949	-0.152
-496.595	289.272	0.474	0.862
-495.581	-85.400	-0.730	-0.228
-494.566	-200.000	-0.049	-0.392
-493.551	182.781	-0.296	-0.437
-492.537	-96.174	0.081	-0.021
-491.522	-191.338	1.099	0.011
-490.508	355.291	-0.094	-0.186
-489.493	-136.853	-0.481	0.055
-488.478	-122.692	0.742	-0.120
-487.464	-200.000	0.057	-0.333
-486.449	77.319	-0.431	-0.460
-485.435	350.170	0.076	0.150
-484.420	-6.131	-0.623	0.427
-483.405	-30.941	-0.370	-0.210
-482.391	77.880	-0.435	-0.465
-481.376	-58.949	-0.899	-0.389
-480.362	297.994	0.423	0.780
-479.347	-200.000	-0.033	-0.405
-478.332	353.756	-0.259	-0.516
-477.318	22.483	-0.274	0.224
-476.303	-91.614	-0.080	-0.023
-475.289	75.721	0.530	0.561
-474.274	-95.556	0.227	-0.061
-473.259	391.009	0.365	0.760
-472.245	-200.000	0.037	0.393
-471.230	-200.000	0.047	0.379
-470.216	-122.852	-0.488	0.079
-469.201	-14.042	-0.531	-0.343
-468.186	323.148	0.225	0.429
-467.172	74.337	0.071	0.075
-466.157	-169.082	-0.343	0.013
-465.143	-200.000	-0.029	0.370
-464.128	-200.000	0.023	-0.383
-463.113	-200.000	-0.073	-0.544
-462.099	-200.000	0.035	0.187
-461.084	-200.000	-0.101	0.512
-460.070	-41.904	-0.557	-0.286
-459.055	800.000	0.127	0.540
-458.040	-16.084	0.990	0.630
-457.026	8.520	0.235	-0.177
-456.011	800.000	-0.112	0.415
-454.997	-200.000	-0.003	-0.958
-453.982	-64.120	0.420	-0.171
-452.968	-32.244	0.244	0.136
-451.953	-110.051	0.354	0.074
-450.938	437.815	-0.090	0.197
-449.924	-68.937	0.249	0.096
-448.909	90.286	0.024	-0.027
-447.895	-200.000	-0.008	-0.532
-446.880	-200.000	-0.093	-0.584
-445.865	260.048	-0.065	-0.113
-444.851	177.371	0.226	-0.329
-443.836	63.428	0.525	-0.526
-442.822	-107.213	1.040	-0.229
-441.807	-30.192	0.373	-0.212
-440.792	6.276	-0.116	0.086
-439.778	-200.000	-0.075	-0.828
-438.763	37.038	-0.667	-0.591
-437.749	354.172	-0.080	0.160
-436.734	-152.680	-0.196	-0.014
-435.719	-112.539	-0.372	-0.074
-434.705	6.992	0.295	-0.220
-433.690	57.544	-0.205	-0.201
-432.676	-83.489	0.436	0.140
-431.661	268.126	-0.288	0.504
-430.646	-150.774	-0.406	-0.031
-429.632	107.913	0.560	0.668
-428.617	99.342	-0.270	0.312
-427.603	-89.970	0.883	0.258
-426.588	-200.000	0.014	-0.068
-425.573	-200.000	0.027	-0.350
-424.559	53.971	-0.360	0.346
-423.544	276.025	0.193	0.343
-422.530	800.000	0.119	-0.380
-421.515	43.463	0.408	0.373
-420.500	-3.416	-0.749	-0.521
-419.486	707.900	-0.061	0.161
-418.471	-200.000	0.120	1.316
-417.457	-42.617	-0.296	-0.151
-416.442	8.303	-0.464	0.348
-415.428	-50.979	0.511	-0.240
-414.413	143.366	0.243	-0.323
-413.398	-170.651	-0.498	0.017
-412.384	-151.488	-0.444	0.033
-411.369	78.726	0.413	0.441
-410.355	-104.762	0.322	-0.074
-409.340	91.110	-0.437	-0.489
-408.325	-89.879	-0.150	0.044
-407.311	5.995	-0.586	0.434
-406.296	35.616	-0.590	-0.518
-405.282	55.208	0.560	-0.540
-404.267	-163.384	-0.629	-0.030
-403.252	111.071	-0.300	-0.361
-402.238	800.000	-0.101	0.290
-401.223	-0.975	-0.687	0.485
-400.209	-17.783	-0.608	-0.381
-399.194	-158.118	-0.838	0.049
-398.179	-200.000	0.100	0.574
-397.165	35.708	0.289	0.254
-396.150	441.952	-0.212	0.464
-395.136	-62.687	0.569	-0.236
-394.121	53.838	-0.348	-0.334
-393.106	-200.000	-0.023	-0.849
-392.092	620.942	0.381	0.956
-391.077	-40.740	-0.199	0.103
-390.063	-200.000	0.074	0.448
-389.048	692.045	-0.217	0.568
-388.033	-110.299	-0.576	-0.120
-387.019	-200.000	-0.203	1.166
-386.004	791.342	0.129	0.355
-384.990	-200.000	-0.003	-0.431
-383.975	-93.287	0.555	-0.154
-382.960	-70.542	0.697	-0.263
-381.946	338.647	0.126	0.245
-380.931	-105.579	-0.220	-0.050
-379.917	-116.966	1.578	0.288
-378.902	-200.000	0.036	-0.189
-377.888	-159.407	0.810	-0.045
-376.873	800.000	-0.091	-0.265
-375.858	-74.954	-0.117	-0.042
-374.844	79.198	-0.696	0.744
-373.829	-31.573	0.560	0.314
-372.815	800.000	0.256	0.733
-371.800	498.111	-0.465	1.069
-370.785	-136.953	-0.293	-0.034
-369.771	107.891	-0.737	-0.876
-368.756	37.086	-0.189	0.167
-367.742	-150.450	0.358	0.027
-366.727	800.000	-0.120	0.393
-365.712	800.000	-0.129	0.404
-364.698	-200.000	-0.009	0.264
-363.683	29.149	0.452	-0.382
-362.669	-200.000	-0.130	0.931
-361.654	800.000	0.243	0.716
-360.639	119.051	-0.264	-0.325
-359.625	-200.000	-0.107	0.524
-358.610	800.000	-0.015	0.050
-357.596	353.961	-0.230	0.456
-356.581	-120.571	-0.501	-0.085
-355.566	800.000	-0.145	-0.629
-354.552	58.028	0.320	-0.312
-353.537	100.648	0.676	-0.783
-352.523	-111.440	-0.567	0.115
-351.508	800.000	-0.062	-0.255
-350.493	-195.365	0.193	0.001
-349.479	173.447	0.243	0.350
-348.464	447.442	0.088	0.194
-347.450	-22.886	-0.512	-0.308
-346.435	10.079	-0.524	0.397
-345.420	-107.595	0.481	-0.105
-344.406	217.709	0.472	-0.749
-343.391	-67.628	-0.585	-0.229
-342.377	101.403	-0.235	-0.272
-341.362	-54.999	-0.910	0.408
-340.348	355.320	-0.338	0.670
-339.333	-138.556	0.117	-0.013
-338.318	100.406	-0.054	0.062
-337.304	53.562	-0.334	-0.320
-336.289	246.512	0.488	-0.820
-335.275	236.916	-0.478	0.789
-334.260	-20.453	-0.631	-0.387
-333.245	252.142	0.208	0.353
-332.231	375.743	0.141	-0.287
-331.216	-200.000	0.051	-0.766
-330.202	-72.462	0.079	-0.029
-329.187	0.997	0.112	-0.080
-328.172	-200.000	-0.044	-0.551
-327.158	-200.000	0.167	-0.782
-326.143	-200.000	0.090	0.795
-325.129	-61.208	0.262	0.110
-324.114	466.047	-0.164	-0.365
-323.099	-163.561	-0.825	-0.039
-322.085	-61.912	-0.203	0.084
-321.070	-114.527	0.365	-0.070
-320.056	800.000	0.062	0.186
-319.041	-43.093	0.732	-0.370
-318.026	-72.070	0.587	-0.217
-317.012	800.000	-0.110	-0.470
-315.997	-111.230	0.796	0.162
-314.983	-200.000	-0.008	-0.580
-313.968	1.546	0.966	-0.692
-312.953	-200.000	0.043	-0.344
-311.939	-200.000	0.011	-0.304
-310.924	-73.676	0.558	-0.202
-309.910	148.130	0.628	0.844
-308.895	-92.064	0.379	0.107
-307.880	-55.638	0.810	-0.361
-306.866	10.715	0.398	0.302
-305.851	193.749	0.146	0.220
-304.837	147.859	0.406	0.544
-303.822	-90.104	-0.767	0.222
-302.807	-59.662	-0.768	0.327
-301.793	-55.760	0.740	-0.329
-300.778	800.000	-0.140	0.578
-299.764	81.215	-0.406	-0.436
-298.749	800.000	-0.307	1.048
-297.735	263.319	0.105	-0.181
-296.720	-200.000	-0.109	0.639
-295.705	-92.654	0.359	-0.100
-294.691	-76.040	-0.587	-0.206
-293.676	-122.178	0.214	0.035
-292.662	800.000	-0.105	0.390
-291.647	-200.000	-0.203	-1.040
-290.632	101.655	-0.238	-0.276
-289.618	-116.487	-0.327	-0.060
-288.603	122.189	0.439	-0.545
-287.589	-56.998	0.232	0.102
-286.574	734.178	-0.119	0.316
-285.559	-200.000	0.195	-0.915
-284.545	20.235	0.683	-0.548
-283.530	-83.543	-0.593	0.189
-282.516	-127.695	0.421	-0.060
-281.501	317.338	0.134	0.253
-280.486	43.902	-0.185	-0.168
-279.472	-173.395	-0.285	-0.009
-278.457	-59.654	-0.642	-0.274
-277.443	378.371	-0.566	1.150
-276.428	-155.536	-0.272	-0.017
-275.413	-15.078	0.368	0.235
-274.399	-158.160	-0.137	0.008
-273.384	-11.071	0.288	-0.189
-272.370	19.652	0.175	0.140
-271.355	212.537	0.128	0.201
-270.340	-84.044	-0.621	0.196
-269.326	-140.643	0.634	0.065
-268.311	427.361	0.246	0.528
-267.297	253.658	0.346	0.588
-266.282	-83.446	0.438	-0.139
-265.267	-131.446	0.630	0.083
-264.253	762.255	0.126	0.341
-263.238	679.577	-0.150	0.388
-262.224	52.390	-0.262	-0.248
-261.209	-84.321	-0.246	0.077
-260.195	-162.894	-1.132	-0.055
-259.180	-44.358	0.349	-0.174
-258.165	-55.965	0.454	0.201
-257.151	-111.364	-0.821	0.166
-256.136	169.725	0.674	-0.957
-255.122	-27.869	0.535	0.308
-254.107	183.954	0.157	0.230
-253.092	-119.460	0.512	-0.088
-252.078	-192.340	-0.709	0.007
-251.063	187.836	-0.070	0.104
-250.049	-114.311	-0.939	-0.180
-249.034	147.056	0.108	0.145
-248.019	342.852	0.150	-0.291
-247.005	223.124	0.284	-0.454
-245.990	800.000	-0.230	0.935
-244.976	-200.000	0.066	0.653
-243.961	800.000	0.067	0.256
-242.946	-4.247	-0.169	-0.116
-241.932	130.921	0.220	0.280
-240.917	194.616	-0.350	-0.526
-239.903	59.912	0.416	0.408
-238.888	-200.000	0.040	-0.533
-237.873	-117.794	-0.577	-0.103
-236.859	-34.041	-0.344	0.188
-235.844	800.000	0.059	-0.189
-234.830	631.621	0.153	-0.384
-233.815	-23.802	0.143	-0.085
-232.800	113.360	0.536	-0.646
-231.786	29.682	-0.430	0.363
-230.771	202.965	0.316	0.485
-229.757	-105.336	0.606	-0.137
-228.742	-45.759	0.510	-0.250
-227.727	-148.858	0.682	0.055
-226.713	-148.186	-0.748	-0.061
-225.698	-200.000	0.017	-1.123
-224.684	-109.184	0.509	0.107
-223.669	-79.791	0.180	0.060
-222.655	-17.142	-0.440	-0.275
-221.640	800.000	0.080	-0.299
-220.625	-10.916	0.291	0.191
-219.611	-200.000	-0.023	0.300
-218.596	-35.717	-0.477	-0.256
-217.582	-49.609	-0.479	-0.226
-216.567	-59.827	0.365	0.155
-215.552	570.642	0.274	-0.662
-214.538	650.806	0.244	-0.620
-213.523	205.764	0.484	-0.746
-212.509	-162.135	-0.427	0.021
-211.494	-117.768	-0.371	-0.066
-210.479	479.095	0.133	0.300
-209.465	-102.782	0.507	0.120
-208.450	-200.000	0.035	0.710
-207.436	800.000	0.023	0.078
-206.421	12.378	-0.820	-0.626
-205.406	800.000	0.171	-0.646
-204.392	12.049	-0.421	0.321
-203.377	92.319	0.218	-0.243
-202.363	800.000	0.188	0.524
-201.348	-150.144	-0.780	0.060
-200.333	800.000	0.231	-0.766
-199.319	510.725	0.247	-0.570
-198.304	71.665	0.316	-0.325
-197.290	-200.000	-0.001	-0.025
-196.275	-47.833	-0.709	0.340
-195.260	1.743	0.720	0.514
-194.246	-89.969	-0.248	-0.072
-193.231	-61.752	0.396	-0.164
-192.217	-100.376	0.326	-0.080
-191.202	-200.000	0.040	-0.762
-190.187	163.913	0.358	0.499
-189.173	39.529	-0.476	0.423
-188.158	625.305	0.102	0.254
-187.144	611.766	-0.127	0.314
-186.129	800.000	0.083	-0.350
-185.114	86.424	-0.349	0.381
-184.100	-64.880	0.237	0.095
-183.085	-200.000	0.058	-0.525
-182.071	800.000	-0.296	-0.858
-181.056	168.349	0.330	-0.465
-180.042	632.886	0.162	-0.406
-179.027	-147.968	0.783	-0.064
-178.012	-22.602	-0.180	-0.108
-176.998	27.750	0.349	0.291
-175.983	-23.929	-1.340	0.794
-174.969	800.000	-0.108	-0.441
-173.954	30.045	0.019	0.016
-172.939	-200.000	-0.102	0.483
-171.925	172.581	-0.451	0.643
-170.910	-130.930	0.861	0.114
-169.896	-200.000	0.011	0.309
-168.881	202.434	0.550	-0.841
-167.866	800.000	0.036	-0.102
-166.852	117.783	0.419	-0.511
-165.837	-113.242	-0.253	0.049
-164.823	-200.000	0.063	-0.500
-163.808	628.969	-0.207	-0.518
-162.793	800.000	-0.075	0.209
-161.779	-33.521	0.374	0.204
-160.764	-200.000	-0.049	-0.487
-159.750	-27.320	0.573	0.330
-158.735	-2.886	0.847	-0.586
-157.720	800.000	-0.245	-0.680
-156.706	-102.562	-0.578	0.137
-155.691	-88.396	0.269	0.079
-154.677	800.000	0.138	0.396
-153.662	-39.404	0.320	0.166
-152.647	-200.000	0.025	-0.469
-151.633	-200.000	-0.026	-0.332
-150.618	-89.381	0.615	0.179
-149.604	-83.367	-0.264	-0.084
-148.589	-156.756	1.056	0.064
-147.574	800.000	-0.248	-0.777
-146.560	126.305	0.393	-0.491
-145.545	32.123	0.079	0.068
-144.531	-65.942	-0.338	0.133
-143.516	126.091	0.287	-0.358
-142.502	800.000	0.322	0.952
-141.487	-200.000	0.080	0.688
-140.472	-36.222	-0.508	0.271
-139.458	-93.180	-0.951	0.261
-138.443	-200.000	-0.160	-0.888
-137.429	-172.724	0.299	-0.009
-136.414	88.253	-0.515	0.565
-135.399	-200.000	-0.004	0.222
-134.385	-119.377	0.653	0.112
-133.370	-200.000	0.082	1.104
-132.356	439.883	-0.297	-0.641
-131.341	-200.000	0.122	0.588
-130.326	-99.135	-0.864	0.216
-129.312	-31.536	0.155	-0.086
-128.297	800.000	-0.086	0.246
-127.283	-200.000	0.065	-0.455
-126.268	115.560	0.345	-0.416
-125.253	-39.948	-0.291	0.150
-124.239	-34.160	-0.111	0.060
-123.224	-200.000	-0.009	0.332
-122.210	280.249	0.418	-0.739
-121.195	-8.154	-0.239	0.159
-120.180	196.177	0.224	0.337
-119.166	-101.901	-0.187	0.045
-118.151	800.000	-0.099	-0.325
-117.137	-26.427	0.446	-0.258
-116.122	-200.000	0.012	-0.099
-115.107	-161.625	-0.358	0.018
-114.093	-69.823	-0.286	0.108
-113.078	14.660	-0.221	0.170
-112.064	-70.340	-0.570	-0.213
-111.049	75.374	-0.456	-0.475
-110.034	-136.332	-0.622	0.072
-109.020	0.312	-0.158	0.111
-108.005	-200.000	-0.144	-0.723
-106.991	-56.565	-0.340	0.149
-105.976	-200.000	0.032	-1.024
-104.962	257.820	0.231	0.392
-103.947	469.490	-0.124	-0.276
-102.932	-57.641	0.640	-0.277
-101.918	-144.931	0.455	0.041
-100.903	194.379	-0.467	-0.698
-99.889	-127.133	0.334	0.048
-98.874	-120.873	-1.133	0.188
-97.859	379.055	0.430	0.868
-96.845	-97.898	-0.496	0.126
-95.830	149.882	-0.164	-0.219
-94.816	-76.095	-0.476	0.166
-93.801	-200.000	-0.017	-0.261
-92.786	-62.402	-0.586	-0.240
-91.772	4.872	0.091	-0.066
-90.757	-73.065	0.700	-0.254
-89.743	18.433	0.150	0.119
-88.728	60.306	-0.680	0.664
-87.713	590.789	-0.193	0.469
-86.699	-10.449	0.082	0.053
-85.684	-125.033	-0.623	0.094
-84.670	21.882	0.328	0.264
-83.655	-103.143	0.219	0.051
-82.640	-79.435	-0.183	-0.061
-81.626	39.746	0.428	-0.379
-80.611	-10.570	-0.914	0.597
-79.597	15.429	-0.562	-0.435
-78.582	-129.048	-0.310	0.043
-77.567	-29.176	0.354	-0.200
-76.553	151.197	-0.354	-0.475
-75.538	-48.836	-0.082	-0.039
-74.524	-117.174	-0.586	-0.105
-73.509	800.000	-0.148	-0.499
-72.494	-137.837	0.641	-0.071
-71.480	-164.709	0.437	0.019
-70.465	-66.879	0.387	0.151
-69.451	-200.000	-0.090	-0.651
-68.436	-140.212	0.147	0.015
-67.422	593.976	-0.037	-0.090
-66.407	-34.326	-0.113	0.061
-65.392	-48.922	0.373	-0.176
-64.378	-93.576	-0.072	0.020
-63.363	-17.789	0.175	0.108
-62.349	-178.704	0.420	-0.009
-61.334	-111.861	-1.393	-0.277
-60.319	618.968	0.220	0.544
-59.305	231.800	-0.309	-0.500
-58.290	-200.000	0.019	1.457
-57.276	7.422	1.342	0.988
-56.261	-200.000	94.205	570.691
-55.246	641.962	1365.693	3428.609
-54.232	201.327	2530.263	3838.966
-53.217	116.732	2146.640	2595.617
-52.203	43.334	1698.441	1528.706
-51.188	36.051	1512.317	1311.779
-50.173	33.848	1485.479	1273.694
-49.159	54.003	1536.614	1455.437
-48.144	54.937	1553.273	1477.524
-47.130	36.312	1513.361	1314.250
-46.115	33.347	1498.000	1280.837
-45.100	33.053	1494.236	1275.581
-44.086	32.950	1493.511	1274.220
-43.071	33.156	1490.871	1273.302
-42.057	33.143	1488.863	1271.450
-41.042	33.044	1487.795	1269.821
-40.027	33.179	1485.617	1268.817
-39.013	33.084	1483.984	1266.737
-37.998	33.010	1483.727	1265.975
-36.984	33.033	1482.876	1265.350
-35.969	32.944	1481.520	1263.545
-34.954	33.125	1479.450	1262.941
-33.940	33.064	1478.335	1261.531
-32.925	33.015	1477.606	1260.533
-31.911	33.287	1475.618	1260.596
-30.896	33.109	1474.051	1258.027
-29.881	33.206	1472.381	1257.198
-28.867	33.092	1471.111	1255.307
-27.852	33.208	1470.040	1255.108
-26.838	33.315	1468.426	1254.393
-25.823	33.154	1467.544	1252.522
-24.809	33.133	1465.534	1250.614
-23.794	33.121	1464.015	1249.189
-22.779	33.018	1463.489	1248.012
-21.765	32.949	1462.099	1246.326
-20.750	33.085	1460.699	1245.980
-19.736	33.105	1459.133	1244.724
-18.721	32.903	1458.745	1243.013
-17.706	33.226	1457.352	1243.898
-16.692	33.118	1457.086	1242.913
-15.677	33.135	1455.178	1241.350
-14.663	33.183	1454.360	1240.920
-13.648	32.989	1453.342	1238.728
-12.633	33.056	1451.615	1237.645
-11.619	32.937	1453.273	1238.232
-10.604	32.930	1451.682	1236.781
-9.590	32.792	1450.318	1234.666
-8.575	32.931	1449.756	1235.047
-7.560	33.058	1449.138	1235.303
-6.546	32.936	1447.667	1233.202
-5.531	33.097	1446.665	1233.351
-4.517	32.891	1446.036	1231.418
-3.502	33.136	1443.831	1231.092
-2.487	32.883	1443.951	1229.493
-1.473	33.256	1441.645	1229.909
-0.458	32.992	1441.360	1227.899
0.556	34.021	1432.751	1217.201
1.571	30.702	1407.236	1174.510
2.586	27.375	1347.164	1104.128
3.600	25.433	1266.509	1026.844
4.615	23.906	1220.598	981.120
5.629	20.554	1164.296	918.108
6.644	11.347	1079.421	805.819
7.659	4.129	1038.187	740.566
8.673	3.189	1031.951	731.587
9.688	3.156	1027.475	728.194
10.702	2.590	1028.162	725.934
11.717	2.946	1024.870	725.227
12.731	6.205	1028.674	743.276
13.746	15.235	1041.654	795.631
14.761	22.949	1051.240	839.696
15.775	24.808	1053.353	850.152
16.790	25.030	1052.809	850.692
17.804	24.783	1051.121	848.080
18.819	24.558	1050.741	846.632
19.834	24.684	1049.868	846.448
20.848	24.901	1049.579	847.169
21.863	24.957	1049.699	847.457
22.877	24.947	1048.908	846.698
23.892	24.855	1048.186	845.603
24.907	24.917	1047.500	845.269
25.921	24.686	1047.061	843.747
26.936	24.547	1046.722	842.745
27.950	24.567	1045.493	841.773
28.965	24.455	1044.088	840.045
29.980	24.432	1042.895	838.901
30.994	24.644	1041.313	838.549
32.009	24.844	1040.110	838.441
33.023	24.719	1040.487	838.087
34.038	24.737	1039.111	836.988
35.053	24.678	1038.666	836.279
36.067	24.714	1037.432	835.379
37.082	24.673	1037.114	834.860
38.096	24.697	1035.694	833.753
39.111	24.881	1035.381	834.288
40.126	25.064	1034.350	834.231
41.140	25.187	1032.844	833.518
42.155	24.784	1032.366	831.185
43.169	24.533	1031.346	829.125
44.184	24.449	1030.208	827.749
45.199	24.129	1030.352	826.306
46.213	24.395	1028.402	825.902
47.228	24.505	1027.093	825.283
48.242	24.394	1027.700	825.184
49.257	24.530	1026.601	824.856
50.271	24.916	1024.800	825.119
51.286	24.858	1024.606	824.621
52.301	24.783	1024.958	824.486
53.315	24.684	1023.648	822.902
54.330	24.738	1022.002	821.753
55.344	24.827	1021.150	821.406
56.359	24.376	1021.480	819.527
57.374	24.822	1019.408	819.836
58.388	24.743	1019.288	819.307
59.403	24.627	1018.091	817.738
60.417	24.671	1017.313	817.244
61.432	24.556	1017.276	816.617
62.447	24.593	1015.712	815.456
63.461	24.524	1016.674	815.840
64.476	24.796	1014.646	815.383
65.490	24.634	1014.607	814.540
66.505	24.881	1012.533	813.927
67.520	24.526	1012.344	812.087
68.534	25.060	1011.648	813.884
69.549	24.672	1010.222	810.906
70.563	24.367	1010.678	809.813
71.578	24.075	1010.292	808.109
72.593	24.394	1007.417	807.183
73.607	24.251	1006.636	805.839
74.622	24.067	1007.388	805.538
75.636	24.198	1006.682	805.492
76.651	24.278	1006.375	805.535
77.666	24.480	1004.650	804.997
78.680	24.369	1004.050	803.945
79.695	24.232	1003.499	802.816
80.709	24.165	1003.118	802.136
81.724	24.437	1002.419	802.730
82.739	24.576	1000.999	802.148
83.753	24.513	1000.238	801.181
84.768	24.527	1000.416	801.319
85.782	24.810	1000.261	802.391
86.797	25.084	998.424	802.072
87.812	25.181	997.723	801.874
88.826	25.019	996.957	800.464
89.841	25.236	995.767	800.406
90.855	25.258	995.079	799.880
91.870	25.236	994.846	799.523
92.884	25.247	994.408	799.149
93.899	25.238	993.112	797.996
94.914	24.861	992.293	795.593
95.928	24.779	991.968	794.897
96.943	25.166	990.398	795.288
97.957	24.820	990.136	793.473
98.972	24.568	988.582	791.040
99.987	24.786	987.802	791.309
101.001	24.656	987.402	790.343
102.016	25.214	986.030	791.642
103.030	25.086	985.351	790.461
104.045	25.083	984.518	789.708
105.060	25.153	983.387	789.039
106.074	24.799	982.536	786.733
107.089	24.734	983.053	786.790
108.103	24.737	981.434	785.437
109.118	24.766	980.370	784.644
110.133	24.649	979.328	783.226
111.147	24.902	977.712	782.970
112.162	24.484	976.538	780.135
113.176	24.111	976.889	778.716
114.191	24.657	975.217	779.699
115.206	24.831	975.148	780.331
116.220	24.496	973.621	777.582
117.235	24.267	972.730	775.805
118.249	24.307	971.750	775.130
119.264	24.315	971.536	774.927
120.279	24.159	971.042	773.786
121.293	23.933	970.223	772.084
122.308	24.294	969.546	773.043
123.322	24.772	968.221	773.986
124.337	24.296	967.562	771.332
125.352	24.021	967.119	769.719
126.366	24.398	964.267	769.009
127.381	23.939	964.461	767.115
128.395	24.136	964.495	767.925
129.410	24.824	963.337	769.896
130.424	24.535	962.774	768.133
131.439	24.770	961.064	767.712
132.454	25.006	960.663	768.334
133.468	25.075	959.215	767.405
134.483	25.211	958.623	767.446
135.497	24.951	958.516	766.179
136.512	24.510	959.349	764.891
137.527	24.983	956.897	764.887
138.541	24.924	956.127	763.952
139.556	25.156	954.830	763.837
140.570	25.110	954.538	763.338
141.585	24.997	954.154	762.484
142.600	25.106	953.816	762.611
143.614	25.116	953.336	762.202
144.629	25.132	951.591	760.809
145.643	25.347	950.941	761.130
146.658	24.910	950.760	759.065
147.673	25.006	949.549	758.438
148.687	25.276	947.456	757.841
149.702	24.873	947.109	755.796
150.716	25.132	945.527	755.558
151.731	24.766	945.426	753.869
152.746	24.887	943.673	752.910
153.760	24.778	943.995	752.642
154.775	25.059	942.847	752.843
155.789	25.275	942.294	753.239
156.804	25.462	941.262	753.133
157.819	24.927	941.021	750.629
158.833	25.263	939.595	750.832
159.848	24.768	940.099	749.097
160.862	25.280	938.314	749.747
161.877	25.159	937.477	748.505
162.892	25.134	936.982	747.943
163.906	25.350	935.002	747.195
164.921	24.809	935.939	745.622
165.935	25.364	933.871	746.218
166.950	25.089	933.405	744.634
167.964	25.249	931.964	744.084
168.979	25.381	930.940	743.745
169.994	25.337	929.794	742.585
171.008	24.645	929.666	739.554
172.023	25.138	927.387	739.709
173.037	25.505	927.494	741.243
174.052	25.537	926.384	740.421
175.067	25.125	926.213	738.523
176.081	24.907	925.402	736.913
177.096	24.857	924.672	736.062
178.110	24.878	924.531	735.973
179.125	25.218	921.654	735.008
180.140	24.845	921.068	732.951
181.154	24.564	921.483	732.065
182.169	24.768	920.593	732.127
183.183	25.217	919.660	733.156
184.198	25.099	920.197	733.036
185.213	24.956	919.078	731.495
186.227	24.952	918.119	730.651
187.242	25.120	918.263	731.386
188.256	25.295	917.054	731.072
189.271	24.830	917.294	729.302
190.286	25.240	915.591	729.554
191.300	25.415	913.962	728.902
192.315	24.705	913.617	725.679
193.329	24.382	912.261	723.229
194.344	23.882	911.711	720.704
195.359	24.601	911.497	723.383
196.373	25.184	911.731	725.866
197.388	25.505	910.937	726.467
198.402	25.038	910.922	724.500
199.417	25.331	911.549	726.121
200.432	25.430	909.892	725.139
201.446	25.244	910.004	724.409
202.461	25.144	909.174	723.281
203.475	25.546	907.658	723.632
204.490	24.700	907.551	720.075
205.504	24.418	904.930	716.800
206.519	24.383	904.768	716.470
207.534	24.900	904.884	718.572
208.548	25.040	903.868	718.261
209.563	25.366	904.695	720.166
210.577	25.125	904.294	718.816
211.592	24.613	903.245	715.869
212.607	25.675	901.606	718.748
213.621	25.573	902.516	719.005
214.636	25.824	900.561	718.385
215.650	25.385	900.917	716.853
216.665	25.390	900.587	716.547
217.680	25.584	899.644	716.506
218.694	25.183	899.951	715.088
219.709	25.467	898.633	715.108
220.723	25.085	898.540	713.451
221.738	24.970	897.397	712.024
222.753	25.210	896.182	711.946
223.767	25.287	895.896	711.964
224.782	24.840	895.235	709.604
225.796	25.115	894.408	709.974
226.811	25.371	894.472	710.973
227.826	25.367	892.687	709.479
228.840	24.618	892.175	706.049
229.855	24.691	891.734	705.928
230.869	24.809	891.408	706.071
231.884	24.748	890.309	704.899
232.899	24.657	890.439	704.580
233.913	24.958	890.089	705.425
234.928	24.867	889.900	704.855
235.942	25.054	888.296	704.256
236.957	25.250	887.315	704.188
237.972	24.995	886.619	702.573
238.986	24.775	886.415	701.484
240.001	24.643	885.188	699.935
241.015	24.675	885.629	700.349
242.030	24.936	884.769	700.626
243.045	24.984	883.660	699.875
244.059	24.936	883.111	699.190
245.074	25.200	882.397	699.595
246.088	25.486	881.453	699.899
247.103	25.013	881.856	698.311
248.117	25.367	880.622	698.649
249.132	25.599	880.754	699.598
250.147	26.321	880.570	702.194
251.161	26.073	880.490	701.106
252.176	26.286	879.093	700.755
253.190	25.926	879.056	699.270
254.205	25.967	878.635	699.030
255.220	26.248	877.722	699.332
256.234	26.160	877.754	698.952
257.249	26.391	875.776	698.207
258.263	26.102	875.497	696.810
259.278	25.827	875.468	695.661
260.293	26.096	875.428	696.607
261.307	26.339	874.299	696.585
262.322	26.110	874.001	695.404
263.336	25.852	873.951	694.308
264.351	25.867	872.390	693.062
265.366	25.379	870.806	689.869
266.380	25.002	870.240	687.914
267.395	25.567	869.745	689.629
268.409	26.002	869.759	691.245
269.424	25.752	870.117	690.509
270.439	25.719	868.786	689.269
271.453	25.889	868.050	689.274
272.468	25.890	868.076	689.234
273.482	25.958	866.673	688.321
274.497	26.179	866.738	689.153
275.512	25.782	865.708	686.763
276.526	25.719	864.280	685.328
277.541	25.789	864.127	685.411
278.555	25.922	864.438	686.105
279.570	26.085	863.117	685.614
280.585	26.189	862.168	685.194
281.599	26.082	862.550	685.032
282.614	25.779	861.984	683.371
283.628	25.675	860.726	681.922
284.643	25.541	859.671	680.517
285.657	25.768	859.492	681.173
286.672	25.517	859.150	679.892
287.687	25.839	857.738	679.931
288.701	25.660	858.906	680.122
289.716	25.588	858.022	679.090
290.730	25.644	857.747	679.022
291.745	25.728	856.965	678.661
292.760	25.802	855.424	677.659
293.774	25.306	855.866	676.081
294.789	25.699	855.510	677.219
295.803	26.344	854.700	678.942
296.818	26.412	854.316	678.833
297.833	26.330	853.767	678.025
298.847	25.785	852.786	675.145
299.862	25.640	852.173	674.057
300.876	25.699	852.206	674.246
301.891	26.250	851.036	675.318
302.906	25.771	851.659	673.961
303.920	26.345	849.454	674.301
304.935	26.097	849.631	673.455
305.949	26.178	849.444	673.548
306.964	26.417	848.563	673.681
307.979	26.532	847.452	673.167
308.993	26.321	846.859	671.851
310.008	26.254	846.724	671.436
311.022	26.389	846.655	671.825
312.037	26.137	846.206	670.474
313.052	26.182	845.454	669.987
314.066	26.084	844.229	668.594
315.081	25.595	843.116	665.841
316.095	24.983	842.619	663.126
317.110	25.211	843.204	664.371
318.125	25.958	841.388	665.641
319.139	25.581	840.820	663.741
320.154	25.254	840.000	661.828
321.168	24.853	839.338	659.770
322.183	25.266	839.001	660.971
323.197	25.592	839.423	662.444
324.212	25.791	838.309	662.238
325.227	25.878	838.566	662.702
326.241	26.001	837.219	662.033
327.256	25.804	837.928	661.810
328.270	25.654	836.552	660.113
329.285	25.783	835.395	659.615
330.300	25.096	836.476	657.890
331.314	25.458	834.510	657.611
332.329	25.273	833.942	656.429
333.343	25.565	833.486	657.079
334.358	25.966	833.885	658.801
335.373	26.155	832.816	658.588
336.387	26.010	832.374	657.651
337.402	26.641	831.573	659.256
338.416	26.211	831.308	657.425
339.431	26.603	830.992	658.540
340.446	26.484	830.527	657.684
341.460	26.523	830.369	657.641
342.475	26.672	829.875	657.734
343.489	26.472	829.801	656.889
344.504	26.906	828.701	657.533
345.519	26.582	827.758	655.554
346.533	26.454	828.832	655.883
347.548	26.606	827.584	655.388
348.562	26.729	826.172	654.656
349.577	26.471	826.126	653.629
350.592	26.514	825.673	653.367
351.606	26.556	824.611	652.623
352.621	26.368	824.093	651.476
353.635	26.171	823.448	650.199
354.650	26.596	823.567	651.767
355.665	26.481	822.413	650.383
356.679	25.935	821.705	647.805
357.694	26.017	821.773	648.095
358.708	25.901	821.504	647.407
359.723	26.042	821.260	647.665
360.738	25.699	821.214	646.340
361.752	25.878	819.933	645.915
362.767	25.928	819.477	645.679
363.781	26.077	819.388	646.085
364.796	26.432	819.011	646.998
365.810	26.904	817.962	647.800
366.825	26.658	817.669	646.632
367.840	26.906	817.104	647.014
368.854	26.434	817.643	645.697
369.869	26.151	816.463	643.701
370.883	26.514	815.604	644.260
371.898	26.417	815.815	644.023
372.913	26.593	815.106	644.031
373.927	26.686	813.686	643.182
374.942	26.436	813.596	642.169
375.956	26.624	812.941	642.260
376.971	26.682	812.183	641.810
377.986	26.975	810.984	641.843
379.000	26.899	810.536	641.165
380.015	26.617	810.698	640.239
381.029	26.966	809.526	640.488
382.044	26.613	809.745	639.356
383.059	26.927	809.398	640.136
384.073	26.849	808.349	638.974
385.088	27.131	807.725	639.416
386.102	26.586	807.050	636.910
387.117	26.428	806.790	636.093
388.132	26.005	806.780	634.540
389.146	26.166	805.367	633.937
390.161	26.032	804.653	632.851
391.175	26.407	804.802	634.225
392.190	26.663	805.289	635.453
393.205	26.785	803.858	634.693
394.219	26.187	802.144	631.195
395.234	25.343	802.039	628.104
396.248	24.898	800.958	625.649
397.263	25.338	801.063	627.212
398.278	26.192	800.829	629.954
399.292	26.368	800.618	630.346
400.307	26.233	799.773	629.155
401.321	25.588	799.790	626.864
402.336	25.812	799.495	627.358
403.350	26.224	799.647	628.857
404.365	26.257	799.675	628.938
405.380	26.826	798.497	629.933
406.394	26.779	798.521	629.733
407.409	26.943	797.824	629.698
408.423	27.076	798.739	630.824
409.438	27.255	797.339	630.286
410.453	26.812	797.776	629.039
411.467	26.842	796.395	627.997
412.482	26.863	795.021	626.932
413.496	26.630	794.992	626.046
414.511	26.935	794.485	626.644
415.526	26.882	794.167	626.156
416.540	26.825	793.072	625.042
417.555	26.801	792.840	624.721
418.569	26.832	792.782	624.725
419.584	26.764	792.859	624.498
420.599	26.764	792.447	624.117
421.613	159.653	1369.913	1792.990
422.628	138.312	1454.067	1793.104
