DTS Sentinel unit serial number:	SN413079Multiplexer serial number:	ORYXHardware model number:	OX4-SRSoftware version number:	ORYX F/W v4.00 Oryx Data Collector v3.7.2.0data status	okinstallation	princeton_trtdifferential loss correction	single-endedforward channel	channel 3reverse channel	N/Adate	2019/09/13time	06:08:34forward acquisition time	60.00reverse acquisition time	0.00gamma	496.2192k internal	0.2338k external	0.2338temperature offset calibration	1.0137default loss term (dB/km)	0.3790temperature slope calibration	1.0000multiplexer offset coefficient	1.0000multiplexer slope coefficient	1.0000fibre end	0.00T internal ref (°C)	26.12T ext. ref 1 (°C)	4.09T ext. ref 2 (°C)	20.89length (m)	temperature (°C)	Stokes	anti-Stokes-747.200	-5.871	-0.357	0.245
-746.185	68.487	0.094	0.097
-745.171	800.000	-0.089	0.266
-744.156	215.741	-0.129	0.205
-743.142	-181.227	-0.181	-0.004
-742.127	125.854	0.200	0.253
-741.112	-200.000	-0.022	0.390
-740.098	-126.176	0.116	0.017
-739.083	485.796	0.045	-0.103
-738.069	800.000	0.025	0.072
-737.054	800.000	0.081	0.306
-736.039	-139.095	-0.309	0.033
-735.025	800.000	-0.104	0.336
-734.010	107.953	-0.131	-0.156
-732.996	291.258	-0.137	-0.250
-731.981	-192.497	0.391	0.004
-730.966	86.157	-0.182	-0.201
-729.952	58.846	0.100	0.099
-728.937	267.861	0.045	-0.080
-727.923	-200.000	0.032	-0.417
-726.908	268.651	-0.047	0.083
-725.894	322.228	0.038	0.072
-724.879	-200.000	0.006	0.095
-723.864	-64.355	0.193	0.079
-722.850	-200.000	-0.084	0.489
-721.835	239.253	0.152	-0.254
-720.821	800.000	-0.052	-0.179
-719.806	800.000	-0.059	-0.196
-718.791	-41.955	-0.259	-0.133
-717.777	163.190	-0.124	-0.174
-716.762	-200.000	0.048	0.267
-715.748	120.085	-0.212	0.263
-714.733	-200.000	0.036	-0.233
-713.718	-29.810	-0.148	0.085
-712.704	-105.652	0.313	-0.071
-711.689	-200.000	-0.004	-0.086
-710.675	37.591	-0.204	-0.181
-709.660	-109.551	-0.272	0.057
-708.645	-51.918	-0.248	0.116
-707.631	11.212	-0.084	-0.064
-706.616	-10.334	-0.139	-0.092
-705.602	-70.914	-0.140	-0.053
-704.587	382.517	-0.113	-0.233
-703.572	125.704	-0.090	0.113
-702.558	80.765	0.123	0.133
-701.543	800.000	-0.029	0.125
-700.529	1.781	-0.125	0.090
-699.514	46.674	0.068	-0.063
-698.499	-200.000	-0.040	-0.432
-697.485	-64.800	0.092	-0.037
-696.470	-101.311	-0.336	-0.082
-695.456	241.085	-0.122	-0.204
-694.441	-200.000	-0.024	-0.227
-693.426	395.907	0.199	-0.416
-692.412	62.702	-0.087	-0.087
-691.397	17.397	-0.204	-0.162
-690.383	61.317	0.064	-0.064
-689.368	204.105	-0.186	0.289
-688.354	-39.976	0.147	-0.077
-687.339	-32.411	-0.103	0.057
-686.324	-34.256	0.381	-0.209
-685.310	168.745	-0.075	-0.107
-684.295	-200.000	0.020	0.115
-683.281	-54.626	0.152	-0.069
-682.266	-97.627	-0.328	0.085
-681.251	-92.648	-0.218	-0.061
-680.237	76.048	0.195	0.207
-679.222	-83.958	0.156	-0.050
-678.208	-200.000	0.002	-0.051
-677.193	365.934	0.048	-0.096
-676.178	-97.167	-0.352	-0.092
-675.164	-200.000	-0.035	0.259
-674.149	-200.000	0.031	0.139
-673.135	800.000	-0.014	0.054
-672.120	57.351	-0.257	-0.251
-671.105	200.949	-0.209	-0.322
-670.091	187.433	-0.090	0.134
-669.076	800.000	-0.073	-0.221
-668.062	-125.005	-0.064	-0.010
-667.047	-40.248	0.098	-0.051
-666.032	-72.650	0.061	0.023
-665.018	530.171	-0.114	0.270
-664.003	30.201	0.139	0.119
-662.989	800.000	-0.071	-0.211
-661.974	145.442	0.292	-0.391
-660.959	-200.000	-0.010	-0.254
-659.945	735.883	-0.040	-0.106
-658.930	75.302	-0.094	-0.099
-657.916	31.862	0.053	0.046
-656.901	-25.080	-0.264	-0.157
-655.886	-200.000	0.005	0.058
-654.872	-42.025	0.259	-0.132
-653.857	249.248	0.074	0.125
-652.843	800.000	-0.112	0.375
-651.828	-200.000	-0.025	0.115
-650.814	15.012	0.054	0.042
-649.799	-107.916	-0.102	-0.022
-648.784	-77.513	-0.076	-0.026
-647.770	133.167	-0.212	-0.274
-646.755	-118.950	0.210	-0.037
-645.741	-19.226	-0.197	-0.122
-644.726	-10.789	0.130	-0.086
-643.711	-20.944	-0.241	-0.147
-642.697	-200.000	0.010	-0.090
-641.682	-51.529	0.206	0.096
-640.668	-168.615	0.099	-0.004
-639.653	-200.000	-0.010	-0.078
-638.638	-84.314	0.319	-0.101
-637.624	246.762	-0.136	-0.230
-636.609	-200.000	0.079	-0.407
-635.595	49.513	0.085	-0.080
-634.580	800.000	-0.080	0.286
-633.565	-77.088	0.166	-0.058
-632.551	8.163	-0.068	0.051
-631.536	-88.764	0.066	0.020
-630.522	-93.156	0.277	-0.077
-629.507	-8.541	0.068	-0.046
-628.492	309.839	-0.184	-0.344
-627.478	-200.000	-0.037	0.326
-626.463	251.438	0.064	0.108
-625.449	-137.368	-0.167	0.019
-624.434	19.693	-0.075	-0.060
-623.419	372.865	-0.066	-0.134
-622.405	45.797	-0.204	0.189
-621.390	450.033	0.071	-0.155
-620.376	-142.130	-0.345	0.034
-619.361	264.330	0.195	0.339
-618.346	-17.064	0.057	-0.036
-617.332	7.638	-0.035	-0.026
-616.317	-200.000	-0.015	-0.464
-615.303	679.678	-0.010	0.025
-614.288	555.908	-0.131	0.316
-613.273	800.000	0.044	0.123
-612.259	-98.558	-0.238	-0.061
-611.244	53.982	-0.200	0.192
-610.230	-70.794	0.285	-0.107
-609.215	-12.660	-0.386	0.251
-608.201	-72.135	-0.073	-0.027
-607.186	661.120	0.148	0.381
-606.171	-107.042	0.232	-0.051
-605.157	-200.000	-0.015	-0.287
-604.142	20.599	-0.029	0.024
-603.128	620.463	0.019	-0.049
-602.113	191.146	0.059	0.088
-601.098	-200.000	0.012	0.147
-600.084	451.381	0.119	-0.262
-599.069	141.248	-0.073	0.097
-598.055	-2.237	0.123	0.086
-597.040	-52.762	0.302	-0.139
-596.025	-200.000	-0.024	-0.110
-595.011	473.356	0.056	0.125
-593.996	49.845	0.077	-0.073
-592.982	-70.878	-0.367	0.138
-591.967	-73.147	-0.100	0.037
-590.952	719.377	0.017	-0.046
-589.938	290.192	-0.149	0.270
-588.923	-70.759	-0.224	0.084
-587.909	-200.000	0.052	0.456
-586.894	-200.000	0.025	0.146
-585.879	-72.261	-0.199	0.074
-584.865	-22.656	0.033	-0.020
-583.850	-80.915	-0.260	0.086
-582.836	132.845	0.197	0.253
-581.821	-61.515	0.132	-0.055
-580.806	-167.825	-0.407	0.016
-579.792	-160.585	0.178	0.009
-578.777	-200.000	-0.014	-0.154
-577.763	-190.099	0.223	0.002
-576.748	-200.000	-0.022	0.366
-575.733	-200.000	-0.004	-0.080
-574.719	800.000	0.038	-0.146
-573.704	-200.000	0.018	0.215
-572.690	-200.000	0.061	0.274
-571.675	-14.063	-0.261	0.168
-570.661	-84.566	0.303	-0.095
-569.646	391.191	0.031	-0.065
-568.631	219.158	0.144	-0.229
-567.617	-20.275	0.077	0.047
-566.602	480.961	-0.051	-0.116
-565.588	800.000	-0.115	-0.343
-564.573	-131.744	0.422	0.055
-563.558	-200.000	-0.022	-0.233
-562.544	800.000	-0.090	-0.266
-561.529	-112.680	-0.286	-0.057
-560.515	399.064	0.138	0.287
-559.500	295.412	0.046	0.084
-558.485	-14.470	0.087	0.056
-557.471	165.887	-0.142	-0.201
-556.456	623.252	0.097	-0.244
-555.442	79.256	0.031	0.033
-554.427	800.000	-0.007	-0.022
-553.412	-151.578	-0.377	-0.028
-552.398	-28.993	-0.132	-0.076
-551.383	-83.702	0.324	0.103
-550.369	800.000	0.033	0.103
-549.354	32.208	-0.340	0.292
-548.339	53.449	-0.378	-0.360
-547.325	67.516	-0.061	-0.062
-546.310	-68.503	-0.163	-0.063
-545.296	375.503	-0.056	-0.114
-544.281	32.666	-0.022	0.019
-543.266	174.821	0.141	0.203
-542.252	130.827	0.197	-0.252
-541.237	-200.000	0.049	0.341
-540.223	11.153	-0.142	0.108
-539.208	-114.064	0.227	-0.044
-538.193	-23.969	-0.103	-0.061
-537.179	-130.879	0.197	-0.026
-536.164	-130.192	-0.056	0.008
-535.150	-200.000	0.017	0.167
-534.135	-12.029	-0.233	0.152
-533.121	-70.811	0.254	0.095
-532.106	118.095	-0.158	0.194
-531.091	-200.000	0.009	-0.294
-530.077	-200.000	0.002	0.049
-529.062	800.000	-0.087	-0.282
-528.048	800.000	-0.005	0.014
-527.033	-108.219	0.127	0.027
-526.018	10.217	-0.076	0.058
-525.004	-122.375	0.295	-0.048
-523.989	-200.000	-0.019	-0.155
-522.975	-147.397	-0.342	-0.029
-521.960	-58.903	-0.214	0.092
-520.945	-200.000	-0.053	-0.283
-519.931	-200.000	-0.012	-0.115
-518.916	-105.276	0.158	-0.036
-517.902	-200.000	-0.075	0.384
-516.887	93.923	-0.203	-0.229
-515.872	-200.000	-0.009	-0.441
-514.858	-200.000	0.007	-0.124
-513.843	-75.019	0.050	0.018
-512.829	-2.156	-0.200	-0.140
-511.814	-114.301	-0.335	0.064
-510.799	-141.004	0.161	-0.016
-509.785	800.000	-0.094	-0.330
-508.770	34.133	0.102	-0.089
-507.756	342.304	-0.076	0.148
-506.741	-200.000	0.001	0.242
-505.726	-124.808	-0.644	0.099
-504.712	-51.456	-0.279	-0.130
-503.697	-200.000	-0.026	-0.178
-502.683	-200.000	0.001	0.090
-501.668	-200.000	0.003	0.242
-500.653	88.991	-0.109	-0.120
-499.639	141.403	0.157	-0.206
-498.624	248.470	-0.024	0.040
-497.610	51.533	-0.050	0.047
-496.595	265.675	-0.187	0.324
-495.581	-200.000	0.005	0.033
-494.566	618.218	0.050	-0.125
-493.551	-57.554	0.167	-0.073
-492.537	276.108	-0.300	-0.530
-491.522	-200.000	0.053	-0.316
-490.508	7.832	-0.143	0.107
-489.493	800.000	0.060	0.217
-488.478	-81.057	0.282	0.093
-487.464	-149.929	0.217	0.017
-486.449	676.284	-0.059	0.151
-485.435	203.006	0.113	-0.174
-484.420	-81.835	0.258	0.084
-483.405	-136.699	-0.064	-0.007
-482.391	-30.312	0.029	-0.017
-481.376	-200.000	-0.037	-0.253
-480.362	334.605	-0.215	-0.414
-479.347	773.547	-0.132	-0.357
-478.332	-74.016	0.127	-0.046
-477.318	-200.000	0.064	-0.281
-476.303	800.000	0.037	0.111
-475.289	-77.088	0.059	-0.020
-474.274	-200.000	-0.023	0.176
-473.259	70.352	0.226	0.232
-472.245	11.774	-0.148	-0.113
-471.230	103.686	0.117	0.136
-470.216	29.182	-0.076	0.064
-469.201	-200.000	-0.039	-0.216
-468.186	-91.040	0.238	0.068
-467.172	16.131	-0.055	-0.043
-466.157	208.077	-0.121	0.188
-465.143	418.871	0.107	-0.227
-464.128	5.804	-0.095	0.070
-463.113	-139.478	-0.206	-0.022
-462.099	-8.942	-0.245	0.163
-461.084	100.235	0.172	0.198
-460.070	-200.000	0.092	-0.665
-459.055	-110.087	-0.263	-0.054
-458.040	800.000	0.106	0.304
-457.026	774.534	0.093	0.253
-456.011	-200.000	0.003	-0.054
-454.997	297.998	0.141	-0.256
-453.982	-200.000	0.048	0.232
-452.968	359.209	0.144	-0.285
-451.953	-85.727	-0.533	-0.164
-450.938	-200.000	-0.020	0.287
-449.924	-54.025	0.093	-0.042
-448.909	-138.814	-0.233	0.025
-447.895	162.912	-0.117	0.163
-446.880	347.157	0.111	-0.217
-445.865	800.000	0.060	-0.230
-444.851	67.154	0.032	0.032
-443.836	-200.000	-0.006	0.082
-442.822	260.603	-0.124	-0.212
-441.807	223.928	-0.038	-0.061
-440.792	-40.315	-0.157	0.081
-439.778	-194.442	0.330	0.003
-438.763	800.000	0.071	-0.268
-437.749	-97.734	-0.230	0.059
-436.734	54.051	-0.223	-0.212
-435.719	-1.342	-0.351	0.246
-434.705	-3.755	0.037	0.026
-433.690	47.263	0.183	-0.169
-432.676	-71.656	-0.126	-0.046
-431.661	-166.328	-0.143	-0.006
-430.646	-149.115	0.123	0.010
-429.632	-108.952	0.145	-0.031
-428.617	565.240	-0.107	-0.258
-427.603	-150.978	-0.152	0.011
-426.588	-23.414	0.176	-0.105
-425.573	286.784	0.100	-0.180
-424.559	-116.139	0.494	0.091
-423.544	92.332	0.204	-0.228
-422.530	441.463	0.090	-0.194
-421.515	-200.000	-0.079	-0.358
-420.500	-200.000	0.019	-0.089
-419.486	127.715	-0.237	-0.298
-418.471	-200.000	0.018	0.198
-417.457	-90.554	0.228	-0.065
-416.442	230.199	0.154	0.250
-415.428	-108.730	-0.133	0.028
-414.413	800.000	0.010	-0.036
-413.398	36.577	-0.345	-0.301
-412.384	-138.420	0.208	-0.023
-411.369	42.324	0.077	-0.070
-410.355	396.341	-0.133	0.275
-409.340	199.476	-0.193	0.292
-408.325	-200.000	0.006	0.263
-407.311	66.191	0.408	0.410
-406.296	158.681	0.088	-0.121
-405.282	57.274	0.259	-0.251
-404.267	-200.000	-0.012	-0.055
-403.252	-36.483	0.136	-0.072
-402.238	800.000	-0.100	-0.296
-401.223	481.045	-0.158	-0.355
-400.209	172.959	-0.158	0.226
-399.194	800.000	-0.021	-0.083
-398.179	-13.210	0.284	-0.183
-397.165	800.000	0.060	0.170
-396.150	10.547	0.236	0.178
-395.136	22.494	-0.082	0.067
-394.121	-200.000	0.041	0.269
-393.106	-26.472	0.053	-0.031
-392.092	-8.403	0.268	-0.178
-391.077	234.906	-0.136	0.222
-390.063	-200.000	-0.015	0.118
-389.048	25.978	-0.082	-0.067
-388.033	-200.000	0.023	0.186
-387.019	-111.796	0.228	-0.046
-386.004	57.154	-0.137	-0.132
-384.990	203.468	-0.146	0.223
-383.975	-12.610	0.298	0.192
-382.960	104.101	0.099	0.115
-381.946	92.015	0.185	-0.206
-380.931	78.035	-0.170	0.180
-379.917	-80.135	0.120	-0.040
-378.902	253.327	0.088	-0.148
-377.888	185.839	-0.055	0.080
-376.873	-76.136	-0.142	-0.050
-375.858	-43.422	0.208	0.104
-374.844	68.258	-0.140	0.142
-373.829	251.245	-0.243	0.408
-372.815	452.973	0.041	-0.089
-371.800	134.042	0.130	0.167
-370.785	-200.000	0.045	-0.236
-369.771	-121.172	-0.084	-0.014
-368.756	216.295	0.043	-0.067
-367.742	-200.000	-0.103	-0.460
-366.727	207.711	0.127	0.196
-365.712	68.975	-0.135	0.137
-364.698	-200.000	0.004	-0.233
-363.683	573.936	0.070	0.170
-362.669	800.000	-0.038	0.123
-361.654	741.507	0.080	0.213
-360.639	120.912	0.106	0.131
-359.625	-150.060	-0.308	0.024
-358.610	-106.483	0.289	0.064
-357.596	106.775	-0.339	0.398
-356.581	155.316	-0.268	0.365
-355.566	800.000	-0.111	-0.376
-354.552	800.000	-0.008	0.028
-353.537	529.606	-0.074	-0.173
-352.523	-200.000	0.002	-0.070
-351.508	800.000	-0.052	0.152
-350.493	123.255	0.073	-0.091
-349.479	-25.957	-0.212	-0.123
-348.464	34.946	0.218	0.188
-347.450	-147.080	-0.459	0.039
-346.435	206.332	0.277	-0.426
-345.420	-67.192	0.252	-0.098
-344.406	31.426	0.118	0.100
-343.391	431.267	-0.167	0.356
-342.377	80.418	0.160	0.170
-341.362	101.516	0.054	-0.062
-340.348	-50.372	0.338	0.158
-339.333	58.151	0.170	-0.164
-338.318	-200.000	0.033	-0.256
-337.304	-18.266	0.227	-0.140
-336.289	-11.264	0.048	0.031
-335.275	-61.704	-0.266	0.110
-334.260	-132.448	-0.194	0.025
-333.245	800.000	-0.076	-0.256
-332.231	413.148	-0.127	0.266
-331.216	411.408	-0.193	-0.405
-330.202	497.213	0.119	-0.271
-329.187	-200.000	-0.086	0.491
-328.172	800.000	-0.095	0.296
-327.158	38.867	-0.166	-0.146
-326.143	-59.340	0.003	0.001
-325.129	-151.335	-0.121	-0.009
-324.114	-200.000	0.005	-0.079
-323.099	-200.000	0.074	-0.355
-322.085	418.564	0.110	-0.231
-321.070	-158.915	0.171	0.010
-320.056	-11.300	-0.141	0.092
-319.041	102.066	0.279	0.322
-318.026	800.000	0.043	0.149
-317.012	33.530	-0.126	-0.108
-315.997	71.194	-0.078	0.080
-314.983	81.381	0.038	-0.040
-313.968	-103.492	0.374	0.087
-312.953	800.000	0.082	0.227
-311.939	240.713	0.171	0.282
-310.924	-200.000	0.048	-0.357
-309.910	800.000	-0.116	-0.342
-308.895	-200.000	0.054	-0.240
-307.880	-169.109	-0.236	-0.009
-306.866	335.682	0.197	0.377
-305.851	-130.044	0.083	0.011
-304.837	-55.759	-0.041	-0.018
-303.822	185.482	0.077	0.113
-302.807	-162.296	-0.298	0.015
-301.793	20.927	0.296	-0.237
-300.778	238.876	0.052	0.085
-299.764	800.000	0.037	-0.134
-298.749	62.397	0.140	0.138
-297.735	-200.000	0.005	0.101
-296.720	-200.000	-0.024	-0.308
-295.705	107.897	0.161	0.189
-294.691	-200.000	-0.021	-0.138
-293.676	-56.622	0.126	-0.055
-292.662	-63.926	0.166	0.067
-291.647	152.873	0.223	0.300
-290.632	-200.000	-0.006	-0.189
-289.618	-17.771	-0.305	0.189
-288.603	95.492	0.139	0.157
-287.589	-139.848	0.282	0.029
-286.574	208.634	0.157	-0.243
-285.559	179.795	0.093	0.135
-284.545	-126.570	0.126	0.018
-283.530	373.792	0.085	0.170
-282.516	452.915	0.097	0.212
-281.501	82.886	-0.049	-0.053
-280.486	156.097	0.202	0.275
-279.472	-200.000	-0.022	0.216
-278.457	-118.265	-0.298	0.052
-277.443	-120.220	-0.134	0.022
-276.428	-200.000	0.040	-0.536
-275.413	-200.000	-0.004	0.246
-274.399	-200.000	0.071	0.372
-273.384	81.524	-0.171	0.182
-272.370	-200.000	0.000	0.326
-271.355	-200.000	0.024	0.107
-270.340	-174.669	-0.298	-0.008
-269.326	-74.407	0.150	0.053
-268.311	-67.079	0.046	0.018
-267.297	-125.206	-0.314	0.047
-266.282	12.363	-0.170	-0.129
-265.267	124.687	-0.176	-0.219
-264.253	10.549	0.305	0.229
-263.238	-42.509	-0.384	-0.193
-262.224	-66.330	0.246	-0.096
-261.209	-138.398	0.266	-0.029
-260.195	32.650	0.167	-0.142
-259.180	245.950	0.101	-0.167
-258.165	17.888	-0.236	0.185
-257.151	129.951	-0.087	0.110
-256.136	130.317	0.145	0.183
-255.122	82.382	0.236	0.252
-254.107	-125.449	-0.406	0.061
-253.092	-83.395	-0.356	0.112
-252.078	270.380	-0.068	0.118
-251.063	-7.237	0.016	0.011
-250.049	471.654	0.066	-0.146
-249.034	-95.909	0.046	0.012
-248.019	-154.698	-0.075	-0.005
-247.005	-200.000	0.001	-0.262
-245.990	-66.563	0.092	0.036
-244.976	-149.187	-0.205	0.016
-243.961	-200.000	-0.029	0.190
-242.946	-13.803	0.040	0.026
-241.932	800.000	-0.093	0.263
-240.917	214.370	-0.033	-0.052
-239.903	150.197	0.202	-0.269
-238.888	288.606	-0.184	0.327
-237.873	-154.023	0.348	0.023
-236.859	-39.292	0.182	0.094
-235.844	-96.579	-0.382	0.099
-234.830	-200.000	0.010	-0.187
-233.815	320.366	0.145	0.270
-232.800	105.709	0.161	0.188
-231.786	-92.099	-0.191	0.053
-230.771	-200.000	0.013	-0.231
-229.757	119.846	0.186	-0.226
-228.742	53.089	0.180	-0.169
-227.727	-35.403	-0.276	-0.148
-226.713	110.860	-0.112	-0.133
-225.698	-82.626	0.124	0.039
-224.684	58.012	0.171	-0.165
-223.669	-87.825	-0.165	0.049
-222.655	-200.000	0.018	-0.161
-221.640	-200.000	-0.045	-0.207
-220.625	-173.578	0.223	-0.007
-219.611	17.597	0.250	0.195
-218.596	138.136	0.086	0.111
-217.582	72.683	0.173	-0.178
-216.567	-151.618	0.322	0.023
-215.552	-97.597	0.259	0.066
-214.538	-43.912	0.255	-0.126
-213.523	800.000	-0.166	-0.490
-212.509	-29.121	-0.380	0.214
-211.494	679.549	-0.084	0.214
-210.479	150.377	0.106	0.142
-209.465	38.093	0.298	0.260
-208.450	-200.000	0.001	-0.042
-207.436	-68.037	-0.282	0.108
-206.421	800.000	0.063	0.172
-205.406	-200.000	-0.004	-0.052
-204.392	-126.747	0.122	0.018
-203.377	-38.232	-0.245	0.128
-202.363	800.000	0.022	0.068
-201.348	45.950	0.299	0.271
-200.333	-93.263	-0.293	-0.080
-199.319	42.148	0.182	0.162
-198.304	-200.000	0.005	-0.153
-197.290	337.986	-0.145	0.276
-196.275	-105.836	-0.384	0.085
-195.260	-126.687	-0.225	-0.033
-194.246	55.332	0.172	-0.163
-193.231	8.700	0.156	-0.116
-192.217	-131.771	-0.326	0.042
-191.202	-200.000	0.011	-0.105
-190.187	-68.452	-0.228	0.087
-189.173	-2.537	0.209	-0.144
-188.158	-22.624	-0.074	0.044
-187.144	-148.379	0.110	0.009
-186.129	-4.084	-0.194	0.132
-185.114	-200.000	-0.026	-0.230
-184.100	347.725	0.021	-0.041
-183.085	-79.136	-0.120	0.040
-182.071	218.190	0.100	0.156
-181.056	-200.000	-0.013	-0.074
-180.042	-59.688	0.234	-0.099
-179.027	-38.440	0.078	-0.040
-178.012	35.570	0.335	0.289
-176.998	-111.768	0.113	-0.022
-175.983	-200.000	-0.003	-0.126
-174.969	-132.663	0.090	-0.011
-173.954	-108.490	-0.229	-0.048
-172.939	-63.555	0.265	-0.107
-171.925	-33.120	-0.142	-0.077
-170.910	441.292	-0.155	0.332
-169.896	-133.672	0.119	0.015
-168.881	-200.000	0.022	0.162
-167.866	-200.000	-0.009	-0.119
-166.852	33.840	0.118	-0.100
-165.837	186.846	0.147	-0.214
-164.823	24.472	-0.258	-0.209
-163.808	800.000	-0.095	0.258
-162.793	40.053	0.205	-0.181
-161.779	167.890	-0.214	0.298
-160.764	710.202	-0.102	0.263
-159.750	19.871	-0.077	0.061
-158.735	-132.499	0.204	0.026
-157.720	800.000	0.076	-0.272
-156.706	-59.686	0.124	-0.052
-155.691	-12.857	-0.168	-0.107
-154.677	800.000	0.050	0.180
-153.662	-165.419	-0.068	0.003
-152.647	-54.824	-0.128	-0.057
-151.633	800.000	-0.083	0.224
-150.618	-146.700	-0.278	-0.024
-149.604	293.452	-0.165	0.295
-148.589	43.815	-0.057	-0.051
-147.574	-72.754	-0.101	0.036
-146.560	33.105	0.087	0.074
-145.545	800.000	-0.047	0.177
-144.531	94.653	-0.161	0.180
-143.516	-154.335	-0.085	0.006
-142.502	-156.016	-0.196	-0.012
-141.487	-200.000	-0.038	-0.195
-140.472	-87.212	0.102	-0.030
-139.458	-128.128	0.105	-0.015
-138.443	64.156	0.081	0.080
-137.429	676.812	0.049	0.124
-136.414	-81.043	-0.381	-0.124
-135.399	800.000	0.038	-0.155
-134.385	543.869	-0.096	-0.226
-133.370	204.519	-0.172	0.262
-132.356	-200.000	0.019	0.160
-131.341	-200.000	0.007	0.062
-130.326	-118.038	0.411	-0.072
-129.312	-45.051	-0.211	0.103
-128.297	65.297	0.072	0.072
-127.283	104.728	0.154	-0.178
-126.268	0.817	-0.182	-0.128
-125.253	602.930	0.096	-0.233
-124.239	-14.263	-0.156	-0.099
-123.224	-200.000	0.184	-0.001
-122.210	-94.456	-0.169	0.045
-121.195	-75.963	-0.487	-0.169
-120.180	-138.386	-0.350	0.038
-119.166	237.375	0.080	-0.131
-118.151	-83.684	-0.104	-0.033
-117.137	-96.930	0.115	-0.030
-116.122	-138.134	0.038	0.004
-115.107	-200.000	0.036	-0.166
-114.093	-85.500	-0.189	0.058
-113.078	-122.403	0.194	0.031
-112.064	-118.516	0.260	0.045
-111.049	-154.401	-0.199	-0.013
-110.034	237.022	0.092	-0.149
-109.020	-116.775	0.272	0.049
-108.005	81.603	0.126	-0.133
-106.991	289.538	-0.072	0.128
-105.976	382.541	0.012	0.023
-104.962	-36.414	0.153	0.081
-103.947	84.246	0.136	-0.146
-102.932	87.657	-0.103	0.112
-101.918	24.030	0.233	0.188
-100.903	-200.000	0.002	0.116
-99.889	179.128	0.111	0.159
-98.874	155.212	0.247	0.333
-97.859	265.591	-0.141	0.240
-96.845	-76.913	0.061	0.021
-95.830	-200.000	0.029	0.204
-94.816	-200.000	-0.009	0.135
-93.801	95.554	0.022	-0.024
-92.786	-117.581	0.208	0.037
-91.772	695.398	-0.078	0.200
-90.757	-122.933	0.085	-0.013
-89.743	-92.902	0.189	0.052
-88.728	-200.000	-0.061	-0.304
-87.713	-78.137	0.129	0.043
-86.699	525.195	0.254	0.585
-85.684	-200.000	-0.004	-0.074
-84.670	-200.000	-0.003	0.318
-83.655	-81.298	-0.220	0.071
-82.640	-62.326	0.274	0.111
-81.626	-147.273	0.097	-0.008
-80.611	-200.000	-0.148	0.000
-79.597	-53.615	-0.231	-0.103
-78.582	273.253	-0.093	0.160
-77.567	741.650	-0.084	-0.221
-76.553	-200.000	-0.003	-0.466
-75.538	36.260	0.247	0.212
-74.524	800.000	0.048	-0.169
-73.509	116.305	0.177	0.212
-72.494	-200.000	-0.047	-0.222
-71.480	-81.405	0.113	0.036
-70.465	-108.127	-0.155	-0.033
-69.451	34.499	0.285	0.243
-68.436	-17.325	0.200	0.123
-67.422	-106.949	-0.209	0.045
-66.407	77.258	-0.134	0.140
-65.392	332.076	0.123	-0.231
-64.378	-75.322	0.188	-0.066
-63.363	21.170	0.184	-0.146
-62.349	-93.764	-0.216	-0.058
-61.334	147.119	-0.892	-1.172
-60.319	67.281	0.388	0.387
-59.305	522.280	-0.404	-0.928
-58.290	221.065	0.653	1.024
-57.276	519.529	0.670	1.533
-56.261	-200.000	117.454	643.433
-55.246	486.106	1552.535	3455.668
-54.232	174.453	2720.130	3840.916
-53.217	102.698	2174.920	2485.149
-52.203	36.578	1690.570	1457.203
-51.188	29.351	1506.118	1249.413
-50.173	27.070	1481.723	1213.906
-49.159	49.052	1542.792	1414.753
-48.144	47.900	1557.462	1420.279
-47.130	29.368	1512.565	1254.675
-46.115	26.402	1496.893	1221.624
-45.100	26.123	1493.761	1217.139
-44.086	26.098	1491.854	1215.372
-43.071	26.115	1489.956	1213.892
-42.057	26.068	1488.388	1212.251
-41.042	26.061	1487.122	1211.120
-40.027	26.094	1485.458	1209.937
-39.013	26.046	1483.980	1208.366
-37.998	25.993	1483.252	1207.369
-36.984	26.147	1481.759	1207.140
-35.969	26.073	1480.999	1205.977
-34.954	26.072	1479.132	1204.399
-33.940	26.044	1477.629	1202.940
-32.925	26.190	1475.742	1202.330
-31.911	26.065	1475.007	1200.856
-30.896	26.185	1473.616	1200.474
-29.881	26.297	1472.069	1199.905
-28.867	26.198	1470.615	1198.018
-27.852	26.188	1469.549	1197.037
-26.838	26.156	1468.299	1195.756
-25.823	26.214	1466.626	1194.729
-24.809	26.184	1465.169	1193.301
-23.794	26.227	1463.883	1192.485
-22.779	26.089	1462.849	1190.686
-21.765	26.136	1462.312	1190.512
-20.750	26.098	1461.161	1189.276
-19.736	26.256	1459.640	1189.035
-18.721	26.162	1458.253	1187.236
-17.706	26.194	1457.302	1186.630
-16.692	26.182	1456.059	1185.488
-15.677	26.093	1455.357	1184.288
-14.663	26.089	1454.145	1183.228
-13.648	26.133	1453.073	1182.594
-12.633	26.137	1452.562	1182.161
-11.619	26.118	1451.597	1181.203
-10.604	26.095	1451.011	1180.528
-9.590	26.014	1449.755	1178.933
-8.575	26.021	1449.411	1178.647
-7.560	26.181	1448.112	1178.588
-6.546	26.129	1446.681	1177.038
-5.531	26.084	1446.287	1176.379
-4.517	26.118	1445.015	1175.522
-3.502	26.120	1444.438	1175.018
-2.487	26.160	1443.215	1174.236
-1.473	26.149	1441.985	1173.119
-0.458	26.151	1441.082	1172.351
0.556	27.802	1431.173	1160.778
1.571	24.656	1406.919	1121.305
2.586	21.295	1348.782	1054.626
3.600	19.641	1267.480	981.575
4.615	18.400	1222.937	940.188
5.629	16.362	1167.076	886.481
6.644	10.028	1085.997	793.799
7.659	5.099	1049.351	743.503
8.673	4.351	1044.173	736.220
9.688	4.012	1041.018	732.329
10.702	3.899	1039.257	730.489
11.717	4.080	1037.659	730.154
12.731	6.356	1039.002	741.768
13.746	13.277	1048.973	781.643
14.761	19.813	1056.835	818.465
15.775	22.215	1059.330	831.700
16.790	21.865	1058.027	828.951
17.804	20.965	1055.975	823.023
18.819	20.140	1054.265	817.728
19.834	19.772	1053.218	815.107
20.848	19.679	1052.341	813.921
21.863	19.718	1052.144	813.877
22.877	19.608	1051.127	812.503
23.892	19.338	1050.589	810.747
24.907	19.253	1049.948	809.778
25.921	19.150	1049.027	808.516
26.936	19.241	1048.044	808.111
27.950	19.170	1046.876	806.805
28.965	19.128	1045.924	805.807
29.980	19.343	1044.576	805.699
30.994	19.474	1044.016	805.811
32.009	19.621	1042.789	805.475
33.023	19.583	1042.435	804.953
34.038	19.684	1041.466	804.604
35.053	19.501	1040.680	803.074
36.067	19.323	1039.546	801.301
37.082	19.376	1038.457	800.637
38.096	19.320	1037.888	799.869
39.111	19.489	1037.290	800.120
40.126	19.503	1036.434	799.454
41.140	19.368	1034.890	797.568
42.155	19.167	1033.378	795.403
43.169	18.846	1032.662	793.302
44.184	18.762	1031.498	791.950
45.199	18.782	1030.275	791.034
46.213	18.690	1029.475	789.923
47.228	18.845	1028.771	790.027
48.242	19.148	1027.935	790.705
49.257	19.336	1027.197	790.930
50.271	19.324	1026.122	789.981
51.286	19.326	1025.599	789.513
52.301	19.451	1024.922	789.499
53.315	19.408	1024.158	788.642
54.330	19.352	1023.402	787.735
55.344	19.202	1022.280	786.116
56.359	18.986	1021.114	784.164
57.374	19.140	1020.354	784.215
58.388	18.989	1019.329	782.670
59.403	18.853	1018.745	781.533
60.417	18.839	1017.579	780.508
61.432	18.919	1016.981	780.344
62.447	18.822	1016.405	779.393
63.461	18.830	1015.743	778.850
64.476	18.575	1014.739	776.854
65.490	18.666	1013.517	776.265
66.505	18.609	1012.488	775.150
67.520	18.762	1012.167	775.527
68.534	18.756	1011.801	775.150
69.549	18.752	1010.335	773.941
70.563	18.671	1009.763	773.069
71.578	18.480	1009.330	771.811
72.593	18.625	1007.724	771.165
73.607	18.324	1007.091	769.260
74.622	18.352	1006.198	768.634
75.636	18.394	1005.393	768.140
76.651	18.556	1004.559	768.161
77.666	18.388	1004.157	767.032
78.680	18.573	1003.322	767.154
79.695	18.548	1002.900	766.652
80.709	18.525	1002.114	765.883
81.724	18.792	1001.376	766.440
82.739	18.858	1000.730	766.176
83.753	18.915	1000.098	765.877
84.768	19.100	999.616	766.262
85.782	19.484	999.188	767.574
86.797	19.721	999.099	768.491
87.812	19.779	997.708	767.612
88.826	19.536	996.685	765.679
89.841	19.428	995.784	764.443
90.855	19.650	994.934	764.703
91.870	19.696	994.586	764.573
92.884	19.658	993.852	763.772
93.899	19.615	993.286	763.079
94.914	19.664	992.129	762.341
95.928	19.599	991.801	761.732
96.943	19.726	991.214	761.772
97.957	19.709	989.577	760.376
98.972	19.486	988.911	758.814
99.987	19.587	987.959	758.460
101.001	19.611	987.343	758.025
102.016	19.500	986.873	757.113
103.030	19.480	985.729	756.080
104.045	19.628	984.554	755.759
105.060	19.667	984.054	755.479
106.074	19.553	982.867	754.004
107.089	19.191	982.022	751.709
108.103	18.961	980.573	749.529
109.118	18.857	979.586	748.258
110.133	18.815	978.965	747.532
111.147	18.705	977.920	746.193
112.162	18.647	977.214	745.334
113.176	18.759	976.301	745.058
114.191	18.900	975.615	745.082
115.206	18.933	974.747	744.493
116.220	18.863	974.296	743.781
117.235	18.813	973.633	742.993
118.249	18.728	972.553	741.734
119.264	18.839	971.576	741.404
120.279	18.689	970.669	739.998
121.293	18.583	969.818	738.828
122.308	18.753	968.809	738.727
123.322	18.509	968.174	737.126
124.337	18.352	967.137	735.600
125.352	18.268	966.035	734.336
126.366	18.467	964.839	734.211
127.381	18.474	963.528	733.181
128.395	18.444	963.022	732.601
129.410	18.511	962.063	732.093
130.424	18.432	961.874	731.547
131.439	18.522	960.860	731.095
132.454	18.799	959.724	731.348
133.468	18.975	958.993	731.475
134.483	18.917	958.642	730.894
135.497	18.855	958.110	730.161
136.512	18.795	957.983	729.744
137.527	18.943	956.570	729.232
138.541	18.952	955.857	728.663
139.556	19.088	954.678	728.273
140.570	19.016	954.316	727.628
141.585	19.165	953.579	727.634
142.600	19.363	952.980	727.947
143.614	19.496	952.200	727.847
144.629	19.601	951.398	727.611
145.643	19.640	951.234	727.588
146.658	19.437	950.852	726.376
147.673	19.400	949.071	724.797
148.687	19.279	947.843	723.287
149.702	19.104	947.486	722.213
150.716	19.003	946.383	720.888
151.731	19.212	945.164	720.770
152.746	19.028	945.172	719.941
153.760	19.047	944.311	719.301
154.775	19.084	943.780	718.989
155.789	19.232	942.763	718.766
156.804	19.278	942.560	718.741
157.819	19.260	941.311	717.648
158.833	19.205	941.155	717.239
159.848	19.444	940.538	717.698
160.862	19.670	939.832	718.034
161.877	19.646	938.789	717.078
162.892	19.290	937.689	714.694
163.906	18.958	936.904	712.658
164.921	18.952	935.605	711.582
165.935	18.983	934.587	710.874
166.950	19.068	933.825	710.583
167.964	19.162	932.926	710.225
168.979	19.262	931.915	709.803
169.994	19.037	930.672	707.870
171.008	19.183	929.776	707.725
172.023	19.065	929.170	706.715
173.037	19.137	929.067	706.870
174.052	19.514	928.563	707.970
175.067	19.348	927.698	706.568
176.081	19.221	926.524	705.089
177.096	18.910	925.347	702.862
178.110	18.855	924.317	701.794
179.125	18.914	924.118	701.823
180.140	18.992	923.245	701.416
181.154	18.969	923.008	701.079
182.169	19.213	922.477	701.608
183.183	19.333	922.050	701.709
184.198	19.474	921.523	701.820
185.213	19.446	920.706	701.022
186.227	19.487	920.129	700.686
187.242	19.568	919.628	700.571
188.256	19.742	918.672	700.486
189.271	19.715	918.397	700.104
190.286	19.824	917.336	699.674
191.300	19.591	916.350	697.918
192.315	18.957	915.320	694.514
193.329	18.795	914.476	693.158
194.344	18.934	913.638	693.022
195.359	19.007	913.450	693.113
196.373	19.116	913.031	693.173
197.388	19.272	912.646	693.446
198.402	19.474	912.609	694.167
199.417	19.671	912.034	694.462
200.432	19.935	911.528	695.073
201.446	19.939	911.071	694.682
202.461	20.220	910.598	695.386
203.475	20.131	910.629	694.993
204.490	20.082	910.046	694.287
205.504	19.791	908.848	692.150
206.519	19.639	907.397	690.376
207.534	19.524	906.765	689.373
208.548	19.568	906.091	688.974
209.563	19.560	905.546	688.467
210.577	19.608	904.862	688.077
211.592	19.639	904.132	687.585
212.607	19.842	904.109	688.315
213.621	19.963	903.849	688.537
214.636	19.930	902.776	687.528
215.650	19.793	902.036	686.359
216.665	19.827	901.738	686.209
217.680	19.744	901.255	685.451
218.694	19.972	900.686	685.860
219.709	20.122	900.212	686.032
220.723	20.160	899.579	685.639
221.738	19.940	899.033	684.291
222.753	19.910	897.936	683.280
223.767	19.963	897.087	682.783
224.782	20.035	896.238	682.360
225.796	20.143	895.887	682.458
226.811	20.300	895.374	682.623
227.826	20.194	894.368	681.380
228.840	20.121	893.457	680.338
229.855	19.964	892.974	679.293
230.869	19.949	892.064	678.482
231.884	20.019	891.575	678.325
232.899	19.712	890.716	676.411
233.913	19.671	889.986	675.635
234.928	19.713	889.282	675.207
235.942	19.651	888.360	674.203
236.957	19.510	888.115	673.410
237.972	19.401	887.206	672.235
238.986	19.606	886.552	672.480
240.001	19.541	886.078	671.805
241.015	19.610	885.656	671.693
242.030	19.602	885.018	671.121
243.045	19.804	884.304	671.306
244.059	19.875	883.862	671.184
245.074	19.938	882.858	670.608
246.088	19.965	882.701	670.533
247.103	20.072	882.060	670.401
248.117	20.167	881.930	670.609
249.132	20.301	881.617	670.832
250.147	20.527	881.459	671.525
251.161	20.875	880.299	671.925
252.176	21.026	879.909	672.150
253.190	21.010	879.455	671.679
254.205	21.012	879.030	671.303
255.220	21.069	878.592	671.130
256.234	21.050	877.719	670.329
257.249	20.881	877.405	669.383
258.263	20.938	876.517	668.863
259.278	20.846	875.695	667.826
260.293	20.824	875.445	667.492
261.307	21.007	874.681	667.549
262.322	21.008	874.316	667.218
263.336	21.013	873.851	666.822
264.351	21.026	873.569	666.596
265.366	21.123	872.868	666.372
266.380	21.134	872.011	665.703
267.395	21.116	871.534	665.209
268.409	20.960	870.494	663.763
269.424	20.804	869.910	662.668
270.439	20.758	868.928	661.684
271.453	20.905	868.387	661.771
272.468	20.698	867.675	660.385
273.482	20.605	867.171	659.592
274.497	20.669	866.459	659.234
275.512	20.668	865.532	658.468
276.526	20.745	865.002	658.297
277.541	20.691	864.041	657.303
278.555	20.759	863.717	657.256
279.570	20.931	863.460	657.652
280.585	21.134	862.970	657.986
281.599	21.251	862.483	657.994
282.614	20.987	861.832	656.447
283.628	20.779	861.185	655.115
284.643	20.761	860.521	654.482
285.657	20.821	859.934	654.204
286.672	20.860	859.334	653.836
287.687	20.919	859.010	653.753
288.701	20.844	858.261	652.845
289.716	20.922	857.585	652.564
290.730	20.728	857.421	651.656
291.745	20.789	856.808	651.358
292.760	21.068	855.814	651.589
293.774	20.920	855.663	650.862
294.789	21.229	854.885	651.367
295.803	21.332	854.465	651.372
296.818	20.932	853.791	649.310
297.833	20.764	853.351	648.294
298.847	20.979	852.325	648.256
299.862	20.943	851.506	647.441
300.876	21.034	851.094	647.411
301.891	21.028	850.585	646.942
302.906	21.283	850.229	647.562
303.920	21.501	849.547	647.792
304.935	21.521	849.148	647.503
305.949	21.737	848.644	647.861
306.964	21.522	848.045	646.553
307.979	21.343	847.090	645.106
308.993	21.297	846.812	644.666
310.008	21.346	846.308	644.407
311.022	21.447	845.774	644.315
312.037	21.498	845.078	643.917
313.052	21.337	844.326	642.693
314.066	21.054	843.767	641.171
315.081	20.789	843.154	639.677
316.095	20.806	842.414	639.118
317.110	21.025	841.868	639.452
318.125	20.939	841.293	638.644
319.139	20.921	840.795	638.142
320.154	21.027	840.456	638.218
321.168	20.815	839.874	636.944
322.183	20.997	839.192	637.034
323.197	20.972	839.181	636.877
324.212	21.096	838.443	636.714
325.227	21.140	837.686	636.243
326.241	21.189	837.014	635.855
327.256	21.143	836.598	635.316
328.270	21.058	836.003	634.498
329.285	21.019	835.469	633.897
330.300	20.882	835.035	633.013
331.314	20.951	834.431	632.750
332.329	21.047	833.904	632.641
333.343	21.199	833.294	632.675
334.358	21.481	832.789	633.255
335.373	21.334	832.469	632.425
336.387	21.550	832.007	632.799
337.402	21.422	831.314	631.754
338.416	21.516	830.832	631.669
339.431	21.631	830.685	631.919
340.446	21.772	830.123	631.942
341.460	21.886	829.780	632.037
342.475	21.932	829.150	631.668
343.489	22.110	828.597	631.830
344.504	22.163	828.357	631.780
345.519	22.234	827.655	631.444
346.533	22.142	827.436	630.892
347.548	22.249	826.818	630.748
348.562	21.992	825.879	629.054
349.577	21.466	825.462	626.799
350.592	21.382	824.820	625.954
351.606	21.420	824.168	625.541
352.621	21.387	823.428	624.804
353.635	21.547	822.823	624.861
354.650	21.530	822.674	624.631
355.665	21.570	822.337	624.464
356.679	21.667	821.954	624.463
357.694	21.673	821.970	624.442
358.708	21.867	820.667	624.087
359.723	21.542	820.568	622.801
360.738	21.747	819.985	623.032
361.752	21.748	819.307	622.463
362.767	21.792	819.106	622.414
363.781	22.003	818.679	622.782
364.796	22.132	818.457	623.017
365.810	22.292	817.780	623.014
366.825	22.420	817.589	623.263
367.840	22.419	817.607	623.220
368.854	22.461	817.032	622.875
369.869	22.331	815.974	621.555
370.883	22.127	815.777	620.629
371.898	22.012	815.390	619.874
372.913	22.424	814.349	620.478
373.927	22.290	813.650	619.419
374.942	22.295	812.901	618.812
375.956	22.219	812.639	618.290
376.971	22.201	812.288	617.907
377.986	22.491	811.493	618.264
379.000	22.649	811.105	618.468
380.015	22.578	811.332	618.338
381.029	22.594	810.347	617.587
382.044	22.573	809.500	616.813
383.059	22.509	809.082	616.218
384.073	22.559	808.648	616.007
385.088	22.437	807.869	614.933
386.102	22.144	807.558	613.619
387.117	22.127	806.626	612.796
388.132	22.088	805.748	611.939
389.146	21.895	805.901	611.330
390.161	22.124	805.364	611.664
391.175	22.475	804.960	612.527
392.190	22.489	804.898	612.474
393.205	22.433	804.065	611.592
394.219	22.140	803.597	610.162
395.234	22.165	802.958	609.712
396.248	22.197	802.211	609.201
397.263	22.088	802.003	608.612
398.278	21.812	801.161	606.962
399.292	21.825	800.880	606.742
400.307	21.803	800.257	606.138
401.321	22.062	799.727	606.578
402.336	22.065	799.143	606.093
403.350	22.025	799.305	606.026
404.365	22.160	798.922	606.146
405.380	22.457	798.801	607.024
406.394	22.628	798.446	607.288
407.409	22.698	797.988	607.130
408.423	22.730	797.488	606.805
409.438	22.910	796.768	606.822
410.453	22.812	796.728	606.400
411.467	23.073	796.072	606.744
412.482	22.922	795.762	605.936
413.496	23.028	795.417	605.984
414.511	23.030	795.440	605.954
415.526	22.991	794.874	605.334
416.540	22.952	794.447	604.824
417.555	22.941	793.676	604.144
418.569	22.932	793.176	603.679
419.584	22.872	792.911	603.218
420.599	22.868	792.110	602.544
421.613	165.374	1370.146	1796.850
422.628	143.458	1454.375	1796.930
