DTS Sentinel unit serial number:	SN413079Multiplexer serial number:	ORYXHardware model number:	OX4-SRSoftware version number:	ORYX F/W v4.00 Oryx Data Collector v3.7.2.0data status	okinstallation	princeton_trtdifferential loss correction	single-endedforward channel	channel 3reverse channel	N/Adate	2019/09/11time	11:34:10forward acquisition time	60.00reverse acquisition time	0.00gamma	496.2192k internal	0.2294k external	0.2294temperature offset calibration	0.9937default loss term (dB/km)	0.3790temperature slope calibration	1.0000multiplexer offset coefficient	1.0000multiplexer slope coefficient	1.0000fibre end	0.00T internal ref (°C)	38.20T ext. ref 1 (°C)	0.19T ext. ref 2 (°C)	35.93length (m)	temperature (°C)	Stokes	anti-Stokes-747.200	-124.853	-0.250	0.039
-746.185	800.000	-0.070	0.232
-745.171	-78.093	0.141	0.050
-744.156	-48.414	0.077	0.038
-743.142	-79.596	0.241	-0.083
-742.127	-200.000	0.028	0.353
-741.112	-6.556	0.223	-0.155
-740.098	87.925	0.161	0.182
-739.083	50.737	0.163	-0.158
-738.069	-200.000	0.004	-0.058
-737.054	-159.817	0.331	0.019
-736.039	-169.695	-0.053	0.002
-735.025	343.548	0.039	0.078
-734.010	22.541	-0.322	-0.269
-732.996	125.107	0.140	-0.180
-731.981	-193.946	-0.151	-0.001
-730.966	16.870	0.169	-0.137
-729.952	331.102	0.149	-0.294
-728.937	-175.005	-0.163	-0.005
-727.923	-146.503	-0.541	-0.048
-726.908	-91.441	0.103	-0.030
-725.894	-151.697	-0.117	0.009
-724.879	333.859	-0.085	-0.169
-723.864	-200.000	-0.033	-0.257
-722.850	347.827	-0.074	-0.150
-721.835	800.000	-0.121	0.367
-720.821	3.911	-0.172	-0.128
-719.806	-45.446	-0.063	-0.032
-718.791	-127.894	-0.192	-0.028
-717.777	-76.215	-0.084	0.030
-716.762	-200.000	0.024	0.309
-715.748	-171.499	0.304	-0.010
-714.733	-37.792	-0.207	0.112
-713.718	140.601	0.088	-0.118
-712.704	13.670	-0.075	0.060
-711.689	800.000	0.024	-0.069
-710.675	-200.000	-0.033	-0.349
-709.660	-16.133	-0.236	-0.153
-708.645	-33.450	0.284	0.161
-707.631	-3.105	-0.141	0.100
-706.616	-68.790	0.212	-0.084
-705.602	364.696	-0.158	-0.324
-704.587	117.592	0.158	-0.198
-703.572	-200.000	-0.000	-0.022
-702.558	239.272	-0.116	0.196
-701.543	-73.222	-0.245	0.092
-700.529	56.150	0.052	-0.051
-699.514	23.417	-0.264	0.221
-698.499	25.742	0.129	0.109
-697.485	135.211	0.191	-0.254
-696.470	244.499	0.078	-0.133
-695.456	-91.617	-0.098	-0.029
-694.441	800.000	0.038	-0.142
-693.426	133.201	0.110	-0.145
-692.412	-33.635	0.261	0.147
-691.397	84.115	0.277	0.309
-690.383	315.507	-0.067	-0.130
-689.368	-151.398	-0.253	0.019
-688.354	800.000	-0.087	0.273
-687.339	-36.865	-0.287	0.157
-686.324	293.997	-0.218	-0.407
-685.310	302.457	0.067	-0.127
-684.295	-103.420	-0.177	-0.042
-683.281	98.380	-0.168	-0.197
-682.266	-9.527	-0.048	-0.033
-681.251	-200.000	0.020	0.127
-680.237	-200.000	-0.031	0.283
-679.222	800.000	-0.083	0.275
-678.208	-172.633	-0.247	-0.008
-677.193	35.940	0.255	0.229
-676.178	800.000	-0.038	-0.146
-675.164	-53.186	-0.316	0.148
-674.149	114.995	0.125	0.156
-673.135	-105.433	-0.086	-0.020
-672.120	-53.478	0.163	0.076
-671.105	246.825	0.034	0.058
-670.091	-136.479	-0.283	0.033
-669.076	-117.638	0.087	0.016
-668.062	-81.590	0.246	-0.082
-667.047	25.547	0.055	-0.047
-666.032	-200.000	-0.009	-0.278
-665.018	-97.761	-0.521	-0.138
-664.003	688.630	0.049	0.131
-662.989	-158.512	0.339	-0.020
-661.974	118.010	0.087	0.109
-660.959	-54.879	-0.386	-0.177
-659.945	-52.359	0.337	0.159
-658.930	270.471	-0.121	0.216
-657.916	-200.000	-0.017	0.115
-656.901	-50.638	0.135	-0.065
-655.886	800.000	-0.012	-0.046
-654.872	521.110	-0.070	0.167
-653.857	295.756	0.173	0.322
-652.843	-200.000	0.025	-0.234
-651.828	-133.523	-0.063	0.008
-650.814	472.389	0.025	-0.058
-649.799	389.663	-0.067	0.141
-648.784	-59.123	0.026	-0.011
-647.770	68.347	0.206	0.215
-646.755	59.597	0.182	0.183
-645.741	91.790	-0.134	-0.153
-644.726	-200.000	-0.002	-0.140
-643.711	100.859	-0.101	0.120
-642.697	-56.461	-0.322	0.146
-641.682	800.000	0.035	-0.106
-640.668	718.679	0.031	-0.085
-639.653	57.367	-0.056	0.056
-638.638	-9.198	0.197	-0.134
-637.624	-38.774	-0.177	-0.095
-636.609	-177.741	0.273	0.007
-635.595	-163.870	0.226	0.011
-634.580	404.314	-0.144	0.308
-633.565	800.000	0.059	-0.181
-632.551	236.516	-0.014	-0.023
-631.536	-25.781	-0.236	0.141
-630.522	599.438	-0.037	-0.095
-629.507	-50.208	-0.240	-0.116
-628.492	-114.557	-0.089	0.017
-627.478	-200.000	0.015	0.179
-626.463	300.418	0.107	0.201
-625.449	-117.807	-0.109	-0.020
-624.434	-200.000	-0.061	-0.276
-623.419	77.293	0.200	0.216
-622.405	45.068	-0.301	-0.282
-621.390	-34.307	0.301	0.168
-620.376	-102.917	-0.047	0.011
-619.361	-14.176	-0.296	-0.194
-618.346	800.000	-0.052	0.152
-617.332	-96.847	0.205	0.055
-616.317	20.183	-0.031	-0.025
-615.303	-200.000	-0.022	-0.375
-614.288	-105.628	0.277	0.064
-613.273	284.898	-0.173	0.318
-612.259	-30.956	-0.123	-0.071
-611.244	-16.093	0.089	0.058
-610.230	800.000	-0.056	-0.159
-609.215	-100.925	-0.218	-0.054
-608.201	-200.000	0.018	0.336
-607.186	70.085	-0.157	0.164
-606.171	305.381	-0.057	-0.107
-605.157	16.144	0.120	0.096
-604.142	306.959	-0.055	-0.104
-603.128	89.357	0.312	-0.354
-602.113	-66.682	-0.219	-0.088
-601.098	-200.000	-0.046	0.305
-600.084	-101.366	0.290	-0.072
-599.069	800.000	-0.057	0.161
-598.055	-200.000	-0.058	0.337
-597.040	464.458	-0.035	0.079
-596.025	-95.786	0.154	-0.042
-595.011	150.070	0.125	-0.173
-593.996	-7.497	-0.298	-0.205
-592.982	-200.000	-0.051	0.279
-591.967	594.729	0.022	0.056
-590.952	-200.000	-0.060	-0.291
-589.938	-80.542	-0.300	0.101
-588.923	1.171	-0.156	-0.113
-587.909	529.449	0.119	-0.286
-586.894	-62.978	0.107	0.045
-585.879	448.634	0.158	0.353
-584.865	-59.772	-0.014	0.006
-583.850	-200.000	0.004	-0.093
-582.836	800.000	-0.070	0.243
-581.821	800.000	-0.047	0.179
-580.806	-140.232	0.329	-0.035
-579.792	800.000	0.054	0.226
-578.777	-200.000	-0.016	0.376
-577.763	-200.000	0.029	-0.165
-576.748	800.000	0.066	-0.240
-575.733	-42.684	0.263	0.136
-574.719	160.411	0.034	0.048
-573.704	92.161	0.413	-0.473
-572.690	-100.783	-0.145	-0.036
-571.675	67.778	-0.242	-0.252
-570.661	-40.451	-0.252	-0.133
-569.646	125.185	0.051	0.065
-568.631	61.961	0.301	0.305
-567.617	-21.754	0.113	-0.070
-566.602	19.840	0.139	-0.113
-565.588	148.581	-0.020	0.028
-564.573	-69.535	0.208	-0.081
-563.558	139.588	0.027	-0.036
-562.544	174.851	0.082	-0.121
-561.529	800.000	0.086	-0.246
-560.515	800.000	-0.026	0.102
-559.500	-23.511	0.114	0.069
-558.485	-97.985	0.352	0.092
-557.471	70.911	-0.114	-0.120
-556.456	-200.000	-0.010	-0.314
-555.442	-76.238	-0.193	-0.069
-554.427	-111.835	-0.040	-0.008
-553.412	-39.058	-0.054	-0.029
-552.398	800.000	0.066	-0.224
-551.383	-70.946	0.266	-0.102
-550.369	-92.091	-0.084	0.024
-549.354	-105.879	0.213	0.049
-548.339	208.989	-0.181	-0.288
-547.325	132.250	0.060	0.078
-546.310	-200.000	-0.278	-0.001
-545.296	-25.820	-0.088	0.053
-544.281	-134.519	0.080	0.010
-543.266	182.541	-0.132	-0.197
-542.252	15.715	0.219	0.175
-541.237	-77.232	-0.087	0.031
-540.223	800.000	-0.037	-0.145
-539.208	213.848	-0.291	0.468
-538.193	299.389	0.064	0.120
-537.179	-135.522	0.215	0.026
-536.164	-109.510	-0.071	-0.015
-535.150	184.628	-0.088	0.132
-534.135	52.011	-0.156	-0.150
-533.121	-91.168	-0.224	-0.065
-532.106	800.000	-0.056	-0.167
-531.091	-4.044	-0.165	-0.116
-530.077	-61.861	-0.293	0.124
-529.062	365.544	0.166	0.340
-528.048	214.654	0.018	-0.029
-527.033	-200.000	-0.023	-0.385
-526.018	-98.653	-0.243	-0.063
-525.004	-51.864	0.163	0.077
-523.989	-200.000	-0.055	-0.305
-522.975	800.000	0.018	-0.075
-521.960	-200.000	-0.006	0.116
-520.945	-73.717	-0.146	0.054
-519.931	342.278	-0.091	-0.180
-518.916	800.000	-0.069	-0.210
-517.902	-11.375	-0.255	0.170
-516.887	-200.000	-0.023	-0.125
-515.872	74.930	0.062	0.066
-514.858	89.348	-0.066	0.074
-513.843	237.840	-0.021	0.036
-512.829	-200.000	-0.011	0.168
-511.814	194.018	0.043	-0.067
-510.799	129.472	-0.273	0.353
-509.785	-123.369	-0.068	0.011
-508.770	800.000	-0.118	0.348
-507.756	1.799	0.126	0.092
-506.741	55.945	-0.228	-0.224
-505.726	-81.368	0.292	-0.098
-504.712	51.246	0.100	0.097
-503.697	4.448	0.179	0.133
-502.683	-69.493	0.154	0.060
-501.668	9.886	0.190	0.146
-500.653	-200.000	0.000	-0.118
-499.639	219.378	0.095	0.153
-498.624	-66.014	-0.459	0.186
-497.610	159.852	0.105	-0.149
-496.595	16.943	-0.246	0.197
-495.581	80.313	0.122	0.133
-494.566	800.000	-0.068	-0.209
-493.551	-25.895	0.137	-0.082
-492.537	800.000	-0.090	0.253
-491.522	-200.000	-0.053	0.317
-490.508	-67.223	0.156	0.062
-489.493	109.665	0.039	0.047
-488.478	-9.702	-0.274	0.185
-487.464	-147.764	0.080	0.007
-486.449	-159.778	0.450	0.025
-485.435	665.653	-0.082	-0.214
-484.420	-200.000	-0.027	-0.198
-483.405	-80.522	-0.183	-0.062
-482.391	-46.726	-0.037	0.018
-481.376	-116.086	0.320	0.060
-480.362	-58.393	0.064	0.028
-479.347	-102.134	-0.241	0.059
-478.332	181.586	0.120	0.178
-477.318	221.281	-0.084	0.136
-476.303	324.754	0.094	-0.182
-475.289	-103.209	-0.083	-0.020
-474.274	65.145	0.061	-0.063
-473.259	-70.638	0.343	-0.131
-472.245	-23.708	-0.158	-0.096
-471.230	561.978	0.003	0.008
-470.216	117.005	0.057	0.071
-469.201	327.382	-0.032	0.061
-468.186	-200.000	0.002	0.019
-467.172	-65.033	-0.178	-0.073
-466.157	800.000	-0.044	0.148
-465.143	800.000	-0.091	-0.259
-464.128	-200.000	-0.015	-0.084
-463.113	-110.305	0.172	0.036
-462.099	800.000	0.063	-0.239
-461.084	800.000	0.101	0.295
-460.070	800.000	-0.080	-0.315
-459.055	256.859	0.045	0.078
-458.040	800.000	0.055	-0.242
-457.026	407.397	-0.094	-0.201
-456.011	-63.814	0.468	-0.194
-454.997	385.966	-0.117	-0.245
-453.982	10.182	0.052	0.040
-452.968	176.764	0.099	-0.146
-451.953	-180.977	0.185	0.004
-450.938	-113.224	-0.106	0.021
-449.924	-64.592	0.210	0.086
-448.909	-124.317	-0.053	0.008
-447.895	-141.018	-0.078	-0.008
-446.880	117.546	-0.061	-0.076
-445.865	800.000	-0.045	-0.167
-444.851	-21.762	-0.373	-0.229
-443.836	223.238	0.072	0.117
-442.822	-143.372	0.174	0.017
-441.807	30.864	-0.091	0.079
-440.792	413.665	-0.071	-0.153
-439.778	290.561	-0.060	-0.110
-438.763	-200.000	0.021	-0.181
-437.749	460.304	0.185	0.416
-436.734	-200.000	-0.022	-0.207
-435.719	79.047	0.178	-0.192
-434.705	-193.146	-0.072	-0.001
-433.690	800.000	-0.109	0.437
-432.676	-200.000	-0.013	0.196
-431.661	-12.168	0.133	0.088
-430.646	-49.246	-0.228	0.110
-429.632	366.994	-0.084	-0.171
-428.617	271.977	-0.068	0.122
-427.603	-18.164	0.360	0.228
-426.588	-118.202	-0.077	-0.014
-425.573	227.106	0.126	0.207
-424.559	-200.000	0.021	0.126
-423.544	-149.313	-0.135	0.011
-422.530	51.336	0.145	-0.139
-421.515	-69.318	-0.130	0.050
-420.500	800.000	-0.060	0.224
-419.486	-70.825	-0.067	0.025
-418.471	-142.638	0.278	-0.027
-417.457	800.000	0.111	0.321
-416.442	548.800	0.133	-0.322
-415.428	-20.492	-0.176	-0.109
-414.413	-21.045	0.077	-0.048
-413.398	-105.217	-0.358	-0.083
-412.384	-66.838	-0.206	0.082
-411.369	-200.000	-0.007	-0.040
-410.355	-78.447	0.082	-0.028
-409.340	800.000	-0.013	0.055
-408.325	-99.019	0.301	0.077
-407.311	-67.971	-0.136	0.054
-406.296	52.807	0.034	-0.033
-405.282	-109.537	-0.129	-0.027
-404.267	63.304	0.066	0.067
-403.252	-89.287	0.191	0.057
-402.238	331.875	-0.191	0.372
-401.223	-53.824	-0.247	-0.114
-400.209	-113.687	-0.330	-0.065
-399.194	105.146	0.052	0.062
-398.179	683.512	-0.065	0.171
-397.165	-142.518	-0.061	-0.006
-396.150	-200.000	0.009	-0.145
-395.136	-65.846	-0.132	0.053
-394.121	-200.000	-0.005	0.060
-393.106	119.486	0.083	0.103
-392.092	8.653	-0.208	-0.158
-391.077	176.377	-0.143	-0.209
-390.063	-110.498	0.229	0.048
-389.048	-30.750	-0.090	-0.051
-388.033	-153.452	0.164	-0.011
-387.019	-200.000	0.011	0.384
-386.004	-128.046	-0.216	0.031
-384.990	476.131	0.093	-0.212
-383.975	-15.537	-0.181	0.116
-382.960	137.925	0.179	0.237
-381.946	62.379	0.113	0.114
-380.931	-21.255	-0.077	-0.047
-379.917	-143.206	0.386	-0.037
-378.902	25.052	0.123	0.103
-377.888	-83.254	0.299	-0.097
-376.873	800.000	-0.027	-0.094
-375.858	110.708	0.156	0.190
-374.844	-53.857	-0.041	-0.019
-373.829	266.433	0.037	-0.066
-372.815	-200.000	0.056	-0.358
-371.800	70.726	-0.277	0.289
-370.785	-48.450	0.225	0.109
-369.771	363.736	-0.047	0.095
-368.756	-152.573	-0.014	-0.001
-367.742	28.177	-0.046	0.039
-366.727	800.000	-0.085	-0.314
-365.712	-68.633	-0.129	-0.050
-364.698	-40.977	0.064	-0.033
-363.683	7.793	0.191	-0.144
-362.669	-98.197	-0.351	0.091
-361.654	-200.000	0.014	-0.133
-360.639	49.683	-0.082	-0.078
-359.625	-200.000	-0.045	0.663
-358.610	-62.584	0.184	0.077
-357.596	-200.000	-0.017	0.210
-356.581	13.106	-0.113	0.088
-355.566	-93.722	-0.156	-0.043
-354.552	78.954	0.145	-0.156
-353.537	702.039	0.062	-0.165
-352.523	-138.472	0.082	0.009
-351.508	-123.852	0.226	0.036
-350.493	-134.225	0.626	0.078
-349.479	-22.935	-0.210	0.127
-348.464	-200.000	0.242	-0.001
-347.450	379.077	-0.053	-0.108
-346.435	-117.736	-0.386	0.070
-345.420	-155.603	0.066	0.004
-344.406	-200.000	0.027	-0.246
-343.391	-58.668	-0.270	0.118
-342.377	-200.000	-0.089	-0.437
-341.362	-200.000	-0.012	-0.053
-340.348	669.710	-0.101	0.263
-339.333	-200.000	-0.028	0.135
-338.318	5.848	0.356	0.265
-337.304	-117.581	0.306	0.056
-336.289	-90.763	-0.327	0.095
-335.275	64.671	0.175	-0.178
-334.260	302.920	0.099	-0.184
-333.245	-49.340	-0.125	-0.060
-332.231	-120.773	0.015	-0.002
-331.216	-73.190	0.195	-0.072
-330.202	-94.362	-0.208	-0.057
-329.187	800.000	0.088	-0.354
-328.172	59.348	-0.111	0.110
-327.158	-101.916	0.236	0.057
-326.143	96.464	0.143	-0.165
-325.129	-100.472	0.116	-0.029
-324.114	41.634	0.119	0.108
-323.099	73.782	-0.220	0.232
-322.085	-156.375	-0.159	0.010
-321.070	61.797	-0.125	-0.126
-320.056	800.000	-0.030	-0.097
-319.041	-119.954	0.355	-0.061
-318.026	-26.111	0.224	-0.133
-317.012	800.000	-0.064	-0.201
-315.997	141.430	-0.200	0.267
-314.983	-22.391	-0.287	-0.175
-313.968	-113.534	-0.059	-0.012
-312.953	757.087	0.103	0.281
-311.939	-142.136	0.190	-0.019
-310.924	-138.594	0.201	-0.022
-309.910	549.886	-0.048	-0.116
-308.895	361.305	-0.096	-0.193
-307.880	41.846	0.449	0.409
-306.866	-109.172	-0.053	0.011
-305.851	293.119	0.073	0.135
-304.837	-187.739	0.139	-0.002
-303.822	800.000	-0.101	-0.329
-302.807	666.738	0.088	-0.228
-301.793	-36.224	-0.237	-0.129
-300.778	124.569	-0.316	-0.399
-299.764	-33.711	0.138	0.077
-298.749	115.844	-0.181	0.222
-297.735	-133.446	-0.142	0.018
-296.720	444.571	0.129	0.284
-295.705	300.108	0.058	-0.108
-294.691	-63.246	0.106	0.044
-293.676	692.967	-0.107	0.282
-292.662	2.161	0.138	-0.100
-291.647	146.976	0.172	0.232
-290.632	-50.607	0.160	0.076
-289.618	27.106	0.311	0.263
-288.603	-20.868	-0.213	0.131
-287.589	88.883	-0.025	-0.028
-286.574	-200.000	0.023	-0.114
-285.559	16.829	0.182	0.144
-284.545	92.797	-0.256	0.290
-283.530	-93.397	-0.196	0.055
-282.516	106.653	0.159	-0.190
-281.501	277.094	0.078	0.140
-280.486	800.000	0.064	0.214
-279.472	-200.000	0.011	-0.051
-278.457	68.953	0.266	-0.274
-277.443	-57.145	0.278	0.123
-276.428	366.647	0.034	0.069
-275.413	28.258	-0.126	0.107
-274.399	-14.263	-0.156	-0.101
-273.384	-60.358	0.024	0.010
-272.370	564.170	-0.043	0.104
-271.355	-200.000	-0.111	-0.518
-270.340	-77.750	0.174	-0.061
-269.326	800.000	0.037	-0.133
-268.311	-49.343	-0.165	0.079
-267.297	-200.000	0.020	-0.181
-266.282	-200.000	-0.017	0.088
-265.267	30.127	-0.159	-0.136
-264.253	52.815	-0.129	0.124
-263.238	207.291	-0.118	-0.185
-262.224	-43.662	0.147	0.074
-261.209	-6.630	0.167	0.114
-260.195	-200.000	0.000	0.100
-259.180	-107.385	0.308	0.068
-258.165	800.000	-0.016	-0.052
-257.151	-93.797	-0.298	0.082
-256.136	-95.105	0.219	-0.059
-255.122	180.703	0.076	-0.112
-254.107	-32.790	0.165	0.092
-253.092	335.271	0.026	-0.051
-252.078	-2.714	0.117	0.082
-251.063	441.160	0.017	-0.037
-250.049	605.714	0.128	-0.319
-249.034	-113.889	-0.364	0.071
-248.019	16.855	0.194	0.154
-247.005	258.094	-0.037	-0.064
-245.990	-63.241	-0.045	-0.019
-244.976	568.022	-0.196	-0.477
-243.961	-200.000	-0.013	0.216
-242.946	-115.042	-0.113	0.022
-241.932	776.511	-0.095	-0.261
-240.917	800.000	0.033	-0.130
-239.903	-3.917	0.239	-0.166
-238.888	-91.431	-0.136	-0.039
-237.873	326.756	-0.037	0.071
-236.859	305.394	0.066	-0.123
-235.844	85.711	-0.236	-0.260
-234.830	-171.432	-0.194	-0.006
-233.815	349.083	0.122	-0.241
-232.800	252.252	-0.146	-0.249
-231.786	-81.294	0.311	0.103
-230.771	800.000	0.054	0.196
-229.757	-118.526	0.149	-0.026
-228.742	-200.000	0.007	0.226
-227.727	312.409	0.083	-0.157
-226.713	-200.000	0.006	-0.101
-225.698	-37.949	-0.080	-0.042
-224.684	-200.000	0.010	0.085
-223.669	169.988	-0.226	-0.323
-222.655	-101.306	-0.252	0.062
-221.640	160.609	-0.202	0.282
-220.625	-78.274	-0.277	-0.095
-219.611	16.558	0.062	0.049
-218.596	-142.911	-0.155	-0.015
-217.582	-95.049	-0.227	-0.061
-216.567	-200.000	0.019	0.108
-215.552	-108.535	0.276	0.060
-214.538	-0.224	0.200	0.142
-213.523	-70.869	-0.182	-0.069
-212.509	195.223	0.102	-0.155
-211.494	71.783	0.191	0.199
-210.479	-58.529	0.277	-0.121
-209.465	-41.031	-0.279	-0.144
-208.450	24.710	0.261	-0.216
-207.436	15.417	-0.081	-0.064
-206.421	-80.526	0.368	0.123
-205.406	-4.956	-0.072	-0.050
-204.392	267.190	0.195	0.342
-203.377	736.143	-0.120	0.323
-202.363	800.000	-0.092	0.317
-201.348	-124.331	0.072	-0.011
-200.333	-148.340	-0.381	0.031
-199.319	-167.588	-0.118	0.005
-198.304	-157.409	-0.200	0.012
-197.290	-200.000	-0.072	-0.396
-196.275	800.000	0.021	0.075
-195.260	-80.271	-0.212	-0.071
-194.246	-111.136	0.054	0.011
-193.231	-41.932	0.109	0.056
-192.217	-200.000	0.019	-0.452
-191.202	-159.339	0.305	-0.017
-190.187	-200.000	0.017	0.083
-189.173	-154.614	0.413	0.028
-188.158	96.146	-0.088	0.101
-187.144	93.681	-0.046	-0.052
-186.129	117.549	-0.230	0.283
-185.114	800.000	0.019	0.053
-184.100	-200.000	0.039	-0.283
-183.085	-200.000	-0.029	0.185
-182.071	-94.100	0.232	-0.064
-181.056	-138.051	0.058	-0.006
-180.042	51.547	0.220	0.210
-179.027	-117.460	-0.251	-0.045
-178.012	352.992	0.065	-0.128
-176.998	-178.529	-0.363	0.008
-175.983	-117.682	-0.154	0.028
-174.969	87.778	0.152	-0.168
-173.954	-80.374	-0.142	0.048
-172.939	14.328	-0.192	0.150
-171.925	-200.000	0.021	0.272
-170.910	17.048	0.284	0.225
-169.896	-22.550	-0.228	0.138
-168.881	-101.275	-0.458	0.112
-167.866	-136.561	0.190	0.022
-166.852	-132.700	0.212	-0.027
-165.837	-62.117	0.401	-0.168
-164.823	88.389	-0.271	-0.301
-163.808	622.683	-0.177	-0.445
-162.793	161.780	-0.176	-0.247
-161.779	28.155	-0.256	0.216
-160.764	115.936	-0.153	0.187
-159.750	-200.000	0.012	-0.290
-158.735	433.887	-0.093	0.202
-157.720	364.070	-0.096	0.193
-156.706	-60.786	-0.281	0.119
-155.691	-164.088	0.492	-0.023
-154.677	168.858	-0.064	0.091
-153.662	-200.000	-0.048	-0.349
-152.647	685.550	0.038	-0.099
-151.633	-39.726	-0.058	-0.030
-150.618	-134.265	-0.364	0.045
-149.604	8.868	0.126	0.095
-148.589	624.221	-0.071	0.179
-147.574	-200.000	0.005	0.047
-146.560	800.000	-0.086	-0.312
-145.545	-46.566	-0.136	-0.067
-144.531	-125.278	-0.098	-0.015
-143.516	-82.698	0.085	-0.028
-142.502	-56.061	0.339	-0.151
-141.487	-154.198	-0.177	-0.012
-140.472	50.893	0.058	-0.055
-139.458	-200.000	-0.022	0.298
-138.443	-76.754	0.191	0.067
-137.429	-22.773	0.281	-0.170
-136.414	119.567	0.205	0.254
-135.399	-200.000	-0.029	0.130
-134.385	59.761	-0.097	-0.095
-133.370	-200.000	-0.013	0.116
-132.356	34.807	-0.184	-0.161
-131.341	469.707	0.105	-0.235
-130.326	3.184	0.084	-0.061
-129.312	-200.000	0.015	0.193
-128.297	-200.000	0.037	0.164
-127.283	800.000	-0.005	-0.014
-126.268	-103.535	-0.102	-0.024
-125.253	-139.191	-0.297	-0.032
-124.239	157.397	0.179	0.247
-123.224	-200.000	0.022	0.230
-122.210	133.990	0.211	0.273
-121.195	-87.480	-0.209	0.063
-120.180	-200.000	-0.055	0.374
-119.166	0.001	0.277	0.197
-118.151	154.907	0.111	-0.152
-117.137	-200.000	0.000	-0.208
-116.122	-46.844	0.209	-0.102
-115.107	800.000	-0.049	-0.150
-114.093	-13.510	0.180	0.117
-113.078	495.692	0.127	0.292
-112.064	60.293	-0.105	0.103
-111.049	-25.454	-0.230	0.136
-110.034	-68.491	0.033	0.013
-109.020	-21.146	-0.067	-0.041
-108.005	-200.000	0.045	0.204
-106.991	-10.075	0.085	0.057
-105.976	273.078	0.161	-0.283
-104.962	-98.255	0.076	-0.020
-103.947	-33.810	0.416	0.229
-102.932	800.000	-0.051	-0.151
-101.918	-178.760	-0.134	0.003
-100.903	1.602	0.034	0.025
-99.889	45.075	-0.245	0.225
-98.874	800.000	0.033	-0.109
-97.859	800.000	0.048	-0.194
-96.845	0.493	0.281	0.200
-95.830	330.321	0.240	-0.461
-94.816	-106.228	0.271	-0.061
-93.801	-49.529	0.323	0.154
-92.786	-122.499	-0.211	-0.034
-91.772	218.983	0.077	-0.123
-90.757	-71.422	-0.161	-0.060
-89.743	-141.366	0.358	-0.036
-88.728	4.619	0.083	0.061
-87.713	-50.300	0.306	-0.144
-86.699	125.784	0.051	-0.064
-85.684	86.609	-0.147	0.162
-84.670	-36.764	0.224	0.120
-83.655	13.158	0.247	-0.191
-82.640	334.704	-0.096	-0.185
-81.626	87.519	-0.023	0.025
-80.611	-16.286	0.114	0.072
-79.597	800.000	-0.110	-0.419
-78.582	-13.887	-0.351	0.226
-77.567	77.269	0.257	0.273
-76.553	220.035	-0.129	0.205
-75.538	-200.000	0.038	0.185
-74.524	-25.869	-0.043	0.025
-73.509	800.000	0.083	-0.328
-72.494	18.430	0.267	-0.212
-71.480	284.457	0.232	-0.416
-70.465	-200.000	-0.011	-0.064
-69.451	-70.689	-0.194	-0.073
-68.436	131.252	0.048	0.061
-67.422	-21.706	-0.125	-0.076
-66.407	-130.640	-0.290	0.039
-65.392	-200.000	-0.002	0.346
-64.378	-200.000	0.001	-0.244
-63.363	-88.996	0.212	-0.063
-62.349	400.366	0.227	0.474
-61.334	49.156	-0.847	-0.793
-60.319	86.630	0.363	0.398
-59.305	800.000	-0.282	-1.016
-58.290	229.691	0.493	0.802
-57.276	-200.000	0.411	1.795
-56.261	-200.000	82.043	500.415
-55.246	559.945	1374.622	3305.577
-54.232	181.061	2612.814	3822.738
-53.217	121.464	2273.173	2819.850
-52.203	48.286	1802.111	1678.916
-51.188	41.106	1607.947	1446.054
-50.173	38.787	1579.463	1403.802
-49.159	55.186	1619.160	1558.023
-48.144	59.532	1638.708	1608.216
-47.130	41.841	1601.541	1445.378
-46.115	38.551	1587.312	1408.856
-45.100	38.368	1583.628	1404.218
-44.086	38.290	1582.154	1402.292
-43.071	38.210	1579.684	1399.478
-42.057	38.117	1578.466	1397.675
-41.042	38.146	1577.037	1396.566
-40.027	38.169	1575.574	1395.378
-39.013	38.196	1574.041	1394.160
-37.998	38.117	1572.372	1392.057
-36.984	38.222	1571.314	1391.813
-35.969	38.214	1569.479	1390.076
-34.954	38.202	1568.303	1388.898
-33.940	38.168	1567.159	1387.585
-32.925	38.244	1565.273	1386.403
-31.911	38.206	1563.958	1384.913
-30.896	38.260	1562.625	1384.062
-29.881	38.334	1560.904	1383.005
-28.867	38.217	1560.168	1381.467
-27.852	38.273	1558.882	1380.672
-26.838	38.301	1557.247	1379.363
-25.823	38.285	1555.330	1377.498
-24.809	38.207	1554.191	1375.888
-23.794	38.384	1552.196	1375.311
-22.779	38.245	1551.643	1373.790
-21.765	38.310	1550.333	1373.034
-20.750	38.280	1549.043	1371.623
-19.736	38.266	1547.678	1370.261
-18.721	38.199	1546.624	1368.806
-17.706	38.226	1545.632	1368.065
-16.692	38.113	1544.195	1365.947
-15.677	38.171	1543.202	1365.417
-14.663	38.105	1542.370	1364.170
-13.648	38.121	1541.447	1363.407
-12.633	38.219	1540.310	1363.035
-11.619	38.117	1539.265	1361.342
-10.604	38.222	1538.211	1361.085
-9.590	38.246	1537.219	1360.321
-8.575	38.097	1536.431	1358.534
-7.560	38.099	1535.839	1357.970
-6.546	38.170	1534.826	1357.513
-5.531	38.112	1533.814	1356.167
-4.517	38.153	1532.700	1355.409
-3.502	38.108	1532.264	1354.659
-2.487	38.127	1530.829	1353.467
-1.473	38.100	1529.546	1352.094
-0.458	38.112	1528.003	1350.757
0.556	36.453	1519.180	1342.020
1.571	34.378	1491.404	1303.194
2.586	31.291	1427.306	1226.837
3.600	29.642	1341.643	1142.916
4.615	27.938	1292.226	1090.561
5.629	22.957	1230.858	1010.278
6.644	10.787	1135.853	867.601
7.659	1.656	1088.157	784.211
8.673	0.335	1082.192	773.070
9.688	0.103	1079.133	769.631
10.702	0.268	1077.037	768.913
11.717	0.035	1075.853	766.808
12.731	4.101	1080.840	791.091
13.746	15.189	1097.555	860.484
14.761	21.975	1106.596	902.513
15.775	22.412	1105.628	903.891
16.790	22.248	1104.887	902.363
17.804	22.046	1104.154	900.647
18.819	21.881	1103.415	899.116
19.834	21.902	1102.627	898.505
20.848	21.962	1102.420	898.562
21.863	21.966	1101.847	898.036
22.877	22.184	1101.111	898.473
23.892	22.193	1100.015	897.544
24.907	21.992	1099.569	896.074
25.921	22.017	1098.774	895.476
26.936	21.997	1098.106	894.752
27.950	22.038	1096.673	893.710
28.965	21.891	1095.563	891.979
29.980	21.943	1094.191	891.048
30.994	21.760	1092.472	888.641
32.009	21.986	1091.694	889.076
33.023	22.094	1091.081	889.043
34.038	21.934	1090.404	887.606
35.053	21.824	1089.406	886.159
36.067	22.021	1088.784	886.568
37.082	22.000	1088.178	885.890
38.096	22.153	1087.206	885.792
39.111	22.154	1086.361	885.028
40.126	22.233	1086.109	885.143
41.140	22.137	1084.550	883.313
42.155	21.992	1083.056	881.293
43.169	21.603	1082.098	878.484
44.184	21.664	1080.700	877.573
45.199	21.725	1079.734	877.016
46.213	21.668	1079.174	876.199
47.228	21.567	1078.138	874.774
48.242	21.734	1077.012	874.619
49.257	21.940	1075.999	874.744
50.271	21.874	1075.711	874.106
51.286	22.069	1074.753	874.221
52.301	22.054	1074.154	873.582
53.315	22.191	1073.256	873.456
54.330	22.104	1072.488	872.322
55.344	22.062	1071.587	871.304
56.359	22.010	1070.953	870.451
57.374	21.914	1070.220	869.304
58.388	21.937	1068.966	868.323
59.403	21.817	1067.922	866.803
60.417	21.764	1067.268	865.933
61.432	21.549	1066.771	864.395
62.447	21.528	1066.196	863.744
63.461	21.763	1065.338	864.132
64.476	21.784	1064.422	863.416
65.490	21.954	1063.146	863.144
66.505	21.625	1062.387	860.833
67.520	21.722	1061.534	860.541
68.534	21.844	1060.716	860.400
69.549	21.701	1059.978	859.025
70.563	21.347	1058.586	856.089
71.578	21.216	1058.153	855.022
72.593	21.434	1056.664	854.806
73.607	21.240	1055.593	852.920
74.622	21.280	1054.577	852.217
75.636	21.509	1054.302	853.037
76.651	21.627	1053.673	853.025
77.666	21.397	1053.005	851.291
78.680	21.389	1051.652	850.081
79.695	21.504	1051.044	850.073
80.709	21.612	1050.241	849.875
81.724	21.728	1049.432	849.706
82.739	21.616	1048.748	848.537
83.753	21.662	1047.946	848.033
84.768	21.846	1047.365	848.377
85.782	22.089	1047.087	849.252
86.797	22.230	1046.083	849.043
87.812	22.291	1045.168	848.522
88.826	22.039	1044.478	846.672
89.841	22.165	1043.005	846.011
90.855	22.334	1042.160	846.063
91.870	22.236	1041.970	845.360
92.884	22.191	1041.076	844.343
93.899	22.110	1039.894	842.921
94.914	22.001	1038.826	841.460
95.928	22.175	1038.164	841.685
96.943	22.141	1037.360	840.792
97.957	21.858	1035.757	838.066
98.972	21.685	1034.410	836.077
99.987	21.482	1033.084	833.966
101.001	21.536	1032.872	833.976
102.016	21.947	1032.076	835.215
103.030	21.958	1031.671	834.871
104.045	21.839	1030.689	833.436
105.060	21.921	1028.896	832.298
106.074	21.678	1028.032	830.374
107.089	21.613	1027.077	829.222
108.103	22.008	1026.795	830.794
109.118	22.217	1025.804	830.906
110.133	21.721	1025.032	827.862
111.147	21.691	1023.837	826.683
112.162	21.655	1022.421	825.298
113.176	21.479	1021.287	823.478
114.191	21.553	1020.815	823.375
115.206	21.625	1019.872	822.880
116.220	21.327	1018.856	820.586
117.235	21.091	1017.792	818.553
118.249	21.421	1016.826	819.249
119.264	21.394	1016.262	818.595
120.279	21.318	1015.257	817.357
121.293	21.359	1014.461	816.835
122.308	21.524	1013.489	816.749
123.322	21.448	1012.962	815.898
124.337	21.499	1011.789	815.119
125.352	21.384	1010.176	813.212
126.366	20.950	1008.750	809.979
127.381	20.489	1007.573	806.819
128.395	21.054	1007.435	809.260
129.410	21.714	1006.979	811.884
130.424	21.973	1005.540	811.849
131.439	21.925	1004.894	811.033
132.454	21.989	1003.942	810.490
133.468	21.994	1003.017	809.696
134.483	21.844	1002.392	808.425
135.497	21.755	1001.892	807.542
136.512	21.978	1001.474	808.160
137.527	22.117	1000.531	807.964
138.541	22.309	999.221	807.720
139.556	22.230	998.713	806.874
140.570	22.206	997.966	806.091
141.585	22.194	996.968	805.156
142.600	22.289	996.352	805.024
143.614	22.116	995.521	803.491
144.629	22.207	994.730	803.196
145.643	22.476	994.321	804.022
146.658	22.386	993.117	802.569
147.673	22.148	991.779	800.331
148.687	22.111	990.529	799.082
149.702	21.901	989.631	797.333
150.716	21.996	988.107	796.467
151.731	21.789	987.249	794.766
152.746	21.869	986.889	794.771
153.760	22.232	985.877	795.527
154.775	22.237	985.291	795.004
155.789	22.222	984.188	793.976
156.804	22.295	983.696	793.838
157.819	22.324	982.255	792.738
158.833	22.266	981.282	791.622
159.848	22.267	980.675	791.066
160.862	22.355	980.046	790.883
161.877	22.264	978.994	789.555
162.892	22.085	978.370	788.179
163.906	22.281	977.361	788.177
164.921	22.244	976.376	787.148
165.935	22.050	975.404	785.424
166.950	22.260	974.238	785.352
167.964	22.237	973.058	784.230
168.979	22.219	971.912	783.158
169.994	22.122	971.104	782.008
171.008	22.159	969.722	780.988
172.023	22.161	969.313	780.599
173.037	22.345	968.436	780.642
174.052	22.219	967.023	778.875
175.067	22.044	966.024	777.228
176.081	21.954	965.261	776.147
177.096	22.020	964.445	775.710
178.110	22.052	963.781	775.250
179.125	21.892	962.167	773.178
180.140	21.543	961.284	770.863
181.154	21.620	960.922	770.845
182.169	21.638	960.594	770.594
183.183	21.871	960.228	771.253
184.198	22.125	959.712	771.888
185.213	22.261	958.375	771.340
186.227	22.100	957.810	770.114
187.242	22.136	957.588	770.024
188.256	22.321	956.783	770.117
189.271	22.161	955.952	768.680
190.286	22.303	955.156	768.592
191.300	22.244	953.895	767.254
192.315	21.704	952.836	763.979
193.329	21.000	951.189	759.527
194.344	20.512	950.353	756.670
195.359	20.972	950.405	758.646
196.373	21.987	950.749	763.268
197.388	22.211	950.508	763.979
198.402	22.129	949.535	762.775
199.417	22.114	948.787	762.041
200.432	22.093	948.787	761.882
201.446	22.032	947.759	760.726
202.461	21.606	946.832	758.070
203.475	21.648	946.714	758.089
204.490	21.405	944.901	755.522
205.504	20.221	942.840	748.702
206.519	20.597	942.533	750.012
207.534	21.541	943.305	754.632
208.548	21.768	942.510	754.907
209.563	22.110	942.241	756.095
210.577	22.103	941.203	755.167
211.592	21.785	940.130	752.874
212.607	22.140	940.298	754.465
213.621	22.362	940.104	755.197
214.636	22.313	939.019	754.048
215.650	22.357	938.397	753.672
216.665	22.333	938.068	753.237
217.680	22.167	937.828	752.268
218.694	22.332	937.103	752.322
219.709	22.009	936.034	750.019
220.723	21.643	935.223	747.740
221.738	21.855	934.766	748.215
222.753	22.072	934.302	748.700
223.767	21.875	933.543	747.188
224.782	22.098	932.356	747.121
225.796	22.251	931.917	747.353
226.811	22.419	931.575	747.725
227.826	22.037	930.065	744.828
228.840	21.292	928.760	740.560
229.855	21.116	927.827	739.004
230.869	21.376	927.846	740.056
231.884	21.235	926.516	738.334
232.899	21.163	925.974	737.531
233.913	21.924	925.901	740.622
234.928	22.215	925.601	741.544
235.942	21.940	924.834	739.703
236.957	22.073	924.228	739.715
237.972	21.745	923.216	737.460
238.986	21.705	922.584	736.723
240.001	21.686	922.368	736.402
241.015	21.861	921.128	736.084
242.030	21.773	921.122	735.645
243.045	22.037	920.421	736.127
244.059	22.065	919.875	735.741
245.074	22.289	919.259	736.123
246.088	22.120	918.548	734.779
247.103	21.786	917.590	732.553
248.117	21.845	917.059	732.312
249.132	22.339	916.788	734.093
250.147	22.776	916.811	735.866
251.161	22.787	915.901	735.116
252.176	22.837	915.427	734.882
253.190	22.983	914.335	734.547
254.205	23.045	914.347	734.748
255.220	23.337	913.410	735.143
256.234	23.033	913.132	733.590
257.249	23.054	912.388	733.016
258.263	22.876	912.073	731.962
259.278	22.942	911.058	731.356
260.293	22.919	910.862	731.037
261.307	23.064	910.182	731.027
262.322	22.956	909.583	730.037
263.336	22.858	908.577	728.759
264.351	22.365	907.162	725.529
265.366	21.250	905.161	719.273
266.380	20.896	904.244	717.026
267.395	21.688	904.515	720.436
268.409	22.578	904.831	724.280
269.424	22.427	904.218	723.109
270.439	22.721	903.637	723.783
271.453	22.869	902.890	723.729
272.468	22.889	902.141	723.147
273.482	22.905	901.909	722.961
274.497	23.142	901.696	723.697
275.512	22.936	900.314	721.682
276.526	22.307	898.960	717.967
277.541	22.437	898.744	718.262
278.555	22.829	898.545	719.638
279.570	22.710	897.462	718.220
280.585	22.549	897.058	717.180
281.599	22.613	896.387	716.840
282.614	22.653	895.955	716.594
283.628	22.119	895.189	713.749
284.643	21.924	894.387	712.253
285.657	22.292	894.215	713.547
286.672	22.187	893.112	712.180
287.687	21.702	891.831	709.131
288.701	22.070	892.248	710.892
289.716	22.603	891.491	712.380
290.730	22.042	891.176	709.799
291.745	21.992	890.303	708.839
292.760	21.837	889.099	707.193
293.774	21.734	888.367	706.131
294.789	22.558	889.081	709.959
295.803	23.296	889.193	712.955
296.818	23.164	888.752	712.007
297.833	23.312	888.279	712.161
298.847	23.081	887.385	710.455
299.862	22.815	885.648	707.933
300.876	22.953	885.537	708.336
301.891	23.286	885.059	709.224
302.906	23.329	884.524	708.905
303.920	22.964	883.484	706.549
304.935	22.718	882.798	704.956
305.949	23.216	882.715	706.816
306.964	23.183	881.939	706.002
307.979	23.095	881.427	705.179
308.993	23.012	880.708	704.209
310.008	23.464	880.514	705.790
311.022	23.419	880.550	705.580
312.037	23.243	879.827	704.236
313.052	22.915	879.351	702.489
314.066	22.932	878.471	701.791
315.081	22.361	876.599	697.971
316.095	21.700	875.040	694.049
317.110	22.120	875.494	696.012
318.125	23.023	875.554	699.576
319.139	22.537	874.849	697.027
320.154	21.538	872.991	691.538
321.168	20.870	872.352	688.335
322.183	21.674	871.898	691.089
323.197	22.560	872.657	695.124
324.212	22.882	871.999	695.809
325.227	23.070	871.568	696.143
326.241	22.981	871.713	695.848
327.256	22.863	871.300	694.990
328.270	22.954	870.090	694.323
329.285	22.855	869.440	693.353
330.300	22.662	868.641	691.898
331.314	22.525	867.601	690.470
332.329	22.611	866.805	690.112
333.343	22.835	866.792	690.920
334.358	23.209	866.688	692.236
335.373	23.162	866.037	691.474
336.387	23.224	865.510	691.231
337.402	23.403	865.295	691.700
338.416	23.678	864.405	691.999
339.431	23.593	863.761	691.090
340.446	23.517	863.450	690.482
341.460	23.831	863.109	691.373
342.475	23.742	862.596	690.553
343.489	23.602	861.381	688.978
344.504	23.478	861.158	688.255
345.519	23.712	860.834	688.844
346.533	23.823	860.672	689.082
347.548	23.954	859.937	688.942
348.562	24.108	859.241	688.919
349.577	24.142	858.591	688.467
350.592	23.979	858.127	687.404
351.606	24.050	857.589	687.188
352.621	23.947	857.404	686.582
353.635	23.876	856.541	685.554
354.650	23.849	856.122	685.056
355.665	23.427	855.195	682.629
356.679	22.308	853.778	677.133
357.694	22.189	852.831	675.862
358.708	22.816	852.858	678.237
359.723	22.901	852.048	677.857
360.738	23.040	852.092	678.365
361.752	23.468	852.120	679.972
362.767	23.717	851.538	680.400
363.781	23.823	851.483	680.702
364.796	24.169	851.167	681.714
365.810	24.237	850.835	681.645
366.825	24.225	850.625	681.372
367.840	24.206	850.286	680.968
368.854	24.258	849.463	680.447
369.869	23.687	848.682	677.581
370.883	23.692	847.509	676.606
371.898	23.752	847.016	676.380
372.913	23.702	846.113	675.409
373.927	23.713	845.527	674.923
374.942	23.730	845.351	674.787
375.956	23.833	844.912	674.767
376.971	24.011	844.076	674.716
377.986	24.057	843.826	674.629
379.000	24.211	843.455	674.859
380.015	24.387	842.827	674.963
381.029	24.240	841.978	673.667
382.044	24.087	841.323	672.505
383.059	24.280	840.972	672.893
384.073	24.332	840.575	672.713
385.088	24.362	839.750	672.107
386.102	24.371	839.483	671.865
387.117	24.167	838.433	670.198
388.132	24.019	837.960	669.204
389.146	23.871	837.178	667.965
390.161	23.302	836.369	665.125
391.175	23.354	836.139	665.079
392.190	23.757	836.343	666.696
393.205	23.798	835.753	666.320
394.219	23.000	834.041	661.907
395.234	21.537	831.593	654.441
396.248	20.747	830.096	650.253
397.263	21.776	830.974	654.729
398.278	23.541	832.704	662.634
399.292	23.991	832.607	664.180
400.307	23.521	831.961	661.850
401.321	23.490	831.305	661.156
402.336	23.624	831.060	661.401
403.350	23.942	830.843	662.354
404.365	24.484	830.326	663.899
405.380	24.756	830.334	664.860
406.394	25.045	829.962	665.575
407.409	24.955	830.093	665.287
408.423	24.997	829.604	664.993
409.438	24.899	828.177	663.427
410.453	24.764	828.311	662.977
411.467	25.006	827.690	663.317
412.482	24.950	827.536	662.927
413.496	24.886	826.903	662.122
414.511	24.962	826.497	662.021
415.526	24.882	826.137	661.377
416.540	25.010	825.717	661.458
417.555	24.870	825.291	660.540
418.569	24.694	824.533	659.225
419.584	24.599	823.978	658.374
420.599	24.757	823.095	658.192
421.613	147.869	1363.962	1774.996
422.628	128.765	1442.788	1775.126
