DTS Sentinel unit serial number:	SN413079Multiplexer serial number:	ORYXHardware model number:	OX4-SRSoftware version number:	ORYX F/W v4.00 Oryx Data Collector v3.7.2.0data status	okinstallation	princeton_trtdifferential loss correction	single-endedforward channel	channel 3reverse channel	N/Adate	2019/09/11time	07:34:10forward acquisition time	60.00reverse acquisition time	0.00gamma	496.2192k internal	0.2324k external	0.2324temperature offset calibration	0.9905default loss term (dB/km)	0.3790temperature slope calibration	1.0000multiplexer offset coefficient	1.0000multiplexer slope coefficient	1.0000fibre end	0.00T internal ref (°C)	31.20T ext. ref 1 (°C)	-0.05T ext. ref 2 (°C)	27.64length (m)	temperature (°C)	Stokes	anti-Stokes-747.200	-103.669	0.056	0.013
-746.185	49.223	-0.216	0.205
-745.171	155.492	-0.037	0.051
-744.156	-70.924	-0.177	-0.067
-743.142	345.807	-0.176	0.350
-742.127	-200.000	0.016	0.155
-741.112	-200.000	-0.008	-0.139
-740.098	800.000	-0.043	0.185
-739.083	-1.245	0.195	-0.139
-738.069	-20.980	-0.033	-0.020
-737.054	-82.016	-0.211	-0.070
-736.039	231.990	-0.043	-0.071
-735.025	-65.301	-0.202	-0.082
-734.010	-90.918	0.258	-0.075
-732.996	-200.000	-0.011	0.225
-731.981	800.000	-0.055	-0.206
-730.966	74.054	-0.288	-0.305
-729.952	-28.777	0.232	0.135
-728.937	206.111	0.080	0.125
-727.923	800.000	0.092	-0.335
-726.908	-200.000	0.074	-0.328
-725.894	-113.854	0.121	0.024
-724.879	132.244	0.111	0.145
-723.864	-200.000	-0.012	-0.088
-722.850	68.120	-0.053	0.055
-721.835	-85.168	0.347	0.109
-720.821	-94.537	-0.114	0.031
-719.806	-123.386	-0.328	0.053
-718.791	-13.459	-0.400	-0.262
-717.777	-117.573	-0.196	0.036
-716.762	800.000	0.084	0.253
-715.748	-114.558	0.076	-0.015
-714.733	157.006	-0.027	0.038
-713.718	-200.000	0.014	-0.339
-712.704	-88.646	0.131	-0.039
-711.689	-91.649	0.338	-0.097
-710.675	800.000	0.018	0.068
-709.660	-175.522	-0.148	0.004
-708.645	-64.926	-0.158	-0.064
-707.631	800.000	0.041	-0.177
-706.616	-134.644	0.434	0.053
-705.602	19.832	-0.069	0.056
-704.587	-200.000	-0.019	0.318
-703.572	-200.000	-0.024	0.116
-702.558	800.000	-0.049	0.165
-701.543	-200.000	-0.022	0.235
-700.529	-58.296	-0.269	-0.118
-699.514	-200.000	-0.017	0.113
-698.499	84.318	-0.096	0.105
-697.485	-34.304	-0.158	-0.087
-696.470	-200.000	-0.023	-0.193
-695.456	65.305	0.108	0.111
-694.441	-121.435	-0.213	-0.036
-693.426	-53.425	-0.436	-0.201
-692.412	-200.000	0.026	0.332
-691.397	800.000	0.073	-0.295
-690.383	-200.000	-0.006	-0.080
-689.368	800.000	-0.066	-0.232
-688.354	-42.548	0.177	0.091
-687.339	-98.908	-0.224	-0.057
-686.324	-200.000	0.000	-0.196
-685.310	689.346	-0.043	-0.112
-684.295	-186.427	-0.178	0.003
-683.281	414.509	-0.086	-0.184
-682.266	-0.467	-0.232	0.166
-681.251	800.000	0.054	0.165
-680.237	-137.231	0.300	-0.034
-679.222	35.886	0.247	-0.219
-678.208	-45.124	0.284	0.142
-677.193	-34.535	-0.038	0.021
-676.178	-63.008	0.221	-0.092
-675.164	-56.243	0.142	0.063
-674.149	84.675	-0.095	0.105
-673.135	800.000	0.025	0.077
-672.120	-84.450	-0.170	0.054
-671.105	-53.881	0.270	0.124
-670.091	760.699	-0.062	-0.169
-669.076	-146.887	0.224	-0.019
-668.062	-159.638	-0.038	0.002
-667.047	-78.530	0.065	0.022
-666.032	800.000	0.049	-0.191
-665.018	-88.561	0.151	-0.045
-664.003	800.000	0.040	0.171
-662.989	172.658	-0.073	0.106
-661.974	-70.018	-0.012	-0.005
-660.959	-63.548	-0.253	-0.105
-659.945	397.515	0.081	0.171
-658.930	-54.191	0.242	0.111
-657.916	74.149	-0.202	0.214
-656.901	-200.000	-0.047	0.311
-655.886	49.852	-0.037	-0.036
-654.872	-61.166	-0.174	-0.074
-653.857	344.547	-0.069	0.135
-652.843	95.092	0.124	0.142
-651.828	-200.000	-0.020	-0.111
-650.814	-85.128	0.209	-0.066
-649.799	-147.640	-0.122	0.010
-648.784	530.644	-0.029	0.069
-647.770	641.767	-0.063	-0.162
-646.755	142.527	-0.070	-0.093
-645.741	-200.000	-0.020	0.338
-644.726	-200.000	0.025	0.171
-643.711	-75.092	-0.291	0.105
-642.697	74.769	-0.183	0.194
-641.682	52.004	0.136	0.131
-640.668	9.611	-0.141	0.108
-639.653	-16.493	0.137	0.087
-638.638	176.209	-0.076	0.111
-637.624	602.608	-0.217	0.543
-636.609	178.138	0.091	0.133
-635.595	-76.505	-0.245	0.087
-634.580	-167.626	-0.187	0.007
-633.565	503.215	0.064	0.149
-632.551	206.003	-0.205	0.321
-631.536	274.597	0.092	-0.164
-630.522	-83.159	-0.027	-0.009
-629.507	-108.420	0.198	-0.043
-628.492	-109.079	-0.238	-0.051
-627.478	222.781	0.069	0.111
-626.463	250.583	-0.067	0.114
-625.449	461.013	0.093	0.208
-624.434	-14.727	0.132	-0.085
-623.419	68.722	-0.113	0.116
-622.405	-132.878	-0.123	0.016
-621.390	800.000	-0.043	0.145
-620.376	-26.213	-0.304	0.179
-619.361	358.524	0.073	-0.146
-618.346	-200.000	-0.290	-0.000
-617.332	18.845	-0.190	0.153
-616.317	-24.294	0.325	-0.195
-615.303	-200.000	0.016	-0.237
-614.288	-127.790	-0.167	0.024
-613.273	-200.000	0.010	0.314
-612.259	95.325	-0.098	-0.112
-611.244	-200.000	0.079	-0.403
-610.230	87.752	0.286	0.318
-609.215	280.605	-0.161	0.288
-608.201	-156.361	-0.148	-0.009
-607.186	-178.317	-0.137	-0.003
-606.171	-200.000	0.002	-0.167
-605.157	132.768	0.051	0.066
-604.142	-53.000	-0.153	0.071
-603.128	23.095	0.134	-0.110
-602.113	800.000	0.052	0.153
-601.098	217.790	0.139	-0.222
-600.084	-86.347	-0.271	0.084
-599.069	-51.333	-0.185	0.087
-598.055	-11.144	0.050	0.033
-597.040	-200.000	0.012	0.138
-596.025	-200.000	-0.009	0.066
-595.011	82.498	0.138	-0.151
-593.996	-200.000	-0.008	-0.166
-592.982	20.372	0.097	-0.079
-591.967	-163.050	-0.499	0.024
-590.952	62.266	-0.061	0.061
-589.938	-53.133	-0.216	-0.100
-588.923	15.888	-0.183	0.144
-587.909	20.808	0.244	-0.198
-586.894	-23.547	-0.249	0.150
-585.879	-200.000	0.064	-0.314
-584.865	-200.000	0.004	-0.365
-583.850	75.305	-0.192	-0.203
-582.836	-21.889	0.265	-0.162
-581.821	-86.484	-0.104	0.032
-580.806	443.600	0.200	0.440
-579.792	-0.142	0.144	-0.103
-578.777	-157.923	-0.133	0.008
-577.763	-40.226	0.121	-0.063
-576.748	47.179	-0.236	-0.221
-575.733	-189.290	-0.117	0.001
-574.719	104.578	-0.113	-0.133
-573.704	-64.942	0.268	0.108
-572.690	-172.337	-0.221	-0.007
-571.675	800.000	0.017	-0.062
-570.661	-200.000	0.019	0.183
-569.646	-93.918	0.129	-0.036
-568.631	-200.000	0.011	-0.092
-567.617	-200.000	-0.005	0.200
-566.602	-149.958	0.181	0.014
-565.588	-5.138	-0.071	-0.049
-564.573	-0.881	-0.283	-0.201
-563.558	-200.000	0.005	-0.061
-562.544	-169.633	0.291	0.011
-561.529	-76.413	-0.292	0.103
-560.515	800.000	0.084	0.342
-559.500	-200.000	0.033	-0.255
-558.485	37.563	0.102	0.090
-557.471	-30.503	-0.204	-0.116
-556.456	-109.391	0.153	0.032
-555.442	-200.000	0.011	0.235
-554.427	504.132	-0.101	0.235
-553.412	13.315	-0.130	-0.101
-552.398	-200.000	0.098	-0.560
-551.383	-94.886	0.157	-0.043
-550.369	-200.000	0.011	-0.259
-549.354	-1.115	0.226	0.160
-548.339	293.684	0.146	0.267
-547.325	-10.450	0.135	-0.090
-546.310	-200.000	-0.021	0.199
-545.296	800.000	-0.058	-0.170
-544.281	403.204	0.151	-0.318
-543.266	-1.828	-0.179	-0.126
-542.252	-45.773	0.215	-0.106
-541.237	582.083	-0.017	-0.043
-540.223	366.644	0.064	0.130
-539.208	-118.096	-0.146	-0.026
-538.193	-77.861	-0.041	-0.014
-537.179	216.716	0.070	0.112
-536.164	6.850	0.127	-0.095
-535.150	-136.012	-0.092	-0.011
-534.135	-200.000	-0.022	0.363
-533.121	229.187	0.018	0.030
-532.106	-200.000	-0.064	-0.351
-531.091	-200.000	-0.083	-0.409
-530.077	16.272	0.108	-0.086
-529.062	131.034	-0.113	0.146
-528.048	-166.396	0.199	0.008
-527.033	800.000	0.079	-0.243
-526.018	68.128	0.109	0.112
-525.004	15.154	0.203	-0.160
-523.989	-40.363	-0.175	0.091
-522.975	-200.000	-0.237	0.001
-521.960	800.000	-0.106	0.460
-520.945	118.955	0.217	0.268
-519.931	181.479	0.103	0.152
-518.916	-28.835	0.208	-0.120
-517.902	-121.416	0.257	-0.043
-516.887	75.847	-0.173	-0.183
-515.872	-200.000	0.016	-0.290
-514.858	342.480	-0.057	-0.113
-513.843	-123.089	-0.294	-0.047
-512.829	217.707	-0.242	0.386
-511.814	-101.884	-0.185	-0.045
-510.799	800.000	0.128	0.368
-509.785	-102.494	0.126	-0.030
-508.770	-200.000	0.010	0.200
-507.756	110.445	-0.170	-0.204
-506.741	-25.212	0.098	0.058
-505.726	800.000	0.071	-0.214
-504.712	-106.997	-0.061	0.013
-503.697	-200.000	0.027	-0.194
-502.683	90.325	0.123	-0.137
-501.668	800.000	-0.063	-0.225
-500.653	-107.572	-0.197	0.043
-499.639	73.390	-0.264	0.276
-498.624	-200.000	-0.001	-0.395
-497.610	-200.000	-0.008	-0.057
-496.595	-81.311	-0.089	-0.029
-495.581	-140.825	0.053	-0.005
-494.566	86.140	-0.220	-0.242
-493.551	40.206	-0.387	-0.348
-492.537	326.718	0.105	-0.201
-491.522	266.692	0.113	-0.197
-490.508	274.669	-0.102	0.181
-489.493	154.268	0.185	0.254
-488.478	104.150	-0.267	0.314
-487.464	-9.069	-0.178	-0.119
-486.449	-89.500	0.272	0.080
-485.435	-105.855	-0.175	-0.040
-484.420	-34.593	-0.140	-0.077
-483.405	-76.185	0.111	-0.039
-482.391	13.006	0.343	-0.265
-481.376	-144.955	-0.204	-0.019
-480.362	-200.000	0.039	0.224
-479.347	481.233	-0.163	0.369
-478.332	47.354	-0.231	0.215
-477.318	-48.439	-0.082	0.040
-476.303	-69.941	-0.190	0.072
-475.289	241.702	-0.153	-0.255
-474.274	219.560	0.149	0.238
-473.259	-143.504	0.126	-0.012
-472.245	131.227	-0.184	0.236
-471.230	-73.196	0.144	-0.053
-470.216	21.466	-0.378	-0.307
-469.201	-179.073	0.115	0.003
-468.186	-101.174	-0.235	0.057
-467.172	-78.678	-0.245	-0.084
-466.157	-95.313	0.231	-0.062
-465.143	387.769	0.183	-0.378
-464.128	-105.824	0.108	-0.024
-463.113	95.923	0.034	0.039
-462.099	330.123	-0.186	-0.358
-461.084	-125.699	0.309	-0.047
-460.070	-65.083	-0.453	-0.182
-459.055	-200.000	-0.001	-0.014
-458.040	-74.936	0.302	-0.108
-457.026	-96.309	0.165	0.044
-456.011	76.816	0.182	0.193
-454.997	149.148	-0.122	-0.165
-453.982	800.000	-0.078	0.274
-452.968	800.000	-0.102	0.286
-451.953	-50.455	-0.067	-0.032
-450.938	32.863	-0.164	-0.141
-449.924	-0.640	-0.099	0.070
-448.909	-95.668	-0.354	-0.095
-447.895	-74.598	0.363	-0.130
-446.880	800.000	-0.070	0.209
-445.865	52.575	0.147	-0.140
-444.851	-104.095	0.226	-0.052
-443.836	-200.000	0.013	-0.288
-442.822	370.276	-0.207	0.418
-441.807	74.814	-0.103	0.108
-440.792	-86.114	0.218	-0.067
-439.778	37.318	0.092	-0.081
-438.763	-31.424	0.084	-0.047
-437.749	24.734	0.399	0.330
-436.734	-52.016	0.263	-0.122
-435.719	121.961	-0.130	-0.162
-434.705	-107.978	-0.098	-0.021
-433.690	-200.000	-0.212	0.001
-432.676	-115.186	0.095	0.018
-431.661	5.850	0.211	0.156
-430.646	-89.973	-0.387	0.113
-429.632	67.368	-0.138	-0.140
-428.617	-116.207	-0.177	0.033
-427.603	20.363	0.025	0.020
-426.588	655.728	-0.077	-0.197
-425.573	-103.577	0.247	-0.058
-424.559	-30.919	0.212	0.119
-423.544	800.000	-0.074	0.305
-422.530	-118.526	-0.291	-0.051
-421.515	114.171	0.059	-0.071
-420.500	-13.715	0.354	-0.228
-419.486	-200.000	-0.005	-0.081
-418.471	23.394	-0.188	0.154
-417.457	-200.000	0.031	0.379
-416.442	-103.807	0.040	0.009
-415.428	-95.616	-0.171	0.046
-414.413	23.046	0.283	-0.231
-413.398	-200.000	0.215	0.001
-412.384	227.893	-0.094	0.153
-411.369	-123.276	0.226	0.036
-410.355	279.899	0.098	-0.175
-409.340	113.411	-0.045	-0.055
-408.325	-89.501	-0.101	0.030
-407.311	-131.043	0.111	0.015
-406.296	1.785	-0.180	0.129
-405.282	-200.000	-0.004	0.129
-404.267	-25.256	0.144	-0.085
-403.252	-14.642	-0.164	-0.105
-402.238	-200.000	0.014	0.086
-401.223	-200.000	0.003	0.054
-400.209	27.122	0.119	0.100
-399.194	-200.000	0.026	0.218
-398.179	-2.043	0.098	-0.069
-397.165	49.806	0.137	-0.129
-396.150	9.216	0.358	0.270
-395.136	-68.289	-0.091	0.035
-394.121	-124.441	-0.061	-0.009
-393.106	115.505	-0.055	-0.067
-392.092	-192.508	0.187	-0.002
-391.077	-65.728	-0.139	-0.055
-390.063	-53.699	0.189	-0.086
-389.048	15.720	0.255	0.200
-388.033	169.877	-0.154	0.219
-387.019	-137.401	0.045	0.005
-386.004	72.382	0.246	0.255
-384.990	756.912	-0.087	-0.234
-383.975	-83.549	-0.310	0.099
-382.960	-73.539	0.272	0.099
-381.946	165.490	0.042	0.058
-380.931	39.112	-0.085	0.076
-379.917	10.554	0.286	-0.217
-378.902	-147.253	-0.337	-0.029
-377.888	40.843	0.088	-0.079
-376.873	-200.000	0.007	0.060
-375.858	-200.000	-0.010	-0.226
-374.844	-112.279	-0.222	-0.044
-373.829	57.667	0.114	0.111
-372.815	-200.000	-0.035	0.199
-371.800	-115.430	0.287	0.054
-370.785	-163.094	0.251	0.012
-369.771	-10.122	-0.061	-0.040
-368.756	541.593	0.122	0.290
-367.742	-52.679	-0.097	-0.044
-366.727	24.243	0.371	-0.304
-365.712	-4.931	-0.311	-0.213
-364.698	636.789	0.095	0.240
-363.683	-35.676	-0.062	-0.033
-362.669	-69.057	0.218	0.084
-361.654	-49.074	0.404	0.192
-360.639	-200.000	0.021	-0.127
-359.625	-47.845	-0.153	0.074
-358.610	-200.000	0.055	-0.263
-357.596	-4.276	0.235	-0.161
-356.581	122.967	0.075	-0.094
-355.566	498.333	-0.030	0.068
-354.552	-73.131	0.028	0.010
-353.537	-59.691	-0.231	-0.098
-352.523	737.573	0.107	0.285
-351.508	131.303	0.142	0.182
-350.493	-48.143	0.171	-0.082
-349.479	37.154	-0.226	-0.199
-348.464	-200.000	0.007	-0.105
-347.450	499.207	0.107	-0.246
-346.435	81.883	0.232	-0.249
-345.420	79.913	-0.179	-0.191
-344.406	193.509	0.083	-0.124
-343.391	12.395	-0.294	0.225
-342.377	-129.285	-0.109	0.015
-341.362	800.000	0.029	0.105
-340.348	-39.913	-0.331	0.171
-339.333	-144.098	0.200	-0.019
-338.318	-129.017	0.265	-0.037
-337.304	-99.122	-0.180	-0.045
-336.289	-73.375	0.160	0.058
-335.275	10.502	0.103	-0.078
-334.260	-50.933	0.204	0.095
-333.245	-157.114	-0.300	0.018
-332.231	437.117	-0.028	-0.060
-331.216	-32.830	0.214	-0.118
-330.202	25.904	0.319	-0.264
-329.187	44.643	-0.079	-0.072
-328.172	-68.788	-0.393	-0.151
-327.158	-107.618	-0.561	-0.122
-326.143	102.491	-0.175	0.203
-325.129	26.494	0.050	0.041
-324.114	89.440	0.154	-0.170
-323.099	-66.536	-0.089	-0.035
-322.085	233.043	-0.122	0.199
-321.070	273.706	-0.119	0.209
-320.056	-45.756	-0.383	-0.188
-319.041	252.708	-0.033	-0.055
-318.026	137.721	0.041	0.054
-317.012	293.657	0.116	0.209
-315.997	-21.251	0.161	-0.098
-314.983	194.827	-0.040	0.061
-313.968	109.360	-0.175	-0.208
-312.953	-82.069	0.166	0.054
-311.939	2.706	0.243	0.175
-310.924	800.000	-0.051	-0.164
-309.910	21.523	0.077	0.062
-308.895	-50.335	0.203	-0.095
-307.880	-200.000	0.001	0.305
-306.866	-120.421	-0.136	-0.023
-305.851	50.022	0.138	0.129
-304.837	-159.734	0.105	-0.006
-303.822	346.713	-0.085	-0.166
-302.807	-200.000	0.016	0.287
-301.793	-76.985	-0.259	0.090
-300.778	800.000	-0.113	0.448
-299.764	10.835	0.020	0.015
-298.749	129.499	-0.128	-0.162
-297.735	96.061	0.159	-0.180
-296.720	59.337	0.168	0.164
-295.705	-200.000	0.006	0.058
-294.691	42.261	-0.193	0.174
-293.676	47.206	-0.201	0.186
-292.662	800.000	-0.041	-0.132
-291.647	-115.374	-0.251	0.047
-290.632	-122.929	0.082	-0.013
-289.618	-91.427	-0.154	-0.044
-288.603	31.139	0.276	-0.234
-287.589	-151.916	0.167	-0.012
-286.574	-62.668	-0.381	-0.157
-285.559	763.478	-0.029	-0.079
-284.545	112.660	-0.407	0.489
-283.530	92.899	0.207	-0.232
-282.516	228.224	0.146	-0.236
-281.501	663.747	0.042	0.106
-280.486	800.000	0.121	-0.486
-279.472	-200.000	-0.006	0.115
-278.457	800.000	-0.090	0.290
-277.443	-200.000	-0.018	0.381
-276.428	-131.440	-0.356	-0.047
-275.413	-200.000	0.011	0.081
-274.399	180.805	-0.161	0.234
-273.384	-138.501	-0.240	0.026
-272.370	198.164	0.062	-0.094
-271.355	649.098	-0.106	0.268
-270.340	-113.574	-0.124	-0.024
-269.326	461.434	-0.189	-0.417
-268.311	-200.000	0.035	0.280
-267.297	31.224	-0.135	-0.114
-266.282	-200.000	0.027	0.219
-265.267	-200.000	0.018	-0.158
-264.253	800.000	0.049	-0.149
-263.238	407.446	0.098	-0.205
-262.224	65.984	-0.205	0.206
-261.209	52.060	0.135	0.127
-260.195	47.538	-0.255	0.236
-259.180	22.749	0.171	0.138
-258.165	-200.000	0.006	0.213
-257.151	800.000	-0.048	-0.144
-256.136	-36.730	0.077	-0.041
-255.122	481.419	-0.075	-0.168
-254.107	-200.000	0.041	-0.213
-253.092	-23.611	0.270	-0.160
-252.078	-40.077	0.306	0.158
-251.063	-82.401	-0.267	-0.086
-250.049	-102.814	0.240	-0.057
-249.034	-30.320	0.200	-0.113
-248.019	800.000	0.109	-0.366
-247.005	-73.412	-0.280	-0.101
-245.990	704.164	-0.186	-0.485
-244.976	127.945	0.227	-0.285
-243.961	-12.550	0.051	-0.033
-242.946	-87.941	0.189	-0.056
-241.932	-34.493	0.273	0.148
-240.917	-88.770	0.129	0.038
-239.903	91.580	-0.137	-0.153
-238.888	-13.888	0.173	0.111
-237.873	737.011	0.126	0.333
-236.859	-200.000	-0.085	-0.396
-235.844	113.042	-0.067	-0.080
-234.830	800.000	0.077	0.273
-233.815	-200.000	-0.146	-0.001
-232.800	-200.000	-0.029	0.184
-231.786	-35.049	-0.133	0.072
-230.771	-200.000	-0.006	-0.064
-229.757	-5.908	-0.113	0.076
-228.742	-160.032	-0.230	-0.012
-227.727	272.601	-0.046	0.080
-226.713	-123.458	0.341	-0.054
-225.698	98.543	0.227	0.259
-224.684	44.257	0.105	0.095
-223.669	-86.190	0.230	-0.070
-222.655	-200.000	-0.002	0.090
-221.640	-24.878	0.189	-0.111
-220.625	9.626	0.186	0.139
-219.611	15.523	0.217	0.169
-218.596	31.016	0.310	0.263
-217.582	-200.000	-0.027	0.216
-216.567	800.000	0.064	0.186
-215.552	-200.000	0.012	-0.442
-214.538	74.641	-0.089	-0.093
-213.523	424.015	0.014	0.029
-212.509	-200.000	-0.020	-0.197
-211.494	-85.949	-0.109	0.033
-210.479	-15.060	-0.126	-0.080
-209.465	-200.000	-0.027	0.209
-208.450	-84.561	0.134	0.042
-207.436	-200.000	0.008	-0.177
-206.421	-38.781	0.123	0.064
-205.406	10.543	0.499	-0.376
-204.392	-137.076	-0.204	-0.023
-203.377	-200.000	-0.011	-0.321
-202.363	141.566	0.094	-0.123
-201.348	274.785	-0.113	-0.197
-200.333	-113.444	0.108	-0.021
-199.319	-38.871	-0.232	0.121
-198.304	556.491	-0.035	-0.083
-197.290	-200.000	0.047	0.323
-196.275	14.656	-0.224	0.173
-195.260	-163.861	0.428	0.020
-194.246	351.591	-0.151	0.296
-193.231	800.000	0.007	-0.020
-192.217	-34.759	0.223	-0.120
-191.202	-56.367	0.115	-0.050
-190.187	-109.880	0.313	-0.065
-189.173	-109.743	0.139	0.029
-188.158	9.633	-0.190	-0.142
-187.144	-156.279	0.361	-0.022
-186.129	-101.243	-0.123	-0.030
-185.114	334.963	0.180	0.345
-184.100	-200.000	-0.024	0.119
-183.085	-35.846	0.088	-0.047
-182.071	1.823	0.294	0.209
-181.056	-24.360	-0.049	0.029
-180.042	800.000	0.022	-0.076
-179.027	-47.183	0.154	-0.074
-178.012	-200.000	-0.011	-0.224
-176.998	-44.303	0.083	-0.041
-175.983	51.463	-0.141	0.133
-174.969	-200.000	-0.006	-0.208
-173.954	-200.000	-0.065	-0.330
-172.939	163.949	-0.072	0.100
-171.925	-200.000	0.053	-0.280
-170.910	800.000	0.064	-0.191
-169.896	571.630	-0.020	0.048
-168.881	-200.000	0.008	-0.045
-167.866	-67.252	-0.108	0.042
-166.852	-126.170	-0.297	0.044
-165.837	-100.397	0.156	-0.038
-164.823	-200.000	-0.005	-0.162
-163.808	-97.390	0.334	0.086
-162.793	646.852	-0.122	-0.309
-161.779	475.072	-0.118	-0.262
-160.764	-200.000	-0.040	-0.235
-159.750	636.618	0.139	0.347
-158.735	43.001	-0.236	0.212
-157.720	201.291	-0.130	0.198
-156.706	-35.589	-0.214	-0.114
-155.691	94.309	0.085	-0.096
-154.677	5.659	-0.146	-0.106
-153.662	352.293	0.094	0.184
-152.647	800.000	0.123	0.358
-151.633	-167.552	0.123	-0.005
-150.618	16.426	0.146	0.114
-149.604	-49.698	0.237	-0.111
-148.589	-101.242	-0.183	0.044
-147.574	-154.827	0.265	-0.017
-146.560	-50.466	-0.148	0.069
-145.545	232.655	0.170	0.276
-144.531	-79.714	-0.028	-0.009
-143.516	800.000	-0.094	0.379
-142.502	-1.624	0.159	0.111
-141.487	-77.044	0.026	0.009
-140.472	-6.824	0.144	-0.096
-139.458	-7.267	0.131	-0.088
-138.443	201.217	0.071	0.108
-137.429	0.405	0.095	0.067
-136.414	606.651	-0.073	-0.180
-135.399	-60.642	-0.152	0.064
-134.385	-109.508	0.262	0.055
-133.370	-200.000	0.005	-0.266
-132.356	-183.739	-0.386	-0.006
-131.341	-28.080	0.322	0.183
-130.326	-73.351	0.200	-0.072
-129.312	-28.086	0.098	0.056
-128.297	220.309	-0.152	-0.240
-127.283	386.271	-0.140	0.284
-126.268	-190.422	-0.087	0.001
-125.253	91.140	0.195	0.216
-124.239	111.092	-0.179	0.213
-123.224	-16.259	-0.129	-0.080
-122.210	-43.980	-0.356	0.176
-121.195	-200.000	0.001	0.016
-120.180	-32.715	-0.097	-0.053
-119.166	407.715	-0.177	0.368
-118.151	62.273	-0.240	0.236
-117.137	-200.000	-0.009	-0.246
-116.122	-41.508	0.180	-0.091
-115.107	800.000	0.053	-0.166
-114.093	784.068	-0.122	-0.330
-113.078	-141.547	0.156	0.015
-112.064	62.970	0.100	-0.099
-111.049	-200.000	0.039	0.423
-110.034	-90.695	0.052	0.015
-109.020	-29.046	-0.081	-0.046
-108.005	127.913	0.215	0.269
-106.991	414.007	0.068	-0.142
-105.976	-200.000	0.011	-0.049
-104.962	-22.365	0.276	0.165
-103.947	32.627	0.159	0.136
-102.932	-200.000	-0.033	0.167
-101.918	302.277	0.152	-0.277
-100.903	-124.015	-0.257	0.040
-99.889	-200.000	-0.087	0.414
-98.874	31.833	0.113	0.096
-97.859	-97.082	-0.228	-0.059
-96.845	-84.097	0.508	-0.159
-95.830	-200.000	-0.026	0.181
-94.816	-200.000	-0.001	0.057
-93.801	-96.445	-0.122	-0.032
-92.786	103.059	0.080	-0.092
-91.772	-99.909	-0.133	-0.033
-90.757	24.703	0.103	0.084
-89.743	-200.000	0.026	0.236
-88.728	-136.823	-0.378	0.043
-87.713	3.078	0.095	0.068
-86.699	66.934	-0.087	-0.087
-85.684	-33.855	0.291	0.158
-84.670	-200.000	0.046	0.356
-83.655	-93.774	0.041	-0.011
-82.640	-89.978	0.229	0.066
-81.626	461.049	0.037	-0.081
-80.611	139.527	-0.095	-0.123
-79.597	-84.544	-0.289	-0.090
-78.582	129.481	0.172	0.216
-77.567	10.502	-0.048	0.036
-76.553	-200.000	0.021	-0.187
-75.538	659.681	0.022	0.056
-74.524	658.566	0.036	0.091
-73.509	675.941	-0.127	0.325
-72.494	51.796	-0.309	0.289
-71.480	190.144	-0.244	0.360
-70.465	91.106	0.138	0.152
-69.451	-138.831	0.056	0.006
-68.436	14.828	0.274	0.211
-67.422	800.000	-0.048	-0.135
-66.407	-200.000	0.026	0.237
-65.392	272.315	0.164	-0.284
-64.378	358.551	0.023	0.045
-63.363	-200.000	0.090	0.396
-62.349	251.816	-0.178	0.298
-61.334	133.918	-0.794	-1.011
-60.319	-63.851	0.619	0.249
-59.305	800.000	-0.194	-0.719
-58.290	274.772	0.553	0.963
-57.276	800.000	0.433	1.515
-56.261	-200.000	98.723	611.538
-55.246	607.633	1430.220	3505.304
-54.232	186.028	2629.587	3841.837
-53.217	115.685	2189.098	2630.239
-52.203	42.141	1718.985	1533.579
-51.188	34.355	1531.246	1312.665
-50.173	31.997	1504.565	1273.760
-49.159	51.645	1555.839	1453.269
-48.144	53.272	1572.654	1480.151
-47.130	34.667	1531.039	1314.430
-46.115	31.525	1516.561	1280.482
-45.100	31.269	1513.153	1275.806
-44.086	31.203	1511.634	1274.024
-43.071	31.333	1508.777	1272.449
-42.057	31.180	1507.941	1270.653
-41.042	31.285	1506.090	1269.755
-40.027	31.182	1504.961	1268.057
-39.013	31.209	1503.003	1266.539
-37.998	31.171	1501.538	1264.994
-36.984	31.186	1500.692	1264.332
-35.969	31.291	1499.005	1263.573
-34.954	31.218	1497.857	1262.066
-33.940	31.181	1496.212	1260.375
-32.925	31.311	1494.379	1259.662
-31.911	31.258	1493.536	1258.541
-30.896	31.309	1492.420	1257.897
-29.881	31.326	1490.942	1256.710
-28.867	31.285	1489.754	1255.384
-27.852	31.255	1488.138	1253.775
-26.838	31.345	1486.711	1253.128
-25.823	31.180	1485.765	1251.170
-24.809	31.302	1483.241	1249.810
-23.794	31.176	1482.174	1248.026
-22.779	31.151	1481.456	1247.202
-21.765	31.192	1480.083	1246.270
-20.750	31.342	1478.519	1245.902
-19.736	31.303	1477.575	1244.801
-18.721	31.183	1476.398	1242.960
-17.706	31.112	1475.668	1241.824
-16.692	31.321	1474.518	1242.197
-15.677	31.194	1473.300	1240.272
-14.663	31.142	1472.213	1238.963
-13.648	31.056	1471.734	1237.940
-12.633	31.131	1470.653	1237.483
-11.619	31.125	1469.831	1236.699
-10.604	31.214	1468.602	1236.205
-9.590	31.176	1467.873	1235.294
-8.575	31.090	1467.103	1234.025
-7.560	31.158	1465.945	1233.454
-6.546	31.106	1465.190	1232.427
-5.531	31.134	1464.381	1231.884
-4.517	31.077	1463.810	1230.974
-3.502	31.122	1462.176	1229.848
-2.487	31.147	1461.140	1229.094
-1.473	31.027	1459.805	1227.136
-0.458	31.202	1458.950	1227.515
0.556	28.853	1449.673	1217.670
1.571	26.385	1424.846	1180.622
2.586	23.560	1364.959	1113.198
3.600	22.214	1284.313	1039.383
4.615	20.867	1238.703	994.696
5.629	18.122	1182.800	934.736
6.644	9.345	1096.960	822.136
7.659	1.616	1054.697	752.286
8.673	0.228	1048.787	741.175
9.688	-0.112	1046.158	737.582
10.702	-0.204	1044.474	735.878
11.717	-0.130	1042.936	735.091
12.731	3.383	1046.802	754.986
13.746	12.550	1059.144	809.088
14.761	19.230	1068.179	848.945
15.775	20.801	1069.736	857.852
16.790	21.120	1069.396	859.078
17.804	20.947	1068.746	857.626
18.819	20.676	1067.681	855.363
19.834	20.849	1066.835	855.460
20.848	21.001	1066.318	855.717
21.863	21.007	1066.263	855.623
22.877	20.966	1066.225	855.319
23.892	21.044	1065.200	854.800
24.907	20.755	1064.670	852.883
25.921	21.124	1063.360	853.565
26.936	21.071	1062.851	852.822
27.950	20.794	1061.557	850.358
28.965	20.938	1060.543	850.171
29.980	20.719	1059.019	847.808
30.994	20.801	1057.295	846.749
32.009	21.012	1056.571	847.119
33.023	21.051	1055.876	846.678
34.038	20.800	1055.114	844.774
35.053	20.732	1054.151	843.602
36.067	20.969	1053.112	843.842
37.082	20.955	1052.506	843.214
38.096	20.937	1051.943	842.598
39.111	21.150	1051.357	843.084
40.126	21.207	1050.496	842.594
41.140	21.073	1048.770	840.491
42.155	20.907	1047.185	838.350
43.169	20.659	1046.355	836.415
44.184	20.698	1045.151	835.566
45.199	20.660	1044.423	834.730
46.213	20.727	1043.283	834.065
47.228	20.682	1042.360	833.037
48.242	20.715	1041.736	832.624
49.257	20.722	1041.052	832.036
50.271	21.000	1039.508	832.054
51.286	20.947	1039.201	831.483
52.301	21.157	1038.086	831.520
53.315	21.095	1037.854	830.964
54.330	20.982	1037.198	829.826
55.344	20.843	1036.512	828.546
56.359	21.019	1035.004	828.100
57.374	21.009	1034.269	827.393
58.388	20.843	1033.149	825.636
59.403	20.797	1032.752	825.026
60.417	20.856	1031.629	824.340
61.432	20.564	1031.165	822.513
62.447	20.676	1030.239	822.230
63.461	20.774	1029.700	822.191
64.476	20.765	1028.875	821.417
65.490	20.848	1028.189	821.187
66.505	20.685	1027.020	819.413
67.520	20.657	1026.261	818.602
68.534	20.947	1025.332	819.155
69.549	20.851	1024.203	817.727
70.563	20.417	1023.241	814.852
71.578	20.325	1022.615	813.851
72.593	20.432	1021.597	813.469
73.607	20.053	1020.837	811.016
74.622	20.205	1019.606	810.678
75.636	20.522	1018.792	811.440
76.651	20.579	1018.285	811.232
77.666	20.468	1017.305	809.860
78.680	20.353	1016.601	808.693
79.695	20.401	1015.962	808.339
80.709	20.332	1015.988	807.963
81.724	20.590	1014.484	807.897
82.739	20.519	1013.598	806.790
83.753	20.623	1012.629	806.427
84.768	20.866	1012.045	807.018
85.782	21.169	1011.710	808.081
86.797	21.331	1010.703	807.955
87.812	21.353	1009.854	807.307
88.826	21.114	1008.620	805.146
89.841	21.148	1007.869	804.635
90.855	21.261	1007.488	804.777
91.870	21.248	1006.935	804.207
92.884	21.240	1005.594	803.028
93.899	21.147	1005.189	802.204
94.914	20.957	1003.838	800.181
95.928	21.124	1003.008	800.219
96.943	21.167	1002.174	799.678
97.957	21.021	1001.011	798.009
98.972	20.743	999.833	795.732
99.987	20.411	999.082	793.548
101.001	20.604	998.322	793.752
102.016	20.909	998.043	794.853
103.030	20.965	996.937	794.155
104.045	20.874	995.475	792.506
105.060	20.615	994.953	790.846
106.074	20.523	993.082	788.871
107.089	20.627	992.441	788.759
108.103	20.852	992.807	790.001
109.118	21.105	991.199	789.801
110.133	20.742	990.153	787.256
111.147	20.733	989.241	786.421
112.162	20.514	988.431	784.717
113.176	20.622	986.237	783.394
114.191	20.582	986.064	783.006
115.206	20.671	985.286	782.718
116.220	20.390	984.168	780.498
117.235	20.308	982.815	778.988
118.249	20.327	982.527	778.776
119.264	20.309	981.903	778.133
120.279	20.226	980.927	776.917
121.293	20.404	980.150	777.033
122.308	20.534	979.044	776.665
123.322	20.427	978.674	775.828
124.337	20.317	977.612	774.425
125.352	20.403	975.594	773.141
126.366	19.851	974.699	769.908
127.381	19.592	973.012	767.355
128.395	20.129	972.824	769.525
129.410	20.861	972.224	772.229
130.424	20.950	971.636	772.086
131.439	20.813	970.809	770.755
132.454	20.935	969.107	769.875
133.468	20.885	968.486	769.094
134.483	20.780	967.786	768.005
135.497	20.924	967.215	768.120
136.512	21.200	966.328	768.561
137.527	21.249	965.782	768.277
138.541	21.148	964.769	766.956
139.556	21.142	964.219	766.424
140.570	21.253	963.274	766.093
141.585	21.193	962.274	764.968
142.600	21.165	961.677	764.304
143.614	21.096	960.519	763.015
144.629	21.206	959.580	762.681
145.643	21.320	959.687	763.196
146.658	21.304	958.307	761.963
147.673	21.174	957.017	760.301
148.687	21.091	955.792	758.902
149.702	21.053	955.091	758.113
150.716	21.076	954.042	757.311
151.731	20.907	953.237	755.872
152.746	21.108	952.172	755.830
153.760	21.168	951.942	755.844
154.775	21.318	951.066	755.729
155.789	21.293	950.361	754.995
156.804	21.192	949.671	753.941
157.819	21.194	947.879	752.463
158.833	21.264	947.533	752.422
159.848	21.423	947.154	752.738
160.862	21.392	945.933	751.571
161.877	21.256	945.223	750.355
162.892	21.230	943.991	749.199
163.906	21.401	943.116	749.170
164.921	21.228	942.428	747.818
165.935	21.201	941.200	746.660
166.950	21.256	940.485	746.263
167.964	21.284	939.450	745.495
168.979	21.275	938.335	744.506
169.994	21.129	937.564	743.208
171.008	21.052	936.408	741.896
172.023	21.207	935.728	741.952
173.037	21.322	935.035	741.825
174.052	21.108	933.619	739.727
175.067	21.050	932.975	738.908
176.081	21.000	931.763	737.670
177.096	21.210	930.803	737.731
178.110	21.124	930.298	736.902
179.125	20.855	929.421	735.010
180.140	20.659	927.798	732.834
181.154	20.693	927.150	732.403
182.169	20.789	926.830	732.488
183.183	20.939	926.569	732.847
184.198	21.215	926.078	733.555
185.213	21.300	925.060	733.040
186.227	21.260	924.906	732.683
187.242	21.220	924.065	731.786
188.256	21.272	923.620	731.586
189.271	21.415	922.143	730.947
190.286	21.386	921.972	730.627
191.300	21.220	920.871	728.999
192.315	20.711	919.514	725.736
193.329	20.058	918.040	721.790
194.344	19.736	916.957	719.535
195.359	20.258	917.063	721.727
196.373	20.923	917.826	725.031
197.388	21.313	917.070	725.991
198.402	21.241	916.478	725.156
199.417	20.953	916.204	723.681
200.432	21.266	915.301	724.203
201.446	20.900	914.637	722.096
202.461	20.799	913.881	721.017
203.475	20.929	913.227	720.973
204.490	20.371	911.982	717.623
205.504	19.255	909.816	711.250
206.519	19.822	909.592	713.350
207.534	20.636	909.870	716.861
208.548	20.800	909.382	717.091
209.563	21.164	909.221	718.398
210.577	21.102	908.852	717.790
211.592	20.875	907.704	715.886
212.607	21.313	907.783	717.684
213.621	21.362	907.445	717.553
214.636	21.368	906.143	716.486
215.650	21.278	905.833	715.810
216.665	21.293	905.027	715.172
217.680	21.311	904.458	714.730
218.694	21.344	904.190	714.589
219.709	21.012	902.961	712.199
220.723	20.629	902.292	710.046
221.738	21.036	901.991	711.408
222.753	21.310	901.289	711.907
223.767	21.082	900.807	710.536
224.782	21.157	899.655	709.868
225.796	21.508	898.440	710.273
226.811	21.417	898.584	709.952
227.826	21.125	896.915	707.389
228.840	20.287	895.872	703.110
229.855	20.170	895.443	702.235
230.869	20.486	894.949	703.065
231.884	20.214	893.904	701.084
232.899	20.300	893.302	700.895
233.913	21.112	893.720	704.441
234.928	21.095	893.423	704.076
235.942	21.112	892.630	703.460
236.957	21.056	891.865	702.570
237.972	20.877	890.978	701.086
238.986	20.746	890.175	699.865
240.001	20.860	889.405	699.656
241.015	20.797	888.847	698.904
242.030	20.793	888.672	698.687
243.045	21.129	887.797	699.285
244.059	21.086	887.265	698.630
245.074	21.355	886.594	699.115
246.088	21.239	886.021	698.138
247.103	20.921	884.913	695.936
248.117	20.828	884.558	695.224
249.132	21.481	884.517	697.733
250.147	21.777	884.448	698.800
251.161	21.793	883.873	698.348
252.176	21.986	882.811	698.212
253.190	21.877	882.543	697.506
254.205	22.030	881.919	697.561
255.220	22.193	881.567	697.865
256.234	22.112	881.047	697.072
257.249	22.201	880.009	696.539
258.263	21.946	879.522	695.084
259.278	21.908	878.976	694.441
260.293	21.896	878.713	694.123
261.307	22.084	878.215	694.411
262.322	21.948	877.452	693.212
263.336	21.991	876.469	692.542
264.351	21.446	875.074	689.231
265.366	20.414	873.012	683.487
266.380	19.883	872.363	680.831
267.395	20.721	873.068	684.619
268.409	21.682	872.643	688.003
269.424	21.696	871.917	687.423
270.439	21.637	871.943	687.150
271.453	21.806	870.850	686.892
272.468	21.922	870.145	686.728
273.482	22.036	869.724	686.782
274.497	22.109	869.536	686.856
275.512	21.974	868.535	685.478
276.526	21.291	867.378	681.838
277.541	21.539	866.813	682.302
278.555	21.898	866.549	683.433
279.570	21.870	865.882	682.738
280.585	21.749	864.657	681.242
281.599	21.566	864.535	680.372
282.614	21.731	864.395	680.842
283.628	21.343	863.062	678.229
284.643	20.934	862.353	676.024
285.657	21.478	862.075	677.854
286.672	21.341	861.663	676.941
287.687	20.816	860.546	673.971
288.701	21.075	860.805	675.117
289.716	21.379	860.514	676.006
290.730	21.162	859.122	674.014
291.745	21.085	858.151	672.895
292.760	20.938	857.539	671.791
293.774	20.832	857.009	670.908
294.789	21.887	857.197	675.058
295.803	22.312	857.853	677.152
296.818	22.421	856.856	676.725
297.833	22.461	856.365	676.428
298.847	22.160	855.268	674.349
299.862	21.924	854.225	672.562
300.876	21.929	854.163	672.472
301.891	22.349	853.426	673.438
302.906	22.304	853.144	672.988
303.920	22.029	851.881	670.878
304.935	21.866	851.300	669.739
305.949	22.140	850.988	670.481
306.964	22.272	850.734	670.724
307.979	22.135	849.639	669.281
308.993	22.025	849.600	668.773
310.008	22.433	848.902	669.714
311.022	22.403	849.151	669.739
312.037	22.237	848.242	668.333
313.052	22.180	847.470	667.449
314.066	22.100	846.318	666.179
315.081	21.409	844.855	662.351
316.095	20.803	843.948	659.289
317.110	21.340	843.951	661.263
318.125	22.116	844.346	664.450
319.139	21.705	843.090	661.851
320.154	20.568	841.498	656.255
321.168	20.073	840.377	653.456
322.183	20.762	840.521	656.106
323.197	21.549	840.989	659.380
324.212	22.041	840.389	660.705
325.227	21.944	840.578	660.429
326.241	22.124	839.839	660.466
327.256	22.083	839.173	659.729
328.270	21.843	838.930	658.578
329.285	21.889	837.926	657.907
330.300	21.711	837.433	656.793
331.314	21.611	836.328	655.495
332.329	21.508	835.868	654.690
333.343	22.113	835.642	656.716
334.358	22.345	835.182	657.163
335.373	22.196	834.630	656.114
336.387	22.481	833.969	656.602
337.402	22.574	833.483	656.506
338.416	22.662	833.326	656.651
339.431	22.740	832.476	656.216
340.446	22.855	831.962	656.180
341.460	22.831	831.558	655.713
342.475	22.838	831.091	655.314
343.489	22.601	830.089	653.588
344.504	22.557	829.640	653.011
345.519	22.732	829.589	653.563
346.533	23.001	829.123	654.132
347.548	23.000	828.669	653.713
348.562	23.110	827.971	653.512
349.577	23.083	827.485	652.970
350.592	23.046	827.096	652.467
351.606	22.874	826.757	651.510
352.621	22.902	826.114	651.046
353.635	22.930	825.631	650.714
354.650	22.856	825.030	649.909
355.665	22.698	823.814	648.312
356.679	21.508	822.511	642.860
357.694	21.363	821.868	641.770
358.708	22.070	821.650	644.135
359.723	22.063	821.134	643.650
360.738	22.122	821.244	643.895
361.752	22.433	821.029	644.808
362.767	22.706	820.708	645.496
363.781	22.937	820.671	646.257
364.796	23.186	820.564	647.026
365.810	23.426	819.628	647.108
366.825	23.370	819.368	646.641
367.840	23.393	819.293	646.606
368.854	23.328	818.579	645.749
369.869	22.738	817.434	642.640
370.883	22.670	816.644	641.715
371.898	22.741	816.398	641.723
372.913	22.788	815.592	641.203
373.927	22.723	815.020	640.461
374.942	22.806	814.699	640.455
375.956	22.790	814.039	639.820
376.971	23.022	813.821	640.434
377.986	23.000	813.292	639.879
379.000	23.269	812.808	640.417
380.015	23.379	812.272	640.333
381.029	23.116	811.504	638.724
382.044	23.171	810.805	638.316
383.059	23.272	810.425	638.323
384.073	23.243	810.011	637.837
385.088	23.334	809.295	637.542
386.102	23.422	808.778	637.396
387.117	23.276	807.702	635.969
388.132	23.142	807.582	635.334
389.146	22.959	806.839	634.039
390.161	22.329	806.216	631.233
391.175	22.580	805.419	631.453
392.190	22.873	805.859	632.791
393.205	22.880	805.380	632.386
394.219	21.970	803.680	627.742
395.234	20.484	801.005	620.294
396.248	19.731	800.205	616.934
397.263	20.731	800.951	621.026
398.278	22.520	802.258	628.371
399.292	22.926	802.187	629.705
400.307	22.701	801.444	628.267
401.321	22.798	800.823	628.068
402.336	22.798	800.825	628.017
403.350	22.985	800.581	628.434
404.365	23.284	800.814	629.625
405.380	23.684	800.372	630.643
406.394	23.920	800.272	631.347
407.409	24.112	799.795	631.595
408.423	24.068	799.211	630.922
409.438	23.963	798.625	630.030
410.453	23.876	798.221	629.347
411.467	24.030	797.890	629.576
412.482	24.006	797.232	628.918
413.496	23.827	797.106	628.130
414.511	24.018	796.631	628.374
415.526	24.013	796.050	627.843
416.540	24.111	795.496	627.697
417.555	23.989	795.068	626.872
418.569	23.499	794.517	624.658
419.584	23.646	793.641	624.428
420.599	23.623	793.468	624.157
421.613	155.221	1365.425	1795.047
422.628	134.425	1448.764	1795.136
