DTS Sentinel unit serial number:	SN413079Multiplexer serial number:	ORYXHardware model number:	OX4-SRSoftware version number:	ORYX F/W v4.00 Oryx Data Collector v3.7.2.0data status	okinstallation	princeton_trtdifferential loss correction	single-endedforward channel	channel 3reverse channel	N/Adate	2019/09/14time	05:12:34forward acquisition time	60.00reverse acquisition time	0.00gamma	496.2192k internal	0.2337k external	0.2337temperature offset calibration	1.0053default loss term (dB/km)	0.3790temperature slope calibration	1.0000multiplexer offset coefficient	1.0000multiplexer slope coefficient	1.0000fibre end	0.00T internal ref (°C)	26.92T ext. ref 1 (°C)	3.38T ext. ref 2 (°C)	21.97length (m)	temperature (°C)	Stokes	anti-Stokes-747.200	-168.337	0.247	-0.010
-746.185	-200.000	-0.041	-0.220
-745.171	-92.603	-0.106	-0.030
-744.156	800.000	-0.082	0.251
-743.142	-164.037	-0.031	0.001
-742.127	-200.000	-0.073	0.499
-741.112	-154.357	-0.504	-0.034
-740.098	-99.160	-0.217	0.055
-739.083	50.479	-0.074	0.071
-738.069	-106.117	-0.070	0.016
-737.054	157.179	0.074	0.102
-736.039	-98.972	-0.182	0.046
-735.025	-28.756	-0.027	-0.015
-734.010	379.712	0.024	-0.050
-732.996	-153.624	-0.203	0.014
-731.981	-21.695	-0.128	-0.078
-730.966	278.864	0.049	0.087
-729.952	-90.616	0.192	0.056
-728.937	-145.106	-0.106	-0.010
-727.923	-128.210	-0.225	-0.032
-726.908	42.559	0.130	-0.119
-725.894	98.894	0.247	0.286
-724.879	-175.837	-0.131	0.004
-723.864	-67.700	-0.355	0.140
-722.850	-145.784	-0.301	-0.027
-721.835	-79.827	-0.039	-0.013
-720.821	800.000	0.080	-0.299
-719.806	49.970	0.162	-0.153
-718.791	9.663	0.089	-0.067
-717.777	40.102	-0.177	0.160
-716.762	-30.888	0.404	-0.229
-715.748	265.911	-0.056	-0.098
-714.733	578.153	-0.072	-0.176
-713.718	473.942	-0.061	0.139
-712.704	134.922	-0.052	0.067
-711.689	82.671	0.090	-0.098
-710.675	-145.508	0.429	0.039
-709.660	266.421	0.091	-0.159
-708.645	161.115	-0.160	0.224
-707.631	-48.221	-0.225	-0.109
-706.616	800.000	0.064	-0.208
-705.602	-121.979	0.156	0.026
-704.587	-75.636	0.135	0.048
-703.572	-200.000	-0.059	-0.472
-702.558	-79.418	0.257	-0.087
-701.543	-185.975	-0.112	0.002
-700.529	300.593	-0.119	-0.219
-699.514	-200.000	-0.047	-0.208
-698.499	43.370	0.229	0.209
-697.485	410.069	-0.031	0.066
-696.470	206.609	0.028	0.043
-695.456	-31.363	0.119	0.067
-694.441	139.448	0.216	-0.284
-693.426	-48.336	0.464	0.224
-692.412	-97.112	-0.340	-0.089
-691.397	-79.191	0.171	-0.058
-690.383	-47.370	-0.223	0.109
-689.368	-2.676	-0.204	-0.143
-688.354	-200.000	0.008	-0.359
-687.339	116.218	-0.149	-0.183
-686.324	-169.086	0.217	0.008
-685.310	40.158	-0.193	-0.173
-684.295	37.005	-0.168	0.149
-683.281	78.970	-0.139	-0.149
-682.266	83.609	-0.115	0.126
-681.251	364.927	0.052	0.105
-680.237	172.321	-0.256	-0.369
-679.222	92.965	-0.160	-0.181
-678.208	59.414	-0.128	0.126
-677.193	348.778	0.116	0.230
-676.178	420.309	-0.098	0.210
-675.164	-200.000	-0.027	-0.132
-674.149	-23.162	-0.121	-0.073
-673.135	1.839	-0.181	0.130
-672.120	-92.020	-0.151	0.043
-671.105	-200.000	-0.007	0.086
-670.091	97.301	-0.189	-0.217
-669.076	800.000	-0.080	-0.335
-668.062	-200.000	-0.030	0.175
-667.047	-33.614	-0.184	-0.102
-666.032	-128.425	-0.298	-0.042
-665.018	156.611	0.239	0.330
-664.003	800.000	-0.050	0.189
-662.989	800.000	0.176	-0.556
-661.974	-130.763	0.209	0.028
-660.959	178.454	0.118	-0.172
-659.945	103.194	-0.067	0.079
-658.930	42.056	-0.191	-0.173
-657.916	-42.046	0.018	-0.009
-656.901	-200.000	-0.008	-0.329
-655.886	664.570	0.129	-0.333
-654.872	800.000	0.039	-0.140
-653.857	800.000	0.154	-0.491
-652.843	42.364	-0.136	-0.124
-651.828	116.332	0.142	-0.174
-650.814	658.342	0.020	-0.051
-649.799	799.472	0.106	0.294
-648.784	-142.022	-0.286	0.029
-647.770	-171.170	-0.252	-0.009
-646.755	-200.000	-0.035	-0.261
-645.741	-200.000	0.005	0.137
-644.726	800.000	0.102	-0.352
-643.711	800.000	0.098	0.333
-642.697	800.000	-0.024	0.071
-641.682	800.000	-0.015	0.062
-640.668	214.856	-0.159	-0.251
-639.653	242.686	0.130	-0.217
-638.638	29.516	-0.059	-0.050
-637.624	-110.689	-0.345	0.071
-636.609	-115.163	0.162	-0.031
-635.595	191.810	0.251	0.378
-634.580	-200.000	-0.006	0.036
-633.565	-43.060	-0.221	0.112
-632.551	-200.000	-0.035	-0.169
-631.536	800.000	-0.145	-0.432
-630.522	800.000	-0.049	0.140
-629.507	-47.633	-0.271	0.131
-628.492	-200.000	0.024	0.278
-627.478	13.107	0.041	0.032
-626.463	-178.655	0.309	-0.007
-625.449	78.900	-0.018	-0.019
-624.434	-40.914	0.180	-0.093
-623.419	53.469	-0.186	0.178
-622.405	-200.000	0.058	-0.378
-621.390	541.696	0.061	-0.144
-620.376	-194.679	-0.147	-0.001
-619.361	-112.884	-0.301	-0.060
-618.346	-145.028	-0.063	-0.006
-617.332	-200.000	0.017	-0.133
-616.317	50.812	-0.070	-0.066
-615.303	210.511	0.215	-0.338
-614.288	-14.373	-0.229	-0.147
-613.273	-99.214	-0.144	0.036
-612.259	30.002	-0.166	0.141
-611.244	-48.521	-0.280	0.135
-610.230	34.763	-0.109	0.095
-609.215	-53.079	0.108	-0.050
-608.201	-160.208	0.215	0.012
-607.186	153.267	-0.041	-0.057
-606.171	-83.221	0.239	-0.077
-605.157	-200.000	0.031	0.241
-604.142	146.943	0.241	0.323
-603.128	204.655	0.119	-0.184
-602.113	39.488	0.201	-0.180
-601.098	800.000	0.066	-0.231
-600.084	-131.873	-0.315	0.041
-599.069	76.050	0.044	0.047
-598.055	88.548	0.091	-0.101
-597.040	77.232	0.167	0.177
-596.025	-200.000	-0.034	-0.314
-595.011	-70.663	-0.441	-0.166
-593.996	-121.958	-0.314	-0.052
-592.982	800.000	-0.008	-0.024
-591.967	-144.035	0.095	0.009
-590.952	69.545	0.025	0.026
-589.938	-115.886	-0.194	0.036
-588.923	-80.436	0.261	0.087
-587.909	77.176	0.089	0.095
-586.894	-92.646	-0.238	-0.066
-585.879	202.132	-0.023	-0.035
-584.865	525.588	0.033	-0.079
-583.850	-187.557	0.148	0.002
-582.836	-170.950	0.186	0.006
-581.821	53.355	0.258	0.247
-580.806	131.865	-0.068	0.088
-579.792	-200.000	0.039	0.280
-578.777	-140.990	-0.096	-0.010
-577.763	290.885	0.223	-0.403
-576.748	-200.000	-0.075	0.345
-575.733	-126.313	0.144	0.021
-574.719	-18.971	-0.130	-0.081
-573.704	-103.342	0.226	-0.053
-572.690	-69.604	-0.320	-0.122
-571.675	-44.908	-0.243	-0.121
-570.661	-200.000	-0.077	-0.455
-569.646	609.654	0.114	-0.285
-568.631	357.380	-0.047	0.094
-567.617	-200.000	0.022	0.197
-566.602	800.000	0.048	-0.139
-565.588	78.021	-0.218	-0.231
-564.573	-4.844	-0.298	-0.204
-563.558	-15.783	-0.246	-0.156
-562.544	800.000	0.083	-0.286
-561.529	-14.270	-0.120	-0.077
-560.515	-62.008	-0.251	-0.105
-559.500	409.734	0.051	-0.107
-558.485	800.000	0.057	-0.178
-557.471	-66.945	-0.154	-0.060
-556.456	-27.682	0.118	-0.068
-555.442	-159.192	0.277	-0.016
-554.427	800.000	0.045	-0.178
-553.412	-113.882	-0.178	-0.034
-552.398	-200.000	0.026	0.319
-551.383	-0.563	0.045	-0.032
-550.369	-106.081	0.459	-0.103
-549.354	-200.000	0.026	0.213
-548.339	800.000	-0.091	-0.329
-547.325	-147.636	0.262	-0.022
-546.310	-167.382	-0.164	-0.007
-545.296	-200.000	-0.012	-0.107
-544.281	242.253	-0.063	-0.105
-543.266	262.071	-0.112	-0.193
-542.252	-200.000	0.045	0.200
-541.237	-71.503	0.278	0.103
-540.223	800.000	0.014	0.046
-539.208	-200.000	0.022	0.156
-538.193	68.946	0.166	-0.169
-537.179	-108.168	-0.292	-0.063
-536.164	-200.000	-0.015	0.202
-535.150	-16.196	-0.159	0.100
-534.135	1.456	-0.221	-0.158
-533.121	146.686	-0.107	-0.144
-532.106	-132.580	0.204	0.026
-531.091	-137.796	-0.182	-0.020
-530.077	-24.704	-0.286	0.169
-529.062	327.403	-0.073	-0.138
-528.048	-78.122	-0.112	0.038
-527.033	243.133	0.064	0.106
-526.018	-161.791	-0.166	0.008
-525.004	41.619	-0.167	0.150
-523.989	-200.000	0.105	0.522
-522.975	472.578	-0.210	-0.471
-521.960	-45.337	0.151	0.074
-520.945	-123.085	0.146	-0.023
-519.931	34.866	0.146	-0.127
-518.916	597.904	0.150	-0.371
-517.902	280.924	-0.068	0.121
-516.887	-16.350	-0.082	0.052
-515.872	11.123	0.184	-0.140
-514.858	764.337	-0.009	0.023
-513.843	-91.270	0.390	0.111
-512.829	-91.368	0.247	0.070
-511.814	-54.229	0.335	0.151
-510.799	-200.000	0.004	0.209
-509.785	239.334	0.145	0.240
-508.770	800.000	-0.093	-0.288
-507.756	519.664	-0.013	-0.030
-506.741	-18.447	0.242	0.150
-505.726	103.800	-0.286	0.334
-504.712	53.670	-0.168	-0.160
-503.697	-122.266	0.176	-0.029
-502.683	675.052	0.135	-0.348
-501.668	2.102	-0.127	-0.091
-500.653	10.528	-0.235	0.178
-499.639	569.692	-0.075	0.182
-498.624	-140.226	0.136	0.014
-497.610	-73.643	-0.300	0.108
-496.595	156.019	-0.343	-0.470
-495.581	-68.116	0.239	-0.092
-494.566	70.139	-0.136	0.139
-493.551	-107.856	-0.231	0.050
-492.537	663.079	-0.136	-0.350
-491.522	800.000	0.150	-0.424
-490.508	-200.000	-0.009	0.098
-489.493	193.238	0.127	0.191
-488.478	-157.433	-0.138	-0.008
-487.464	214.252	0.079	-0.125
-486.449	-133.147	-0.131	0.016
-485.435	-110.125	0.163	-0.034
-484.420	800.000	0.116	-0.373
-483.405	497.007	-0.102	0.233
-482.391	800.000	0.027	-0.104
-481.376	-125.711	0.334	0.050
-480.362	191.421	0.070	-0.105
-479.347	607.323	-0.115	-0.285
-478.332	62.506	0.138	-0.137
-477.318	-91.483	0.093	-0.026
-476.303	77.806	0.190	-0.201
-475.289	173.885	-0.091	-0.130
-474.274	30.480	-0.064	-0.055
-473.259	258.345	-0.112	0.192
-472.245	568.271	-0.087	0.210
-471.230	24.080	0.045	-0.037
-470.216	-37.168	-0.147	0.078
-469.201	-65.310	0.259	-0.103
-468.186	501.491	-0.019	0.044
-467.172	-200.000	-0.028	0.292
-466.157	89.724	-0.105	-0.116
-465.143	-200.000	-0.015	-0.124
-464.128	181.044	0.161	0.234
-463.113	-200.000	0.023	0.192
-462.099	800.000	-0.066	-0.266
-461.084	57.840	-0.268	-0.260
-460.070	-88.644	0.198	0.059
-459.055	-200.000	-0.029	0.159
-458.040	512.438	0.093	0.215
-457.026	174.312	-0.084	-0.120
-456.011	-37.681	0.144	0.076
-454.997	14.969	0.091	0.070
-453.982	-100.785	-0.073	-0.018
-452.968	304.101	-0.076	-0.140
-451.953	42.794	0.144	-0.130
-450.938	31.427	0.280	-0.239
-449.924	-96.068	0.059	0.016
-448.909	-85.845	-0.222	0.068
-447.895	241.066	0.117	0.193
-446.880	-33.143	-0.285	-0.157
-445.865	799.936	-0.042	-0.114
-444.851	75.929	-0.119	0.125
-443.836	800.000	0.115	0.319
-442.822	7.893	-0.267	0.199
-441.807	143.820	0.075	-0.099
-440.792	160.498	-0.279	-0.387
-439.778	-87.579	0.086	0.026
-438.763	-118.548	-0.108	-0.019
-437.749	-49.823	-0.196	-0.093
-436.734	42.664	-0.295	-0.266
-435.719	-181.129	0.122	0.002
-434.705	-200.000	0.022	0.463
-433.690	293.546	0.052	0.094
-432.676	76.789	0.208	-0.219
-431.661	416.126	-0.112	0.237
-430.646	-141.610	0.143	0.014
-429.632	-103.001	0.430	0.101
-428.617	141.257	-0.187	-0.245
-427.603	800.000	0.050	-0.167
-426.588	28.457	-0.222	-0.186
-425.573	-200.000	-0.031	0.206
-424.559	-133.421	-0.203	0.025
-423.544	800.000	0.081	0.225
-422.530	-21.406	0.287	0.174
-421.515	22.182	0.163	-0.132
-420.500	-73.411	0.184	0.067
-419.486	800.000	-0.090	0.318
-418.471	-60.608	0.320	0.134
-417.457	-21.553	-0.201	-0.121
-416.442	206.326	0.079	0.123
-415.428	70.569	-0.348	-0.357
-414.413	53.125	0.033	0.031
-413.398	50.278	-0.023	0.022
-412.384	97.434	0.371	0.422
-411.369	-200.000	0.026	-0.136
-410.355	6.156	-0.101	0.074
-409.340	759.295	0.059	0.158
-408.325	-32.876	0.193	-0.106
-407.311	-80.745	-0.067	0.022
-406.296	694.533	0.042	-0.108
-405.282	176.906	-0.040	-0.058
-404.267	-87.831	0.296	0.088
-403.252	-103.154	-0.309	-0.072
-402.238	-200.000	0.026	0.164
-401.223	376.184	-0.017	-0.035
-400.209	-200.000	-0.028	-0.239
-399.194	-200.000	0.015	0.187
-398.179	-200.000	0.014	0.067
-397.165	-200.000	0.176	-0.001
-396.150	426.081	0.051	0.108
-395.136	137.090	0.310	-0.401
-394.121	-200.000	-0.017	-0.196
-393.106	-33.966	0.076	-0.041
-392.092	-187.767	-0.142	-0.002
-391.077	-200.000	0.006	0.241
-390.063	10.568	-0.083	-0.063
-389.048	-149.167	0.456	-0.036
-388.033	800.000	0.095	-0.313
-387.019	-124.553	0.079	-0.012
-386.004	-77.505	-0.147	0.051
-384.990	250.725	-0.216	0.364
-383.975	800.000	0.082	-0.240
-382.960	-114.206	0.193	-0.037
-381.946	19.489	-0.220	0.175
-380.931	255.250	0.158	0.268
-379.917	-125.050	0.151	0.023
-378.902	-85.445	0.257	0.079
-377.888	-78.803	-0.097	-0.033
-376.873	-200.000	0.064	-0.423
-375.858	342.252	0.132	-0.256
-374.844	89.512	-0.144	-0.159
-373.829	-152.129	0.073	-0.005
-372.815	-91.253	-0.163	0.046
-371.800	-200.000	-0.023	-0.100
-370.785	-66.770	0.354	-0.139
-369.771	-135.664	-0.199	0.023
-368.756	-36.403	0.281	0.150
-367.742	800.000	-0.046	-0.128
-366.727	-200.000	0.028	-0.319
-365.712	96.879	0.063	0.071
-364.698	-25.712	0.279	-0.163
-363.683	13.781	0.157	0.120
-362.669	800.000	0.058	0.231
-361.654	31.950	0.189	0.161
-360.639	106.690	-0.009	-0.011
-359.625	101.736	0.125	-0.145
-358.610	9.777	-0.223	-0.167
-357.596	-54.314	-0.035	0.016
-356.581	11.337	-0.095	0.072
-355.566	-30.610	-0.248	-0.139
-354.552	800.000	-0.114	0.424
-353.537	34.949	-0.187	-0.162
-352.523	162.071	-0.139	-0.193
-351.508	375.205	0.057	-0.115
-350.493	-200.000	-0.023	0.135
-349.479	-47.698	0.061	-0.029
-348.464	800.000	0.038	0.159
-347.450	-200.000	0.001	0.099
-346.435	-70.141	-0.110	-0.041
-345.420	29.721	0.276	-0.232
-344.406	-68.514	-0.125	0.048
-343.391	125.116	0.130	-0.162
-342.377	17.816	-0.099	0.078
-341.362	11.346	-0.095	-0.072
-340.348	477.058	0.048	0.108
-339.333	-8.412	0.074	-0.049
-338.318	800.000	0.029	0.106
-337.304	800.000	-0.022	0.073
-336.289	-11.022	0.108	-0.071
-335.275	800.000	-0.054	0.154
-334.260	96.061	-0.181	0.204
-333.245	76.594	0.290	0.304
-332.231	711.919	0.155	0.406
-331.216	-87.597	0.184	0.055
-330.202	499.987	0.054	0.124
-329.187	-7.232	0.086	0.058
-328.172	300.665	0.172	-0.313
-327.158	46.420	-0.405	-0.371
-326.143	-200.000	-0.028	0.196
-325.129	-86.475	-0.138	-0.042
-324.114	312.341	-0.094	-0.174
-323.099	121.519	-0.175	0.216
-322.085	-72.377	-0.500	-0.183
-321.070	44.198	-0.196	0.177
-320.056	-200.000	-0.023	0.116
-319.041	-45.452	0.167	-0.082
-318.026	-200.000	-0.005	0.034
-317.012	757.510	0.118	0.315
-315.997	376.334	-0.055	-0.111
-314.983	-167.229	0.183	-0.007
-313.968	371.559	0.056	-0.113
-312.953	171.088	-0.210	0.297
-311.939	69.967	0.060	0.061
-310.924	-56.634	0.079	0.034
-309.910	-200.000	-0.031	0.176
-308.895	763.022	0.126	-0.339
-307.880	152.886	-0.185	-0.249
-306.866	-70.975	-0.191	0.071
-305.851	-26.260	0.271	0.157
-304.837	-147.551	-0.183	-0.015
-303.822	109.365	0.170	0.201
-302.807	409.256	0.216	0.451
-301.793	331.214	0.070	0.133
-300.778	800.000	0.111	-0.368
-299.764	-200.000	-0.015	-0.081
-298.749	158.576	0.032	0.044
-297.735	-200.000	0.047	-0.343
-296.720	-69.576	-0.464	-0.175
-295.705	-43.554	0.112	0.056
-294.691	800.000	0.067	0.210
-293.676	-75.591	-0.116	0.041
-292.662	266.312	0.081	0.140
-291.647	170.932	-0.069	-0.098
-290.632	-45.546	-0.180	-0.088
-289.618	-200.000	-0.009	0.140
-288.603	-50.304	-0.086	-0.040
-287.589	308.461	-0.169	0.310
-286.574	86.523	0.151	-0.164
-285.559	800.000	-0.074	0.226
-284.545	-11.499	0.065	0.042
-283.530	138.463	-0.143	0.185
-282.516	318.807	0.150	-0.280
-281.501	8.207	0.241	0.179
-280.486	328.990	0.047	-0.089
-279.472	91.568	0.185	0.205
-278.457	32.770	0.120	0.103
-277.443	-181.419	-0.121	-0.002
-276.428	170.644	0.066	-0.093
-275.413	-200.000	0.019	0.325
-274.399	800.000	-0.136	0.387
-273.384	-97.938	0.090	-0.023
-272.370	-142.761	0.183	0.018
-271.355	-21.890	-0.232	-0.139
-270.340	67.669	-0.138	-0.139
-269.326	486.219	-0.153	-0.343
-268.311	22.418	0.154	0.124
-267.297	347.387	-0.080	0.155
-266.282	800.000	0.016	-0.052
-265.267	176.150	0.070	-0.101
-264.253	800.000	-0.094	0.314
-263.238	32.761	-0.354	0.301
-262.224	514.263	0.041	-0.093
-261.209	-19.690	-0.149	0.091
-260.195	-99.635	0.507	-0.125
-259.180	109.091	0.326	0.384
-258.165	144.583	-0.119	0.157
-257.151	-103.294	-0.333	-0.077
-256.136	73.966	0.285	-0.294
-255.122	-200.000	0.052	-0.224
-254.107	-87.599	0.218	0.065
-253.092	344.362	-0.224	0.433
-252.078	-156.823	-0.187	-0.011
-251.063	429.002	-0.152	0.323
-250.049	-200.000	0.022	-0.328
-249.034	685.589	-0.105	-0.271
-248.019	800.000	-0.032	0.089
-247.005	-97.307	0.148	-0.038
-245.990	800.000	0.160	-0.458
-244.976	-73.322	0.084	-0.030
-243.961	11.216	-0.080	0.060
-242.946	-200.000	-0.016	-0.082
-241.932	800.000	-0.094	0.274
-240.917	-200.000	0.004	0.042
-239.903	244.891	0.046	-0.076
-238.888	-200.000	-0.103	0.518
-237.873	800.000	-0.044	0.186
-236.859	-200.000	-0.005	0.162
-235.844	-200.000	0.074	0.362
-234.830	34.859	-0.133	-0.114
-233.815	93.754	-0.183	0.204
-232.800	-129.757	-0.102	-0.014
-231.786	-16.861	0.056	0.035
-230.771	800.000	-0.100	0.279
-229.757	22.590	-0.284	-0.228
-228.742	134.813	0.087	0.111
-227.727	-200.000	0.017	-0.328
-226.713	-50.652	-0.228	-0.106
-225.698	-28.877	-0.133	-0.075
-224.684	-67.014	0.374	0.145
-223.669	-200.000	-0.016	-0.083
-222.655	-200.000	-0.008	-0.342
-221.640	-165.949	-0.228	0.010
-220.625	800.000	-0.050	-0.175
-219.611	-64.057	-0.113	0.045
-218.596	0.340	-0.407	0.286
-217.582	59.047	0.174	0.168
-216.567	498.872	-0.010	0.023
-215.552	-90.849	-0.231	0.065
-214.538	-200.000	-0.030	-0.168
-213.523	-100.379	0.238	-0.058
-212.509	800.000	-0.023	-0.063
-211.494	46.616	-0.240	0.219
-210.479	-200.000	-0.016	-0.096
-209.465	37.117	0.042	-0.036
-208.450	-155.601	0.178	-0.011
-207.436	239.022	0.093	0.152
-206.421	87.981	0.322	0.351
-205.406	265.824	0.110	0.188
-204.392	237.099	0.143	-0.233
-203.377	-125.922	0.358	0.053
-202.363	-57.577	-0.299	0.129
-201.348	800.000	0.051	-0.147
-200.333	494.603	0.111	-0.250
-199.319	-50.478	0.079	0.037
-198.304	-136.027	-0.185	0.021
-197.290	307.350	0.091	0.168
-196.275	800.000	0.049	-0.146
-195.260	-118.752	-0.192	0.033
-194.246	-200.000	0.001	-0.191
-193.231	-200.000	-0.012	-0.305
-192.217	40.434	0.035	-0.031
-191.202	90.919	-0.102	0.112
-190.187	-15.369	0.108	0.068
-189.173	295.867	0.076	-0.137
-188.158	31.504	0.317	0.267
-187.144	503.163	0.090	0.204
-186.129	-45.140	0.260	-0.127
-185.114	554.190	-0.017	0.040
-184.100	-178.968	-0.088	0.002
-183.085	-137.782	-0.154	-0.017
-182.071	-200.000	0.086	0.452
-181.056	-49.503	0.150	-0.070
-180.042	-103.700	0.204	-0.047
-179.027	-130.665	0.153	-0.020
-178.012	800.000	-0.057	0.218
-176.998	-79.946	-0.207	-0.068
-175.983	254.067	0.054	0.090
-174.969	-50.080	0.007	-0.003
-173.954	235.533	0.198	0.321
-172.939	-49.638	0.216	-0.101
-171.925	80.126	0.202	-0.214
-170.910	-200.000	-0.007	-0.105
-169.896	21.434	-0.239	-0.191
-168.881	71.419	0.140	0.143
-167.866	76.984	0.217	-0.227
-166.852	636.291	0.055	0.136
-165.837	71.100	0.163	-0.166
-164.823	-109.942	0.287	-0.059
-163.808	149.525	-0.129	0.171
-162.793	-200.000	-0.035	0.277
-161.779	-108.396	-0.430	0.091
-160.764	-50.511	-0.210	-0.097
-159.750	-200.000	-0.037	-0.467
-158.735	-96.916	0.186	-0.048
-157.720	65.760	-0.150	0.149
-156.706	-17.178	-0.290	0.180
-155.691	308.688	-0.111	0.204
-154.677	800.000	-0.056	-0.155
-153.662	60.777	-0.108	0.105
-152.647	-55.174	-0.199	0.088
-151.633	24.455	-0.060	0.048
-150.618	390.985	0.099	-0.201
-149.604	70.583	-0.113	0.115
-148.589	-60.360	-0.161	0.067
-147.574	425.175	0.119	-0.251
-146.560	800.000	-0.094	-0.280
-145.545	80.810	0.217	-0.229
-144.531	-200.000	0.025	0.119
-143.516	96.793	0.145	0.163
-142.502	-200.000	-0.050	-0.230
-141.487	15.502	-0.082	0.064
-140.472	118.967	-0.071	0.086
-139.458	77.426	0.074	0.077
-138.443	48.967	0.194	0.179
-137.429	-200.000	-0.019	0.230
-136.414	-75.371	-0.208	0.073
-135.399	-200.000	0.003	-0.129
-134.385	153.561	-0.091	-0.122
-133.370	-200.000	0.017	-0.167
-132.356	101.227	-0.266	0.303
-131.341	-200.000	-0.098	0.448
-130.326	-156.330	-0.187	0.012
-129.312	-28.421	-0.104	0.059
-128.297	-23.079	0.181	0.107
-127.283	-31.519	-0.179	-0.099
-126.268	-149.269	-0.244	-0.019
-125.253	100.100	-0.043	-0.049
-124.239	216.148	-0.063	-0.098
-123.224	-10.676	0.150	-0.097
-122.210	-47.519	-0.345	0.164
-121.195	41.507	0.150	0.133
-120.180	800.000	-0.043	0.174
-119.166	-79.205	-0.256	0.085
-118.151	-171.432	-0.293	0.010
-117.137	800.000	-0.034	0.096
-116.122	212.204	0.128	0.198
-115.107	-141.783	-0.060	-0.006
-114.093	-20.502	0.111	0.067
-113.078	-200.000	-0.017	0.124
-112.064	-200.000	0.003	-0.115
-111.049	-200.000	0.018	0.187
-110.034	449.959	-0.046	0.099
-109.020	800.000	0.011	-0.036
-108.005	-200.000	0.030	-0.229
-106.991	2.673	0.205	-0.145
-105.976	-86.090	-0.116	-0.035
-104.962	271.920	0.095	0.165
-103.947	-200.000	0.016	0.193
-102.932	-200.000	0.036	-0.336
-101.918	427.196	0.129	0.271
-100.903	48.954	-0.204	-0.187
-99.889	154.036	0.063	0.084
-98.874	189.860	0.110	-0.162
-97.859	-106.426	0.331	0.072
-96.845	175.905	0.047	0.067
-95.830	-56.891	0.303	0.131
-94.816	-86.794	-0.222	0.066
-93.801	238.386	0.107	0.174
-92.786	-39.059	-0.137	0.070
-91.772	-38.925	-0.232	0.120
-90.757	-130.293	0.363	-0.048
-89.743	3.239	-0.166	0.118
-88.728	326.855	-0.052	-0.097
-87.713	380.280	0.173	0.347
-86.699	-82.222	-0.344	-0.110
-85.684	88.859	-0.203	-0.221
-84.670	-48.688	0.107	0.050
-83.655	-150.113	-0.198	-0.015
-82.640	-200.000	0.038	-0.304
-81.626	-140.618	-0.074	0.008
-80.611	-175.764	0.216	0.006
-79.597	-200.000	0.056	-0.308
-78.582	-14.728	-0.088	0.055
-77.567	54.180	-0.215	-0.203
-76.553	-200.000	-0.004	-0.108
-75.538	225.853	0.057	0.091
-74.524	-68.325	0.272	-0.103
-73.509	-200.000	-0.028	-0.245
-72.494	-95.382	0.062	-0.016
-71.480	-62.550	0.361	0.147
-70.465	-200.000	-0.008	-0.061
-69.451	73.302	-0.179	0.183
-68.436	-200.000	-0.022	-0.311
-67.422	3.070	0.242	0.172
-66.407	204.678	-0.165	0.250
-65.392	144.667	-0.144	-0.188
-64.378	298.007	-0.104	0.187
-63.363	378.845	-0.028	-0.056
-62.349	800.000	-0.016	0.062
-61.334	91.994	-0.961	-1.057
-60.319	121.851	0.699	0.852
-59.305	800.000	-0.327	-1.142
-58.290	113.686	0.816	0.969
-57.276	550.607	0.671	1.573
-56.261	-200.000	116.203	662.645
-55.246	533.156	1532.742	3546.154
-54.232	176.390	2707.165	3842.996
-53.217	108.375	2182.971	2545.215
-52.203	37.890	1701.581	1477.444
-51.188	30.028	1517.723	1264.343
-50.173	27.749	1492.899	1228.298
-49.159	52.538	1552.227	1447.847
-48.144	50.405	1567.447	1447.377
-47.130	30.227	1522.901	1269.818
-46.115	27.155	1507.477	1236.054
-45.100	26.936	1504.331	1231.937
-44.086	27.038	1501.907	1230.594
-43.071	26.860	1500.426	1228.127
-42.057	26.872	1498.902	1226.911
-41.042	26.911	1497.729	1226.169
-40.027	26.832	1496.485	1224.568
-39.013	26.885	1493.970	1222.820
-37.998	26.773	1493.683	1221.782
-36.984	26.886	1492.019	1221.134
-35.969	26.863	1490.563	1219.736
-34.954	26.883	1489.132	1218.653
-33.940	26.873	1487.492	1217.196
-32.925	26.927	1486.359	1216.583
-31.911	26.939	1485.204	1215.668
-30.896	26.904	1484.331	1214.672
-29.881	26.971	1483.199	1214.143
-28.867	26.974	1481.348	1212.601
-27.852	26.977	1480.304	1211.718
-26.838	26.917	1478.921	1210.135
-25.823	26.956	1477.240	1208.972
-24.809	26.960	1475.454	1207.491
-23.794	26.872	1474.693	1206.236
-22.779	26.968	1472.753	1205.238
-21.765	26.936	1472.370	1204.661
-20.750	27.039	1470.563	1203.823
-19.736	27.018	1469.949	1203.131
-18.721	26.985	1468.648	1201.799
-17.706	26.967	1467.812	1200.949
-16.692	26.942	1466.258	1199.468
-15.677	26.983	1465.586	1199.138
-14.663	26.895	1464.628	1197.725
-13.648	26.813	1464.011	1196.635
-12.633	26.885	1462.596	1195.905
-11.619	26.903	1462.440	1195.850
-10.604	26.940	1460.997	1194.866
-9.590	26.943	1460.208	1194.188
-8.575	26.897	1459.115	1192.947
-7.560	26.994	1457.743	1192.414
-6.546	26.947	1457.512	1191.871
-5.531	26.956	1456.482	1191.037
-4.517	26.959	1455.666	1190.344
-3.502	26.910	1454.479	1189.005
-2.487	26.971	1453.705	1188.724
-1.473	26.923	1452.507	1187.387
-0.458	26.899	1451.544	1186.395
0.556	27.027	1442.310	1175.192
1.571	24.342	1416.167	1136.702
2.586	20.857	1355.367	1066.509
3.600	19.326	1272.152	992.136
4.615	18.117	1226.691	949.885
5.629	15.501	1170.563	892.454
6.644	8.937	1089.400	797.935
7.659	3.964	1052.877	747.154
8.673	3.309	1047.787	740.324
9.688	3.392	1044.280	738.180
10.702	3.343	1042.654	736.733
11.717	3.466	1041.072	736.138
12.731	5.168	1041.853	744.747
13.746	11.671	1051.094	782.502
14.761	17.879	1059.144	818.277
15.775	19.533	1060.294	827.025
16.790	19.129	1058.707	823.781
17.804	18.099	1056.496	817.067
18.819	17.237	1054.929	811.667
19.834	16.882	1053.352	808.687
20.848	16.540	1053.244	806.904
21.863	16.435	1052.404	805.684
22.877	16.188	1051.617	803.835
23.892	16.057	1050.432	802.236
24.907	15.991	1049.913	801.453
25.921	16.059	1048.691	800.775
26.936	16.077	1048.388	800.557
27.950	16.100	1047.149	799.649
28.965	16.067	1046.128	798.641
29.980	16.130	1045.179	798.145
30.994	16.280	1043.935	797.833
32.009	16.355	1042.794	797.245
33.023	16.360	1042.628	797.070
34.038	16.269	1041.759	795.909
35.053	16.274	1040.754	795.095
36.067	16.202	1039.483	793.712
37.082	16.177	1039.140	793.262
38.096	16.169	1038.190	792.429
39.111	16.331	1037.403	792.520
40.126	16.353	1036.650	791.978
41.140	16.250	1035.226	790.336
42.155	16.047	1033.980	788.368
43.169	15.862	1033.200	786.836
44.184	15.861	1031.713	785.629
45.199	15.892	1030.703	784.935
46.213	15.922	1029.711	784.250
47.228	15.933	1029.107	783.775
48.242	16.061	1028.335	783.710
49.257	16.210	1027.347	783.582
50.271	16.176	1026.250	782.518
51.286	16.202	1025.049	781.654
52.301	16.169	1024.638	781.116
53.315	16.203	1024.264	780.922
54.330	16.202	1022.970	779.860
55.344	15.900	1022.486	778.026
56.359	15.942	1021.298	777.246
57.374	16.097	1019.959	776.873
58.388	16.148	1019.344	776.571
59.403	15.813	1019.233	774.875
60.417	15.814	1018.542	774.285
61.432	15.762	1017.363	773.082
62.447	15.910	1016.122	772.751
63.461	15.741	1015.841	771.692
64.476	15.748	1014.754	770.832
65.490	15.783	1013.483	769.958
66.505	15.848	1012.762	769.639
67.520	15.594	1012.307	768.066
68.534	15.827	1011.377	768.354
69.549	15.918	1010.404	767.965
70.563	15.651	1010.280	766.581
71.578	15.881	1008.937	766.545
72.593	15.685	1008.597	765.328
73.607	15.661	1006.841	763.818
74.622	15.679	1006.072	763.249
75.636	15.652	1005.094	762.317
76.651	15.708	1004.759	762.247
77.666	15.627	1003.754	761.050
78.680	15.721	1003.122	760.929
79.695	15.850	1002.479	760.957
80.709	15.741	1001.880	759.945
81.724	15.837	1001.071	759.697
82.739	15.856	1000.560	759.329
83.753	15.935	1000.206	759.348
84.768	16.047	999.266	759.073
85.782	16.267	998.645	759.521
86.797	16.341	998.179	759.432
87.812	16.572	996.663	759.247
88.826	16.377	995.762	757.620
89.841	16.096	995.814	756.335
90.855	16.262	994.530	756.037
91.870	16.345	994.163	756.062
92.884	16.410	993.358	755.674
93.899	16.380	992.663	754.942
94.914	16.473	991.338	754.282
95.928	16.372	991.352	753.778
96.943	16.448	990.511	753.409
97.957	16.386	989.670	752.426
98.972	16.428	988.497	751.654
99.987	16.310	988.191	750.829
101.001	16.387	987.292	750.425
102.016	16.272	986.749	749.432
103.030	16.359	984.939	748.379
104.045	16.392	983.673	747.496
105.060	16.367	983.552	747.226
106.074	16.209	982.530	745.688
107.089	16.062	981.434	744.140
108.103	15.991	980.640	743.157
109.118	15.784	979.835	741.572
110.133	15.887	978.531	740.972
111.147	15.911	977.915	740.546
112.162	15.860	976.801	739.412
113.176	15.962	976.189	739.334
114.191	16.006	975.418	738.878
115.206	16.026	974.675	738.334
116.220	16.097	973.504	737.694
117.235	15.993	972.983	736.780
118.249	15.931	972.734	736.254
119.264	15.922	971.488	735.207
120.279	15.827	970.899	734.281
121.293	15.953	969.576	733.763
122.308	15.795	969.012	732.582
123.322	15.755	968.457	731.925
124.337	15.733	967.318	730.906
125.352	15.779	965.986	730.034
126.366	15.658	964.769	728.523
127.381	15.734	963.290	727.674
128.395	15.708	962.768	727.101
129.410	15.691	961.687	726.148
130.424	15.908	960.897	726.423
131.439	15.819	959.991	725.288
132.454	15.855	959.345	724.894
133.468	15.981	959.011	725.118
134.483	16.059	957.736	724.424
135.497	15.950	957.708	723.873
136.512	15.934	956.809	723.057
137.527	16.081	955.264	722.459
138.541	15.885	955.299	721.579
139.556	15.951	954.508	721.202
140.570	16.015	953.504	720.654
141.585	16.068	953.172	720.564
142.600	16.183	952.810	720.718
143.614	16.282	951.982	720.453
144.629	16.282	951.221	719.812
145.643	16.328	950.673	719.529
146.658	16.280	949.537	718.403
147.673	16.258	948.451	717.423
148.687	16.225	947.178	716.258
149.702	16.130	946.468	715.254
150.716	15.980	945.651	713.936
151.731	16.080	944.654	713.544
152.746	16.134	943.900	713.140
153.760	16.050	943.448	712.380
154.775	16.063	942.599	711.730
155.789	16.140	942.075	711.597
156.804	16.294	941.042	711.402
157.819	16.359	940.359	711.099
158.833	16.234	939.778	710.071
159.848	16.311	939.083	709.804
160.862	16.411	938.991	710.093
161.877	16.395	938.077	709.273
162.892	16.166	936.936	707.387
163.906	16.239	935.613	706.629
164.921	16.055	934.870	705.235
165.935	16.161	934.084	705.024
166.950	16.192	933.113	704.358
167.964	16.302	932.088	703.983
168.979	16.324	931.009	703.198
169.994	16.277	930.120	702.267
171.008	16.152	929.350	701.105
172.023	16.274	928.454	700.870
173.037	16.300	928.081	700.636
174.052	16.569	927.018	700.888
175.067	16.406	926.363	699.655
176.081	16.244	925.432	698.219
177.096	16.202	924.977	697.640
178.110	16.160	924.124	696.764
179.125	16.220	923.245	696.286
180.140	16.253	922.324	695.668
181.154	16.178	922.023	695.068
182.169	16.326	921.389	695.136
183.183	16.458	920.943	695.284
184.198	16.567	920.106	695.037
185.213	16.494	919.326	694.088
186.227	16.586	918.428	693.724
187.242	16.661	918.172	693.779
188.256	16.681	917.433	693.241
189.271	16.657	917.374	693.033
190.286	16.779	916.458	692.780
191.300	16.546	915.609	691.127
192.315	16.306	914.663	689.370
193.329	16.005	914.096	687.655
194.344	16.236	913.356	687.977
195.359	16.182	912.931	687.377
196.373	16.263	912.668	687.448
197.388	16.360	912.300	687.507
198.402	16.529	911.763	687.725
199.417	16.672	911.021	687.686
200.432	16.727	910.881	687.745
201.446	16.943	910.053	687.935
202.461	17.019	909.851	688.029
203.475	16.933	909.407	687.283
204.490	16.913	908.492	686.451
205.504	16.806	907.470	685.184
206.519	16.669	906.563	683.887
207.534	16.803	905.945	683.903
208.548	16.752	905.040	682.951
209.563	16.763	904.494	682.525
210.577	16.806	903.862	682.159
211.592	16.892	902.809	681.650
212.607	16.938	903.021	681.932
213.621	17.021	902.159	681.557
214.636	17.120	901.510	681.403
215.650	16.784	901.236	679.789
216.665	16.949	900.305	679.687
217.680	17.017	899.872	679.573
218.694	17.097	899.008	679.178
219.709	17.086	898.989	679.060
220.723	17.167	898.539	678.985
221.738	17.007	897.776	677.709
222.753	16.961	896.908	676.808
223.767	17.033	896.146	676.461
224.782	17.067	895.552	676.091
225.796	17.133	894.932	675.824
226.811	17.192	894.238	675.475
227.826	17.146	893.418	674.614
228.840	17.155	892.472	673.873
229.855	17.055	892.010	673.069
230.869	16.951	891.230	672.012
231.884	17.038	891.198	672.273
232.899	16.894	890.400	671.041
233.913	16.922	889.522	670.430
234.928	17.057	888.702	670.286
235.942	16.858	888.084	668.976
236.957	16.954	887.298	668.703
237.972	16.900	886.542	667.859
238.986	16.949	885.759	667.403
240.001	16.852	885.482	666.754
241.015	16.851	884.940	666.283
242.030	17.114	884.237	666.729
243.045	17.027	883.640	665.876
244.059	17.088	883.219	665.740
245.074	17.071	882.538	665.101
246.088	17.156	881.888	664.886
247.103	17.119	881.463	664.363
248.117	17.368	880.716	664.712
249.132	17.269	880.356	663.996
250.147	17.438	879.819	664.193
251.161	17.692	879.012	664.513
252.176	17.808	878.459	664.491
253.190	17.702	877.579	663.354
254.205	17.858	877.395	663.763
255.220	17.817	877.043	663.279
256.234	17.871	875.919	662.577
257.249	17.708	875.668	661.695
258.263	17.746	874.935	661.233
259.278	17.837	874.425	661.141
260.293	17.785	874.102	660.638
261.307	17.902	873.462	660.547
262.322	17.826	873.074	659.902
263.336	17.863	872.263	659.372
264.351	17.975	871.631	659.268
265.366	17.944	871.166	658.739
266.380	17.892	870.362	657.874
267.395	18.021	869.775	657.866
268.409	17.969	868.856	656.917
269.424	18.108	867.551	656.402
270.439	17.810	867.616	655.249
271.453	17.896	866.721	654.846
272.468	17.777	866.217	653.950
273.482	17.807	865.308	653.323
274.497	17.878	864.701	653.078
275.512	17.924	863.735	652.464
276.526	17.809	863.167	651.541
277.541	17.980	862.545	651.665
278.555	17.829	861.970	650.599
279.570	17.962	861.530	650.714
280.585	17.922	861.506	650.488
281.599	18.159	860.571	650.623
282.614	17.931	860.080	649.328
283.628	17.883	859.478	648.635
284.643	17.910	859.000	648.320
285.657	17.974	858.546	648.162
286.672	17.965	857.831	647.531
287.687	18.093	857.117	647.418
288.701	18.011	856.682	646.723
289.716	18.015	856.204	646.318
290.730	18.049	855.774	646.068
291.745	18.075	855.253	645.714
292.760	18.069	853.818	644.551
293.774	18.180	853.704	644.826
294.789	18.354	852.744	644.700
295.803	18.265	852.330	643.995
296.818	18.088	851.975	643.005
297.833	18.089	851.269	642.419
298.847	18.053	850.646	641.757
299.862	18.084	849.556	640.993
300.876	18.217	849.215	641.178
301.891	18.319	848.455	640.929
302.906	18.336	848.146	640.703
303.920	18.455	847.420	640.541
304.935	18.413	846.857	639.903
305.949	18.526	846.083	639.684
306.964	18.552	845.701	639.435
307.979	18.554	844.934	638.805
308.993	18.441	844.596	638.073
310.008	18.390	844.116	637.465
311.022	18.654	843.455	637.889
312.037	18.537	843.242	637.236
313.052	18.321	842.629	635.916
314.066	18.370	841.561	635.235
315.081	18.326	841.202	634.746
316.095	18.349	840.390	634.160
317.110	18.232	839.915	633.314
318.125	18.272	839.319	632.957
319.139	18.388	839.002	633.091
320.154	18.204	838.747	632.160
321.168	18.318	838.116	632.050
322.183	18.262	837.646	631.435
323.197	18.352	837.053	631.263
324.212	18.408	836.612	631.080
325.227	18.503	836.500	631.291
326.241	18.419	835.460	630.140
327.256	18.447	834.695	629.611
328.270	18.362	834.050	628.757
329.285	18.414	834.054	628.894
330.300	18.490	833.000	628.324
331.314	18.353	832.406	627.318
332.329	18.412	831.754	626.986
333.343	18.539	831.263	627.024
334.358	18.712	830.947	627.363
335.373	18.788	830.291	627.090
336.387	18.649	829.568	625.982
337.402	18.690	829.248	625.835
338.416	18.748	829.007	625.807
339.431	18.739	828.209	625.120
340.446	18.919	827.533	625.208
341.460	19.120	826.961	625.452
342.475	18.973	826.629	624.611
343.489	18.865	826.448	624.023
344.504	19.017	825.538	623.832
345.519	19.118	824.923	623.679
346.533	19.256	824.428	623.751
347.548	19.178	824.463	623.438
348.562	18.963	823.683	622.018
349.577	19.007	823.138	621.711
350.592	18.782	822.189	620.126
351.606	18.644	821.898	619.354
352.621	18.738	821.441	619.294
353.635	18.669	821.037	618.683
354.650	18.773	820.877	618.885
355.665	18.830	820.352	618.638
356.679	18.869	819.962	618.430
357.694	19.005	819.334	618.389
358.708	19.075	819.030	618.357
359.723	19.192	818.191	618.089
360.738	18.880	817.918	616.711
361.752	19.007	817.181	616.553
362.767	19.065	816.953	616.535
363.781	19.065	816.883	616.427
364.796	19.193	815.933	616.114
365.810	19.301	815.486	616.110
366.825	19.416	815.411	616.407
367.840	19.306	815.219	615.816
368.854	19.386	814.652	615.619
369.869	19.323	814.036	614.873
370.883	19.409	813.205	614.499
371.898	19.283	812.644	613.573
372.913	19.310	812.333	613.378
373.927	19.489	811.594	613.401
374.942	19.487	811.057	612.934
375.956	19.424	810.220	612.025
376.971	19.496	809.815	611.921
377.986	19.606	809.341	611.898
379.000	19.665	808.513	611.427
380.015	19.616	808.403	611.116
381.029	19.506	807.658	610.111
382.044	19.544	807.317	609.931
383.059	19.589	806.889	609.713
384.073	19.693	806.464	609.705
385.088	19.569	805.787	608.703
386.102	19.495	804.775	607.625
387.117	19.576	804.130	607.368
388.132	19.488	803.767	606.732
389.146	19.393	803.523	606.160
390.161	19.370	803.399	605.931
391.175	19.459	803.175	606.022
392.190	19.672	802.670	606.336
393.205	19.547	802.243	605.518
394.219	19.563	801.344	604.842
395.234	19.526	800.853	604.291
396.248	19.398	800.649	603.634
397.263	19.423	799.829	603.049
398.278	19.365	799.126	602.266
399.292	19.424	798.661	602.067
400.307	19.350	798.570	601.687
401.321	19.333	798.286	601.361
402.336	19.374	798.360	601.505
403.350	19.619	797.318	601.522
404.365	19.584	797.001	601.105
405.380	19.668	796.679	601.103
406.394	19.635	796.366	600.698
407.409	19.863	795.687	600.924
408.423	19.828	795.357	600.501
409.438	19.956	794.887	600.537
410.453	19.950	794.506	600.174
411.467	19.934	794.181	599.820
412.482	19.878	793.738	599.240
413.496	19.983	793.260	599.188
414.511	20.163	792.837	599.439
415.526	20.184	792.457	599.170
416.540	20.122	792.243	598.741
417.555	20.051	791.678	598.016
418.569	20.218	790.825	597.896
419.584	20.172	790.347	597.322
420.599	20.147	790.245	597.106
421.613	161.656	1371.243	1796.794
422.628	140.018	1455.890	1796.874
