DTS Sentinel unit serial number:	SN413079Multiplexer serial number:	ORYXHardware model number:	OX4-SRSoftware version number:	ORYX F/W v4.00 Oryx Data Collector v3.7.2.0data status	okinstallation	princeton_trtdifferential loss correction	single-endedforward channel	channel 3reverse channel	N/Adate	2019/09/13time	01:00:34forward acquisition time	60.00reverse acquisition time	0.00gamma	496.2192k internal	0.2332k external	0.2332temperature offset calibration	1.0119default loss term (dB/km)	0.3790temperature slope calibration	1.0000multiplexer offset coefficient	1.0000multiplexer slope coefficient	1.0000fibre end	0.00T internal ref (°C)	28.06T ext. ref 1 (°C)	3.68T ext. ref 2 (°C)	22.61length (m)	temperature (°C)	Stokes	anti-Stokes-747.200	-200.000	-0.022	0.371
-746.185	212.487	0.216	-0.343
-745.171	-200.000	-0.015	-0.218
-744.156	1.640	-0.261	0.189
-743.142	-200.000	0.002	-0.050
-742.127	-118.215	-0.048	-0.009
-741.112	-200.000	-0.037	-0.219
-740.098	-49.680	-0.458	0.219
-739.083	-129.152	-0.147	-0.021
-738.069	-31.803	0.236	0.133
-737.054	62.428	-0.149	0.149
-736.039	19.295	-0.329	-0.265
-735.025	-200.000	-0.020	0.272
-734.010	-200.000	-0.012	0.113
-732.996	-97.375	-0.091	0.024
-731.981	-200.000	0.006	0.144
-730.966	49.880	-0.190	-0.180
-729.952	-146.838	-0.036	0.003
-728.937	-141.181	-0.205	0.021
-727.923	-200.000	0.006	0.137
-726.908	5.887	-0.137	-0.102
-725.894	-17.975	0.162	-0.102
-724.879	-200.000	-0.080	0.587
-723.864	162.247	-0.062	-0.087
-722.850	-200.000	0.001	-0.020
-721.835	-41.618	0.088	0.046
-720.821	423.394	-0.060	-0.131
-719.806	-117.271	0.245	0.045
-718.791	-187.741	0.167	0.002
-717.777	143.645	-0.024	0.032
-716.762	-200.000	0.002	-0.098
-715.748	138.756	-0.119	-0.157
-714.733	-1.677	-0.222	-0.157
-713.718	800.000	-0.024	-0.093
-712.704	20.954	0.272	-0.222
-711.689	800.000	0.158	-0.455
-710.675	-58.864	-0.044	-0.019
-709.660	710.354	0.139	-0.369
-708.645	293.874	0.160	-0.294
-707.631	-121.347	-0.252	-0.042
-706.616	-200.000	-0.052	-0.251
-705.602	102.649	0.056	0.066
-704.587	-103.400	0.243	-0.058
-703.572	-24.219	0.200	-0.120
-702.558	-49.529	-0.104	-0.050
-701.543	-200.000	0.007	-0.097
-700.529	-200.000	0.010	0.240
-699.514	-200.000	-0.000	0.093
-698.499	-8.148	-0.029	0.019
-697.485	-200.000	0.004	0.088
-696.470	96.886	0.207	-0.238
-695.456	-200.000	0.022	-0.264
-694.441	8.203	-0.156	0.118
-693.426	22.406	0.118	-0.097
-692.412	95.271	0.119	-0.136
-691.397	13.351	-0.343	-0.267
-690.383	-200.000	0.006	0.292
-689.368	498.876	0.091	0.210
-688.354	133.349	0.087	0.113
-687.339	-76.014	-0.026	0.009
-686.324	-200.000	0.003	-0.295
-685.310	800.000	0.064	0.194
-684.295	78.534	-0.076	0.082
-683.281	-9.248	-0.299	-0.201
-682.266	-200.000	-0.021	-0.175
-681.251	16.920	-0.158	0.125
-680.237	292.993	0.014	-0.025
-679.222	800.000	0.053	-0.221
-678.208	279.048	-0.070	-0.125
-677.193	-34.896	-0.201	0.110
-676.178	-200.000	-0.039	-0.448
-675.164	-200.000	-0.010	-0.233
-674.149	-200.000	-0.011	-0.102
-673.135	800.000	-0.117	-0.363
-672.120	133.824	0.128	0.167
-671.105	386.261	-0.033	-0.068
-670.091	294.488	-0.092	0.168
-669.076	108.266	-0.108	-0.129
-668.062	-54.434	-0.192	0.087
-667.047	-168.398	-0.116	0.004
-666.032	150.600	-0.245	-0.334
-665.018	-200.000	0.024	-0.202
-664.003	-44.562	0.422	0.211
-662.989	55.410	0.022	0.021
-661.974	498.370	-0.018	0.042
-660.959	-122.369	-0.342	-0.056
-659.945	-200.000	-0.034	0.151
-658.930	100.867	0.120	-0.139
-657.916	-200.000	0.001	-0.302
-656.901	-200.000	-0.037	-0.224
-655.886	-200.000	0.011	-0.109
-654.872	-49.562	-0.143	-0.068
-653.857	237.537	-0.057	-0.094
-652.843	800.000	0.076	0.253
-651.828	-25.990	0.061	-0.036
-650.814	18.190	-0.141	-0.113
-649.799	-35.231	-0.277	-0.151
-648.784	45.800	0.223	-0.207
-647.770	424.140	0.129	0.278
-646.755	161.198	-0.093	-0.130
-645.741	-200.000	-0.010	-0.195
-644.726	-15.744	0.155	-0.099
-643.711	-43.538	-0.339	0.171
-642.697	39.534	0.179	0.161
-641.682	424.607	-0.073	0.158
-640.668	-200.000	0.056	0.272
-639.653	130.712	-0.314	0.403
-638.638	320.735	-0.062	-0.118
-637.624	71.674	-0.115	-0.119
-636.609	-64.963	-0.419	-0.170
-635.595	-71.568	0.303	0.113
-634.580	362.956	-0.049	0.098
-633.565	87.075	0.031	0.034
-632.551	521.867	-0.154	-0.361
-631.536	-22.396	-0.037	-0.022
-630.522	3.279	0.150	0.109
-629.507	-200.000	-0.008	0.152
-628.492	-200.000	0.051	-0.416
-627.478	179.119	0.137	-0.200
-626.463	-200.000	0.033	-0.402
-625.449	52.935	0.075	-0.072
-624.434	505.567	0.104	-0.242
-623.419	175.955	0.233	-0.338
-622.405	-200.000	0.076	0.366
-621.390	-2.500	-0.100	0.070
-620.376	-158.119	0.202	-0.012
-619.361	531.859	0.044	-0.104
-618.346	-200.000	-0.002	0.114
-617.332	-65.655	0.149	0.060
-616.317	800.000	-0.118	0.379
-615.303	-91.535	-0.174	0.050
-614.288	-127.273	0.213	0.031
-613.273	-33.994	0.287	0.158
-612.259	81.376	-0.175	0.189
-611.244	-200.000	0.013	0.083
-610.230	89.843	-0.213	0.238
-609.215	-200.000	-0.008	-0.189
-608.201	-13.578	0.189	-0.122
-607.186	800.000	-0.033	0.109
-606.171	147.374	0.077	-0.103
-605.157	-5.178	0.377	-0.260
-604.142	268.358	0.148	-0.259
-603.128	118.141	-0.053	-0.066
-602.113	-150.530	0.172	-0.013
-601.098	608.520	0.212	0.529
-600.084	574.901	0.022	-0.053
-599.069	654.677	0.030	0.077
-598.055	78.908	-0.112	0.120
-597.040	-70.559	0.176	-0.067
-596.025	-99.622	-0.150	-0.038
-595.011	-102.661	0.205	-0.049
-593.996	-39.044	-0.072	0.038
-592.982	-140.632	-0.093	-0.010
-591.967	48.264	-0.262	-0.245
-590.952	-200.000	0.016	0.311
-589.938	-200.000	0.027	0.238
-588.923	23.644	0.250	0.205
-587.909	-128.966	-0.036	0.005
-586.894	386.014	-0.133	0.274
-585.879	157.737	0.043	-0.059
-584.865	-200.000	-0.007	0.158
-583.850	-145.615	-0.413	-0.037
-582.836	-103.809	-0.199	0.047
-581.821	-107.130	0.280	0.062
-580.806	-153.603	0.152	0.011
-579.792	167.275	-0.200	0.284
-578.777	526.343	-0.064	-0.150
-577.763	-70.651	-0.014	-0.005
-576.748	510.155	-0.218	-0.506
-575.733	56.802	-0.197	0.192
-574.719	664.949	0.029	-0.076
-573.704	-71.645	0.493	-0.184
-572.690	-199.757	0.201	0.001
-571.675	-115.723	-0.080	0.015
-570.661	-129.692	-0.301	-0.041
-569.646	356.019	-0.031	-0.062
-568.631	360.284	-0.141	0.283
-567.617	-200.000	-0.078	-0.463
-566.602	-71.340	-0.108	-0.041
-565.588	-130.805	0.164	0.022
-564.573	101.175	0.123	0.144
-563.558	-200.000	0.015	-0.279
-562.544	-19.900	-0.282	-0.174
-561.529	-122.657	0.398	-0.064
-560.515	29.266	0.394	-0.334
-559.500	-159.053	0.094	-0.005
-558.485	-200.000	0.040	-0.246
-557.471	-200.000	-0.001	0.268
-556.456	40.136	0.159	0.143
-555.442	592.095	0.071	0.175
-554.427	17.815	0.078	-0.062
-553.412	-200.000	0.010	-0.154
-552.398	-16.282	0.217	0.138
-551.383	-104.481	0.148	-0.034
-550.369	-200.000	-0.010	-0.175
-549.354	-14.069	-0.190	0.123
-548.339	-91.361	0.113	0.032
-547.325	-156.328	0.251	0.016
-546.310	481.573	-0.057	0.130
-545.296	-147.637	0.168	0.014
-544.281	-74.263	-0.155	-0.056
-543.266	-71.168	-0.291	0.109
-542.252	570.079	0.070	-0.170
-541.237	-136.503	-0.154	0.018
-540.223	800.000	-0.044	-0.160
-539.208	-185.127	-0.419	0.007
-538.193	-169.467	-0.094	-0.003
-537.179	-45.577	-0.366	-0.181
-536.164	256.557	0.083	0.142
-535.150	-70.019	-0.329	-0.125
-534.135	-200.000	0.000	0.013
-533.121	-107.552	-0.254	0.055
-532.106	-200.000	-0.038	0.273
-531.091	679.684	0.100	-0.259
-530.077	-21.199	0.009	-0.006
-529.062	-200.000	0.014	-0.189
-528.048	291.375	-0.042	0.077
-527.033	172.565	0.116	0.167
-526.018	-48.101	-0.193	-0.093
-525.004	296.488	-0.075	-0.137
-523.989	308.236	0.143	-0.266
-522.975	-98.311	-0.215	0.055
-521.960	-200.000	-0.211	-0.000
-520.945	-200.000	-0.003	-0.164
-519.931	800.000	-0.080	-0.272
-518.916	87.521	-0.036	-0.040
-517.902	6.880	-0.242	0.180
-516.887	-40.012	-0.224	0.117
-515.872	-200.000	-0.023	-0.481
-514.858	-57.858	-0.188	0.082
-513.843	45.140	0.273	0.251
-512.829	-139.146	-0.313	0.034
-511.814	-102.884	-0.147	0.035
-510.799	107.872	-0.073	-0.087
-509.785	96.749	0.232	0.265
-508.770	800.000	-0.084	-0.284
-507.756	-41.051	0.141	0.073
-506.741	-200.000	0.019	-0.289
-505.726	-36.176	0.316	-0.170
-504.712	15.750	0.142	0.111
-503.697	168.095	0.144	0.204
-502.683	-58.802	0.088	0.038
-501.668	177.010	-0.112	0.163
-500.653	-96.557	-0.221	0.058
-499.639	800.000	0.088	0.358
-498.624	150.565	-0.147	0.199
-497.610	-200.000	-0.021	-0.530
-496.595	86.619	-0.215	-0.236
-495.581	-200.000	-0.015	-0.161
-494.566	10.322	-0.075	0.057
-493.551	17.586	-0.216	-0.171
-492.537	800.000	0.055	0.217
-491.522	90.720	0.102	-0.114
-490.508	609.443	0.111	-0.276
-489.493	-137.448	-0.175	-0.020
-488.478	-67.164	0.296	0.116
-487.464	259.770	0.055	0.095
-486.449	-200.000	0.015	0.174
-485.435	-200.000	-0.071	0.346
-484.420	-200.000	-0.010	0.293
-483.405	-21.827	-0.227	0.137
-482.391	-23.996	-0.219	-0.130
-481.376	800.000	-0.032	-0.099
-480.362	-69.915	0.173	0.066
-479.347	56.829	0.129	-0.125
-478.332	-200.000	-0.047	-0.233
-477.318	11.519	0.112	-0.086
-476.303	67.133	0.158	0.160
-475.289	-15.027	-0.140	-0.089
-474.274	-107.579	0.286	-0.062
-473.259	93.721	-0.169	-0.191
-472.245	234.971	-0.091	0.150
-471.230	-200.000	0.009	-0.091
-470.216	63.985	-0.074	-0.074
-469.201	206.950	-0.206	0.320
-468.186	-200.000	0.004	0.209
-467.172	66.295	0.227	0.229
-466.157	-200.000	0.050	-0.344
-465.143	290.920	-0.124	-0.224
-464.128	-92.521	-0.146	0.041
-463.113	-93.218	-0.159	-0.044
-462.099	-73.868	-0.113	-0.041
-461.084	-55.873	-0.365	0.162
-460.070	-132.535	-0.139	0.018
-459.055	-177.435	0.175	0.004
-458.040	-95.120	0.218	-0.059
-457.026	800.000	0.117	0.381
-456.011	-169.698	0.231	-0.008
-454.997	19.357	0.188	-0.150
-453.982	310.036	-0.046	0.086
-452.968	-119.763	0.264	0.045
-451.953	-200.000	-0.037	0.177
-450.938	-22.569	0.080	0.048
-449.924	-14.045	-0.334	-0.214
-448.909	314.769	-0.145	-0.272
-447.895	55.428	0.485	-0.467
-446.880	-179.059	-0.039	0.001
-445.865	-23.869	0.161	-0.096
-444.851	-75.499	0.227	0.080
-443.836	26.567	0.054	-0.045
-442.822	-138.726	-0.248	0.027
-441.807	-148.457	0.219	-0.018
-440.792	-66.552	0.082	-0.032
-439.778	183.490	-0.120	-0.177
-438.763	463.680	-0.037	-0.082
-437.749	-152.790	0.153	-0.011
-436.734	299.632	0.142	0.261
-435.719	-7.687	0.062	0.042
-434.705	-2.089	-0.156	-0.109
-433.690	-200.000	0.064	0.308
-432.676	7.113	0.306	-0.227
-431.661	641.852	-0.080	-0.203
-430.646	-154.627	-0.112	-0.007
-429.632	800.000	-0.066	0.219
-428.617	139.864	0.076	-0.099
-427.603	137.041	0.164	-0.213
-426.588	424.801	-0.084	-0.179
-425.573	248.253	-0.106	0.179
-424.559	225.251	-0.094	0.151
-423.544	72.097	0.120	-0.124
-422.530	298.162	-0.114	0.207
-421.515	33.827	0.287	0.248
-420.500	2.756	0.172	-0.124
-419.486	519.567	0.231	0.537
-418.471	-4.988	0.056	0.038
-417.457	68.092	-0.039	-0.040
-416.442	-72.589	0.391	-0.143
-415.428	742.486	0.065	-0.174
-414.413	281.621	-0.076	0.135
-413.398	117.117	0.085	0.104
-412.384	126.714	0.085	0.107
-411.369	800.000	-0.028	-0.117
-410.355	-69.775	0.173	-0.066
-409.340	-93.267	0.344	-0.095
-408.325	-200.000	-0.029	-0.270
-407.311	44.566	0.150	-0.137
-406.296	-200.000	0.064	-0.368
-405.282	-126.412	0.095	-0.014
-404.267	62.419	0.182	0.180
-403.252	-75.757	0.059	-0.021
-402.238	-200.000	0.068	0.371
-401.223	-7.954	-0.117	-0.079
-400.209	-103.677	0.150	0.035
-399.194	346.374	0.036	0.071
-398.179	288.896	0.132	-0.237
-397.165	92.273	-0.259	0.289
-396.150	-198.091	-0.174	0.001
-395.136	-200.000	0.003	-0.077
-394.121	800.000	0.028	0.081
-393.106	-41.232	0.226	0.116
-392.092	-200.000	0.035	0.260
-391.077	-94.977	-0.126	-0.034
-390.063	-70.396	0.075	-0.028
-389.048	-124.210	0.184	-0.029
-388.033	-148.125	-0.358	-0.029
-387.019	-10.156	0.236	-0.155
-386.004	694.008	0.078	-0.202
-384.990	-200.000	-0.036	-0.294
-383.975	139.982	0.191	-0.249
-382.960	335.622	0.027	-0.051
-381.946	-0.820	0.232	-0.163
-380.931	-50.212	0.278	0.130
-379.917	-161.940	0.112	0.006
-378.902	-75.815	-0.230	-0.081
-377.888	88.607	-0.366	0.404
-376.873	-200.000	-0.071	0.343
-375.858	800.000	-0.076	0.231
-374.844	-61.627	0.069	0.029
-373.829	-4.822	0.151	0.103
-372.815	-4.684	-0.059	-0.040
-371.800	800.000	0.051	0.188
-370.785	800.000	-0.101	0.311
-369.771	18.832	-0.167	-0.133
-368.756	134.542	0.196	-0.252
-367.742	109.051	-0.131	0.156
-366.727	-50.995	0.159	-0.074
-365.712	648.733	0.098	0.247
-364.698	43.038	-0.115	-0.104
-363.683	-200.000	-0.011	-0.331
-362.669	-108.676	0.460	-0.098
-361.654	800.000	-0.157	-0.516
-360.639	-200.000	0.012	-0.103
-359.625	-99.084	-0.350	0.088
-358.610	-56.415	0.187	-0.082
-357.596	97.206	-0.089	0.101
-356.581	800.000	-0.139	-0.541
-355.566	-57.902	-0.094	-0.041
-354.552	-200.000	0.064	0.340
-353.537	509.710	-0.037	0.086
-352.523	325.913	-0.087	0.165
-351.508	-200.000	-0.013	0.059
-350.493	189.205	-0.055	-0.081
-349.479	-65.179	0.303	-0.121
-348.464	39.793	0.382	-0.340
-347.450	-61.156	0.126	-0.053
-346.435	102.282	-0.237	-0.274
-345.420	-11.662	-0.217	-0.141
-344.406	-62.831	-0.169	0.069
-343.391	-200.000	0.020	0.358
-342.377	-200.000	0.002	0.211
-341.362	70.281	-0.054	0.055
-340.348	-200.000	-0.022	0.240
-339.333	-50.829	-0.078	-0.036
-338.318	11.472	0.087	-0.066
-337.304	800.000	-0.024	0.089
-336.289	33.669	-0.030	-0.026
-335.275	800.000	0.023	0.071
-334.260	-200.000	-0.016	0.080
-333.245	-3.592	0.082	0.056
-332.231	-177.673	0.284	0.007
-331.216	273.171	0.088	-0.155
-330.202	-25.882	-0.266	-0.155
-329.187	-200.000	0.002	-0.017
-328.172	-197.851	0.374	0.002
-327.158	-200.000	0.070	-0.357
-326.143	118.922	-0.232	0.284
-325.129	-200.000	-0.007	-0.089
-324.114	-200.000	0.029	0.148
-323.099	84.096	-0.103	0.112
-322.085	7.677	0.176	-0.131
-321.070	-92.646	0.231	0.064
-320.056	-200.000	-0.034	-0.355
-319.041	-200.000	0.002	0.034
-318.026	800.000	0.069	-0.197
-317.012	-102.290	0.270	0.064
-315.997	50.101	-0.181	-0.169
-314.983	-82.065	-0.303	0.098
-313.968	-200.000	0.017	0.078
-312.953	-15.023	0.242	0.153
-311.939	-49.513	-0.202	0.095
-310.924	516.325	0.063	-0.147
-309.910	-200.000	0.011	0.249
-308.895	302.450	0.163	0.298
-307.880	78.181	-0.269	0.284
-306.866	162.072	0.107	0.148
-305.851	159.432	0.183	-0.252
-304.837	202.612	0.082	-0.126
-303.822	172.962	-0.210	0.299
-302.807	-200.000	-0.013	-0.081
-301.793	-47.025	-0.234	-0.113
-300.778	3.139	0.141	0.101
-299.764	-190.110	0.243	0.003
-298.749	-155.413	-0.334	-0.021
-297.735	-56.444	-0.204	0.089
-296.720	-200.000	0.026	-0.282
-295.705	-200.000	-0.009	-0.194
-294.691	-84.284	-0.027	-0.008
-293.676	179.674	-0.042	-0.061
-292.662	-10.907	0.161	0.105
-291.647	37.376	-0.236	0.207
-290.632	307.502	-0.042	-0.078
-289.618	-200.000	-0.046	0.373
-288.603	-132.008	0.267	-0.034
-287.589	-151.341	0.272	-0.020
-286.574	-200.000	-0.025	-0.111
-285.559	646.715	-0.092	0.232
-284.545	-200.000	-0.008	0.128
-283.530	339.284	0.113	-0.217
-282.516	-61.481	0.315	0.131
-281.501	3.819	-0.087	-0.063
-280.486	-200.000	0.004	-0.179
-279.472	-200.000	-0.012	-0.171
-278.457	57.601	0.319	-0.308
-277.443	800.000	-0.150	0.467
-276.428	-154.640	-0.268	0.018
-275.413	43.878	-0.156	0.141
-274.399	800.000	0.028	0.083
-273.384	237.328	-0.065	-0.106
-272.370	800.000	-0.063	0.228
-271.355	194.604	-0.025	0.038
-270.340	-200.000	-0.008	0.235
-269.326	-3.373	0.344	0.236
-268.311	468.715	0.058	-0.129
-267.297	-200.000	-0.007	0.269
-266.282	-121.623	-0.559	-0.092
-265.267	-122.956	0.189	0.030
-264.253	123.003	-0.267	-0.330
-263.238	-161.297	-0.171	0.009
-262.224	59.547	-0.042	0.041
-261.209	-200.000	-0.262	-0.001
-260.195	48.741	-0.205	0.190
-259.180	58.264	0.121	0.117
-258.165	-82.534	0.106	-0.034
-257.151	-167.167	0.163	0.007
-256.136	19.869	0.095	0.076
-255.122	-112.293	-0.126	0.025
-254.107	-200.000	-0.236	-0.000
-253.092	454.075	0.041	0.090
-252.078	62.526	-0.354	0.349
-251.063	30.968	0.274	-0.232
-250.049	20.325	-0.205	-0.163
-249.034	-142.614	-0.302	-0.029
-248.019	221.929	-0.128	0.203
-247.005	205.341	-0.096	-0.148
-245.990	626.181	-0.090	0.223
-244.976	15.430	0.239	0.185
-243.961	-135.954	-0.452	0.052
-242.946	-66.547	0.344	-0.135
-241.932	800.000	0.066	-0.190
-240.917	-161.566	-0.202	0.010
-239.903	-98.157	-0.207	-0.052
-238.888	-200.000	0.001	-0.157
-237.873	-62.789	-0.075	0.031
-236.859	81.404	-0.169	0.181
-235.844	63.828	0.076	0.075
-234.830	-68.171	-0.098	-0.038
-233.815	133.363	-0.240	0.307
-232.800	84.397	-0.218	-0.235
-231.786	580.670	0.149	-0.361
-230.771	347.654	0.030	0.059
-229.757	133.129	0.311	0.397
-228.742	-109.050	-0.286	-0.060
-227.727	-83.084	0.143	-0.045
-226.713	-200.000	-0.005	0.058
-225.698	-200.000	0.027	-0.179
-224.684	-131.767	0.377	-0.049
-223.669	-41.486	0.128	0.065
-222.655	800.000	0.066	0.261
-221.640	-200.000	0.018	-0.254
-220.625	800.000	0.061	0.260
-219.611	-200.000	-0.014	-0.229
-218.596	-95.403	-0.252	-0.067
-217.582	147.875	-0.160	0.213
-216.567	125.329	-0.171	0.212
-215.552	-87.364	0.331	0.099
-214.538	41.260	0.295	0.263
-213.523	800.000	0.151	0.412
-212.509	800.000	-0.124	0.366
-211.494	73.976	-0.077	0.079
-210.479	-200.000	-0.029	0.183
-209.465	-9.970	-0.069	0.046
-208.450	329.057	-0.094	-0.177
-207.436	-67.357	0.175	0.068
-206.421	-103.662	0.139	-0.032
-205.406	800.000	-0.081	-0.269
-204.392	800.000	0.012	-0.036
-203.377	51.957	0.066	0.062
-202.363	-97.053	-0.079	0.020
-201.348	239.260	0.038	0.063
-200.333	-80.452	0.315	-0.104
-199.319	392.667	0.109	-0.223
-198.304	-100.524	-0.387	-0.094
-197.290	-200.000	-0.298	-0.001
-196.275	-200.000	-0.016	-0.152
-195.260	-86.704	-0.290	-0.088
-194.246	276.673	-0.214	0.375
-193.231	-200.000	-0.038	0.200
-192.217	-119.428	-0.278	-0.047
-191.202	27.941	-0.240	-0.199
-190.187	-81.069	-0.120	0.039
-189.173	42.606	-0.227	0.204
-188.158	348.000	0.143	0.277
-187.144	73.615	0.164	0.169
-186.129	-200.000	0.005	-0.134
-185.114	-84.319	0.299	-0.093
-184.100	-38.658	0.165	0.086
-183.085	4.824	-0.332	-0.240
-182.071	9.223	-0.245	-0.182
-181.056	153.458	0.051	-0.068
-180.042	50.745	0.279	-0.260
-179.027	280.998	0.189	-0.333
-178.012	167.910	-0.125	0.175
-176.998	-2.275	-0.070	-0.048
-175.983	-200.000	-0.002	0.166
-174.969	-62.169	-0.180	0.074
-173.954	705.524	-0.090	-0.232
-172.939	-54.417	-0.257	0.115
-171.925	40.869	0.537	-0.477
-170.910	-200.000	-0.013	-0.219
-169.896	-200.000	0.063	0.327
-168.881	-104.377	-0.275	-0.063
-167.866	-106.620	0.085	-0.019
-166.852	724.805	0.088	-0.231
-165.837	397.823	-0.088	-0.181
-164.823	446.364	0.088	-0.190
-163.808	23.422	-0.257	0.208
-162.793	-200.000	0.021	-0.102
-161.779	224.190	0.021	0.033
-160.764	61.304	-0.100	-0.097
-159.750	-57.669	0.200	0.086
-158.735	-29.360	0.213	0.120
-157.720	-27.559	0.320	0.183
-156.706	677.611	-0.063	0.160
-155.691	45.620	-0.046	-0.042
-154.677	-85.502	0.226	-0.069
-153.662	-123.819	-0.378	-0.059
-152.647	-200.000	0.021	-0.181
-151.633	-154.562	-0.233	0.015
-150.618	-109.615	-0.049	0.010
-149.604	434.084	0.105	-0.223
-148.589	-200.000	0.063	-0.279
-147.574	-200.000	-0.002	0.060
-146.560	456.405	0.006	0.014
-145.545	-122.674	0.167	-0.027
-144.531	-35.773	-0.207	0.110
-143.516	695.061	-0.092	-0.238
-142.502	-46.827	0.301	0.145
-141.487	-23.415	0.107	0.063
-140.472	-28.495	0.162	0.092
-139.458	419.432	-0.032	0.066
-138.443	-112.944	-0.318	-0.062
-137.429	-54.781	0.036	-0.016
-136.414	800.000	-0.078	0.251
-135.399	-18.298	0.264	-0.162
-134.385	524.167	-0.130	-0.300
-133.370	-11.916	-0.238	-0.153
-132.356	-92.261	0.117	-0.032
-131.341	432.323	-0.034	-0.073
-130.326	800.000	-0.066	0.193
-129.312	-40.106	0.416	0.213
-128.297	29.737	0.143	0.120
-127.283	-72.410	0.188	-0.068
-126.268	299.991	0.121	-0.219
-125.253	222.459	0.196	0.309
-124.239	-123.053	-0.078	0.012
-123.224	661.592	0.080	0.201
-122.210	-75.414	-0.148	0.052
-121.195	800.000	0.043	-0.121
-120.180	800.000	-0.137	0.485
-119.166	-200.000	0.021	0.252
-118.151	351.338	0.054	-0.106
-117.137	216.070	-0.117	-0.182
-116.122	800.000	0.073	0.229
-115.107	358.602	-0.238	0.466
-114.093	261.840	0.172	0.293
-113.078	-67.532	0.222	0.085
-112.064	-136.954	0.149	-0.017
-111.049	-50.824	0.210	-0.097
-110.034	-23.193	-0.166	-0.098
-109.020	-113.379	0.166	-0.032
-108.005	-200.000	0.018	-0.090
-106.991	-4.917	-0.184	-0.124
-105.976	-131.861	0.236	-0.030
-104.962	130.602	-0.106	0.133
-103.947	68.358	0.039	0.039
-102.932	-200.000	-0.011	-0.095
-101.918	-4.566	0.099	0.067
-100.903	-200.000	0.012	0.108
-99.889	-76.199	-0.114	0.039
-98.874	-174.670	0.288	0.008
-97.859	800.000	-0.087	0.357
-96.845	325.813	-0.087	0.163
-95.830	-200.000	-0.031	-0.286
-94.816	8.820	0.228	0.168
-93.801	-46.604	-0.176	0.085
-92.786	445.527	0.022	-0.048
-91.772	154.127	0.199	-0.268
-90.757	-111.712	-0.125	0.025
-89.743	240.745	0.272	-0.446
-88.728	800.000	-0.033	-0.091
-87.713	-200.000	0.031	-0.494
-86.699	-3.513	0.162	-0.110
-85.684	-200.000	0.006	0.429
-84.670	800.000	-0.032	-0.088
-83.655	127.032	0.027	-0.033
-82.640	40.553	-0.191	0.169
-81.626	234.782	0.062	0.101
-80.611	800.000	0.015	-0.062
-79.597	9.948	-0.159	0.118
-78.582	90.904	0.370	0.407
-77.567	800.000	0.065	0.183
-76.553	-136.824	0.116	-0.013
-75.538	-200.000	0.014	0.170
-74.524	153.958	-0.085	-0.114
-73.509	800.000	0.066	0.183
-72.494	13.468	-0.414	0.315
-71.480	-36.202	0.279	0.148
-70.465	-126.573	0.208	0.030
-69.451	-200.000	-0.011	0.179
-68.436	800.000	0.039	-0.106
-67.422	-98.916	-0.060	0.015
-66.407	-200.000	-0.069	0.306
-65.392	52.286	0.105	-0.098
-64.378	183.296	0.195	0.283
-63.363	-131.193	0.070	-0.009
-62.349	-153.354	-0.307	-0.021
-61.334	11.526	-1.324	-0.994
-60.319	29.538	0.609	0.507
-59.305	231.269	-0.583	-0.935
-58.290	800.000	0.429	1.380
-57.276	489.830	0.729	1.633
-56.261	-200.000	113.065	643.910
-55.246	537.933	1515.643	3526.885
-54.232	179.745	2680.563	3844.716
-53.217	109.979	2169.128	2548.348
-52.203	38.531	1699.395	1483.575
-51.188	31.277	1519.046	1276.713
-50.173	28.957	1494.485	1240.391
-49.159	52.623	1552.612	1451.891
-48.144	51.379	1567.945	1457.639
-47.130	31.277	1524.504	1281.092
-46.115	28.370	1509.798	1248.901
-45.100	28.045	1506.890	1244.235
-44.086	28.113	1504.787	1242.911
-43.071	28.058	1502.800	1240.847
-42.057	28.078	1500.883	1239.355
-41.042	28.088	1499.759	1238.446
-40.027	28.048	1497.865	1236.559
-39.013	27.979	1496.973	1235.309
-37.998	27.965	1495.126	1233.640
-36.984	28.008	1494.314	1233.209
-35.969	28.086	1492.929	1232.549
-34.954	28.068	1491.659	1231.324
-33.940	27.978	1490.864	1230.018
-32.925	27.995	1488.896	1228.458
-31.911	28.117	1487.404	1228.000
-30.896	28.011	1486.549	1226.529
-29.881	28.098	1484.974	1225.767
-28.867	28.069	1483.761	1224.524
-27.852	28.090	1482.446	1223.531
-26.838	28.153	1480.829	1222.568
-25.823	28.124	1479.071	1220.875
-24.809	28.214	1477.668	1220.265
-23.794	28.113	1476.687	1218.737
-22.779	28.081	1475.957	1217.872
-21.765	28.114	1474.544	1216.875
-20.750	28.144	1473.404	1216.089
-19.736	28.076	1472.532	1214.869
-18.721	28.047	1471.462	1213.741
-17.706	28.027	1470.012	1212.364
-16.692	28.255	1468.701	1212.751
-15.677	28.079	1468.089	1211.031
-14.663	28.051	1467.264	1210.112
-13.648	28.004	1466.053	1208.760
-12.633	28.017	1465.361	1208.225
-11.619	28.014	1464.614	1207.539
-10.604	28.011	1463.643	1206.675
-9.590	28.053	1462.620	1206.061
-8.575	28.075	1461.620	1205.332
-7.560	28.150	1460.466	1204.824
-6.546	28.142	1459.595	1204.004
-5.531	27.942	1459.264	1202.373
-4.517	28.042	1458.136	1202.052
-3.502	28.024	1457.100	1201.031
-2.487	28.016	1456.549	1200.479
-1.473	28.070	1454.772	1199.319
-0.458	28.022	1453.991	1198.314
0.556	29.375	1444.027	1186.597
1.571	26.231	1419.437	1146.365
2.586	22.726	1360.911	1077.635
3.600	20.967	1279.846	1003.241
4.615	19.662	1233.457	959.551
5.629	17.197	1177.060	902.518
6.644	10.153	1094.553	804.264
7.659	4.646	1056.324	749.622
8.673	3.957	1050.734	742.287
9.688	3.689	1047.573	738.702
10.702	3.519	1046.174	736.842
11.717	3.576	1043.601	735.233
12.731	6.087	1046.073	748.890
13.746	13.714	1057.056	793.296
14.761	20.582	1065.804	832.802
15.775	22.719	1067.781	844.515
16.790	22.379	1066.219	841.577
17.804	21.586	1063.822	835.830
18.819	20.817	1063.179	831.581
19.834	20.509	1061.629	828.822
20.848	20.385	1061.041	827.701
21.863	20.559	1060.436	827.984
22.877	20.314	1060.217	826.573
23.892	20.207	1059.314	825.285
24.907	20.068	1058.397	823.840
25.921	19.971	1057.534	822.631
26.936	19.921	1057.033	821.931
27.950	20.089	1055.288	821.300
28.965	20.011	1054.203	820.012
29.980	19.912	1053.449	818.886
30.994	20.271	1052.105	819.464
32.009	20.315	1051.611	819.216
33.023	20.327	1051.006	818.728
34.038	20.469	1049.648	818.266
35.053	20.291	1049.299	817.084
36.067	20.194	1048.041	815.576
37.082	20.116	1047.222	814.500
38.096	20.040	1046.911	813.830
39.111	20.103	1046.570	813.788
40.126	20.392	1045.286	814.074
41.140	20.201	1043.926	812.046
42.155	19.791	1042.716	809.117
43.169	19.504	1041.946	807.105
44.184	19.563	1040.649	806.304
45.199	19.480	1039.296	804.798
46.213	19.555	1038.606	804.543
47.228	19.688	1037.553	804.273
48.242	20.013	1037.381	805.583
49.257	20.235	1036.565	805.906
50.271	20.166	1035.677	804.826
51.286	20.146	1035.034	804.164
52.301	20.302	1034.401	804.323
53.315	20.357	1033.585	803.870
54.330	20.152	1032.442	801.963
55.344	19.988	1031.535	800.430
56.359	19.827	1030.634	798.917
57.374	19.896	1029.507	798.288
58.388	19.775	1029.164	797.396
59.403	19.728	1028.086	796.272
60.417	19.619	1026.992	794.856
61.432	19.568	1026.137	793.888
62.447	19.509	1025.383	792.963
63.461	19.366	1025.149	792.056
64.476	19.266	1024.347	790.908
65.490	19.336	1023.230	790.294
66.505	19.232	1022.626	789.282
67.520	19.321	1021.747	788.942
68.534	19.388	1021.562	789.036
69.549	19.383	1020.530	788.146
70.563	19.345	1019.325	786.972
71.578	19.096	1018.887	785.428
72.593	19.128	1017.134	784.152
73.607	19.031	1016.085	782.835
74.622	18.881	1015.311	781.487
75.636	19.025	1014.803	781.681
76.651	19.118	1013.589	781.098
77.666	19.233	1012.840	780.970
78.680	19.040	1012.977	780.132
79.695	19.136	1012.110	779.832
80.709	19.208	1011.380	779.527
81.724	19.311	1010.933	779.580
82.739	19.533	1010.133	779.897
83.753	19.624	1009.376	779.652
84.768	19.922	1009.095	780.711
85.782	20.293	1008.702	782.009
86.797	20.717	1007.645	783.030
87.812	20.604	1007.440	782.295
88.826	20.447	1005.984	780.388
89.841	20.280	1005.739	779.379
90.855	20.480	1004.536	779.274
91.870	20.569	1004.170	779.319
92.884	20.517	1003.682	778.639
93.899	20.504	1002.732	777.775
94.914	20.422	1001.703	776.541
95.928	20.407	1001.314	776.106
96.943	20.540	1000.379	775.904
97.957	20.497	999.333	774.835
98.972	20.295	998.381	773.127
99.987	20.265	997.846	772.511
101.001	20.439	996.924	772.501
102.016	20.208	996.381	770.986
103.030	20.214	995.258	770.077
104.045	20.348	994.260	769.830
105.060	20.324	993.327	768.935
106.074	20.282	992.202	767.809
107.089	19.969	991.248	765.619
108.103	19.721	989.615	763.197
109.118	19.658	988.770	762.200
110.133	19.365	987.808	760.098
111.147	19.275	987.052	759.051
112.162	19.212	985.801	757.746
113.176	19.262	985.161	757.405
114.191	19.390	984.560	757.439
115.206	19.533	983.788	757.406
116.220	19.505	983.181	756.750
117.235	19.459	982.172	755.705
118.249	19.436	981.029	754.656
119.264	19.368	980.771	754.096
120.279	19.303	979.451	752.729
121.293	19.240	978.341	751.536
122.308	19.071	978.178	750.607
123.322	18.938	977.149	749.169
124.337	18.908	975.768	747.913
125.352	19.023	974.730	747.554
126.366	18.801	973.815	745.823
127.381	18.837	973.047	745.326
128.395	18.974	971.993	745.044
129.410	19.201	970.556	744.857
130.424	19.096	970.066	743.965
131.439	19.241	969.320	743.952
132.454	19.402	969.337	744.594
133.468	19.432	968.562	744.059
134.483	19.493	967.922	743.769
135.497	19.445	967.493	743.163
136.512	19.583	966.516	742.943
137.527	19.685	965.597	742.606
138.541	19.482	965.176	741.346
139.556	19.516	964.378	740.812
140.570	19.531	963.555	740.178
141.585	19.738	963.238	740.760
142.600	20.090	962.498	741.629
143.614	20.234	961.688	741.555
144.629	20.302	961.316	741.496
145.643	20.549	960.230	741.645
146.658	20.295	959.436	739.882
147.673	19.992	958.190	737.567
148.687	19.912	957.108	736.329
149.702	19.645	956.114	734.366
150.716	19.563	954.862	732.990
151.731	19.492	954.250	732.155
152.746	19.622	953.559	732.111
153.760	19.766	952.539	731.869
154.775	19.814	951.873	731.498
155.789	19.779	951.392	730.914
156.804	20.062	950.542	731.392
157.819	19.933	949.735	730.163
158.833	19.953	949.129	729.716
159.848	20.193	948.884	730.476
160.862	20.227	948.444	730.216
161.877	20.342	947.450	729.868
162.892	19.933	945.797	726.812
163.906	19.568	944.769	724.426
164.921	19.524	943.574	723.266
165.935	19.529	942.920	722.721
166.950	19.497	941.934	721.766
167.964	19.820	941.100	722.411
168.979	19.700	940.651	721.501
169.994	19.765	939.018	720.456
171.008	19.563	938.273	718.980
172.023	19.680	937.654	718.929
173.037	20.023	937.151	719.905
174.052	20.236	936.584	720.293
175.067	20.063	935.794	718.903
176.081	19.897	934.510	717.165
177.096	19.457	933.316	714.362
178.110	19.372	932.666	713.452
179.125	19.410	931.858	712.928
180.140	19.539	931.428	713.068
181.154	19.713	930.538	713.040
182.169	19.929	930.376	713.747
183.183	20.063	930.128	714.043
184.198	20.111	929.642	713.805
185.213	20.108	928.566	712.902
186.227	20.144	928.252	712.747
187.242	20.257	927.606	712.653
188.256	20.351	926.794	712.350
189.271	20.343	926.555	712.073
190.286	20.432	925.515	711.573
191.300	20.165	924.579	709.699
192.315	19.669	923.360	706.672
193.329	19.234	922.368	704.074
194.344	19.291	922.010	703.969
195.359	19.432	921.578	704.156
196.373	19.684	921.335	704.935
197.388	19.806	920.634	704.831
198.402	19.991	920.503	705.424
199.417	20.294	920.354	706.481
200.432	20.459	920.021	706.835
201.446	20.593	919.550	706.953
202.461	20.798	919.022	707.318
203.475	20.799	918.766	707.063
204.490	20.688	918.165	706.087
205.504	20.479	916.586	703.963
206.519	20.274	915.667	702.367
207.534	20.070	915.057	701.012
208.548	20.068	914.129	700.230
209.563	20.116	913.799	700.107
210.577	20.130	913.389	699.791
211.592	20.185	912.378	699.174
212.607	20.429	912.091	699.877
213.621	20.669	911.630	700.426
214.636	20.557	911.106	699.512
215.650	20.371	910.846	698.502
216.665	20.414	909.814	697.822
217.680	20.501	909.456	697.834
218.694	20.634	909.040	697.988
219.709	20.688	908.547	697.762
220.723	20.630	907.874	696.954
221.738	20.515	907.488	696.135
222.753	20.553	906.289	695.304
223.767	20.470	905.598	694.382
224.782	20.628	904.597	694.183
225.796	20.743	904.368	694.405
226.811	20.927	903.809	694.649
227.826	20.713	903.097	693.187
228.840	20.601	902.046	691.874
229.855	20.449	901.159	690.529
230.869	20.291	900.923	689.660
231.884	20.335	899.808	688.918
232.899	20.281	898.927	687.967
233.913	20.174	898.457	687.123
234.928	20.096	897.285	685.859
235.942	19.961	896.727	684.837
236.957	19.951	895.981	684.165
237.972	19.996	895.790	684.137
238.986	19.975	894.878	683.300
240.001	19.964	894.518	682.920
241.015	20.022	893.757	682.507
242.030	20.146	892.558	682.019
243.045	20.292	892.452	682.452
244.059	20.362	891.984	682.308
245.074	20.356	891.746	682.043
246.088	20.433	890.887	681.628
247.103	20.509	890.267	681.392
248.117	20.636	890.231	681.800
249.132	20.882	890.014	682.539
250.147	21.297	889.236	683.506
251.161	21.573	889.278	684.557
252.176	21.542	888.864	684.055
253.190	21.754	887.472	683.750
254.205	21.959	886.919	684.064
255.220	21.953	886.550	683.696
256.234	21.757	885.974	682.427
257.249	21.552	885.312	681.061
258.263	21.514	885.090	680.681
259.278	21.383	884.307	679.510
260.293	21.427	883.661	679.124
261.307	21.584	883.304	679.398
262.322	21.736	882.432	679.257
263.336	21.737	882.064	678.917
264.351	21.702	881.762	678.491
265.366	21.633	881.105	677.658
266.380	21.749	880.314	677.436
267.395	21.740	879.481	676.701
268.409	21.684	878.398	675.592
269.424	21.527	877.933	674.569
270.439	21.485	877.307	673.867
271.453	21.486	876.458	673.159
272.468	21.288	875.796	671.830
273.482	21.135	875.236	670.753
274.497	21.196	874.852	670.632
275.512	21.196	873.742	669.721
276.526	21.235	872.846	669.128
277.541	21.268	872.066	668.596
278.555	21.335	871.790	668.583
279.570	21.473	871.819	669.073
280.585	21.734	871.678	669.902
281.599	21.825	870.721	669.457
282.614	21.466	870.316	667.715
283.628	21.415	869.169	666.581
284.643	21.249	868.777	665.590
285.657	21.220	867.988	664.816
286.672	21.336	868.033	665.233
287.687	21.377	867.040	664.568
288.701	21.392	866.952	664.500
289.716	21.365	866.177	663.745
290.730	21.411	865.535	663.366
291.745	21.386	864.938	662.755
292.760	21.423	864.480	662.487
293.774	21.455	863.930	662.128
294.789	21.777	863.497	662.957
295.803	21.913	862.752	662.838
296.818	21.520	861.917	660.654
297.833	21.275	861.416	659.289
298.847	21.428	860.804	659.339
299.862	21.309	860.512	658.607
300.876	21.409	859.349	658.038
301.891	21.596	859.118	658.504
302.906	21.910	858.498	659.149
303.920	21.984	858.018	659.002
304.935	22.121	857.600	659.137
305.949	22.270	857.003	659.176
306.964	22.144	856.341	658.137
307.979	21.913	855.587	656.635
308.993	21.772	855.345	655.863
310.008	21.930	854.819	655.994
311.022	22.032	854.385	655.983
312.037	22.084	853.547	655.477
313.052	21.754	852.878	653.676
314.066	21.452	851.809	651.674
315.081	21.281	851.404	650.668
316.095	21.157	851.079	649.900
317.110	21.255	850.531	649.788
318.125	21.287	850.024	649.461
319.139	21.275	849.322	648.824
320.154	21.227	848.936	648.294
321.168	21.252	848.198	647.765
322.183	21.331	847.567	647.517
323.197	21.422	847.311	647.603
324.212	21.446	846.979	647.383
325.227	21.497	846.220	646.931
326.241	21.371	845.857	646.132
327.256	21.373	845.327	645.677
328.270	21.439	844.413	645.167
329.285	21.314	844.066	644.382
330.300	21.394	843.055	643.850
331.314	21.174	842.799	642.787
332.329	21.475	841.716	643.008
333.343	21.707	841.660	643.763
334.358	21.692	841.428	643.473
335.373	21.910	840.416	643.441
336.387	21.810	840.525	643.100
337.402	21.869	839.968	642.835
338.416	22.169	838.911	643.068
339.431	22.234	839.027	643.336
340.446	22.482	838.489	643.774
341.460	22.523	838.107	643.572
342.475	22.451	837.414	642.719
343.489	22.563	836.864	642.652
344.504	22.614	836.476	642.482
345.519	22.505	836.421	641.986
346.533	22.636	836.295	642.311
347.548	22.722	835.276	641.782
348.562	22.354	834.261	639.607
349.577	22.205	833.668	638.555
350.592	21.916	832.889	636.854
351.606	21.855	831.976	635.878
352.621	21.899	831.721	635.786
353.635	21.987	830.741	635.301
354.650	22.121	830.615	635.631
355.665	21.939	830.537	634.859
356.679	21.973	830.199	634.664
357.694	22.114	829.654	634.705
358.708	22.147	829.358	634.541
359.723	22.071	828.514	633.563
360.738	22.140	827.807	633.215
361.752	22.152	827.349	632.853
362.767	22.230	827.157	632.931
363.781	22.366	826.904	633.171
364.796	22.539	826.660	633.548
365.810	22.541	826.456	633.344
366.825	22.937	825.771	634.185
367.840	23.067	825.846	634.652
368.854	22.900	825.226	633.521
369.869	22.749	824.613	632.455
370.883	22.533	823.803	631.003
371.898	22.620	822.786	630.479
372.913	22.733	822.582	630.671
373.927	22.863	822.160	630.756
374.942	22.721	821.387	629.601
375.956	22.477	821.062	628.425
376.971	22.759	820.423	628.884
377.986	22.888	820.144	629.075
379.000	23.038	819.821	629.305
380.015	23.227	819.029	629.316
381.029	22.991	818.488	628.004
382.044	23.107	817.421	627.543
383.059	23.169	816.732	627.179
384.073	23.007	816.722	626.539
385.088	22.864	815.781	625.256
386.102	22.632	814.841	623.660
387.117	22.426	814.482	622.602
388.132	22.530	813.720	622.330
389.146	22.417	813.379	621.615
390.161	22.537	812.932	621.644
391.175	22.746	812.828	622.245
392.190	22.856	812.787	622.549
393.205	22.978	811.704	622.094
394.219	22.630	811.380	620.566
395.234	22.618	810.689	619.939
396.248	22.508	810.060	619.016
397.263	22.269	809.564	617.744
398.278	22.188	809.253	617.168
399.292	22.036	808.875	616.291
400.307	22.239	808.166	616.407
401.321	22.180	807.594	615.710
402.336	22.234	807.425	615.717
403.350	22.454	807.093	616.179
404.365	22.555	806.815	616.263
405.380	22.749	806.237	616.446
406.394	23.079	806.149	617.477
407.409	23.299	805.531	617.716
408.423	23.170	805.358	617.080
409.438	23.341	805.022	617.362
410.453	23.380	804.720	617.211
411.467	23.321	804.248	616.590
412.482	23.552	803.469	616.741
413.496	23.521	803.309	616.457
414.511	23.637	803.194	616.719
415.526	23.569	802.530	615.916
416.540	23.475	802.089	615.197
417.555	23.252	802.047	614.338
418.569	23.246	801.369	613.744
419.584	23.331	800.858	613.592
420.599	23.295	800.603	613.217
421.613	163.639	1371.321	1798.367
422.628	142.168	1454.463	1798.443
