DTS Sentinel unit serial number:	SN413079Multiplexer serial number:	ORYXHardware model number:	OX4-SRSoftware version number:	ORYX F/W v4.00 Oryx Data Collector v3.7.2.0data status	okinstallation	princeton_trtdifferential loss correction	single-endedforward channel	channel 3reverse channel	N/Adate	2019/09/14time	03:56:35forward acquisition time	60.00reverse acquisition time	0.00gamma	496.2192k internal	0.2339k external	0.2339temperature offset calibration	1.0052default loss term (dB/km)	0.3790temperature slope calibration	1.0000multiplexer offset coefficient	1.0000multiplexer slope coefficient	1.0000fibre end	0.00T internal ref (°C)	26.69T ext. ref 1 (°C)	3.32T ext. ref 2 (°C)	21.72length (m)	temperature (°C)	Stokes	anti-Stokes-747.200	-200.000	0.026	-0.276
-746.185	138.855	0.247	-0.325
-745.171	-176.642	0.229	0.006
-744.156	-200.000	0.060	0.280
-743.142	-200.000	0.032	0.175
-742.127	-80.452	0.242	-0.081
-741.112	800.000	0.053	0.169
-740.098	66.198	-0.109	-0.111
-739.083	-58.936	-0.075	-0.033
-738.069	-200.000	0.037	0.181
-737.054	-200.000	0.011	0.151
-736.039	-200.000	-0.036	0.294
-735.025	-95.153	0.298	0.080
-734.010	-70.782	-0.173	0.066
-732.996	58.665	-0.320	-0.315
-731.981	-200.000	0.000	-0.250
-730.966	-16.252	-0.143	0.091
-729.952	-144.449	-0.035	-0.003
-728.937	132.698	-0.093	-0.121
-727.923	478.698	0.136	-0.309
-726.908	152.128	0.121	0.166
-725.894	100.567	0.236	-0.275
-724.879	-82.143	-0.263	-0.086
-723.864	494.359	-0.080	-0.183
-722.850	-200.000	-0.023	-0.234
-721.835	-24.252	0.132	-0.079
-720.821	468.848	-0.060	-0.136
-719.806	-7.164	-0.140	-0.095
-718.791	-130.742	0.073	-0.010
-717.777	800.000	-0.085	-0.276
-716.762	376.270	-0.158	0.324
-715.748	262.113	-0.150	-0.261
-714.733	-14.011	-0.060	-0.039
-713.718	-104.333	-0.310	0.072
-712.704	-200.000	-0.015	-0.213
-711.689	-32.731	0.218	0.122
-710.675	22.834	0.071	-0.059
-709.660	-196.014	-0.269	0.002
-708.645	46.661	-0.087	-0.081
-707.631	-119.508	0.060	-0.010
-706.616	282.627	-0.154	-0.276
-705.602	-59.909	-0.046	0.020
-704.587	24.469	0.225	0.187
-703.572	800.000	-0.023	0.070
-702.558	285.388	-0.074	-0.134
-701.543	-103.382	0.138	-0.033
-700.529	392.090	-0.260	0.540
-699.514	-120.136	-0.146	-0.025
-698.499	200.814	-0.147	-0.227
-697.485	52.022	-0.133	-0.127
-696.470	-200.000	-0.012	-0.140
-695.456	721.612	-0.096	-0.256
-694.441	-200.000	-0.003	0.050
-693.426	-75.621	-0.167	0.059
-692.412	-45.296	-0.090	-0.045
-691.397	-16.448	-0.337	-0.214
-690.383	800.000	0.090	-0.332
-689.368	-149.151	-0.545	0.044
-688.354	-25.513	-0.361	-0.213
-687.339	-150.954	-0.121	0.009
-686.324	-120.271	0.221	0.038
-685.310	800.000	-0.112	0.312
-684.295	-200.000	-0.006	0.129
-683.281	-200.000	0.020	-0.222
-682.266	-24.251	-0.131	-0.078
-681.251	259.396	-0.140	-0.241
-680.237	-200.000	-0.468	0.001
-679.222	-126.430	-0.186	-0.028
-678.208	336.079	-0.032	-0.061
-677.193	21.674	-0.199	0.162
-676.178	52.978	0.046	-0.044
-675.164	-48.330	0.220	-0.106
-674.149	205.996	-0.242	-0.376
-673.135	-118.691	0.048	-0.008
-672.120	-164.574	-0.210	-0.010
-671.105	38.212	0.077	-0.069
-670.091	390.103	-0.097	-0.202
-669.076	231.603	0.140	-0.229
-668.062	8.195	-0.392	0.295
-667.047	-143.126	-0.020	0.002
-666.032	-40.196	-0.133	0.069
-665.018	299.451	-0.154	0.285
-664.003	74.387	0.333	0.350
-662.989	-1.501	0.173	-0.122
-661.974	175.870	-0.128	-0.185
-660.959	296.463	0.037	-0.067
-659.945	54.038	-0.137	0.132
-658.930	-200.000	0.048	-0.466
-657.916	-200.000	-0.022	-0.238
-656.901	800.000	0.128	-0.369
-655.886	146.937	0.135	0.182
-654.872	800.000	-0.107	-0.300
-653.857	208.933	-0.148	0.232
-652.843	298.598	-0.144	-0.264
-651.828	0.129	-0.227	-0.161
-650.814	1.506	0.137	0.098
-649.799	-200.000	-0.021	0.166
-648.784	66.523	0.237	0.241
-647.770	-200.000	-0.027	-0.235
-646.755	-126.354	0.163	0.024
-645.741	-29.483	-0.390	-0.223
-644.726	-200.000	-0.018	-0.171
-643.711	-128.320	-0.044	-0.006
-642.697	-140.770	0.156	0.016
-641.682	-113.500	-0.054	0.011
-640.668	-200.000	0.023	-0.301
-639.653	478.072	-0.120	0.272
-638.638	-5.613	0.138	-0.095
-637.624	-100.803	-0.070	0.017
-636.609	137.631	-0.231	-0.302
-635.595	-200.000	-0.038	-0.242
-634.580	11.884	-0.058	-0.045
-633.565	-0.152	-0.175	-0.125
-632.551	438.889	0.047	0.103
-631.536	-200.000	0.008	0.268
-630.522	-9.308	-0.085	0.056
-629.507	147.636	-0.050	0.068
-628.492	800.000	0.116	-0.451
-627.478	-200.000	-0.015	0.102
-626.463	16.707	-0.223	-0.176
-625.449	-113.656	-0.236	-0.046
-624.434	316.488	-0.126	-0.238
-623.419	52.484	0.190	-0.181
-622.405	-200.000	0.010	0.119
-621.390	-169.537	-0.140	-0.005
-620.376	11.407	-0.098	0.075
-619.361	-119.599	-0.120	-0.021
-618.346	-45.529	0.116	-0.057
-617.332	779.850	-0.076	0.206
-616.317	377.700	-0.178	0.363
-615.303	800.000	-0.085	-0.259
-614.288	-1.549	-0.074	0.052
-613.273	-200.000	-0.009	0.202
-612.259	643.964	-0.065	-0.164
-611.244	-200.000	0.039	0.390
-610.230	-200.000	-0.005	0.061
-609.215	106.190	-0.062	-0.073
-608.201	-200.000	-0.036	0.282
-607.186	627.105	-0.040	0.100
-606.171	-64.631	-0.149	0.060
-605.157	-62.752	-0.157	-0.065
-604.142	152.914	0.108	-0.147
-603.128	301.146	-0.032	0.059
-602.113	-72.544	0.283	0.104
-601.098	800.000	-0.080	-0.247
-600.084	23.728	0.280	0.230
-599.069	-70.729	0.503	-0.190
-598.055	-19.736	0.120	0.074
-597.040	-30.753	0.280	-0.158
-596.025	-37.320	0.339	0.181
-595.011	-14.175	-0.209	-0.135
-593.996	-200.000	0.006	-0.065
-592.982	-139.827	-0.083	-0.009
-591.967	-200.000	0.082	0.405
-590.952	587.011	0.018	0.045
-589.938	-200.000	0.004	-0.021
-588.923	103.533	-0.015	0.018
-587.909	91.893	-0.384	-0.431
-586.894	800.000	0.064	-0.231
-585.879	-200.000	-0.040	0.192
-584.865	-200.000	-0.030	-0.227
-583.850	125.002	-0.130	-0.163
-582.836	45.568	0.215	0.197
-581.821	-200.000	0.001	-0.095
-580.806	-79.301	0.291	-0.098
-579.792	237.704	-0.163	0.269
-578.777	93.917	-0.032	0.036
-577.763	33.909	0.147	-0.127
-576.748	112.930	0.074	0.089
-575.733	-47.922	0.191	-0.092
-574.719	800.000	0.092	-0.282
-573.704	-16.357	0.151	0.095
-572.690	-21.662	-0.168	0.102
-571.675	-200.000	-0.037	0.189
-570.661	-86.595	-0.130	-0.040
-569.646	439.200	-0.099	0.216
-568.631	800.000	-0.021	-0.081
-567.617	-13.740	-0.285	-0.184
-566.602	800.000	-0.056	-0.232
-565.588	-200.000	0.033	0.197
-564.573	-200.000	-0.067	0.531
-563.558	79.224	0.224	0.239
-562.544	-151.545	-0.192	0.014
-561.529	-200.000	-0.010	-0.078
-560.515	-30.997	-0.166	-0.093
-559.500	-19.929	0.173	-0.106
-558.485	17.056	0.148	-0.117
-557.471	-103.134	0.230	0.054
-556.456	-90.713	-0.421	0.121
-555.442	-26.284	0.114	-0.067
-554.427	-124.291	0.712	0.111
-553.412	-9.061	-0.166	0.110
-552.398	753.423	-0.027	0.072
-551.383	-105.926	-0.101	-0.023
-550.369	68.618	-0.139	-0.142
-549.354	31.419	-0.187	0.160
-548.339	-162.151	-0.534	0.027
-547.325	-23.834	-0.099	-0.059
-546.310	236.107	-0.170	-0.280
-545.296	-200.000	-0.027	0.135
-544.281	48.450	-0.271	-0.253
-543.266	-97.109	-0.348	-0.090
-542.252	-200.000	-0.007	0.257
-541.237	-93.717	-0.279	-0.077
-540.223	406.985	-0.094	0.198
-539.208	-138.934	0.033	0.004
-538.193	-200.000	0.011	-0.157
-537.179	252.434	0.156	-0.265
-536.164	636.368	-0.097	0.244
-535.150	-84.954	-0.322	-0.100
-534.135	425.730	-0.039	0.084
-533.121	-131.587	-0.093	0.012
-532.106	-39.039	0.178	-0.093
-531.091	108.791	-0.174	0.206
-530.077	24.151	-0.302	0.248
-529.062	800.000	-0.026	0.093
-528.048	-200.000	0.006	-0.101
-527.033	-200.000	0.002	-0.107
-526.018	-113.487	0.232	-0.045
-525.004	497.214	0.025	-0.057
-523.989	800.000	-0.066	-0.252
-522.975	-47.315	-0.291	-0.141
-521.960	-33.556	0.173	0.095
-520.945	518.586	-0.056	0.130
-519.931	-200.000	0.023	0.117
-518.916	13.115	-0.066	0.051
-517.902	-87.132	-0.234	-0.071
-516.887	-14.481	0.218	-0.139
-515.872	-152.157	-0.189	0.014
-514.858	45.695	0.317	-0.292
-513.843	242.642	0.165	-0.274
-512.829	-31.547	0.081	-0.045
-511.814	-200.000	0.017	-0.290
-510.799	-182.435	-0.325	-0.006
-509.785	-75.008	0.088	-0.031
-508.770	-118.435	-0.194	0.034
-507.756	-200.000	-0.010	0.326
-506.741	800.000	0.046	-0.177
-505.726	-200.000	-0.019	0.114
-504.712	100.012	0.099	0.114
-503.697	-200.000	-0.005	-0.031
-502.683	587.572	0.064	0.156
-501.668	-40.133	0.519	-0.268
-500.653	236.481	0.215	0.353
-499.639	-139.666	0.033	-0.003
-498.624	-200.000	-0.033	-0.320
-497.610	800.000	-0.046	-0.186
-496.595	-87.791	0.268	0.080
-495.581	-200.000	0.022	-0.110
-494.566	283.626	-0.082	-0.146
-493.551	-200.000	0.005	0.276
-492.537	-82.261	-0.166	0.054
-491.522	542.058	-0.036	-0.085
-490.508	32.403	-0.167	-0.144
-489.493	-151.453	0.295	0.022
-488.478	-144.852	0.216	-0.020
-487.464	646.295	-0.150	-0.380
-486.449	292.467	-0.084	-0.151
-485.435	800.000	-0.081	0.247
-484.420	-152.119	0.189	0.014
-483.405	754.571	-0.080	0.215
-482.391	200.973	-0.044	0.067
-481.376	-83.067	-0.183	-0.058
-480.362	206.145	-0.148	-0.228
-479.347	-50.881	-0.149	0.069
-478.332	-177.775	-0.302	0.007
-477.318	-200.000	0.071	0.319
-476.303	-200.000	0.053	-0.358
-475.289	127.490	-0.130	-0.164
-474.274	611.598	-0.158	-0.393
-473.259	-126.775	-0.076	0.011
-472.245	53.221	0.220	-0.209
-471.230	800.000	0.111	0.420
-470.216	148.791	0.096	-0.129
-469.201	800.000	0.070	0.278
-468.186	-92.041	0.227	-0.064
-467.172	29.910	-0.137	0.116
-466.157	-18.334	-0.442	-0.274
-465.143	48.084	0.172	0.159
-464.128	-200.000	-0.003	-0.191
-463.113	-118.099	0.171	-0.030
-462.099	-173.613	-0.320	-0.010
-461.084	84.858	-0.147	0.160
-460.070	123.278	-0.259	-0.323
-459.055	-200.000	0.031	-0.166
-458.040	-69.041	0.152	-0.058
-457.026	-200.000	-0.037	-0.225
-456.011	-191.440	0.130	0.001
-454.997	-55.417	0.163	-0.072
-453.982	62.581	0.107	0.106
-452.968	-70.320	0.215	-0.081
-451.953	-4.785	0.351	-0.240
-450.938	50.042	-0.130	-0.121
-449.924	246.318	-0.067	0.111
-448.909	800.000	-0.100	0.415
-447.895	144.377	0.089	0.118
-446.880	72.170	0.173	-0.179
-445.865	-200.000	-0.054	-0.256
-444.851	9.331	0.244	0.183
-443.836	84.450	0.105	-0.114
-442.822	27.532	0.136	0.113
-441.807	-200.000	0.010	0.095
-440.792	-79.000	-0.202	-0.068
-439.778	-158.360	0.175	0.010
-438.763	-110.905	-0.112	0.023
-437.749	-200.000	-0.024	-0.242
-436.734	-87.004	0.345	-0.104
-435.719	-200.000	0.059	0.390
-434.705	-141.850	-0.128	-0.013
-433.690	-200.000	0.013	0.207
-432.676	-200.000	-0.003	-0.131
-431.661	800.000	0.094	0.302
-430.646	-145.120	-0.154	0.014
-429.632	192.166	0.067	0.100
-428.617	-66.754	0.252	-0.099
-427.603	-200.000	0.018	-0.103
-426.588	800.000	0.047	-0.147
-425.573	64.435	-0.201	-0.201
-424.559	-92.601	-0.234	0.065
-423.544	-200.000	-0.006	-0.043
-422.530	-200.000	0.019	-0.237
-421.515	-73.830	0.014	-0.005
-420.500	-200.000	0.082	0.361
-419.486	-157.919	-0.097	-0.006
-418.471	602.735	-0.078	-0.192
-417.457	-200.000	0.008	-0.204
-416.442	1.703	-0.088	-0.063
-415.428	-28.533	0.318	-0.182
-414.413	-162.084	0.198	-0.010
-413.398	10.257	-0.446	0.336
-412.384	43.412	-0.197	0.179
-411.369	-18.236	-0.249	0.154
-410.355	-69.539	-0.009	0.004
-409.340	-162.259	0.157	-0.008
-408.325	10.276	0.070	0.052
-407.311	-94.520	0.060	0.016
-406.296	-200.000	0.016	0.137
-405.282	-87.219	0.156	0.047
-404.267	283.923	0.247	-0.439
-403.252	-200.000	0.010	-0.156
-402.238	-200.000	-0.000	-0.199
-401.223	552.706	0.009	0.021
-400.209	5.494	-0.157	-0.115
-399.194	800.000	0.064	0.229
-398.179	-56.989	-0.316	-0.138
-397.165	284.611	0.116	-0.207
-396.150	-101.587	0.096	0.023
-395.136	-200.000	-0.008	0.047
-394.121	-165.707	0.185	-0.008
-393.106	800.000	0.055	0.217
-392.092	20.616	0.169	0.136
-391.077	-182.684	0.167	-0.003
-390.063	-159.799	0.034	-0.002
-389.048	-200.000	-0.084	-0.444
-388.033	-132.298	-0.127	0.016
-387.019	-52.937	-0.246	-0.112
-386.004	-57.606	0.335	0.145
-384.990	59.132	-0.176	-0.171
-383.975	-25.449	0.072	0.042
-382.960	-51.910	-0.045	-0.021
-381.946	79.819	0.126	-0.133
-380.931	-65.427	0.123	0.049
-379.917	-61.225	-0.144	0.060
-378.902	18.393	0.058	0.046
-377.888	143.397	-0.148	-0.194
-376.873	-42.588	-0.165	0.083
-375.858	708.024	0.081	-0.211
-374.844	-184.516	0.224	-0.004
-373.829	74.064	0.054	-0.056
-372.815	800.000	0.046	0.182
-371.800	7.975	-0.140	0.104
-370.785	-111.915	-0.116	-0.023
-369.771	-200.000	0.036	0.195
-368.756	-133.670	-0.207	-0.026
-367.742	78.168	0.170	-0.179
-366.727	10.330	-0.362	-0.272
-365.712	-6.469	0.105	0.071
-364.698	-200.000	0.018	-0.119
-363.683	-100.122	-0.141	-0.035
-362.669	24.436	-0.249	0.203
-361.654	-69.301	0.043	0.016
-360.639	540.611	-0.158	0.373
-359.625	29.302	-0.150	-0.126
-358.610	198.520	-0.121	0.182
-357.596	-200.000	0.035	-0.160
-356.581	-200.000	-0.034	0.331
-355.566	-70.013	0.203	0.076
-354.552	89.335	-0.143	-0.157
-353.537	-131.143	0.488	0.064
-352.523	371.881	0.065	0.131
-351.508	176.877	-0.251	-0.360
-350.493	800.000	0.019	0.052
-349.479	-200.000	0.016	-0.216
-348.464	271.140	-0.083	-0.145
-347.450	29.657	0.184	0.155
-346.435	-30.032	0.125	0.070
-345.420	300.383	-0.081	0.147
-344.406	38.125	0.120	0.106
-343.391	-8.994	-0.260	-0.172
-342.377	-200.000	0.052	0.304
-341.362	-200.000	-0.025	0.181
-340.348	-200.000	-0.049	0.244
-339.333	-200.000	0.004	-0.093
-338.318	237.162	0.179	0.294
-337.304	-169.089	-0.248	-0.009
-336.289	-49.602	-0.151	-0.071
-335.275	152.240	-0.087	0.118
-334.260	800.000	-0.044	-0.189
-333.245	800.000	-0.047	0.202
-332.231	800.000	0.071	-0.271
-331.216	-200.000	0.010	-0.076
-330.202	-25.129	-0.339	-0.198
-329.187	-90.469	0.282	0.081
-328.172	-117.001	0.394	-0.071
-327.158	62.501	0.167	0.165
-326.143	62.079	0.130	-0.128
-325.129	800.000	0.143	0.486
-324.114	-99.714	0.061	-0.015
-323.099	800.000	0.103	0.287
-322.085	134.523	-0.168	0.215
-321.070	-60.781	0.203	0.085
-320.056	-49.965	0.316	0.148
-319.041	-124.270	0.117	-0.018
-318.026	10.401	-0.117	-0.088
-317.012	-40.911	-0.094	0.048
-315.997	57.432	-0.146	0.140
-314.983	783.737	0.031	0.084
-313.968	75.299	0.073	-0.076
-312.953	-35.143	0.059	0.032
-311.939	-200.000	-0.073	0.340
-310.924	-29.331	0.373	0.211
-309.910	-78.720	0.226	0.076
-308.895	-200.000	-0.110	-0.000
-307.880	-31.238	0.163	-0.091
-306.866	-199.340	0.095	-0.000
-305.851	143.661	-0.150	0.197
-304.837	-89.436	-0.434	-0.126
-303.822	-200.000	0.056	0.244
-302.807	-150.254	-0.089	0.007
-301.793	147.380	-0.021	-0.028
-300.778	63.649	-0.162	-0.160
-299.764	776.634	0.032	0.087
-298.749	225.019	0.115	-0.184
-297.735	-200.000	-0.031	0.221
-296.720	-73.047	-0.172	0.062
-295.705	-40.420	0.087	-0.045
-294.691	-200.000	0.037	-0.404
-293.676	-177.625	0.100	-0.002
-292.662	-18.788	0.175	0.107
-291.647	-69.717	-0.375	-0.141
-290.632	753.146	0.088	-0.233
-289.618	-19.064	0.301	-0.184
-288.603	110.054	-0.084	0.099
-287.589	-52.746	0.164	-0.074
-286.574	-95.812	-0.118	0.031
-285.559	-136.739	0.256	-0.029
-284.545	-83.992	0.272	-0.085
-283.530	-15.021	-0.084	-0.053
-282.516	800.000	0.124	0.409
-281.501	20.283	0.419	-0.334
-280.486	-200.000	0.001	0.370
-279.472	-101.264	-0.032	-0.008
-278.457	302.502	0.266	-0.486
-277.443	546.540	-0.044	-0.105
-276.428	79.065	0.267	-0.282
-275.413	311.946	-0.045	0.082
-274.399	95.795	0.341	0.384
-273.384	117.331	0.186	-0.226
-272.370	68.279	-0.073	0.073
-271.355	238.157	0.123	0.202
-270.340	-149.224	-0.254	0.020
-269.326	-125.106	0.346	0.052
-268.311	347.450	0.168	-0.325
-267.297	-153.914	-0.219	-0.015
-266.282	-200.000	0.029	-0.220
-265.267	-200.000	0.026	-0.274
-264.253	-156.179	-0.313	0.019
-263.238	-131.117	0.303	-0.040
-262.224	98.633	0.036	0.041
-261.209	78.262	0.186	0.195
-260.195	431.624	-0.124	0.264
-259.180	800.000	-0.021	0.076
-258.165	800.000	-0.024	0.082
-257.151	-85.058	0.090	0.028
-256.136	633.201	0.077	-0.191
-255.122	800.000	-0.065	-0.248
-254.107	-200.000	0.013	0.112
-253.092	-183.464	-0.616	0.011
-252.078	800.000	0.027	-0.085
-251.063	800.000	-0.032	0.121
-250.049	26.808	-0.165	0.136
-249.034	-90.659	-0.294	0.084
-248.019	55.743	0.229	0.218
-247.005	-141.219	0.231	-0.023
-245.990	-52.826	-0.058	-0.026
-244.976	-200.000	-0.018	-0.133
-243.961	800.000	0.115	0.433
-242.946	-200.000	-0.001	-0.148
-241.932	-6.441	-0.092	-0.062
-240.917	-51.449	-0.448	0.206
-239.903	800.000	0.064	-0.213
-238.888	12.053	0.320	-0.242
-237.873	212.347	0.117	-0.182
-236.859	800.000	-0.060	-0.180
-235.844	-134.029	-0.219	0.027
-234.830	-200.000	-0.000	0.097
-233.815	-149.795	-0.230	0.018
-232.800	513.558	0.089	-0.203
-231.786	-200.000	0.095	-0.444
-230.771	-200.000	0.017	0.095
-229.757	-200.000	-0.024	0.136
-228.742	301.452	0.088	0.161
-227.727	-200.000	0.057	-0.430
-226.713	330.173	0.088	0.166
-225.698	-138.552	0.306	0.033
-224.684	-200.000	0.037	0.276
-223.669	800.000	0.067	0.281
-222.655	800.000	-0.080	0.320
-221.640	-200.000	0.072	0.326
-220.625	-85.980	-0.302	0.092
-219.611	-63.309	0.194	0.078
-218.596	-152.494	-0.343	0.024
-217.582	-59.809	-0.525	0.221
-216.567	129.168	0.137	0.172
-215.552	113.752	0.098	0.117
-214.538	-47.800	-0.221	-0.105
-213.523	-46.961	0.133	-0.064
-212.509	-81.932	-0.063	0.020
-211.494	73.924	-0.075	0.077
-210.479	-179.274	0.305	0.007
-209.465	48.312	-0.172	0.158
-208.450	800.000	0.092	0.249
-207.436	-200.000	0.009	-0.168
-206.421	800.000	-0.069	0.260
-205.406	-22.039	-0.025	0.015
-204.392	68.694	0.057	-0.057
-203.377	-140.887	0.171	-0.017
-202.363	163.399	-0.074	0.103
-201.348	800.000	0.048	-0.206
-200.333	-107.506	-0.175	0.038
-199.319	101.831	0.078	-0.090
-198.304	125.315	-0.184	0.227
-197.290	-200.000	-0.025	0.169
-196.275	-87.021	-0.038	0.011
-195.260	40.275	-0.160	0.141
-194.246	-60.332	-0.284	-0.119
-193.231	-200.000	0.002	0.184
-192.217	184.303	-0.120	-0.175
-191.202	-200.000	-0.011	-0.213
-190.187	-106.060	0.331	-0.073
-189.173	-5.299	-0.077	-0.052
-188.158	-46.210	0.094	0.045
-187.144	154.264	0.216	0.292
-186.129	-26.538	-0.110	-0.064
-185.114	202.139	0.065	-0.098
-184.100	-67.623	0.343	0.132
-183.085	-72.255	0.175	-0.064
-182.071	-200.000	0.021	-0.178
-181.056	-161.372	-0.121	-0.006
-180.042	26.135	0.220	0.180
-179.027	-200.000	-0.005	-0.098
-178.012	-75.034	0.181	-0.064
-176.998	32.513	-0.149	0.126
-175.983	-141.012	-0.222	0.022
-174.969	105.410	-0.138	-0.160
-173.954	136.329	0.094	-0.121
-172.939	-200.000	-0.037	-0.209
-171.925	-57.651	-0.018	-0.008
-170.910	-87.370	0.245	-0.073
-169.896	-104.409	-0.349	0.079
-168.881	800.000	0.041	0.123
-167.866	-200.000	-0.063	0.277
-166.852	-178.068	-0.291	0.007
-165.837	366.060	-0.063	0.124
-164.823	-28.937	-0.131	0.074
-163.808	220.097	0.262	-0.411
-162.793	-200.000	-0.040	0.233
-161.779	-173.357	0.146	-0.004
-160.764	5.468	-0.136	0.099
-159.750	-200.000	-0.042	0.273
-158.735	63.148	0.119	-0.116
-157.720	-60.581	0.051	0.021
-156.706	17.293	-0.143	-0.111
-155.691	-133.614	0.214	-0.026
-154.677	256.954	-0.168	-0.284
-153.662	15.076	-0.019	0.014
-152.647	184.198	0.105	0.153
-151.633	-71.097	0.202	-0.074
-150.618	-57.425	-0.035	-0.015
-149.604	-112.492	-0.277	0.054
-148.589	-24.300	-0.152	0.089
-147.574	147.234	0.219	-0.288
-146.560	-48.187	-0.255	0.121
-145.545	-113.931	0.453	0.086
-144.531	-32.330	0.182	-0.100
-143.516	-200.000	0.003	-0.124
-142.502	-70.520	0.188	-0.070
-141.487	-110.991	-0.267	0.054
-140.472	123.044	0.057	-0.070
-139.458	800.000	-0.100	0.324
-138.443	263.269	0.028	-0.048
-137.429	210.856	0.054	0.084
-136.414	-116.225	0.159	-0.029
-135.399	102.695	0.274	0.314
-134.385	-200.000	-0.023	-0.294
-133.370	-2.448	-0.366	-0.251
-132.356	-82.353	0.294	-0.094
-131.341	-72.446	0.078	0.028
-130.326	-200.000	0.035	0.364
-129.312	-24.861	0.068	-0.040
-128.297	4.906	-0.144	-0.104
-127.283	632.626	-0.097	-0.242
-126.268	800.000	0.078	-0.308
-125.253	-35.926	0.376	-0.199
-124.239	-200.000	0.001	-0.150
-123.224	-85.040	0.124	-0.038
-122.210	19.019	0.182	0.143
-121.195	77.171	0.109	0.113
-120.180	800.000	-0.068	-0.238
-119.166	-200.000	0.034	0.148
-118.151	-109.440	0.183	-0.038
-117.137	-200.000	-0.033	-0.213
-116.122	13.697	-0.097	-0.074
-115.107	-121.232	0.208	-0.034
-114.093	-200.000	0.003	0.045
-113.078	-23.586	0.266	-0.156
-112.064	37.638	0.180	0.157
-111.049	20.821	0.069	-0.054
-110.034	-200.000	0.064	-0.280
-109.020	-200.000	-0.028	0.178
-108.005	509.833	0.072	-0.165
-106.991	345.137	0.159	-0.305
-105.976	-119.379	-0.113	-0.019
-104.962	74.533	0.202	-0.208
-103.947	392.052	0.011	0.023
-102.932	-55.305	-0.159	-0.070
-101.918	-37.925	0.335	0.174
-100.903	-49.097	-0.028	0.013
-99.889	16.138	-0.129	-0.099
-98.874	-180.173	-0.171	0.004
-97.859	-200.000	-0.001	0.192
-96.845	-96.304	-0.018	0.005
-95.830	-65.850	0.261	0.102
-94.816	800.000	-0.051	-0.181
-93.801	-161.895	0.079	-0.004
-92.786	-82.081	-0.148	0.047
-91.772	-200.000	-0.003	-0.164
-90.757	-113.914	-0.155	-0.029
-89.743	-157.914	0.232	-0.013
-88.728	-200.000	-0.055	-0.301
-87.713	302.499	0.140	-0.254
-86.699	-150.102	-0.266	-0.020
-85.684	-79.029	-0.224	0.074
-84.670	194.628	0.327	-0.484
-83.655	257.386	0.223	-0.376
-82.640	294.956	0.052	-0.093
-81.626	-8.840	-0.197	0.129
-80.611	-200.000	0.044	0.220
-79.597	-95.163	-0.199	-0.053
-78.582	-111.160	-0.061	0.012
-77.567	724.278	0.068	-0.177
-76.553	-200.000	0.001	0.294
-75.538	85.701	-0.356	-0.382
-74.524	336.941	0.158	-0.299
-73.509	164.489	-0.120	-0.165
-72.494	-33.140	-0.247	-0.134
-71.480	171.196	0.053	0.074
-70.465	-131.125	0.071	-0.009
-69.451	2.758	0.049	0.035
-68.436	-53.554	0.189	-0.085
-67.422	-52.707	-0.276	-0.124
-66.407	60.910	0.055	0.053
-65.392	17.927	-0.289	0.225
-64.378	-113.326	-0.207	-0.040
-63.363	-83.526	0.104	-0.032
-62.349	81.407	0.065	0.069
-61.334	168.911	-0.897	-1.249
-60.319	185.822	0.466	0.676
-59.305	221.512	-0.683	-1.071
-58.290	341.000	0.610	1.163
-57.276	615.402	0.538	1.316
-56.261	-200.000	116.781	651.787
-55.246	516.797	1539.010	3513.019
-54.232	176.069	2711.088	3842.745
-53.217	106.601	2180.749	2525.390
-52.203	37.460	1697.143	1469.276
-51.188	29.707	1512.771	1257.126
-50.173	27.547	1487.813	1221.872
-49.159	51.024	1547.177	1431.867
-48.144	49.308	1562.506	1434.261
-47.130	29.999	1517.588	1262.922
-46.115	26.957	1502.652	1229.862
-45.100	26.767	1499.197	1225.700
-44.086	26.673	1497.391	1223.542
-43.071	26.722	1495.114	1221.967
-42.057	26.607	1494.188	1220.385
-41.042	26.640	1492.591	1219.255
-40.027	26.631	1490.929	1217.790
-39.013	26.682	1489.170	1216.642
-37.998	26.612	1487.962	1215.139
-36.984	26.659	1486.785	1214.448
-35.969	26.608	1485.638	1213.116
-34.954	26.635	1484.460	1212.289
-33.940	26.583	1483.179	1210.850
-32.925	26.642	1481.687	1209.975
-31.911	26.623	1480.142	1208.536
-30.896	26.722	1478.936	1208.164
-29.881	26.734	1477.429	1206.967
-28.867	26.773	1476.494	1206.412
-27.852	26.721	1475.882	1205.522
-26.838	26.665	1474.095	1203.641
-25.823	26.724	1472.324	1202.539
-24.809	26.762	1470.440	1201.206
-23.794	26.819	1468.900	1200.274
-22.779	26.678	1468.570	1199.025
-21.765	26.782	1466.733	1198.165
-20.750	26.781	1465.668	1197.242
-19.736	26.651	1464.703	1195.545
-18.721	26.713	1463.991	1195.330
-17.706	26.722	1462.524	1194.142
-16.692	26.671	1461.467	1192.896
-15.677	26.738	1460.638	1192.613
-14.663	26.699	1459.810	1191.632
-13.648	26.670	1458.527	1190.349
-12.633	26.636	1457.772	1189.464
-11.619	26.653	1457.261	1189.110
-10.604	26.741	1455.978	1188.594
-9.590	26.665	1455.245	1187.447
-8.575	26.653	1453.838	1186.176
-7.560	26.727	1453.381	1186.237
-6.546	26.738	1452.307	1185.385
-5.531	26.719	1451.348	1184.431
-4.517	26.563	1450.801	1182.923
-3.502	26.649	1449.783	1182.602
-2.487	26.727	1448.783	1182.248
-1.473	26.655	1447.764	1180.904
-0.458	26.700	1446.501	1180.120
0.556	26.864	1436.889	1169.068
1.571	23.867	1411.899	1129.624
2.586	20.518	1350.634	1060.121
3.600	19.015	1267.957	986.525
4.615	17.737	1223.821	945.024
5.629	15.367	1167.253	888.721
6.644	8.883	1085.418	794.303
7.659	3.958	1049.519	744.325
8.673	3.416	1043.652	737.503
9.688	3.274	1041.058	734.928
10.702	3.283	1039.279	733.651
11.717	3.297	1037.562	732.442
12.731	5.169	1038.175	741.710
13.746	11.604	1048.217	779.605
14.761	17.871	1055.809	815.204
15.775	19.466	1057.476	824.046
16.790	19.031	1055.771	820.570
17.804	18.070	1053.344	814.034
18.819	17.324	1051.558	809.034
19.834	16.791	1050.977	805.978
20.848	16.773	1049.207	804.468
21.863	16.466	1048.854	802.665
22.877	16.339	1047.944	801.296
23.892	16.157	1047.409	799.956
24.907	16.004	1046.807	798.699
25.921	16.082	1045.723	798.170
26.936	16.163	1045.104	798.012
27.950	16.123	1043.911	796.838
28.965	16.039	1043.033	795.703
29.980	16.175	1041.572	795.161
30.994	16.323	1040.566	795.016
32.009	16.359	1039.734	794.481
33.023	16.434	1039.198	794.353
34.038	16.373	1038.741	793.644
35.053	16.472	1036.917	792.647
36.067	16.235	1036.466	791.120
37.082	16.221	1035.432	790.194
38.096	16.242	1034.607	789.597
39.111	16.269	1034.334	789.445
40.126	16.475	1033.097	789.390
41.140	16.172	1032.005	787.074
42.155	16.014	1031.035	785.527
43.169	15.945	1029.769	784.172
44.184	15.799	1028.812	782.696
45.199	15.798	1028.016	782.018
46.213	15.895	1026.561	781.289
47.228	15.944	1025.831	780.893
48.242	16.070	1024.984	780.764
49.257	16.230	1024.392	780.984
50.271	16.160	1022.989	779.521
51.286	16.262	1022.014	779.182
52.301	16.258	1021.498	778.698
53.315	16.317	1020.555	778.182
54.330	16.170	1019.923	776.957
55.344	16.158	1018.828	775.996
56.359	16.113	1017.355	774.599
57.374	16.088	1017.046	774.182
58.388	16.070	1015.880	773.143
59.403	15.913	1015.044	771.717
60.417	15.753	1014.676	770.635
61.432	15.854	1013.840	770.396
62.447	15.842	1013.110	769.719
63.461	15.608	1012.493	768.111
64.476	15.680	1011.321	767.486
65.490	15.743	1010.478	767.065
66.505	15.813	1009.252	766.384
67.520	15.832	1008.666	765.956
68.534	15.900	1007.616	765.403
69.549	15.791	1006.920	764.310
70.563	15.867	1006.595	764.343
71.578	15.784	1005.448	763.027
72.593	15.656	1004.809	761.892
73.607	15.736	1003.652	761.310
74.622	15.625	1002.949	760.210
75.636	15.663	1001.838	759.471
76.651	15.605	1001.112	758.593
77.666	15.758	1000.230	758.544
78.680	15.684	999.763	757.792
79.695	15.821	998.684	757.521
80.709	15.750	998.690	757.139
81.724	15.832	997.876	756.827
82.739	15.924	997.357	756.780
83.753	15.989	996.486	756.341
84.768	16.007	995.968	755.962
85.782	16.340	995.200	756.807
86.797	16.425	994.447	756.544
87.812	16.351	993.706	755.585
88.826	16.199	992.580	753.984
89.841	16.323	991.495	753.644
90.855	16.177	991.167	752.677
91.870	16.277	990.746	752.738
92.884	16.387	989.767	752.418
93.899	16.384	988.834	751.626
94.914	16.382	987.991	750.911
95.928	16.503	987.331	750.879
96.943	16.412	987.218	750.324
97.957	16.389	985.875	749.137
98.972	16.340	985.040	748.218
99.987	16.314	984.067	747.296
101.001	16.405	983.250	747.014
102.016	16.237	983.004	746.016
103.030	16.390	981.980	745.849
104.045	16.382	980.987	744.993
105.060	16.442	980.049	744.481
106.074	16.445	978.643	743.362
107.089	16.205	977.790	741.590
108.103	16.011	977.510	740.463
109.118	15.819	976.521	738.802
110.133	15.872	975.657	738.319
111.147	15.893	974.507	737.472
112.162	15.784	973.803	736.400
113.176	15.950	972.690	736.217
114.191	16.060	971.884	736.021
115.206	16.011	971.213	735.236
116.220	16.053	969.991	734.429
117.235	15.900	969.428	733.269
118.249	16.007	968.610	733.051
119.264	16.028	967.519	732.254
120.279	15.902	966.571	730.923
121.293	15.837	966.052	730.184
122.308	15.847	965.228	729.540
123.322	15.851	964.594	729.016
124.337	15.773	963.273	727.615
125.352	15.707	962.447	726.643
126.366	15.626	961.376	725.420
127.381	15.707	960.444	725.000
128.395	15.824	959.008	724.355
129.410	15.817	958.127	723.598
130.424	15.736	957.593	722.779
131.439	15.881	957.007	722.895
132.454	15.881	956.188	722.213
133.468	16.029	955.676	722.398
134.483	15.979	954.682	721.369
135.497	16.103	953.973	721.301
136.512	15.933	953.444	720.109
137.527	16.049	952.261	719.646
138.541	16.026	951.614	718.997
139.556	15.949	951.003	718.143
140.570	15.944	950.209	717.460
141.585	16.226	949.372	717.964
142.600	16.345	948.827	717.994
143.614	16.291	948.165	717.201
144.629	16.401	947.599	717.176
145.643	16.499	947.038	717.104
146.658	16.306	946.259	715.630
147.673	16.362	944.651	714.591
148.687	16.006	944.349	712.792
149.702	16.077	943.062	712.059
150.716	16.084	942.248	711.409
151.731	16.115	941.382	710.825
152.746	16.062	940.722	710.040
153.760	16.134	939.965	709.705
154.775	16.105	939.262	708.994
155.789	16.305	938.070	708.870
156.804	16.116	938.074	708.015
157.819	16.273	937.254	707.991
158.833	16.395	936.246	707.680
159.848	16.439	935.899	707.537
160.862	16.404	935.248	706.836
161.877	16.454	934.540	706.448
162.892	16.413	933.757	705.623
163.906	16.168	933.031	703.989
164.921	16.292	931.549	703.328
165.935	16.117	930.760	701.940
166.950	16.212	929.914	701.633
167.964	16.302	929.016	701.268
168.979	16.256	927.996	700.245
169.994	16.191	926.918	699.100
171.008	16.133	926.310	698.343
172.023	16.302	925.460	698.339
173.037	16.435	924.455	698.065
174.052	16.479	924.320	698.085
175.067	16.421	923.556	697.205
176.081	16.283	922.642	695.886
177.096	16.212	921.585	694.737
178.110	16.055	920.929	693.532
179.125	16.256	920.136	693.702
180.140	16.178	919.445	692.800
181.154	16.330	918.836	692.900
182.169	16.486	918.338	693.104
183.183	16.432	917.686	692.330
184.198	16.604	916.691	692.222
185.213	16.429	916.675	691.431
186.227	16.558	915.944	691.348
187.242	16.521	915.348	690.685
188.256	16.714	914.380	690.679
189.271	16.812	913.918	690.669
190.286	16.717	913.431	689.855
191.300	16.534	912.330	688.215
192.315	16.367	911.313	686.709
193.329	16.181	910.534	685.307
194.344	16.063	910.045	684.400
195.359	16.254	909.792	684.925
196.373	16.393	908.986	684.819
197.388	16.524	908.586	684.989
198.402	16.674	907.836	684.968
199.417	16.617	908.184	684.939
200.432	16.794	907.545	685.115
201.446	16.837	907.313	685.050
202.461	17.011	906.430	685.025
203.475	17.056	905.965	684.796
204.490	16.956	905.398	683.904
205.504	16.779	904.653	682.569
206.519	16.802	903.265	681.554
207.534	16.799	902.764	681.101
208.548	16.776	902.364	680.647
209.563	16.800	901.083	679.717
210.577	16.786	900.922	679.479
211.592	16.719	900.322	678.698
212.607	16.865	899.958	678.949
213.621	16.920	899.092	678.457
214.636	17.038	898.286	678.258
215.650	16.816	897.882	677.008
216.665	16.766	897.603	676.537
217.680	17.026	896.626	676.776
218.694	17.130	896.363	676.932
219.709	17.052	896.067	676.340
220.723	17.016	895.191	675.476
221.738	17.060	894.327	674.938
222.753	16.993	894.027	674.388
223.767	16.985	892.997	673.517
224.782	17.050	892.165	673.087
225.796	17.203	891.515	673.146
226.811	17.217	890.974	672.733
227.826	17.235	890.134	672.109
228.840	16.993	889.694	670.762
229.855	17.097	888.629	670.309
230.869	17.152	888.047	670.028
231.884	17.011	887.547	669.037
232.899	17.017	886.473	668.193
233.913	16.959	886.509	667.931
234.928	16.907	885.501	666.909
235.942	16.849	884.940	666.196
236.957	17.028	883.941	666.089
237.972	16.998	883.139	665.310
238.986	16.921	883.007	664.850
240.001	16.897	882.287	664.153
241.015	16.963	881.344	663.644
242.030	17.014	880.488	663.141
243.045	17.122	880.007	663.139
244.059	17.127	879.987	663.085
245.074	17.212	879.052	662.655
246.088	17.130	878.499	661.861
247.103	17.250	877.939	661.845
248.117	17.270	877.393	661.452
249.132	17.455	877.102	661.896
250.147	17.616	876.310	661.866
251.161	17.688	875.847	661.735
252.176	17.837	875.021	661.629
253.190	17.906	874.213	661.230
254.205	17.885	874.239	661.110
255.220	17.805	873.592	660.250
256.234	17.907	872.474	659.742
257.249	17.837	871.976	659.036
258.263	17.715	871.757	658.343
259.278	17.864	871.282	658.501
260.293	17.857	870.532	657.846
261.307	17.850	870.019	657.374
262.322	17.958	869.318	657.201
263.336	18.004	868.702	656.857
264.351	17.994	868.310	656.461
265.366	17.939	867.702	655.735
266.380	18.057	866.794	655.441
267.395	18.060	866.236	654.974
268.409	17.897	865.278	653.568
269.424	18.020	864.463	653.364
270.439	17.842	864.263	652.473
271.453	17.947	863.312	652.099
272.468	17.882	862.407	651.110
273.482	17.803	861.912	650.379
274.497	17.905	861.367	650.297
275.512	17.830	860.876	649.586
276.526	17.784	860.146	648.802
277.541	17.847	859.550	648.532
278.555	17.943	859.022	648.443
279.570	18.014	858.529	648.283
280.585	18.172	858.041	648.457
281.599	18.228	857.788	648.418
282.614	18.008	857.067	646.984
283.628	17.956	855.981	645.911
284.643	18.148	855.569	646.267
285.657	18.012	855.218	645.432
286.672	17.974	854.681	644.827
287.687	17.881	854.464	644.256
288.701	18.007	853.805	644.176
289.716	18.069	853.377	644.028
290.730	18.079	852.241	643.154
291.745	18.080	851.725	642.710
292.760	18.082	851.201	642.264
293.774	18.176	850.482	642.020
294.789	18.183	850.296	641.846
295.803	18.309	849.407	641.594
296.818	18.171	848.686	640.474
297.833	18.116	847.996	639.691
298.847	17.944	847.548	638.652
299.862	18.076	846.439	638.254
300.876	18.231	846.096	638.516
301.891	18.270	845.749	638.346
302.906	18.319	845.092	637.973
303.920	18.304	844.633	637.516
304.935	18.440	843.991	637.480
305.949	18.589	843.448	637.568
306.964	18.540	842.651	636.727
307.979	18.563	841.521	635.902
308.993	18.417	841.767	635.491
310.008	18.382	841.304	634.957
311.022	18.498	840.735	634.898
312.037	18.490	840.110	634.341
313.052	18.445	839.629	633.755
314.066	18.338	838.415	632.387
315.081	18.233	837.823	631.497
316.095	18.246	837.445	631.204
317.110	18.307	836.794	630.886
318.125	18.249	836.140	630.121
319.139	18.303	835.731	629.956
320.154	18.318	835.417	629.718
321.168	18.348	835.186	629.600
322.183	18.378	834.253	628.950
323.197	18.327	834.099	628.591
324.212	18.413	833.470	628.377
325.227	18.382	832.545	627.510
326.241	18.484	832.141	627.523
327.256	18.456	831.697	627.033
328.270	18.439	831.217	626.550
329.285	18.349	830.734	625.802
330.300	18.335	829.894	625.063
331.314	18.431	829.409	624.993
332.329	18.425	828.904	624.536
333.343	18.639	827.994	624.573
334.358	18.527	827.802	623.966
335.373	18.633	827.464	624.044
336.387	18.724	826.605	623.671
337.402	18.655	826.368	623.185
338.416	18.727	825.759	622.931
339.431	18.709	825.464	622.591
340.446	18.974	824.987	623.136
341.460	18.879	824.301	622.218
342.475	18.994	823.941	622.306
343.489	19.054	823.516	622.149
344.504	18.770	822.880	620.585
345.519	19.128	821.886	621.072
346.533	19.131	821.952	621.079
347.548	19.071	821.285	620.303
348.562	18.873	820.800	619.169
349.577	18.855	820.082	618.509
350.592	18.882	819.099	617.809
351.606	18.793	818.875	617.265
352.621	18.700	818.291	616.435
353.635	18.741	818.006	616.316
354.650	18.891	817.652	616.532
355.665	18.806	817.383	615.969
356.679	18.989	816.491	615.896
357.694	18.945	816.024	615.335
358.708	19.125	815.709	615.687
359.723	19.255	814.913	615.496
360.738	19.113	814.145	614.354
361.752	18.978	814.297	613.931
362.767	18.994	813.727	613.506
363.781	19.016	813.614	613.444
364.796	19.147	813.231	613.566
365.810	19.292	812.675	613.608
366.825	19.446	811.933	613.544
367.840	19.465	811.858	613.498
368.854	19.559	811.313	613.368
369.869	19.172	811.305	611.931
370.883	19.287	810.311	611.535
371.898	19.341	809.717	611.226
372.913	19.358	809.368	610.968
373.927	19.508	808.693	610.934
374.942	19.394	808.348	610.218
375.956	19.382	807.329	609.351
376.971	19.476	806.872	609.284
377.986	19.504	806.369	608.950
379.000	19.590	805.877	608.829
380.015	19.529	805.569	608.325
381.029	19.504	804.948	607.714
382.044	19.705	804.062	607.699
383.059	19.711	803.444	607.200
384.073	19.736	803.191	607.044
385.088	19.563	802.933	606.185
386.102	19.444	802.162	605.133
387.117	19.294	801.708	604.213
388.132	19.391	801.099	604.040
389.146	19.488	800.594	603.945
390.161	19.396	800.513	603.508
391.175	19.411	800.055	603.162
392.190	19.695	799.312	603.541
393.205	19.694	798.834	603.123
394.219	19.343	798.713	601.754
395.234	19.509	797.926	601.684
396.248	19.367	797.753	601.007
397.263	19.337	796.949	600.242
398.278	19.252	796.617	599.643
399.292	19.453	795.829	599.698
400.307	19.314	795.531	598.935
401.321	19.433	795.307	599.128
402.336	19.384	794.947	598.633
403.350	19.376	794.437	598.169
404.365	19.494	794.146	598.305
405.380	19.720	793.461	598.520
406.394	19.815	793.424	598.769
407.409	19.743	793.127	598.241
408.423	19.897	792.773	598.455
409.438	19.877	792.171	597.877
410.453	20.067	791.655	598.091
411.467	19.902	791.479	597.336
412.482	20.213	790.520	597.631
413.496	20.156	790.176	597.121
414.511	20.227	789.932	597.129
415.526	20.165	789.610	596.619
416.540	20.134	789.080	596.059
417.555	20.164	788.804	595.901
418.569	20.042	788.286	595.039
419.584	20.180	787.791	595.085
420.599	20.105	787.221	594.346
421.613	162.336	1369.882	1797.210
422.628	140.558	1454.766	1797.297
