DTS Sentinel unit serial number:	SN413079Multiplexer serial number:	ORYXHardware model number:	OX4-SRSoftware version number:	ORYX F/W v4.00 Oryx Data Collector v3.7.2.0data status	okinstallation	princeton_trtdifferential loss correction	single-endedforward channel	channel 3reverse channel	N/Adate	2019/09/12time	17:46:11forward acquisition time	60.00reverse acquisition time	0.00gamma	496.2192k internal	0.2316k external	0.2316temperature offset calibration	1.0095default loss term (dB/km)	0.3790temperature slope calibration	1.0000multiplexer offset coefficient	1.0000multiplexer slope coefficient	1.0000fibre end	0.00T internal ref (°C)	34.14T ext. ref 1 (°C)	2.93T ext. ref 2 (°C)	28.30length (m)	temperature (°C)	Stokes	anti-Stokes-747.200	382.685	-0.136	-0.283
-746.185	374.105	-0.300	0.618
-745.171	-200.000	0.003	-0.198
-744.156	60.988	-0.223	0.224
-743.142	4.868	0.295	-0.220
-742.127	-44.202	0.157	0.080
-741.112	-91.390	-0.212	-0.061
-740.098	-200.000	-0.100	0.448
-739.083	112.575	-0.208	0.255
-738.069	-118.010	-0.239	0.043
-737.054	107.639	0.131	-0.158
-736.039	-42.068	-0.180	0.093
-735.025	563.076	0.160	0.393
-734.010	-25.034	-0.168	-0.101
-732.996	-20.127	0.080	-0.050
-731.981	-148.114	0.056	-0.005
-730.966	321.730	-0.114	0.220
-729.952	-82.206	-0.271	-0.090
-728.937	167.260	-0.065	0.094
-727.923	-108.124	-0.246	-0.054
-726.908	-96.027	0.061	-0.016
-725.894	-66.234	-0.310	0.125
-724.879	119.054	0.086	-0.107
-723.864	-30.230	-0.430	-0.247
-722.850	-4.937	-0.174	-0.121
-721.835	304.262	0.065	0.122
-720.821	341.493	-0.147	-0.292
-719.806	8.959	-0.240	-0.183
-718.791	-168.104	-0.218	-0.009
-717.777	76.323	-0.130	0.139
-716.762	-49.230	-0.232	0.112
-715.748	446.199	-0.038	0.085
-714.733	-95.338	0.317	-0.086
-713.718	-200.000	0.015	-0.189
-712.704	14.120	-0.115	-0.091
-711.689	-200.000	0.035	0.216
-710.675	422.335	0.180	0.392
-709.660	-40.665	0.149	0.078
-708.645	-200.000	0.002	0.136
-707.631	258.720	0.052	-0.091
-706.616	-24.695	0.215	0.129
-705.602	5.210	-0.300	-0.224
-704.587	-200.000	0.017	-0.114
-703.572	-200.000	0.064	-0.300
-702.558	428.107	-0.056	-0.121
-701.543	-200.000	-0.020	-0.135
-700.529	658.456	-0.132	-0.343
-699.514	800.000	0.075	0.317
-698.499	53.626	0.091	0.088
-697.485	-112.501	-0.208	0.042
-696.470	-48.951	0.024	0.011
-695.456	-200.000	0.007	-0.147
-694.441	49.117	0.098	0.093
-693.426	-66.422	0.567	0.228
-692.412	474.158	0.024	-0.054
-691.397	13.521	0.159	-0.124
-690.383	800.000	-0.081	0.296
-689.368	629.612	-0.086	-0.220
-688.354	-31.216	0.109	-0.062
-687.339	-200.000	-0.029	0.367
-686.324	-51.506	0.219	0.103
-685.310	-28.182	-0.187	-0.109
-684.295	324.026	-0.146	-0.282
-683.281	-200.000	-0.023	0.267
-682.266	-79.294	-0.048	-0.017
-681.251	-130.081	-0.167	0.023
-680.237	-129.258	0.208	0.029
-679.222	-75.671	0.120	-0.043
-678.208	-158.362	0.049	0.003
-677.193	179.982	0.161	-0.238
-676.178	71.789	0.105	-0.110
-675.164	155.253	-0.042	-0.059
-674.149	-98.198	-0.178	-0.046
-673.135	800.000	0.104	-0.316
-672.120	-22.616	0.226	-0.138
-671.105	95.590	0.280	0.323
-670.091	-100.930	0.311	-0.077
-669.076	-200.000	-0.027	0.161
-668.062	183.519	0.198	-0.296
-667.047	-12.355	0.314	0.207
-666.032	-60.173	-0.143	-0.062
-665.018	-68.274	0.266	-0.104
-664.003	-109.532	-0.163	-0.035
-662.989	-66.816	-0.180	-0.072
-661.974	36.163	-0.116	0.103
-660.959	-113.999	-0.080	0.016
-659.945	65.047	-0.050	0.051
-658.930	17.733	-0.100	0.080
-657.916	-115.973	-0.134	0.025
-656.901	203.635	-0.063	-0.098
-655.886	800.000	0.051	0.173
-654.872	-200.000	-0.033	-0.175
-653.857	124.126	0.130	0.165
-652.843	-200.000	-0.031	0.177
-651.828	-147.300	-0.509	0.044
-650.814	-135.273	-0.304	-0.037
-649.799	-85.668	-0.209	-0.065
-648.784	800.000	0.061	-0.228
-647.770	76.780	-0.170	-0.183
-646.755	-170.760	0.250	-0.009
-645.741	-125.577	-0.049	-0.008
-644.726	-55.503	0.225	-0.102
-643.711	312.934	-0.155	-0.294
-642.697	49.855	-0.098	-0.093
-641.682	-200.000	-0.035	0.240
-640.668	-200.000	0.021	-0.193
-639.653	-39.057	0.141	-0.075
-638.638	-28.795	-0.243	-0.141
-637.624	-135.235	0.151	0.018
-636.609	72.024	0.199	-0.209
-635.595	-200.000	-0.001	0.272
-634.580	39.178	0.087	0.079
-633.565	-121.976	-0.178	-0.029
-632.551	-104.589	0.171	-0.040
-631.536	3.438	-0.354	-0.260
-630.522	27.307	0.138	0.117
-629.507	-97.211	0.226	-0.060
-628.492	-200.000	0.029	-0.128
-627.478	52.771	0.182	-0.176
-626.463	-123.904	-0.277	-0.044
-625.449	36.942	-0.176	-0.157
-624.434	191.493	0.069	-0.104
-623.419	-77.491	-0.236	0.083
-622.405	-81.822	0.197	0.065
-621.390	-50.990	0.199	-0.094
-620.376	780.573	0.063	-0.175
-619.361	-40.271	-0.417	-0.219
-618.346	-51.193	0.197	-0.093
-617.332	26.640	0.093	-0.078
-616.317	-68.157	-0.103	0.040
-615.303	-25.895	0.357	0.212
-614.288	800.000	-0.047	0.194
-613.273	99.918	-0.188	0.220
-612.259	-200.000	-0.046	0.272
-611.244	-193.723	0.430	-0.004
-610.230	800.000	0.047	0.162
-609.215	800.000	-0.013	0.038
-608.201	-21.803	-0.423	0.259
-607.186	757.148	0.127	-0.347
-606.171	112.361	-0.176	-0.215
-605.157	81.513	0.099	-0.107
-604.142	117.705	-0.219	0.272
-603.128	-66.182	0.139	0.056
-602.113	-41.389	0.314	0.163
-601.098	-200.000	0.032	0.157
-600.084	-78.016	-0.144	-0.050
-599.069	152.018	0.114	-0.157
-598.055	393.235	-0.133	-0.279
-597.040	-200.000	-0.005	0.187
-596.025	-178.067	-0.183	0.004
-595.011	-131.813	0.396	-0.052
-593.996	-148.956	-0.286	0.023
-592.982	800.000	-0.053	0.227
-591.967	259.825	0.088	0.153
-590.952	186.244	0.025	-0.038
-589.938	-101.436	-0.314	-0.077
-588.923	115.306	-0.063	0.078
-587.909	83.635	0.177	-0.194
-586.894	7.604	-0.017	-0.013
-585.879	-123.483	0.102	-0.016
-584.865	40.058	0.278	0.252
-583.850	-38.171	0.279	0.149
-582.836	-16.144	0.196	0.125
-581.821	226.203	-0.075	-0.122
-580.806	-80.584	-0.157	-0.053
-579.792	-200.000	0.001	-0.056
-578.777	97.452	0.178	-0.206
-577.763	-8.686	-0.154	0.104
-576.748	-43.421	-0.468	-0.238
-575.733	-83.796	-0.292	-0.094
-574.719	95.263	0.232	0.266
-573.704	-200.000	0.044	-0.419
-572.690	490.145	0.009	-0.020
-571.675	-110.043	-0.167	0.035
-570.661	-61.796	-0.177	0.075
-569.646	800.000	-0.120	-0.488
-568.631	453.687	-0.169	0.376
-567.617	31.471	0.164	0.141
-566.602	72.152	-0.123	-0.129
-565.588	-96.102	-0.269	0.072
-564.573	-200.000	-0.056	0.438
-563.558	-27.260	-0.436	-0.256
-562.544	-146.537	0.240	-0.021
-561.529	-162.272	-0.208	-0.010
-560.515	800.000	0.006	0.022
-559.500	219.015	-0.021	0.034
-558.485	93.237	-0.114	-0.129
-557.471	328.752	-0.081	0.156
-556.456	-84.225	0.188	-0.060
-555.442	46.599	-0.196	-0.183
-554.427	752.554	-0.108	0.293
-553.412	168.712	-0.118	0.169
-552.398	55.997	-0.125	-0.122
-551.383	86.278	-0.113	0.125
-550.369	-13.905	-0.181	-0.117
-549.354	-189.794	-0.253	-0.003
-548.339	-18.458	0.104	0.065
-547.325	-117.975	0.091	0.016
-546.310	437.364	0.066	-0.145
-545.296	699.421	-0.057	-0.150
-544.281	-119.059	-0.115	0.020
-543.266	800.000	0.078	-0.256
-542.252	800.000	-0.047	0.166
-541.237	165.304	-0.151	0.215
-540.223	266.291	-0.026	-0.046
-539.208	702.316	-0.099	0.263
-538.193	73.698	0.095	0.100
-537.179	-39.024	-0.135	0.071
-536.164	800.000	-0.044	-0.167
-535.150	68.451	-0.232	0.239
-534.135	117.492	0.123	0.151
-533.121	-200.000	0.000	-0.064
-532.106	-24.111	-0.133	-0.080
-531.091	-66.858	0.079	0.032
-530.077	155.683	-0.263	-0.364
-529.062	234.984	0.079	0.131
-528.048	4.048	0.124	0.091
-527.033	-147.591	0.210	0.018
-526.018	-200.000	0.017	-0.100
-525.004	-80.683	0.100	0.033
-523.989	-200.000	0.003	0.167
-522.975	237.743	0.096	0.160
-521.960	-200.000	-0.004	0.086
-520.945	-37.726	-0.168	0.090
-519.931	6.186	-0.099	0.074
-518.916	615.952	0.062	-0.157
-517.902	-87.726	0.097	0.029
-516.887	800.000	0.058	0.227
-515.872	-100.049	0.258	0.065
-514.858	-168.631	0.290	-0.011
-513.843	-72.857	0.197	0.073
-512.829	-200.000	0.066	-0.425
-511.814	-122.093	-0.182	-0.030
-510.799	-200.000	0.005	-0.110
-509.785	800.000	-0.041	0.131
-508.770	285.401	-0.047	0.084
-507.756	544.959	0.132	-0.318
-506.741	-47.663	0.276	-0.134
-505.726	22.850	-0.221	0.181
-504.712	800.000	0.044	0.187
-503.697	155.670	-0.263	-0.364
-502.683	-35.756	-0.479	-0.260
-501.668	-58.122	-0.123	-0.054
-500.653	-200.000	-0.007	-0.226
-499.639	800.000	0.068	-0.280
-498.624	-60.857	0.206	0.088
-497.610	447.473	-0.095	0.210
-496.595	-107.046	-0.293	0.065
-495.581	-85.241	0.258	-0.081
-494.566	-110.104	0.145	-0.030
-493.551	44.316	-0.197	-0.182
-492.537	-200.000	0.002	-0.010
-491.522	-200.000	0.056	0.328
-490.508	-115.759	0.152	0.029
-489.493	-36.922	0.199	0.107
-488.478	429.125	0.123	0.266
-487.464	-106.340	0.064	-0.014
-486.449	-200.000	-0.034	-0.294
-485.435	196.958	-0.077	-0.118
-484.420	43.189	0.101	0.092
-483.405	-59.110	-0.299	-0.129
-482.391	23.211	0.281	0.231
-481.376	22.606	-0.180	0.148
-480.362	800.000	-0.101	0.340
-479.347	280.901	0.103	0.185
-478.332	52.735	0.104	-0.100
-477.318	119.016	0.076	0.094
-476.303	-39.886	-0.128	0.067
-475.289	37.821	-0.197	0.175
-474.274	412.167	-0.024	0.051
-473.259	59.773	0.288	0.285
-472.245	488.088	-0.065	-0.148
-471.230	159.956	0.146	0.203
-470.216	277.232	0.042	-0.075
-469.201	-200.000	0.007	-0.328
-468.186	-89.086	-0.076	-0.023
-467.172	25.160	-0.280	0.233
-466.157	-148.795	0.215	0.017
-465.143	14.003	0.129	0.101
-464.128	-200.000	0.026	-0.407
-463.113	-65.154	0.200	0.081
-462.099	-144.012	-0.152	-0.014
-461.084	63.064	0.084	0.084
-460.070	-83.430	-0.249	0.080
-459.055	-108.849	-0.171	-0.037
-458.040	-200.000	0.014	-0.365
-457.026	-26.597	-0.143	-0.084
-456.011	-126.388	-0.126	-0.019
-454.997	125.193	0.136	-0.172
-453.982	9.573	-0.180	0.136
-452.968	-41.533	0.198	0.102
-451.953	13.962	-0.171	-0.134
-450.938	184.187	-0.118	-0.175
-449.924	-83.782	-0.264	-0.084
-448.909	97.587	0.124	0.143
-447.895	-107.455	-0.123	-0.027
-446.880	595.318	-0.076	0.187
-445.865	182.684	-0.187	0.276
-444.851	800.000	-0.108	-0.360
-443.836	-200.000	0.059	-0.340
-442.822	-46.497	-0.059	-0.029
-441.807	-51.507	-0.105	0.049
-440.792	656.770	0.077	-0.197
-439.778	-143.936	-0.179	-0.017
-438.763	-146.434	0.181	-0.016
-437.749	-200.000	-0.049	0.276
-436.734	232.235	0.149	-0.245
-435.719	608.579	0.160	0.399
-434.705	102.002	-0.072	-0.084
-433.690	-200.000	0.056	0.376
-432.676	-94.512	0.062	-0.017
-431.661	-200.000	0.006	-0.038
-430.646	-69.177	0.187	0.072
-429.632	800.000	-0.080	0.223
-428.617	216.866	-0.085	-0.136
-427.603	4.380	0.251	0.184
-426.588	13.014	0.186	0.144
-425.573	-200.000	-0.017	0.286
-424.559	-25.243	0.024	-0.014
-423.544	-200.000	0.054	-0.340
-422.530	-20.649	-0.250	0.154
-421.515	339.698	-0.253	0.492
-420.500	469.809	0.025	0.057
-419.486	-200.000	0.023	0.102
-418.471	427.705	0.080	-0.174
-417.457	75.836	-0.296	-0.313
-416.442	200.440	-0.028	-0.043
-415.428	66.646	-0.127	0.129
-414.413	-200.000	-0.020	0.328
-413.398	125.824	-0.013	0.016
-412.384	-200.000	-0.044	-0.251
-411.369	-80.148	-0.113	0.038
-410.355	800.000	0.016	-0.063
-409.340	-112.810	0.240	-0.048
-408.325	139.694	0.122	-0.161
-407.311	-19.328	-0.139	0.086
-406.296	-135.272	0.159	0.019
-405.282	-200.000	0.008	-0.164
-404.267	95.988	-0.184	0.210
-403.252	-200.000	0.029	0.427
-402.238	-77.606	0.262	-0.091
-401.223	40.541	0.224	-0.201
-400.209	64.237	-0.056	-0.056
-399.194	-15.278	-0.067	-0.043
-398.179	7.614	-0.122	0.092
-397.165	-33.807	0.372	-0.205
-396.150	-134.272	-0.177	-0.022
-395.136	800.000	0.083	-0.326
-394.121	197.374	-0.078	-0.119
-393.106	-102.290	-0.229	-0.055
-392.092	161.600	-0.148	0.207
-391.077	-70.242	-0.232	-0.088
-390.063	-81.603	-0.199	0.065
-389.048	-76.407	0.097	0.034
-388.033	-200.000	-0.020	0.328
-387.019	800.000	0.051	0.188
-386.004	800.000	0.054	-0.209
-384.990	800.000	0.044	0.163
-383.975	-200.000	-0.018	0.341
-382.960	-200.000	0.036	-0.304
-381.946	-158.771	0.065	0.004
-380.931	45.876	0.286	0.264
-379.917	-200.000	-0.092	-0.554
-378.902	-63.417	0.266	0.109
-377.888	396.807	0.108	0.225
-376.873	99.029	0.178	-0.205
-375.858	38.982	-0.078	-0.070
-374.844	-97.489	0.346	-0.090
-373.829	-200.000	0.039	-0.428
-372.815	62.602	0.287	-0.287
-371.800	25.076	0.248	-0.206
-370.785	-62.334	0.134	0.056
-369.771	86.927	0.131	-0.144
-368.756	-200.000	-0.033	-0.295
-367.742	-40.517	-0.197	0.102
-366.727	-152.035	-0.134	0.010
-365.712	-111.434	-0.193	-0.039
-364.698	99.920	0.142	0.164
-363.683	-4.658	-0.306	0.211
-362.669	-200.000	-0.011	0.095
-361.654	-96.091	-0.527	-0.140
-360.639	-197.494	-0.251	0.002
-359.625	44.237	0.032	0.029
-358.610	280.769	-0.258	-0.461
-357.596	36.482	-0.252	-0.222
-356.581	24.210	0.077	0.064
-355.566	-124.291	0.029	-0.005
-354.552	-200.000	-0.037	-0.231
-353.537	-200.000	-0.012	-0.384
-352.523	-90.125	0.268	-0.078
-351.508	-200.000	0.013	0.090
-350.493	514.900	0.124	0.289
-349.479	-200.000	-0.349	-0.000
-348.464	-6.021	-0.113	0.077
-347.450	18.154	0.058	-0.046
-346.435	378.330	-0.111	0.226
-345.420	-99.892	-0.065	-0.016
-344.406	107.263	-0.131	-0.155
-343.391	234.035	0.084	0.138
-342.377	38.346	0.035	0.031
-341.362	-80.275	0.154	0.051
-340.348	241.196	0.068	-0.114
-339.333	126.522	0.167	-0.210
-338.318	473.446	-0.133	-0.298
-337.304	243.036	-0.096	-0.160
-336.289	333.695	0.180	0.348
-335.275	40.252	-0.472	0.423
-334.260	19.345	0.156	0.125
-333.245	-132.292	-0.299	-0.039
-332.231	181.580	0.089	0.130
-331.216	159.127	-0.155	-0.214
-330.202	3.734	0.217	0.158
-329.187	-17.645	-0.085	0.053
-328.172	800.000	-0.031	-0.111
-327.158	-143.313	-0.101	0.010
-326.143	71.289	-0.205	0.212
-325.129	187.987	-0.032	-0.048
-324.114	-111.936	0.045	-0.009
-323.099	16.495	0.195	-0.154
-322.085	194.181	0.013	0.019
-321.070	561.369	-0.073	0.176
-320.056	800.000	-0.032	-0.141
-319.041	-200.000	0.003	0.050
-318.026	-61.607	-0.306	-0.128
-317.012	71.147	-0.128	-0.132
-315.997	264.740	0.024	0.041
-314.983	197.445	0.206	0.313
-313.968	-125.596	-0.271	-0.041
-312.953	-15.491	0.150	0.095
-311.939	-200.000	-0.010	0.074
-310.924	-6.302	0.106	-0.072
-309.910	-200.000	-0.045	-0.307
-308.895	-24.955	0.217	0.128
-307.880	-104.855	-0.328	0.075
-306.866	-113.638	0.261	0.051
-305.851	252.453	0.106	-0.180
-304.837	-5.619	0.095	-0.065
-303.822	133.499	-0.246	0.317
-302.807	-23.544	0.298	0.178
-301.793	-46.222	-0.202	0.099
-300.778	800.000	0.083	-0.259
-299.764	800.000	-0.106	0.298
-298.749	-140.076	0.146	0.015
-297.735	168.273	0.210	-0.298
-296.720	353.568	-0.081	-0.159
-295.705	188.863	-0.062	0.093
-294.691	-39.775	0.048	0.025
-293.676	800.000	-0.094	0.295
-292.662	171.761	0.137	-0.196
-291.647	348.673	0.138	-0.272
-290.632	800.000	-0.044	-0.157
-289.618	-1.016	0.365	0.257
-288.603	-46.648	0.195	-0.095
-287.589	-200.000	-0.040	-0.258
-286.574	15.508	0.327	-0.256
-285.559	224.109	-0.111	-0.179
-284.545	48.049	-0.094	0.087
-283.530	-72.427	0.392	-0.144
-282.516	-85.923	-0.073	0.023
-281.501	-41.683	-0.083	0.042
-280.486	-200.000	-0.023	0.353
-279.472	267.349	-0.067	0.117
-278.457	-200.000	0.065	0.435
-277.443	91.898	0.115	-0.129
-276.428	458.841	-0.037	0.082
-275.413	-147.550	0.316	0.026
-274.399	387.208	-0.230	0.472
-273.384	723.804	0.115	0.304
-272.370	26.163	-0.262	0.218
-271.355	-154.576	-0.169	-0.011
-270.340	-200.000	-0.026	0.167
-269.326	-128.507	0.224	0.032
-268.311	-80.238	-0.220	-0.073
-267.297	35.645	0.219	-0.192
-266.282	32.523	-0.183	-0.157
-265.267	-200.000	0.014	0.091
-264.253	800.000	0.033	-0.120
-263.238	-85.730	-0.138	0.042
-262.224	110.395	-0.062	0.074
-261.209	-28.258	-0.295	-0.169
-260.195	-102.021	-0.242	-0.058
-259.180	-159.196	0.179	-0.010
-258.165	-200.000	0.056	0.279
-257.151	-103.611	-0.366	-0.085
-256.136	800.000	-0.058	-0.182
-255.122	45.970	-0.142	0.131
-254.107	187.848	0.081	-0.120
-253.092	15.279	0.327	0.255
-252.078	-200.000	-0.012	0.094
-251.063	-196.300	0.055	-0.000
-250.049	-200.000	0.029	0.181
-249.034	-157.694	-0.101	0.006
-248.019	318.190	-0.077	-0.145
-247.005	-45.388	-0.059	-0.029
-245.990	-200.000	0.072	-0.326
-244.976	69.604	-0.139	0.142
-243.961	303.811	-0.078	0.144
-242.946	-93.889	0.147	0.040
-241.932	263.733	0.129	-0.222
-240.917	-200.000	-0.007	-0.233
-239.903	109.124	0.123	-0.146
-238.888	-200.000	-0.060	0.340
-237.873	74.134	0.069	0.072
-236.859	600.103	0.047	-0.116
-235.844	-25.166	-0.022	-0.013
-234.830	-149.196	-0.486	0.039
-233.815	-101.572	-0.202	0.049
-232.800	533.170	0.125	0.294
-231.786	-176.870	-0.125	0.003
-230.771	-156.449	0.183	-0.011
-229.757	-200.000	-0.015	0.165
-228.742	-117.200	-0.068	0.012
-227.727	-123.147	0.102	0.016
-226.713	-18.005	0.412	-0.256
-225.698	-112.982	-0.227	-0.045
-224.684	-84.281	0.248	0.078
-223.669	-77.913	0.136	-0.047
-222.655	124.855	0.058	-0.073
-221.640	-35.839	-0.263	-0.141
-220.625	-131.800	0.188	0.024
-219.611	800.000	0.051	0.189
-218.596	-200.000	0.024	-0.383
-217.582	800.000	0.038	-0.158
-216.567	-200.000	-0.001	-0.043
-215.552	104.208	-0.138	-0.161
-214.538	205.455	0.127	-0.196
-213.523	-50.982	0.261	-0.122
-212.509	-24.169	0.162	0.096
-211.494	-64.875	0.147	-0.059
-210.479	36.607	-0.135	-0.118
-209.465	-117.066	0.120	0.022
-208.450	-11.624	-0.126	0.082
-207.436	-69.578	-0.181	-0.069
-206.421	-200.000	0.013	0.165
-205.406	-200.000	0.053	-0.228
-204.392	138.945	-0.079	0.103
-203.377	23.320	0.185	-0.150
-202.363	-200.000	-0.016	-0.167
-201.348	-200.000	0.060	0.388
-200.333	32.498	-0.309	-0.264
-199.319	-69.368	0.187	0.071
-198.304	-137.306	0.345	-0.039
-197.290	12.588	0.031	0.024
-196.275	-136.577	0.205	-0.024
-195.260	-200.000	-0.016	0.193
-194.246	800.000	0.025	0.102
-193.231	-105.674	0.108	-0.024
-192.217	-140.509	-0.140	0.014
-191.202	13.728	0.184	-0.142
-190.187	-83.417	0.225	-0.071
-189.173	437.408	0.125	0.269
-188.158	-139.426	0.389	0.041
-187.144	172.006	-0.140	-0.199
-186.129	188.203	-0.155	0.229
-185.114	-71.897	0.155	0.057
-184.100	-70.276	0.079	-0.030
-183.085	-86.094	0.209	-0.064
-182.071	-22.941	-0.277	-0.166
-181.056	316.181	0.056	-0.105
-180.042	-108.460	0.151	-0.032
-179.027	-200.000	-0.040	0.202
-178.012	-145.839	0.158	-0.014
-176.998	106.189	-0.059	-0.070
-175.983	800.000	0.015	0.044
-174.969	-200.000	-0.023	0.189
-173.954	-56.863	0.291	0.127
-172.939	800.000	-0.151	0.581
-171.925	12.079	0.199	0.152
-170.910	-122.567	-0.115	0.018
-169.896	-41.367	-0.215	-0.110
-168.881	-42.409	0.219	-0.111
-167.866	-193.451	-0.095	0.001
-166.852	-77.254	0.036	0.012
-165.837	272.658	0.060	-0.104
-164.823	378.118	0.139	0.282
-163.808	-200.000	-0.031	0.176
-162.793	678.616	0.024	-0.062
-161.779	-24.545	-0.039	-0.023
-160.764	128.148	0.081	-0.102
-159.750	-38.941	0.202	0.105
-158.735	-71.259	0.192	-0.071
-157.720	-188.426	0.316	0.004
-156.706	800.000	-0.081	-0.270
-155.691	165.563	-0.126	0.176
-154.677	-17.761	0.220	-0.136
-153.662	-33.002	0.206	-0.113
-152.647	17.776	-0.176	0.138
-151.633	316.451	-0.103	0.193
-150.618	670.683	0.083	-0.213
-149.604	-98.722	-0.089	0.022
-148.589	-178.429	0.208	0.005
-147.574	294.699	0.047	-0.085
-146.560	-116.777	-0.142	-0.026
-145.545	154.864	-0.054	-0.074
-144.531	-2.099	-0.194	0.135
-143.516	78.532	-0.069	0.073
-142.502	90.339	-0.186	0.206
-141.487	-134.318	0.300	0.036
-140.472	-65.022	0.248	0.099
-139.458	-30.490	-0.220	-0.123
-138.443	-24.046	0.298	-0.176
-137.429	-200.000	-0.063	0.296
-136.414	63.203	-0.105	0.104
-135.399	256.056	0.041	-0.070
-134.385	207.395	-0.209	-0.323
-133.370	-200.000	0.010	-0.140
-132.356	2.965	-0.187	-0.134
-131.341	711.978	0.094	0.246
-130.326	239.592	0.113	0.187
-129.312	-93.937	0.127	0.035
-128.297	-114.482	0.282	0.054
-127.283	25.917	-0.197	-0.162
-126.268	92.393	0.278	-0.309
-125.253	-57.354	0.197	0.086
-124.239	-177.486	-0.204	0.005
-123.224	337.257	0.026	0.050
-122.210	180.769	0.059	-0.086
-121.195	34.591	0.155	0.134
-120.180	392.746	0.180	0.370
-119.166	464.225	0.055	-0.123
-118.151	-158.761	0.201	-0.011
-117.137	800.000	-0.050	0.140
-116.122	109.431	0.109	-0.129
-115.107	-101.482	0.031	-0.007
-114.093	214.882	0.115	0.181
-113.078	41.235	-0.060	-0.054
-112.064	5.726	-0.121	-0.088
-111.049	-100.173	0.096	-0.024
-110.034	551.255	-0.119	0.282
-109.020	-163.218	0.224	0.011
-108.005	348.818	-0.154	0.300
-106.991	145.554	0.145	-0.192
-105.976	273.319	-0.073	-0.128
-104.962	-158.142	0.019	0.001
-103.947	-17.984	0.210	-0.130
-102.932	800.000	0.057	-0.201
-101.918	600.993	-0.176	0.431
-100.903	85.892	0.090	0.098
-99.889	191.580	-0.162	0.241
-98.874	-200.000	-0.020	-0.311
-97.859	-106.537	-0.223	-0.049
-96.845	-200.000	0.014	-0.181
-95.830	800.000	0.060	0.216
-94.816	208.297	0.064	0.099
-93.801	22.716	0.178	0.144
-92.786	253.746	0.110	0.186
-91.772	516.365	0.161	-0.371
-90.757	214.091	0.227	0.355
-89.743	284.390	0.106	0.188
-88.728	65.180	-0.095	0.095
-87.713	-46.350	-0.134	-0.065
-86.699	181.034	0.210	-0.304
-85.684	-200.000	0.037	-0.249
-84.670	-55.212	-0.141	0.063
-83.655	-200.000	-0.016	0.259
-82.640	11.602	-0.103	-0.078
-81.626	-51.598	-0.210	-0.097
-80.611	-133.876	-0.106	-0.013
-79.597	110.433	-0.078	0.092
-78.582	-200.000	0.024	-0.161
-77.567	81.164	-0.073	-0.078
-76.553	-200.000	-0.017	-0.146
-75.538	800.000	0.097	-0.279
-74.524	-200.000	-0.095	0.412
-73.509	697.614	0.116	0.301
-72.494	367.110	-0.073	0.146
-71.480	118.670	0.306	0.373
-70.465	331.177	0.108	0.205
-69.451	-31.228	-0.116	-0.064
-68.436	-84.253	0.478	0.149
-67.422	800.000	0.010	-0.038
-66.407	-48.167	-0.155	-0.074
-65.392	255.036	0.255	0.430
-64.378	-200.000	-0.057	-0.379
-63.363	800.000	0.032	0.107
-62.349	-200.000	0.050	0.245
-61.334	-5.111	-1.132	-0.768
-60.319	-94.912	0.820	0.219
-59.305	-200.000	0.095	-0.768
-58.290	480.934	0.408	0.912
-57.276	381.013	0.726	1.468
-56.261	-200.000	96.483	576.671
-55.246	549.284	1381.206	3263.300
-54.232	156.417	2569.341	3495.884
-53.217	112.455	2170.227	2588.371
-52.203	44.373	1709.978	1547.616
-51.188	37.288	1522.459	1329.570
-50.173	34.867	1496.105	1290.190
-49.159	54.628	1545.115	1468.306
-48.144	57.141	1564.363	1503.759
-47.130	37.565	1521.498	1330.415
-46.115	34.403	1506.314	1295.640
-45.100	34.194	1502.968	1291.287
-44.086	34.244	1500.755	1289.675
-43.071	34.151	1498.994	1287.479
-42.057	34.195	1497.741	1286.652
-41.042	34.085	1496.626	1284.898
-40.027	34.128	1495.122	1283.849
-39.013	34.163	1493.393	1282.549
-37.998	34.118	1491.905	1280.916
-36.984	34.022	1491.936	1280.243
-35.969	34.183	1489.563	1279.241
-34.954	34.150	1487.831	1277.482
-33.940	34.129	1486.618	1276.248
-32.925	34.137	1485.395	1275.201
-31.911	34.174	1483.954	1274.164
-30.896	34.160	1483.022	1273.219
-29.881	34.136	1481.758	1271.918
-28.867	34.201	1480.280	1271.035
-27.852	34.191	1478.593	1269.472
-26.838	34.295	1477.012	1268.752
-25.823	34.220	1475.825	1267.183
-24.809	34.258	1474.220	1266.007
-23.794	34.217	1472.878	1264.538
-22.779	34.232	1471.584	1263.470
-21.765	34.188	1470.954	1262.589
-20.750	34.094	1469.924	1261.031
-19.736	34.262	1468.328	1260.726
-18.721	34.183	1467.526	1259.466
-17.706	34.131	1466.709	1258.371
-16.692	34.119	1465.567	1257.257
-15.677	34.127	1464.700	1256.517
-14.663	34.085	1463.859	1255.470
-13.648	34.106	1462.988	1254.810
-12.633	34.135	1461.687	1253.838
-11.619	34.040	1461.110	1252.667
-10.604	34.002	1460.401	1251.759
-9.590	34.080	1459.241	1251.230
-8.575	34.146	1458.539	1251.012
-7.560	34.178	1457.396	1250.190
-6.546	34.137	1456.624	1249.207
-5.531	34.029	1456.292	1248.170
-4.517	34.075	1454.690	1247.048
-3.502	34.015	1454.112	1246.107
-2.487	34.085	1452.962	1245.533
-1.473	34.127	1451.763	1244.730
-0.458	34.043	1450.118	1242.720
0.556	35.006	1440.779	1231.108
1.571	31.730	1414.483	1187.800
2.586	27.728	1354.083	1112.631
3.600	25.795	1272.124	1034.106
4.615	24.175	1225.932	987.496
5.629	20.658	1169.340	923.196
6.644	11.402	1084.434	810.324
7.659	4.324	1042.727	745.196
8.673	3.244	1037.258	736.059
9.688	2.938	1034.222	732.382
10.702	2.763	1032.439	730.218
11.717	2.796	1030.687	729.071
12.731	5.803	1033.838	745.550
13.746	15.140	1047.061	799.793
14.761	23.335	1058.355	847.737
15.775	26.158	1060.034	862.516
16.790	26.585	1060.454	864.820
17.804	26.398	1059.662	863.209
18.819	26.245	1058.896	861.775
19.834	26.311	1058.254	861.492
20.848	26.550	1058.011	862.358
21.863	26.573	1057.377	861.875
22.877	26.650	1057.291	862.095
23.892	26.519	1056.666	860.886
24.907	26.506	1055.288	859.622
25.921	26.441	1055.157	859.132
26.936	26.499	1054.064	858.442
27.950	26.491	1053.092	857.535
28.965	26.367	1052.079	856.050
29.980	26.380	1050.142	854.460
30.994	26.154	1049.648	852.915
32.009	26.511	1048.996	853.995
33.023	26.561	1048.383	853.654
34.038	26.382	1047.288	851.845
35.053	26.306	1046.287	850.598
36.067	26.373	1045.994	850.596
37.082	26.472	1044.930	850.125
38.096	26.579	1044.549	850.241
39.111	26.691	1043.552	849.878
40.126	26.767	1042.833	849.576
41.140	26.773	1041.407	848.366
42.155	26.404	1040.147	845.540
43.169	26.035	1039.157	842.938
44.184	26.077	1037.840	841.987
45.199	26.139	1036.993	841.515
46.213	26.207	1035.925	840.891
47.228	26.045	1035.439	839.668
48.242	26.310	1034.708	840.235
49.257	26.359	1033.715	839.582
50.271	26.444	1033.181	839.468
51.286	26.448	1032.597	838.939
52.301	26.612	1031.839	839.005
53.315	26.648	1030.785	838.242
54.330	26.423	1030.855	837.183
55.344	26.428	1029.444	835.988
56.359	26.463	1028.952	835.676
57.374	26.537	1027.745	834.961
58.388	26.317	1026.523	832.882
59.403	26.296	1025.779	832.107
60.417	26.164	1025.498	831.201
61.432	26.093	1024.329	829.852
62.447	25.977	1024.334	829.247
63.461	26.259	1023.394	829.708
64.476	26.281	1022.770	829.229
65.490	26.152	1022.253	828.144
66.505	26.086	1020.881	826.659
67.520	26.066	1020.538	826.219
68.534	26.212	1019.256	825.776
69.549	26.179	1018.135	824.643
70.563	25.839	1016.843	821.974
71.578	25.684	1016.015	820.525
72.593	25.751	1015.708	820.507
73.607	25.486	1014.457	818.219
74.622	25.612	1013.635	818.058
75.636	25.971	1012.669	818.835
76.651	25.923	1012.366	818.301
77.666	25.931	1011.425	817.501
78.680	25.848	1010.163	816.035
79.695	25.835	1010.098	815.849
80.709	25.942	1009.367	815.671
81.724	26.025	1008.616	815.368
82.739	26.033	1007.673	814.572
83.753	26.078	1006.643	813.869
84.768	26.377	1006.551	815.070
85.782	26.674	1005.925	815.827
86.797	26.917	1004.936	816.048
87.812	26.882	1004.285	815.288
88.826	26.653	1003.205	813.311
89.841	26.543	1002.665	812.311
90.855	26.782	1001.592	812.439
91.870	26.695	1001.055	811.543
92.884	26.678	1000.143	810.656
93.899	26.704	999.460	810.147
94.914	26.523	998.254	808.290
95.928	26.613	997.755	808.213
96.943	26.600	997.006	807.479
97.957	26.361	995.721	805.303
98.972	26.126	994.883	803.507
99.987	26.012	993.592	801.885
101.001	26.043	992.980	801.459
102.016	26.342	992.670	802.466
103.030	26.533	991.650	802.417
104.045	26.201	991.209	800.516
105.060	26.303	989.377	799.417
106.074	26.029	988.559	797.477
107.089	26.084	988.346	797.475
108.103	26.385	987.698	798.211
109.118	26.466	986.772	797.750
110.133	26.204	985.808	795.747
111.147	26.249	984.541	794.849
112.162	26.077	983.591	793.258
113.176	25.797	982.034	790.702
114.191	26.010	981.786	791.368
115.206	26.129	981.071	791.242
116.220	25.824	980.027	788.994
117.235	25.704	979.047	787.609
118.249	25.768	978.720	787.558
119.264	25.755	977.833	786.717
120.279	25.811	976.624	785.920
121.293	25.790	976.244	785.454
122.308	25.926	975.554	785.422
123.322	25.735	975.010	784.083
124.337	25.871	973.302	783.229
125.352	25.762	972.369	781.935
126.366	25.271	971.046	778.672
127.381	24.956	969.634	776.109
128.395	25.524	969.302	778.232
129.410	26.183	969.061	780.820
130.424	26.364	968.376	780.982
131.439	26.418	967.226	780.218
132.454	26.390	966.686	779.594
133.468	26.325	965.887	778.602
134.483	26.145	965.357	777.330
135.497	26.365	964.210	777.284
136.512	26.514	963.769	777.501
137.527	26.423	964.021	777.243
138.541	26.504	962.704	776.458
139.556	26.609	961.810	776.122
140.570	26.645	960.815	775.402
141.585	26.650	960.126	774.799
142.600	26.772	959.233	774.531
143.614	26.538	958.908	773.199
144.629	26.879	957.744	773.648
145.643	26.965	957.253	773.551
146.658	26.819	956.441	772.206
147.673	26.553	955.462	770.213
148.687	26.528	953.889	768.770
149.702	26.516	952.670	767.669
150.716	26.268	952.220	766.187
151.731	26.435	950.644	765.559
152.746	26.293	950.776	764.997
153.760	26.663	950.208	766.037
154.775	26.803	948.985	765.572
155.789	26.697	948.536	764.698
156.804	26.817	947.185	764.043
157.819	26.648	946.382	762.621
158.833	26.772	945.700	762.525
159.848	26.994	944.815	762.674
160.862	26.796	944.838	761.795
161.877	26.686	943.918	760.521
162.892	26.656	942.727	759.370
163.906	26.912	941.611	759.474
164.921	26.651	941.258	758.032
165.935	26.497	940.299	756.547
166.950	26.779	939.014	756.624
167.964	26.804	938.180	755.992
168.979	26.667	937.207	754.570
169.994	26.578	936.091	753.233
171.008	26.527	935.246	752.274
172.023	26.549	934.727	751.883
173.037	26.906	933.850	752.592
174.052	26.727	932.767	750.912
175.067	26.486	931.530	748.852
176.081	26.392	930.983	747.957
177.096	26.389	930.609	747.576
178.110	26.511	929.516	747.135
179.125	26.400	928.366	745.690
180.140	26.060	927.348	743.402
181.154	26.209	926.091	742.943
182.169	26.128	926.432	742.819
183.183	26.354	926.191	743.491
184.198	26.771	925.323	744.441
185.213	26.737	925.046	744.010
186.227	26.666	924.027	742.833
187.242	26.723	923.679	742.723
188.256	26.814	922.964	742.455
189.271	26.738	922.297	741.540
190.286	27.003	921.457	741.883
191.300	26.670	920.735	739.879
192.315	26.199	919.214	736.670
193.329	25.305	917.690	731.740
194.344	24.956	916.485	729.293
195.359	25.502	917.031	731.885
196.373	26.537	917.008	736.013
197.388	26.697	917.049	736.633
198.402	26.705	916.302	736.000
199.417	26.698	916.034	735.692
200.432	26.695	915.515	735.198
201.446	26.486	914.836	733.740
202.461	26.219	914.061	731.973
203.475	26.315	913.661	731.975
204.490	25.954	912.095	729.194
205.504	24.658	910.178	722.367
206.519	25.030	910.319	723.914
207.534	25.998	910.721	728.080
208.548	26.205	910.017	728.291
209.563	26.597	909.582	729.457
210.577	26.600	908.701	728.696
211.592	26.231	908.126	726.689
212.607	26.598	907.973	727.978
213.621	26.948	907.264	728.751
214.636	26.806	906.295	727.336
215.650	26.839	906.174	727.307
216.665	26.703	906.025	726.580
217.680	26.828	905.029	726.217
218.694	26.975	904.467	726.289
219.709	26.601	903.588	724.025
220.723	26.233	902.796	721.857
221.738	26.437	902.240	722.163
222.753	26.533	902.202	722.450
223.767	26.553	901.358	721.792
224.782	26.790	900.366	721.875
225.796	26.967	899.676	721.962
226.811	26.959	899.669	721.860
227.826	26.558	898.284	719.092
228.840	25.652	896.592	714.082
229.855	25.656	896.474	713.940
230.869	25.938	895.965	714.589
231.884	25.629	895.078	712.597
232.899	25.599	894.940	712.304
233.913	26.350	894.807	715.107
234.928	26.453	894.686	715.356
235.942	26.435	893.704	714.434
236.957	26.549	892.804	714.102
237.972	26.094	892.497	712.000
238.986	26.199	891.135	711.263
240.001	26.232	890.424	710.763
241.015	26.330	890.076	710.807
242.030	26.304	889.713	710.350
243.045	26.418	889.476	710.547
244.059	26.650	888.647	710.735
245.074	26.747	888.263	710.745
246.088	26.635	888.064	710.083
247.103	26.433	886.626	708.078
248.117	26.343	886.122	707.263
249.132	26.929	886.133	709.498
250.147	27.259	886.195	710.776
251.161	27.421	885.495	710.787
252.176	27.477	885.358	710.830
253.190	27.373	884.881	709.978
254.205	27.478	883.846	709.496
255.220	27.738	883.633	710.274
256.234	27.746	882.971	709.711
257.249	27.727	881.971	708.769
258.263	27.384	881.617	707.090
259.278	27.399	881.179	706.733
260.293	27.549	880.982	707.094
261.307	27.513	880.515	706.517
262.322	27.433	879.805	705.577
263.336	27.418	878.560	704.459
264.351	26.887	877.303	701.335
265.366	26.111	874.969	696.412
266.380	25.488	874.243	693.371
267.395	26.342	875.046	697.244
268.409	27.044	875.084	699.920
269.424	27.134	874.230	699.519
270.439	27.189	874.365	699.779
271.453	27.335	873.456	699.549
272.468	27.306	872.935	698.959
273.482	27.588	872.256	699.437
274.497	27.642	871.969	699.349
275.512	27.427	871.141	697.800
276.526	26.773	869.706	694.085
277.541	27.061	869.283	694.790
278.555	27.386	869.043	695.780
279.570	27.178	868.382	694.393
280.585	26.999	867.777	693.166
281.599	27.108	867.187	693.048
282.614	27.340	866.450	693.282
283.628	26.825	865.758	690.706
284.643	26.381	865.345	688.624
285.657	26.815	865.217	690.114
286.672	26.706	864.118	688.763
287.687	26.204	863.261	686.111
288.701	26.608	863.048	687.415
289.716	26.906	863.432	688.793
290.730	26.620	861.973	686.484
291.745	26.518	861.361	685.550
292.760	26.403	860.130	684.073
293.774	26.292	859.894	683.406
294.789	27.110	860.685	687.068
295.803	27.934	860.238	689.762
296.818	27.780	859.702	688.693
297.833	27.918	859.252	688.790
298.847	27.669	858.373	687.089
299.862	27.238	857.629	684.808
300.876	27.476	857.005	685.145
301.891	27.719	856.955	685.960
302.906	27.838	856.219	685.756
303.920	27.468	855.026	683.352
304.935	27.343	854.428	682.346
305.949	27.672	854.350	683.455
306.964	27.923	853.797	683.892
307.979	27.574	853.162	682.016
308.993	27.671	852.288	681.619
310.008	27.941	852.208	682.505
311.022	28.061	851.844	682.599
312.037	27.939	851.256	681.613
313.052	27.793	850.180	680.150
314.066	27.576	849.662	678.866
315.081	26.770	848.337	674.747
316.095	25.999	846.948	670.716
317.110	26.484	847.245	672.697
318.125	27.409	847.584	676.346
319.139	26.966	846.680	673.918
320.154	25.749	845.110	668.096
321.168	25.377	843.977	665.764
322.183	26.162	844.476	669.007
323.197	27.057	844.521	672.299
324.212	27.439	844.463	673.606
325.227	27.395	844.064	673.068
326.241	27.586	843.370	673.161
327.256	27.628	842.632	672.664
328.270	27.363	842.310	671.372
329.285	27.426	841.384	670.808
330.300	27.228	840.617	669.407
331.314	26.964	839.875	667.785
332.329	26.986	839.674	667.649
333.343	27.471	838.897	668.752
334.358	27.723	838.809	669.548
335.373	27.663	838.275	668.843
336.387	27.689	838.009	668.667
337.402	27.878	837.812	669.144
338.416	28.149	837.258	669.634
339.431	28.138	836.716	669.098
340.446	28.177	836.431	668.955
341.460	28.434	835.612	669.179
342.475	28.390	834.772	668.288
343.489	28.115	834.610	667.095
344.504	28.146	833.874	666.562
345.519	28.149	833.772	666.431
346.533	28.480	833.406	667.286
347.548	28.631	833.032	667.476
348.562	28.560	832.475	666.710
349.577	28.496	831.806	665.884
350.592	28.509	831.303	665.470
351.606	28.469	830.518	664.636
352.621	28.414	830.506	664.372
353.635	28.385	829.451	663.361
354.650	28.209	829.165	662.436
355.665	27.990	827.817	660.512
356.679	26.956	826.234	655.460
357.694	26.675	826.172	654.336
358.708	27.527	825.901	657.138
359.723	27.438	825.617	656.533
360.738	27.663	825.151	656.916
361.752	28.143	824.996	658.463
362.767	28.133	824.966	658.342
363.781	28.555	824.725	659.611
364.796	28.816	824.454	660.275
365.810	28.873	824.128	660.158
366.825	28.979	823.775	660.199
367.840	28.971	823.487	659.881
368.854	28.652	823.109	658.374
369.869	28.289	821.685	655.878
370.883	28.271	821.164	655.338
371.898	28.218	820.814	654.811
372.913	28.165	819.946	653.874
373.927	28.369	819.196	653.946
374.942	28.426	819.034	653.960
375.956	28.371	818.330	653.146
376.971	28.618	817.750	653.504
377.986	28.737	817.479	653.652
379.000	28.852	816.860	653.510
380.015	28.949	816.694	653.665
381.029	28.620	815.892	651.794
382.044	28.625	815.479	651.425
383.059	28.746	814.909	651.341
384.073	28.902	814.221	651.285
385.088	28.847	813.812	650.708
386.102	28.888	813.457	650.510
387.117	28.650	812.625	648.946
388.132	28.485	812.179	647.951
389.146	28.320	811.543	646.803
390.161	27.771	810.510	643.986
391.175	27.899	810.264	644.185
392.190	28.446	810.200	646.003
393.205	28.392	809.808	645.446
394.219	27.452	807.904	640.566
395.234	25.799	805.528	632.821
396.248	25.082	804.258	629.252
397.263	26.177	805.457	633.981
398.278	27.883	806.916	641.069
399.292	28.331	806.728	642.433
400.307	28.073	805.920	640.832
401.321	28.116	805.167	640.327
402.336	28.164	805.029	640.326
403.350	28.458	804.940	641.230
404.365	28.816	805.348	642.749
405.380	29.217	804.720	643.593
406.394	29.544	804.338	644.369
407.409	29.625	804.436	644.675
408.423	29.506	803.657	643.578
409.438	29.450	803.101	642.881
410.453	29.556	802.752	642.913
411.467	29.519	802.452	642.488
412.482	29.493	801.867	641.872
413.496	29.600	801.051	641.533
414.511	29.552	800.888	641.181
415.526	29.674	800.425	641.177
416.540	29.724	800.049	640.991
417.555	29.507	799.479	639.725
418.569	29.109	799.308	638.154
419.584	29.101	798.737	637.613
420.599	29.204	797.822	637.184
421.613	109.593	1284.464	1447.923
422.628	94.404	1355.370	1448.020
