DTS Sentinel unit serial number:	SN413079Multiplexer serial number:	ORYXHardware model number:	OX4-SRSoftware version number:	ORYX F/W v4.00 Oryx Data Collector v3.7.2.0data status	okinstallation	princeton_trtdifferential loss correction	single-endedforward channel	channel 3reverse channel	N/Adate	2019/09/12time	18:27:04forward acquisition time	15.00reverse acquisition time	0.00gamma	496.2192k internal	0.2317k external	0.2317temperature offset calibration	1.0089default loss term (dB/km)	0.3790temperature slope calibration	1.0000multiplexer offset coefficient	1.0000multiplexer slope coefficient	1.0000fibre end	0.00T internal ref (°C)	33.25T ext. ref 1 (°C)	2.94T ext. ref 2 (°C)	27.94length (m)	temperature (°C)	Stokes	anti-Stokes-747.200	-90.385	-0.141	-0.041
-746.185	114.307	-0.409	-0.505
-745.171	-200.000	0.069	-0.454
-744.156	800.000	0.161	-0.572
-743.142	-6.928	-0.617	-0.424
-742.127	286.640	0.205	0.375
-741.112	-200.000	-0.176	-0.986
-740.098	376.031	0.493	-1.018
-739.083	43.866	-0.544	0.504
-738.069	333.431	0.462	-0.905
-737.054	481.687	-0.444	-1.021
-736.039	14.658	0.710	0.562
-735.025	307.278	-0.317	0.599
-734.010	4.103	0.198	-0.146
-732.996	-200.000	-0.031	-0.394
-731.981	-41.713	-0.510	0.265
-730.966	-200.000	-0.037	0.463
-729.952	122.495	0.071	-0.090
-728.937	149.048	0.195	-0.267
-727.923	94.643	-0.171	0.197
-726.908	-150.592	-0.403	0.031
-725.894	162.645	0.262	0.372
-724.879	800.000	0.154	-0.641
-723.864	-57.393	-0.287	-0.128
-722.850	303.767	-0.457	0.857
-721.835	-104.913	-0.656	-0.152
-720.821	800.000	-0.171	-0.582
-719.806	586.298	-0.218	-0.542
-718.791	-95.637	-0.516	-0.140
-717.777	140.449	-0.438	0.585
-716.762	800.000	-0.090	-0.354
-715.748	201.354	-0.418	0.651
-714.733	32.181	0.289	0.252
-713.718	257.448	-0.070	0.122
-712.704	75.704	-0.461	-0.492
-711.689	-200.000	-0.006	-0.212
-710.675	66.666	-0.456	0.469
-709.660	-200.000	0.025	-0.745
-708.645	-24.807	0.029	0.017
-707.631	800.000	-0.186	0.588
-706.616	5.511	-0.132	0.098
-705.602	-200.000	-0.001	0.098
-704.587	8.066	0.363	-0.275
-703.572	800.000	-0.129	0.448
-702.558	800.000	0.378	1.219
-701.543	-26.069	0.783	0.465
-700.529	-200.000	-0.089	-0.461
-699.514	61.040	0.040	0.040
-698.499	-127.945	-0.700	0.102
-697.485	-136.658	-0.435	0.051
-696.470	25.481	0.522	0.439
-695.456	89.552	0.485	-0.547
-694.441	-200.000	-0.089	-0.865
-693.426	-176.458	-0.641	-0.017
-692.412	-53.924	-1.080	0.497
-691.397	89.720	0.134	0.151
-690.383	-200.000	0.104	-0.482
-689.368	180.245	0.100	-0.148
-688.354	-119.641	-0.347	0.061
-687.339	8.842	0.089	-0.068
-686.324	176.225	0.395	-0.579
-685.310	396.044	0.326	0.687
-684.295	59.101	-0.806	0.801
-683.281	-61.990	0.309	0.131
-682.266	370.265	-0.210	-0.429
-681.251	-166.703	0.637	0.027
-680.237	199.775	0.502	-0.778
-679.222	12.424	0.262	0.204
-678.208	-146.024	-0.213	-0.019
-677.193	-200.000	0.176	0.895
-676.178	412.811	-0.382	-0.819
-675.164	-47.286	1.036	-0.509
-674.149	6.129	0.273	0.205
-673.135	141.353	-0.184	0.246
-672.120	135.913	0.546	-0.718
-671.105	-200.000	0.022	0.592
-670.091	-21.856	-0.528	0.324
-669.076	2.524	0.458	0.335
-668.062	615.177	0.123	-0.312
-667.047	30.063	-0.411	0.354
-666.032	-200.000	0.087	0.579
-665.018	116.144	-0.116	-0.143
-664.003	-166.075	-0.345	0.015
-662.989	-8.895	-0.384	-0.260
-661.974	-123.277	0.522	0.084
-660.959	-133.400	-1.067	0.135
-659.945	-34.327	-0.206	-0.114
-658.930	121.769	-0.163	-0.205
-657.916	-96.168	-0.630	0.169
-656.901	69.493	0.107	-0.111
-655.886	-200.000	0.021	-0.109
-654.872	-121.583	0.804	0.135
-653.857	153.916	0.375	0.518
-652.843	-109.747	0.665	-0.141
-651.828	87.373	0.178	0.198
-650.814	-139.953	0.615	-0.066
-649.799	64.825	-0.688	-0.700
-648.784	69.599	-0.294	-0.305
-647.770	-118.952	-0.453	0.080
-646.755	-21.668	-0.703	-0.432
-645.741	-167.999	-0.559	-0.022
-644.726	-81.280	0.716	-0.238
-643.711	680.468	0.334	0.877
-642.697	-200.000	0.044	0.411
-641.682	-64.206	0.536	0.221
-640.668	648.162	0.292	0.754
-639.653	-82.720	-0.375	0.122
-638.638	800.000	-0.148	-0.456
-637.624	73.669	0.217	-0.229
-636.609	87.636	-0.160	-0.179
-635.595	-73.937	-0.280	0.102
-634.580	-81.668	0.397	0.131
-633.565	-173.123	-0.647	0.020
-632.551	49.041	-0.329	0.312
-631.536	455.935	0.308	-0.690
-630.522	-24.270	-0.265	0.159
-629.507	-141.828	-0.278	-0.028
-628.492	445.064	0.221	0.489
-627.478	-63.316	-1.151	0.478
-626.463	-17.536	-0.176	-0.111
-625.449	-80.527	-0.217	0.073
-624.434	-200.000	-0.054	-0.275
-623.419	-89.455	-0.505	-0.150
-622.405	-64.431	0.758	-0.311
-621.390	442.502	-0.273	-0.602
-620.376	60.985	-0.536	-0.536
-619.361	186.143	-0.491	0.736
-618.346	-200.000	-0.206	1.474
-617.332	-149.345	-0.472	-0.038
-616.317	-47.415	-0.389	0.191
-615.303	53.876	0.554	0.536
-614.288	-200.000	-0.049	-0.461
-613.273	-8.232	0.813	-0.551
-612.259	-171.147	0.617	-0.021
-611.244	-108.797	-0.761	-0.164
-610.230	800.000	0.074	-0.253
-609.215	10.411	-0.759	-0.582
-608.201	15.183	-0.696	-0.550
-607.186	800.000	-0.099	0.407
-606.171	800.000	-0.126	-0.479
-605.157	107.785	0.507	-0.608
-604.142	-44.824	-0.567	0.285
-603.128	-200.000	-0.105	0.634
-602.113	-39.526	-0.582	-0.307
-601.098	57.427	-0.309	-0.304
-600.084	-95.062	-1.338	0.364
-599.069	31.950	0.954	0.828
-598.055	-25.720	0.746	-0.443
-597.040	19.918	0.255	0.207
-596.025	-30.446	-0.260	-0.149
-595.011	57.493	-0.351	-0.345
-593.996	572.329	0.085	-0.209
-592.982	-63.482	-0.489	0.203
-591.967	497.639	-0.159	-0.369
-590.952	660.579	0.125	0.325
-589.938	-89.399	-0.138	-0.041
-588.923	336.900	0.242	-0.473
-587.909	-25.478	-0.740	-0.440
-586.894	-95.484	0.460	0.124
-585.879	332.287	0.242	-0.470
-584.865	-194.307	-0.764	-0.006
-583.850	-111.638	0.449	-0.092
-582.836	-75.236	0.519	-0.186
-581.821	-63.209	0.332	-0.138
-580.806	-125.206	-0.451	0.069
-579.792	-40.736	-0.155	-0.081
-578.777	-47.755	0.215	0.105
-577.763	-47.427	-0.799	-0.391
-576.748	159.101	0.170	-0.238
-575.733	-169.436	-1.049	0.039
-574.719	-146.532	-0.654	-0.057
-573.704	800.000	0.236	-0.786
-572.690	521.911	-0.115	0.271
-571.675	-182.818	0.702	0.013
-570.661	103.428	-0.237	-0.280
-569.646	-200.000	0.035	0.293
-568.631	67.924	0.924	-0.950
-567.617	800.000	-0.119	-0.489
-566.602	-130.248	-0.334	0.046
-565.588	143.008	-0.251	-0.335
-564.573	188.461	-0.513	0.771
-563.558	-200.000	-0.009	-0.151
-562.544	180.820	0.515	0.760
-561.529	800.000	0.069	-0.219
-560.515	-131.005	0.468	0.063
-559.500	-3.786	-0.678	0.473
-558.485	122.132	0.223	0.279
-557.471	-200.000	0.063	-0.511
-556.456	-100.905	-0.234	-0.058
-555.442	558.477	-0.172	-0.417
-554.427	-71.371	0.296	0.112
-553.412	365.282	-0.112	-0.228
-552.398	40.599	-0.277	0.251
-551.383	-60.344	0.245	0.105
-550.369	59.477	0.256	0.254
-549.354	-200.000	0.034	-0.454
-548.339	150.793	0.582	-0.795
-547.325	204.899	0.093	-0.144
-546.310	-36.097	0.166	-0.090
-545.296	-128.052	-0.582	-0.084
-544.281	-200.000	-0.044	-0.735
-543.266	31.024	0.262	0.225
-542.252	-200.000	0.020	0.937
-541.237	-171.417	0.248	-0.008
-540.223	10.851	0.283	-0.217
-539.208	800.000	-0.326	0.945
-538.193	411.971	0.437	0.933
-537.179	-36.362	0.737	0.399
-536.164	469.910	0.044	-0.099
-535.150	34.323	-0.368	0.322
-534.135	174.213	0.228	0.331
-533.121	82.329	-0.106	-0.116
-532.106	456.952	0.221	0.492
-531.091	-174.285	-0.228	-0.007
-530.077	27.329	-0.667	-0.563
-529.062	308.114	-0.275	-0.514
-528.048	-0.388	0.668	-0.477
-527.033	-100.086	0.821	-0.205
-526.018	33.670	-0.617	0.539
-525.004	-184.307	0.312	0.005
-523.989	-107.137	-0.812	0.180
-522.975	-195.514	0.458	0.003
-521.960	10.279	0.927	-0.708
-520.945	-105.548	0.108	-0.025
-519.931	-60.047	-0.491	-0.210
-518.916	-114.776	-0.249	0.048
-517.902	-127.382	-0.722	0.106
-516.887	90.644	0.145	0.163
-515.872	-200.000	0.031	-0.518
-514.858	-93.604	0.455	-0.126
-513.843	-54.189	-0.070	0.032
-512.829	-107.831	-0.551	0.120
-511.814	-60.651	0.870	-0.370
-510.799	-200.000	0.163	-0.843
-509.785	-200.000	-0.055	0.362
-508.770	-63.528	0.549	-0.226
-507.756	-73.823	0.797	0.291
-506.741	-7.120	0.288	0.196
-505.726	717.252	-0.115	-0.305
-504.712	-135.870	-0.528	-0.063
-503.697	-200.000	0.005	0.600
-502.683	-61.011	0.400	0.169
-501.668	449.543	0.140	-0.310
-500.653	310.680	0.203	-0.380
-499.639	-113.164	0.590	-0.117
-498.624	40.363	0.599	-0.541
-497.610	-63.429	-0.278	-0.115
-496.595	-59.342	-0.540	0.233
-495.581	-90.595	-0.453	-0.131
-494.566	4.724	-0.249	0.184
-493.551	800.000	0.026	-0.101
-492.537	-88.503	0.793	0.237
-491.522	-43.966	-0.629	0.317
-490.508	800.000	-0.123	0.458
-489.493	492.460	0.242	-0.555
-488.478	-149.745	0.245	0.019
-487.464	-200.000	0.067	0.564
-486.449	-176.755	-0.385	0.010
-485.435	-200.000	0.181	-1.533
-484.420	20.055	-0.478	0.386
-483.405	8.360	0.486	-0.366
-482.391	-200.000	-0.023	0.512
-481.376	-96.291	-0.348	-0.092
-480.362	0.933	-0.709	0.509
-479.347	62.149	-0.355	-0.355
-478.332	-200.000	0.196	-0.895
-477.318	450.534	-0.428	-0.946
-476.303	142.042	-0.376	-0.500
-475.289	90.359	-0.680	0.762
-474.274	-200.000	0.000	0.024
-473.259	78.119	0.792	0.847
-472.245	-200.000	-0.100	-0.725
-471.230	9.817	-0.392	-0.298
-470.216	1.480	-0.247	-0.178
-469.201	157.143	-0.263	-0.365
-468.186	-18.034	0.579	-0.364
-467.172	0.555	0.597	-0.428
-466.157	222.828	0.133	-0.214
-465.143	126.727	-0.406	0.515
-464.128	470.667	-0.291	0.656
-463.113	39.194	0.301	0.269
-462.099	-33.920	0.774	0.427
-461.084	-200.000	-0.104	-0.551
-460.070	-60.473	0.551	-0.234
-459.055	-5.570	-0.478	0.328
-458.040	-114.056	0.345	-0.067
-457.026	-97.479	-0.058	0.015
-456.011	800.000	-0.290	-0.878
-454.997	-192.760	0.329	0.003
-453.982	-200.000	-0.180	-0.875
-452.968	-83.524	0.877	0.281
-451.953	-71.028	0.991	0.373
-450.938	-200.000	-0.210	-0.983
-449.924	99.078	-0.295	-0.341
-448.909	557.659	0.372	0.897
-447.895	363.829	0.107	0.215
-446.880	35.833	0.074	-0.065
-445.865	-98.133	-1.228	0.316
-444.851	438.161	-0.469	1.024
-443.836	222.688	-0.226	-0.364
-442.822	800.000	0.104	-0.316
-441.807	265.983	-0.243	0.425
-440.792	-97.723	-0.227	0.059
-439.778	800.000	0.035	0.144
-438.763	672.910	0.277	-0.720
-437.749	64.719	-0.244	-0.246
-436.734	166.442	0.219	0.310
-435.719	720.774	-0.298	0.792
-434.705	-200.000	0.044	0.878
-433.690	-54.303	0.371	-0.168
-432.676	23.014	-0.357	0.293
-431.661	86.787	-0.561	0.619
-430.646	-200.000	-0.050	-0.582
-429.632	-90.913	-0.648	-0.186
-428.617	555.119	-0.162	-0.390
-427.603	-200.000	0.037	-0.483
-426.588	54.709	-0.378	0.365
-425.573	30.827	1.022	0.875
-424.559	-27.027	-0.189	-0.110
-423.544	-30.177	0.397	0.226
-422.530	375.644	-0.110	0.224
-421.515	402.474	-0.158	-0.332
-420.500	-77.300	-0.276	-0.096
-419.486	-8.272	0.579	0.390
-418.471	445.538	0.193	0.425
-417.457	44.537	-0.264	-0.242
-416.442	-156.440	-0.491	-0.031
-415.428	-113.077	-0.519	-0.102
-414.413	-21.024	-0.899	-0.550
-413.398	231.328	0.326	-0.534
-412.384	318.243	-0.074	-0.140
-411.369	165.403	0.176	0.249
-410.355	800.000	0.208	0.866
-409.340	800.000	0.141	0.497
-408.325	-200.000	0.237	1.155
-407.311	800.000	0.186	-0.542
-406.296	-41.985	-0.307	-0.157
-405.282	-200.000	0.044	-0.477
-404.267	-123.477	0.301	-0.048
-403.252	-168.651	0.647	0.025
-402.238	62.285	-0.282	-0.282
-401.223	368.740	0.288	-0.583
-400.209	-18.717	0.203	-0.126
-399.194	-33.133	0.425	0.236
-398.179	-200.000	0.036	0.407
-397.165	4.791	0.276	0.203
-396.150	-42.551	0.855	-0.435
-395.136	13.961	0.157	-0.122
-394.121	-200.000	0.006	-0.235
-393.106	41.139	0.628	0.567
-392.092	-200.000	-0.032	-0.277
-391.077	721.519	-0.191	0.508
-390.063	12.981	1.318	1.019
-389.048	139.650	-0.311	-0.409
-388.033	-200.000	0.051	0.556
-387.019	-166.967	-0.987	0.040
-386.004	800.000	-0.049	-0.137
-384.990	276.651	-0.406	-0.720
-383.975	117.761	-0.350	-0.431
-382.960	-200.000	0.044	-0.493
-381.946	-62.862	0.862	0.356
-380.931	120.671	0.229	-0.285
-379.917	42.789	0.527	-0.480
-378.902	800.000	0.140	-0.501
-377.888	-105.720	0.538	0.121
-376.873	-115.149	-0.504	0.095
-375.858	25.194	0.341	-0.282
-374.844	-11.968	-0.457	-0.299
-373.829	-49.643	-0.457	0.217
-372.815	386.792	-0.353	0.729
-371.800	147.093	0.462	-0.621
-370.785	800.000	0.079	-0.223
-369.771	-9.640	-0.429	0.286
-368.756	-112.420	-0.711	-0.142
-367.742	-200.000	0.196	0.866
-366.727	11.673	0.770	0.590
-365.712	-163.339	0.427	-0.020
-364.698	289.397	0.476	-0.861
-363.683	263.451	0.228	-0.395
-362.669	32.210	0.571	0.491
-361.654	-100.606	-0.367	0.090
-360.639	149.351	-0.577	0.779
-359.625	-42.619	0.673	-0.342
-358.610	-89.232	-0.376	0.111
-357.596	17.861	0.104	0.083
-356.581	-68.794	-0.851	0.328
-355.566	52.289	0.200	-0.190
-354.552	262.782	-0.223	-0.385
-353.537	-200.000	-0.039	0.714
-352.523	283.235	0.166	-0.298
-351.508	707.358	-0.182	0.480
-350.493	54.872	-0.319	-0.308
-349.479	144.703	0.267	-0.356
-348.464	-131.949	-0.345	0.045
-347.450	-200.000	-0.236	0.001
-346.435	800.000	0.194	0.767
-345.420	41.291	-0.618	0.557
-344.406	83.331	0.373	-0.405
-343.391	231.180	-0.154	-0.251
-342.377	134.905	-0.299	0.387
-341.362	93.640	0.627	-0.708
-340.348	800.000	-0.247	0.881
-339.333	15.962	0.559	-0.439
-338.318	526.698	0.057	0.134
-337.304	-89.650	0.348	-0.102
-336.289	-200.000	0.083	-0.536
-335.275	-3.052	0.641	0.446
-334.260	128.067	-0.625	-0.793
-333.245	-49.665	0.501	0.238
-332.231	-200.000	-0.001	-0.063
-331.216	168.987	-0.472	-0.671
-330.202	21.430	0.495	0.401
-329.187	59.528	0.445	0.437
-328.172	53.070	-0.123	-0.118
-327.158	-59.904	0.332	0.141
-326.143	-75.911	-0.207	-0.073
-325.129	89.031	0.161	0.178
-324.114	57.375	0.566	0.551
-323.099	104.422	-0.637	-0.747
-322.085	800.000	-0.273	-0.773
-321.070	-181.786	-1.282	0.024
-320.056	109.564	0.216	0.258
-319.041	-55.164	-0.319	0.143
-318.026	-200.000	-0.118	-1.007
-317.012	-200.000	-0.103	-0.750
-315.997	48.147	0.486	-0.452
-314.983	263.602	0.094	0.163
-313.968	-59.173	-1.101	-0.473
-312.953	359.062	0.239	0.476
-311.939	-1.625	0.486	-0.341
-310.924	106.337	-0.355	-0.419
-309.910	5.982	-0.179	-0.132
-308.895	-200.000	0.100	0.609
-307.880	-69.933	0.848	0.322
-306.866	404.544	0.343	0.719
-305.851	-151.261	-0.602	0.045
-304.837	-114.662	-0.268	0.051
-303.822	-84.452	0.504	-0.158
-302.807	-200.000	0.166	-0.759
-301.793	800.000	0.062	-0.268
-300.778	148.015	-0.075	-0.100
-299.764	385.883	0.309	-0.634
-298.749	73.683	-0.692	-0.722
-297.735	-108.352	0.504	-0.108
-296.720	-75.270	0.303	-0.108
-295.705	232.673	-0.114	0.186
-294.691	233.663	-0.218	-0.357
-293.676	55.424	-0.356	0.343
-292.662	-18.087	-0.389	-0.243
-291.647	-12.422	0.623	0.405
-290.632	109.034	-0.554	-0.660
-289.618	800.000	-0.192	0.564
-288.603	184.899	-0.280	0.413
-287.589	-200.000	0.022	0.236
-286.574	800.000	-0.135	0.524
-285.559	189.982	-0.546	0.815
-284.545	-181.253	0.769	0.015
-283.530	800.000	-0.091	0.388
-282.516	800.000	0.254	-0.824
-281.501	46.254	0.676	0.623
-280.486	-200.000	-0.007	0.691
-279.472	24.792	-0.458	-0.377
-278.457	-50.405	-0.018	-0.008
-277.443	-200.000	0.041	0.470
-276.428	-1.788	0.850	0.595
-275.413	72.796	0.401	0.417
-274.399	-39.060	-0.180	0.094
-273.384	20.518	0.336	0.270
-272.370	377.751	-0.119	-0.242
-271.355	800.000	0.020	0.059
-270.340	-8.124	-0.416	0.279
-269.326	-200.000	0.026	-0.527
-268.311	-200.000	-0.037	-0.649
-267.297	61.664	-0.142	0.141
-266.282	230.035	-0.141	0.229
-265.267	47.984	-0.425	0.394
-264.253	-200.000	-0.142	-1.020
-263.238	28.702	0.329	0.277
-262.224	-148.933	0.367	0.029
-261.209	-107.030	-1.128	-0.248
-260.195	-22.093	-1.022	0.617
-259.180	358.281	-0.406	0.806
-258.165	-62.585	-0.321	0.132
-257.151	160.872	0.432	0.600
-256.136	-142.005	-0.343	0.034
-255.122	-47.717	-0.344	-0.166
-254.107	0.422	0.971	0.689
-253.092	-132.438	0.324	-0.041
-252.078	44.116	0.201	-0.183
-251.063	-50.357	0.581	0.273
-250.049	-49.686	-0.935	-0.442
-249.034	-200.000	0.784	0.003
-248.019	-200.000	-0.003	-0.055
-247.005	-31.766	0.914	0.509
-245.990	-200.000	-0.037	-0.643
-244.976	-200.000	-0.048	0.643
-243.961	-83.005	1.076	0.344
-242.946	134.099	0.369	0.475
-241.932	23.557	0.608	0.497
-240.917	53.926	-0.013	-0.012
-239.903	-159.228	0.580	-0.032
-238.888	-70.580	-0.038	-0.014
-237.873	2.842	0.437	0.315
-236.859	-12.299	-1.083	0.703
-235.844	270.860	-0.334	0.584
-234.830	64.865	-0.303	-0.304
-233.815	53.057	0.540	-0.513
-232.800	200.835	0.161	0.246
-231.786	-200.000	-0.149	-0.895
-230.771	-12.926	-0.480	0.310
-229.757	489.533	-0.272	0.618
-228.742	136.715	-0.353	-0.457
-227.727	-22.796	0.079	0.047
-226.713	-68.315	0.579	-0.223
-225.698	165.379	0.532	-0.745
-224.684	172.912	-0.449	-0.642
-223.669	-200.000	0.117	0.541
-222.655	-78.868	0.522	0.176
-221.640	282.374	-0.282	0.502
-220.625	26.095	-0.281	0.232
-219.611	-200.000	-0.060	-0.409
-218.596	-200.000	0.058	0.622
-217.582	3.860	0.419	-0.304
-216.567	-200.000	-0.039	0.471
-215.552	-40.882	0.226	0.116
-214.538	-74.687	0.455	-0.162
-213.523	93.653	0.429	-0.482
-212.509	202.443	0.265	0.405
-211.494	-200.000	-0.149	0.663
-210.479	-163.926	0.558	-0.026
-209.465	-147.156	-1.088	0.092
-208.450	-63.547	0.462	0.188
-207.436	-123.754	-0.968	-0.152
-206.421	-139.731	0.225	-0.024
-205.406	-125.510	-0.278	-0.042
-204.392	800.000	-0.235	-1.003
-203.377	-4.960	0.149	0.102
-202.363	-7.764	0.095	-0.064
-201.348	243.112	-0.479	0.796
-200.333	46.584	0.103	0.095
-199.319	-148.267	-0.450	-0.037
-198.304	-90.532	0.988	0.283
-197.290	83.120	0.512	-0.552
-196.275	-86.420	-0.661	-0.201
-195.260	800.000	-0.021	-0.075
-194.246	-166.893	-0.346	0.014
-193.231	604.814	-0.273	0.674
-192.217	406.233	-0.268	0.561
-191.202	-200.000	-0.022	-0.696
-190.187	58.384	0.325	-0.315
-189.173	-200.000	0.008	0.301
-188.158	-28.345	0.245	-0.140
-187.144	-14.847	-0.491	-0.312
-186.129	395.873	-0.150	0.310
-185.114	172.748	0.186	-0.266
-184.100	219.549	0.201	-0.319
-183.085	66.154	-0.281	-0.283
-182.071	261.772	0.351	-0.602
-181.056	790.276	0.211	-0.575
-180.042	79.570	0.144	-0.153
-179.027	98.241	0.460	-0.525
-178.012	0.042	-0.243	-0.172
-176.998	398.000	0.070	-0.145
-175.983	3.842	1.156	0.836
-174.969	800.000	0.136	-0.477
-173.954	690.496	-0.224	0.580
-172.939	427.765	0.086	0.184
-171.925	-200.000	-0.080	0.687
-170.910	791.540	-0.272	0.739
-169.896	-67.935	-0.595	0.230
-168.881	-57.087	-0.292	-0.128
-167.866	-200.000	-0.144	-0.911
-166.852	-35.265	0.251	0.135
-165.837	-84.492	0.602	-0.188
-164.823	725.469	-0.280	0.739
-163.808	361.088	-0.181	0.360
-162.793	800.000	-0.099	-0.366
-161.779	-103.062	0.628	0.147
-160.764	-72.529	-0.368	-0.135
-159.750	-103.865	-0.387	-0.090
-158.735	93.931	-0.417	0.468
-157.720	266.706	-0.172	0.297
-156.706	-16.334	0.909	0.571
-155.691	-200.000	-0.052	0.320
-154.677	51.624	0.491	-0.462
-153.662	42.577	0.164	-0.148
-152.647	-74.682	0.618	0.220
-151.633	-200.000	0.089	0.718
-150.618	38.583	-0.196	0.173
-149.604	800.000	0.036	-0.141
-148.589	800.000	-0.410	1.363
-147.574	-83.250	-0.439	0.140
-146.560	52.096	-0.411	-0.388
-145.545	-60.430	0.441	0.185
-144.531	-105.290	-0.735	-0.166
-143.516	-7.219	-0.239	-0.160
-142.502	-96.549	0.458	0.120
-141.487	800.000	-0.199	-0.697
-140.472	-93.934	-0.269	-0.073
-139.458	-104.395	-0.141	-0.032
-138.443	76.104	0.524	-0.549
-137.429	20.708	-0.135	0.108
-136.414	149.011	-0.483	-0.645
-135.399	800.000	0.046	0.169
-134.385	20.412	-0.903	-0.722
-133.370	249.497	0.077	-0.129
-132.356	-106.605	-0.548	0.121
-131.341	-46.556	-0.893	0.433
-130.326	-200.000	0.029	0.244
-129.312	-161.133	-0.577	0.030
-128.297	-53.752	-0.320	-0.145
-127.283	-37.748	-0.371	0.195
-126.268	-200.000	0.076	-0.466
-125.253	-102.388	-0.507	-0.120
-124.239	-61.747	-0.357	-0.148
-123.224	-48.532	-0.494	-0.235
-122.210	-32.474	-0.999	-0.550
-121.195	-139.598	-0.104	0.011
-120.180	-200.000	-0.103	-0.484
-119.166	167.040	0.142	-0.199
-118.151	-40.163	-0.293	-0.151
-117.137	-126.619	0.565	-0.083
-116.122	-112.923	-0.334	0.065
-115.107	-73.145	-0.438	-0.159
-114.093	120.697	0.116	-0.142
-113.078	-187.006	-0.144	-0.002
-112.064	331.379	-0.207	0.394
-111.049	306.362	0.178	0.327
-110.034	30.214	0.044	0.037
-109.020	-107.748	-0.606	-0.131
-108.005	-167.331	-0.101	-0.004
-106.991	72.404	0.641	0.660
-105.976	800.000	0.233	-0.683
-104.962	514.255	-0.226	0.520
-103.947	674.234	0.068	-0.174
-102.932	137.240	0.168	-0.217
-101.918	-137.514	-0.501	0.056
-100.903	-6.185	0.223	0.150
-99.889	-200.000	0.094	0.414
-98.874	-138.359	0.163	0.018
-97.859	100.723	-0.185	0.212
-96.845	-153.889	-0.617	-0.042
-95.830	-200.000	-0.107	-0.576
-94.816	-36.122	0.476	-0.254
-93.801	-200.000	-0.058	0.435
-92.786	123.393	0.634	-0.784
-91.772	562.982	-0.208	0.497
-90.757	85.266	0.093	0.100
-89.743	-56.399	-0.480	0.211
-88.728	-102.028	-0.521	-0.124
-87.713	23.005	0.341	0.276
-86.699	-200.000	0.090	-0.518
-85.684	84.340	0.313	0.338
-84.670	257.868	-0.539	-0.915
-83.655	-151.552	0.555	0.041
-82.640	-159.349	0.285	0.016
-81.626	-200.000	-0.039	0.300
-80.611	-84.887	0.428	0.133
-79.597	70.728	-0.509	-0.520
-78.582	-32.781	0.275	-0.151
-77.567	800.000	0.078	-0.312
-76.553	3.190	0.730	0.524
-75.538	-61.360	0.456	-0.189
-74.524	34.630	0.516	-0.445
-73.509	-200.000	-0.111	-0.831
-72.494	800.000	-0.163	-0.603
-71.480	-200.000	-0.086	-0.994
-70.465	-63.300	-0.729	0.296
-69.451	800.000	0.113	0.408
-68.436	-200.000	0.053	0.845
-67.422	80.193	-0.260	0.276
-66.407	146.104	-0.463	0.612
-65.392	316.480	0.358	0.666
-64.378	31.311	0.309	-0.262
-63.363	800.000	-0.053	0.146
-62.349	-200.000	-0.049	0.338
-61.334	38.960	-0.817	-0.720
-60.319	-26.394	0.962	0.556
-59.305	538.982	-0.519	-1.216
-58.290	70.709	0.652	0.666
-57.276	-200.000	0.128	1.802
-56.261	-200.000	95.755	573.852
-55.246	640.754	1370.913	3440.546
-54.232	199.878	2537.044	3838.384
-53.217	117.258	2150.120	2605.274
-52.203	43.664	1698.400	1531.745
-51.188	36.642	1513.238	1317.099
-50.173	34.039	1487.913	1277.544
-49.159	54.475	1538.910	1461.350
-48.144	55.055	1556.608	1482.060
-47.130	36.536	1515.278	1317.943
-46.115	33.443	1499.893	1283.590
-45.100	33.356	1496.316	1279.888
-44.086	33.365	1494.714	1278.527
-43.071	33.196	1493.039	1275.904
-42.057	33.074	1491.857	1274.022
-41.042	33.244	1489.974	1273.508
-40.027	33.278	1487.945	1271.952
-39.013	33.189	1486.512	1270.081
-37.998	33.219	1485.339	1269.227
-36.984	33.236	1485.415	1269.357
-35.969	33.258	1482.859	1267.271
-34.954	33.098	1482.520	1265.858
-33.940	33.179	1480.138	1264.317
-32.925	33.330	1479.288	1264.549
-31.911	33.349	1477.312	1262.938
-30.896	33.210	1476.458	1261.226
-29.881	33.443	1474.091	1260.708
-28.867	33.180	1473.496	1258.401
-27.852	33.165	1472.565	1257.453
-26.838	33.246	1470.639	1256.297
-25.823	33.355	1469.538	1256.034
-24.809	33.282	1467.927	1254.119
-23.794	33.345	1466.562	1253.320
-22.779	33.170	1464.715	1250.536
-21.765	33.157	1463.511	1249.375
-20.750	33.407	1462.358	1249.986
-19.736	33.258	1461.817	1248.496
-18.721	33.108	1460.131	1246.019
-17.706	33.342	1459.153	1246.671
-16.692	33.236	1458.307	1245.201
-15.677	33.377	1457.077	1245.030
-14.663	33.219	1456.678	1243.598
-13.648	33.408	1455.928	1244.150
-12.633	33.225	1455.406	1242.458
-11.619	33.165	1453.750	1240.599
-10.604	33.195	1453.027	1240.131
-9.590	33.284	1451.586	1239.431
-8.575	33.261	1451.339	1239.021
-7.560	33.184	1451.131	1238.292
-6.546	33.262	1449.412	1237.283
-5.531	33.413	1447.766	1236.816
-4.517	33.194	1448.233	1235.736
-3.502	33.234	1447.768	1235.556
-2.487	33.136	1445.941	1233.303
-1.473	33.314	1444.235	1232.962
-0.458	33.204	1443.234	1231.339
0.556	34.081	1434.295	1220.355
1.571	31.058	1407.875	1178.699
2.586	27.289	1348.578	1106.092
3.600	25.275	1268.387	1028.696
4.615	23.895	1221.762	983.171
5.629	20.271	1165.699	918.815
6.644	11.336	1079.993	807.156
7.659	4.173	1038.148	741.635
8.673	3.300	1033.182	733.864
9.688	2.854	1029.002	728.715
10.702	2.672	1028.254	727.257
11.717	2.936	1025.525	726.512
12.731	5.991	1029.483	743.739
13.746	14.923	1043.084	796.194
14.761	23.181	1052.196	842.567
15.775	25.014	1053.559	852.316
16.790	25.433	1053.284	854.009
17.804	24.983	1053.469	851.943
18.819	25.032	1051.979	850.895
19.834	24.931	1052.058	850.406
20.848	25.231	1050.767	850.709
21.863	25.263	1051.047	851.011
22.877	25.150	1050.367	849.853
23.892	24.996	1050.140	848.864
24.907	25.224	1049.188	849.095
25.921	25.095	1048.406	847.776
26.936	24.981	1047.800	846.674
27.950	25.104	1047.007	846.542
28.965	24.994	1045.762	844.938
29.980	24.983	1043.936	843.338
30.994	25.295	1042.332	843.436
32.009	25.130	1041.937	842.265
33.023	25.176	1041.320	841.906
34.038	25.071	1040.723	840.859
35.053	25.098	1040.537	840.758
36.067	25.182	1039.591	840.314
37.082	25.218	1038.022	839.141
38.096	24.967	1038.059	837.923
39.111	24.987	1037.622	837.590
40.126	25.265	1036.441	837.860
41.140	25.295	1035.034	836.788
42.155	25.095	1033.181	834.282
43.169	24.651	1033.729	832.587
44.184	24.711	1031.162	830.722
45.199	24.994	1030.443	831.382
46.213	24.969	1030.038	830.869
47.228	24.471	1029.597	828.128
48.242	25.166	1027.212	829.351
49.257	25.070	1028.287	829.702
50.271	25.325	1026.941	829.719
51.286	25.229	1026.514	828.860
52.301	25.402	1026.392	829.487
53.315	25.324	1025.339	828.203
54.330	25.292	1024.309	827.151
55.344	25.198	1023.399	825.909
56.359	24.980	1022.594	824.182
57.374	25.287	1020.846	824.111
58.388	25.341	1020.274	823.826
59.403	24.947	1019.936	821.672
60.417	24.906	1019.171	820.792
61.432	24.976	1018.847	820.781
62.447	25.050	1017.411	819.889
63.461	25.014	1017.290	819.555
64.476	25.165	1017.012	819.951
65.490	24.954	1016.231	818.285
66.505	24.998	1014.248	816.817
67.520	24.999	1013.434	816.092
68.534	25.145	1012.502	815.934
69.549	24.993	1012.400	815.087
70.563	24.418	1012.317	812.332
71.578	24.664	1010.212	811.688
72.593	24.627	1009.913	811.207
73.607	24.327	1009.001	809.042
74.622	24.389	1008.043	808.484
75.636	24.286	1007.700	807.670
76.651	24.578	1007.618	808.856
77.666	24.803	1005.753	808.303
78.680	25.008	1003.968	807.725
79.695	24.808	1005.027	807.599
80.709	24.793	1004.264	806.850
81.724	24.937	1003.444	806.767
82.739	24.791	1002.666	805.411
83.753	25.066	1001.305	805.487
84.768	25.484	1000.315	806.495
85.782	25.585	1000.687	807.175
86.797	25.668	999.679	806.661
87.812	25.624	998.389	805.351
88.826	25.528	997.795	804.373
89.841	25.366	997.866	803.636
90.855	25.341	996.738	802.543
91.870	25.338	996.194	802.022
92.884	25.611	995.000	802.207
93.899	25.172	994.590	799.847
94.914	25.335	993.479	799.609
95.928	25.394	993.126	799.515
96.943	25.317	992.448	798.557
97.957	25.582	990.513	798.107
98.972	25.229	989.404	795.578
99.987	25.064	988.687	794.200
101.001	25.078	988.616	794.135
102.016	25.240	987.772	794.104
103.030	25.574	986.993	794.884
104.045	25.515	984.828	792.810
105.060	25.363	983.848	791.280
106.074	25.301	983.577	790.721
107.089	25.109	983.253	789.541
108.103	25.307	982.536	789.768
109.118	25.244	981.040	788.219
110.133	25.074	980.083	786.635
111.147	25.033	980.560	786.770
112.162	25.257	977.995	785.620
113.176	24.787	977.267	782.913
114.191	24.521	977.250	781.665
115.206	24.901	975.452	781.817
116.220	25.079	974.900	782.082
117.235	24.571	973.800	778.916
118.249	24.630	973.685	779.010
119.264	24.735	972.660	778.579
120.279	24.657	972.410	777.971
121.293	24.183	970.879	774.615
122.308	24.617	970.199	775.891
123.322	24.618	969.002	774.868
124.337	24.976	967.340	775.020
125.352	24.625	967.807	773.809
126.366	24.381	965.872	771.135
127.381	24.110	964.689	768.952
128.395	24.492	964.676	770.524
129.410	24.979	964.324	772.277
130.424	25.078	963.334	771.842
131.439	25.334	961.314	771.255
132.454	25.068	962.653	771.116
133.468	25.136	960.312	769.464
134.483	25.019	960.246	768.842
135.497	25.310	959.411	769.353
136.512	25.486	957.398	768.422
137.527	25.223	958.140	767.824
138.541	25.288	957.387	767.430
139.556	25.209	956.529	766.339
140.570	25.320	956.725	766.902
141.585	25.451	955.036	766.038
142.600	25.552	954.371	765.868
143.614	25.300	953.973	764.409
144.629	25.475	953.706	764.870
145.643	25.779	952.184	764.872
146.658	25.775	951.731	764.427
147.673	25.548	949.857	761.892
148.687	25.732	947.786	760.938
149.702	25.591	947.034	759.672
150.716	25.208	946.903	757.884
151.731	25.167	946.167	757.056
152.746	25.439	945.134	757.309
153.760	25.526	944.812	757.350
154.775	25.615	943.427	756.547
155.789	25.518	943.943	756.485
156.804	25.511	942.986	755.620
157.819	25.308	941.858	753.797
158.833	25.377	941.043	753.371
159.848	25.858	940.350	754.763
160.862	25.749	939.418	753.494
161.877	25.777	938.746	753.002
162.892	25.546	938.027	751.396
163.906	25.464	936.829	750.026
164.921	25.418	936.736	749.692
165.935	25.687	935.430	749.701
166.950	25.652	933.769	748.162
167.964	25.910	932.219	747.922
168.979	25.660	931.144	745.959
169.994	25.693	929.946	745.067
171.008	25.879	929.259	745.223
172.023	25.608	928.932	743.773
173.037	25.806	928.388	744.090
174.052	25.644	926.859	742.129
175.067	25.773	926.371	742.204
176.081	25.545	926.024	740.923
177.096	25.255	924.672	738.582
178.110	25.571	923.737	739.070
179.125	25.475	922.464	737.590
180.140	25.095	922.528	736.018
181.154	24.959	921.707	734.737
182.169	25.069	921.555	735.004
183.183	25.532	921.430	736.738
184.198	25.727	919.828	736.187
185.213	25.716	919.324	735.675
186.227	25.338	919.080	733.868
187.242	25.490	919.205	734.525
188.256	25.823	918.410	735.187
189.271	25.903	916.459	733.883
190.286	26.012	916.236	734.084
191.300	25.847	915.676	732.899
192.315	25.679	913.638	730.523
193.329	24.429	912.832	724.740
194.344	24.273	912.526	723.800
195.359	24.697	912.520	725.451
196.373	25.510	912.269	728.486
197.388	25.886	911.719	729.501
198.402	26.084	910.462	729.231
199.417	25.650	910.881	727.749
200.432	25.841	911.170	728.688
201.446	25.903	909.596	727.617
202.461	25.693	909.152	726.347
203.475	25.569	908.566	725.316
204.490	25.334	907.746	723.648
205.504	24.483	905.799	718.610
206.519	24.619	905.871	719.150
207.534	25.576	905.885	722.946
208.548	25.671	905.203	722.719
209.563	25.699	904.713	722.379
210.577	25.778	903.919	721.995
211.592	25.505	903.712	720.671
212.607	26.333	902.775	723.174
213.621	26.140	903.120	722.617
214.636	26.214	901.941	721.906
215.650	26.208	901.434	721.412
216.665	25.850	901.048	719.609
217.680	25.778	900.275	718.642
218.694	26.426	900.174	721.081
219.709	25.737	899.430	717.674
220.723	25.544	898.796	716.339
221.738	25.673	898.213	716.322
222.753	25.778	897.494	716.105
223.767	25.890	896.726	715.872
224.782	25.935	896.137	715.516
225.796	26.134	895.569	715.789
226.811	26.294	894.727	715.687
227.826	25.554	894.435	712.460
228.840	25.021	892.673	708.883
229.855	25.049	891.906	708.325
230.869	25.599	890.828	709.577
231.884	25.261	890.147	707.638
232.899	25.195	889.945	707.154
233.913	25.682	890.064	709.105
234.928	25.885	889.452	709.354
235.942	25.686	888.976	708.128
236.957	25.948	887.206	707.686
237.972	25.386	887.223	705.431
238.986	25.377	886.142	704.474
240.001	25.446	885.586	704.240
241.015	25.538	885.092	704.145
242.030	25.539	885.212	704.182
243.045	26.142	883.988	705.502
244.059	26.126	883.454	704.951
245.074	25.734	884.475	704.172
246.088	25.796	882.846	703.054
247.103	25.843	881.970	702.477
248.117	25.649	881.910	701.608
249.132	26.348	881.317	703.799
250.147	26.737	881.767	705.609
251.161	26.636	881.062	704.590
252.176	26.527	880.860	703.942
253.190	26.850	879.557	704.094
254.205	26.668	880.596	704.158
255.220	27.151	879.052	704.732
256.234	26.900	878.627	703.358
257.249	26.489	878.080	701.264
258.263	26.548	877.107	700.654
259.278	26.501	876.887	700.236
260.293	26.669	876.288	700.343
261.307	26.681	875.888	700.008
262.322	26.758	875.312	699.781
263.336	26.493	874.719	698.223
264.351	26.134	873.331	695.669
265.366	25.515	872.168	692.301
266.380	25.177	871.262	690.218
267.395	25.930	870.831	692.710
268.409	26.603	870.026	694.593
269.424	26.442	869.619	693.588
270.439	26.560	868.767	693.299
271.453	26.996	868.371	694.592
272.468	26.621	868.350	693.077
273.482	26.446	868.031	692.092
274.497	26.954	867.205	693.314
275.512	26.658	865.874	691.058
276.526	26.170	865.350	688.719
277.541	26.439	865.521	689.820
278.555	26.605	864.904	689.898
279.570	26.555	863.892	688.840
280.585	26.237	864.044	687.690
281.599	26.473	863.714	688.265
282.614	26.749	862.601	688.367
283.628	26.126	861.467	685.038
284.643	26.148	859.946	683.852
285.657	26.415	861.346	685.915
286.672	26.117	860.358	683.938
287.687	25.615	859.043	680.935
288.701	26.050	858.604	682.169
289.716	26.707	858.636	684.620
290.730	26.201	857.882	682.045
291.745	26.433	857.407	682.483
292.760	25.856	856.260	679.336
293.774	25.673	856.617	678.870
294.789	26.997	855.198	682.666
295.803	27.229	855.690	683.872
296.818	27.418	854.760	683.777
297.833	27.121	854.825	682.652
298.847	27.180	853.374	681.656
299.862	26.771	852.835	679.632
300.876	26.633	852.791	679.018
301.891	27.036	851.397	679.357
302.906	27.604	851.876	681.805
303.920	26.858	850.022	677.474
304.935	27.228	849.558	678.425
305.949	26.935	849.428	677.169
306.964	26.994	849.644	677.500
307.979	27.173	848.227	676.977
308.993	26.626	847.930	674.645
310.008	26.702	848.480	675.304
311.022	27.066	847.489	675.813
312.037	27.278	846.257	675.558
313.052	26.870	845.812	673.628
314.066	26.827	845.173	672.899
315.081	26.396	843.772	670.127
316.095	25.926	842.694	667.472
317.110	25.956	842.872	667.666
318.125	26.899	842.832	671.063
319.139	26.240	842.814	668.551
320.154	25.316	840.659	663.371
321.168	25.015	839.525	661.305
322.183	25.287	840.557	663.065
323.197	26.396	840.134	666.766
324.212	26.511	839.354	666.510
325.227	26.547	839.704	666.861
326.241	26.723	838.487	666.485
327.256	26.661	838.244	666.003
328.270	26.789	837.261	665.636
329.285	26.471	837.475	664.577
330.300	26.311	836.109	662.846
331.314	26.288	834.647	661.546
332.329	26.053	834.326	660.375
333.343	26.815	834.243	663.035
334.358	27.040	834.004	663.610
335.373	27.143	833.735	663.714
336.387	27.056	834.060	663.595
337.402	27.369	833.112	663.924
338.416	27.559	832.080	663.736
339.431	27.489	831.879	663.261
340.446	27.080	831.663	661.541
341.460	27.245	832.220	662.527
342.475	27.254	830.997	661.528
343.489	27.252	830.862	661.355
344.504	26.924	830.115	659.508
345.519	27.567	829.053	660.940
346.533	28.005	828.056	661.671
347.548	27.739	827.862	660.497
348.562	27.327	827.559	658.707
349.577	27.448	827.587	659.107
350.592	27.242	826.344	657.315
351.606	27.724	825.685	658.473
352.621	27.480	825.055	657.031
353.635	27.713	823.387	656.486
354.650	26.910	824.522	654.436
355.665	27.065	823.919	654.457
356.679	26.113	822.052	649.492
357.694	25.780	822.552	648.631
358.708	26.598	821.817	650.938
359.723	26.633	820.978	650.341
360.738	26.935	819.846	650.469
361.752	26.983	820.075	650.764
362.767	27.031	819.700	650.581
363.781	27.243	820.430	651.864
364.796	27.579	820.011	652.675
365.810	27.823	819.470	653.061
366.825	28.064	818.558	653.139
367.840	27.800	817.861	651.583
368.854	27.445	818.166	650.499
369.869	27.796	816.610	650.453
370.883	27.051	816.879	647.956
371.898	27.424	816.131	648.631
372.913	27.316	815.799	647.929
373.927	27.530	815.136	648.104
374.942	27.389	813.478	646.230
375.956	27.457	812.867	645.927
376.971	27.443	812.590	645.601
377.986	27.550	812.432	645.798
379.000	27.523	812.589	645.769
380.015	27.576	812.312	645.680
381.029	27.774	810.425	644.823
382.044	27.725	810.485	644.640
383.059	27.691	809.002	643.285
384.073	27.858	809.287	644.040
385.088	27.574	808.888	642.667
386.102	27.459	808.265	641.710
387.117	27.504	807.391	641.118
388.132	27.203	807.243	639.883
389.146	26.969	806.306	638.262
390.161	27.408	805.310	638.959
391.175	27.358	804.382	637.990
392.190	27.314	805.487	638.655
393.205	27.531	806.046	639.803
394.219	26.636	803.283	634.421
395.234	24.962	802.754	628.083
396.248	25.076	800.927	626.997
397.263	25.607	801.128	628.955
398.278	27.045	801.044	633.857
399.292	27.323	801.471	635.107
400.307	26.751	800.974	632.661
401.321	26.839	799.996	632.140
402.336	26.294	800.648	630.698
403.350	26.965	800.140	632.582
404.365	27.264	800.063	633.507
405.380	28.112	799.412	635.883
406.394	27.606	799.826	634.398
407.409	27.800	798.832	634.227
408.423	28.026	798.545	634.727
409.438	27.846	798.397	633.929
410.453	27.664	798.295	633.162
411.467	27.937	797.810	633.668
412.482	27.973	795.520	631.917
413.496	27.463	796.017	630.491
414.511	27.544	795.385	630.213
415.526	27.909	795.144	631.228
416.540	27.835	794.927	630.744
417.555	27.960	794.867	631.074
418.569	27.867	794.379	630.308
419.584	27.576	793.683	628.698
420.599	27.558	793.587	628.504
421.613	159.094	1369.777	1792.302
422.628	137.842	1453.749	1792.384
