DTS Sentinel unit serial number:	SN413079Multiplexer serial number:	ORYXHardware model number:	OX4-SRSoftware version number:	ORYX F/W v4.00 Oryx Data Collector v3.7.2.0data status	okinstallation	princeton_trtdifferential loss correction	single-endedforward channel	channel 3reverse channel	N/Adate	2019/09/12time	18:11:04forward acquisition time	15.00reverse acquisition time	0.00gamma	496.2192k internal	0.2316k external	0.2316temperature offset calibration	1.0085default loss term (dB/km)	0.3790temperature slope calibration	1.0000multiplexer offset coefficient	1.0000multiplexer slope coefficient	1.0000fibre end	0.00T internal ref (°C)	33.62T ext. ref 1 (°C)	2.98T ext. ref 2 (°C)	28.13length (m)	temperature (°C)	Stokes	anti-Stokes-747.200	800.000	0.025	-0.098
-746.185	379.646	0.361	-0.749
-745.171	-89.421	-0.491	-0.146
-744.156	740.916	-0.236	-0.641
-743.142	261.174	-0.539	0.945
-742.127	71.625	-0.567	0.596
-741.112	230.084	0.490	-0.811
-740.098	178.021	-0.575	0.850
-739.083	380.352	-0.369	0.767
-738.069	-200.000	0.096	0.566
-737.054	72.305	0.918	-0.969
-736.039	445.211	-0.201	-0.446
-735.025	-44.625	-0.461	-0.233
-734.010	30.062	-0.359	0.310
-732.996	-200.000	0.039	-0.976
-731.981	97.950	-0.456	0.531
-730.966	-200.000	0.005	-0.281
-729.952	266.345	-0.250	-0.441
-728.937	6.465	-0.089	0.067
-727.923	-95.814	-0.915	-0.247
-726.908	185.760	-0.287	-0.432
-725.894	447.479	-0.244	-0.544
-724.879	800.000	0.124	0.440
-723.864	-56.426	0.538	-0.242
-722.850	-127.890	-0.393	0.057
-721.835	61.469	0.373	0.375
-720.821	800.000	0.242	-0.722
-719.806	-135.739	0.648	-0.078
-718.791	37.672	-0.230	-0.206
-717.777	-200.000	-0.060	0.299
-716.762	-146.227	0.658	0.058
-715.748	-194.396	-0.377	0.003
-714.733	800.000	-0.028	-0.080
-713.718	800.000	-0.169	0.652
-712.704	24.740	0.118	-0.099
-711.689	74.739	0.190	0.202
-710.675	125.572	-0.282	-0.361
-709.660	-200.000	-0.018	-0.433
-708.645	-19.258	0.387	0.243
-707.631	-193.701	-0.254	0.002
-706.616	-165.136	-0.705	-0.032
-705.602	135.865	-0.388	0.511
-704.587	-47.243	0.285	0.141
-703.572	-66.282	0.465	0.187
-702.558	54.703	0.167	0.163
-701.543	-48.199	0.220	-0.108
-700.529	-200.000	0.052	-0.354
-699.514	99.995	0.354	-0.415
-698.499	199.483	-0.121	-0.188
-697.485	453.409	-0.140	0.313
-696.470	70.064	0.169	0.177
-695.456	-35.802	1.205	-0.660
-694.441	-20.443	-0.279	0.173
-693.426	-72.511	0.357	-0.133
-692.412	197.213	-0.333	-0.514
-691.397	-200.000	0.010	0.051
-690.383	-200.000	0.046	0.319
-689.368	20.817	0.642	-0.525
-688.354	593.490	-0.273	-0.681
-687.339	-71.790	0.613	0.231
-686.324	20.006	-0.085	-0.069
-685.310	-200.000	0.010	-0.218
-684.295	-200.000	0.101	-0.722
-683.281	-200.000	0.001	0.118
-682.266	-81.030	0.775	-0.259
-681.251	151.027	-0.098	0.135
-680.237	-108.960	0.665	0.143
-679.222	800.000	-0.088	0.249
-678.208	-54.941	-1.101	-0.502
-677.193	104.175	0.347	0.412
-676.178	249.167	0.230	0.393
-675.164	800.000	0.048	0.149
-674.149	65.521	-0.227	0.232
-673.135	15.513	0.313	0.248
-672.120	-90.298	-0.344	0.101
-671.105	-200.000	-0.082	-0.602
-670.091	312.831	0.128	0.243
-669.076	-114.501	0.147	0.029
-668.062	685.474	-0.199	0.525
-667.047	92.451	-0.383	0.436
-666.032	-101.843	-0.433	0.106
-665.018	714.697	0.224	0.599
-664.003	326.323	0.347	-0.670
-662.989	-161.751	-0.019	0.001
-661.974	192.650	-0.675	-1.029
-660.959	-85.896	0.943	-0.295
-659.945	-58.063	-0.760	-0.335
-658.930	-200.000	0.004	0.065
-657.916	61.187	0.149	-0.149
-656.901	-156.329	0.779	0.049
-655.886	-101.213	0.165	-0.041
-654.872	739.911	-0.041	0.111
-653.857	109.540	0.056	0.068
-652.843	-103.940	0.493	-0.116
-651.828	-15.828	0.545	-0.350
-650.814	-86.319	0.862	-0.268
-649.799	277.586	-0.365	0.655
-648.784	23.304	0.786	0.652
-647.770	800.000	-0.165	0.639
-646.755	-200.000	0.031	-0.273
-645.741	668.958	-0.142	0.371
-644.726	-142.060	-0.282	-0.028
-643.711	-103.564	-0.424	-0.100
-642.697	-200.000	0.032	-0.352
-641.682	-200.000	0.096	0.439
-640.668	-43.023	-0.304	-0.156
-639.653	-112.524	-0.488	-0.098
-638.638	-60.368	0.295	0.126
-637.624	-101.220	-0.262	-0.065
-636.609	34.133	-0.647	0.568
-635.595	316.880	-0.246	0.468
-634.580	-131.689	0.529	-0.070
-633.565	800.000	-0.183	-0.587
-632.551	-200.000	-0.058	-0.573
-631.536	-200.000	-0.082	-0.696
-630.522	187.088	-0.324	0.487
-629.507	439.706	0.085	-0.187
-628.492	24.708	0.625	-0.522
-627.478	161.590	0.250	0.353
-626.463	-106.144	-0.573	0.130
-625.449	221.817	-0.124	-0.201
-624.434	-19.925	0.111	0.069
-623.419	167.347	-0.273	-0.390
-622.405	-87.667	-0.728	0.221
-621.390	-62.786	0.459	-0.192
-620.376	800.000	-0.124	0.443
-619.361	-50.673	-0.828	0.393
-618.346	64.754	0.763	0.776
-617.332	-132.454	0.170	0.022
-616.317	-200.000	0.105	-0.553
-615.303	282.741	-0.152	-0.276
-614.288	-3.587	0.223	-0.157
-613.273	288.367	0.307	-0.560
-612.259	-200.000	-0.007	-0.736
-611.244	53.946	0.419	0.406
-610.230	-105.240	-0.785	0.181
-609.215	1.920	-0.647	-0.470
-608.201	329.581	-0.405	-0.784
-607.186	-68.722	-0.649	0.253
-606.171	159.648	0.458	0.642
-605.157	-4.458	0.274	0.191
-604.142	-85.748	-0.636	0.199
-603.128	-5.280	-0.315	-0.218
-602.113	788.950	0.117	-0.325
-601.098	38.007	0.356	0.319
-600.084	214.598	0.095	0.152
-599.069	153.904	-0.194	-0.268
-598.055	-200.000	0.002	-0.116
-597.040	-121.015	-0.429	-0.073
-596.025	69.835	-0.739	-0.767
-595.011	627.004	0.248	-0.631
-593.996	24.083	0.403	0.335
-592.982	-51.651	-0.469	-0.220
-591.967	-115.918	0.702	0.132
-590.952	-200.000	0.094	0.930
-589.938	-200.000	0.107	0.542
-588.923	375.537	0.279	0.572
-587.909	-139.405	-0.384	-0.041
-586.894	136.643	0.314	-0.413
-585.879	45.645	0.691	0.642
-584.865	-200.000	-0.009	0.681
-583.850	296.396	0.197	0.363
-582.836	-200.000	0.100	-0.921
-581.821	-200.000	0.115	-0.638
-580.806	-111.864	0.397	-0.081
-579.792	-154.159	0.349	-0.024
-578.777	-35.685	0.478	0.261
-577.763	34.036	0.294	-0.258
-576.748	-53.141	-0.107	0.050
-575.733	524.363	0.124	-0.294
-574.719	-200.000	0.069	-0.868
-573.704	39.655	0.470	0.424
-572.690	-65.912	-0.254	0.102
-571.675	39.155	0.119	-0.107
-570.661	-154.148	0.734	0.050
-569.646	-200.000	-0.057	0.399
-568.631	269.186	0.283	-0.500
-567.617	800.000	-0.079	-0.239
-566.602	35.750	-0.420	0.371
-565.588	460.078	-0.141	-0.316
-564.573	-63.698	-0.305	0.126
-563.558	232.213	0.186	0.307
-562.544	-63.200	-0.570	0.236
-561.529	-200.000	-0.048	-0.455
-560.515	-59.243	0.486	-0.211
-559.500	488.663	0.256	-0.587
-558.485	800.000	-0.048	0.133
-557.471	-200.000	-0.095	-0.525
-556.456	-200.000	-0.122	-0.884
-555.442	-88.465	-0.221	0.066
-554.427	-128.637	-0.408	0.058
-553.412	-92.750	0.382	0.107
-552.398	-104.838	0.545	-0.126
-551.383	323.514	0.333	0.638
-550.369	-200.000	-0.015	-0.597
-549.354	-114.926	-0.269	0.051
-548.339	270.711	0.494	-0.874
-547.325	183.708	0.285	-0.423
-546.310	-184.708	0.938	-0.015
-545.296	-200.000	0.037	0.258
-544.281	-135.033	0.347	0.042
-543.266	800.000	0.066	-0.258
-542.252	108.020	-0.025	0.029
-541.237	800.000	0.126	0.454
-540.223	18.975	0.623	-0.502
-539.208	-56.187	0.561	-0.251
-538.193	-122.483	-0.583	-0.095
-537.179	800.000	-0.114	-0.404
-536.164	-57.734	1.224	0.538
-535.150	630.767	-0.266	0.675
-534.135	238.514	-0.343	-0.572
-533.121	442.193	0.344	0.757
-532.106	57.128	0.216	-0.211
-531.091	86.471	-0.338	-0.374
-530.077	-58.534	0.241	0.105
-529.062	-91.166	-0.344	0.099
-528.048	-200.000	-0.069	0.529
-527.033	326.652	0.046	0.088
-526.018	-107.896	0.328	-0.072
-525.004	-7.141	-0.458	-0.312
-523.989	800.000	-0.233	0.712
-522.975	800.000	0.072	-0.225
-521.960	-200.000	0.006	0.037
-520.945	-200.000	0.001	0.167
-519.931	-123.593	0.413	-0.066
-518.916	-200.000	-0.032	-0.832
-517.902	-200.000	0.017	0.335
-516.887	15.853	0.819	0.647
-515.872	800.000	-0.301	-0.913
-514.858	-127.654	0.197	0.029
-513.843	45.604	0.501	0.465
-512.829	7.458	0.247	-0.186
-511.814	-126.197	-1.305	0.196
-510.799	-21.600	1.070	0.655
-509.785	54.006	-0.430	-0.415
-508.770	164.012	0.036	-0.050
-507.756	538.431	-0.098	0.233
-506.741	190.344	-0.393	-0.592
-505.726	800.000	0.311	0.982
-504.712	62.038	-0.330	-0.330
-503.697	-169.085	-0.642	0.024
-502.683	-68.459	0.483	-0.188
-501.668	342.178	-0.166	0.326
-500.653	-25.654	0.356	-0.211
-499.639	-200.000	-0.027	0.653
-498.624	-186.604	-0.388	0.006
-497.610	212.914	-0.224	-0.355
-496.595	-87.199	-0.621	0.189
-495.581	119.943	-0.180	-0.223
-494.566	21.107	0.390	-0.318
-493.551	800.000	0.176	-0.551
-492.537	800.000	-0.219	-0.896
-491.522	-200.000	0.029	-0.149
-490.508	623.196	-0.189	0.476
-489.493	-200.000	-0.017	0.563
-488.478	66.097	0.305	0.311
-487.464	800.000	-0.132	0.389
-486.449	-200.000	0.106	0.586
-485.435	-200.000	0.003	0.065
-484.420	-173.097	0.634	-0.020
-483.405	64.255	0.101	-0.102
-482.391	-28.589	0.385	-0.222
-481.376	124.837	0.199	0.251
-480.362	82.356	-0.313	-0.340
-479.347	22.574	0.372	-0.305
-478.332	-200.000	-0.008	-0.228
-477.318	244.483	0.584	0.984
-476.303	-99.854	-1.417	0.355
-475.289	-3.254	-0.359	0.250
-474.274	800.000	0.130	-0.428
-473.259	31.294	0.453	-0.390
-472.245	-200.000	0.153	-0.893
-471.230	360.711	-0.219	-0.440
-470.216	-103.871	-0.832	0.195
-469.201	-200.000	-0.031	0.583
-468.186	-200.000	-0.016	0.255
-467.172	-2.546	0.102	-0.071
-466.157	-33.730	-0.151	-0.083
-465.143	72.296	-0.369	0.385
-464.128	429.148	0.144	-0.311
-463.113	-139.601	-0.500	0.053
-462.099	206.710	-0.382	0.596
-461.084	151.650	-0.097	-0.132
-460.070	174.078	0.230	-0.333
-459.055	482.706	0.132	-0.301
-458.040	-38.904	0.486	0.256
-457.026	329.167	-0.353	-0.680
-456.011	-69.006	-0.735	-0.284
-454.997	32.599	-0.163	0.141
-453.982	-131.043	0.396	0.053
-452.968	-200.000	0.049	-0.249
-451.953	-30.387	-0.320	0.182
-450.938	-200.000	0.103	-1.437
-449.924	169.146	-0.263	-0.376
-448.909	45.700	0.799	-0.739
-447.895	-70.832	0.256	-0.097
-446.880	-91.531	0.792	0.226
-445.865	-161.831	-0.165	0.008
-444.851	800.000	-0.061	0.212
-443.836	-48.942	-0.560	0.268
-442.822	-200.000	-0.006	-0.697
-441.807	-142.918	-0.295	0.029
-440.792	364.896	0.181	-0.365
-439.778	-175.272	-0.475	0.013
-438.763	256.448	-0.275	-0.473
-437.749	-24.953	0.411	-0.244
-436.734	-200.000	-0.067	0.784
-435.719	800.000	-0.159	0.501
-434.705	-65.437	0.492	-0.198
-433.690	-128.061	-0.160	0.023
-432.676	33.708	0.570	-0.496
-431.661	800.000	0.100	0.436
-430.646	447.644	0.464	-1.023
-429.632	-200.000	-0.001	-0.683
-428.617	-30.363	-0.509	-0.289
-427.603	-47.658	0.906	-0.440
-426.588	-46.434	-0.409	0.201
-425.573	-60.358	-0.284	0.121
-424.559	85.060	0.160	-0.176
-423.544	84.377	-0.950	1.039
-422.530	-200.000	-0.084	0.648
-421.515	-69.087	0.260	0.100
-420.500	42.075	-0.284	0.258
-419.486	-200.000	-0.119	-0.644
-418.471	-151.002	1.030	-0.078
-417.457	179.964	-0.262	-0.384
-416.442	145.177	-0.235	-0.315
-415.428	49.356	0.310	0.292
-414.413	800.000	0.076	0.261
-413.398	-47.554	0.537	0.261
-412.384	-200.000	-0.080	-0.587
-411.369	-200.000	0.025	0.332
-410.355	-28.162	-0.474	0.274
-409.340	-126.565	0.216	0.032
-408.325	9.086	0.561	0.423
-407.311	-200.000	-0.056	0.495
-406.296	800.000	0.041	0.176
-405.282	-200.000	0.015	-0.242
-404.267	-136.167	0.586	-0.069
-403.252	800.000	0.133	0.439
-402.238	-7.390	-0.519	-0.351
-401.223	206.905	0.316	-0.492
-400.209	-180.267	0.828	-0.017
-399.194	-51.280	-0.461	-0.216
-398.179	-79.445	1.250	-0.422
-397.165	-91.010	0.136	0.039
-396.150	423.901	-0.126	-0.270
-395.136	-74.117	0.257	-0.093
-394.121	-53.796	0.200	0.091
-393.106	-115.416	0.224	0.042
-392.092	-103.752	-0.781	-0.183
-391.077	-107.356	0.377	-0.083
-390.063	625.534	-0.112	-0.282
-389.048	407.156	0.274	-0.579
-388.033	-126.529	-0.434	-0.064
-387.019	149.462	0.246	0.332
-386.004	62.553	0.704	0.703
-384.990	800.000	-0.153	-0.631
-383.975	-76.456	0.874	0.307
-382.960	18.644	-0.563	-0.450
-381.946	-115.497	-0.662	0.124
-380.931	-148.330	0.295	0.024
-379.917	39.395	-0.476	0.426
-378.902	492.229	0.199	0.455
-377.888	-25.392	-0.477	-0.281
-376.873	-180.510	-0.876	-0.018
-375.858	155.181	0.446	-0.612
-374.844	-109.919	0.682	-0.143
-373.829	-140.946	-0.084	0.009
-372.815	800.000	0.243	-0.928
-371.800	-66.296	0.595	0.236
-370.785	800.000	-0.147	-0.454
-369.771	101.272	0.223	-0.259
-368.756	-131.289	-0.897	-0.119
-367.742	699.883	-0.077	-0.202
-366.727	-77.438	-0.658	-0.228
-365.712	-200.000	0.110	0.776
-364.698	-32.546	-0.251	-0.140
-363.683	800.000	-0.160	0.495
-362.669	108.259	0.645	0.768
-361.654	40.691	0.169	0.152
-360.639	229.900	0.375	0.612
-359.625	-68.390	0.485	-0.188
-358.610	-54.558	-0.059	0.027
-357.596	319.299	0.320	-0.606
-356.581	-142.753	0.138	-0.013
-355.566	72.258	-0.424	0.441
-354.552	267.558	-0.323	0.563
-353.537	565.287	-0.368	0.890
-352.523	24.156	-0.354	0.292
-351.508	-200.000	-0.111	0.806
-350.493	-200.000	-0.018	0.514
-349.479	600.610	-0.381	-0.943
-348.464	-200.000	-0.051	-0.858
-347.450	678.799	-0.217	0.564
-346.435	-60.293	1.024	0.435
-345.420	-53.235	-0.207	-0.095
-344.406	-27.825	-0.699	0.404
-343.391	-94.203	0.061	-0.017
-342.377	-118.541	-1.013	0.179
-341.362	-200.000	-0.021	-0.093
-340.348	541.210	-0.357	-0.847
-339.333	251.820	0.165	0.280
-338.318	1.705	-0.379	0.272
-337.304	43.447	-0.378	0.345
-336.289	-200.000	0.036	0.254
-335.275	75.569	0.288	0.304
-334.260	31.913	-0.464	0.398
-333.245	-123.761	0.690	-0.109
-332.231	303.535	0.293	0.542
-331.216	-39.495	0.385	-0.201
-330.202	-80.424	0.337	0.112
-329.187	72.993	-0.340	0.354
-328.172	161.668	0.161	-0.224
-327.158	800.000	0.235	-0.866
-326.143	163.017	0.116	-0.162
-325.129	-26.091	-0.570	-0.334
-324.114	-60.112	0.464	0.197
-323.099	212.938	-0.208	-0.327
-322.085	145.898	-0.073	0.097
-321.070	-30.848	0.616	-0.347
-320.056	26.940	-0.187	-0.156
-319.041	220.200	-0.515	-0.822
-318.026	100.546	-0.132	-0.153
-317.012	-163.347	0.532	0.025
-315.997	74.037	-0.296	-0.310
-314.983	-200.000	0.007	-0.409
-313.968	31.600	-0.260	0.222
-312.953	422.106	-0.482	-1.029
-311.939	-33.421	-0.274	-0.151
-310.924	-169.297	-1.331	-0.049
-309.910	88.274	0.638	0.706
-308.895	679.527	-0.203	-0.526
-307.880	-200.000	0.103	-0.798
-306.866	-75.061	-0.273	-0.097
-305.851	-43.465	-0.655	-0.329
-304.837	125.418	0.085	0.107
-303.822	43.581	0.429	-0.390
-302.807	800.000	0.203	0.657
-301.793	-200.000	0.117	1.030
-300.778	-180.480	0.460	0.009
-299.764	293.897	0.351	-0.638
-298.749	149.383	-0.338	0.455
-297.735	-123.059	-0.283	-0.045
-296.720	-144.838	-0.912	0.083
-295.705	-200.000	-0.036	0.228
-294.691	29.663	0.453	0.384
-293.676	-63.161	-0.425	0.175
-292.662	-108.996	0.319	0.068
-291.647	800.000	-0.039	-0.128
-290.632	-72.594	0.289	0.106
-289.618	71.878	-0.503	-0.521
-288.603	347.198	-0.222	0.435
-287.589	-114.456	-0.412	0.079
-286.574	40.665	-0.533	-0.478
-285.559	150.247	0.112	-0.151
-284.545	56.297	-0.841	0.813
-283.530	261.709	-0.252	0.434
-282.516	-200.000	0.048	0.319
-281.501	-200.000	-0.020	-0.196
-280.486	479.363	0.191	-0.431
-279.472	-39.449	0.784	-0.409
-278.457	-0.387	0.236	0.167
-277.443	-200.000	0.156	0.690
-276.428	-200.000	0.036	0.334
-275.413	-18.327	0.799	0.496
-274.399	-42.240	-0.277	-0.141
-273.384	-72.881	0.153	0.056
-272.370	233.240	0.066	-0.109
-271.355	29.272	-0.785	0.663
-270.340	399.025	-0.138	-0.287
-269.326	-53.568	0.077	-0.035
-268.311	800.000	-0.075	-0.315
-267.297	36.745	0.138	0.121
-266.282	-200.000	0.007	-0.139
-265.267	-72.047	0.515	0.190
-264.253	-200.000	-0.018	-0.467
-263.238	-200.000	-0.095	-0.599
-262.224	-3.402	0.357	-0.247
-261.209	111.788	-0.289	0.346
-260.195	-45.150	0.730	-0.360
-259.180	196.907	-0.315	-0.477
-258.165	-110.834	0.404	0.083
-257.151	800.000	0.162	0.519
-256.136	-53.632	0.354	-0.161
-255.122	-200.000	0.158	-0.756
-254.107	800.000	0.074	-0.233
-253.092	45.268	-0.416	-0.381
-252.078	-200.000	0.325	0.002
-251.063	380.705	0.193	0.394
-250.049	-200.000	0.046	1.073
-249.034	-200.000	0.056	-0.385
-248.019	-84.886	0.125	-0.039
-247.005	-200.000	-0.146	0.876
-245.990	-200.000	0.047	0.853
-244.976	-200.000	-0.061	0.370
-243.961	192.632	-0.429	0.643
-242.946	460.019	0.208	-0.459
-241.932	-200.000	-0.023	-0.563
-240.917	519.314	0.039	0.091
-239.903	107.918	-0.285	0.337
-238.888	9.118	0.519	-0.389
-237.873	-144.487	-0.141	-0.013
-236.859	84.919	0.762	-0.829
-235.844	235.463	0.230	-0.377
-234.830	-72.194	0.172	0.063
-233.815	-31.115	-0.239	0.134
-232.800	-200.000	0.052	-0.347
-231.786	78.102	0.048	-0.051
-230.771	-76.289	0.642	0.224
-229.757	-200.000	0.133	0.582
-228.742	-65.685	-0.441	0.175
-227.727	154.760	0.196	0.267
-226.713	-158.670	1.335	0.076
-225.698	383.807	0.243	-0.496
-224.684	47.098	-0.840	-0.776
-223.669	216.275	0.148	-0.233
-222.655	102.965	-0.283	0.329
-221.640	-118.724	0.538	0.094
-220.625	-102.743	-1.075	0.254
-219.611	86.706	0.077	-0.084
-218.596	-113.002	-0.618	-0.121
-217.582	88.936	-0.440	0.486
-216.567	-165.756	-0.155	0.007
-215.552	-27.005	0.123	0.071
-214.538	-30.449	-0.092	0.052
-213.523	156.399	-0.295	-0.404
-212.509	-139.555	-0.861	0.091
-211.494	704.940	0.230	0.602
-210.479	28.501	-0.278	0.233
-209.465	649.225	-0.308	0.780
-208.450	201.045	-0.204	-0.311
-207.436	167.429	0.160	0.225
-206.421	-200.000	-0.149	1.054
-205.406	38.493	-0.237	0.209
-204.392	1.514	0.897	0.640
-203.377	-103.995	0.796	-0.184
-202.363	800.000	-0.189	-0.761
-201.348	-13.248	-0.240	-0.154
-200.333	42.415	-0.431	0.388
-199.319	-127.908	-0.360	0.051
-198.304	-200.000	-0.179	-1.158
-197.290	-200.000	0.005	0.038
-196.275	-99.124	-0.808	0.203
-195.260	-200.000	-0.058	-0.494
-194.246	-40.490	0.238	0.122
-193.231	-117.000	-0.644	0.116
-192.217	419.556	0.415	0.881
-191.202	800.000	-0.033	0.135
-190.187	85.486	0.966	-1.052
-189.173	259.418	-0.321	0.549
-188.158	-200.000	-0.025	0.235
-187.144	-200.000	0.174	-0.953
-186.129	158.239	-0.322	-0.443
-185.114	-157.806	0.362	0.021
-184.100	800.000	-0.225	0.931
-183.085	-112.440	-0.553	-0.109
-182.071	57.147	-0.635	0.613
-181.056	-8.852	0.434	0.288
-180.042	800.000	0.109	-0.347
-179.027	-16.691	0.527	0.330
-178.012	65.176	0.188	0.188
-176.998	54.954	-0.665	-0.636
-175.983	-37.071	0.581	0.308
-174.969	60.858	0.901	0.885
-173.954	117.088	-0.539	-0.656
-172.939	-200.000	-0.112	0.488
-171.925	-23.309	0.275	-0.164
-170.910	-172.951	0.424	-0.013
-169.896	-13.787	-0.351	0.225
-168.881	-200.000	-0.047	0.507
-167.866	334.921	-0.294	0.564
-166.852	800.000	-0.255	0.752
-165.837	92.745	-0.239	-0.267
-164.823	-70.051	-0.954	-0.360
-163.808	-70.016	1.229	0.463
-162.793	-75.644	-0.159	-0.056
-161.779	-47.982	-0.314	-0.150
-160.764	-94.779	-1.287	-0.346
-159.750	308.909	0.417	0.771
-158.735	168.810	-0.185	0.261
-157.720	36.228	0.111	-0.097
-156.706	-23.574	-0.311	-0.185
-155.691	330.663	0.139	-0.264
-154.677	-200.000	-0.055	0.412
-153.662	-157.800	-0.143	-0.008
-152.647	-200.000	0.017	0.623
-151.633	-20.095	0.636	-0.388
-150.618	70.050	-0.360	0.367
-149.604	-200.000	-0.001	0.283
-148.589	44.784	-0.914	0.832
-147.574	377.157	0.250	0.506
-146.560	295.331	-0.413	-0.748
-145.545	-200.000	0.042	-1.185
-144.531	-102.713	-0.569	0.134
-143.516	-200.000	-0.054	0.399
-142.502	127.583	0.196	-0.246
-141.487	-56.887	-0.462	-0.202
-140.472	-57.933	-0.732	-0.316
-139.458	133.293	-0.167	-0.214
-138.443	37.634	0.457	-0.401
-137.429	-133.528	-0.204	-0.025
-136.414	48.908	-0.209	-0.194
-135.399	-29.865	-0.517	0.291
-134.385	-52.198	-0.143	-0.065
-133.370	-31.800	0.485	-0.269
-132.356	57.974	-0.320	-0.310
-131.341	-200.000	0.056	-0.413
-130.326	34.213	0.389	0.336
-129.312	-109.227	0.705	0.148
-128.297	800.000	0.106	0.424
-127.283	-14.204	-0.229	0.146
-126.268	-88.427	0.366	-0.108
-125.253	763.711	-0.140	-0.375
-124.239	148.504	0.208	-0.278
-123.224	-104.298	-0.432	0.099
-122.210	91.305	0.543	-0.602
-121.195	418.169	-0.296	0.625
-120.180	392.445	-0.279	0.572
-119.166	-115.929	0.500	0.092
-118.151	-200.000	-0.052	-0.874
-117.137	-200.000	0.024	0.118
-116.122	-12.041	0.423	-0.274
-115.107	-126.119	0.469	0.070
-114.093	-200.000	0.054	-0.301
-113.078	41.739	0.624	0.558
-112.064	135.197	-0.178	-0.228
-111.049	-200.000	0.005	-0.617
-110.034	-49.745	-0.738	-0.347
-109.020	-70.312	-0.697	0.261
-108.005	-79.074	-0.200	-0.067
-106.991	-200.000	-0.090	-0.456
-105.976	-37.585	0.841	0.443
-104.962	-200.000	-0.032	-0.451
-103.947	-73.369	-0.450	0.163
-102.932	-200.000	-0.008	0.099
-101.918	-163.125	0.401	0.019
-100.903	522.428	0.392	-0.909
-99.889	25.234	-0.520	-0.427
-98.874	-200.000	-0.030	-0.290
-97.859	334.073	-0.078	0.148
-96.845	23.945	0.265	0.216
-95.830	800.000	-0.187	0.610
-94.816	-200.000	0.025	0.661
-93.801	-84.627	0.383	-0.119
-92.786	33.446	-0.398	-0.341
-91.772	179.593	0.389	0.563
-90.757	433.021	0.335	0.717
-89.743	-200.000	-0.014	1.025
-88.728	92.062	0.106	0.118
-87.713	201.192	-0.157	0.239
-86.699	-31.326	0.374	0.208
-85.684	-200.000	0.101	-0.472
-84.670	-58.696	-0.139	-0.059
-83.655	800.000	-0.215	0.671
-82.640	-166.307	0.834	-0.035
-81.626	50.883	-0.467	-0.437
-80.611	-4.646	-0.277	-0.189
-79.597	800.000	-0.093	0.309
-78.582	71.807	-0.056	0.058
-77.567	-165.558	-0.450	-0.019
-76.553	767.517	0.277	0.744
-75.538	-200.000	0.040	0.385
-74.524	300.033	0.338	-0.615
-73.509	139.276	0.092	-0.120
-72.494	546.260	-0.119	0.280
-71.480	-200.000	0.139	-0.699
-70.465	438.959	0.224	-0.483
-69.451	-68.835	0.353	-0.135
-68.436	-200.000	0.085	-0.589
-67.422	92.528	0.658	0.732
-66.407	800.000	-0.099	0.295
-65.392	-200.000	0.001	0.601
-64.378	-168.518	-0.720	0.027
-63.363	241.755	0.822	1.355
-62.349	73.925	-0.221	-0.228
-61.334	-40.862	-1.335	-0.681
-60.319	-67.900	0.333	0.128
-59.305	-101.598	-0.947	-0.227
-58.290	-200.000	0.159	0.802
-57.276	709.474	0.612	1.597
-56.261	-200.000	95.410	572.085
-55.246	634.600	1375.690	3439.884
-54.232	197.631	2549.784	3838.429
-53.217	116.663	2155.974	2607.323
-52.203	43.848	1700.395	1534.953
-51.188	36.898	1515.946	1321.214
-50.173	34.383	1488.367	1280.262
-49.159	54.853	1539.551	1464.527
-48.144	55.890	1556.918	1488.066
-47.130	37.016	1515.513	1321.432
-46.115	33.651	1501.810	1286.653
-45.100	33.650	1498.809	1284.025
-44.086	33.716	1495.717	1281.768
-43.071	33.593	1493.434	1278.933
-42.057	33.501	1492.922	1277.822
-41.042	33.616	1490.722	1276.668
-40.027	33.698	1489.200	1275.866
-39.013	33.728	1487.315	1274.398
-37.998	33.441	1486.864	1272.032
-36.984	33.763	1486.164	1273.543
-35.969	33.647	1484.330	1271.149
-34.954	33.645	1483.272	1270.174
-33.940	33.450	1482.698	1268.328
-32.925	33.712	1480.395	1268.057
-31.911	33.623	1478.909	1266.144
-30.896	33.556	1479.027	1265.745
-29.881	33.699	1477.454	1265.306
-28.867	33.662	1475.423	1263.268
-27.852	33.649	1474.227	1262.106
-26.838	33.814	1472.030	1261.273
-25.823	33.562	1470.748	1258.452
-24.809	33.707	1468.924	1257.801
-23.794	33.629	1468.062	1256.496
-22.779	33.645	1466.677	1255.366
-21.765	33.658	1465.041	1254.004
-20.750	33.773	1464.356	1254.130
-19.736	33.632	1463.392	1252.322
-18.721	33.469	1462.729	1250.626
-17.706	33.616	1461.249	1250.280
-16.692	33.487	1460.601	1248.829
-15.677	33.575	1459.295	1248.243
-14.663	33.791	1457.852	1248.380
-13.648	33.687	1456.258	1246.277
-12.633	33.575	1456.126	1245.384
-11.619	33.709	1456.091	1246.183
-10.604	33.576	1454.594	1243.977
-9.590	33.770	1453.559	1244.314
-8.575	33.544	1453.155	1242.443
-7.560	33.698	1451.944	1242.365
-6.546	33.530	1451.067	1240.463
-5.531	33.478	1450.518	1239.606
-4.517	33.673	1448.970	1239.511
-3.502	33.628	1449.220	1239.378
-2.487	33.562	1447.006	1237.005
-1.473	33.501	1447.256	1236.770
-0.458	33.444	1445.890	1235.181
0.556	34.445	1435.870	1224.499
1.571	31.290	1409.386	1181.882
2.586	27.530	1349.838	1109.013
3.600	25.441	1270.176	1031.494
4.615	24.349	1222.887	986.963
5.629	20.575	1167.173	921.944
6.644	11.316	1081.508	808.495
7.659	4.471	1039.892	744.593
8.673	3.188	1034.379	734.462
9.688	2.888	1031.631	731.018
10.702	2.946	1029.771	729.911
11.717	2.898	1027.292	727.859
12.731	5.960	1032.127	745.787
13.746	15.200	1044.539	798.928
14.761	23.479	1055.040	846.591
15.775	25.868	1057.899	860.231
16.790	25.957	1057.526	860.278
17.804	25.621	1057.596	858.653
18.819	25.694	1055.639	857.335
19.834	25.823	1054.352	856.827
20.848	25.993	1055.641	858.608
21.863	26.308	1054.003	858.700
22.877	26.260	1054.457	858.767
23.892	26.117	1052.912	856.752
24.907	25.947	1052.488	855.526
25.921	25.832	1052.779	855.138
26.936	25.968	1051.855	854.956
27.950	25.990	1050.255	853.686
28.965	26.237	1049.082	853.827
29.980	25.934	1048.325	851.701
30.994	25.995	1045.887	849.933
32.009	26.178	1045.854	850.692
33.023	26.223	1045.365	850.432
34.038	26.096	1043.392	848.155
35.053	25.897	1044.019	847.654
36.067	25.897	1043.345	847.032
37.082	26.005	1041.333	845.830
38.096	26.339	1041.271	847.269
39.111	26.261	1041.433	846.963
40.126	26.286	1039.074	845.086
41.140	26.342	1038.390	844.716
42.155	26.329	1036.771	843.262
43.169	25.780	1035.718	839.775
44.184	25.804	1033.770	838.232
45.199	25.738	1033.809	837.881
46.213	25.879	1032.897	837.722
47.228	25.348	1033.626	835.769
48.242	25.792	1032.433	836.794
49.257	25.997	1031.138	836.623
50.271	25.818	1029.871	834.691
51.286	26.007	1029.749	835.393
52.301	26.197	1028.859	835.478
53.315	26.302	1027.937	835.141
54.330	26.187	1026.774	833.589
55.344	25.989	1027.435	833.138
56.359	26.049	1026.332	832.447
57.374	26.120	1025.072	831.678
58.388	25.854	1023.847	829.387
59.403	25.621	1023.869	828.256
60.417	25.907	1022.332	828.258
61.432	25.641	1022.158	826.820
62.447	25.839	1021.567	827.178
63.461	25.846	1020.144	825.983
64.476	25.837	1020.031	825.779
65.490	25.840	1019.491	825.280
66.505	25.676	1018.889	823.972
67.520	25.754	1017.613	823.225
68.534	25.791	1016.191	822.168
69.549	25.850	1014.663	821.129
70.563	25.514	1013.875	818.889
71.578	25.559	1013.258	818.521
72.593	25.582	1012.687	818.092
73.607	25.144	1012.419	815.813
74.622	25.154	1010.988	814.634
75.636	25.507	1009.677	815.106
76.651	25.936	1008.639	816.136
77.666	25.769	1008.134	814.902
78.680	25.807	1007.288	814.316
79.695	25.768	1006.724	813.613
80.709	25.601	1007.249	813.211
81.724	25.841	1007.081	814.086
82.739	25.788	1004.399	811.607
83.753	25.667	1004.163	810.803
84.768	26.118	1002.859	811.706
85.782	26.285	1003.469	812.879
86.797	26.320	1002.544	812.213
87.812	26.346	1002.311	812.069
88.826	26.348	1000.175	810.278
89.841	26.316	1000.285	810.149
90.855	26.275	999.756	809.466
91.870	26.600	998.303	809.671
92.884	26.813	997.553	809.945
93.899	26.086	996.832	806.039
94.914	26.255	995.835	805.917
95.928	26.381	995.305	805.978
96.943	26.569	994.133	805.796
97.957	26.310	992.716	803.425
98.972	26.222	991.508	801.985
99.987	25.686	991.656	799.654
101.001	25.933	989.909	799.267
102.016	26.103	991.079	800.897
103.030	25.997	989.265	798.892
104.045	25.926	988.490	797.882
105.060	26.094	987.167	797.483
106.074	25.900	985.689	795.362
107.089	25.871	985.270	794.825
108.103	26.003	985.511	795.535
109.118	26.421	983.835	795.949
110.133	26.199	983.383	794.536
111.147	26.046	982.558	793.129
112.162	25.760	980.833	790.412
113.176	25.886	978.799	789.255
114.191	25.552	980.214	788.858
115.206	25.874	978.875	789.124
116.220	25.563	977.019	786.198
117.235	25.489	976.711	785.557
118.249	25.528	976.251	785.287
119.264	25.753	975.498	785.595
120.279	25.216	974.332	782.242
121.293	25.321	974.932	783.115
122.308	25.756	971.276	781.999
123.322	25.709	972.439	782.662
124.337	25.461	971.821	781.017
125.352	25.427	969.564	778.986
126.366	24.967	968.480	776.055
127.381	24.685	967.681	774.126
128.395	25.232	968.167	776.815
129.410	25.639	967.312	777.818
130.424	25.884	967.505	778.964
131.439	26.297	964.661	778.385
132.454	25.783	964.651	776.093
133.468	25.955	964.481	776.630
134.483	25.978	963.421	775.806
135.497	25.967	962.416	774.881
136.512	26.423	961.661	776.160
137.527	26.350	961.150	775.368
138.541	26.000	960.663	773.407
139.556	26.152	959.486	773.041
140.570	26.206	959.444	773.167
141.585	26.034	958.729	771.790
142.600	26.300	957.034	771.492
143.614	26.282	957.068	771.375
144.629	26.373	955.700	770.591
145.643	26.906	954.472	771.801
146.658	26.426	954.741	769.908
147.673	26.381	952.195	767.595
148.687	25.996	952.487	766.126
149.702	25.894	951.100	764.512
150.716	25.993	949.249	763.375
151.731	26.227	948.021	763.308
152.746	26.308	946.841	762.632
153.760	26.267	946.855	762.404
154.775	26.301	947.408	762.925
155.789	25.942	947.736	761.607
156.804	26.120	946.547	761.333
157.819	26.495	942.933	759.934
158.833	26.338	943.943	760.021
159.848	26.641	942.861	760.355
160.862	26.401	942.215	758.761
161.877	26.529	941.116	758.344
162.892	26.287	940.205	756.529
163.906	26.152	939.226	755.110
164.921	26.223	939.189	755.311
165.935	26.452	936.763	754.247
166.950	26.527	936.231	754.064
167.964	26.723	935.416	754.158
168.979	26.385	934.847	752.227
169.994	26.426	933.528	751.270
171.008	26.137	932.724	749.356
172.023	26.081	932.421	748.814
173.037	26.693	930.785	749.968
174.052	26.416	930.674	748.666
175.067	26.219	929.737	747.030
176.081	25.983	929.383	745.705
177.096	26.324	927.397	745.453
178.110	26.198	926.567	744.199
179.125	26.228	925.488	743.393
180.140	25.539	925.423	740.435
181.154	25.779	924.353	740.504
182.169	25.965	923.938	740.867
183.183	26.208	923.816	741.702
184.198	26.701	922.376	742.503
185.213	26.438	922.024	741.076
186.227	26.584	921.711	741.357
187.242	26.085	921.573	739.139
188.256	26.327	920.849	739.481
189.271	26.242	919.960	738.353
190.286	26.501	919.025	738.595
191.300	26.836	917.880	738.975
192.315	25.933	916.224	733.902
193.329	25.269	915.142	730.270
194.344	24.717	913.924	726.992
195.359	25.666	913.786	730.673
196.373	25.978	914.986	732.834
197.388	26.297	914.731	733.862
198.402	26.380	913.491	733.138
199.417	26.280	913.525	732.693
200.432	26.268	913.148	732.280
201.446	26.219	912.714	731.668
202.461	26.172	911.863	730.729
203.475	26.177	911.955	730.761
204.490	25.774	909.398	727.021
205.504	24.512	907.296	720.186
206.519	24.813	908.505	722.299
207.534	25.997	907.943	726.564
208.548	26.138	906.982	726.297
209.563	26.379	906.751	727.015
210.577	26.419	905.576	726.170
211.592	26.033	905.817	724.748
212.607	26.393	905.608	725.962
213.621	26.426	905.346	725.821
214.636	26.648	903.800	725.405
215.650	26.412	905.007	725.365
216.665	26.363	903.414	723.826
217.680	26.474	903.553	724.318
218.694	26.838	901.199	723.820
219.709	26.366	900.683	721.460
220.723	25.901	899.900	718.914
221.738	25.932	900.669	719.588
222.753	26.006	900.338	719.556
223.767	26.354	899.373	720.108
224.782	26.528	897.865	719.529
225.796	26.614	897.614	719.605
226.811	26.763	896.833	719.508
227.826	26.202	896.029	716.572
228.840	25.556	895.402	713.446
229.855	25.158	894.273	710.905
230.869	25.603	893.988	712.380
231.884	25.248	893.305	710.367
232.899	25.326	892.713	710.141
233.913	25.857	893.124	712.507
234.928	26.236	891.696	712.801
235.942	26.758	890.127	713.539
236.957	26.189	890.825	711.793
237.972	25.925	889.262	709.441
238.986	26.226	888.042	709.588
240.001	25.876	888.616	708.608
241.015	25.957	887.502	707.975
242.030	25.759	887.462	707.103
243.045	26.163	885.903	707.380
244.059	26.170	886.508	707.828
245.074	26.446	886.066	708.493
246.088	26.343	885.274	707.397
247.103	25.956	884.499	705.201
248.117	26.181	883.276	705.041
249.132	26.547	883.802	706.829
250.147	26.942	883.704	708.231
251.161	26.928	883.886	708.259
252.176	26.889	882.951	707.294
253.190	27.081	882.252	707.418
254.205	27.439	881.729	708.332
255.220	27.379	880.493	707.042
256.234	27.473	880.546	707.389
257.249	27.168	879.875	705.602
258.263	27.280	879.082	705.339
259.278	27.078	878.774	704.244
260.293	27.413	877.873	704.760
261.307	27.290	877.764	704.132
262.322	27.242	876.993	703.266
263.336	26.789	877.799	702.095
264.351	26.753	875.365	699.947
265.366	25.855	873.456	694.898
266.380	25.454	872.263	692.341
267.395	25.717	873.371	694.174
268.409	27.034	871.728	697.872
269.424	26.878	872.408	697.757
270.439	26.887	872.595	697.876
271.453	26.980	871.654	697.421
272.468	26.363	871.757	695.070
273.482	26.735	871.473	696.212
274.497	27.215	869.395	696.330
275.512	26.806	869.128	694.488
276.526	26.612	868.166	692.917
277.541	26.571	867.024	691.786
278.555	26.830	867.649	693.212
279.570	26.979	866.199	692.560
280.585	26.680	865.791	691.032
281.599	26.578	865.380	690.256
282.614	26.948	864.079	690.565
283.628	26.463	863.828	688.460
284.643	26.287	863.142	687.180
285.657	26.525	862.329	687.378
286.672	26.421	861.877	686.561
287.687	26.042	861.262	684.573
288.701	26.314	861.005	685.338
289.716	26.553	861.156	686.304
290.730	26.388	859.385	684.211
291.745	26.242	859.635	683.794
292.760	26.167	858.149	682.269
293.774	25.843	858.525	681.281
294.789	26.593	858.629	684.140
295.803	27.690	857.686	687.465
296.818	27.336	857.419	685.858
297.833	27.158	857.271	685.006
298.847	27.455	855.269	684.462
299.862	26.819	855.187	681.945
300.876	27.303	854.298	682.995
301.891	27.458	854.116	683.369
302.906	27.237	854.347	682.667
303.920	27.380	852.800	681.902
304.935	27.017	852.702	680.405
305.949	27.363	852.057	681.124
306.964	27.411	851.801	681.040
307.979	27.280	850.425	679.392
308.993	27.217	850.711	679.322
310.008	27.540	850.434	680.248
311.022	27.166	849.953	678.409
312.037	27.381	849.804	679.033
313.052	26.907	849.112	676.650
314.066	26.950	847.982	675.853
315.081	26.390	845.640	671.843
316.095	25.851	844.686	669.025
317.110	26.358	845.961	671.862
318.125	27.018	845.858	674.170
319.139	26.602	844.515	671.500
320.154	25.924	842.445	667.285
321.168	25.241	841.675	664.091
322.183	25.555	842.045	665.484
323.197	26.393	842.977	669.265
324.212	27.195	842.423	671.732
325.227	27.189	842.436	671.658
326.241	26.908	842.356	670.497
327.256	27.039	841.002	669.843
328.270	27.306	839.761	669.782
329.285	26.982	839.226	668.102
330.300	26.968	839.068	667.864
331.314	26.418	838.338	665.205
332.329	26.657	837.138	665.071
333.343	27.355	836.586	667.134
334.358	27.429	836.476	667.255
335.373	27.075	836.239	665.710
336.387	27.208	835.973	665.928
337.402	27.556	835.550	666.807
338.416	27.955	834.957	667.731
339.431	27.672	834.662	666.403
340.446	28.027	833.174	666.451
341.460	28.156	833.490	667.116
342.475	28.268	832.291	666.506
343.489	27.980	831.905	665.090
344.504	27.844	830.761	663.619
345.519	28.123	831.529	665.189
346.533	28.228	830.858	664.974
347.548	28.068	831.422	664.785
348.562	28.110	830.232	663.927
349.577	28.064	829.390	663.031
350.592	28.284	828.434	663.005
351.606	28.079	828.825	662.515
352.621	28.151	827.632	661.764
353.635	28.078	826.915	660.869
354.650	28.104	826.351	660.454
355.665	27.534	825.491	657.650
356.679	26.867	823.528	653.625
357.694	26.405	824.503	652.673
358.708	26.986	824.454	654.673
359.723	27.220	823.141	654.416
360.738	27.240	823.606	654.798
361.752	27.897	822.903	656.547
362.767	28.056	821.674	656.077
363.781	27.951	822.822	656.557
364.796	28.333	822.730	657.799
365.810	28.012	822.465	656.375
366.825	28.640	821.502	657.801
367.840	29.036	820.176	658.097
368.854	28.404	821.077	656.499
369.869	28.104	819.464	654.079
370.883	28.052	818.019	652.680
371.898	27.708	818.792	652.011
372.913	27.875	817.920	651.856
373.927	28.523	816.591	653.048
374.942	27.856	817.370	651.233
375.956	27.822	815.928	649.907
376.971	28.080	815.801	650.664
377.986	28.668	814.558	651.707
379.000	28.659	814.888	651.880
380.015	28.528	814.588	651.118
381.029	27.968	814.317	648.854
382.044	28.227	813.113	648.756
383.059	28.564	812.446	649.359
384.073	28.364	811.977	648.219
385.088	28.623	811.781	648.921
386.102	28.280	811.880	647.728
387.117	28.244	809.710	645.816
388.132	28.210	809.347	645.347
389.146	27.932	809.322	644.290
390.161	27.505	808.540	642.106
391.175	27.838	807.647	642.512
392.190	28.252	807.902	644.115
393.205	28.172	808.292	644.088
394.219	27.123	806.417	638.853
395.234	25.811	802.662	631.225
396.248	24.369	803.408	626.695
397.263	25.983	803.316	632.232
398.278	27.740	804.603	639.351
399.292	28.390	804.306	641.335
400.307	27.690	804.203	638.746
401.321	27.430	803.557	637.265
402.336	27.853	803.022	638.263
403.350	28.168	803.056	639.337
404.365	28.317	803.531	640.176
405.380	28.703	802.971	641.023
406.394	29.449	801.877	642.694
407.409	29.075	802.960	642.200
408.423	29.481	801.717	642.563
409.438	29.006	802.343	641.351
410.453	29.181	800.676	640.570
411.467	29.201	800.180	640.188
412.482	29.111	800.075	639.735
413.496	28.882	799.306	638.266
414.511	29.108	798.764	638.563
415.526	29.266	798.273	638.659
416.540	29.370	798.252	638.948
417.555	29.579	797.206	638.778
418.569	28.988	796.940	636.464
419.584	29.023	796.931	636.519
420.599	28.935	796.312	635.666
421.613	159.137	1369.131	1792.344
422.628	137.976	1452.658	1792.429
