DTS Sentinel unit serial number:	SN413079Multiplexer serial number:	ORYXHardware model number:	OX4-SRSoftware version number:	ORYX F/W v4.00 Oryx Data Collector v3.7.2.0data status	okinstallation	princeton_trtdifferential loss correction	single-endedforward channel	channel 3reverse channel	N/Adate	2019/09/15time	08:48:35forward acquisition time	60.00reverse acquisition time	0.00gamma	496.2192k internal	0.2316k external	0.2316temperature offset calibration	0.9974default loss term (dB/km)	0.3790temperature slope calibration	1.0000multiplexer offset coefficient	1.0000multiplexer slope coefficient	1.0000fibre end	0.00T internal ref (°C)	32.30T ext. ref 1 (°C)	4.98T ext. ref 2 (°C)	29.67length (m)	temperature (°C)	Stokes	anti-Stokes-747.200	-200.000	0.021	-0.292
-746.185	-153.386	0.176	-0.012
-745.171	96.731	-0.155	-0.180
-744.156	-11.836	-0.069	0.046
-743.142	298.445	0.078	0.146
-742.127	42.961	-0.164	0.152
-741.112	-198.759	0.549	0.003
-740.098	460.109	-0.081	-0.183
-739.083	-69.014	0.259	-0.101
-738.069	-97.429	-0.316	-0.083
-737.054	590.572	0.024	0.060
-736.039	30.590	0.080	-0.069
-735.025	-58.376	0.254	0.112
-734.010	-123.495	-0.122	-0.020
-732.996	800.000	0.102	-0.308
-731.981	-19.363	0.044	0.028
-730.966	-6.617	-0.076	0.052
-729.952	-200.000	0.082	0.000
-728.937	-22.801	-0.202	0.124
-727.923	-10.211	-0.240	-0.162
-726.908	-89.538	0.426	0.127
-725.894	800.000	0.099	-0.429
-724.879	-79.417	-0.329	-0.113
-723.864	-153.025	-0.059	-0.004
-722.850	108.872	0.006	0.008
-721.835	172.021	-0.226	-0.328
-720.821	32.242	0.132	-0.115
-719.806	-33.820	-0.397	0.222
-718.791	-155.434	-0.030	-0.002
-717.777	122.340	0.074	0.094
-716.762	38.813	-0.096	0.087
-715.748	-200.000	-0.006	-0.169
-714.733	-200.000	-0.015	-0.492
-713.718	-200.000	-0.043	-0.209
-712.704	800.000	0.064	0.284
-711.689	280.234	0.007	-0.013
-710.675	-81.104	0.114	-0.038
-709.660	769.153	0.182	-0.501
-708.645	406.718	-0.091	0.193
-707.631	-106.201	0.091	0.021
-706.616	-58.750	-0.314	-0.138
-705.602	-200.000	0.031	-0.158
-704.587	-200.000	-0.024	0.129
-703.572	-159.334	0.245	0.014
-702.558	-200.000	0.006	0.186
-701.543	-200.000	-0.022	0.139
-700.529	-200.000	0.014	-0.222
-699.514	118.318	0.350	-0.436
-698.499	-94.711	0.150	0.041
-697.485	-13.093	0.085	-0.056
-696.470	-112.198	0.251	-0.051
-695.456	-200.000	-0.065	-0.316
-694.441	-8.365	0.160	0.109
-693.426	352.057	-0.149	0.299
-692.412	-128.174	0.124	-0.018
-691.397	-94.968	0.282	-0.077
-690.383	53.564	0.037	-0.036
-689.368	-200.000	-0.015	-0.152
-688.354	-200.000	0.024	0.273
-687.339	219.215	0.193	0.312
-686.324	189.017	-0.174	-0.263
-685.310	-35.312	0.066	-0.036
-684.295	800.000	-0.065	0.274
-683.281	800.000	-0.033	-0.111
-682.266	-200.000	0.008	-0.304
-681.251	-91.319	0.113	-0.033
-680.237	21.786	-0.101	0.083
-679.222	38.432	0.222	-0.200
-678.208	-134.759	-0.242	-0.030
-677.193	-79.590	-0.214	-0.073
-676.178	164.315	0.187	-0.267
-675.164	32.012	0.148	0.129
-674.149	-129.979	0.220	-0.030
-673.135	-200.000	0.016	0.126
-672.120	-200.000	0.015	0.079
-671.105	94.019	0.141	-0.162
-670.091	-200.000	0.010	0.060
-669.076	-113.605	-0.285	0.056
-668.062	800.000	-0.038	0.161
-667.047	-42.063	-0.277	0.143
-666.032	800.000	0.115	-0.387
-665.018	-14.258	0.230	0.150
-664.003	-85.025	-0.261	0.082
-662.989	159.755	-0.078	-0.110
-661.974	67.446	-0.203	-0.209
-660.959	649.324	-0.068	0.176
-659.945	109.836	0.080	0.096
-658.930	447.625	0.090	-0.200
-657.916	-149.304	-0.210	0.017
-656.901	97.092	-0.083	-0.096
-655.886	387.810	0.094	0.196
-654.872	-200.000	0.022	0.212
-653.857	144.785	0.028	0.037
-652.843	58.695	0.193	0.191
-651.828	-191.623	0.086	0.001
-650.814	12.011	0.125	-0.097
-649.799	31.398	0.161	0.140
-648.784	-146.011	-0.059	0.005
-647.770	-3.805	0.248	-0.174
-646.755	363.797	-0.149	0.303
-645.741	299.577	0.153	0.284
-644.726	321.244	-0.071	0.136
-643.711	199.262	-0.082	0.127
-642.697	-97.945	-0.254	-0.066
-641.682	247.281	0.084	0.144
-640.668	49.796	0.185	-0.176
-639.653	800.000	0.069	0.210
-638.638	-67.113	-0.192	-0.076
-637.624	20.338	0.024	-0.020
-636.609	308.638	-0.003	-0.005
-635.595	195.583	0.126	0.194
-634.580	-47.139	0.098	-0.048
-633.565	-155.288	-0.181	-0.012
-632.551	800.000	-0.050	-0.167
-631.536	250.921	-0.052	-0.089
-630.522	-200.000	0.013	-0.194
-629.507	-44.724	0.128	-0.064
-628.492	383.890	0.203	-0.421
-627.478	20.369	0.141	-0.115
-626.463	319.704	-0.099	0.189
-625.449	-84.012	0.400	-0.128
-624.434	142.700	-0.208	-0.279
-623.419	800.000	0.031	0.101
-622.405	-82.404	0.139	0.045
-621.390	-82.354	-0.340	0.111
-620.376	-200.000	-0.037	-0.356
-619.361	-143.286	0.223	-0.022
-618.346	-200.000	-0.049	0.226
-617.332	100.446	-0.112	-0.131
-616.317	-57.247	0.086	0.038
-615.303	-99.878	0.088	0.022
-614.288	-141.632	0.317	0.032
-613.273	56.928	0.196	0.193
-612.259	482.692	0.064	0.148
-611.244	-98.046	0.119	0.031
-610.230	163.486	-0.200	-0.284
-609.215	249.659	0.111	0.190
-608.201	-106.229	-0.390	0.088
-607.186	49.982	-0.203	0.193
-606.171	127.206	-0.081	0.104
-605.157	628.814	-0.059	0.150
-604.142	74.408	-0.271	-0.286
-603.128	390.827	0.039	-0.082
-602.113	-200.000	-0.029	-0.228
-601.098	-52.738	-0.362	-0.168
-600.084	34.076	0.101	0.088
-599.069	12.923	-0.272	-0.212
-598.055	11.710	-0.245	0.189
-597.040	542.748	-0.027	0.066
-596.025	800.000	0.070	0.252
-595.011	-153.243	0.102	-0.007
-593.996	60.535	0.176	0.175
-592.982	-42.066	-0.199	-0.102
-591.967	338.859	-0.119	-0.233
-590.952	722.922	0.064	-0.172
-589.938	575.069	0.080	0.196
-588.923	-51.958	-0.234	0.109
-587.909	356.764	-0.155	-0.312
-586.894	-200.000	-0.018	0.178
-585.879	-83.317	0.088	-0.029
-584.865	-112.368	0.128	-0.026
-583.850	-168.101	0.240	-0.009
-582.836	-81.735	0.063	-0.021
-581.821	132.907	0.161	-0.209
-580.806	-177.492	-0.017	0.000
-579.792	343.711	0.163	-0.322
-578.777	-200.000	-0.046	-0.229
-577.763	71.223	-0.119	0.125
-576.748	-200.000	-0.025	0.293
-575.733	-200.000	0.042	0.188
-574.719	-115.930	-0.209	0.039
-573.704	-142.504	0.103	0.010
-572.690	96.725	0.129	-0.149
-571.675	-12.298	0.235	0.154
-570.661	-82.899	0.415	-0.135
-569.646	800.000	0.049	0.212
-568.631	-152.060	-0.377	0.028
-567.617	720.653	-0.057	-0.153
-566.602	-44.693	-0.210	0.105
-565.588	281.840	-0.054	-0.098
-564.573	226.020	-0.156	0.254
-563.558	621.143	-0.092	0.233
-562.544	779.035	-0.035	-0.096
-561.529	207.615	0.191	0.300
-560.515	139.138	-0.159	-0.210
-559.500	301.374	-0.192	-0.357
-558.485	751.604	-0.064	0.174
-557.471	564.763	0.132	0.323
-556.456	-200.000	0.030	0.238
-555.442	43.631	0.247	-0.227
-554.427	-116.981	0.179	0.033
-553.412	800.000	0.095	-0.271
-552.398	800.000	0.064	-0.250
-551.383	800.000	0.145	-0.437
-550.369	-60.802	0.282	-0.120
-549.354	231.679	-0.135	-0.222
-548.339	-22.849	0.113	0.068
-547.325	800.000	0.067	-0.193
-546.310	-151.425	-0.274	-0.020
-545.296	100.613	-0.094	0.110
-544.281	150.817	0.048	-0.066
-543.266	-0.812	0.054	0.038
-542.252	261.847	-0.043	-0.076
-541.237	-200.000	0.025	-0.340
-540.223	-93.823	-0.210	-0.058
-539.208	-63.902	0.172	-0.071
-538.193	-91.404	0.204	-0.059
-537.179	-72.991	-0.180	-0.067
-536.164	99.832	-0.012	-0.014
-535.150	-73.835	-0.189	0.069
-534.135	-73.218	-0.395	-0.145
-533.121	-171.037	0.072	0.002
-532.106	-200.000	-0.023	0.238
-531.091	15.634	-0.070	-0.056
-530.077	-42.877	0.246	-0.125
-529.062	-77.914	0.206	0.071
-528.048	-164.549	0.417	-0.019
-527.033	-77.957	0.052	-0.018
-526.018	4.486	0.425	-0.313
-525.004	-74.691	0.279	-0.101
-523.989	-1.143	0.143	0.102
-522.975	-38.546	-0.199	-0.106
-521.960	187.894	0.098	0.147
-520.945	4.712	0.150	0.111
-519.931	-145.098	-0.473	-0.043
-518.916	356.346	0.203	0.407
-517.902	456.812	-0.018	0.039
-516.887	113.603	-0.229	0.280
-515.872	650.517	-0.048	-0.123
-514.858	-200.000	-0.023	-0.213
-513.843	154.858	0.024	-0.034
-512.829	-200.000	0.022	-0.207
-511.814	-85.590	-0.151	0.047
-510.799	314.546	-0.054	-0.103
-509.785	1.366	-0.136	0.098
-508.770	161.304	0.133	-0.187
-507.756	-14.291	0.093	-0.060
-506.741	571.532	-0.080	-0.195
-505.726	-200.000	0.012	-0.077
-504.712	126.828	-0.112	-0.142
-503.697	-87.019	-0.322	0.098
-502.683	-179.744	0.428	0.009
-501.668	-83.015	-0.232	-0.075
-500.653	130.543	-0.146	0.188
-499.639	-113.184	-0.431	0.085
-498.624	800.000	-0.087	-0.258
-497.610	-183.376	-0.151	0.003
-496.595	-96.184	0.110	-0.029
-495.581	-200.000	-0.007	-0.100
-494.566	-200.000	-0.035	-0.169
-493.551	10.968	0.183	-0.140
-492.537	-43.695	-0.105	0.053
-491.522	-47.927	0.132	0.064
-490.508	-36.176	-0.105	0.057
-489.493	-200.000	-0.019	-0.368
-488.478	-71.747	0.381	0.142
-487.464	-200.000	0.004	0.229
-486.449	482.012	-0.080	0.183
-485.435	-100.490	-0.220	0.055
-484.420	24.011	-0.172	-0.142
-483.405	-177.218	-0.245	-0.006
-482.391	-200.000	0.013	0.081
-481.376	254.902	-0.053	0.091
-480.362	86.744	-0.081	-0.090
-479.347	77.531	-0.205	-0.219
-478.332	-1.270	-0.171	-0.121
-477.318	89.150	-0.082	0.092
-476.303	130.327	-0.090	-0.115
-475.289	141.630	0.063	0.083
-474.274	-74.783	-0.030	-0.011
-473.259	-200.000	-0.011	-0.074
-472.245	570.227	0.089	0.218
-471.230	-80.441	-0.141	0.047
-470.216	527.968	0.055	0.130
-469.201	-76.926	-0.165	0.058
-468.186	-200.000	0.028	0.326
-467.172	-200.000	-0.280	0.000
-466.157	-132.129	-0.167	0.022
-465.143	547.462	-0.128	-0.308
-464.128	-58.335	0.265	-0.116
-463.113	276.844	-0.026	0.047
-462.099	289.885	-0.100	0.183
-461.084	800.000	-0.019	0.053
-460.070	-109.308	-0.245	-0.052
-459.055	116.675	-0.221	-0.271
-458.040	-200.000	0.003	-0.085
-457.026	58.761	-0.170	-0.167
-456.011	-85.302	-0.066	0.021
-454.997	-23.682	0.068	-0.041
-453.982	-31.993	-0.063	0.036
-452.968	1.417	-0.084	0.060
-451.953	-23.955	0.227	0.136
-450.938	2.633	-0.280	0.203
-449.924	-15.141	-0.118	0.076
-448.909	-55.351	-0.264	-0.119
-447.895	-200.000	0.007	0.263
-446.880	-11.693	0.449	0.295
-445.865	-119.986	0.366	0.063
-444.851	-200.000	-0.018	0.113
-443.836	-200.000	-0.042	0.374
-442.822	16.487	0.137	0.108
-441.807	-36.814	-0.049	0.026
-440.792	234.454	-0.123	0.203
-439.778	-141.619	0.173	0.017
-438.763	165.154	-0.090	-0.127
-437.749	-200.000	0.001	-0.259
-436.734	1.657	-0.118	0.085
-435.719	12.756	0.350	0.271
-434.705	-200.000	0.033	0.164
-433.690	287.573	0.128	-0.231
-432.676	47.492	0.150	0.140
-431.661	277.828	0.066	-0.117
-430.646	-200.000	-0.003	0.179
-429.632	800.000	-0.021	-0.081
-428.617	800.000	-0.044	-0.161
-427.603	-62.389	-0.398	-0.166
-426.588	310.543	-0.288	-0.539
-425.573	244.838	0.027	0.045
-424.559	20.525	0.224	-0.181
-423.544	-200.000	0.026	0.186
-422.530	99.432	0.045	-0.052
-421.515	-98.551	-0.060	0.015
-420.500	-53.156	-0.350	-0.161
-419.486	-44.901	0.216	-0.108
-418.471	-200.000	-0.004	-0.178
-417.457	800.000	-0.109	-0.418
-416.442	-152.934	-0.292	0.021
-415.428	-153.440	0.159	-0.011
-414.413	5.688	0.409	-0.302
-413.398	33.733	-0.302	0.263
-412.384	-200.000	-0.024	-0.165
-411.369	-163.871	-0.180	0.008
-410.355	-188.693	0.540	0.007
-409.340	410.326	-0.109	0.231
-408.325	-200.000	0.013	0.223
-407.311	-38.657	0.145	-0.076
-406.296	-200.000	-0.006	0.036
-405.282	800.000	0.064	0.182
-404.267	584.332	0.114	0.280
-403.252	-200.000	0.021	0.138
-402.238	800.000	-0.051	0.209
-401.223	-200.000	-0.045	0.286
-400.209	-127.350	0.297	0.043
-399.194	588.267	0.165	-0.405
-398.179	800.000	0.068	0.193
-397.165	-200.000	-0.011	-0.110
-396.150	140.143	0.154	-0.203
-395.136	14.671	0.212	0.165
-394.121	-132.349	0.178	-0.023
-393.106	123.552	0.085	-0.106
-392.092	-1.392	-0.065	-0.046
-391.077	18.122	0.094	0.075
-390.063	-26.762	-0.137	0.080
-389.048	95.403	-0.153	-0.174
-388.033	-43.092	0.176	0.089
-387.019	-148.019	-0.130	-0.011
-386.004	-200.000	0.001	0.272
-384.990	223.073	0.114	-0.184
-383.975	-54.684	0.182	-0.082
-382.960	800.000	0.099	0.278
-381.946	52.436	0.277	-0.264
-380.931	800.000	-0.062	0.264
-379.917	31.692	-0.100	0.086
-378.902	800.000	0.101	0.391
-377.888	196.386	0.024	0.036
-376.873	151.803	-0.099	-0.134
-375.858	482.461	-0.087	-0.197
-374.844	-200.000	0.051	-0.335
-373.829	-33.352	-0.308	0.170
-372.815	2.479	-0.211	0.153
-371.800	120.324	-0.195	-0.242
-370.785	138.489	0.121	-0.158
-369.771	10.975	0.250	-0.190
-368.756	64.697	0.191	0.193
-367.742	299.508	0.194	0.356
-366.727	-77.320	-0.369	-0.128
-365.712	-98.272	-0.033	-0.008
-364.698	219.169	-0.087	0.138
-363.683	-118.534	-0.143	0.025
-362.669	-105.795	0.182	0.041
-361.654	800.000	0.088	-0.335
-360.639	-200.000	0.044	0.254
-359.625	-84.977	0.276	-0.087
-358.610	-120.346	-0.180	0.031
-357.596	-61.545	-0.085	0.036
-356.581	206.418	-0.075	0.117
-355.566	-200.000	-0.005	-0.030
-354.552	-163.728	-0.514	-0.024
-353.537	47.849	0.256	0.238
-352.523	-141.251	-0.356	-0.036
-351.508	800.000	-0.098	-0.401
-350.493	800.000	-0.032	0.123
-349.479	-92.655	-0.223	-0.062
-348.464	-200.000	0.011	-0.208
-347.450	234.024	0.130	-0.213
-346.435	118.211	0.046	0.057
-345.420	220.533	-0.115	-0.184
-344.406	610.508	0.088	0.219
-343.391	-170.644	0.237	-0.008
-342.377	800.000	-0.037	-0.122
-341.362	270.919	0.168	0.295
-340.348	-25.929	-0.169	0.099
-339.333	-121.461	-0.509	0.084
-338.318	-200.000	-0.000	0.014
-337.304	-26.652	-0.133	-0.078
-336.289	-200.000	-0.091	0.422
-335.275	800.000	-0.014	-0.057
-334.260	-149.624	-0.344	0.027
-333.245	620.396	0.116	-0.291
-332.231	12.344	-0.112	0.086
-331.216	117.407	0.158	0.193
-330.202	-81.996	0.214	0.070
-329.187	288.865	0.090	0.162
-328.172	-26.174	-0.279	-0.163
-327.158	55.069	-0.269	0.259
-326.143	-60.292	0.074	-0.032
-325.129	-200.000	0.012	-0.107
-324.114	-15.582	0.233	-0.148
-323.099	84.714	0.144	-0.157
-322.085	800.000	-0.047	-0.130
-321.070	290.548	-0.101	-0.183
-320.056	73.430	0.113	-0.118
-319.041	92.052	0.294	0.330
-318.026	119.431	0.111	0.137
-317.012	-200.000	-0.008	0.162
-315.997	-4.168	0.207	-0.143
-314.983	101.695	0.122	0.142
-313.968	32.100	-0.199	0.171
-312.953	-139.149	-0.166	-0.018
-311.939	-138.685	0.111	-0.012
-310.924	-168.402	0.368	0.014
-309.910	-200.000	0.070	0.390
-308.895	341.366	-0.185	-0.361
-307.880	-200.000	0.033	0.210
-306.866	47.004	0.082	0.076
-305.851	800.000	-0.050	-0.165
-304.837	102.612	0.192	0.224
-303.822	44.949	0.088	0.080
-302.807	-69.075	0.245	-0.094
-301.793	-200.000	-0.004	-0.162
-300.778	800.000	-0.178	0.640
-299.764	-82.825	0.365	-0.117
-298.749	535.952	-0.062	-0.147
-297.735	282.300	0.017	0.031
-296.720	499.903	-0.088	0.203
-295.705	-87.549	0.338	-0.102
-294.691	242.622	-0.174	0.290
-293.676	118.227	0.036	0.045
-292.662	800.000	0.052	0.194
-291.647	311.845	0.158	0.295
-290.632	355.073	-0.110	-0.218
-289.618	-200.000	0.066	-0.341
-288.603	735.511	0.101	0.269
-287.589	-200.000	-0.015	0.102
-286.574	-86.011	0.196	0.060
-285.559	-44.879	-0.129	0.064
-284.545	-52.420	0.148	-0.068
-283.530	-32.978	0.165	0.091
-282.516	-37.844	-0.377	-0.200
-281.501	800.000	0.058	-0.172
-280.486	102.455	0.140	0.163
-279.472	447.004	0.079	-0.173
-278.457	-117.656	-0.309	-0.055
-277.443	-200.000	-0.019	-0.229
-276.428	12.535	-0.153	0.118
-275.413	-51.272	0.189	-0.088
-274.399	32.400	0.265	0.227
-273.384	-200.000	-0.016	-0.365
-272.370	203.150	-0.015	-0.022
-271.355	76.174	-0.068	-0.072
-270.340	254.334	0.024	0.040
-269.326	-38.251	0.310	-0.163
-268.311	40.925	-0.085	0.076
-267.297	-200.000	0.052	0.306
-266.282	235.438	0.032	0.052
-265.267	-39.284	-0.151	-0.079
-264.253	800.000	0.041	-0.120
-263.238	-200.000	-0.045	-0.233
-262.224	-137.944	-0.307	0.034
-261.209	584.492	-0.029	-0.070
-260.195	800.000	0.119	-0.346
-259.180	-112.571	-0.253	-0.050
-258.165	-7.246	-0.082	0.055
-257.151	-200.000	-0.031	-0.144
-256.136	449.129	0.067	0.146
-255.122	800.000	-0.042	-0.151
-254.107	800.000	0.119	-0.358
-253.092	-72.771	0.107	-0.039
-252.078	-147.038	0.244	0.021
-251.063	-200.000	-0.027	0.175
-250.049	-102.143	-0.058	0.014
-249.034	800.000	-0.067	-0.219
-248.019	-96.837	-0.238	0.062
-247.005	160.283	-0.129	-0.179
-245.990	-11.230	0.097	-0.064
-244.976	68.679	-0.117	0.120
-243.961	118.590	0.235	0.288
-242.946	-49.802	0.158	-0.074
-241.932	-82.723	0.228	0.073
-240.917	88.470	-0.168	-0.185
-239.903	-200.000	0.029	-0.336
-238.888	53.533	0.227	-0.216
-237.873	-49.035	-0.514	0.244
-236.859	73.162	0.061	0.064
-235.844	-75.046	-0.193	0.069
-234.830	228.533	0.085	-0.137
-233.815	-81.073	-0.389	-0.128
-232.800	193.677	-0.054	-0.082
-231.786	-140.093	0.112	0.012
-230.771	79.387	0.312	0.332
-229.757	391.071	-0.165	-0.339
-228.742	800.000	0.099	-0.339
-227.727	-71.762	-0.165	0.061
-226.713	36.123	0.155	0.135
-225.698	800.000	-0.116	0.347
-224.684	-41.376	0.089	0.045
-223.669	-200.000	0.031	-0.172
-222.655	800.000	0.008	-0.032
-221.640	-145.882	0.335	-0.030
-220.625	63.974	-0.193	0.192
-219.611	-158.883	0.384	-0.022
-218.596	800.000	-0.077	-0.258
-217.582	-200.000	0.013	-0.105
-216.567	231.258	0.067	0.109
-215.552	268.044	0.127	0.221
-214.538	43.820	-0.184	0.168
-213.523	249.724	-0.079	0.132
-212.509	204.888	-0.056	-0.087
-211.494	-200.000	-0.036	-0.221
-210.479	313.079	-0.088	0.163
-209.465	-160.862	0.391	0.020
-208.450	-61.718	0.015	-0.006
-207.436	800.000	0.072	-0.283
-206.421	-170.940	0.151	-0.005
-205.406	-200.000	0.003	0.127
-204.392	800.000	0.021	0.072
-203.377	-102.424	-0.200	0.047
-202.363	-29.037	-0.110	-0.063
-201.348	478.660	-0.119	0.267
-200.333	-139.216	0.292	0.031
-199.319	-24.504	0.138	0.081
-198.304	-57.129	-0.211	-0.092
-197.290	-200.000	0.104	0.480
-196.275	-168.719	-0.294	-0.011
-195.260	-117.754	0.077	0.014
-194.246	-200.000	0.003	-0.181
-193.231	-22.552	0.157	0.094
-192.217	-127.108	-0.206	0.030
-191.202	-167.134	0.294	0.012
-190.187	37.016	0.143	0.125
-189.173	3.916	0.128	-0.093
-188.158	-20.354	0.117	-0.071
-187.144	465.870	0.128	-0.284
-186.129	191.354	-0.168	-0.251
-185.114	-120.714	0.188	0.032
-184.100	-200.000	-0.038	0.261
-183.085	51.775	0.066	-0.062
-182.071	-84.347	0.210	-0.066
-181.056	-56.250	0.551	0.243
-180.042	-46.208	-0.211	-0.103
-179.027	284.699	-0.153	-0.272
-178.012	237.580	0.205	0.337
-176.998	460.487	-0.042	-0.092
-175.983	-156.943	-0.316	-0.019
-174.969	-200.000	-0.011	-0.229
-173.954	-200.000	0.017	0.552
-172.939	800.000	-0.042	0.136
-171.925	800.000	-0.075	0.260
-170.910	-200.000	-0.068	-0.453
-169.896	-2.784	-0.042	0.029
-168.881	-37.676	0.282	-0.149
-167.866	-127.968	-0.052	0.007
-166.852	84.835	-0.139	0.151
-165.837	213.187	0.238	0.373
-164.823	-191.187	-0.303	0.003
-163.808	800.000	0.115	0.346
-162.793	151.529	-0.234	-0.315
-161.779	-60.657	0.050	0.021
-160.764	-141.553	0.102	0.010
-159.750	130.384	-0.248	0.314
-158.735	800.000	-0.029	-0.106
-157.720	-62.291	-0.502	0.207
-156.706	469.309	-0.091	0.203
-155.691	-45.843	0.170	0.083
-154.677	-8.076	-0.311	-0.208
-153.662	66.424	-0.331	-0.333
-152.647	-19.816	0.222	-0.136
-151.633	323.301	0.084	0.159
-150.618	-42.424	-0.098	0.049
-149.604	-200.000	0.013	0.306
-148.589	-109.763	0.197	-0.041
-147.574	91.624	0.238	0.265
-146.560	144.888	-0.100	0.132
-145.545	-44.222	-0.181	0.090
-144.531	-46.082	0.138	-0.067
-143.516	3.262	-0.135	-0.097
-142.502	198.365	0.225	0.341
-141.487	-154.393	-0.166	0.011
-140.472	90.059	-0.082	0.091
-139.458	249.995	0.097	-0.163
-138.443	-34.819	0.072	0.039
-137.429	37.743	0.222	-0.195
-136.414	-144.139	0.320	0.030
-135.399	800.000	-0.041	-0.144
-134.385	432.040	0.104	-0.223
-133.370	-4.028	0.293	0.201
-132.356	800.000	-0.075	-0.256
-131.341	-65.596	-0.094	-0.037
-130.326	-38.770	0.567	0.296
-129.312	-91.642	0.061	-0.017
-128.297	800.000	0.076	-0.225
-127.283	-110.255	-0.092	0.019
-126.268	-200.000	0.007	0.114
-125.253	460.480	0.171	-0.377
-124.239	-200.000	-0.017	-0.185
-123.224	-176.068	-0.076	-0.002
-122.210	-200.000	0.025	0.112
-121.195	-148.635	-0.104	0.008
-120.180	-129.514	-0.096	-0.013
-119.166	-147.786	0.222	0.018
-118.151	-200.000	-0.002	0.152
-117.137	-200.000	-0.023	-0.134
-116.122	800.000	0.064	0.271
-115.107	-123.533	-0.265	-0.042
-114.093	800.000	0.021	-0.084
-113.078	-154.478	-0.461	0.030
-112.064	16.307	0.258	-0.201
-111.049	-20.865	0.050	0.030
-110.034	-200.000	0.018	-0.161
-109.020	13.531	0.272	-0.209
-108.005	-75.798	0.326	0.114
-106.991	-118.654	-0.224	0.039
-105.976	155.340	-0.280	0.380
-104.962	532.507	-0.075	-0.176
-103.947	-200.000	0.014	0.204
-102.932	-200.000	-0.010	-0.050
-101.918	-152.840	-0.139	0.010
-100.903	800.000	-0.072	-0.202
-99.889	242.052	0.137	0.226
-98.874	278.978	0.146	0.258
-97.859	-200.000	-0.012	0.339
-96.845	316.824	0.049	0.091
-95.830	13.341	-0.230	-0.176
-94.816	74.860	0.070	0.073
-93.801	-56.724	0.141	0.062
-92.786	782.114	-0.070	-0.189
-91.772	-54.590	-0.329	0.147
-90.757	571.991	0.054	0.130
-89.743	-15.247	0.131	-0.083
-88.728	-155.380	0.078	-0.005
-87.713	-80.153	-0.071	-0.024
-86.699	622.651	-0.138	0.344
-85.684	88.771	0.075	-0.082
-84.670	87.706	-0.213	-0.233
-83.655	268.448	0.137	0.237
-82.640	800.000	0.078	0.323
-81.626	53.693	-0.170	-0.161
-80.611	-5.830	0.105	0.071
-79.597	-112.656	-0.333	0.065
-78.582	-99.115	0.107	0.027
-77.567	800.000	0.048	-0.154
-76.553	54.467	-0.319	-0.303
-75.538	110.053	0.157	0.186
-74.524	221.709	0.078	-0.124
-73.509	-93.130	-0.366	0.101
-72.494	-127.519	-0.110	-0.016
-71.480	298.714	0.130	0.237
-70.465	558.530	0.076	-0.181
-69.451	-57.833	-0.369	-0.159
-68.436	-3.340	-0.078	0.053
-67.422	-80.181	-0.259	-0.086
-66.407	-92.069	0.180	-0.050
-65.392	-42.390	-0.319	-0.161
-64.378	360.548	0.041	-0.082
-63.363	60.064	0.167	-0.163
-62.349	-200.000	0.039	-0.278
-61.334	-16.984	-0.751	-0.468
-60.319	-107.528	0.384	0.083
-59.305	-200.000	-0.085	-0.908
-58.290	208.766	0.512	0.789
-57.276	228.905	0.857	1.378
-56.261	-200.000	97.573	592.364
-55.246	635.499	1410.828	3530.344
-54.232	189.980	2595.090	3839.949
-53.217	119.307	2187.844	2669.183
-52.203	43.044	1723.192	1549.654
-51.188	35.485	1535.030	1328.337
-50.173	33.033	1507.933	1288.144
-49.159	53.248	1556.272	1469.747
-48.144	54.664	1574.042	1496.268
-47.130	35.763	1533.463	1328.694
-46.115	32.642	1518.936	1294.651
-45.100	32.517	1514.928	1290.329
-44.086	32.300	1514.374	1288.320
-43.071	32.369	1511.774	1286.526
-42.057	32.389	1509.787	1284.924
-41.042	32.355	1508.833	1283.830
-40.027	32.285	1507.791	1282.413
-39.013	32.250	1506.414	1280.953
-37.998	32.286	1504.678	1279.672
-36.984	32.380	1503.245	1279.040
-35.969	32.297	1502.454	1277.753
-34.954	32.311	1500.675	1276.283
-33.940	32.360	1499.521	1275.584
-32.925	32.328	1498.476	1274.428
-31.911	32.347	1496.703	1272.995
-30.896	32.425	1495.137	1272.141
-29.881	32.373	1494.242	1270.982
-28.867	32.388	1492.164	1269.263
-27.852	32.305	1490.758	1267.457
-26.838	32.355	1489.301	1266.503
-25.823	32.372	1487.533	1265.067
-24.809	32.247	1486.317	1263.141
-23.794	32.275	1485.346	1262.457
-22.779	32.309	1483.647	1261.187
-21.765	32.336	1482.552	1260.386
-20.750	32.358	1481.363	1259.473
-19.736	32.404	1480.130	1258.681
-18.721	32.334	1479.539	1257.662
-17.706	32.356	1478.403	1256.796
-16.692	32.289	1477.402	1255.444
-15.677	32.196	1476.270	1253.813
-14.663	32.191	1475.515	1253.089
-13.648	32.251	1474.190	1252.317
-12.633	32.294	1473.055	1251.584
-11.619	32.204	1472.552	1250.510
-10.604	32.349	1471.094	1250.184
-9.590	32.222	1470.563	1248.840
-8.575	32.249	1470.132	1248.609
-7.560	32.261	1468.488	1247.239
-6.546	32.224	1467.851	1246.406
-5.531	32.199	1467.126	1245.570
-4.517	32.203	1465.895	1244.506
-3.502	32.241	1465.128	1244.052
-2.487	32.267	1463.534	1242.823
-1.473	32.226	1462.740	1241.832
-0.458	32.204	1461.652	1240.714
0.556	31.208	1452.725	1231.654
1.571	28.833	1427.721	1194.926
2.586	25.950	1367.782	1126.672
3.600	24.362	1287.071	1050.748
4.615	22.934	1240.625	1004.630
5.629	19.820	1184.580	942.223
6.644	12.122	1099.707	835.565
7.659	6.107	1058.884	774.890
8.673	5.152	1053.523	766.214
9.688	4.999	1050.647	763.304
10.702	4.816	1049.160	761.261
11.717	4.944	1047.064	760.296
12.731	7.518	1049.773	774.775
13.746	14.825	1060.472	818.508
14.761	19.380	1065.178	844.420
15.775	18.552	1063.413	838.899
16.790	17.422	1060.698	831.169
17.804	16.376	1058.345	824.148
18.819	15.513	1056.756	818.632
19.834	15.058	1055.376	815.278
20.848	14.865	1053.866	813.100
21.863	14.413	1053.848	810.814
22.877	14.310	1053.064	809.640
23.892	14.047	1052.334	807.729
24.907	13.883	1051.530	806.241
25.921	14.113	1050.249	806.305
26.936	14.059	1049.211	805.177
27.950	14.050	1048.595	804.590
28.965	14.239	1047.391	804.508
29.980	14.335	1046.276	804.040
30.994	14.241	1045.309	802.776
32.009	14.347	1044.354	802.483
33.023	14.296	1044.012	801.901
34.038	14.280	1043.043	801.011
35.053	14.224	1041.856	799.756
36.067	14.257	1040.906	799.117
37.082	14.112	1040.249	797.845
38.096	14.125	1039.519	797.279
39.111	14.174	1038.945	797.003
40.126	14.251	1038.030	796.597
41.140	14.095	1036.946	794.951
42.155	14.027	1035.694	793.597
43.169	13.996	1034.870	792.745
44.184	14.022	1033.515	791.763
45.199	13.844	1032.872	790.352
46.213	13.959	1031.703	789.931
47.228	13.899	1030.892	788.956
48.242	14.144	1029.975	789.348
49.257	14.154	1028.867	788.479
50.271	14.091	1027.767	787.266
51.286	14.110	1026.719	786.483
52.301	14.173	1026.342	786.424
53.315	14.084	1025.428	785.233
54.330	14.111	1024.582	784.644
55.344	14.066	1023.737	783.714
56.359	13.987	1022.810	782.562
57.374	14.016	1022.077	782.067
58.388	13.941	1021.107	780.906
59.403	13.961	1020.110	780.167
60.417	13.941	1019.411	779.469
61.432	14.005	1018.701	779.161
62.447	13.866	1017.861	777.796
63.461	13.746	1017.645	776.998
64.476	13.691	1016.386	775.713
65.490	13.715	1015.245	774.884
66.505	13.888	1014.387	774.968
67.520	13.865	1014.016	774.509
68.534	13.838	1012.756	773.355
69.549	13.880	1012.174	773.036
70.563	13.865	1011.460	772.352
71.578	13.957	1010.310	771.835
72.593	13.881	1009.450	770.757
73.607	13.812	1008.396	769.561
74.622	13.686	1007.830	768.481
75.636	13.695	1006.483	767.427
76.651	13.783	1005.928	767.342
77.666	13.824	1004.976	766.736
78.680	13.840	1004.755	766.573
79.695	13.846	1003.799	765.807
80.709	13.803	1003.269	765.132
81.724	13.802	1002.885	764.770
82.739	13.889	1001.755	764.242
83.753	13.956	1001.045	763.940
84.768	14.014	1000.222	763.512
85.782	14.235	999.434	763.855
86.797	14.284	999.078	763.742
87.812	14.344	997.888	763.037
88.826	14.104	997.399	761.497
89.841	14.085	996.483	760.644
90.855	14.088	995.412	759.771
91.870	14.176	994.852	759.678
92.884	14.114	994.318	758.920
93.899	14.113	993.616	758.312
94.914	14.232	992.761	758.136
95.928	14.213	991.964	757.373
96.943	14.364	991.207	757.418
97.957	14.288	990.486	756.455
98.972	14.160	989.443	755.010
99.987	14.232	988.673	754.680
101.001	14.252	988.510	754.581
102.016	14.356	986.953	753.795
103.030	14.208	986.249	752.523
104.045	14.259	985.026	751.754
105.060	14.171	984.245	750.692
106.074	14.226	983.213	750.088
107.089	14.168	982.232	749.011
108.103	13.880	981.287	746.927
109.118	13.746	980.761	745.860
110.133	13.931	980.019	746.061
111.147	13.951	978.830	745.181
112.162	13.823	978.203	744.061
113.176	13.990	977.111	743.913
114.191	13.990	976.157	743.120
115.206	14.065	975.400	742.816
116.220	14.057	974.605	742.109
117.235	14.110	973.666	741.562
118.249	13.937	973.111	740.304
119.264	13.974	972.374	739.844
120.279	13.979	971.364	739.033
121.293	13.849	970.521	737.746
122.308	13.871	970.103	737.460
123.322	13.931	968.648	736.554
124.337	13.939	967.767	735.856
125.352	13.854	966.975	734.811
126.366	13.811	965.918	733.756
127.381	13.864	964.658	732.967
128.395	13.908	963.124	731.929
129.410	13.954	962.386	731.509
130.424	13.845	961.909	730.599
131.439	13.904	960.893	730.023
132.454	13.873	960.160	729.265
133.468	13.887	959.554	728.801
134.483	14.004	958.738	728.630
135.497	13.926	958.359	727.937
136.512	13.846	957.718	727.036
137.527	14.056	956.778	727.177
138.541	14.050	955.648	726.228
139.556	14.129	955.067	726.067
140.570	14.062	954.216	725.062
141.585	14.224	953.319	725.023
142.600	14.192	952.978	724.558
143.614	14.212	952.388	724.133
144.629	14.256	951.619	723.678
145.643	14.175	951.356	723.062
146.658	14.281	950.101	722.504
147.673	14.293	948.735	721.453
148.687	14.061	948.406	720.133
149.702	14.170	947.480	719.840
150.716	14.230	946.021	718.926
151.731	14.067	945.632	717.860
152.746	14.118	944.776	717.370
153.760	14.106	944.126	716.760
154.775	14.143	943.597	716.453
155.789	14.070	943.076	715.682
156.804	14.133	942.179	715.207
157.819	14.210	941.529	714.981
158.833	14.297	940.416	714.449
159.848	14.354	940.069	714.366
160.862	14.301	939.672	713.773
161.877	14.304	938.646	712.941
162.892	14.228	937.798	711.909
163.906	14.073	937.102	710.658
164.921	14.196	936.204	710.440
165.935	14.131	935.375	709.470
166.950	14.143	934.504	708.795
167.964	14.333	933.457	708.750
168.979	14.408	932.356	708.168
169.994	14.202	931.442	706.536
171.008	14.319	930.157	705.994
172.023	14.332	930.224	706.040
173.037	14.376	928.980	705.218
174.052	14.444	928.559	705.126
175.067	14.431	927.843	704.462
176.081	14.375	926.682	703.285
177.096	14.273	926.227	702.447
178.110	14.335	925.325	701.960
179.125	14.331	924.700	701.408
180.140	14.335	923.991	700.826
181.154	14.337	923.603	700.476
182.169	14.336	923.005	699.957
183.183	14.401	921.902	699.330
184.198	14.599	921.186	699.557
185.213	14.472	920.868	698.721
186.227	14.475	920.159	698.134
187.242	14.542	919.562	697.901
188.256	14.598	918.497	697.262
189.271	14.669	917.921	697.061
190.286	14.699	916.882	696.334
191.300	14.564	916.512	695.429
192.315	14.328	916.107	694.076
193.329	14.301	915.065	693.116
194.344	14.186	914.274	691.975
195.359	14.183	913.991	691.687
196.373	14.425	912.997	691.880
197.388	14.407	912.755	691.559
198.402	14.571	912.287	691.826
199.417	14.605	911.832	691.560
200.432	14.694	911.561	691.661
201.446	14.736	911.400	691.650
202.461	14.864	910.313	691.294
203.475	14.897	909.801	690.981
204.490	14.858	909.376	690.436
205.504	14.874	908.489	689.767
206.519	14.776	907.414	688.485
207.534	14.720	906.744	687.685
208.548	14.683	905.909	686.842
209.563	14.781	905.244	686.676
210.577	14.736	904.692	686.013
211.592	14.773	903.922	685.523
212.607	14.835	903.656	685.512
213.621	14.883	903.131	685.252
214.636	14.823	902.441	684.421
215.650	14.829	901.858	683.943
216.665	14.812	901.360	683.435
217.680	14.978	900.519	683.413
218.694	15.020	899.974	683.113
219.709	14.944	899.564	682.431
220.723	15.067	898.773	682.274
221.738	14.931	898.590	681.518
222.753	14.888	897.665	680.582
223.767	14.948	896.691	680.028
224.782	15.017	896.282	679.935
225.796	15.136	895.346	679.650
226.811	14.990	895.157	678.853
227.826	15.229	894.103	678.962
228.840	15.155	893.034	677.792
229.855	14.938	892.889	676.745
230.869	15.014	891.893	676.234
231.884	15.074	891.373	676.023
232.899	14.922	890.662	674.811
233.913	15.015	890.072	674.680
234.928	15.004	889.300	673.992
235.942	14.884	888.867	673.120
236.957	14.939	887.811	672.481
237.972	14.995	887.027	672.055
238.986	15.068	886.598	671.962
240.001	15.140	885.748	671.546
241.015	14.950	885.493	670.531
242.030	15.021	884.837	670.262
243.045	15.080	883.918	669.740
244.059	15.199	883.146	669.571
245.074	15.226	882.588	669.199
246.088	15.255	881.962	668.781
247.103	15.156	882.048	668.391
248.117	15.182	881.132	667.743
249.132	15.360	880.512	667.921
250.147	15.583	879.648	668.096
251.161	15.526	879.370	667.596
252.176	15.686	878.485	667.500
253.190	15.531	878.028	666.479
254.205	15.587	877.529	666.265
255.220	15.756	876.538	666.120
256.234	15.677	876.048	665.380
257.249	15.764	875.282	665.083
258.263	15.637	874.833	664.181
259.278	15.627	874.397	663.751
260.293	15.642	873.858	663.343
261.307	15.620	873.550	662.962
262.322	15.648	872.750	662.407
263.336	15.893	871.711	662.525
264.351	15.790	871.457	661.869
265.366	15.809	870.607	661.239
266.380	15.741	870.314	660.692
267.395	15.862	869.722	660.656
268.409	15.699	868.959	659.380
269.424	15.738	868.291	658.969
270.439	15.868	867.411	658.751
271.453	15.814	866.947	658.127
272.468	15.807	865.807	657.175
273.482	15.667	865.324	656.205
274.497	15.732	864.910	656.088
275.512	15.805	863.831	655.495
276.526	15.740	863.284	654.770
277.541	15.771	863.024	654.635
278.555	15.742	862.158	653.809
279.570	15.884	861.832	654.053
280.585	16.018	860.796	653.731
281.599	15.905	860.940	653.342
282.614	15.993	860.044	652.947
283.628	15.988	859.124	652.171
284.643	16.017	858.927	652.076
285.657	15.971	858.161	651.257
286.672	15.796	858.043	650.435
287.687	16.088	857.095	650.786
288.701	15.972	856.978	650.190
289.716	15.951	856.406	649.617
290.730	15.953	855.701	649.036
291.745	16.072	855.136	649.006
292.760	16.105	853.888	648.130
293.774	16.002	853.965	647.733
294.789	16.279	852.801	647.858
295.803	16.295	852.625	647.727
296.818	16.125	851.845	646.428
297.833	16.013	851.553	645.716
298.847	16.232	850.469	645.677
299.862	16.190	849.883	645.015
300.876	16.333	849.245	645.020
301.891	16.278	848.627	644.283
302.906	16.363	847.890	643.990
303.920	16.329	847.577	643.567
304.935	16.351	846.753	642.968
305.949	16.436	846.166	642.786
306.964	16.523	845.290	642.396
307.979	16.434	844.715	641.565
308.993	16.453	844.364	641.313
310.008	16.491	843.996	641.120
311.022	16.521	843.318	640.663
312.037	16.586	842.775	640.441
313.052	16.522	841.990	639.546
314.066	16.290	841.653	638.357
315.081	16.194	841.167	637.566
316.095	16.196	840.349	636.896
317.110	16.371	839.837	637.112
318.125	16.342	839.331	636.564
319.139	16.468	839.117	636.822
320.154	16.384	838.491	635.971
321.168	16.356	837.783	635.275
322.183	16.205	837.572	634.490
323.197	16.509	836.951	635.105
324.212	16.549	836.252	634.668
325.227	16.328	836.094	633.663
326.241	16.585	835.244	633.925
327.256	16.466	834.566	632.910
328.270	16.505	833.891	632.490
329.285	16.393	833.529	631.739
330.300	16.574	832.728	631.754
331.314	16.431	832.572	631.045
332.329	16.503	832.106	630.904
333.343	16.463	831.366	630.138
334.358	16.687	830.615	630.347
335.373	16.598	829.964	629.467
336.387	16.642	829.789	629.440
337.402	16.669	829.171	629.019
338.416	16.612	828.980	628.605
339.431	16.800	828.219	628.668
340.446	16.858	827.617	628.371
341.460	16.915	827.010	628.066
342.475	16.879	826.750	627.680
343.489	16.881	826.463	627.415
344.504	17.089	825.339	627.274
345.519	17.169	824.544	626.908
346.533	17.045	824.418	626.302
347.548	17.137	823.757	626.084
348.562	17.041	823.379	625.388
349.577	16.887	823.165	624.599
350.592	16.758	822.457	623.535
351.606	16.774	821.543	622.846
352.621	16.872	821.054	622.780
353.635	16.876	820.954	622.663
354.650	16.853	820.533	622.203
355.665	17.012	820.050	622.366
356.679	16.971	819.395	621.662
357.694	16.894	819.376	621.311
358.708	16.900	818.663	620.739
359.723	17.021	817.780	620.454
360.738	17.168	817.542	620.756
361.752	17.123	816.734	619.924
362.767	17.056	816.496	619.446
363.781	17.130	816.089	619.350
364.796	17.152	815.946	619.269
365.810	17.130	815.543	618.827
366.825	17.220	815.039	618.716
367.840	17.158	815.204	618.562
368.854	17.161	814.486	617.974
369.869	17.356	813.499	617.877
370.883	17.258	813.169	617.217
371.898	17.069	812.918	616.288
372.913	17.346	811.835	616.414
373.927	17.342	811.143	615.820
374.942	17.214	810.847	615.078
375.956	17.302	810.270	614.904
376.971	17.400	809.581	614.680
377.986	17.439	809.372	614.608
379.000	17.476	808.754	614.218
380.015	17.550	807.972	613.837
381.029	17.527	807.600	613.417
382.044	17.459	806.864	612.559
383.059	17.455	806.442	612.169
384.073	17.646	805.701	612.239
385.088	17.647	805.146	611.768
386.102	17.529	804.641	610.908
387.117	17.452	804.268	610.294
388.132	17.452	803.808	609.891
389.146	17.567	803.396	609.934
390.161	17.539	803.214	609.643
391.175	17.576	802.657	609.297
392.190	17.670	802.505	609.465
393.205	17.467	801.875	608.207
394.219	17.414	801.529	607.703
395.234	17.622	800.508	607.615
396.248	17.447	800.069	606.604
397.263	17.456	799.437	606.104
398.278	17.429	799.162	605.746
399.292	17.358	798.862	605.213
400.307	17.419	798.733	605.278
401.321	17.490	798.297	605.148
402.336	17.344	797.837	604.226
403.350	17.589	797.190	604.553
404.365	17.549	797.006	604.215
405.380	17.741	796.224	604.252
406.394	17.694	796.193	604.008
407.409	17.805	795.507	603.826
408.423	17.786	795.037	603.348
409.438	17.900	794.633	603.391
410.453	17.910	794.328	603.141
411.467	17.918	793.748	602.676
412.482	18.000	793.194	602.493
413.496	18.015	792.703	602.121
414.511	17.937	792.668	601.765
415.526	18.160	792.195	602.139
416.540	17.947	791.835	601.060
417.555	17.993	791.084	600.598
418.569	18.090	790.885	600.738
419.584	17.936	790.644	599.960
420.599	18.115	789.901	599.970
421.613	154.885	1369.572	1792.757
422.628	133.923	1454.028	1792.853
