DTS Sentinel unit serial number:	SN413079Multiplexer serial number:	ORYXHardware model number:	OX4-SRSoftware version number:	ORYX F/W v4.00 Oryx Data Collector v3.7.2.0data status	okinstallation	princeton_trtdifferential loss correction	single-endedforward channel	channel 3reverse channel	N/Adate	2019/09/19time	04:36:35forward acquisition time	60.00reverse acquisition time	0.00gamma	496.2192k internal	0.2347k external	0.2347temperature offset calibration	0.9992default loss term (dB/km)	0.3790temperature slope calibration	1.0000multiplexer offset coefficient	1.0000multiplexer slope coefficient	1.0000fibre end	0.00T internal ref (°C)	20.06T ext. ref 1 (°C)	0.62T ext. ref 2 (°C)	13.05length (m)	temperature (°C)	Stokes	anti-Stokes-747.200	65.968	0.268	0.271
-746.185	-200.000	0.059	0.326
-745.171	190.607	0.189	0.284
-744.156	800.000	-0.130	0.435
-743.142	-42.986	0.237	0.120
-742.127	-88.729	-0.266	0.079
-741.112	264.205	0.106	0.185
-740.098	-75.598	-0.156	0.055
-739.083	-66.429	0.384	0.153
-738.069	3.578	-0.146	-0.107
-737.054	166.319	-0.188	0.267
-736.039	-200.000	-0.013	-0.190
-735.025	326.817	0.160	0.307
-734.010	411.117	0.076	-0.161
-732.996	-161.670	-0.135	-0.007
-731.981	-40.918	-0.270	-0.139
-730.966	800.000	-0.132	-0.475
-729.952	-124.619	-0.233	0.036
-728.937	197.884	-0.302	0.460
-727.923	800.000	-0.065	-0.241
-726.908	510.713	-0.211	-0.490
-725.894	-149.722	-0.407	0.032
-724.879	-47.723	0.252	0.122
-723.864	603.496	-0.178	0.442
-722.850	346.554	0.021	0.041
-721.835	69.492	0.195	0.200
-720.821	-89.801	-0.160	0.047
-719.806	-166.691	-0.063	0.003
-718.791	-200.000	-0.051	-0.233
-717.777	42.494	0.338	-0.307
-716.762	383.953	-0.090	-0.184
-715.748	228.754	0.112	-0.182
-714.733	-57.563	0.099	0.043
-713.718	23.863	0.219	-0.180
-712.704	-200.000	-0.005	0.131
-711.689	573.266	0.046	-0.112
-710.675	388.095	0.118	0.244
-709.660	48.387	0.054	0.050
-708.645	-200.000	0.002	0.047
-707.631	-90.805	0.214	0.062
-706.616	-82.465	0.398	-0.129
-705.602	-79.691	-0.099	0.033
-704.587	51.055	0.055	-0.052
-703.572	-145.157	-0.165	0.015
-702.558	-196.473	-0.030	-0.000
-701.543	-85.483	0.099	-0.031
-700.529	35.405	0.151	0.132
-699.514	-51.824	-0.227	0.105
-698.499	402.978	-0.125	0.262
-697.485	149.544	-0.168	0.227
-696.470	207.683	-0.052	0.080
-695.456	-200.000	-0.048	-0.319
-694.441	-86.998	0.006	0.002
-693.426	-27.471	0.093	0.054
-692.412	800.000	-0.068	0.281
-691.397	-73.414	-0.371	-0.135
-690.383	298.193	-0.079	0.145
-689.368	-122.538	-0.115	-0.019
-688.354	82.007	0.109	0.118
-687.339	-200.000	-0.023	-0.113
-686.324	800.000	0.107	-0.408
-685.310	-56.176	-0.150	0.067
-684.295	170.246	-0.093	0.133
-683.281	633.398	0.096	-0.243
-682.266	-46.795	-0.224	0.109
-681.251	604.930	0.096	-0.239
-680.237	102.655	-0.114	-0.132
-679.222	76.240	0.271	-0.286
-678.208	-12.470	0.193	-0.125
-677.193	-130.003	0.303	0.041
-676.178	285.419	-0.126	0.227
-675.164	-71.367	-0.352	0.131
-674.149	743.111	-0.103	-0.277
-673.135	112.125	-0.184	0.221
-672.120	106.688	-0.120	-0.142
-671.105	381.834	-0.129	0.264
-670.091	800.000	0.037	-0.115
-669.076	220.861	0.096	0.154
-668.062	800.000	0.082	-0.324
-667.047	-170.289	-0.129	0.005
-666.032	662.965	0.142	-0.365
-665.018	-200.000	0.006	0.365
-664.003	-21.855	0.201	0.122
-662.989	-200.000	-0.014	0.104
-661.974	11.085	-0.104	0.079
-660.959	761.703	0.107	0.288
-659.945	430.648	0.084	-0.181
-658.930	221.338	0.098	0.157
-657.916	123.367	-0.137	0.171
-656.901	-123.488	-0.156	-0.025
-655.886	244.831	0.114	-0.191
-654.872	-103.666	-0.377	-0.088
-653.857	800.000	-0.082	0.254
-652.843	-200.000	-0.017	0.207
-651.828	-143.120	-0.197	-0.019
-650.814	-200.000	0.019	0.103
-649.799	9.199	-0.047	0.035
-648.784	157.081	-0.112	-0.155
-647.770	-30.854	0.401	-0.226
-646.755	-200.000	-0.003	-0.095
-645.741	-50.351	-0.264	-0.124
-644.726	264.508	0.157	0.272
-643.711	-200.000	0.006	-0.080
-642.697	-98.510	-0.365	0.093
-641.682	45.153	0.072	-0.066
-640.668	-200.000	-0.060	-0.390
-639.653	-114.742	-0.152	-0.029
-638.638	-86.772	0.298	0.091
-637.624	-200.000	0.024	0.223
-636.609	-200.000	-0.005	0.178
-635.595	-70.713	-0.418	-0.157
-634.580	800.000	-0.070	-0.211
-633.565	-200.000	-0.011	0.178
-632.551	-72.549	-0.126	-0.046
-631.536	-53.664	-0.227	0.103
-630.522	800.000	0.030	0.129
-629.507	37.115	-0.112	0.099
-628.492	25.601	0.176	0.146
-627.478	-95.465	0.237	-0.063
-626.463	141.164	0.209	-0.275
-625.449	-181.347	0.376	0.007
-624.434	-200.000	0.038	-0.333
-623.419	-125.829	0.247	0.037
-622.405	-200.000	-0.034	0.281
-621.390	800.000	-0.087	-0.255
-620.376	-21.878	0.126	0.076
-619.361	-82.257	-0.303	-0.098
-618.346	-60.909	-0.044	-0.018
-617.332	-85.902	-0.280	0.086
-616.317	-133.456	-0.169	0.021
-615.303	-200.000	-0.108	-0.555
-614.288	-200.000	0.022	-0.118
-613.273	134.250	0.117	-0.151
-612.259	800.000	-0.042	-0.148
-611.244	172.753	-0.096	0.137
-610.230	-200.000	0.019	-0.248
-609.215	265.041	-0.138	0.238
-608.201	342.290	-0.105	0.205
-607.186	583.806	0.153	0.373
-606.171	291.675	0.052	-0.093
-605.157	-79.417	-0.453	-0.153
-604.142	-200.000	-0.031	-0.312
-603.128	227.110	-0.147	-0.238
-602.113	-200.000	-0.014	0.239
-601.098	13.675	0.010	0.007
-600.084	37.417	-0.063	-0.055
-599.069	-200.000	-0.075	0.379
-598.055	557.535	-0.060	-0.143
-597.040	110.601	-0.149	-0.179
-596.025	-200.000	-0.017	-0.196
-595.011	-35.946	0.201	0.108
-593.996	-84.521	0.164	-0.051
-592.982	41.363	-0.067	-0.060
-591.967	-48.187	-0.308	0.148
-590.952	-200.000	0.045	0.196
-589.938	-200.000	-0.000	0.139
-588.923	-200.000	-0.062	0.495
-587.909	-200.000	-0.028	0.249
-586.894	617.298	-0.146	-0.363
-585.879	428.484	-0.044	-0.094
-584.865	-67.794	-0.290	-0.113
-583.850	96.461	0.014	-0.016
-582.836	31.281	0.129	0.110
-581.821	17.598	-0.290	0.229
-580.806	-54.816	-0.241	0.108
-579.792	279.933	-0.133	-0.237
-578.777	800.000	0.035	-0.123
-577.763	511.323	0.091	0.210
-576.748	-200.000	0.006	-0.178
-575.733	-200.000	-0.018	-0.092
-574.719	234.009	0.061	-0.100
-573.704	800.000	0.066	0.205
-572.690	-200.000	-0.001	0.034
-571.675	-68.780	-0.317	-0.122
-570.661	-43.266	-0.168	0.085
-569.646	-200.000	-0.107	-0.568
-568.631	36.096	0.079	-0.069
-567.617	-200.000	0.017	-0.234
-566.602	-200.000	0.003	-0.132
-565.588	800.000	0.035	-0.116
-564.573	58.491	-0.075	0.073
-563.558	-15.354	-0.350	0.222
-562.544	106.173	-0.162	0.191
-561.529	-28.317	0.264	0.151
-560.515	318.011	0.127	-0.239
-559.500	101.842	-0.122	-0.141
-558.485	-3.768	-0.238	0.164
-557.471	-70.396	-0.305	0.115
-556.456	-5.669	-0.163	-0.111
-555.442	174.716	0.053	-0.077
-554.427	-7.417	0.212	0.143
-553.412	-18.870	-0.417	-0.257
-552.398	65.527	-0.065	0.065
-551.383	-95.570	0.075	0.020
-550.369	-50.305	-0.235	0.110
-549.354	-200.000	-0.022	0.125
-548.339	639.708	0.118	-0.298
-547.325	-111.544	-0.132	0.027
-546.310	133.970	-0.079	0.102
-545.296	800.000	-0.096	0.294
-544.281	103.209	0.109	0.126
-543.266	773.369	-0.046	0.124
-542.252	104.673	0.203	-0.237
-541.237	-109.600	-0.226	0.047
-540.223	663.998	-0.122	0.311
-539.208	279.304	0.105	-0.186
-538.193	-200.000	0.014	-0.065
-537.179	-6.415	-0.229	-0.155
-536.164	-88.218	-0.085	0.025
-535.150	-4.178	-0.336	0.230
-534.135	800.000	0.130	0.405
-533.121	29.331	-0.148	0.124
-532.106	-112.550	-0.322	-0.064
-531.091	-80.713	-0.153	-0.050
-530.077	34.170	-0.088	-0.076
-529.062	-17.470	-0.119	0.074
-528.048	-200.000	0.021	-0.105
-527.033	-99.052	0.165	-0.041
-526.018	85.711	0.239	0.260
-525.004	493.247	0.155	-0.352
-523.989	-150.061	-0.334	0.026
-522.975	26.843	-0.095	0.079
-521.960	800.000	0.055	-0.153
-520.945	154.120	0.098	0.133
-519.931	800.000	-0.095	-0.291
-518.916	64.454	0.091	-0.091
-517.902	-200.000	-0.058	0.422
-516.887	63.474	0.276	-0.274
-515.872	312.760	0.081	-0.152
-514.858	337.197	0.098	-0.189
-513.843	-72.241	-0.177	-0.065
-512.829	71.284	0.294	-0.302
-511.814	-200.000	-0.012	-0.201
-510.799	186.491	0.281	-0.414
-509.785	-178.222	-0.157	0.004
-508.770	285.588	0.122	0.217
-507.756	364.493	-0.122	0.244
-506.741	690.000	0.076	0.197
-505.726	800.000	0.130	-0.400
-504.712	-200.000	-0.008	0.230
-503.697	-59.069	-0.146	0.063
-502.683	-200.000	0.032	-0.182
-501.668	184.354	-0.015	0.022
-500.653	-200.000	-0.025	-0.192
-499.639	123.835	0.069	0.085
-498.624	229.617	-0.249	0.402
-497.610	338.427	0.053	0.102
-496.595	348.616	-0.087	0.170
-495.581	-89.428	-0.276	-0.080
-494.566	115.026	0.144	0.174
-493.551	-200.000	-0.036	-0.176
-492.537	-200.000	0.016	-0.232
-491.522	-38.842	0.230	-0.120
-490.508	-92.171	0.205	-0.057
-489.493	542.552	0.092	-0.216
-488.478	16.109	0.066	-0.052
-487.464	-200.000	0.012	-0.068
-486.449	52.915	-0.115	-0.109
-485.435	-187.779	0.153	-0.002
-484.420	800.000	-0.040	0.117
-483.405	227.823	-0.199	0.320
-482.391	800.000	0.109	0.310
-481.376	206.698	-0.117	0.180
-480.362	800.000	0.050	0.202
-479.347	-200.000	-0.055	-0.354
-478.332	18.532	0.162	-0.128
-477.318	172.740	-0.121	-0.173
-476.303	-104.355	-0.116	-0.027
-475.289	349.018	-0.059	-0.116
-474.274	-200.000	-0.017	0.204
-473.259	800.000	-0.015	0.055
-472.245	-122.079	0.151	0.025
-471.230	-200.000	0.020	0.192
-470.216	-83.875	-0.322	0.102
-469.201	-149.730	0.263	0.020
-468.186	-15.139	-0.322	-0.204
-467.172	-150.317	-0.318	0.024
-466.157	-200.000	-0.019	-0.371
-465.143	83.694	0.096	-0.104
-464.128	800.000	0.116	-0.342
-463.113	0.816	0.182	-0.129
-462.099	-200.000	-0.007	0.043
-461.084	49.077	-0.054	0.050
-460.070	-159.642	0.110	0.006
-459.055	-131.231	-0.223	0.029
-458.040	-200.000	-0.002	0.017
-457.026	799.531	-0.176	-0.480
-456.011	-32.510	0.176	0.097
-454.997	735.900	-0.117	0.309
-453.982	-170.112	0.201	0.007
-452.968	800.000	-0.016	-0.056
-451.953	-75.649	-0.269	-0.095
-450.938	-67.853	-0.373	-0.144
-449.924	-95.504	0.060	-0.016
-448.909	18.068	-0.255	-0.201
-447.895	-120.227	0.171	0.029
-446.880	-134.281	-0.268	0.033
-445.865	154.893	-0.120	-0.163
-444.851	-111.114	0.243	-0.049
-443.836	513.496	-0.089	-0.206
-442.822	337.134	0.182	-0.349
-441.807	555.380	0.010	-0.023
-440.792	559.370	0.081	0.194
-439.778	800.000	0.066	0.197
-438.763	-111.235	0.201	-0.041
-437.749	-200.000	-0.020	0.250
-436.734	40.668	-0.144	-0.128
-435.719	-94.968	0.244	-0.065
-434.705	-5.838	0.200	0.135
-433.690	-26.730	-0.046	0.027
-432.676	-45.031	-0.369	0.181
-431.661	-185.289	-0.171	0.003
-430.646	-123.357	0.196	-0.031
-429.632	800.000	0.101	0.385
-428.617	74.346	-0.185	-0.192
-427.603	800.000	0.041	0.161
-426.588	-200.000	-0.025	-0.218
-425.573	-118.220	-0.062	0.011
-424.559	27.522	-0.236	-0.196
-423.544	260.346	-0.066	-0.112
-422.530	90.349	0.166	-0.183
-421.515	-12.443	-0.143	0.092
-420.500	-100.844	0.221	-0.054
-419.486	800.000	-0.057	0.226
-418.471	-200.000	-0.010	0.296
-417.457	68.404	-0.153	0.155
-416.442	-200.000	-0.042	-0.208
-415.428	-34.657	-0.446	-0.241
-414.413	-200.000	0.004	-0.106
-413.398	-67.274	0.322	0.125
-412.384	-73.602	-0.453	0.163
-411.369	195.134	0.153	-0.229
-410.355	-79.002	-0.201	0.068
-409.340	790.474	0.117	0.318
-408.325	-127.674	0.361	-0.052
-407.311	-125.372	-0.333	0.050
-406.296	-26.954	0.006	-0.004
-405.282	207.211	0.053	-0.082
-404.267	-173.295	-0.107	0.003
-403.252	-200.000	0.042	0.348
-402.238	44.219	0.151	0.137
-401.223	-121.805	-0.086	-0.014
-400.209	-200.000	0.023	-0.296
-399.194	206.086	0.158	0.242
-398.179	-56.462	-0.327	0.143
-397.165	800.000	0.032	0.094
-396.150	-63.843	0.092	-0.037
-395.136	62.754	0.064	-0.063
-394.121	641.880	0.026	-0.066
-393.106	-200.000	-0.040	-0.347
-392.092	566.440	0.095	0.226
-391.077	44.094	0.032	-0.029
-390.063	-50.958	-0.378	0.175
-389.048	-141.145	0.320	-0.032
-388.033	103.454	0.109	0.126
-387.019	-200.000	-0.001	0.348
-386.004	-11.664	0.299	0.193
-384.990	-200.000	-0.024	-0.131
-383.975	221.359	0.191	0.302
-382.960	94.169	-0.219	0.245
-381.946	-200.000	0.068	-0.310
-380.931	-91.612	-0.215	0.060
-379.917	-29.315	-0.099	0.056
-378.902	-200.000	0.029	0.173
-377.888	-68.388	-0.228	0.087
-376.873	-13.380	0.054	0.034
-375.858	-102.793	-0.032	-0.007
-374.844	-200.000	-0.128	-0.584
-373.829	-200.000	-0.065	0.373
-372.815	195.597	0.026	0.038
-371.800	24.160	0.211	-0.172
-370.785	-20.579	-0.337	0.204
-369.771	-200.000	0.066	0.293
-368.756	-200.000	0.007	-0.213
-367.742	800.000	0.132	-0.388
-366.727	800.000	0.112	-0.484
-365.712	-75.128	0.319	-0.112
-364.698	94.520	-0.281	-0.314
-363.683	-113.713	0.380	0.073
-362.669	-186.855	0.341	0.005
-361.654	95.486	0.117	0.132
-360.639	-149.082	0.457	-0.036
-359.625	800.000	-0.006	0.020
-358.610	214.284	0.053	0.083
-357.596	800.000	-0.047	0.146
-356.581	403.755	0.038	-0.079
-355.566	-101.584	-0.266	-0.064
-354.552	152.862	-0.128	-0.172
-353.537	-200.000	0.003	0.231
-352.523	800.000	-0.004	-0.014
-351.508	-150.321	-0.102	-0.008
-350.493	-54.814	0.270	0.120
-349.479	-31.009	0.280	0.156
-348.464	-30.244	-0.014	0.008
-347.450	7.308	0.068	-0.050
-346.435	-200.000	-0.006	0.168
-345.420	-200.000	0.032	0.226
-344.406	-74.270	0.209	0.074
-343.391	-3.987	0.124	-0.085
-342.377	175.702	0.190	-0.271
-341.362	276.995	-0.033	0.058
-340.348	105.719	-0.139	0.161
-339.333	666.842	0.095	0.240
-338.318	145.561	0.111	0.146
-337.304	389.382	0.003	-0.006
-336.289	-200.000	-0.001	0.013
-335.275	64.832	-0.133	-0.132
-334.260	222.058	-0.119	-0.189
-333.245	-145.631	0.243	-0.021
-332.231	16.305	0.124	-0.096
-331.216	220.156	0.085	-0.135
-330.202	-82.731	0.259	-0.082
-329.187	262.652	-0.105	0.179
-328.172	-164.778	0.116	0.005
-327.158	68.651	0.247	-0.249
-326.143	-77.434	0.134	-0.046
-325.129	-200.000	-0.001	-0.062
-324.114	-200.000	-0.019	-0.170
-323.099	111.369	-0.177	0.210
-322.085	-200.000	-0.068	-0.473
-321.070	451.160	-0.079	0.171
-320.056	168.715	-0.215	-0.301
-319.041	23.392	-0.212	-0.171
-318.026	-200.000	0.008	-0.122
-317.012	-13.518	0.225	-0.143
-315.997	19.719	0.104	-0.083
-314.983	-112.430	-0.384	0.075
-313.968	-62.874	0.165	0.067
-312.953	-146.950	0.213	-0.018
-311.939	-22.596	-0.293	0.174
-310.924	-151.680	-0.222	0.016
-309.910	-79.595	-0.203	0.067
-308.895	-122.533	-0.265	0.042
-307.880	-87.198	0.447	0.133
-306.866	800.000	-0.060	0.174
-305.851	-200.000	-0.034	-0.164
-304.837	10.788	0.299	0.224
-303.822	-200.000	-0.013	-0.077
-302.807	198.330	0.075	-0.112
-301.793	-103.971	0.277	0.064
-300.778	-43.003	0.278	0.139
-299.764	-114.510	-0.137	0.026
-298.749	403.826	0.122	0.252
-297.735	25.387	0.090	0.074
-296.720	149.436	0.128	-0.170
-295.705	-139.800	0.183	-0.019
-294.691	800.000	0.004	-0.015
-293.676	159.351	0.066	-0.090
-292.662	-200.000	0.026	-0.173
-291.647	30.926	-0.281	0.236
-290.632	800.000	0.065	0.177
-289.618	-31.576	0.115	-0.064
-288.603	180.514	0.023	-0.033
-287.589	463.491	-0.105	0.231
-286.574	443.941	0.160	0.345
-285.559	27.746	-0.229	-0.189
-284.545	309.064	0.153	0.281
-283.530	20.622	-0.035	0.028
-282.516	-14.884	-0.152	0.096
-281.501	284.224	0.098	0.172
-280.486	800.000	-0.080	0.251
-279.472	-61.964	-0.068	-0.028
-278.457	-101.956	-0.257	-0.061
-277.443	-171.687	-0.089	-0.003
-276.428	54.247	0.276	-0.261
-275.413	-113.003	0.140	0.027
-274.399	-200.000	0.027	0.231
-273.384	8.523	0.213	-0.157
-272.370	49.934	0.181	0.167
-271.355	-95.847	0.540	0.141
-270.340	-155.793	-0.313	-0.020
-269.326	18.777	0.114	0.090
-268.311	800.000	0.099	-0.270
-267.297	97.768	-0.030	-0.034
-266.282	-83.918	0.247	0.077
-265.267	15.143	0.383	-0.294
-264.253	28.642	0.200	-0.166
-263.238	459.212	-0.065	0.142
-262.224	10.911	0.177	-0.133
-261.209	800.000	-0.043	0.121
-260.195	-62.891	0.479	0.194
-259.180	-197.856	-0.211	-0.001
-258.165	-26.215	0.132	0.076
-257.151	800.000	-0.044	-0.164
-256.136	-11.574	-0.316	0.203
-255.122	800.000	-0.040	0.156
-254.107	-54.821	0.187	-0.083
-253.092	112.473	-0.210	0.249
-252.078	-200.000	-0.046	-0.296
-251.063	-200.000	0.023	-0.101
-250.049	243.479	0.050	0.082
-249.034	187.812	0.123	0.181
-248.019	-131.356	0.223	-0.029
-247.005	-200.000	0.070	0.309
-245.990	9.020	-0.193	0.143
-244.976	506.383	-0.059	0.135
-243.961	184.300	0.171	0.249
-242.946	-143.165	0.211	-0.020
-241.932	800.000	0.044	-0.147
-240.917	-123.078	-0.145	-0.023
-239.903	98.407	0.017	-0.019
-238.888	-27.523	0.114	0.065
-237.873	-200.000	-0.051	-0.366
-236.859	51.143	-0.325	0.302
-235.844	-60.966	-0.216	-0.089
-234.830	-200.000	-0.056	-0.268
-233.815	613.912	0.171	0.420
-232.800	143.454	0.068	-0.088
-231.786	-200.000	0.058	0.294
-230.771	556.159	0.129	0.304
-229.757	-20.320	-0.097	0.058
-228.742	-84.818	0.080	-0.025
-227.727	-112.310	-0.111	-0.022
-226.713	-200.000	-0.029	0.332
-225.698	-51.088	0.167	-0.077
-224.684	800.000	-0.097	-0.268
-223.669	-37.906	0.380	0.198
-222.655	11.955	-0.159	-0.120
-221.640	-173.538	0.188	-0.006
-220.625	-21.673	-0.025	0.015
-219.611	27.949	-0.102	-0.085
-218.596	61.121	0.258	-0.251
-217.582	119.985	0.154	-0.187
-216.567	-80.910	0.196	-0.064
-215.552	606.004	0.072	0.175
-214.538	800.000	0.029	-0.089
-213.523	-72.497	-0.386	-0.140
-212.509	-200.000	-0.000	-0.127
-211.494	3.191	-0.131	-0.093
-210.479	222.617	-0.126	0.199
-209.465	171.164	-0.222	0.312
-208.450	-118.227	-0.087	0.015
-207.436	-93.552	-0.027	0.007
-206.421	-200.000	0.013	0.192
-205.406	-9.348	-0.025	0.016
-204.392	-200.000	-0.013	0.271
-203.377	219.949	-0.132	-0.207
-202.363	800.000	0.070	0.301
-201.348	800.000	0.080	0.284
-200.333	-72.388	-0.317	-0.115
-199.319	635.477	0.050	0.124
-198.304	-165.150	0.237	-0.010
-197.290	155.101	0.154	-0.208
-196.275	109.987	0.163	-0.191
-195.260	449.334	-0.115	0.249
-194.246	-53.476	0.112	0.050
-193.231	800.000	0.029	0.092
-192.217	-92.230	0.252	0.070
-191.202	-30.697	0.523	-0.290
-190.187	-200.000	-0.025	0.241
-189.173	0.934	0.032	0.022
-188.158	-88.176	0.448	0.131
-187.144	-123.548	0.240	-0.037
-186.129	65.425	0.270	0.267
-185.114	-200.000	-0.020	-0.243
-184.100	800.000	0.064	-0.272
-183.085	800.000	-0.088	-0.257
-182.071	39.619	0.107	0.094
-181.056	800.000	0.043	-0.168
-180.042	-160.151	0.225	0.012
-179.027	-48.281	0.061	-0.029
-178.012	-15.839	-0.163	0.101
-176.998	47.778	0.049	0.044
-175.983	-34.669	-0.126	-0.067
-174.969	-200.000	0.012	-0.246
-173.954	800.000	-0.048	0.172
-172.939	-200.000	0.010	-0.289
-171.925	517.705	-0.060	0.136
-170.910	-57.176	0.120	-0.052
-169.896	-78.280	-0.271	-0.091
-168.881	-18.600	0.223	-0.136
-167.866	-62.128	0.024	-0.010
-166.852	-108.554	-0.088	-0.019
-165.837	-96.877	-0.210	0.054
-164.823	-30.017	-0.285	0.159
-163.808	-200.000	0.020	-0.096
-162.793	-116.121	0.428	0.078
-161.779	52.291	-0.131	0.122
-160.764	193.054	0.202	-0.298
-159.750	-179.989	-0.295	-0.006
-158.735	-200.000	0.042	-0.232
-157.720	30.870	-0.016	0.014
-156.706	83.779	0.167	-0.178
-155.691	109.019	-0.086	0.101
-154.677	167.985	-0.162	0.225
-153.662	782.705	0.049	-0.131
-152.647	-200.000	0.007	0.231
-151.633	-93.750	-0.317	-0.085
-150.618	62.354	-0.229	-0.223
-149.604	-120.647	0.271	-0.045
-148.589	-28.722	-0.070	0.039
-147.574	112.289	-0.204	0.241
-146.560	-186.530	-0.135	0.002
-145.545	-161.041	0.335	0.017
-144.531	166.213	-0.056	-0.077
-143.516	-55.595	-0.391	-0.171
-142.502	-53.616	0.161	-0.072
-141.487	275.750	-0.051	0.088
-140.472	-6.438	0.125	0.083
-139.458	-200.000	0.017	0.278
-138.443	205.964	0.088	-0.133
-137.429	21.877	0.159	0.126
-136.414	-200.000	0.027	0.401
-135.399	-109.267	-0.328	-0.068
-134.385	234.361	-0.135	-0.218
-133.370	126.365	0.224	-0.277
-132.356	-14.464	-0.080	-0.050
-131.341	-200.000	0.020	0.092
-130.326	-44.805	-0.218	-0.106
-129.312	262.034	0.064	-0.108
-128.297	-118.612	-0.041	-0.007
-127.283	-34.504	0.140	-0.075
-126.268	7.396	0.097	-0.071
-125.253	3.018	0.187	-0.133
-124.239	-200.000	0.049	0.290
-123.224	-32.277	0.145	-0.079
-122.210	-70.686	0.065	0.024
-121.195	41.711	-0.192	-0.170
-120.180	-58.909	-0.162	-0.068
-119.166	-139.062	-0.192	0.020
-118.151	-200.000	0.032	0.407
-117.137	-89.278	0.213	-0.061
-116.122	155.017	0.150	-0.201
-115.107	-200.000	-0.053	-0.264
-114.093	46.586	0.253	0.229
-113.078	362.388	-0.149	-0.292
-112.064	-8.110	-0.184	0.121
-111.049	-91.795	-0.053	0.015
-110.034	2.723	-0.183	-0.129
-109.020	275.701	0.085	0.147
-108.005	187.150	0.064	-0.094
-106.991	317.085	0.149	0.275
-105.976	-68.647	0.182	-0.069
-104.962	307.664	-0.269	-0.489
-103.947	-106.160	-0.105	0.023
-102.932	-200.000	0.013	0.192
-101.918	428.848	-0.146	0.308
-100.903	-54.258	-0.363	-0.161
-99.889	-135.334	0.203	-0.024
-98.874	133.323	-0.258	0.326
-97.859	407.983	0.121	0.250
-96.845	-200.000	0.067	0.342
-95.830	108.057	-0.114	0.132
-94.816	192.465	-0.161	0.236
-93.801	268.025	-0.205	0.351
-92.786	109.957	0.173	-0.202
-91.772	-79.694	-0.290	0.095
-90.757	-200.000	0.025	0.414
-89.743	48.255	0.288	0.263
-88.728	800.000	-0.046	-0.148
-87.713	-6.675	0.192	0.127
-86.699	-46.836	-0.200	0.095
-85.684	-200.000	0.014	0.113
-84.670	111.435	0.066	0.077
-83.655	458.504	0.114	-0.247
-82.640	800.000	-0.153	-0.423
-81.626	20.552	-0.174	-0.137
-80.611	800.000	0.052	0.219
-79.597	-113.327	0.183	-0.035
-78.582	-171.355	-0.362	0.012
-77.567	-107.550	0.028	-0.006
-76.553	-93.599	0.055	-0.015
-75.538	351.966	-0.220	-0.425
-74.524	215.645	-0.195	0.302
-73.509	159.707	0.269	0.365
-72.494	-47.424	0.351	0.166
-71.480	294.880	0.183	0.327
-70.465	56.214	-0.154	-0.145
-69.451	264.799	0.050	0.084
-68.436	-60.926	-0.109	0.045
-67.422	-116.586	0.252	0.045
-66.407	158.099	0.126	-0.170
-65.392	-83.728	0.083	-0.026
-64.378	219.797	-0.106	-0.165
-63.363	623.091	0.212	0.520
-62.349	-200.000	-0.048	0.322
-61.334	63.747	-1.400	-1.369
-60.319	-18.215	0.831	0.506
-59.305	198.391	-0.822	-1.224
-58.290	304.933	0.710	1.283
-57.276	439.738	0.782	1.662
-56.261	-200.000	136.518	637.855
-55.246	336.837	1658.896	3135.512
-54.232	135.619	2792.996	3536.978
-53.217	83.304	2188.408	2318.982
-52.203	29.832	1705.923	1413.876
-51.188	22.855	1531.482	1221.185
-50.173	21.292	1510.445	1193.696
-49.159	44.520	1588.119	1419.613
-48.144	40.855	1597.333	1401.996
-47.130	22.862	1546.124	1232.713
-46.115	20.261	1530.011	1201.825
-45.100	20.137	1527.212	1198.719
-44.086	20.104	1524.530	1196.339
-43.071	19.960	1523.109	1194.183
-42.057	20.003	1521.878	1193.470
-41.042	20.052	1520.062	1192.332
-40.027	19.966	1518.903	1190.785
-39.013	20.036	1516.796	1189.570
-37.998	20.097	1515.460	1188.891
-36.984	20.059	1514.468	1187.806
-35.969	19.999	1513.305	1186.436
-34.954	20.016	1512.095	1185.559
-33.940	20.080	1510.008	1184.308
-32.925	19.917	1509.478	1182.732
-31.911	20.065	1507.528	1182.167
-30.896	20.096	1506.280	1181.357
-29.881	20.088	1504.966	1180.221
-28.867	20.143	1504.010	1179.799
-27.852	20.082	1502.635	1178.263
-26.838	20.108	1501.162	1177.232
-25.823	20.191	1499.628	1176.548
-24.809	20.096	1497.752	1174.385
-23.794	20.033	1496.473	1172.913
-22.779	20.024	1495.670	1172.175
-21.765	20.148	1494.345	1171.929
-20.750	20.182	1492.780	1170.886
-19.736	20.028	1492.456	1169.546
-18.721	20.094	1491.412	1169.124
-17.706	20.031	1490.157	1167.670
-16.692	20.121	1489.089	1167.392
-15.677	20.124	1487.721	1166.290
-14.663	20.056	1487.610	1165.705
-13.648	20.023	1486.150	1164.290
-12.633	20.075	1485.097	1163.771
-11.619	20.114	1483.840	1162.998
-10.604	20.083	1483.151	1162.206
-9.590	19.976	1482.457	1160.899
-8.575	20.043	1481.823	1160.805
-7.560	20.101	1480.931	1160.445
-6.546	19.995	1479.760	1158.776
-5.531	20.010	1479.233	1158.416
-4.517	20.071	1478.027	1157.833
-3.502	19.979	1476.867	1156.264
-2.487	20.080	1475.931	1156.161
-1.473	20.088	1474.605	1155.129
-0.458	20.043	1473.525	1153.934
0.556	18.991	1463.742	1141.972
1.571	15.523	1438.825	1099.761
2.586	11.780	1376.665	1028.663
3.600	10.266	1290.833	955.507
4.615	9.345	1247.266	917.923
5.629	8.428	1190.531	871.092
6.644	4.435	1111.091	792.552
7.659	1.100	1077.968	752.321
8.673	0.604	1072.843	746.226
9.688	0.606	1069.606	743.918
10.702	0.606	1068.169	742.853
11.717	0.675	1065.292	741.128
12.731	1.816	1065.463	746.773
13.746	6.891	1071.419	775.844
14.761	13.270	1080.464	813.819
15.775	16.815	1084.779	834.483
16.790	16.887	1083.778	833.995
17.804	15.960	1081.727	827.791
18.819	15.095	1079.739	821.952
19.834	14.562	1078.916	818.639
20.848	14.476	1077.424	817.008
21.863	14.238	1076.822	815.319
22.877	13.973	1075.574	813.004
23.892	13.751	1074.954	811.377
24.907	13.640	1074.478	810.402
25.921	13.753	1073.353	810.036
26.936	13.710	1072.955	809.453
27.950	13.751	1072.149	808.973
28.965	13.743	1071.651	808.485
29.980	13.777	1070.609	807.795
30.994	13.876	1069.701	807.518
32.009	13.935	1068.807	807.061
33.023	13.917	1068.477	806.652
34.038	13.945	1067.262	805.800
35.053	13.887	1066.137	804.595
36.067	13.843	1065.474	803.810
37.082	13.901	1064.503	803.291
38.096	13.939	1063.594	802.714
39.111	13.833	1062.754	801.496
40.126	13.943	1062.076	801.447
41.140	13.773	1061.220	799.912
42.155	13.783	1059.996	798.964
43.169	13.711	1059.345	798.059
44.184	13.637	1058.285	796.833
45.199	13.676	1057.206	796.138
46.213	13.633	1056.480	795.314
47.228	13.789	1054.877	794.783
48.242	13.741	1054.404	794.129
49.257	13.853	1053.024	793.555
50.271	13.698	1052.281	792.181
51.286	13.892	1050.946	792.035
52.301	13.688	1050.652	790.768
53.315	13.858	1049.237	790.442
54.330	13.864	1048.457	789.817
55.344	13.771	1047.895	788.877
56.359	13.671	1046.631	787.385
57.374	13.835	1045.828	787.485
58.388	13.860	1044.956	786.880
59.403	13.812	1043.982	785.850
60.417	13.635	1043.586	784.646
61.432	13.688	1042.845	784.266
62.447	13.615	1042.129	783.314
63.461	13.639	1041.179	782.646
64.476	13.598	1040.478	781.856
65.490	13.563	1039.597	780.956
66.505	13.805	1038.332	781.076
67.520	13.836	1037.428	780.474
68.534	13.706	1036.771	779.302
69.549	13.828	1035.795	779.074
70.563	13.827	1035.519	778.792
71.578	13.574	1035.473	777.500
72.593	13.663	1033.877	776.650
73.607	13.624	1032.661	775.485
74.622	13.673	1031.990	775.140
75.636	13.778	1030.767	774.644
76.651	13.522	1030.236	772.982
77.666	13.618	1029.546	772.841
78.680	13.608	1028.833	772.193
79.695	13.633	1028.135	771.716
80.709	13.601	1027.671	771.152
81.724	13.635	1026.832	770.610
82.739	13.704	1025.809	770.096
83.753	13.767	1025.168	769.841
84.768	13.808	1023.999	769.084
85.782	13.899	1023.303	768.917
86.797	13.906	1022.645	768.385
87.812	13.915	1021.599	767.570
88.826	13.829	1020.851	766.547
89.841	13.677	1020.656	765.630
90.855	13.757	1019.433	765.015
91.870	13.793	1018.272	764.241
92.884	13.765	1018.040	763.868
93.899	13.836	1017.200	763.498
94.914	13.816	1016.617	762.902
95.928	13.910	1015.737	762.606
96.943	14.072	1014.911	762.660
97.957	13.904	1014.440	761.467
98.972	13.992	1013.162	760.843
99.987	13.881	1012.343	759.654
101.001	13.871	1011.985	759.271
102.016	13.952	1010.827	758.705
103.030	13.969	1010.161	758.216
104.045	13.855	1009.316	756.998
105.060	13.979	1007.957	756.477
106.074	13.868	1006.912	755.118
107.089	13.805	1006.326	754.325
108.103	13.767	1005.481	753.452
109.118	13.870	1004.484	753.105
110.133	13.749	1003.661	751.875
111.147	13.773	1002.768	751.246
112.162	13.920	1001.759	751.090
113.176	13.851	1000.672	749.898
114.191	13.888	999.916	749.430
115.206	13.964	998.953	748.986
116.220	13.866	998.065	747.814
117.235	13.834	997.566	747.230
118.249	13.860	996.401	746.405
119.264	13.831	995.654	745.652
120.279	13.811	994.911	744.940
121.293	13.765	994.118	744.073
122.308	13.855	993.674	744.076
123.322	13.891	992.375	743.202
124.337	13.889	991.363	742.370
125.352	13.787	990.374	741.107
126.366	13.707	989.411	739.965
127.381	13.702	988.291	739.036
128.395	13.754	987.207	738.391
129.410	13.741	986.167	737.493
130.424	13.781	985.218	736.894
131.439	13.660	984.588	735.824
132.454	13.779	983.625	735.566
133.468	13.808	982.960	735.130
134.483	13.795	982.318	734.530
135.497	13.757	981.804	733.913
136.512	13.854	980.504	733.301
137.527	13.835	979.838	732.653
138.541	13.705	979.291	731.609
139.556	13.783	978.870	731.574
140.570	13.970	977.680	731.442
141.585	13.888	976.985	730.498
142.600	13.799	976.198	729.453
143.614	13.950	975.485	729.518
144.629	13.950	974.676	728.847
145.643	14.062	973.571	728.447
146.658	14.042	973.100	727.942
147.673	14.124	972.447	727.752
148.687	13.962	971.598	726.340
149.702	14.026	970.453	725.700
150.716	13.937	969.433	724.484
151.731	13.993	968.824	724.212
152.746	13.969	968.187	723.569
153.760	14.000	967.113	722.834
154.775	14.058	966.347	722.450
155.789	14.028	965.687	721.765
156.804	14.081	964.919	721.355
157.819	14.096	964.253	720.860
158.833	14.078	963.119	719.869
159.848	14.256	962.285	719.951
160.862	14.118	962.180	719.214
161.877	14.132	961.108	718.406
162.892	14.138	959.979	717.525
163.906	13.962	959.746	716.528
164.921	14.012	959.382	716.409
165.935	14.129	957.819	715.683
166.950	14.071	956.972	714.739
167.964	14.186	955.521	714.083
168.979	14.321	954.700	713.987
169.994	14.152	953.968	712.652
171.008	14.172	953.094	712.020
172.023	14.192	952.205	711.378
173.037	14.330	951.463	711.353
174.052	14.262	950.890	710.570
175.067	14.329	950.092	710.196
176.081	14.363	949.083	709.525
177.096	14.198	948.465	708.299
178.110	14.272	947.174	707.585
179.125	14.135	947.324	707.051
180.140	14.176	946.345	706.434
181.154	14.274	945.689	706.297
182.169	14.319	945.050	705.946
183.183	14.342	944.798	705.796
184.198	14.339	943.485	704.739
185.213	14.420	942.414	704.217
186.227	14.368	942.045	703.661
187.242	14.404	941.469	703.318
188.256	14.415	941.153	703.070
189.271	14.600	939.728	702.721
190.286	14.486	939.538	702.036
191.300	14.518	938.199	701.109
192.315	14.248	938.148	699.875
193.329	14.356	937.020	699.423
194.344	14.233	936.395	698.380
195.359	14.484	935.738	698.878
196.373	14.448	935.305	698.342
197.388	14.538	934.670	698.184
198.402	14.516	933.734	697.331
199.417	14.565	933.783	697.509
200.432	14.572	933.022	696.909
201.446	14.739	932.244	696.964
202.461	14.676	932.423	696.772
203.475	14.578	932.135	696.086
204.490	14.838	930.659	696.005
205.504	14.750	929.864	694.986
206.519	14.609	929.170	693.817
207.534	14.687	928.661	693.699
208.548	14.642	927.618	692.674
209.563	14.714	927.061	692.493
210.577	14.756	926.403	692.115
211.592	14.579	926.012	691.029
212.607	14.578	925.684	690.719
213.621	14.793	924.476	690.645
214.636	14.750	923.950	690.013
215.650	14.738	923.425	689.511
216.665	14.734	922.609	688.823
217.680	14.861	922.069	688.882
218.694	14.824	921.874	688.525
219.709	14.851	921.154	688.037
220.723	14.818	920.738	687.531
221.738	14.936	919.662	687.150
222.753	14.922	918.953	686.501
223.767	14.882	918.292	685.785
224.782	15.004	917.379	685.541
225.796	14.860	916.678	684.365
226.811	15.049	915.679	684.334
227.826	14.933	915.343	683.548
228.840	15.026	914.660	683.356
229.855	14.959	914.165	682.652
230.869	14.924	913.560	682.000
231.884	14.918	912.750	681.307
232.899	14.921	911.944	680.660
233.913	15.044	911.115	680.481
234.928	14.958	910.442	679.569
235.942	14.934	909.580	678.769
236.957	15.006	908.965	678.541
237.972	15.026	908.454	678.178
238.986	15.076	907.724	677.776
240.001	14.976	907.254	676.963
241.015	15.013	906.253	676.303
242.030	15.093	905.762	676.201
243.045	15.090	905.257	675.754
244.059	15.183	904.675	675.632
245.074	15.131	903.970	674.837
246.088	15.100	903.150	674.039
247.103	15.158	902.705	673.882
248.117	15.294	901.969	673.821
249.132	15.164	901.821	673.128
250.147	15.304	900.780	672.851
251.161	15.308	899.941	672.184
252.176	15.330	899.684	672.017
253.190	15.448	898.716	671.710
254.205	15.360	898.061	670.810
255.220	15.518	897.242	670.770
256.234	15.461	896.314	669.788
257.249	15.404	896.135	669.368
258.263	15.550	895.439	669.372
259.278	15.536	895.170	669.052
260.293	15.538	894.399	668.428
261.307	15.456	893.805	667.597
262.322	15.572	893.059	667.442
263.336	15.562	892.678	667.059
264.351	15.691	892.040	667.035
265.366	15.699	891.193	666.376
266.380	15.560	890.714	665.407
267.395	15.664	890.135	665.328
268.409	15.594	889.524	664.533
269.424	15.650	888.522	663.949
270.439	15.780	887.677	663.770
271.453	15.792	886.978	663.238
272.468	15.650	886.441	662.218
273.482	15.707	885.471	661.658
274.497	15.626	884.977	660.911
275.512	15.752	884.365	660.890
276.526	15.747	883.506	660.169
277.541	15.810	882.890	659.901
278.555	15.709	882.648	659.266
279.570	15.874	881.554	659.035
280.585	15.889	881.319	658.861
281.599	15.882	881.146	658.644
282.614	15.884	880.154	657.853
283.628	16.036	879.139	657.629
284.643	15.994	878.589	656.995
285.657	15.968	878.422	656.711
286.672	15.809	878.002	655.721
287.687	15.865	877.391	655.424
288.701	15.976	876.609	655.214
289.716	15.998	876.080	654.846
290.730	15.828	875.714	653.855
291.745	15.914	874.810	653.454
292.760	16.061	873.888	653.279
293.774	16.155	873.313	653.154
294.789	16.097	872.851	652.526
295.803	16.091	872.229	651.980
296.818	16.088	871.696	651.511
297.833	16.137	870.750	650.935
298.847	16.034	870.163	650.043
299.862	16.067	869.233	649.420
300.876	16.127	868.434	648.996
301.891	16.182	868.211	648.983
302.906	16.301	867.358	648.746
303.920	16.252	866.894	648.151
304.935	16.362	866.138	647.950
305.949	16.334	865.784	647.521
306.964	16.428	865.021	647.254
307.979	16.384	864.475	646.620
308.993	16.319	863.939	645.914
310.008	16.340	863.598	645.680
311.022	16.460	862.712	645.421
312.037	16.426	862.024	644.719
313.052	16.416	861.976	644.586
314.066	16.450	860.961	643.899
315.081	16.347	860.725	643.276
316.095	16.337	860.036	642.664
317.110	16.342	859.825	642.471
318.125	16.466	858.958	642.237
319.139	16.383	858.707	641.678
320.154	16.292	858.215	640.905
321.168	16.314	857.562	640.447
322.183	16.448	856.630	640.198
323.197	16.462	856.228	639.895
324.212	16.419	855.511	639.142
325.227	16.449	855.016	638.828
326.241	16.555	854.372	638.691
327.256	16.569	854.119	638.497
328.270	16.612	852.811	637.627
329.285	16.495	852.610	636.979
330.300	16.511	852.161	636.648
331.314	16.511	851.879	636.378
332.329	16.430	851.164	635.484
333.343	16.675	850.243	635.663
334.358	16.627	849.964	635.215
335.373	16.652	849.278	634.742
336.387	16.558	849.144	634.231
337.402	16.597	848.705	633.996
338.416	16.638	848.114	633.650
339.431	16.643	847.611	633.236
340.446	16.853	846.542	633.165
341.460	16.760	846.220	632.521
342.475	16.789	845.759	632.230
343.489	16.798	844.805	631.494
344.504	16.794	844.540	631.228
345.519	16.928	843.857	631.158
346.533	16.844	843.513	630.533
347.548	16.971	842.813	630.427
348.562	16.866	842.161	629.493
349.577	16.985	841.604	629.461
350.592	16.955	841.228	629.016
351.606	16.951	840.634	628.499
352.621	16.861	840.630	628.105
353.635	16.948	839.937	627.855
354.650	17.048	839.171	627.596
355.665	16.965	838.964	627.081
356.679	16.961	838.599	626.738
357.694	16.962	838.406	626.541
358.708	17.053	837.440	626.099
359.723	17.075	836.734	625.597
360.738	17.095	835.856	624.958
361.752	17.017	836.076	624.779
362.767	17.010	835.494	624.264
363.781	17.079	835.143	624.199
364.796	17.152	834.256	623.750
365.810	17.206	834.034	623.730
366.825	17.194	833.930	623.551
367.840	17.271	833.008	623.088
368.854	17.217	832.918	622.769
369.869	17.290	832.218	622.456
370.883	17.194	831.990	621.879
371.898	17.233	831.275	621.432
372.913	17.333	830.525	621.184
373.927	17.294	829.988	620.584
374.942	17.393	829.184	620.289
375.956	17.337	828.413	619.456
376.971	17.192	828.616	619.022
377.986	17.346	827.756	618.886
379.000	17.446	827.016	618.640
380.015	17.524	826.390	618.401
381.029	17.570	825.875	618.128
382.044	17.474	825.257	617.263
383.059	17.404	824.953	616.726
384.073	17.554	824.348	616.763
385.088	17.809	823.720	617.159
386.102	17.524	823.341	615.793
387.117	17.552	822.465	615.186
388.132	17.494	822.497	614.946
389.146	17.534	821.930	614.611
390.161	17.513	821.732	614.331
391.175	17.467	821.358	613.832
392.190	17.594	820.853	613.858
393.205	17.651	820.291	613.589
394.219	17.463	819.965	612.614
395.234	17.720	819.104	612.840
396.248	17.668	818.550	612.186
397.263	17.433	818.431	611.198
398.278	17.625	817.645	611.245
399.292	17.527	817.525	610.750
400.307	17.625	817.022	610.670
401.321	17.612	816.648	610.290
402.336	17.661	816.286	610.143
403.350	17.653	815.979	609.829
404.365	17.596	815.793	609.433
405.380	17.822	814.809	609.451
406.394	17.819	814.399	609.081
407.409	17.882	814.089	609.018
408.423	17.884	813.792	608.751
409.438	17.822	813.207	608.036
410.453	17.889	812.530	607.717
411.467	18.031	811.979	607.755
412.482	17.877	811.990	607.162
413.496	17.923	811.458	606.875
414.511	17.995	810.808	606.591
415.526	17.952	810.570	606.206
416.540	17.881	810.240	605.654
417.555	18.089	809.528	605.804
418.569	18.136	808.935	605.473
419.584	18.065	808.565	604.893
420.599	18.172	807.797	604.643
421.613	115.884	1300.091	1492.559
422.628	100.213	1371.748	1492.598
