DTS Sentinel unit serial number:	SN413079Multiplexer serial number:	ORYXHardware model number:	OX4-SRSoftware version number:	ORYX F/W v4.00 Oryx Data Collector v3.7.2.0data status	okinstallation	princeton_trtdifferential loss correction	single-endedforward channel	channel 3reverse channel	N/Adate	2019/09/16time	10:04:34forward acquisition time	60.00reverse acquisition time	0.00gamma	496.2192k internal	0.2314k external	0.2314temperature offset calibration	0.9947default loss term (dB/km)	0.3790temperature slope calibration	1.0000multiplexer offset coefficient	1.0000multiplexer slope coefficient	1.0000fibre end	0.00T internal ref (°C)	33.67T ext. ref 1 (°C)	12.41T ext. ref 2 (°C)	32.26length (m)	temperature (°C)	Stokes	anti-Stokes-747.200	-200.000	-0.022	-0.152
-746.185	800.000	-0.048	0.153
-745.171	81.288	0.181	-0.199
-744.156	800.000	-0.073	0.218
-743.142	-149.542	-0.100	0.008
-742.127	-34.935	0.097	-0.054
-741.112	-49.255	-0.226	0.109
-740.098	-159.680	-0.268	0.015
-739.083	8.466	0.245	0.187
-738.069	-10.166	-0.060	-0.041
-737.054	-123.883	-0.351	0.056
-736.039	67.372	-0.048	-0.050
-735.025	417.897	0.178	0.386
-734.010	381.873	-0.079	-0.164
-732.996	800.000	0.068	-0.284
-731.981	510.667	0.064	0.151
-730.966	-118.882	-0.123	0.022
-729.952	-69.773	0.102	0.039
-728.937	70.141	-0.239	-0.250
-727.923	397.173	-0.170	-0.361
-726.908	-113.845	-0.342	-0.067
-725.894	112.826	0.072	-0.088
-724.879	-150.119	-0.289	0.023
-723.864	144.714	0.087	-0.118
-722.850	-35.561	0.220	-0.121
-721.835	-42.134	-0.396	-0.205
-720.821	-200.000	0.024	-0.484
-719.806	190.186	0.060	-0.091
-718.791	-200.000	-0.027	-0.438
-717.777	6.579	-0.081	0.061
-716.762	56.406	-0.068	0.067
-715.748	-200.000	0.073	0.352
-714.733	56.988	0.043	0.042
-713.718	-120.012	0.086	-0.015
-712.704	49.605	-0.107	-0.102
-711.689	31.219	-0.207	0.179
-710.675	-96.630	-0.375	0.100
-709.660	95.262	-0.265	-0.306
-708.645	-200.000	-0.015	-0.305
-707.631	-200.000	0.032	0.393
-706.616	-200.000	-0.025	0.183
-705.602	-200.000	-0.007	0.080
-704.587	27.894	0.278	-0.237
-703.572	-14.702	-0.112	-0.073
-702.558	3.126	-0.266	0.196
-701.543	-115.284	0.305	0.058
-700.529	536.937	-0.103	-0.249
-699.514	95.678	0.005	0.005
-698.499	-85.809	-0.282	0.088
-697.485	-3.652	0.280	0.197
-696.470	-160.912	0.404	0.022
-695.456	-200.000	0.029	0.496
-694.441	-200.000	-0.024	0.134
-693.426	90.590	0.222	-0.251
-692.412	253.051	-0.075	-0.129
-691.397	800.000	0.104	0.442
-690.383	-19.212	-0.385	-0.242
-689.368	800.000	-0.051	-0.164
-688.354	130.519	0.293	0.381
-687.339	233.929	-0.076	-0.126
-686.324	-126.566	-0.180	-0.027
-685.310	-83.793	-0.323	0.104
-684.295	-98.902	-0.226	0.058
-683.281	800.000	0.050	0.172
-682.266	299.910	0.117	-0.218
-681.251	-200.000	0.022	-0.173
-680.237	-171.105	-0.281	-0.010
-679.222	-123.668	-0.204	0.033
-678.208	-117.960	0.286	-0.052
-677.193	56.310	0.204	-0.200
-676.178	-200.000	-0.016	-0.071
-675.164	18.606	-0.279	-0.226
-674.149	205.311	-0.288	-0.452
-673.135	-106.392	-0.178	-0.040
-672.120	800.000	-0.020	0.062
-671.105	-55.440	-0.222	-0.101
-670.091	800.000	0.043	-0.124
-669.076	325.303	0.048	0.093
-668.062	90.374	-0.269	0.304
-667.047	-118.849	0.247	0.044
-666.032	301.457	-0.074	-0.139
-665.018	-193.712	0.254	-0.002
-664.003	-22.438	-0.357	0.218
-662.989	-39.161	0.050	-0.026
-661.974	-117.107	-0.415	0.076
-660.959	593.401	-0.110	0.275
-659.945	2.603	0.126	0.092
-658.930	31.521	-0.179	0.155
-657.916	-7.557	-0.129	0.088
-656.901	800.000	-0.029	-0.099
-655.886	-200.000	0.009	0.278
-654.872	-185.475	-0.215	0.003
-653.857	800.000	0.087	0.269
-652.843	-59.309	-0.176	-0.076
-651.828	517.316	0.150	-0.355
-650.814	-200.000	-0.032	-0.641
-649.799	800.000	-0.048	-0.158
-648.784	800.000	-0.110	-0.369
-647.770	171.285	-0.102	-0.148
-646.755	450.408	-0.048	0.107
-645.741	86.753	0.275	0.307
-644.726	800.000	-0.107	0.329
-643.711	-96.953	-0.174	0.046
-642.697	339.243	0.136	-0.267
-641.682	-200.000	0.043	-0.190
-640.668	800.000	-0.165	0.555
-639.653	403.435	-0.106	0.226
-638.638	76.067	-0.119	-0.127
-637.624	800.000	0.032	-0.106
-636.609	-112.203	0.133	0.027
-635.595	800.000	-0.046	0.184
-634.580	-26.812	-0.157	0.093
-633.565	-200.000	-0.034	0.224
-632.551	800.000	0.054	-0.233
-631.536	303.120	0.135	0.253
-630.522	-200.000	-0.069	-0.412
-629.507	-200.000	0.099	-0.451
-628.492	669.293	0.066	0.173
-627.478	-66.514	0.248	-0.099
-626.463	340.786	-0.119	-0.235
-625.449	-127.616	-0.152	-0.022
-624.434	-20.989	0.265	0.164
-623.419	183.533	-0.162	-0.242
-622.405	743.429	0.123	0.335
-621.390	167.908	-0.174	-0.250
-620.376	-71.047	-0.248	-0.094
-619.361	-36.689	0.112	-0.061
-618.346	-200.000	-0.066	0.314
-617.332	179.712	-0.217	-0.321
-616.317	31.716	-0.325	0.283
-615.303	1.790	0.306	0.222
-614.288	800.000	-0.018	-0.054
-613.273	800.000	0.094	0.401
-612.259	51.977	-0.231	0.222
-611.244	-59.676	0.069	0.030
-610.230	800.000	-0.066	-0.220
-609.215	-72.805	0.234	-0.087
-608.201	97.068	0.063	0.073
-607.186	160.158	0.211	-0.297
-606.171	-46.735	0.417	-0.206
-605.157	-19.658	-0.400	-0.250
-604.142	-82.368	0.186	0.061
-603.128	68.205	-0.291	0.300
-602.113	168.087	0.187	0.268
-601.098	-68.030	0.338	-0.133
-600.084	-200.000	-0.072	0.460
-599.069	51.413	0.129	0.123
-598.055	-139.888	-0.109	-0.012
-597.040	-200.000	-0.010	0.049
-596.025	-118.318	0.293	0.053
-595.011	800.000	0.035	0.114
-593.996	-47.220	0.218	0.107
-592.982	694.569	0.117	-0.309
-591.967	-200.000	-0.120	-0.000
-590.952	-148.350	0.093	-0.008
-589.938	588.098	-0.093	-0.232
-588.923	-120.437	0.286	0.049
-587.909	-200.000	0.062	-0.392
-586.894	15.517	-0.092	-0.073
-585.879	-158.356	0.273	-0.016
-584.865	687.092	0.035	0.092
-583.850	-113.616	-0.225	0.044
-582.836	126.665	-0.383	-0.488
-581.821	-62.544	0.101	0.042
-580.806	-44.607	-0.120	-0.060
-579.792	-200.000	0.028	0.132
-578.777	-17.278	-0.132	0.084
-577.763	800.000	-0.093	-0.370
-576.748	-156.665	-0.207	-0.013
-575.733	-70.320	-0.218	0.083
-574.719	-103.334	-0.162	0.039
-573.704	92.666	0.237	-0.269
-572.690	134.286	-0.218	0.285
-571.675	-200.000	0.057	0.263
-570.661	-102.564	-0.097	0.023
-569.646	62.315	0.108	0.108
-568.631	-200.000	-0.057	-0.321
-567.617	163.720	-0.149	-0.211
-566.602	-72.085	0.261	0.098
-565.588	-149.810	-0.354	-0.028
-564.573	25.073	-0.100	0.084
-563.558	-200.000	-0.015	0.230
-562.544	-200.000	0.014	-0.186
-561.529	-148.173	0.166	0.014
-560.515	800.000	-0.084	-0.275
-559.500	-96.813	0.209	0.055
-558.485	-114.016	0.268	0.052
-557.471	242.392	-0.108	-0.183
-556.456	146.612	-0.148	-0.200
-555.442	-10.644	0.076	0.051
-554.427	-30.854	-0.080	-0.046
-553.412	259.279	-0.051	0.089
-552.398	-200.000	0.042	-0.237
-551.383	60.728	-0.054	-0.053
-550.369	-177.829	0.300	-0.007
-549.354	-64.989	-0.071	0.029
-548.339	-83.366	0.272	-0.088
-547.325	-28.659	0.169	0.098
-546.310	446.616	-0.040	0.089
-545.296	32.095	-0.335	-0.290
-544.281	-200.000	0.041	-0.181
-543.266	-200.000	0.029	-0.208
-542.252	195.601	0.117	-0.178
-541.237	129.210	-0.254	-0.326
-540.223	63.204	0.091	-0.092
-539.208	-52.489	0.085	0.039
-538.193	346.927	-0.165	-0.327
-537.179	-131.364	0.310	-0.041
-536.164	425.273	0.170	-0.369
-535.150	800.000	0.018	-0.054
-534.135	-5.552	-0.162	0.112
-533.121	577.013	-0.080	-0.198
-532.106	-46.862	-0.169	0.083
-531.091	-76.343	-0.097	-0.034
-530.077	800.000	-0.143	0.474
-529.062	63.701	0.124	-0.125
-528.048	-200.000	0.012	0.085
-527.033	-98.705	-0.227	-0.058
-526.018	40.158	0.146	0.132
-525.004	17.662	0.195	0.156
-523.989	-112.173	-0.631	-0.127
-522.975	-26.309	0.205	-0.121
-521.960	55.380	0.080	0.077
-520.945	78.172	-0.270	-0.289
-519.931	-116.490	-0.226	-0.042
-518.916	-200.000	0.030	0.304
-517.902	-200.000	0.053	-0.246
-516.887	-200.000	-0.002	0.154
-515.872	-73.721	-0.120	-0.044
-514.858	-200.000	-0.017	0.209
-513.843	-200.000	-0.036	0.394
-512.829	-133.499	-0.158	0.020
-511.814	-200.000	0.022	-0.109
-510.799	-110.352	0.150	-0.031
-509.785	-200.000	-0.012	0.123
-508.770	330.590	0.090	-0.174
-507.756	800.000	-0.065	0.229
-506.741	-139.769	-0.176	0.019
-505.726	-200.000	-0.051	0.282
-504.712	-39.213	-0.316	0.167
-503.697	-99.422	0.318	0.081
-502.683	-96.540	0.160	0.042
-501.668	101.935	0.067	-0.079
-500.653	-200.000	0.049	-0.329
-499.639	37.822	-0.299	0.267
-498.624	-116.317	-0.314	0.058
-497.610	80.089	0.132	-0.142
-496.595	-197.567	-0.151	0.001
-495.581	-200.000	0.013	-0.325
-494.566	800.000	-0.078	-0.254
-493.551	59.148	-0.139	0.138
-492.537	437.651	0.089	-0.196
-491.522	-82.587	0.128	-0.042
-490.508	800.000	0.075	0.217
-489.493	800.000	-0.040	-0.164
-488.478	152.057	0.146	-0.200
-487.464	-97.907	0.270	0.070
-486.449	-134.631	0.214	0.026
-485.435	48.065	-0.108	0.102
-484.420	571.607	0.101	-0.247
-483.405	-90.902	0.234	0.068
-482.391	-200.000	-0.056	-0.270
-481.376	-38.460	0.127	-0.067
-480.362	-66.526	0.236	-0.094
-479.347	-108.514	-0.218	0.047
-478.332	-200.000	0.029	0.132
-477.318	-200.000	-0.033	-0.298
-476.303	800.000	0.056	0.180
-475.289	237.008	0.019	-0.032
-474.274	651.249	-0.012	0.030
-473.259	442.743	0.089	0.195
-472.245	127.719	-0.118	-0.150
-471.230	-129.531	-0.254	-0.035
-470.216	-200.000	-0.025	0.144
-469.201	158.962	0.234	-0.326
-468.186	246.686	-0.053	0.089
-467.172	210.522	-0.185	-0.291
-466.157	-41.627	-0.280	0.144
-465.143	361.098	-0.073	0.148
-464.128	116.423	0.316	-0.389
-463.113	-62.599	-0.090	0.038
-462.099	800.000	0.065	0.190
-461.084	-49.255	0.174	-0.083
-460.070	800.000	0.075	-0.275
-459.055	581.097	-0.055	-0.134
-458.040	-30.810	-0.083	-0.047
-457.026	-70.687	-0.117	0.044
-456.011	296.866	0.115	0.212
-454.997	238.370	0.025	-0.041
-453.982	467.025	0.119	0.266
-452.968	-111.070	-0.111	-0.023
-451.953	-200.000	-0.063	-0.305
-450.938	-68.882	-0.286	0.111
-449.924	-32.160	0.200	-0.112
-448.909	-44.982	-0.274	-0.137
-447.895	695.579	0.088	0.231
-446.880	303.970	-0.055	-0.102
-445.865	12.795	0.083	-0.064
-444.851	393.035	0.078	0.162
-443.836	-200.000	-0.024	0.241
-442.822	-132.631	0.261	0.034
-441.807	-200.000	-0.002	0.074
-440.792	11.851	0.256	-0.197
-439.778	52.980	-0.044	0.042
-438.763	33.290	-0.166	0.144
-437.749	-20.573	-0.345	-0.212
-436.734	86.618	-0.162	0.179
-435.719	98.683	0.075	0.087
-434.705	639.813	-0.054	-0.139
-433.690	33.711	-0.045	0.039
-432.676	207.526	-0.200	0.313
-431.661	-200.000	0.076	0.515
-430.646	467.742	-0.119	0.268
-429.632	379.052	0.113	-0.232
-428.617	800.000	-0.047	0.181
-427.603	43.830	-0.076	0.069
-426.588	-200.000	0.027	-0.127
-425.573	314.689	-0.142	0.268
-424.559	564.025	0.106	0.256
-423.544	200.440	0.059	-0.091
-422.530	-146.672	-0.090	-0.008
-421.515	14.787	-0.216	-0.169
-420.500	-200.000	-0.034	-0.363
-419.486	-200.000	-0.029	0.159
-418.471	-20.856	0.149	-0.091
-417.457	746.309	0.011	0.029
-416.442	-106.925	0.199	-0.044
-415.428	-7.012	0.201	-0.137
-414.413	-53.306	-0.408	0.187
-413.398	-71.396	0.155	-0.058
-412.384	-158.788	-0.070	-0.004
-411.369	800.000	0.074	0.319
-410.355	-93.467	0.105	0.029
-409.340	-42.649	0.197	-0.100
-408.325	-56.276	-0.243	-0.108
-407.311	-53.583	-0.168	-0.077
-406.296	-200.000	-0.004	-0.126
-405.282	-87.908	0.201	-0.060
-404.267	800.000	0.046	-0.168
-403.252	53.447	-0.164	-0.158
-402.238	-20.280	-0.163	0.100
-401.223	-200.000	-0.061	-0.280
-400.209	-170.599	0.334	0.012
-399.194	30.747	-0.287	0.246
-398.179	379.760	-0.133	0.273
-397.165	79.714	0.098	0.105
-396.150	-1.091	0.267	-0.189
-395.136	-200.000	-0.024	0.119
-394.121	-200.000	0.045	0.203
-393.106	-142.344	-0.462	0.046
-392.092	800.000	0.060	0.201
-391.077	-20.048	0.318	0.196
-390.063	-200.000	0.020	0.146
-389.048	-200.000	-0.003	0.351
-388.033	800.000	-0.053	0.175
-387.019	91.444	-0.041	-0.046
-386.004	-97.804	0.354	0.092
-384.990	-159.751	0.241	-0.013
-383.975	-200.000	-0.019	0.165
-382.960	474.205	-0.088	0.198
-381.946	-200.000	-0.030	-0.194
-380.931	-35.480	-0.005	-0.003
-379.917	113.899	0.175	0.213
-378.902	661.743	0.037	0.096
-377.888	-27.052	0.074	0.043
-376.873	800.000	-0.122	0.377
-375.858	-200.000	-0.062	-0.434
-374.844	-200.000	0.022	-0.109
-373.829	-45.087	0.209	-0.104
-372.815	91.041	-0.069	-0.077
-371.800	575.342	-0.020	-0.048
-370.785	1.290	-0.148	0.107
-369.771	-17.937	-0.051	-0.032
-368.756	-79.561	0.290	-0.098
-367.742	-94.754	-0.158	-0.043
-366.727	-117.669	0.259	-0.047
-365.712	-44.925	-0.144	-0.072
-364.698	-200.000	0.008	0.063
-363.683	135.483	0.075	-0.097
-362.669	-200.000	0.043	0.232
-361.654	-145.387	-0.069	0.006
-360.639	288.533	0.146	-0.265
-359.625	-200.000	0.034	0.355
-358.610	132.823	-0.095	0.123
-357.596	14.963	-0.281	0.220
-356.581	191.134	0.085	0.128
-355.566	-200.000	-0.037	-0.192
-354.552	539.481	-0.052	0.124
-353.537	800.000	-0.053	0.161
-352.523	57.585	-0.277	-0.270
-351.508	800.000	-0.083	0.243
-350.493	800.000	-0.036	0.149
-349.479	318.043	0.095	-0.180
-348.464	-73.566	0.273	0.099
-347.450	800.000	0.075	0.236
-346.435	-135.772	0.445	0.053
-345.420	-29.989	0.274	0.156
-344.406	84.590	-0.349	0.381
-343.391	102.959	0.117	0.137
-342.377	800.000	-0.077	-0.283
-341.362	87.117	0.084	0.092
-340.348	-105.973	-0.239	-0.054
-339.333	-149.816	0.096	-0.008
-338.318	-66.417	-0.231	0.092
-337.304	-200.000	-0.007	0.354
-336.289	412.286	-0.097	-0.206
-335.275	-40.965	0.354	-0.182
-334.260	800.000	0.103	0.410
-333.245	13.006	-0.228	0.176
-332.231	-41.590	0.161	-0.082
-331.216	-119.418	0.108	0.019
-330.202	-84.584	0.112	-0.035
-329.187	-49.707	-0.256	-0.122
-328.172	-200.000	-0.021	-0.118
-327.158	-64.398	-0.163	0.066
-326.143	800.000	0.049	-0.171
-325.129	-200.000	-0.015	-0.110
-324.114	-100.200	0.115	0.029
-323.099	93.744	-0.082	0.093
-322.085	183.176	-0.111	-0.164
-321.070	-87.333	-0.405	-0.122
-320.056	509.709	0.057	-0.131
-319.041	-80.863	0.129	-0.043
-318.026	-13.543	0.293	0.190
-317.012	37.596	-0.441	0.390
-315.997	-88.611	-0.191	-0.057
-314.983	-55.513	-0.209	0.093
-313.968	-200.000	0.048	-0.428
-312.953	465.659	-0.085	0.190
-311.939	-108.204	-0.257	0.056
-310.924	7.584	0.118	-0.088
-309.910	165.907	-0.052	0.073
-308.895	51.366	0.150	-0.142
-307.880	33.535	-0.232	-0.201
-306.866	-74.973	0.072	0.026
-305.851	-61.983	0.146	-0.061
-304.837	800.000	-0.108	0.298
-303.822	-0.612	-0.227	0.161
-302.807	-47.722	-0.312	-0.151
-301.793	-42.172	0.257	-0.131
-300.778	431.145	0.107	0.231
-299.764	-200.000	-0.036	0.273
-298.749	306.647	0.084	-0.156
-297.735	16.536	0.172	-0.135
-296.720	-87.487	-0.309	0.093
-295.705	-200.000	-0.023	0.295
-294.691	79.777	0.087	-0.093
-293.676	-74.389	-0.331	-0.119
-292.662	-200.000	0.029	-0.152
-291.647	208.375	-0.176	-0.274
-290.632	-164.619	-0.076	0.003
-289.618	-200.000	0.024	-0.175
-288.603	35.001	0.226	0.197
-287.589	-88.579	-0.195	0.058
-286.574	-86.217	-0.054	-0.016
-285.559	141.486	-0.105	-0.139
-284.545	-24.009	0.150	0.089
-283.530	-200.000	0.025	-0.166
-282.516	44.387	-0.099	0.090
-281.501	-128.171	0.468	0.067
-280.486	109.172	0.162	-0.193
-279.472	-143.906	-0.157	0.015
-278.457	344.309	-0.147	-0.287
-277.443	15.939	-0.099	-0.078
-276.428	-89.656	0.318	0.093
-275.413	252.470	-0.145	0.246
-274.399	800.000	0.052	0.205
-273.384	-95.020	0.474	0.128
-272.370	115.501	0.101	0.123
-271.355	-57.620	0.294	0.128
-270.340	-93.170	-0.240	0.066
-269.326	404.300	-0.093	-0.195
-268.311	-62.871	-0.255	-0.105
-267.297	800.000	0.039	0.150
-266.282	-85.743	0.357	0.110
-265.267	69.556	0.225	0.231
-264.253	248.468	0.134	-0.225
-263.238	30.429	0.236	-0.200
-262.224	-29.072	-0.060	0.034
-261.209	542.894	0.026	-0.061
-260.195	-200.000	-0.007	-0.326
-259.180	-113.354	0.128	-0.025
-258.165	800.000	-0.094	0.282
-257.151	15.205	0.099	0.077
-256.136	-153.838	0.368	0.025
-255.122	62.464	-0.091	-0.090
-254.107	296.589	-0.013	0.023
-253.092	472.330	-0.051	0.114
-252.078	-114.804	-0.176	0.033
-251.063	-200.000	-0.020	0.130
-250.049	557.185	-0.068	0.164
-249.034	135.702	0.252	-0.326
-248.019	269.520	-0.208	-0.364
-247.005	-3.514	0.293	0.203
-245.990	-200.000	-0.075	-0.418
-244.976	58.368	-0.005	-0.005
-243.961	-200.000	-0.011	-0.151
-242.946	48.443	-0.082	-0.076
-241.932	-145.720	0.326	0.029
-240.917	-200.000	-0.046	-0.287
-239.903	-12.921	0.192	-0.125
-238.888	265.373	0.113	-0.196
-237.873	-40.400	0.167	0.086
-236.859	800.000	0.150	0.436
-235.844	630.403	0.055	0.137
-234.830	-21.830	-0.156	-0.095
-233.815	-81.482	0.240	0.078
-232.800	800.000	-0.072	0.243
-231.786	111.049	-0.087	0.104
-230.771	177.574	0.075	0.109
-229.757	-7.983	0.095	-0.064
-228.742	-39.815	0.340	-0.176
-227.727	-173.303	0.264	-0.008
-226.713	-45.389	-0.413	0.203
-225.698	-200.000	-0.018	0.402
-224.684	230.773	-0.078	0.127
-223.669	176.803	0.114	0.164
-222.655	800.000	-0.089	-0.257
-221.640	333.419	0.152	-0.291
-220.625	-24.103	0.243	0.144
-219.611	-43.147	0.155	-0.078
-218.596	256.820	0.116	-0.199
-217.582	800.000	0.014	-0.060
-216.567	800.000	0.058	-0.187
-215.552	-75.671	-0.123	0.043
-214.538	49.867	-0.259	-0.243
-213.523	226.341	0.098	0.158
-212.509	-93.444	0.117	0.032
-211.494	541.807	-0.093	0.221
-210.479	68.518	-0.204	-0.208
-209.465	174.260	0.164	-0.235
-208.450	73.942	0.183	-0.190
-207.436	62.618	0.178	-0.177
-206.421	-115.146	-0.307	-0.058
-205.406	800.000	0.027	-0.079
-204.392	-71.986	-0.257	0.095
-203.377	33.694	0.099	0.086
-202.363	-200.000	0.012	-0.207
-201.348	-25.885	-0.217	-0.127
-200.333	-30.555	-0.303	0.170
-199.319	-200.000	0.047	0.255
-198.304	-26.675	0.223	-0.129
-197.290	112.831	0.216	0.260
-196.275	-144.064	0.273	0.025
-195.260	-9.285	0.286	0.190
-194.246	-123.369	-0.315	-0.050
-193.231	-200.000	-0.045	-0.236
-192.217	-135.715	0.232	-0.027
-191.202	71.902	-0.100	-0.103
-190.187	-200.000	-0.035	-0.154
-189.173	-99.270	0.193	0.048
-188.158	-200.000	0.089	0.000
-187.144	-200.000	-0.046	-0.203
-186.129	-68.822	-0.076	-0.029
-185.114	-95.906	0.279	0.074
-184.100	-200.000	0.044	-0.274
-183.085	-103.855	0.005	-0.001
-182.071	62.991	-0.264	0.263
-181.056	-106.482	-0.050	-0.011
-180.042	-200.000	0.005	-0.108
-179.027	140.606	0.118	0.154
-178.012	20.402	-0.162	0.130
-176.998	81.151	-0.200	-0.214
-175.983	-40.237	-0.050	-0.026
-174.969	-117.003	0.134	-0.024
-173.954	800.000	-0.060	-0.199
-172.939	-53.644	-0.200	-0.091
-171.925	-29.655	-0.118	-0.067
-170.910	-82.092	-0.221	0.072
-169.896	-57.585	0.176	0.076
-168.881	309.281	0.126	-0.234
-167.866	172.426	0.107	0.153
-166.852	-36.136	0.077	0.041
-165.837	155.545	-0.212	0.289
-164.823	-200.000	0.011	0.265
-163.808	52.109	-0.175	0.165
-162.793	91.638	-0.198	-0.221
-161.779	159.876	0.132	0.182
-160.764	65.781	0.110	0.110
-159.750	62.595	-0.223	0.221
-158.735	-37.924	-0.357	-0.188
-157.720	439.053	0.117	-0.253
-156.706	90.574	0.141	0.156
-155.691	-200.000	0.014	-0.234
-154.677	-70.282	0.042	0.016
-153.662	151.611	0.132	0.178
-152.647	-156.346	-0.387	-0.024
-151.633	-34.949	-0.214	0.116
-150.618	93.607	-0.207	-0.233
-149.604	52.914	-0.230	0.218
-148.589	-200.000	0.023	0.231
-147.574	-106.036	-0.131	0.029
-146.560	474.242	-0.152	0.340
-145.545	292.549	0.030	-0.054
-144.531	0.491	0.267	0.189
-143.516	664.270	0.019	0.049
-142.502	94.620	-0.153	0.172
-141.487	-200.000	-0.083	0.363
-140.472	184.748	-0.138	0.202
-139.458	-9.090	-0.087	-0.058
-138.443	-92.703	-0.245	-0.068
-137.429	-200.000	0.006	0.067
-136.414	-99.933	-0.024	-0.006
-135.399	-149.019	0.375	0.030
-134.385	-127.224	0.138	-0.020
-133.370	-9.895	-0.087	-0.057
-132.356	-60.418	-0.112	0.047
-131.341	800.000	-0.053	0.228
-130.326	-41.627	-0.087	0.044
-129.312	63.988	0.069	0.069
-128.297	1.606	-0.162	0.115
-127.283	-32.189	0.159	0.088
-126.268	-103.601	0.286	-0.067
-125.253	20.755	-0.179	-0.144
-124.239	800.000	0.064	0.246
-123.224	-200.000	0.052	-0.272
-122.210	68.166	0.056	-0.057
-121.195	-200.000	0.049	0.216
-120.180	-55.478	-0.127	0.057
-119.166	-114.758	0.356	0.067
-118.151	334.830	-0.165	-0.316
-117.137	800.000	-0.107	0.294
-116.122	110.759	0.185	0.220
-115.107	24.087	-0.132	0.108
-114.093	497.220	-0.109	-0.247
-113.078	63.048	-0.110	-0.109
-112.064	800.000	-0.061	-0.246
-111.049	-200.000	0.003	-0.032
-110.034	293.526	-0.158	0.285
-109.020	-117.259	0.240	0.043
-108.005	-17.103	-0.182	0.113
-106.991	-147.822	0.121	0.010
-105.976	-200.000	-0.020	0.153
-104.962	800.000	0.091	0.301
-103.947	86.400	-0.153	-0.167
-102.932	-200.000	0.037	-0.311
-101.918	-78.476	-0.059	-0.020
-100.903	-200.000	0.028	-0.158
-99.889	321.014	-0.120	-0.225
-98.874	-24.958	0.198	-0.116
-97.859	57.887	0.136	0.132
-96.845	-144.399	-0.196	0.018
-95.830	-88.102	-0.230	-0.068
-94.816	-72.075	0.056	0.021
-93.801	-200.000	-0.002	0.042
-92.786	211.165	-0.181	-0.282
-91.772	-40.261	0.144	-0.074
-90.757	6.389	-0.189	-0.139
-89.743	237.705	0.062	0.101
-88.728	-31.556	-0.173	-0.096
-87.713	64.511	-0.340	0.339
-86.699	563.962	-0.025	-0.059
-85.684	399.845	0.098	-0.203
-84.670	17.867	-0.167	0.132
-83.655	-200.000	0.026	0.439
-82.640	-163.764	0.049	0.002
-81.626	-200.000	0.039	0.311
-80.611	-200.000	-0.003	0.107
-79.597	-25.203	-0.083	0.049
-78.582	235.346	0.197	0.321
-77.567	-200.000	-0.075	0.463
-76.553	-16.786	-0.089	0.055
-75.538	393.486	-0.168	-0.346
-74.524	-101.755	0.097	0.023
-73.509	800.000	-0.022	0.087
-72.494	-71.340	0.226	-0.084
-71.480	800.000	0.079	-0.247
-70.465	-133.441	-0.120	0.015
-69.451	80.624	0.340	0.362
-68.436	151.217	-0.055	-0.074
-67.422	-121.568	-0.212	-0.035
-66.407	-200.000	0.068	-0.439
-65.392	-3.583	-0.062	0.043
-64.378	-97.826	-0.185	-0.047
-63.363	-73.340	0.222	0.080
-62.349	-142.347	0.206	0.020
-61.334	126.666	-0.729	-0.912
-60.319	536.287	0.219	0.513
-59.305	509.120	-0.319	-0.732
-58.290	115.242	0.569	0.685
-57.276	318.660	0.888	1.660
-56.261	-200.000	95.988	551.478
-55.246	507.499	1418.895	3249.844
-54.232	146.112	2639.692	3495.398
-53.217	108.670	2234.062	2633.998
-52.203	43.901	1758.083	1589.429
-51.188	36.719	1567.987	1367.011
-50.173	34.389	1540.801	1327.062
-49.159	51.820	1590.986	1494.100
-48.144	54.553	1610.227	1531.491
-47.130	37.057	1566.119	1367.548
-46.115	33.966	1550.078	1331.874
-45.100	33.751	1546.553	1327.291
-44.086	33.823	1544.645	1326.105
-43.071	33.742	1542.464	1323.611
-42.057	33.665	1541.378	1322.094
-41.042	33.592	1539.619	1320.020
-40.027	33.679	1538.460	1319.578
-39.013	33.736	1536.970	1318.646
-37.998	33.698	1535.288	1316.884
-36.984	33.660	1534.622	1315.999
-35.969	33.717	1533.078	1315.021
-34.954	33.649	1531.831	1313.425
-33.940	33.618	1530.455	1311.977
-32.925	33.692	1528.732	1310.965
-31.911	33.781	1527.476	1310.446
-30.896	33.734	1526.308	1309.068
-29.881	33.840	1524.980	1308.606
-28.867	33.866	1523.416	1307.391
-27.852	33.771	1521.911	1305.394
-26.838	33.742	1520.568	1303.993
-25.823	33.724	1519.513	1302.917
-24.809	33.676	1517.887	1301.136
-23.794	33.654	1515.793	1299.142
-22.779	33.708	1515.043	1298.813
-21.765	33.633	1514.065	1297.414
-20.750	33.767	1512.470	1296.912
-19.736	33.725	1511.343	1295.603
-18.721	33.729	1510.227	1294.625
-17.706	33.634	1509.325	1293.154
-16.692	33.672	1507.577	1291.865
-15.677	33.688	1507.483	1291.838
-14.663	33.641	1505.851	1290.070
-13.648	33.502	1505.745	1288.981
-12.633	33.643	1504.268	1288.624
-11.619	33.542	1503.479	1287.213
-10.604	33.586	1502.737	1286.828
-9.590	33.588	1501.641	1285.851
-8.575	33.584	1500.797	1285.048
-7.560	33.657	1500.006	1284.814
-6.546	33.624	1499.131	1283.790
-5.531	33.594	1497.999	1282.565
-4.517	33.658	1496.704	1281.840
-3.502	33.646	1496.262	1281.327
-2.487	33.615	1494.913	1279.912
-1.473	33.486	1494.188	1278.370
-0.458	33.587	1492.876	1277.877
0.556	32.319	1484.047	1270.408
1.571	30.290	1458.825	1235.213
2.586	27.439	1397.424	1164.913
3.600	25.965	1313.526	1086.002
4.615	24.259	1266.745	1037.314
5.629	22.143	1212.199	980.764
6.644	17.384	1129.403	888.887
7.659	13.159	1090.419	836.771
8.673	12.590	1084.782	829.507
9.688	12.412	1081.746	826.216
10.702	12.261	1080.402	824.359
11.717	12.387	1078.708	823.622
12.731	14.327	1080.679	834.790
13.746	18.776	1086.318	861.438
14.761	20.101	1086.630	868.251
15.775	18.139	1083.594	855.934
16.790	16.978	1080.770	847.833
17.804	15.853	1078.158	840.093
18.819	15.016	1076.612	834.640
19.834	14.503	1074.707	830.537
20.848	14.066	1073.890	827.658
21.863	13.882	1072.853	825.868
22.877	13.654	1072.380	824.298
23.892	13.441	1071.451	822.452
24.907	13.280	1070.544	820.886
25.921	13.356	1069.509	820.398
26.936	13.410	1068.875	820.104
27.950	13.362	1067.912	819.057
28.965	13.363	1066.866	818.186
29.980	13.467	1065.795	817.808
30.994	13.573	1064.421	817.204
32.009	13.666	1063.438	816.835
33.023	13.606	1063.156	816.252
34.038	13.643	1061.839	815.346
35.053	13.595	1060.854	814.284
36.067	13.519	1059.871	813.083
37.082	13.515	1059.018	812.338
38.096	13.519	1058.087	811.571
39.111	13.521	1057.585	811.125
40.126	13.588	1056.738	810.729
41.140	13.436	1055.445	808.924
42.155	13.406	1054.497	807.981
43.169	13.240	1053.441	806.290
44.184	13.386	1052.651	806.324
45.199	13.294	1050.961	804.511
46.213	13.402	1050.051	804.267
47.228	13.329	1049.183	803.178
48.242	13.435	1048.385	803.012
49.257	13.521	1047.211	802.457
50.271	13.473	1046.356	801.501
51.286	13.503	1045.326	800.786
52.301	13.522	1044.560	800.219
53.315	13.481	1044.079	799.579
54.330	13.463	1042.861	798.492
55.344	13.267	1042.261	797.017
56.359	13.468	1040.905	796.878
57.374	13.391	1040.305	795.974
58.388	13.320	1039.613	795.034
59.403	13.337	1038.889	794.492
60.417	13.286	1038.314	793.738
61.432	13.272	1037.184	792.737
62.447	13.333	1036.653	792.553
63.461	13.232	1035.979	791.481
64.476	13.265	1034.904	790.751
65.490	13.240	1033.455	789.453
66.505	13.189	1033.282	789.008
67.520	13.289	1032.435	788.767
68.534	13.349	1031.438	788.224
69.549	13.245	1030.998	787.320
70.563	13.303	1029.929	786.712
71.578	13.279	1029.735	786.379
72.593	13.302	1028.119	785.185
73.607	13.182	1027.467	784.050
74.622	13.093	1026.772	783.026
75.636	13.131	1025.871	782.451
76.651	13.200	1024.476	781.641
77.666	13.229	1024.222	781.519
78.680	13.353	1023.352	781.367
79.695	13.197	1023.063	780.345
80.709	13.261	1022.118	779.854
81.724	13.216	1021.854	779.372
82.739	13.312	1020.697	778.874
83.753	13.238	1019.727	777.715
84.768	13.453	1018.711	777.883
85.782	13.521	1018.251	777.781
86.797	13.535	1017.219	776.992
87.812	13.526	1016.468	776.307
88.826	13.520	1015.567	775.520
89.841	13.527	1015.046	775.088
90.855	13.464	1014.121	774.021
91.870	13.534	1013.230	773.595
92.884	13.415	1012.841	772.675
93.899	13.508	1012.580	772.844
94.914	13.526	1011.321	771.896
95.928	13.652	1010.381	771.699
96.943	13.663	1009.709	771.168
97.957	13.646	1008.340	769.974
98.972	13.550	1008.112	769.286
99.987	13.496	1007.657	768.619
101.001	13.595	1006.436	768.082
102.016	13.608	1005.059	767.024
103.030	13.495	1004.824	766.252
104.045	13.567	1004.122	765.980
105.060	13.614	1002.725	765.066
106.074	13.582	1001.884	764.209
107.089	13.397	1001.185	762.755
108.103	13.476	1000.183	762.286
109.118	13.380	999.133	760.977
110.133	13.414	998.503	760.585
111.147	13.304	997.564	759.301
112.162	13.343	996.771	758.810
113.176	13.280	996.064	757.913
114.191	13.382	994.814	757.362
115.206	13.449	994.544	757.395
116.220	13.542	993.046	756.614
117.235	13.463	992.778	755.983
118.249	13.363	991.768	754.689
119.264	13.499	990.378	754.186
120.279	13.309	990.179	753.099
121.293	13.327	989.557	752.643
122.308	13.404	988.548	752.158
123.322	13.352	987.369	750.962
124.337	13.222	986.611	749.726
125.352	13.352	985.220	749.194
126.366	13.385	984.213	748.511
127.381	13.234	983.450	747.179
128.395	13.340	982.495	746.870
129.410	13.346	981.187	745.835
130.424	13.307	980.141	744.797
131.439	13.441	979.328	744.715
132.454	13.364	978.610	743.760
133.468	13.434	977.650	743.277
134.483	13.499	977.044	743.045
135.497	13.414	976.580	742.243
136.512	13.599	975.323	742.050
137.527	13.626	974.685	741.618
138.541	13.524	973.752	740.390
139.556	13.434	973.121	739.442
140.570	13.342	972.599	738.567
141.585	13.549	971.563	738.639
142.600	13.647	970.877	738.489
143.614	13.633	969.944	737.654
144.629	13.606	969.584	737.193
145.643	13.603	969.117	736.759
146.658	13.529	968.302	735.745
147.673	13.621	966.833	734.974
148.687	13.598	965.981	734.158
149.702	13.555	965.151	733.273
150.716	13.525	964.193	732.347
151.731	13.430	963.489	731.329
152.746	13.483	962.582	730.807
153.760	13.618	961.661	730.639
154.775	13.526	961.628	730.143
155.789	13.545	960.702	729.459
156.804	13.657	960.021	729.370
157.819	13.605	958.986	728.293
158.833	13.638	958.510	728.011
159.848	13.699	957.567	727.499
160.862	13.800	956.998	727.445
161.877	13.691	956.053	726.183
162.892	13.639	955.577	725.532
163.906	13.703	954.184	724.687
164.921	13.605	953.483	723.666
165.935	13.617	952.726	723.078
166.950	13.591	951.510	721.978
167.964	13.711	950.863	721.945
168.979	13.748	949.533	721.033
169.994	13.730	948.482	720.094
171.008	13.653	947.729	719.126
172.023	13.735	947.034	718.886
173.037	13.663	946.290	717.945
174.052	13.691	945.877	717.694
175.067	13.779	945.035	717.371
176.081	13.640	943.805	715.772
177.096	13.640	943.409	715.410
178.110	13.641	942.315	714.522
179.125	13.639	941.889	714.128
180.140	13.712	941.126	713.797
181.154	13.879	940.194	713.747
182.169	13.759	939.532	712.664
183.183	13.771	938.937	712.204
184.198	13.852	938.480	712.140
185.213	13.881	937.689	711.603
186.227	13.972	936.894	711.323
187.242	14.020	936.459	711.138
188.256	13.925	936.124	710.412
189.271	13.908	935.472	709.781
190.286	14.149	934.226	709.801
191.300	13.914	933.422	708.125
192.315	13.702	932.743	706.647
193.329	13.721	932.494	706.476
194.344	13.668	931.537	705.463
195.359	13.781	930.654	705.210
196.373	14.037	930.092	705.810
197.388	13.968	930.040	705.416
198.402	13.940	929.689	704.971
199.417	14.081	928.748	704.793
200.432	14.214	928.474	705.083
201.446	14.259	928.096	704.924
202.461	14.167	927.719	704.188
203.475	14.269	926.909	703.941
204.490	14.154	926.428	703.030
205.504	14.080	925.587	702.015
206.519	14.153	924.710	701.593
207.534	14.144	923.766	700.781
208.548	14.235	922.916	700.453
209.563	14.109	922.758	699.743
210.577	14.187	921.812	699.294
211.592	14.176	920.968	698.544
212.607	14.243	920.557	698.452
213.621	14.333	919.834	698.216
214.636	14.313	919.058	697.485
215.650	14.300	918.724	697.112
216.665	14.264	918.640	696.837
217.680	14.294	917.583	696.098
218.694	14.318	917.413	696.008
219.709	14.409	916.247	695.445
220.723	14.491	915.862	695.431
221.738	14.381	915.058	694.299
222.753	14.411	914.399	693.864
223.767	14.253	914.317	693.081
224.782	14.396	913.098	692.693
225.796	14.496	912.207	692.371
226.811	14.610	911.444	692.205
227.826	14.644	910.692	691.713
228.840	14.476	910.180	690.566
229.855	14.411	909.457	689.685
230.869	14.611	908.504	689.730
231.884	14.347	908.478	688.560
232.899	14.548	907.361	688.479
233.913	14.439	906.768	687.521
234.928	14.434	906.191	686.999
235.942	14.377	905.474	686.162
236.957	14.489	904.384	685.734
237.972	14.478	903.906	685.268
238.986	14.400	903.472	684.559
240.001	14.464	902.760	684.219
241.015	14.514	902.122	683.880
242.030	14.525	901.508	683.401
243.045	14.651	900.588	683.159
244.059	14.603	900.128	682.552
245.074	14.726	899.672	682.649
246.088	14.630	899.048	681.720
247.103	14.766	898.358	681.692
248.117	14.761	897.669	681.089
249.132	14.744	897.506	680.837
250.147	14.778	896.688	680.294
251.161	14.988	895.963	680.538
252.176	14.903	895.275	679.611
253.190	14.994	894.579	679.392
254.205	14.982	893.995	678.838
255.220	15.113	893.261	678.755
256.234	15.157	892.676	678.427
257.249	15.093	891.812	677.451
258.263	14.986	891.860	676.994
259.278	15.070	890.828	676.493
260.293	15.070	890.713	676.343
261.307	15.229	889.676	676.138
262.322	15.246	889.228	675.805
263.336	15.199	888.277	674.833
264.351	15.205	887.599	674.283
265.366	15.272	887.591	674.488
266.380	15.284	886.816	673.889
267.395	15.268	886.071	673.199
268.409	15.263	884.925	672.247
269.424	15.196	884.412	671.529
270.439	15.279	883.927	671.434
271.453	15.330	883.031	670.897
272.468	15.213	882.219	669.756
273.482	15.151	881.844	669.162
274.497	15.202	881.165	668.794
275.512	15.241	880.355	668.273
276.526	15.197	879.631	667.489
277.541	15.257	878.964	667.164
278.555	15.289	878.537	666.907
279.570	15.362	878.022	666.745
280.585	15.434	877.617	666.666
281.599	15.403	877.024	666.035
282.614	15.505	875.904	665.528
283.628	15.425	875.743	665.030
284.643	15.355	875.194	664.277
285.657	15.458	874.530	664.121
286.672	15.450	873.885	663.541
287.687	15.446	873.402	663.100
288.701	15.482	872.800	662.727
289.716	15.391	872.292	661.923
290.730	15.522	871.513	661.790
291.745	15.552	870.738	661.260
292.760	15.486	870.515	660.774
293.774	15.505	869.877	660.306
294.789	15.634	868.960	660.058
295.803	15.769	868.183	659.938
296.818	15.575	867.707	658.760
297.833	15.455	867.456	658.039
298.847	15.558	866.427	657.604
299.862	15.680	865.888	657.613
300.876	15.598	865.038	656.588
301.891	15.580	864.793	656.274
302.906	15.628	863.999	655.803
303.920	15.740	863.384	655.713
304.935	15.810	862.439	655.209
305.949	15.849	861.858	654.865
306.964	15.786	861.501	654.287
307.979	15.813	860.805	653.806
308.993	15.792	860.442	653.392
310.008	15.897	859.734	653.203
311.022	15.804	859.163	652.352
312.037	15.841	858.885	652.224
313.052	15.713	858.424	651.324
314.066	15.680	857.471	650.416
315.081	15.747	856.894	650.179
316.095	15.836	856.083	649.850
317.110	15.784	856.072	649.583
318.125	15.780	855.260	648.895
319.139	15.804	854.788	648.572
320.154	15.843	854.411	648.377
321.168	15.889	853.354	647.693
322.183	16.037	852.744	647.743
323.197	15.861	853.139	647.309
324.212	15.940	851.993	646.686
325.227	15.980	851.670	646.537
326.241	15.966	850.938	645.872
327.256	16.095	850.197	645.744
328.270	15.866	850.039	644.689
329.285	15.789	849.659	644.050
330.300	15.837	848.739	643.481
331.314	16.093	848.024	643.861
332.329	15.958	847.562	642.936
333.343	15.994	846.825	642.457
334.358	16.064	846.280	642.252
335.373	16.042	845.715	641.683
336.387	16.159	844.903	641.458
337.402	16.116	844.673	641.062
338.416	16.214	844.092	640.938
339.431	16.265	843.578	640.683
340.446	16.379	842.962	640.590
341.460	16.438	842.178	640.162
342.475	16.321	841.726	639.319
343.489	16.385	841.390	639.250
344.504	16.340	840.819	638.587
345.519	16.387	840.421	638.405
346.533	16.280	839.933	637.574
347.548	16.242	839.729	637.220
348.562	16.353	839.115	637.116
349.577	16.321	838.161	636.215
350.592	16.396	837.845	636.203
351.606	16.542	837.058	636.098
352.621	16.337	836.628	634.942
353.635	16.321	836.270	634.554
354.650	16.464	835.554	634.495
355.665	16.414	835.756	634.402
356.679	16.380	835.061	633.691
357.694	16.468	834.301	633.389
358.708	16.480	834.170	633.277
359.723	16.524	833.301	632.728
360.738	16.553	833.064	632.601
361.752	16.471	832.231	631.605
362.767	16.579	832.079	631.835
363.781	16.558	831.345	631.146
364.796	16.619	830.763	630.876
365.810	16.695	830.532	630.927
366.825	16.624	830.445	630.541
367.840	16.770	829.932	630.637
368.854	16.727	829.609	630.178
369.869	16.572	829.070	629.134
370.883	16.571	828.544	628.678
371.898	16.784	827.897	628.920
372.913	16.792	827.033	628.241
373.927	16.813	826.769	628.059
374.942	16.777	825.848	627.171
375.956	16.680	825.147	626.226
376.971	16.773	824.651	626.139
377.986	16.943	823.811	626.074
379.000	16.948	823.681	625.936
380.015	16.959	823.617	625.874
381.029	17.004	822.745	625.322
382.044	17.004	821.879	624.605
383.059	16.976	821.475	624.143
384.073	17.006	820.975	623.816
385.088	17.003	820.572	623.445
386.102	16.839	820.103	622.430
387.117	16.929	819.042	621.900
388.132	16.941	819.008	621.863
389.146	16.952	818.499	621.461
390.161	16.900	818.311	621.074
391.175	17.044	817.755	621.124
392.190	17.126	817.374	621.079
393.205	17.101	816.701	620.421
394.219	17.002	816.197	619.622
395.234	16.921	815.922	619.063
396.248	16.978	815.508	618.901
397.263	16.956	814.721	618.170
398.278	17.072	814.192	618.138
399.292	16.925	813.905	617.329
400.307	16.941	813.522	617.044
401.321	17.035	813.010	616.941
402.336	16.954	812.794	616.429
403.350	17.117	812.168	616.491
404.365	17.092	811.629	615.935
405.380	17.139	811.358	615.848
406.394	17.255	810.924	615.885
407.409	17.302	810.360	615.569
408.423	17.266	810.042	615.145
409.438	17.289	809.253	614.573
410.453	17.413	809.156	614.892
411.467	17.454	808.471	614.468
412.482	17.361	808.057	613.763
413.496	17.319	807.953	613.479
414.511	17.551	807.360	613.809
415.526	17.532	807.157	613.531
416.540	17.463	806.500	612.731
417.555	17.500	806.105	612.507
418.569	17.463	805.825	612.108
419.584	17.552	805.084	611.811
420.599	17.564	804.699	611.506
421.613	104.628	1285.338	1447.402
422.628	90.003	1355.382	1447.511
