DTS Sentinel unit serial number:	SN413079Multiplexer serial number:	ORYXHardware model number:	OX4-SRSoftware version number:	ORYX F/W v4.00 Oryx Data Collector v3.7.2.0data status	okinstallation	princeton_trtdifferential loss correction	single-endedforward channel	channel 3reverse channel	N/Adate	2019/09/12time	02:50:10forward acquisition time	60.00reverse acquisition time	0.00gamma	496.2192k internal	0.2322k external	0.2322temperature offset calibration	1.0064default loss term (dB/km)	0.3790temperature slope calibration	1.0000multiplexer offset coefficient	1.0000multiplexer slope coefficient	1.0000fibre end	0.00T internal ref (°C)	32.37T ext. ref 1 (°C)	2.08T ext. ref 2 (°C)	26.99length (m)	temperature (°C)	Stokes	anti-Stokes-747.200	280.020	-0.225	0.406
-746.185	800.000	-0.047	0.195
-745.171	-122.049	0.163	-0.027
-744.156	-11.576	0.152	0.101
-743.142	-105.797	-0.424	0.097
-742.127	177.304	-0.215	0.316
-741.112	59.690	0.044	0.044
-740.098	-199.132	-0.154	0.001
-739.083	800.000	0.117	0.346
-738.069	406.529	-0.081	0.173
-737.054	513.150	-0.057	0.134
-736.039	-128.892	-0.400	0.057
-735.025	-119.511	-0.202	-0.035
-734.010	352.354	0.156	0.313
-732.996	-97.176	-0.359	-0.095
-731.981	325.600	-0.141	-0.272
-730.966	79.548	0.083	0.090
-729.952	15.391	-0.147	-0.116
-728.937	-129.272	0.140	-0.020
-727.923	40.986	-0.304	0.277
-726.908	14.069	-0.170	0.134
-725.894	800.000	0.084	-0.333
-724.879	-91.539	-0.258	0.074
-723.864	353.986	-0.082	0.164
-722.850	-79.049	-0.175	-0.060
-721.835	-84.580	-0.090	-0.029
-720.821	-81.928	0.206	0.068
-719.806	60.075	0.227	-0.226
-718.791	-76.327	-0.200	0.071
-717.777	-42.019	-0.207	0.107
-716.762	152.112	0.219	0.302
-715.748	72.122	0.168	-0.177
-714.733	800.000	0.040	-0.119
-713.718	-54.695	0.116	0.053
-712.704	-69.405	-0.109	-0.042
-711.689	50.952	0.203	-0.194
-710.675	403.675	-0.021	-0.045
-709.660	-45.343	0.258	0.129
-708.645	197.415	0.113	-0.174
-707.631	230.590	-0.100	0.166
-706.616	189.109	-0.050	-0.076
-705.602	-99.970	0.176	-0.044
-704.587	267.485	0.092	0.162
-703.572	12.315	0.039	0.030
-702.558	17.676	0.131	0.105
-701.543	-59.463	0.318	-0.138
-700.529	-24.958	-0.284	-0.170
-699.514	-157.839	-0.324	0.019
-698.499	379.439	-0.078	0.161
-697.485	510.366	-0.077	-0.181
-696.470	-45.353	0.202	-0.101
-695.456	-200.000	0.010	0.063
-694.441	-200.000	0.031	-0.142
-693.426	43.757	-0.243	-0.225
-692.412	-6.613	-0.127	0.087
-691.397	-117.715	-0.548	0.099
-690.383	124.829	-0.092	0.116
-689.368	-107.834	-0.287	-0.063
-688.354	-200.000	0.022	0.149
-687.339	1.257	-0.357	0.259
-686.324	569.157	-0.113	-0.277
-685.310	-55.393	-0.269	-0.122
-684.295	20.355	-0.201	-0.164
-683.281	138.690	0.190	0.251
-682.266	-108.636	-0.184	0.040
-681.251	11.487	0.102	-0.079
-680.237	383.285	-0.136	0.281
-679.222	274.387	-0.165	0.295
-678.208	-200.000	-0.027	-0.198
-677.193	174.620	-0.343	-0.500
-676.178	-160.274	0.302	0.016
-675.164	-140.315	-0.283	-0.030
-674.149	-200.000	0.024	-0.183
-673.135	-200.000	-0.028	0.200
-672.120	153.146	0.257	0.354
-671.105	64.514	-0.134	-0.136
-670.091	-200.000	-0.012	-0.259
-669.076	-177.132	-0.275	0.007
-668.062	800.000	-0.093	-0.303
-667.047	148.530	-0.179	-0.244
-666.032	800.000	0.104	-0.344
-665.018	35.893	0.163	0.144
-664.003	800.000	0.019	-0.065
-662.989	800.000	-0.078	0.342
-661.974	170.971	-0.149	-0.215
-660.959	18.060	0.072	0.057
-659.945	-200.000	-0.003	0.265
-658.930	-55.483	0.265	0.120
-657.916	-34.114	0.291	-0.161
-656.901	800.000	-0.025	0.109
-655.886	164.798	0.332	-0.472
-654.872	-200.000	-0.006	0.066
-653.857	125.241	-0.154	0.196
-652.843	-79.911	0.266	0.090
-651.828	353.923	-0.117	0.234
-650.814	-200.000	-0.020	0.104
-649.799	-200.000	-0.007	-0.245
-648.784	-200.000	-0.043	-0.245
-647.770	37.850	-0.163	-0.146
-646.755	800.000	0.059	-0.182
-645.741	-200.000	-0.030	0.228
-644.726	800.000	-0.067	-0.270
-643.711	-49.900	0.109	-0.052
-642.697	-46.917	-0.115	-0.057
-641.682	-44.976	-0.181	0.091
-640.668	-8.216	0.349	0.236
-639.653	421.739	0.087	-0.188
-638.638	51.830	-0.157	0.150
-637.624	79.427	0.129	0.139
-636.609	-200.000	0.023	0.113
-635.595	-25.860	-0.091	-0.054
-634.580	-33.638	0.090	-0.050
-633.565	28.853	-0.238	-0.203
-632.551	-200.000	-0.013	-0.302
-631.536	91.076	-0.053	0.060
-630.522	-200.000	-0.011	0.390
-629.507	-200.000	0.011	-0.321
-628.492	110.614	-0.178	-0.215
-627.478	-79.520	0.069	0.023
-626.463	-83.697	0.064	0.021
-625.449	-200.000	-0.008	-0.287
-624.434	-55.789	-0.214	-0.096
-623.419	-150.694	-0.283	-0.022
-622.405	80.894	0.078	0.085
-621.390	-27.704	0.060	-0.035
-620.376	-77.798	-0.093	0.032
-619.361	-200.000	-0.023	0.179
-618.346	-193.037	0.076	0.001
-617.332	-43.231	0.297	0.151
-616.317	-200.000	0.034	-0.452
-615.303	687.449	0.096	-0.253
-614.288	-18.591	-0.206	0.129
-613.273	-130.188	0.128	-0.018
-612.259	5.010	0.061	-0.045
-611.244	-27.594	-0.065	0.038
-610.230	-45.525	0.177	-0.088
-609.215	-126.947	-0.393	-0.058
-608.201	-200.000	0.034	0.243
-607.186	127.964	-0.150	0.192
-606.171	-200.000	0.000	0.259
-605.157	451.152	0.045	0.101
-604.142	-67.736	-0.042	0.016
-603.128	424.525	-0.105	0.227
-602.113	320.535	-0.179	-0.343
-601.098	800.000	0.059	0.182
-600.084	-200.000	-0.041	-0.249
-599.069	77.915	0.171	-0.183
-598.055	800.000	0.033	0.103
-597.040	-175.911	0.161	-0.004
-596.025	-200.000	-0.029	-0.258
-595.011	-155.684	0.292	0.019
-593.996	-11.067	-0.286	-0.189
-592.982	-159.743	-0.075	-0.004
-591.967	39.170	0.116	-0.104
-590.952	-200.000	0.069	-0.327
-589.938	-40.183	-0.228	0.119
-588.923	-200.000	-0.042	-0.212
-587.909	-5.287	-0.326	-0.225
-586.894	-135.748	-0.201	0.024
-585.879	47.604	-0.098	-0.092
-584.865	229.157	0.189	-0.309
-583.850	397.885	0.087	0.184
-582.836	-200.000	0.003	-0.223
-581.821	-200.000	-0.027	0.165
-580.806	800.000	0.046	-0.195
-579.792	-32.445	-0.152	-0.085
-578.777	800.000	0.077	0.284
-577.763	-114.242	0.140	0.027
-576.748	800.000	-0.074	-0.273
-575.733	-30.227	-0.140	-0.080
-574.719	-200.000	0.055	0.376
-573.704	-80.124	0.007	-0.002
-572.690	-82.412	0.522	-0.170
-571.675	71.338	0.118	0.122
-570.661	800.000	0.069	-0.225
-569.646	-52.108	-0.261	0.122
-568.631	605.662	-0.124	-0.311
-567.617	-200.000	0.027	-0.225
-566.602	459.888	-0.069	-0.155
-565.588	-94.267	0.165	0.045
-564.573	400.151	0.046	-0.097
-563.558	560.864	-0.065	-0.158
-562.544	-25.740	0.145	0.086
-561.529	800.000	0.057	-0.250
-560.515	140.852	-0.050	-0.066
-559.500	-129.584	-0.237	0.033
-558.485	-166.319	-0.102	-0.004
-557.471	410.963	0.113	0.239
-556.456	-200.000	-0.019	-0.119
-555.442	-146.735	0.119	-0.010
-554.427	194.853	0.058	-0.088
-553.412	800.000	0.035	-0.122
-552.398	-53.848	-0.412	-0.188
-551.383	26.741	-0.083	-0.070
-550.369	36.089	0.293	-0.259
-549.354	233.648	0.075	-0.124
-548.339	-91.129	0.134	-0.039
-547.325	-200.000	0.049	0.235
-546.310	-125.960	0.416	0.063
-545.296	-200.000	0.001	-0.117
-544.281	-200.000	0.056	0.271
-543.266	-200.000	-0.066	-0.309
-542.252	-121.803	0.360	-0.060
-541.237	72.638	-0.132	-0.139
-540.223	-92.580	0.173	-0.049
-539.208	800.000	-0.023	-0.102
-538.193	-60.184	-0.175	-0.075
-537.179	193.116	0.222	-0.337
-536.164	-43.917	-0.302	0.152
-535.150	-200.000	-0.038	0.229
-534.135	-200.000	-0.022	0.111
-533.121	-200.000	-0.022	0.400
-532.106	-146.751	0.431	0.037
-531.091	-108.860	0.257	-0.055
-530.077	-200.000	-0.009	0.116
-529.062	-115.451	0.367	0.069
-528.048	800.000	-0.032	0.120
-527.033	15.462	0.114	-0.089
-526.018	-80.203	0.410	-0.137
-525.004	-132.394	-0.187	0.024
-523.989	183.916	-0.069	-0.102
-522.975	-67.477	-0.327	-0.128
-521.960	269.444	0.087	-0.153
-520.945	157.103	0.044	-0.061
-519.931	-200.000	-0.001	-0.245
-518.916	-200.000	-0.005	0.220
-517.902	-200.000	-0.030	0.257
-516.887	112.083	-0.104	0.126
-515.872	-102.993	-0.313	-0.074
-514.858	142.442	-0.140	0.186
-513.843	327.479	-0.117	0.224
-512.829	4.415	-0.194	-0.143
-511.814	-200.000	0.007	0.057
-510.799	305.988	-0.126	0.235
-509.785	-160.888	-0.070	-0.004
-508.770	6.931	-0.228	-0.170
-507.756	-141.524	0.161	-0.016
-506.741	-124.330	-0.241	0.038
-505.726	135.529	0.146	-0.190
-504.712	134.812	0.243	-0.315
-503.697	331.711	0.109	0.211
-502.683	99.143	0.041	-0.048
-501.668	70.346	0.074	0.076
-500.653	-200.000	0.013	-0.127
-499.639	-101.832	-0.119	0.029
-498.624	85.060	0.192	0.210
-497.610	3.378	-0.208	-0.152
-496.595	-0.410	-0.209	-0.149
-495.581	-11.274	-0.300	-0.198
-494.566	76.262	0.146	-0.154
-493.551	25.884	-0.191	-0.159
-492.537	143.021	0.244	0.325
-491.522	-156.179	-0.447	-0.028
-490.508	-40.260	0.237	-0.124
-489.493	-58.107	-0.090	0.039
-488.478	-165.903	-0.120	0.005
-487.464	269.496	0.072	-0.126
-486.449	44.059	0.074	-0.068
-485.435	-58.233	-0.189	0.082
-484.420	-200.000	0.000	0.046
-483.405	19.428	-0.217	0.175
-482.391	-156.694	-0.184	0.011
-481.376	29.986	0.132	0.112
-480.362	-161.732	0.170	-0.009
-479.347	-184.904	-0.178	0.003
-478.332	-148.589	0.086	-0.007
-477.318	44.088	0.073	-0.067
-476.303	800.000	-0.099	0.357
-475.289	-0.469	-0.148	-0.105
-474.274	62.303	-0.053	0.053
-473.259	-1.639	0.100	-0.070
-472.245	-5.321	-0.249	0.171
-471.230	141.278	-0.283	-0.375
-470.216	282.801	0.086	-0.154
-469.201	233.159	0.162	0.266
-468.186	-39.368	-0.273	0.143
-467.172	-104.454	-0.182	-0.042
-466.157	-55.915	0.446	0.199
-465.143	-3.753	-0.145	-0.101
-464.128	407.813	-0.021	0.044
-463.113	-183.192	0.219	-0.004
-462.099	-138.225	0.246	0.027
-461.084	-200.000	0.021	0.184
-460.070	-4.581	0.256	-0.177
-459.055	800.000	0.084	-0.347
-458.040	800.000	0.098	0.295
-457.026	800.000	-0.063	0.226
-456.011	800.000	0.033	0.133
-454.997	-74.172	-0.133	-0.048
-453.982	134.242	0.082	0.107
-452.968	543.677	-0.116	-0.277
-451.953	390.042	-0.070	-0.145
-450.938	-4.302	-0.142	0.098
-449.924	113.560	0.295	-0.358
-448.909	6.107	0.079	-0.059
-447.895	227.697	0.219	0.357
-446.880	-19.070	-0.207	0.129
-445.865	161.675	0.134	-0.187
-444.851	-44.376	0.082	-0.041
-443.836	-65.474	-0.223	-0.089
-442.822	-126.412	-0.035	0.005
-441.807	28.648	0.270	0.228
-440.792	4.355	0.231	-0.169
-439.778	-36.188	0.506	-0.273
-438.763	-0.342	0.152	-0.108
-437.749	268.507	-0.034	-0.060
-436.734	-128.972	0.095	-0.013
-435.719	800.000	-0.099	0.391
-434.705	-99.314	0.137	0.034
-433.690	61.807	-0.103	-0.103
-432.676	-57.210	-0.202	-0.089
-431.661	-90.476	0.202	0.059
-430.646	-68.817	-0.252	-0.097
-429.632	-0.158	-0.307	-0.218
-428.617	59.083	-0.450	0.442
-427.603	-77.409	-0.132	0.046
-426.588	-15.972	-0.482	-0.306
-425.573	-77.340	-0.166	0.058
-424.559	-84.578	-0.479	0.151
-423.544	-200.000	0.067	-0.314
-422.530	-143.045	-0.169	0.016
-421.515	-88.611	-0.106	0.031
-420.500	17.554	0.255	0.202
-419.486	-189.839	-0.070	-0.001
-418.471	292.445	-0.057	-0.104
-417.457	800.000	0.049	-0.154
-416.442	-36.809	-0.102	0.055
-415.428	672.754	-0.034	-0.089
-414.413	-170.198	-0.223	0.008
-413.398	16.949	-0.214	0.169
-412.384	800.000	-0.039	0.123
-411.369	452.571	-0.084	0.186
-410.355	168.181	-0.071	0.100
-409.340	-137.568	-0.345	0.039
-408.325	-160.333	-0.130	0.007
-407.311	-200.000	-0.034	0.194
-406.296	-200.000	-0.040	0.207
-405.282	354.977	0.200	0.396
-404.267	-127.237	0.307	-0.045
-403.252	-135.039	-0.277	0.033
-402.238	-144.729	-0.126	-0.012
-401.223	250.505	-0.079	0.134
-400.209	-123.506	0.263	0.042
-399.194	-98.269	0.283	0.072
-398.179	85.921	-0.092	0.101
-397.165	-200.000	-0.027	-0.232
-396.150	-112.183	0.334	-0.067
-395.136	-200.000	-0.014	-0.209
-394.121	-50.024	-0.194	-0.092
-393.106	-49.320	0.110	-0.052
-392.092	-39.983	0.079	-0.041
-391.077	82.576	-0.110	-0.119
-390.063	70.797	0.285	0.294
-389.048	-200.000	-0.015	0.291
-388.033	-130.179	0.193	-0.026
-387.019	50.444	-0.484	0.456
-386.004	251.036	0.139	-0.236
-384.990	-26.333	0.078	0.045
-383.975	800.000	-0.027	0.078
-382.960	66.225	0.173	-0.175
-381.946	-149.509	-0.032	0.003
-380.931	555.749	-0.026	-0.061
-379.917	99.885	-0.192	-0.222
-378.902	-25.481	-0.473	-0.278
-377.888	287.809	0.081	0.146
-376.873	184.281	0.095	0.140
-375.858	-148.852	-0.221	0.018
-374.844	661.849	0.106	0.272
-373.829	148.960	-0.173	-0.233
-372.815	-73.369	-0.217	-0.079
-371.800	-8.122	-0.088	0.059
-370.785	-131.040	0.182	-0.024
-369.771	611.594	0.042	0.104
-368.756	-115.634	0.242	0.045
-367.742	403.491	0.137	0.287
-366.727	-99.772	0.349	0.087
-365.712	134.308	-0.153	0.197
-364.698	-110.025	0.464	0.097
-363.683	-69.333	0.258	0.098
-362.669	-124.878	-0.135	0.021
-361.654	-81.134	0.197	-0.065
-360.639	125.731	0.047	-0.058
-359.625	-23.917	-0.151	-0.090
-358.610	-19.702	0.148	0.091
-357.596	471.043	-0.041	0.091
-356.581	-65.486	-0.372	0.149
-355.566	-200.000	-0.014	0.338
-354.552	-26.734	-0.048	-0.028
-353.537	-8.915	0.164	-0.109
-352.523	31.506	-0.102	0.087
-351.508	-4.934	-0.347	0.238
-350.493	-43.783	-0.095	-0.048
-349.479	-97.996	-0.290	-0.074
-348.464	-200.000	-0.000	0.167
-347.450	54.188	-0.189	0.180
-346.435	69.630	-0.137	-0.140
-345.420	268.144	-0.158	0.275
-344.406	204.109	0.084	-0.130
-343.391	658.072	0.035	-0.090
-342.377	-155.619	0.446	-0.029
-341.362	-200.000	0.018	0.157
-340.348	-200.000	0.045	0.215
-339.333	720.948	-0.035	0.093
-338.318	-95.910	0.203	0.054
-337.304	174.783	0.041	0.059
-336.289	-78.298	-0.134	-0.046
-335.275	35.528	0.200	-0.174
-334.260	-17.864	0.243	-0.151
-333.245	21.646	0.257	-0.208
-332.231	155.313	0.078	0.106
-331.216	293.701	0.120	0.219
-330.202	73.313	-0.140	-0.146
-329.187	-200.000	-0.012	-0.193
-328.172	-157.645	-0.101	-0.006
-327.158	-115.624	0.111	0.021
-326.143	24.320	0.083	0.068
-325.129	800.000	-0.026	-0.098
-324.114	-191.305	0.068	0.001
-323.099	-200.000	0.009	-0.230
-322.085	-77.227	-0.042	-0.015
-321.070	101.388	0.258	-0.298
-320.056	-110.129	0.251	0.052
-319.041	-200.000	-0.008	0.236
-318.026	-85.885	-0.298	-0.092
-317.012	68.233	-0.107	0.109
-315.997	-200.000	0.030	0.337
-314.983	81.794	0.200	-0.215
-313.968	-140.179	0.304	0.032
-312.953	-2.266	0.218	0.152
-311.939	266.647	-0.123	0.214
-310.924	-30.473	0.111	-0.063
-309.910	-200.000	-0.025	-0.292
-308.895	20.495	-0.272	-0.219
-307.880	-109.670	-0.089	-0.019
-306.866	235.640	0.069	-0.113
-305.851	-104.174	-0.131	0.030
-304.837	51.879	0.253	0.239
-303.822	-78.422	0.303	-0.103
-302.807	-160.716	0.149	-0.008
-301.793	-200.000	-0.005	0.075
-300.778	-9.641	0.072	0.048
-299.764	-108.287	0.096	-0.021
-298.749	207.600	0.098	0.152
-297.735	97.621	0.233	-0.266
-296.720	113.030	0.044	0.053
-295.705	90.729	0.185	-0.206
-294.691	-137.642	-0.109	-0.012
-293.676	354.967	-0.104	0.206
-292.662	-100.255	0.185	-0.046
-291.647	-81.027	-0.303	0.100
-290.632	16.733	-0.109	0.085
-289.618	139.193	0.155	0.203
-288.603	-200.000	0.064	0.420
-287.589	343.237	0.176	0.342
-286.574	388.944	0.083	-0.172
-285.559	259.808	-0.039	0.067
-284.545	55.340	-0.146	0.140
-283.530	18.175	0.116	-0.092
-282.516	-79.722	0.154	-0.052
-281.501	-77.215	-0.283	0.098
-280.486	-16.612	0.169	0.106
-279.472	27.171	-0.092	0.077
-278.457	-74.697	0.074	0.026
-277.443	800.000	0.068	-0.295
-276.428	-200.000	-0.019	0.209
-275.413	-99.252	-0.264	0.066
-274.399	-200.000	0.019	0.301
-273.384	-105.811	-0.141	-0.032
-272.370	800.000	0.101	0.294
-271.355	-93.056	-0.132	0.037
-270.340	-180.105	-0.262	-0.005
-269.326	-8.833	0.152	-0.101
-268.311	-23.191	0.008	0.005
-267.297	-62.948	0.155	0.064
-266.282	-32.293	0.163	0.090
-265.267	-29.890	-0.040	0.022
-264.253	800.000	-0.051	0.147
-263.238	-200.000	-0.052	-0.456
-262.224	357.671	0.054	-0.106
-261.209	306.275	-0.020	-0.038
-260.195	-200.000	0.033	0.181
-259.180	-200.000	0.003	0.100
-258.165	131.884	-0.077	0.099
-257.151	-200.000	0.008	0.070
-256.136	-29.747	0.097	0.055
-255.122	-200.000	0.048	-0.219
-254.107	15.567	0.182	0.141
-253.092	1.673	-0.219	0.156
-252.078	800.000	0.117	0.322
-251.063	-31.150	-0.114	-0.064
-250.049	-200.000	-0.015	-0.125
-249.034	800.000	-0.036	0.105
-248.019	-156.011	-0.401	-0.025
-247.005	125.914	0.112	-0.140
-245.990	-200.000	0.007	0.297
-244.976	450.909	0.144	0.314
-243.961	350.574	0.128	-0.250
-242.946	-26.861	0.089	-0.052
-241.932	-32.807	0.136	-0.075
-240.917	-200.000	-0.019	-0.315
-239.903	-200.000	-0.015	-0.249
-238.888	-144.145	0.039	0.004
-237.873	214.285	0.155	0.243
-236.859	-200.000	0.001	-0.040
-235.844	-200.000	0.030	-0.346
-234.830	481.270	-0.030	0.067
-233.815	800.000	-0.059	-0.235
-232.800	0.381	-0.116	-0.082
-231.786	-200.000	0.012	0.099
-230.771	24.062	0.157	0.128
-229.757	-127.834	-0.322	0.046
-228.742	-4.966	-0.213	-0.145
-227.727	0.499	0.106	0.075
-226.713	-42.544	-0.114	0.057
-225.698	-61.322	-0.153	-0.064
-224.684	71.755	0.135	-0.139
-223.669	-69.966	0.077	-0.029
-222.655	-143.530	-0.296	0.028
-221.640	-74.142	-0.155	0.056
-220.625	800.000	0.046	-0.132
-219.611	730.491	-0.177	-0.469
-218.596	-78.754	0.124	0.042
-217.582	-149.442	0.227	-0.018
-216.567	-87.308	0.380	-0.114
-215.552	-113.153	-0.299	0.058
-214.538	177.563	-0.140	0.201
-213.523	-97.160	0.413	0.107
-212.509	109.996	0.155	-0.184
-211.494	-19.406	-0.256	-0.157
-210.479	10.478	-0.206	0.155
-209.465	-103.237	0.103	0.024
-208.450	800.000	-0.097	0.345
-207.436	-100.199	0.139	-0.034
-206.421	-40.785	0.093	0.048
-205.406	357.200	-0.167	-0.329
-204.392	-110.231	0.289	-0.060
-203.377	-200.000	0.049	0.272
-202.363	-73.840	-0.207	-0.074
-201.348	-76.243	0.081	-0.028
-200.333	727.048	-0.111	-0.292
-199.319	51.009	0.241	0.226
-198.304	154.191	-0.074	0.100
-197.290	-142.301	0.392	-0.038
-196.275	800.000	-0.121	-0.372
-195.260	-37.617	-0.191	-0.101
-194.246	52.637	0.118	0.112
-193.231	273.395	0.113	0.197
-192.217	-109.216	0.221	0.046
-191.202	-200.000	0.015	-0.279
-190.187	507.691	-0.070	-0.160
-189.173	-107.304	0.286	0.062
-188.158	-103.270	0.247	-0.058
-187.144	137.253	0.032	-0.042
-186.129	-69.303	-0.195	-0.074
-185.114	13.573	-0.056	0.043
-184.100	-76.972	0.051	0.017
-183.085	315.709	0.073	0.137
-182.071	-176.590	-0.185	0.005
-181.056	92.252	-0.095	-0.106
-180.042	194.275	-0.088	-0.132
-179.027	51.632	0.160	-0.150
-178.012	-82.610	0.256	-0.082
-176.998	-167.804	-0.171	-0.007
-175.983	800.000	-0.054	0.156
-174.969	-200.000	0.014	0.075
-173.954	-200.000	0.011	0.288
-172.939	21.657	0.096	0.077
-171.925	59.123	0.292	0.283
-170.910	-200.000	0.002	0.057
-169.896	665.659	-0.044	0.112
-168.881	-100.054	-0.122	0.030
-167.866	39.145	0.227	0.201
-166.852	55.721	-0.175	0.167
-165.837	365.011	-0.044	-0.088
-164.823	283.956	0.183	0.325
-163.808	-11.640	-0.190	0.123
-162.793	497.462	0.123	-0.279
-161.779	-66.098	-0.214	0.084
-160.764	-26.643	-0.352	-0.203
-159.750	800.000	0.033	-0.136
-158.735	60.993	-0.210	0.206
-157.720	-200.000	-0.019	-0.259
-156.706	-54.386	-0.284	0.127
-155.691	-112.476	-0.133	-0.026
-154.677	-53.849	-0.117	0.052
-153.662	-93.543	-0.121	-0.033
-152.647	-3.694	0.316	0.217
-151.633	171.882	0.136	0.192
-150.618	314.251	0.101	-0.187
-149.604	-103.269	0.156	-0.036
-148.589	-200.000	-0.008	0.184
-147.574	-183.364	0.201	-0.003
-146.560	32.368	-0.124	-0.105
-145.545	-57.737	0.170	0.073
-144.531	-86.082	0.126	-0.038
-143.516	-200.000	0.096	-0.435
-142.502	-200.000	-0.050	-0.223
-141.487	170.257	0.131	0.185
-140.472	64.692	0.061	-0.061
-139.458	86.562	-0.197	0.214
-138.443	166.017	-0.163	-0.227
-137.429	618.795	-0.212	0.527
-136.414	99.245	0.145	-0.165
-135.399	258.790	0.084	-0.143
-134.385	759.205	0.158	0.423
-133.370	244.486	-0.080	0.133
-132.356	139.628	0.216	-0.280
-131.341	79.059	0.091	-0.096
-130.326	490.273	-0.050	-0.113
-129.312	-200.000	-0.075	-0.523
-128.297	-87.560	-0.155	0.046
-127.283	-17.353	-0.007	0.005
-126.268	800.000	-0.139	-0.414
-125.253	-200.000	0.025	-0.243
-124.239	39.845	0.081	0.072
-123.224	446.534	0.101	-0.219
-122.210	-68.188	0.016	-0.006
-121.195	75.593	0.329	0.342
-120.180	-50.480	-0.374	-0.174
-119.166	730.598	0.032	-0.085
-118.151	-126.808	0.126	0.018
-117.137	-128.591	0.291	0.041
-116.122	-42.101	0.070	-0.035
-115.107	-181.300	0.300	-0.006
-114.093	-122.596	0.243	-0.039
-113.078	-200.000	-0.080	0.421
-112.064	-200.000	0.080	0.387
-111.049	-16.938	0.176	0.110
-110.034	-78.048	-0.104	-0.035
-109.020	-5.276	0.158	0.107
-108.005	129.010	-0.090	0.114
-106.991	142.272	0.239	-0.313
-105.976	151.120	0.069	-0.092
-104.962	132.091	-0.259	0.328
-103.947	121.028	-0.046	0.057
-102.932	31.827	0.294	-0.249
-101.918	225.162	0.098	-0.156
-100.903	-12.055	-0.181	-0.117
-99.889	248.478	0.127	0.211
-98.874	-181.183	-0.185	-0.004
-97.859	291.842	-0.134	-0.240
-96.845	47.779	0.170	0.157
-95.830	800.000	-0.081	0.286
-94.816	281.570	0.103	-0.181
-93.801	-141.392	-0.383	-0.038
-92.786	423.040	-0.143	0.302
-91.772	800.000	0.061	-0.243
-90.757	244.307	-0.150	-0.248
-89.743	334.198	0.109	0.208
-88.728	-58.706	0.277	0.118
-87.713	-140.491	0.117	-0.012
-86.699	141.188	-0.029	-0.038
-85.684	494.470	0.014	-0.032
-84.670	-102.020	-0.189	-0.045
-83.655	-37.750	-0.134	0.070
-82.640	800.000	-0.057	0.161
-81.626	-96.005	0.338	0.089
-80.611	-200.000	0.054	-0.285
-79.597	-118.642	0.208	-0.036
-78.582	-98.204	0.324	-0.082
-77.567	-200.000	-0.031	-0.311
-76.553	123.669	-0.101	-0.125
-75.538	548.942	-0.057	0.133
-74.524	-12.348	-0.139	-0.090
-73.509	-200.000	0.003	0.130
-72.494	800.000	0.114	0.314
-71.480	-175.883	-0.305	-0.008
-70.465	-69.414	-0.138	-0.052
-69.451	301.251	0.045	-0.082
-68.436	-177.445	0.225	0.005
-67.422	-7.360	-0.182	-0.121
-66.407	-200.000	-0.026	-0.224
-65.392	-111.345	0.146	0.029
-64.378	-119.927	-0.334	-0.056
-63.363	-108.947	-0.332	0.070
-62.349	800.000	-0.115	-0.326
-61.334	89.444	-0.965	-1.059
-60.319	161.702	0.508	0.699
-59.305	505.904	-0.386	-0.880
-58.290	172.366	0.639	0.904
-57.276	266.937	0.962	1.654
-56.261	-200.000	95.818	590.180
-55.246	568.273	1365.547	3263.403
-54.232	162.845	2539.196	3506.545
-53.217	113.082	2155.336	2570.377
-52.203	43.057	1702.877	1527.857
-51.188	35.676	1516.634	1310.615
-50.173	33.196	1490.331	1271.193
-49.159	52.099	1539.110	1442.333
-48.144	53.928	1556.790	1471.339
-47.130	35.755	1516.684	1310.989
-46.115	32.631	1502.345	1277.404
-45.100	32.411	1498.917	1272.955
-44.086	32.508	1496.519	1271.521
-43.071	32.452	1494.849	1269.672
-42.057	32.441	1493.306	1268.235
-41.042	32.422	1491.828	1266.803
-40.027	32.393	1490.532	1265.460
-39.013	32.384	1488.879	1263.945
-37.998	32.281	1487.965	1262.427
-36.984	32.391	1486.793	1262.122
-35.969	32.456	1484.996	1260.977
-34.954	32.390	1484.078	1259.707
-33.940	32.290	1482.809	1257.914
-32.925	32.470	1480.807	1257.368
-31.911	32.488	1479.158	1256.035
-30.896	32.491	1478.222	1255.213
-29.881	32.464	1477.225	1254.133
-28.867	32.388	1475.593	1252.192
-27.852	32.498	1474.487	1251.939
-26.838	32.446	1472.926	1250.216
-25.823	32.401	1471.658	1248.790
-24.809	32.429	1469.523	1247.116
-23.794	32.384	1468.695	1246.069
-22.779	32.345	1467.313	1244.586
-21.765	32.401	1466.328	1244.074
-20.750	32.443	1464.809	1243.008
-19.736	32.363	1464.100	1241.833
-18.721	32.263	1462.843	1240.056
-17.706	32.410	1461.083	1239.486
-16.692	32.378	1460.775	1238.964
-15.677	32.381	1459.386	1237.755
-14.663	32.310	1458.212	1236.242
-13.648	32.358	1457.526	1235.927
-12.633	32.321	1456.664	1234.906
-11.619	32.413	1456.065	1234.951
-10.604	32.327	1455.067	1233.496
-9.590	32.270	1454.375	1232.486
-8.575	32.318	1453.285	1231.829
-7.560	32.409	1452.368	1231.593
-6.546	32.323	1451.294	1230.075
-5.531	32.311	1450.697	1229.442
-4.517	32.277	1449.484	1228.143
-3.502	32.353	1448.347	1227.628
-2.487	32.347	1447.420	1226.754
-1.473	32.366	1446.300	1225.879
-0.458	32.369	1445.216	1224.931
0.556	32.794	1434.994	1213.114
1.571	29.906	1410.783	1174.250
2.586	26.796	1357.079	1110.434
3.600	25.127	1278.629	1036.513
4.615	23.651	1230.738	989.381
5.629	20.206	1172.808	924.401
6.644	10.747	1086.188	809.140
7.659	3.268	1044.559	742.123
8.673	2.307	1039.236	733.662
9.688	2.177	1035.718	730.495
10.702	1.930	1034.502	728.391
11.717	1.907	1032.008	726.463
12.731	5.502	1036.312	746.604
13.746	15.368	1049.811	803.744
14.761	23.029	1059.782	848.215
15.775	24.986	1062.072	859.373
16.790	25.313	1061.643	860.518
17.804	25.209	1060.846	859.294
18.819	25.115	1059.864	857.973
19.834	25.085	1059.169	857.191
20.848	25.162	1059.324	857.612
21.863	25.306	1058.745	857.752
22.877	25.313	1058.461	857.482
23.892	25.323	1057.647	856.794
24.907	25.187	1056.738	855.333
25.921	25.147	1056.341	854.743
26.936	25.295	1055.111	854.380
27.950	25.341	1054.157	853.750
28.965	25.186	1052.977	851.985
29.980	25.036	1051.630	850.106
30.994	24.998	1050.680	849.084
32.009	25.306	1049.393	849.423
33.023	25.429	1048.765	849.424
34.038	25.117	1048.082	847.322
35.053	25.143	1047.109	846.583
36.067	25.310	1046.535	846.832
37.082	25.200	1045.914	845.733
38.096	25.112	1045.167	844.642
39.111	25.590	1043.832	845.735
40.126	25.703	1043.455	845.885
41.140	25.366	1042.261	843.261
42.155	25.163	1041.133	841.320
43.169	24.997	1039.727	839.332
44.184	24.981	1038.594	838.269
45.199	24.992	1037.500	837.363
46.213	24.751	1036.925	835.700
47.228	24.748	1036.250	835.068
48.242	24.997	1035.546	835.588
49.257	25.174	1034.476	835.475
50.271	25.244	1033.626	835.043
51.286	25.359	1032.806	834.840
52.301	25.268	1032.451	834.054
53.315	25.371	1031.361	833.578
54.330	25.254	1030.988	832.663
55.344	25.230	1029.929	831.621
56.359	25.091	1029.135	830.262
57.374	25.238	1028.205	830.118
58.388	25.101	1027.044	828.473
59.403	24.949	1026.200	827.019
60.417	24.975	1025.942	826.857
61.432	24.967	1024.768	825.804
62.447	24.883	1024.592	825.199
63.461	24.917	1023.889	824.719
64.476	25.066	1022.790	824.446
65.490	25.036	1022.105	823.683
66.505	24.948	1020.970	822.289
67.520	24.902	1020.548	821.668
68.534	24.982	1020.022	821.538
69.549	24.945	1018.981	820.456
70.563	24.503	1017.962	817.542
71.578	24.484	1016.930	816.553
72.593	24.630	1015.996	816.397
73.607	24.355	1015.357	814.557
74.622	24.261	1014.678	813.508
75.636	24.724	1013.447	814.559
76.651	24.980	1012.655	815.016
77.666	24.856	1011.830	813.718
78.680	24.584	1011.158	811.868
79.695	24.608	1010.873	811.678
80.709	24.737	1010.105	811.576
81.724	24.852	1009.076	811.196
82.739	24.787	1008.195	810.122
83.753	24.800	1008.062	810.003
84.768	25.096	1006.752	810.218
85.782	25.348	1006.522	811.100
86.797	25.703	1005.608	811.892
87.812	25.576	1004.915	810.688
88.826	25.385	1003.928	808.958
89.841	25.325	1003.251	808.072
90.855	25.403	1002.249	807.544
91.870	25.650	1001.277	807.801
92.884	25.507	1001.115	806.956
93.899	25.492	999.563	805.565
94.914	25.317	998.424	803.791
95.928	25.420	997.964	803.813
96.943	25.515	997.228	803.575
97.957	25.220	995.954	801.160
98.972	24.969	995.055	799.245
99.987	24.872	993.566	797.544
101.001	24.931	993.209	797.451
102.016	25.070	993.405	798.158
103.030	25.087	992.369	797.328
104.045	25.140	991.063	796.445
105.060	24.941	989.823	794.494
106.074	24.794	988.812	792.962
107.089	24.839	988.114	792.531
108.103	25.175	987.865	793.750
109.118	25.343	986.380	793.230
110.133	25.094	985.723	791.529
111.147	24.927	984.626	789.842
112.162	24.866	983.588	788.669
113.176	24.670	982.566	786.920
114.191	24.827	981.833	786.952
115.206	24.964	981.042	786.852
116.220	24.682	979.942	784.662
117.235	24.484	979.131	783.076
118.249	24.589	978.524	782.979
119.264	24.586	978.150	782.597
120.279	24.519	977.270	781.532
121.293	24.674	975.883	781.033
122.308	24.635	975.260	780.295
123.322	24.670	974.546	779.806
124.337	24.803	973.138	779.191
125.352	24.542	972.412	777.405
126.366	24.178	970.708	774.389
127.381	23.817	969.134	771.498
128.395	24.254	969.363	773.511
129.410	24.970	968.970	776.233
130.424	25.194	968.110	776.447
131.439	25.090	967.043	775.071
132.454	25.197	965.991	774.621
133.468	25.063	965.613	773.669
134.483	25.004	964.798	772.696
135.497	25.313	963.299	772.755
136.512	25.308	963.320	772.684
137.527	25.348	962.391	772.042
138.541	25.421	962.105	772.058
139.556	25.486	960.883	771.290
140.570	25.380	960.286	770.287
141.585	25.437	959.572	769.889
142.600	25.390	959.162	769.291
143.614	25.343	957.877	767.993
144.629	25.397	957.336	767.723
145.643	25.694	956.780	768.474
146.658	25.611	955.334	766.893
147.673	25.431	954.145	765.102
148.687	25.321	953.011	763.659
149.702	25.233	952.560	762.857
150.716	25.213	951.295	761.688
151.731	25.181	950.430	760.795
152.746	25.400	949.470	760.884
153.760	25.448	949.105	760.730
154.775	25.582	948.638	760.856
155.789	25.606	947.569	760.030
156.804	25.588	946.564	759.082
157.819	25.586	945.493	758.147
158.833	25.479	944.759	757.040
159.848	25.664	944.173	757.282
160.862	25.654	943.466	756.608
161.877	25.535	943.298	755.905
162.892	25.549	941.621	754.555
163.906	25.557	940.891	753.936
164.921	25.527	940.259	753.237
165.935	25.555	938.815	752.129
166.950	25.654	937.727	751.606
167.964	25.396	937.243	750.074
168.979	25.589	936.055	749.861
169.994	25.341	935.516	748.329
171.008	25.349	934.172	747.223
172.023	25.541	933.356	747.300
173.037	25.716	933.119	747.774
174.052	25.450	932.080	745.768
175.067	25.248	930.956	743.967
176.081	25.337	930.012	743.514
177.096	25.295	929.657	742.994
178.110	25.511	928.459	742.860
179.125	25.223	927.341	740.714
180.140	24.935	926.185	738.537
181.154	24.885	925.856	738.004
182.169	24.964	925.664	738.109
183.183	25.200	925.285	738.713
184.198	25.601	924.623	739.770
185.213	25.483	924.049	738.758
186.227	25.477	923.368	738.126
187.242	25.427	923.222	737.738
188.256	25.490	922.722	737.534
189.271	25.620	921.172	736.760
190.286	25.734	920.521	736.641
191.300	25.599	919.948	735.567
192.315	25.114	917.946	731.921
193.329	24.254	916.669	727.330
194.344	23.874	915.590	724.861
195.359	24.414	916.008	727.329
196.373	25.173	916.842	731.022
197.388	25.550	916.204	731.982
198.402	25.326	915.792	730.679
199.417	25.394	915.026	730.277
200.432	25.432	914.519	729.962
201.446	25.315	913.858	728.896
202.461	25.043	913.196	727.198
203.475	25.193	912.592	727.261
204.490	24.673	911.366	724.114
205.504	23.568	908.907	717.633
206.519	23.902	909.000	718.992
207.534	25.043	909.265	723.748
208.548	25.078	908.445	723.172
209.563	25.465	908.302	724.556
210.577	25.425	907.571	723.748
211.592	25.142	906.782	721.915
212.607	25.535	906.542	723.243
213.621	25.701	905.851	723.294
214.636	25.630	905.519	722.682
215.650	25.695	904.864	722.356
216.665	25.558	904.576	721.512
217.680	25.514	904.193	720.964
218.694	25.794	903.531	721.493
219.709	25.409	902.590	719.137
220.723	24.995	901.391	716.465
221.738	25.288	900.978	717.244
222.753	25.385	900.924	717.523
223.767	25.288	899.674	716.079
224.782	25.426	899.356	716.313
225.796	25.647	898.791	716.677
226.811	25.901	897.883	716.901
227.826	25.420	896.959	714.191
228.840	24.584	895.455	709.609
229.855	24.443	894.813	708.480
230.869	24.848	894.556	709.818
231.884	24.434	893.317	707.134
232.899	24.444	893.087	706.928
233.913	25.138	893.477	709.925
234.928	25.333	893.178	710.394
235.942	25.402	891.960	709.635
236.957	25.346	891.788	709.216
237.972	25.151	890.363	707.248
238.986	25.066	889.780	706.390
240.001	25.133	889.064	706.021
241.015	25.151	888.943	705.932
242.030	25.249	887.967	705.481
243.045	25.385	887.508	705.588
244.059	25.307	887.381	705.120
245.074	25.446	887.054	705.342
246.088	25.448	886.193	704.605
247.103	25.220	885.108	702.785
248.117	25.259	884.657	702.517
249.132	25.733	884.754	704.386
250.147	26.167	884.265	705.632
251.161	26.228	883.729	705.380
252.176	26.500	883.079	705.862
253.190	26.421	882.771	705.245
254.205	26.324	882.579	704.652
255.220	26.545	882.230	705.169
256.234	26.462	881.402	704.125
257.249	26.464	880.451	703.311
258.263	26.357	879.936	702.420
259.278	26.291	879.509	701.761
260.293	26.307	879.277	701.574
261.307	26.472	878.522	701.551
262.322	26.245	878.067	700.247
263.336	26.112	877.451	699.177
264.351	25.758	875.866	696.483
265.366	24.558	874.261	690.509
266.380	24.247	872.912	688.183
267.395	25.070	873.543	691.796
268.409	25.865	873.649	694.886
269.424	25.834	872.910	694.118
270.439	26.029	872.221	694.259
271.453	26.136	871.853	694.315
272.468	25.975	871.513	693.364
273.482	26.200	871.064	693.813
274.497	26.291	870.493	693.646
275.512	26.250	869.199	692.397
276.526	25.685	868.023	689.234
277.541	25.842	867.825	689.618
278.555	26.348	867.574	691.290
279.570	26.155	866.699	689.797
280.585	25.920	866.071	688.338
281.599	25.963	865.765	688.198
282.614	26.041	865.197	687.982
283.628	25.582	864.188	685.372
284.643	25.273	863.408	683.513
285.657	25.702	863.241	684.957
286.672	25.503	862.652	683.672
287.687	25.097	861.189	680.908
288.701	25.577	861.099	682.601
289.716	25.748	861.231	683.294
290.730	25.378	860.698	681.406
291.745	25.365	859.548	680.385
292.760	25.176	858.290	678.616
293.774	25.073	857.997	677.935
294.789	26.043	858.644	682.055
295.803	26.804	858.424	684.696
296.818	26.751	857.996	684.093
297.833	26.787	857.463	683.742
298.847	26.531	856.037	681.583
299.862	26.109	855.543	679.539
300.876	26.330	855.125	679.978
301.891	26.633	854.808	680.804
302.906	26.756	854.188	680.712
303.920	26.341	853.143	678.265
304.935	26.241	852.706	677.482
305.949	26.609	852.387	678.546
306.964	26.835	851.694	678.780
307.979	26.478	851.170	676.967
308.993	26.394	850.753	676.263
310.008	26.878	850.333	677.676
311.022	26.978	849.792	677.560
312.037	26.525	849.305	675.421
313.052	26.479	848.825	674.807
314.066	26.363	848.389	673.968
315.081	25.552	846.522	669.408
316.095	24.981	845.188	666.173
317.110	25.523	845.629	668.474
318.125	26.215	845.902	671.205
319.139	25.982	844.713	669.339
320.154	24.682	843.050	663.141
321.168	24.381	841.811	660.995
322.183	24.914	842.420	663.387
323.197	25.869	842.854	667.211
324.212	26.112	843.011	668.177
325.227	26.322	842.412	668.418
326.241	26.485	841.617	668.331
327.256	26.364	841.183	667.478
328.270	26.307	840.165	666.404
329.285	26.181	839.834	665.616
330.300	26.112	839.233	664.829
331.314	25.833	838.021	662.781
332.329	25.875	837.625	662.564
333.343	26.382	837.206	664.036
334.358	26.560	837.150	664.587
335.373	26.512	836.894	664.151
336.387	26.690	836.135	664.139
337.402	26.781	835.974	664.288
338.416	27.139	835.354	665.047
339.431	26.970	835.094	664.162
340.446	27.088	834.176	663.803
341.460	27.302	833.733	664.173
342.475	27.274	833.102	663.510
343.489	26.929	832.433	661.663
344.504	27.018	831.758	661.390
345.519	27.212	831.826	662.091
346.533	27.243	831.692	662.042
347.548	27.417	830.954	662.029
348.562	27.380	830.483	661.460
349.577	27.376	830.108	661.086
350.592	27.351	829.369	660.351
351.606	27.123	829.039	659.203
352.621	27.392	828.176	659.431
353.635	27.300	827.807	658.747
354.650	27.032	827.636	657.582
355.665	26.810	826.243	655.614
356.679	25.831	824.541	650.673
357.694	25.483	824.533	649.351
358.708	26.217	824.121	651.617
359.723	26.319	823.660	651.565
360.738	26.541	823.258	651.989
361.752	27.052	823.144	653.681
362.767	27.200	822.914	653.970
363.781	27.362	822.830	654.431
364.796	27.592	822.537	654.965
365.810	27.705	822.205	655.047
366.825	27.729	822.112	655.002
367.840	27.675	821.599	654.342
368.854	27.593	821.056	653.560
369.869	27.095	820.092	650.949
370.883	26.923	819.339	649.677
371.898	27.029	819.177	649.872
372.913	26.920	818.082	648.556
373.927	26.947	817.781	648.357
374.942	27.215	817.133	648.742
375.956	27.345	816.447	648.604
376.971	27.403	815.583	648.066
377.986	27.464	815.593	648.235
379.000	27.788	815.020	648.873
380.015	27.679	814.759	648.222
381.029	27.529	813.891	646.938
382.044	27.426	813.318	646.062
383.059	27.473	813.128	646.020
384.073	27.604	812.650	646.047
385.088	27.628	812.197	645.713
386.102	27.634	811.707	645.288
387.117	27.526	810.590	643.963
388.132	27.341	809.601	642.468
389.146	27.194	809.033	641.442
390.161	26.690	808.425	639.126
391.175	26.862	807.869	639.235
392.190	27.350	808.129	641.104
393.205	27.365	807.539	640.632
394.219	26.146	805.983	635.056
395.234	24.808	803.409	628.276
396.248	23.980	802.575	624.661
397.263	25.062	803.769	629.338
398.278	26.781	804.685	636.035
399.292	27.349	804.534	637.853
400.307	26.993	804.141	636.238
401.321	26.816	803.622	635.151
402.336	27.069	803.416	635.818
403.350	27.272	803.267	636.354
404.365	27.859	802.945	638.093
405.380	28.048	802.772	638.559
406.394	28.290	802.805	639.377
407.409	28.413	802.302	639.347
408.423	28.301	801.657	638.387
409.438	28.352	801.092	638.058
410.453	28.275	800.873	637.557
411.467	28.494	800.415	637.898
412.482	28.430	799.555	636.935
413.496	28.335	799.009	636.114
414.511	28.446	799.090	636.508
415.526	28.475	798.638	636.192
416.540	28.347	798.211	635.351
417.555	28.428	797.681	635.153
418.569	28.061	796.952	633.247
419.584	28.163	796.148	632.903
420.599	28.043	796.177	632.456
421.613	111.397	1284.839	1458.556
422.628	96.023	1356.005	1458.679
