DTS Sentinel unit serial number:	SN413079Multiplexer serial number:	ORYXHardware model number:	OX4-SRSoftware version number:	ORYX F/W v4.00 Oryx Data Collector v3.7.2.0data status	okinstallation	princeton_trtdifferential loss correction	single-endedforward channel	channel 3reverse channel	N/Adate	2019/09/14time	07:52:35forward acquisition time	60.00reverse acquisition time	0.00gamma	496.2192k internal	0.2337k external	0.2337temperature offset calibration	1.0053default loss term (dB/km)	0.3790temperature slope calibration	1.0000multiplexer offset coefficient	1.0000multiplexer slope coefficient	1.0000fibre end	0.00T internal ref (°C)	26.56T ext. ref 1 (°C)	3.50T ext. ref 2 (°C)	23.32length (m)	temperature (°C)	Stokes	anti-Stokes-747.200	-93.882	-0.108	0.030
-746.185	-200.000	-0.005	0.204
-745.171	32.205	-0.169	-0.146
-744.156	-101.334	-0.194	-0.047
-743.142	83.386	-0.121	0.132
-742.127	800.000	0.038	0.132
-741.112	58.420	-0.078	0.077
-740.098	-200.000	0.009	0.103
-739.083	-136.359	0.167	-0.019
-738.069	121.512	-0.089	0.111
-737.054	142.250	0.098	-0.131
-736.039	36.602	-0.154	-0.137
-735.025	106.675	0.131	0.156
-734.010	-200.000	-0.009	-0.132
-732.996	84.974	0.037	-0.041
-731.981	301.318	0.039	-0.073
-730.966	-15.267	-0.087	-0.056
-729.952	10.796	0.072	-0.055
-728.937	25.154	-0.187	-0.156
-727.923	-85.459	-0.268	0.084
-726.908	-200.000	0.013	-0.222
-725.894	248.689	-0.185	-0.315
-724.879	-146.503	-0.436	0.038
-723.864	800.000	0.061	-0.224
-722.850	232.556	0.182	-0.300
-721.835	-106.590	-0.178	-0.040
-720.821	800.000	-0.010	-0.029
-719.806	-141.449	0.451	0.046
-718.791	-99.891	-0.196	-0.049
-717.777	-200.000	-0.038	0.200
-716.762	2.260	-0.161	0.117
-715.748	-200.000	-0.026	0.148
-714.733	-176.859	-0.110	0.003
-713.718	284.449	0.231	-0.417
-712.704	-122.915	0.124	0.020
-711.689	7.231	-0.113	-0.085
-710.675	800.000	0.101	-0.387
-709.660	261.392	-0.113	0.196
-708.645	-200.000	-0.007	0.369
-707.631	-59.176	0.051	-0.022
-706.616	111.131	-0.124	0.149
-705.602	-200.000	-0.083	-0.377
-704.587	-7.810	0.207	0.140
-703.572	-119.773	0.164	0.028
-702.558	-98.807	-0.301	0.077
-701.543	-200.000	0.014	-0.267
-700.529	-35.058	-0.186	-0.101
-699.514	-8.477	0.187	-0.126
-698.499	-132.349	-0.258	0.033
-697.485	472.341	-0.033	-0.073
-696.470	-42.626	-0.086	-0.044
-695.456	330.482	-0.050	-0.097
-694.441	150.466	0.230	0.312
-693.426	-200.000	-0.012	0.072
-692.412	-135.445	0.250	-0.030
-691.397	96.280	-0.077	0.088
-690.383	388.735	0.090	0.186
-689.368	800.000	0.041	0.166
-688.354	-200.000	0.012	0.061
-687.339	-144.348	-0.223	-0.021
-686.324	615.939	0.172	-0.433
-685.310	-61.759	-0.259	-0.109
-684.295	-154.155	0.026	0.002
-683.281	800.000	0.059	-0.172
-682.266	242.445	0.120	-0.202
-681.251	-200.000	-0.040	-0.211
-680.237	-48.235	0.371	0.179
-679.222	3.461	-0.060	-0.044
-678.208	-200.000	-0.022	0.336
-677.193	800.000	0.103	-0.385
-676.178	800.000	0.053	-0.194
-675.164	-50.322	-0.330	0.156
-674.149	172.575	0.022	-0.032
-673.135	-12.680	-0.087	-0.056
-672.120	-106.078	0.307	-0.069
-671.105	740.493	-0.030	-0.082
-670.091	-83.126	0.216	-0.070
-669.076	-200.000	0.012	-0.079
-668.062	-200.000	0.038	-0.180
-667.047	59.349	-0.142	-0.140
-666.032	-56.989	0.255	-0.112
-665.018	281.582	-0.124	-0.221
-664.003	-200.000	0.032	-0.198
-662.989	1.403	-0.173	0.125
-661.974	396.957	0.052	0.108
-660.959	-113.138	0.104	-0.020
-659.945	312.329	0.067	-0.126
-658.930	84.158	0.066	0.072
-657.916	-24.880	-0.128	0.076
-656.901	-34.633	-0.134	0.073
-655.886	84.700	-0.192	-0.211
-654.872	14.423	-0.258	0.201
-653.857	34.342	-0.204	0.178
-652.843	-169.805	-0.192	-0.007
-651.828	800.000	-0.038	0.161
-650.814	-157.557	-0.271	0.016
-649.799	38.448	-0.140	0.124
-648.784	-10.423	0.160	-0.106
-647.770	-200.000	-0.035	-0.168
-646.755	-164.623	-0.424	0.019
-645.741	-92.141	-0.269	-0.076
-644.726	-71.264	-0.061	0.023
-643.711	-148.417	0.203	-0.017
-642.697	203.125	0.258	-0.399
-641.682	102.187	-0.102	-0.119
-640.668	-24.716	0.284	-0.169
-639.653	-200.000	-0.000	0.403
-638.638	-4.810	0.236	0.163
-637.624	-200.000	0.005	0.060
-636.609	-114.596	-0.077	-0.015
-635.595	800.000	-0.052	-0.170
-634.580	-105.993	-0.127	-0.029
-633.565	-148.244	-0.190	0.016
-632.551	-200.000	-0.033	0.256
-631.536	372.259	-0.077	-0.157
-630.522	800.000	0.055	-0.217
-629.507	800.000	0.060	-0.237
-628.492	-200.000	-0.014	-0.157
-627.478	-119.329	-0.321	0.056
-626.463	-200.000	-0.030	-0.152
-625.449	202.903	0.116	0.179
-624.434	-200.000	-0.017	-0.125
-623.419	94.433	0.055	0.062
-622.405	122.572	0.132	-0.165
-621.390	-140.406	0.362	-0.038
-620.376	137.659	0.204	0.266
-619.361	-84.339	-0.205	0.065
-618.346	112.896	-0.097	0.117
-617.332	800.000	0.043	-0.157
-616.317	114.962	-0.201	-0.245
-615.303	-116.668	-0.160	-0.029
-614.288	-83.016	-0.263	0.085
-613.273	162.764	0.133	-0.187
-612.259	-65.325	0.027	-0.011
-611.244	34.039	0.014	0.012
-610.230	-170.483	0.101	-0.004
-609.215	-74.900	0.098	-0.035
-608.201	6.329	0.073	-0.054
-607.186	87.382	0.237	-0.262
-606.171	-36.659	-0.142	-0.076
-605.157	100.697	-0.113	0.131
-604.142	433.688	-0.081	0.176
-603.128	-36.814	0.287	0.154
-602.113	-87.977	0.212	-0.063
-601.098	-89.127	0.190	-0.056
-600.084	-200.000	0.017	-0.225
-599.069	-51.796	0.168	0.078
-598.055	147.883	-0.142	0.191
-597.040	132.293	-0.184	-0.237
-596.025	-68.205	-0.180	0.070
-595.011	-150.201	-0.331	-0.026
-593.996	21.139	0.139	-0.113
-592.982	-47.286	0.103	-0.050
-591.967	-99.497	0.327	0.082
-590.952	226.209	0.184	0.297
-589.938	800.000	-0.080	0.262
-588.923	0.897	0.311	0.222
-587.909	-200.000	0.100	-0.488
-586.894	-161.757	-0.081	0.004
-585.879	260.149	0.190	0.328
-584.865	-125.194	0.269	-0.041
-583.850	5.082	-0.464	-0.341
-582.836	800.000	0.014	-0.056
-581.821	800.000	0.101	-0.396
-580.806	-150.767	-0.193	0.015
-579.792	373.557	-0.115	-0.233
-578.777	92.749	-0.252	0.284
-577.763	8.602	0.274	0.205
-576.748	-101.865	-0.117	0.028
-575.733	287.546	-0.072	0.131
-574.719	4.437	-0.163	0.119
-573.704	40.122	-0.150	-0.134
-572.690	318.725	-0.103	0.195
-571.675	176.892	0.039	-0.056
-570.661	800.000	-0.045	0.143
-569.646	-200.000	-0.015	-0.202
-568.631	-132.540	0.129	0.017
-567.617	-158.438	0.070	0.004
-566.602	-200.000	0.064	0.311
-565.588	800.000	0.081	-0.330
-564.573	-90.854	-0.144	0.041
-563.558	61.107	-0.098	0.097
-562.544	561.846	-0.165	0.397
-561.529	-173.010	0.109	-0.003
-560.515	-33.700	0.087	0.048
-559.500	159.998	-0.181	-0.251
-558.485	800.000	-0.055	-0.158
-557.471	-26.540	-0.151	0.088
-556.456	99.752	0.216	-0.250
-555.442	-104.048	0.572	0.133
-554.427	376.539	0.147	0.299
-553.412	159.668	-0.145	-0.202
-552.398	-127.314	0.076	-0.011
-551.383	-90.953	-0.343	0.098
-550.369	-41.241	-0.123	-0.063
-549.354	68.456	0.358	-0.365
-548.339	109.315	0.174	0.207
-547.325	88.400	0.170	0.188
-546.310	-200.000	0.008	-0.120
-545.296	390.049	0.149	-0.307
-544.281	-200.000	0.054	0.258
-543.266	-98.931	-0.094	0.024
-542.252	-120.200	0.558	-0.095
-541.237	-200.000	-0.016	-0.242
-540.223	-110.141	-0.363	0.075
-539.208	69.197	-0.108	-0.111
-538.193	-200.000	0.016	0.270
-537.179	-70.252	-0.151	0.057
-536.164	800.000	0.080	0.257
-535.150	588.135	0.091	0.223
-534.135	41.285	0.273	0.245
-533.121	24.064	-0.207	-0.170
-532.106	-145.842	0.312	0.028
-531.091	-191.650	-0.155	0.002
-530.077	-200.000	0.000	0.187
-529.062	-200.000	-0.013	0.164
-528.048	-200.000	-0.013	-0.140
-527.033	463.609	-0.134	-0.298
-526.018	-34.554	0.209	0.114
-525.004	-27.684	0.179	-0.103
-523.989	424.469	-0.101	-0.215
-522.975	-200.000	-0.029	-0.232
-521.960	9.465	-0.165	-0.124
-520.945	-139.299	-0.498	0.053
-519.931	-164.420	0.122	-0.006
-518.916	126.777	-0.121	-0.153
-517.902	371.487	-0.043	-0.087
-516.887	-59.925	-0.131	0.056
-515.872	8.433	0.155	0.116
-514.858	-78.071	0.029	0.010
-513.843	800.000	-0.055	-0.165
-512.829	-200.000	0.040	0.343
-511.814	146.116	0.152	-0.203
-510.799	800.000	0.027	-0.079
-509.785	452.151	0.074	0.162
-508.770	-200.000	0.007	-0.194
-507.756	-16.864	-0.300	-0.189
-506.741	800.000	0.112	-0.396
-505.726	-42.697	0.131	-0.066
-504.712	-104.835	-0.277	0.063
-503.697	-121.974	-0.248	-0.041
-502.683	323.806	-0.099	-0.189
-501.668	-23.542	-0.206	0.123
-500.653	409.641	0.057	0.120
-499.639	-200.000	-0.041	0.310
-498.624	287.544	-0.134	0.240
-497.610	-138.335	-0.403	-0.044
-496.595	207.057	0.075	0.117
-495.581	180.186	0.128	-0.186
-494.566	239.627	-0.121	0.200
-493.551	-200.000	-0.007	0.275
-492.537	368.382	-0.098	-0.198
-491.522	23.399	-0.036	-0.030
-490.508	-200.000	0.105	0.474
-489.493	-50.461	0.267	-0.125
-488.478	-71.681	0.110	0.041
-487.464	549.820	-0.011	-0.025
-486.449	-75.417	-0.115	0.041
-485.435	320.054	-0.096	0.182
-484.420	594.448	0.134	-0.330
-483.405	800.000	-0.087	0.280
-482.391	-74.211	-0.075	-0.027
-481.376	-200.000	-0.010	0.145
-480.362	-55.736	0.164	0.073
-479.347	-200.000	-0.002	-0.089
-478.332	800.000	0.060	-0.259
-477.318	95.483	0.239	0.271
-476.303	-200.000	0.028	-0.136
-475.289	135.035	0.140	-0.181
-474.274	-177.500	-0.137	0.003
-473.259	-28.659	-0.294	-0.168
-472.245	-200.000	-0.003	-0.238
-471.230	50.519	0.171	-0.160
-470.216	497.453	-0.011	0.025
-469.201	-67.073	0.232	-0.091
-468.186	282.485	0.151	0.270
-467.172	8.705	-0.416	-0.311
-466.157	-186.797	-0.228	0.003
-465.143	411.104	0.113	-0.238
-464.128	-59.500	0.261	-0.111
-463.113	101.409	-0.135	0.156
-462.099	336.278	-0.156	0.301
-461.084	-32.229	-0.163	-0.090
-460.070	-200.000	-0.020	-0.126
-459.055	-200.000	0.072	-0.391
-458.040	-54.715	-0.247	0.111
-457.026	-72.121	0.131	0.048
-456.011	54.099	0.187	-0.178
-454.997	114.310	0.122	-0.147
-453.982	800.000	0.104	0.389
-452.968	-200.000	-0.033	-0.220
-451.953	327.488	-0.037	-0.070
-450.938	-99.492	-0.093	0.023
-449.924	800.000	-0.101	0.318
-448.909	285.648	-0.075	0.135
-447.895	-123.353	0.352	0.056
-446.880	-200.000	0.037	0.247
-445.865	-170.051	0.153	0.005
-444.851	73.491	-0.103	0.107
-443.836	596.847	-0.070	0.172
-442.822	-77.781	0.285	-0.098
-441.807	464.366	-0.055	-0.121
-440.792	-139.036	0.056	0.006
-439.778	312.977	0.075	-0.140
-438.763	63.925	0.019	0.019
-437.749	-19.324	-0.131	0.081
-436.734	-32.360	-0.168	-0.093
-435.719	61.108	0.243	-0.239
-434.705	-195.293	-0.145	-0.001
-433.690	-76.295	-0.290	0.101
-432.676	-200.000	-0.068	-0.296
-431.661	-126.760	0.326	0.048
-430.646	362.962	-0.086	0.171
-429.632	-24.336	-0.039	-0.023
-428.617	-99.907	0.213	0.053
-427.603	501.223	-0.064	-0.146
-426.588	189.793	-0.162	0.241
-425.573	152.862	0.002	0.003
-424.559	800.000	-0.034	-0.119
-423.544	-155.747	-0.219	0.014
-422.530	99.362	-0.064	0.073
-421.515	-45.628	0.202	0.099
-420.500	-122.288	0.428	-0.069
-419.486	55.629	-0.317	-0.305
-418.471	-126.170	0.319	-0.047
-417.457	-200.000	-0.006	0.043
-416.442	653.248	-0.144	0.366
-415.428	-200.000	0.015	0.135
-414.413	-17.500	0.275	0.171
-413.398	-200.000	-0.014	0.138
-412.384	-200.000	0.038	0.484
-411.369	523.791	-0.066	-0.154
-410.355	-200.000	-0.056	-0.282
-409.340	-33.310	0.012	-0.006
-408.325	-189.247	-0.269	-0.003
-407.311	-101.731	0.124	0.030
-406.296	-86.881	-0.125	-0.038
-405.282	525.826	-0.067	0.155
-404.267	-200.000	-0.013	-0.075
-403.252	-200.000	0.023	0.101
-402.238	22.416	-0.171	-0.139
-401.223	-142.962	0.126	-0.012
-400.209	-108.969	-0.363	-0.077
-399.194	71.714	-0.272	-0.280
-398.179	-8.874	0.259	0.172
-397.165	21.577	-0.138	-0.111
-396.150	800.000	-0.129	0.411
-395.136	-26.317	0.060	0.035
-394.121	800.000	0.055	-0.234
-393.106	-6.393	0.178	0.120
-392.092	-200.000	0.024	0.157
-391.077	94.955	0.089	0.100
-390.063	-149.834	-0.137	0.011
-389.048	-50.374	0.165	0.077
-388.033	-200.000	-0.022	-0.365
-387.019	-105.114	-0.195	-0.044
-386.004	94.000	0.081	-0.091
-384.990	-8.042	-0.328	-0.219
-383.975	579.895	-0.075	0.182
-382.960	-43.096	0.164	-0.082
-381.946	800.000	0.045	0.158
-380.931	-54.685	0.110	0.049
-379.917	260.819	0.150	0.256
-378.902	424.214	0.123	-0.261
-377.888	268.704	0.136	-0.235
-376.873	800.000	-0.059	0.189
-375.858	100.329	-0.085	-0.097
-374.844	-119.816	-0.143	-0.024
-373.829	-200.000	0.116	0.001
-372.815	-145.115	-0.283	-0.025
-371.800	105.134	-0.007	0.008
-370.785	110.964	-0.359	0.427
-369.771	-200.000	-0.036	-0.187
-368.756	137.752	0.201	-0.260
-367.742	528.009	0.077	-0.180
-366.727	-66.085	-0.069	0.027
-365.712	-149.303	-0.129	0.010
-364.698	-200.000	-0.005	0.204
-363.683	-98.757	-0.024	-0.006
-362.669	14.262	0.145	0.112
-361.654	-117.709	-0.262	-0.047
-360.639	800.000	0.076	0.237
-359.625	-139.232	-0.174	0.019
-358.610	-200.000	0.011	0.433
-357.596	219.608	-0.108	-0.171
-356.581	12.176	0.065	0.049
-355.566	800.000	-0.030	-0.124
-354.552	-85.041	0.203	-0.063
-353.537	-200.000	0.000	-0.134
-352.523	800.000	0.043	0.138
-351.508	648.158	-0.019	-0.049
-350.493	-200.000	0.008	-0.112
-349.479	-149.843	0.057	0.004
-348.464	800.000	-0.014	0.061
-347.450	-100.970	-0.124	-0.030
-346.435	125.042	-0.029	-0.036
-345.420	36.063	0.114	-0.099
-344.406	-83.063	0.264	0.084
-343.391	-200.000	-0.001	-0.040
-342.377	-73.784	-0.249	-0.089
-341.362	1.614	-0.174	0.124
-340.348	634.826	-0.048	-0.121
-339.333	-28.756	-0.286	0.163
-338.318	-119.664	0.269	-0.046
-337.304	-200.000	0.003	0.016
-336.289	-25.256	-0.128	0.075
-335.275	61.142	-0.297	0.291
-334.260	149.467	-0.127	0.170
-333.245	151.039	-0.026	-0.034
-332.231	-200.000	-0.011	-0.073
-331.216	-1.169	0.204	-0.143
-330.202	800.000	-0.038	0.132
-329.187	-48.691	0.048	-0.023
-328.172	-200.000	-0.014	-0.351
-327.158	-122.018	0.166	-0.027
-326.143	37.380	-0.288	-0.252
-325.129	-155.832	0.285	0.018
-324.114	-200.000	-0.015	0.097
-323.099	216.044	0.091	-0.143
-322.085	-200.000	-0.011	0.179
-321.070	676.930	-0.072	-0.185
-320.056	-92.484	-0.198	0.055
-319.041	142.592	0.081	0.106
-318.026	198.544	-0.078	0.117
-317.012	-200.000	0.003	-0.325
-315.997	800.000	-0.027	-0.117
-314.983	168.053	-0.188	-0.264
-313.968	800.000	0.069	-0.238
-312.953	113.114	-0.060	0.072
-311.939	-200.000	-0.002	0.173
-310.924	-23.431	0.060	0.036
-309.910	-32.383	0.460	-0.253
-308.895	-27.925	-0.122	0.070
-307.880	-112.624	0.284	-0.056
-306.866	374.236	0.026	0.051
-305.851	352.440	0.034	0.067
-304.837	-200.000	0.033	-0.175
-303.822	800.000	-0.067	0.193
-302.807	-200.000	-0.028	-0.223
-301.793	75.423	-0.033	0.034
-300.778	62.698	0.189	0.187
-299.764	-177.201	-0.226	0.006
-298.749	-83.166	0.173	-0.055
-297.735	-98.383	0.079	0.020
-296.720	800.000	0.030	0.088
-295.705	800.000	0.112	0.351
-294.691	800.000	-0.022	-0.084
-293.676	379.180	0.207	-0.418
-292.662	-200.000	0.064	-0.306
-291.647	-129.263	0.232	-0.032
-290.632	-40.109	-0.262	-0.135
-289.618	329.160	-0.182	-0.344
-288.603	-200.000	-0.046	0.335
-287.589	800.000	0.042	-0.167
-286.574	51.296	0.124	0.116
-285.559	800.000	-0.127	0.363
-284.545	294.079	-0.071	-0.128
-283.530	-21.043	0.226	-0.137
-282.516	111.763	-0.097	-0.116
-281.501	20.897	0.131	-0.104
-280.486	649.216	0.017	0.042
-279.472	92.670	0.080	-0.089
-278.457	706.494	-0.121	0.316
-277.443	-114.815	-0.105	0.020
-276.428	-122.764	0.255	0.041
-275.413	157.230	-0.184	-0.251
-274.399	-200.000	-0.024	0.111
-273.384	-66.753	-0.291	0.114
-272.370	115.661	0.181	0.218
-271.355	800.000	-0.135	0.453
-270.340	15.804	-0.129	0.100
-269.326	-38.758	0.258	-0.134
-268.311	103.076	-0.046	-0.053
-267.297	-123.115	-0.076	-0.012
-266.282	800.000	-0.060	-0.179
-265.267	800.000	-0.095	0.368
-264.253	140.349	0.143	-0.186
-263.238	14.942	-0.240	0.185
-262.224	-192.050	-0.317	-0.003
-261.209	-42.485	-0.233	0.117
-260.195	-181.944	0.276	0.005
-259.180	186.857	-0.099	-0.145
-258.165	-67.161	0.116	-0.045
-257.151	304.471	0.113	0.206
-256.136	-66.568	-0.067	0.026
-255.122	-23.686	-0.152	0.090
-254.107	800.000	-0.046	-0.146
-253.092	342.063	-0.092	0.178
-252.078	179.414	-0.144	-0.207
-251.063	-79.469	-0.293	0.097
-250.049	-110.618	-0.359	-0.073
-249.034	800.000	0.070	0.267
-248.019	-116.680	0.200	0.036
-247.005	-48.406	-0.133	0.063
-245.990	-106.496	0.106	-0.023
-244.976	-65.405	0.298	0.118
-243.961	105.733	-0.184	0.214
-242.946	-53.675	0.119	0.054
-241.932	-190.011	-0.158	0.002
-240.917	-62.136	0.388	0.159
-239.903	-66.574	0.426	0.166
-238.888	141.475	0.075	-0.098
-237.873	-200.000	-0.035	-0.499
-236.859	313.643	-0.059	0.109
-235.844	-10.248	0.052	-0.034
-234.830	-124.709	-0.318	-0.048
-233.815	362.373	0.099	-0.196
-232.800	41.091	-0.327	0.290
-231.786	-200.000	-0.016	-0.171
-230.771	-3.772	0.166	-0.114
-229.757	-200.000	-0.010	0.261
-228.742	800.000	-0.105	0.290
-227.727	644.034	0.090	0.225
-226.713	-27.430	0.050	-0.029
-225.698	452.928	0.052	-0.112
-224.684	-200.000	-0.038	-0.203
-223.669	451.393	0.008	0.018
-222.655	204.219	0.233	-0.356
-221.640	-47.813	0.222	-0.106
-220.625	-85.657	0.613	0.187
-219.611	-200.000	0.030	-0.149
-218.596	34.819	-0.116	0.099
-217.582	-38.300	0.372	0.194
-216.567	18.079	0.232	0.182
-215.552	-200.000	0.029	0.197
-214.538	-108.341	0.100	0.021
-213.523	149.123	-0.271	-0.360
-212.509	700.847	0.069	0.179
-211.494	257.979	0.088	-0.148
-210.479	14.998	0.165	-0.127
-209.465	707.682	-0.095	-0.247
-208.450	-123.951	-0.441	0.068
-207.436	800.000	0.061	0.196
-206.421	247.233	0.027	-0.045
-205.406	160.825	0.060	-0.082
-204.392	68.427	-0.145	0.146
-203.377	-200.000	0.024	0.217
-202.363	124.327	0.186	0.229
-201.348	-29.091	0.138	-0.078
-200.333	-200.000	-0.002	0.320
-199.319	165.376	0.037	0.051
-198.304	-19.101	-0.243	0.149
-197.290	711.518	0.078	-0.203
-196.275	243.884	0.049	0.080
-195.260	-36.155	-0.417	-0.221
-194.246	25.464	0.224	-0.183
-193.231	-200.000	0.041	-0.188
-192.217	223.778	-0.226	-0.358
-191.202	-200.000	0.000	0.296
-190.187	539.537	0.035	-0.081
-189.173	-92.750	0.187	-0.052
-188.158	63.104	0.132	0.130
-187.144	-10.157	-0.269	-0.175
-186.129	-26.966	0.312	0.179
-185.114	-200.000	-0.015	0.146
-184.100	800.000	0.051	-0.168
-183.085	222.712	-0.063	-0.099
-182.071	-200.000	0.011	-0.144
-181.056	117.273	0.166	0.200
-180.042	-47.513	0.107	0.051
-179.027	-1.712	-0.089	0.062
-178.012	296.841	0.187	0.336
-176.998	800.000	-0.058	0.194
-175.983	-39.102	0.112	-0.058
-174.969	-79.521	-0.116	-0.038
-173.954	121.553	-0.344	-0.421
-172.939	89.438	-0.163	-0.178
-171.925	-48.678	0.117	0.055
-170.910	181.639	0.166	0.240
-169.896	171.409	-0.139	0.195
-168.881	-200.000	-0.010	0.084
-167.866	-93.818	-0.193	-0.052
-166.852	800.000	-0.031	0.123
-165.837	-200.000	0.016	0.206
-164.823	-60.833	-0.094	-0.039
-163.808	616.451	0.032	-0.078
-162.793	-46.288	-0.132	-0.064
-161.779	-86.875	0.213	-0.064
-160.764	800.000	0.083	-0.263
-159.750	79.163	-0.093	0.098
-158.735	-200.000	-0.029	0.158
-157.720	-57.842	0.269	0.116
-156.706	800.000	0.059	-0.194
-155.691	-66.446	0.133	-0.052
-154.677	50.320	0.092	0.085
-153.662	-95.986	-0.125	-0.033
-152.647	377.687	-0.153	0.307
-151.633	800.000	0.056	-0.187
-150.618	800.000	-0.136	-0.475
-149.604	-200.000	-0.027	0.182
-148.589	507.453	0.161	0.366
-147.574	-120.993	-0.103	0.017
-146.560	87.298	-0.204	0.221
-145.545	-200.000	0.002	-0.154
-144.531	262.564	0.100	-0.171
-143.516	-79.061	-0.053	0.018
-142.502	108.472	0.085	0.100
-141.487	295.998	-0.140	-0.252
-140.472	-102.028	0.145	-0.034
-139.458	800.000	-0.070	-0.254
-138.443	-42.035	-0.239	-0.120
-137.429	800.000	0.030	0.117
-136.414	-200.000	0.032	0.165
-135.399	-143.743	-0.069	0.006
-134.385	109.318	-0.112	0.131
-133.370	1.954	0.268	-0.190
-132.356	623.828	0.090	-0.222
-131.341	428.641	0.186	-0.395
-130.326	441.404	0.142	0.304
-129.312	-105.702	0.074	0.016
-128.297	341.861	0.055	-0.105
-127.283	800.000	-0.099	0.293
-126.268	13.799	-0.014	-0.011
-125.253	584.851	-0.076	0.182
-124.239	-162.639	0.429	-0.021
-123.224	-200.000	-0.015	0.256
-122.210	-113.869	-0.115	0.022
-121.195	-200.000	0.002	0.013
-120.180	-88.469	-0.157	0.046
-119.166	-200.000	-0.025	0.489
-118.151	99.191	-0.043	0.048
-117.137	-28.701	-0.083	-0.047
-116.122	-49.433	-0.232	0.108
-115.107	-118.087	-0.170	-0.030
-114.093	-200.000	-0.001	0.145
-113.078	75.217	-0.169	0.175
-112.064	-133.592	-0.083	0.010
-111.049	38.830	0.103	-0.090
-110.034	662.566	0.042	-0.107
-109.020	-200.000	0.060	-0.260
-108.005	-200.000	-0.003	-0.201
-106.991	118.933	-0.260	0.315
-105.976	221.740	0.151	-0.238
-104.962	77.413	0.082	-0.085
-103.947	-7.395	0.084	-0.056
-102.932	139.411	-0.046	0.059
-101.918	144.138	0.151	-0.197
-100.903	73.658	-0.072	-0.074
-99.889	-41.036	-0.192	-0.097
-98.874	464.461	-0.067	-0.147
-97.859	441.694	-0.172	0.367
-96.845	-190.073	0.114	0.001
-95.830	-49.881	0.395	0.183
-94.816	-87.415	-0.117	0.035
-93.801	-72.608	0.327	0.118
-92.786	-97.128	0.274	0.070
-91.772	-11.626	0.272	0.175
-90.757	-200.000	0.029	0.174
-89.743	800.000	-0.068	-0.197
-88.728	198.615	0.097	0.145
-87.713	-166.507	0.355	0.015
-86.699	464.833	0.036	0.079
-85.684	33.153	0.108	-0.092
-84.670	-88.718	-0.092	-0.027
-83.655	195.009	0.073	0.108
-82.640	-10.613	0.186	-0.120
-81.626	-76.183	-0.496	0.171
-80.611	335.206	-0.027	-0.051
-79.597	-136.432	-0.177	-0.020
-78.582	11.661	0.333	-0.250
-77.567	93.190	-0.056	0.062
-76.553	-33.545	0.090	-0.048
-75.538	128.983	0.145	-0.181
-74.524	-51.443	0.274	0.125
-73.509	5.080	-0.206	0.148
-72.494	75.907	-0.080	0.082
-71.480	96.788	-0.175	-0.196
-70.465	-144.375	0.363	0.033
-69.451	-200.000	0.014	-0.125
-68.436	-70.924	-0.316	-0.116
-67.422	72.624	0.279	-0.285
-66.407	-26.868	-0.028	-0.016
-65.392	657.399	-0.119	-0.298
-64.378	-113.152	-0.070	0.014
-63.363	-200.000	-0.023	-0.401
-62.349	8.832	-0.119	-0.088
-61.334	39.085	-0.810	-0.708
-60.319	130.945	0.362	0.454
-59.305	800.000	-0.242	-0.819
-58.290	199.912	0.975	1.463
-57.276	177.062	0.809	1.150
-56.261	-200.000	116.036	658.539
-55.246	526.202	1536.444	3535.520
-54.232	175.597	2711.624	3841.589
-53.217	106.848	2184.459	2533.520
-52.203	37.458	1699.207	1472.023
-51.188	29.597	1513.803	1258.066
-50.173	27.368	1489.021	1222.468
-49.159	51.934	1548.163	1439.884
-48.144	49.836	1563.352	1439.607
-47.130	29.900	1518.419	1263.775
-46.115	26.723	1503.556	1229.831
-45.100	26.685	1499.893	1226.527
-44.086	26.568	1498.078	1224.204
-43.071	26.557	1495.985	1222.370
-42.057	26.464	1494.635	1220.596
-41.042	26.645	1492.789	1220.254
-40.027	26.636	1491.267	1218.904
-39.013	26.594	1489.413	1217.061
-37.998	26.476	1488.878	1215.780
-36.984	26.566	1487.876	1215.519
-35.969	26.462	1486.333	1213.508
-34.954	26.548	1485.221	1213.128
-33.940	26.566	1483.728	1211.983
-32.925	26.567	1482.132	1210.638
-31.911	26.538	1481.037	1209.503
-30.896	26.610	1479.545	1208.719
-29.881	26.637	1477.934	1207.530
-28.867	26.603	1477.059	1206.544
-27.852	26.673	1476.009	1206.103
-26.838	26.677	1474.467	1204.826
-25.823	26.677	1472.441	1203.119
-24.809	26.634	1471.320	1201.868
-23.794	26.715	1469.549	1200.913
-22.779	26.601	1468.746	1199.452
-21.765	26.576	1467.849	1198.507
-20.750	26.497	1466.782	1197.069
-19.736	26.558	1465.544	1196.413
-18.721	26.556	1464.274	1195.318
-17.706	26.568	1462.983	1194.296
-16.692	26.652	1462.017	1194.012
-15.677	26.535	1461.529	1192.793
-14.663	26.626	1460.416	1192.437
-13.648	26.559	1459.484	1191.186
-12.633	26.424	1458.960	1189.823
-11.619	26.496	1457.921	1189.404
-10.604	26.478	1457.046	1188.521
-9.590	26.452	1455.878	1187.352
-8.575	26.540	1455.112	1187.260
-7.560	26.647	1453.668	1186.735
-6.546	26.567	1453.432	1185.973
-5.531	26.470	1452.748	1184.732
-4.517	26.527	1451.054	1183.674
-3.502	26.542	1450.366	1183.168
-2.487	26.497	1449.530	1182.141
-1.473	26.511	1448.286	1181.171
-0.458	26.585	1447.019	1180.576
0.556	26.892	1437.930	1170.752
1.571	24.359	1413.927	1135.009
2.586	21.408	1354.729	1069.372
3.600	20.040	1273.486	997.283
4.615	18.786	1228.230	954.794
5.629	16.231	1170.913	896.601
6.644	9.194	1089.264	799.109
7.659	4.215	1052.051	747.774
8.673	3.564	1046.754	740.821
9.688	3.487	1043.570	738.132
10.702	3.398	1042.119	736.615
11.717	3.541	1039.540	735.410
12.731	5.606	1041.504	746.588
13.746	12.376	1051.251	785.992
14.761	18.157	1058.851	819.383
15.775	19.532	1059.177	826.147
16.790	19.052	1057.809	822.711
17.804	17.936	1055.719	815.686
18.819	17.151	1053.558	810.198
19.834	16.734	1052.393	807.246
20.848	16.507	1051.888	805.706
21.863	16.389	1051.000	804.393
22.877	16.085	1050.217	802.275
23.892	15.975	1049.304	800.982
24.907	15.867	1048.836	800.042
25.921	15.844	1048.115	799.312
26.936	15.909	1046.864	798.594
27.950	15.931	1045.789	797.809
28.965	15.938	1045.154	797.288
29.980	16.073	1043.462	796.564
30.994	16.134	1042.736	796.225
32.009	16.217	1041.871	795.886
33.023	16.394	1040.845	795.866
34.038	16.357	1040.234	795.157
35.053	16.247	1039.527	794.025
36.067	16.037	1038.796	792.410
37.082	15.929	1037.813	791.084
38.096	16.088	1036.980	791.124
39.111	16.175	1036.174	790.847
40.126	16.260	1035.213	790.445
41.140	16.151	1034.146	789.047
42.155	15.999	1032.773	787.223
43.169	15.700	1031.978	785.148
44.184	15.844	1030.684	784.768
45.199	15.776	1029.394	783.398
46.213	15.856	1028.400	782.947
47.228	15.768	1027.706	781.939
48.242	15.954	1026.813	782.052
49.257	16.044	1025.891	781.699
50.271	16.046	1024.888	780.876
51.286	16.075	1024.068	780.314
52.301	16.212	1023.006	780.068
53.315	16.115	1021.935	778.735
54.330	16.016	1021.540	777.912
55.344	15.964	1020.528	776.830
56.359	15.863	1019.660	775.635
57.374	15.936	1018.679	775.159
58.388	15.977	1017.657	774.499
59.403	15.762	1016.924	772.883
60.417	15.702	1016.280	772.051
61.432	15.683	1015.807	771.536
62.447	15.723	1014.836	770.916
63.461	15.666	1014.018	769.963
64.476	15.698	1013.053	769.310
65.490	15.620	1012.162	768.207
66.505	15.651	1011.332	767.654
67.520	15.736	1010.329	767.211
68.534	15.742	1009.839	766.800
69.549	15.684	1008.902	765.756
70.563	15.800	1007.894	765.450
71.578	15.567	1007.910	764.333
72.593	15.684	1006.576	763.784
73.607	15.548	1005.354	762.176
74.622	15.473	1004.997	761.498
75.636	15.400	1004.340	760.598
76.651	15.589	1003.068	760.424
77.666	15.633	1002.265	759.950
78.680	15.704	1001.313	759.480
79.695	15.569	1001.369	758.843
80.709	15.497	1000.735	757.974
81.724	15.746	999.740	758.273
82.739	15.754	999.158	757.802
83.753	15.755	998.683	757.379
84.768	16.042	997.413	757.638
85.782	16.152	996.680	757.510
86.797	16.192	996.373	757.388
87.812	16.230	995.543	756.862
88.826	16.162	994.441	755.649
89.841	16.165	993.437	754.834
90.855	16.229	992.736	754.523
91.870	16.271	992.266	754.284
92.884	16.115	991.824	753.185
93.899	16.340	990.568	753.170
94.914	16.133	989.996	751.745
95.928	16.280	989.194	751.725
96.943	16.252	988.632	751.104
97.957	16.184	987.525	749.897
98.972	16.165	986.537	748.993
99.987	16.119	985.970	748.294
101.001	16.199	985.326	748.094
102.016	16.115	984.695	747.175
103.030	16.137	983.304	746.153
104.045	16.145	982.678	745.646
105.060	16.240	981.806	745.338
106.074	16.209	980.466	744.120
107.089	15.855	980.127	742.236
108.103	15.770	978.820	740.806
109.118	15.732	977.865	739.852
110.133	15.727	977.265	739.310
111.147	15.769	976.262	738.671
112.162	15.740	975.221	737.689
113.176	15.775	974.439	737.187
114.191	15.865	973.790	737.023
115.206	15.911	973.110	736.645
116.220	15.894	972.350	735.930
117.235	15.958	971.409	735.431
118.249	15.852	970.561	734.261
119.264	15.807	969.669	733.325
120.279	15.769	968.808	732.446
121.293	15.652	968.412	731.572
122.308	15.783	967.345	731.272
123.322	15.648	966.964	730.332
124.337	15.663	965.346	729.111
125.352	15.574	964.513	728.031
126.366	15.711	962.955	727.384
127.381	15.588	962.544	726.476
128.395	15.627	961.393	725.713
129.410	15.615	960.778	725.133
130.424	15.594	959.746	724.196
131.439	15.767	958.703	724.093
132.454	15.980	957.495	724.031
133.468	15.790	957.358	723.045
134.483	15.793	956.821	722.591
135.497	15.741	956.617	722.146
136.512	15.909	955.526	721.981
137.527	15.722	955.238	720.898
138.541	15.803	953.966	720.219
139.556	15.928	952.802	719.815
140.570	15.872	952.341	719.163
141.585	16.002	951.908	719.327
142.600	16.061	951.351	719.093
143.614	16.109	950.644	718.698
144.629	16.078	949.675	717.772
145.643	16.419	948.882	718.560
146.658	16.321	947.732	717.210
147.673	16.177	947.167	716.106
148.687	16.007	946.334	714.690
149.702	16.004	945.198	713.759
150.716	15.983	944.360	712.975
151.731	15.835	943.498	711.633
152.746	16.007	942.696	711.691
153.760	16.179	942.019	711.844
154.775	15.917	941.674	710.416
155.789	16.169	940.459	710.499
156.804	16.077	940.333	709.954
157.819	16.180	939.429	709.641
158.833	16.183	938.651	709.004
159.848	16.236	938.197	708.818
160.862	16.243	937.212	708.042
161.877	16.238	936.447	707.381
162.892	16.112	936.068	706.505
163.906	16.012	934.614	704.926
164.921	15.919	933.896	703.933
165.935	15.970	933.022	703.424
166.950	16.043	932.016	702.908
167.964	16.218	931.027	702.831
168.979	16.185	930.293	702.075
169.994	16.174	929.141	701.097
171.008	16.076	928.428	700.090
172.023	16.031	927.952	699.483
173.037	16.190	927.218	699.526
174.052	16.289	926.556	699.377
175.067	16.294	925.730	698.714
176.081	16.209	924.688	697.511
177.096	15.996	923.763	695.871
178.110	16.132	922.927	695.742
179.125	16.110	922.444	695.228
180.140	16.149	921.507	694.619
181.154	16.114	920.864	693.932
182.169	16.248	920.355	694.034
183.183	16.340	919.601	693.785
184.198	16.444	919.494	694.069
185.213	16.521	918.315	693.434
186.227	16.461	917.347	692.394
187.242	16.559	917.654	692.968
188.256	16.401	917.360	692.035
189.271	16.638	915.675	691.672
190.286	16.648	915.097	691.217
191.300	16.403	914.461	689.673
192.315	16.230	913.037	687.834
193.329	16.147	912.667	687.158
194.344	16.118	911.684	686.237
195.359	16.054	911.833	686.030
196.373	16.254	911.191	686.299
197.388	16.456	910.772	686.742
198.402	16.500	910.456	686.624
199.417	16.501	910.152	686.337
200.432	16.824	909.202	686.869
201.446	16.597	909.276	685.943
202.461	16.823	908.749	686.400
203.475	16.911	908.182	686.269
204.490	16.893	907.314	685.481
205.504	16.701	906.402	683.952
206.519	16.644	905.552	683.020
207.534	16.617	904.764	682.259
208.548	16.595	904.106	681.611
209.563	16.615	903.601	681.253
210.577	16.524	902.814	680.231
211.592	16.579	902.324	680.025
212.607	16.768	901.787	680.319
213.621	16.802	901.333	680.052
214.636	16.876	900.312	679.519
215.650	16.897	899.603	679.007
216.665	16.740	899.279	678.075
217.680	16.837	898.908	678.122
218.694	16.907	898.412	677.969
219.709	17.007	897.900	677.924
220.723	16.940	897.048	676.949
221.738	16.984	896.317	676.514
222.753	16.920	895.545	675.619
223.767	16.878	894.820	674.843
224.782	16.992	893.958	674.586
225.796	16.883	893.757	673.942
226.811	17.052	892.539	673.634
227.826	17.069	891.846	673.118
228.840	16.959	891.356	672.256
229.855	17.030	890.284	671.666
230.869	16.990	890.404	671.539
231.884	16.934	889.487	670.567
232.899	16.892	888.914	669.909
233.913	16.850	887.967	668.971
234.928	16.855	887.181	668.342
235.942	16.785	886.564	667.540
236.957	16.764	886.080	667.034
237.972	16.828	885.240	666.596
238.986	16.805	884.823	666.132
240.001	16.842	884.171	665.729
241.015	16.911	883.410	665.367
242.030	16.833	882.848	664.578
243.045	17.031	882.173	664.786
244.059	17.048	881.592	664.357
245.074	17.105	881.006	664.080
246.088	17.025	880.228	663.121
247.103	17.136	880.117	663.413
248.117	17.213	879.341	663.068
249.132	17.311	878.962	663.107
250.147	17.454	878.686	663.396
251.161	17.507	878.152	663.144
252.176	17.455	877.694	662.535
253.190	17.576	876.920	662.364
254.205	17.549	876.464	661.857
255.220	17.779	875.542	661.992
256.234	17.733	874.724	661.140
257.249	17.644	874.342	660.445
258.263	17.813	874.044	660.817
259.278	17.617	873.631	659.686
260.293	17.594	873.189	659.206
261.307	17.732	871.933	658.733
262.322	17.750	871.698	658.568
263.336	17.752	871.245	658.173
264.351	17.908	870.847	658.415
265.366	17.944	870.042	657.889
266.380	17.824	869.479	656.944
267.395	17.900	868.361	656.332
268.409	17.733	868.109	655.440
269.424	17.672	867.392	654.608
270.439	17.878	866.431	654.615
271.453	17.845	865.627	653.823
272.468	17.673	864.933	652.580
273.482	17.636	864.286	651.895
274.497	17.604	863.555	651.164
275.512	17.724	863.249	651.332
276.526	17.804	862.146	650.749
277.541	17.567	862.118	649.766
278.555	17.814	860.958	649.777
279.570	17.790	860.874	649.565
280.585	18.033	859.720	649.558
281.599	18.019	859.369	649.181
282.614	17.996	858.687	648.524
283.628	17.917	857.972	647.625
284.643	17.838	857.695	647.062
285.657	17.896	857.554	647.115
286.672	17.909	856.488	646.305
287.687	17.945	855.849	645.901
288.701	17.928	855.678	645.651
289.716	18.114	854.939	645.738
290.730	17.862	854.520	644.413
291.745	17.861	853.717	643.747
292.760	17.963	852.808	643.388
293.774	18.016	852.489	643.289
294.789	18.200	852.174	643.688
295.803	18.090	851.573	642.765
296.818	18.036	850.771	641.898
297.833	18.015	850.132	641.282
298.847	17.886	849.270	640.089
299.862	18.047	848.898	640.358
300.876	18.024	848.402	639.838
301.891	18.152	847.671	639.712
302.906	18.153	846.934	639.102
303.920	18.179	846.672	638.944
304.935	18.448	845.722	639.172
305.949	18.363	845.439	638.587
306.964	18.352	844.595	637.853
307.979	18.405	843.849	637.428
308.993	18.432	843.295	637.056
310.008	18.488	842.767	636.807
311.022	18.456	842.553	636.471
312.037	18.439	841.919	635.873
313.052	18.492	841.021	635.334
314.066	18.164	840.589	633.738
315.081	18.128	839.988	633.095
316.095	18.109	839.367	632.499
317.110	18.066	839.068	632.059
318.125	18.174	838.369	631.877
319.139	18.124	838.012	631.367
320.154	18.291	837.505	631.547
321.168	18.212	836.585	630.504
322.183	18.225	836.352	630.320
323.197	18.321	836.390	630.648
324.212	18.256	835.368	629.582
325.227	18.287	835.260	629.559
326.241	18.269	834.267	628.688
327.256	18.297	833.704	628.310
328.270	18.310	833.243	627.958
329.285	18.204	833.029	627.352
330.300	18.313	831.808	626.774
331.314	18.344	831.221	626.392
332.329	18.273	830.764	625.729
333.343	18.413	830.294	625.833
334.358	18.566	829.750	625.927
335.373	18.535	829.429	625.514
336.387	18.637	828.843	625.388
337.402	18.528	828.558	624.723
338.416	18.591	828.052	624.513
339.431	18.630	827.071	623.862
340.446	18.789	826.657	624.072
341.460	18.813	826.101	623.682
342.475	18.823	825.329	623.082
343.489	18.922	825.021	623.152
344.504	18.992	824.394	622.877
345.519	18.981	823.703	622.260
346.533	19.103	823.559	622.539
347.548	18.961	823.168	621.676
348.562	19.069	822.325	621.373
349.577	18.796	821.811	619.946
350.592	18.846	820.828	619.328
351.606	18.770	820.603	618.831
352.621	18.627	820.350	618.069
353.635	18.446	820.448	617.436
354.650	18.680	819.386	617.425
355.665	18.870	818.661	617.506
356.679	18.743	818.707	617.030
357.694	18.952	818.061	617.238
358.708	18.854	817.568	616.462
359.723	18.962	816.839	616.245
360.738	19.038	816.558	616.250
361.752	18.806	815.895	614.864
362.767	19.133	815.399	615.604
363.781	19.109	815.104	615.242
364.796	19.044	814.740	614.682
365.810	19.107	814.618	614.760
366.825	19.386	813.946	615.194
367.840	19.357	814.003	615.079
368.854	19.195	813.579	614.126
369.869	19.243	812.484	613.416
370.883	19.175	812.051	612.792
371.898	19.215	811.632	612.563
372.913	19.319	810.820	612.267
373.927	19.238	810.713	611.845
374.942	19.350	809.679	611.406
375.956	19.359	809.100	610.949
376.971	19.443	808.726	610.910
377.986	19.368	808.210	610.198
379.000	19.504	807.916	610.402
380.015	19.512	807.337	609.940
381.029	19.528	806.733	609.487
382.044	19.562	805.914	608.934
383.059	19.566	805.367	608.480
384.073	19.560	804.688	607.894
385.088	19.564	804.206	607.491
386.102	19.418	803.957	606.734
387.117	19.495	803.021	606.247
388.132	19.238	802.887	605.186
389.146	19.288	802.595	605.090
390.161	19.302	802.445	604.970
391.175	19.447	801.640	604.818
392.190	19.720	801.328	605.488
393.205	19.342	801.020	603.878
394.219	19.386	800.541	603.618
395.234	19.444	800.017	603.372
396.248	19.384	799.598	602.792
397.263	19.301	798.749	601.809
398.278	19.223	798.277	601.127
399.292	19.214	797.648	600.570
400.307	19.269	797.702	600.747
401.321	19.203	797.252	600.128
402.336	19.371	796.750	600.279
403.350	19.394	796.570	600.173
404.365	19.389	796.123	599.764
405.380	19.537	795.284	599.595
406.394	19.611	795.206	599.737
407.409	19.841	794.645	600.062
408.423	19.832	794.438	599.819
409.438	19.766	793.890	599.123
410.453	19.893	793.622	599.307
411.467	19.876	793.059	598.772
412.482	19.900	792.765	598.581
413.496	19.998	792.220	598.453
414.511	20.001	791.874	598.151
415.526	20.030	791.434	597.866
416.540	20.027	791.023	597.491
417.555	19.990	790.785	597.133
418.569	20.164	789.795	596.930
419.584	20.063	789.636	596.410
420.599	19.924	789.446	595.735
421.613	161.645	1370.634	1795.941
422.628	139.998	1455.288	1796.025
