DTS Sentinel unit serial number:	SN413079Multiplexer serial number:	ORYXHardware model number:	OX4-SRSoftware version number:	ORYX F/W v4.00 Oryx Data Collector v3.7.2.0data status	okinstallation	princeton_trtdifferential loss correction	single-endedforward channel	channel 3reverse channel	N/Adate	2019/09/15time	12:28:35forward acquisition time	60.00reverse acquisition time	0.00gamma	496.2192k internal	0.2300k external	0.2300temperature offset calibration	0.9977default loss term (dB/km)	0.3790temperature slope calibration	1.0000multiplexer offset coefficient	1.0000multiplexer slope coefficient	1.0000fibre end	0.00T internal ref (°C)	35.06T ext. ref 1 (°C)	5.05T ext. ref 2 (°C)	32.70length (m)	temperature (°C)	Stokes	anti-Stokes-747.200	108.161	-0.161	0.196
-746.185	-51.813	-0.371	-0.176
-745.171	221.217	0.144	0.237
-744.156	800.000	0.035	0.154
-743.142	125.789	-0.084	-0.108
-742.127	800.000	0.019	-0.066
-741.112	-144.652	0.216	-0.020
-740.098	-200.000	0.043	0.301
-739.083	24.594	0.137	-0.116
-738.069	-112.121	0.340	0.070
-737.054	800.000	0.080	0.336
-736.039	636.513	-0.074	-0.191
-735.025	-89.280	0.154	0.046
-734.010	-200.000	-0.461	0.002
-732.996	326.130	0.135	-0.263
-731.981	-186.910	-0.135	0.002
-730.966	148.278	0.107	0.147
-729.952	-132.705	-0.039	-0.005
-728.937	11.514	-0.306	-0.239
-727.923	80.875	-0.249	-0.273
-726.908	-58.934	-0.278	-0.123
-725.894	-200.000	-0.021	0.286
-724.879	-139.557	0.109	-0.012
-723.864	-92.295	-0.527	-0.151
-722.850	800.000	-0.080	0.287
-721.835	-50.493	-0.306	-0.147
-720.821	800.000	0.164	-0.474
-719.806	-11.277	-0.147	-0.099
-718.791	-51.108	-0.405	-0.194
-717.777	174.152	-0.169	0.249
-716.762	64.447	-0.174	-0.179
-715.748	-90.551	-0.286	0.084
-714.733	-131.732	0.248	0.033
-713.718	114.247	-0.179	0.221
-712.704	764.273	0.106	-0.293
-711.689	106.470	-0.166	-0.200
-710.675	-200.000	0.032	-0.164
-709.660	-46.491	0.364	-0.182
-708.645	800.000	0.035	0.123
-707.631	-58.160	-0.201	-0.089
-706.616	-78.701	0.401	-0.140
-705.602	-78.834	0.145	-0.050
-704.587	-185.658	0.091	0.001
-703.572	800.000	0.045	-0.175
-702.558	32.033	-0.284	-0.249
-701.543	-147.081	-0.375	0.033
-700.529	218.381	-0.038	0.062
-699.514	40.332	0.335	0.307
-698.499	241.567	0.102	0.174
-697.485	800.000	0.069	0.226
-696.470	162.149	0.111	0.158
-695.456	-123.985	0.166	0.027
-694.441	21.869	0.049	0.041
-693.426	496.239	-0.033	0.078
-692.412	22.918	-0.237	-0.198
-691.397	-146.265	0.057	-0.005
-690.383	-87.379	0.008	-0.002
-689.368	-138.017	0.279	0.032
-688.354	569.089	-0.089	0.220
-687.339	472.055	-0.014	0.033
-686.324	-128.792	-0.260	-0.037
-685.310	-200.000	-0.002	-0.024
-684.295	-90.417	0.248	-0.073
-683.281	492.405	-0.150	0.349
-682.266	-200.000	0.026	0.207
-681.251	454.685	0.094	-0.211
-680.237	800.000	0.045	-0.133
-679.222	-200.000	0.017	-0.285
-678.208	-200.000	0.071	-0.453
-677.193	379.150	0.215	-0.448
-676.178	-12.357	-0.155	0.103
-675.164	349.668	0.087	0.174
-674.149	7.175	0.104	-0.079
-673.135	-200.000	-0.004	0.254
-672.120	-85.464	0.137	-0.043
-671.105	63.140	0.236	0.240
-670.091	53.657	0.200	-0.196
-669.076	-77.802	0.117	-0.041
-668.062	297.845	-0.012	0.022
-667.047	-130.418	0.253	-0.035
-666.032	-200.000	0.011	0.138
-665.018	11.920	-0.125	0.097
-664.003	4.546	-0.043	-0.032
-662.989	-63.927	0.394	0.164
-661.974	-200.000	0.273	0.000
-660.959	424.914	-0.040	0.087
-659.945	-53.372	0.324	0.151
-658.930	293.375	0.211	-0.391
-657.916	-128.534	-0.367	-0.053
-656.901	178.313	-0.114	-0.169
-655.886	-113.242	0.250	0.050
-654.872	153.157	0.196	-0.272
-653.857	47.068	-0.049	0.046
-652.843	-200.000	0.032	-0.242
-651.828	543.995	0.058	-0.140
-650.814	-102.548	-0.271	0.066
-649.799	60.506	-0.024	0.024
-648.784	-62.555	0.173	-0.073
-647.770	246.703	0.143	0.246
-646.755	-2.825	0.137	0.097
-645.741	800.000	-0.053	-0.207
-644.726	-124.937	0.079	0.012
-643.711	30.321	0.167	0.145
-642.697	-109.800	-0.076	0.016
-641.682	-200.000	-0.036	-0.252
-640.668	-200.000	-0.040	0.238
-639.653	800.000	-0.081	-0.270
-638.638	-74.636	-0.160	-0.059
-637.624	-122.472	-0.489	-0.081
-636.609	-54.619	0.212	-0.097
-635.595	-139.048	-0.341	0.037
-634.580	95.670	-0.233	-0.270
-633.565	-200.000	-0.007	0.224
-632.551	-58.594	-0.297	-0.131
-631.536	-40.450	0.041	0.021
-630.522	-200.000	0.033	0.238
-629.507	-194.075	-0.082	-0.001
-628.492	214.539	-0.139	-0.223
-627.478	-151.757	-0.339	0.025
-626.463	-200.000	0.000	-0.018
-625.449	-102.230	-0.148	0.036
-624.434	-51.500	-0.090	0.043
-623.419	-200.000	-0.020	-0.112
-622.405	-104.007	-0.283	-0.067
-621.390	362.427	-0.040	-0.081
-620.376	-56.468	0.086	-0.039
-619.361	274.420	-0.122	0.220
-618.346	-133.030	-0.387	-0.050
-617.332	-116.869	-0.139	-0.026
-616.317	121.376	-0.193	0.244
-615.303	-84.020	0.017	-0.006
-614.288	-200.000	0.009	-0.063
-613.273	129.485	0.140	-0.181
-612.259	-44.010	0.160	-0.082
-611.244	13.353	0.191	-0.150
-610.230	-2.953	-0.111	-0.078
-609.215	60.241	-0.126	0.126
-608.201	269.922	-0.125	-0.222
-607.186	-61.435	0.060	-0.026
-606.171	375.010	0.144	0.298
-605.157	3.249	0.182	-0.134
-604.142	-200.000	0.040	-0.177
-603.128	236.913	0.303	-0.509
-602.113	-119.222	-0.068	0.012
-601.098	-170.927	-0.104	0.004
-600.084	42.966	-0.121	-0.112
-599.069	-27.767	-0.028	0.017
-598.055	130.267	0.096	0.125
-597.040	-67.450	-0.057	-0.023
-596.025	-200.000	0.008	-0.122
-595.011	46.831	0.211	-0.199
-593.996	-88.196	-0.214	-0.065
-592.982	39.079	0.236	0.214
-591.967	510.761	0.077	-0.182
-590.952	88.683	-0.152	-0.171
-589.938	-87.850	0.045	-0.014
-588.923	-90.846	-0.237	0.069
-587.909	124.087	-0.027	0.034
-586.894	183.006	-0.051	0.076
-585.879	-200.000	0.040	0.311
-584.865	-149.005	-0.163	0.013
-583.850	-69.963	-0.026	-0.010
-582.836	215.390	-0.275	-0.442
-581.821	-22.999	-0.154	-0.094
-580.806	-104.065	0.231	-0.055
-579.792	28.436	-0.130	-0.111
-578.777	-88.619	0.220	-0.066
-577.763	151.024	-0.318	-0.438
-576.748	-113.383	-0.160	-0.032
-575.733	-72.013	0.319	-0.120
-574.719	-84.608	0.149	-0.047
-573.704	-107.122	0.319	-0.071
-572.690	-4.794	-0.165	0.115
-571.675	330.850	-0.018	0.034
-570.661	-200.000	0.004	-0.314
-569.646	53.259	0.150	-0.145
-568.631	-200.000	-0.053	0.248
-567.617	-94.572	0.234	0.064
-566.602	-92.531	-0.177	0.050
-565.588	78.542	0.103	0.111
-564.573	800.000	0.115	0.336
-563.558	800.000	0.111	0.342
-562.544	370.821	-0.141	0.289
-561.529	-5.643	0.177	-0.123
-560.515	15.105	0.266	0.211
-559.500	-25.535	0.152	0.091
-558.485	-0.678	0.163	0.117
-557.471	800.000	-0.081	0.344
-556.456	147.792	-0.012	0.017
-555.442	800.000	0.082	-0.346
-554.427	-138.069	-0.380	0.043
-553.412	-31.125	0.308	-0.176
-552.398	55.104	-0.096	0.093
-551.383	117.095	-0.064	0.080
-550.369	-162.593	-0.133	-0.007
-549.354	-71.688	0.184	-0.070
-548.339	-58.139	-0.193	0.085
-547.325	218.314	-0.227	0.366
-546.310	-29.359	-0.434	0.251
-545.296	469.360	-0.029	0.066
-544.281	-18.128	0.023	-0.015
-543.266	-99.586	-0.151	-0.038
-542.252	-200.000	-0.038	0.174
-541.237	800.000	-0.079	0.272
-540.223	-20.483	0.233	-0.145
-539.208	49.654	0.161	0.154
-538.193	-99.930	-0.331	-0.084
-537.179	-94.096	0.309	-0.086
-536.164	124.570	-0.194	0.247
-535.150	150.629	-0.187	-0.258
-534.135	212.631	0.161	-0.257
-533.121	-96.731	-0.141	0.038
-532.106	111.496	0.142	-0.174
-531.091	-85.175	-0.188	0.060
-530.077	-200.000	0.007	-0.253
-529.062	62.275	0.053	-0.053
-528.048	106.031	-0.126	0.151
-527.033	50.219	-0.293	-0.280
-526.018	-119.585	0.325	-0.057
-525.004	-54.131	-0.256	0.118
-523.989	280.027	0.130	-0.234
-522.975	140.815	-0.086	-0.115
-521.960	-71.704	-0.130	-0.049
-520.945	111.165	-0.301	0.366
-519.931	-200.000	-0.006	0.156
-518.916	-80.933	0.312	-0.104
-517.902	92.773	0.293	-0.334
-516.887	-200.000	-0.011	-0.213
-515.872	-193.424	0.214	-0.002
-514.858	-200.000	0.009	0.236
-513.843	103.940	0.054	-0.065
-512.829	-153.296	0.190	-0.013
-511.814	-97.783	0.058	0.015
-510.799	168.002	-0.115	0.166
-509.785	800.000	0.045	0.144
-508.770	33.543	0.251	-0.220
-507.756	24.756	0.143	-0.120
-506.741	-157.611	0.072	-0.004
-505.726	-170.007	0.357	-0.013
-504.712	-200.000	0.022	-0.182
-503.697	-81.315	-0.264	-0.088
-502.683	300.826	0.210	0.391
-501.668	2.887	0.403	0.295
-500.653	251.364	0.156	0.267
-499.639	-5.489	-0.288	-0.200
-498.624	322.130	-0.123	0.237
-497.610	-200.000	-0.038	0.329
-496.595	800.000	-0.033	0.124
-495.581	-79.667	0.261	-0.089
-494.566	86.348	0.095	-0.106
-493.551	-174.758	-0.357	-0.010
-492.537	800.000	-0.058	0.204
-491.522	-160.032	0.317	0.017
-490.508	800.000	0.092	-0.280
-489.493	256.017	-0.093	0.161
-488.478	247.561	-0.086	-0.147
-487.464	-32.800	-0.131	-0.073
-486.449	-10.231	0.333	-0.224
-485.435	-75.539	0.035	0.013
-484.420	-107.583	-0.210	-0.046
-483.405	12.578	0.183	0.143
-482.391	-67.702	0.380	-0.150
-481.376	29.198	-0.134	-0.115
-480.362	800.000	-0.062	-0.201
-479.347	-155.924	-0.436	-0.028
-478.332	-200.000	0.028	0.191
-477.318	109.502	-0.028	0.034
-476.303	-125.834	0.225	0.034
-475.289	-200.000	-0.060	-0.557
-474.274	212.834	-0.208	-0.331
-473.259	-200.000	0.039	0.203
-472.245	-200.000	0.005	-0.441
-471.230	-154.615	-0.586	0.039
-470.216	-113.685	-0.349	-0.069
-469.201	800.000	0.055	-0.182
-468.186	78.603	-0.234	-0.252
-467.172	-121.496	-0.133	-0.022
-466.157	126.473	-0.212	0.271
-465.143	-15.582	-0.084	0.054
-464.128	318.579	0.071	0.136
-463.113	-200.000	0.030	-0.159
-462.099	-37.409	0.179	0.096
-461.084	275.478	0.142	0.254
-460.070	-171.748	0.189	-0.006
-459.055	270.970	-0.060	0.106
-458.040	23.509	-0.110	0.091
-457.026	-151.355	0.109	0.008
-456.011	-8.405	0.298	0.202
-454.997	57.826	0.146	-0.144
-453.982	42.967	-0.241	0.221
-452.968	47.086	0.058	-0.054
-451.953	40.591	-0.269	0.244
-450.938	-139.393	0.050	-0.005
-449.924	-88.993	-0.193	0.058
-448.909	-36.876	0.232	0.126
-447.895	-84.991	-0.225	-0.071
-446.880	124.300	-0.154	0.195
-445.865	-190.899	0.055	0.001
-444.851	440.822	-0.073	0.161
-443.836	185.248	0.160	-0.240
-442.822	-200.000	-0.020	-0.346
-441.807	203.041	0.146	0.227
-440.792	132.481	-0.059	0.077
-439.778	800.000	-0.147	-0.579
-438.763	-200.000	-0.003	-0.159
-437.749	100.447	0.076	0.089
-436.734	17.366	-0.305	0.244
-435.719	-94.673	0.081	0.022
-434.705	30.516	-0.231	0.199
-433.690	-200.000	0.006	-0.146
-432.676	-44.685	0.357	0.179
-431.661	68.183	-0.265	0.273
-430.646	319.117	0.051	0.098
-429.632	80.763	-0.013	0.014
-428.617	97.290	-0.100	0.115
-427.603	614.527	-0.064	-0.162
-426.588	-88.309	-0.249	-0.075
-425.573	800.000	-0.079	-0.348
-424.559	-90.545	0.520	-0.152
-423.544	-144.763	-0.400	0.037
-422.530	183.418	-0.112	0.167
-421.515	359.877	0.113	-0.229
-420.500	64.033	0.148	-0.150
-419.486	645.533	0.097	0.250
-418.471	800.000	-0.081	-0.257
-417.457	45.794	-0.232	0.216
-416.442	-65.246	-0.107	0.043
-415.428	-107.079	-0.250	0.056
-414.413	-44.433	-0.381	0.192
-413.398	-83.174	0.199	-0.064
-412.384	153.654	-0.044	0.060
-411.369	175.790	-0.181	-0.264
-410.355	-160.396	-0.273	0.015
-409.340	21.542	-0.246	-0.202
-408.325	-52.069	0.095	-0.044
-407.311	-200.000	0.029	-0.293
-406.296	-41.763	0.392	-0.202
-405.282	800.000	0.040	-0.160
-404.267	-99.572	-0.144	-0.036
-403.252	-200.000	-0.033	0.183
-402.238	10.767	0.098	0.075
-401.223	348.779	0.047	0.093
-400.209	-93.768	0.207	0.058
-399.194	70.108	-0.190	-0.198
-398.179	-163.767	0.413	0.020
-397.165	-200.000	-0.018	0.245
-396.150	-200.000	0.010	0.134
-395.136	28.943	0.193	-0.164
-394.121	-38.011	-0.099	-0.053
-393.106	770.458	0.122	0.336
-392.092	-32.033	0.191	0.108
-391.077	800.000	0.036	0.133
-390.063	-6.006	0.235	0.161
-389.048	250.051	0.113	-0.193
-388.033	270.075	-0.114	-0.201
-387.019	120.142	0.189	0.236
-386.004	-138.898	-0.282	-0.031
-384.990	-200.000	0.006	-0.235
-383.975	308.136	0.132	-0.248
-382.960	-19.810	-0.158	-0.098
-381.946	465.189	0.294	0.663
-380.931	74.876	0.162	0.171
-379.917	-108.073	-0.152	0.033
-378.902	632.073	0.086	0.220
-377.888	-200.000	0.014	-0.140
-376.873	89.913	0.052	0.058
-375.858	665.637	-0.093	-0.240
-374.844	93.433	-0.111	0.126
-373.829	-200.000	-0.017	-0.271
-372.815	-36.038	0.275	-0.149
-371.800	-200.000	-0.005	-0.125
-370.785	-49.354	-0.327	0.157
-369.771	-129.795	-0.228	-0.032
-368.756	8.380	0.402	0.304
-367.742	-15.200	-0.156	0.100
-366.727	-200.000	0.011	0.269
-365.712	-200.000	0.185	0.001
-364.698	-41.881	-0.166	-0.085
-363.683	779.214	-0.018	-0.051
-362.669	-120.052	-0.197	-0.034
-361.654	133.951	0.055	0.072
-360.639	439.422	-0.050	0.110
-359.625	307.914	0.083	0.155
-358.610	2.569	-0.182	-0.133
-357.596	30.404	0.163	-0.140
-356.581	14.515	0.082	-0.065
-355.566	-200.000	0.020	0.177
-354.552	64.871	0.162	-0.164
-353.537	44.305	0.161	0.148
-352.523	-68.974	-0.181	0.070
-351.508	24.858	0.248	-0.207
-350.493	104.242	0.242	0.286
-349.479	-52.741	0.323	0.150
-348.464	694.684	0.088	-0.232
-347.450	546.496	-0.090	-0.217
-346.435	-200.000	0.001	0.041
-345.420	28.344	-0.300	0.255
-344.406	-172.871	0.253	-0.008
-343.391	308.503	-0.125	0.234
-342.377	-99.247	0.150	-0.038
-341.362	-51.141	0.052	-0.024
-340.348	3.139	-0.232	-0.170
-339.333	-176.840	0.161	-0.004
-338.318	222.395	-0.143	0.230
-337.304	-106.100	0.061	-0.014
-336.289	-34.208	-0.061	-0.033
-335.275	-169.157	-0.097	0.004
-334.260	800.000	0.037	-0.143
-333.245	-17.540	-0.079	-0.050
-332.231	-200.000	-0.002	-0.035
-331.216	800.000	-0.097	0.354
-330.202	-41.163	-0.315	-0.163
-329.187	136.746	-0.098	0.129
-328.172	38.780	0.250	0.224
-327.158	344.507	-0.091	-0.180
-326.143	-25.268	-0.145	-0.086
-325.129	800.000	-0.054	-0.166
-324.114	255.442	-0.207	-0.356
-323.099	106.241	0.238	-0.283
-322.085	701.834	0.052	0.136
-321.070	-200.000	0.023	-0.218
-320.056	20.920	0.314	-0.255
-319.041	-200.000	-0.039	0.209
-318.026	-67.579	0.149	0.059
-317.012	-110.440	0.189	0.039
-315.997	182.950	-0.234	-0.346
-314.983	31.929	-0.215	-0.186
-313.968	423.534	-0.035	0.075
-312.953	-200.000	0.061	0.457
-311.939	-200.000	0.032	0.418
-310.924	-161.132	-0.302	-0.016
-309.910	-85.151	0.346	0.109
-308.895	-200.000	0.039	0.245
-307.880	-135.870	-0.212	-0.025
-306.866	-97.024	0.227	-0.060
-305.851	-200.000	0.003	0.219
-304.837	-146.143	-0.100	-0.009
-303.822	70.711	0.187	-0.194
-302.807	800.000	-0.025	0.098
-301.793	-200.000	0.025	0.180
-300.778	-200.000	-0.051	0.238
-299.764	146.107	-0.161	0.217
-298.749	800.000	0.065	0.218
-297.735	-45.628	-0.083	0.041
-296.720	800.000	0.034	-0.102
-295.705	-75.778	-0.097	0.035
-294.691	-200.000	0.008	0.235
-293.676	0.131	-0.088	0.063
-292.662	99.065	-0.164	-0.190
-291.647	-188.851	0.401	0.005
-290.632	-157.479	-0.293	-0.018
-289.618	-41.150	0.273	0.141
-288.603	-200.000	0.008	0.170
-287.589	-177.347	0.211	-0.005
-286.574	-19.897	-0.097	-0.060
-285.559	41.058	0.215	0.195
-284.545	-130.572	-0.202	-0.027
-283.530	131.349	-0.054	0.070
-282.516	-146.624	0.389	-0.034
-281.501	800.000	-0.050	-0.213
-280.486	682.654	0.050	-0.130
-279.472	-104.852	-0.342	0.079
-278.457	138.739	-0.169	-0.222
-277.443	622.580	0.133	0.335
-276.428	-86.752	0.291	-0.089
-275.413	190.613	-0.162	-0.244
-274.399	296.471	0.197	-0.363
-273.384	800.000	0.088	-0.252
-272.370	26.379	0.109	-0.092
-271.355	-155.000	0.118	-0.008
-270.340	-134.365	0.058	0.007
-269.326	-98.248	-0.433	0.111
-268.311	-38.407	0.216	-0.114
-267.297	-200.000	0.023	-0.160
-266.282	800.000	-0.111	-0.365
-265.267	-100.218	0.267	-0.067
-264.253	765.021	-0.088	-0.240
-263.238	-128.003	0.386	0.056
-262.224	135.989	0.096	0.125
-261.209	-110.490	0.140	-0.029
-260.195	-33.280	0.076	-0.042
-259.180	-55.306	0.128	0.057
-258.165	-200.000	0.079	0.385
-257.151	-25.551	0.115	-0.068
-256.136	164.474	0.047	-0.067
-255.122	45.614	0.178	0.165
-254.107	47.267	-0.073	-0.068
-253.092	216.738	0.104	0.165
-252.078	-65.845	-0.261	0.104
-251.063	-127.094	-0.261	0.038
-250.049	453.859	0.130	-0.288
-249.034	-128.770	0.103	-0.015
-248.019	-103.293	0.166	-0.039
-247.005	699.344	0.174	-0.457
-245.990	81.150	0.022	0.023
-244.976	-51.595	0.357	0.167
-243.961	-55.793	-0.252	-0.113
-242.946	83.321	-0.118	-0.128
-241.932	40.224	0.024	-0.021
-240.917	-65.514	-0.296	0.119
-239.903	142.421	0.139	-0.185
-238.888	101.529	-0.172	0.200
-237.873	665.436	0.037	0.096
-236.859	-200.000	-0.011	0.089
-235.844	-200.000	-0.013	-0.385
-234.830	472.417	0.077	-0.173
-233.815	118.535	-0.129	0.160
-232.800	-200.000	-0.047	-0.253
-231.786	122.302	-0.085	0.107
-230.771	800.000	-0.033	0.126
-229.757	-160.811	0.212	0.011
-228.742	800.000	0.015	0.052
-227.727	-200.000	0.032	-0.247
-226.713	-200.000	-0.020	0.264
-225.698	-95.241	0.193	0.052
-224.684	607.722	-0.095	0.237
-223.669	-157.940	-0.142	0.008
-222.655	-142.002	-0.323	0.032
-221.640	-105.053	-0.117	-0.027
-220.625	-200.000	-0.019	0.170
-219.611	233.871	0.059	0.097
-218.596	38.804	-0.122	0.109
-217.582	-76.832	0.318	0.111
-216.567	-156.201	-0.246	-0.015
-215.552	491.195	0.092	0.210
-214.538	-200.000	-0.007	-0.048
-213.523	-95.353	0.237	0.064
-212.509	522.603	0.153	-0.359
-211.494	-200.000	-0.011	-0.060
-210.479	172.078	0.122	-0.175
-209.465	-200.000	-0.229	0.000
-208.450	194.744	-0.026	-0.039
-207.436	-77.777	-0.099	0.034
-206.421	-32.382	0.350	0.195
-205.406	13.914	-0.209	0.162
-204.392	-118.718	-0.046	-0.008
-203.377	-8.380	0.107	0.072
-202.363	44.389	-0.180	0.165
-201.348	129.109	0.180	0.229
-200.333	-100.833	-0.375	0.092
-199.319	-108.835	0.264	0.056
-198.304	-81.067	-0.212	0.070
-197.290	-51.113	0.180	-0.084
-196.275	160.206	0.173	-0.241
-195.260	-63.176	0.121	-0.050
-194.246	-131.996	0.088	-0.011
-193.231	-7.130	-0.170	0.115
-192.217	204.271	0.061	0.095
-191.202	135.658	-0.533	0.693
-190.187	-141.803	0.224	0.022
-189.173	-200.000	0.031	-0.179
-188.158	-22.932	-0.072	-0.043
-187.144	-33.278	0.223	-0.123
-186.129	-106.081	0.109	0.024
-185.114	639.627	-0.050	0.126
-184.100	-159.806	0.268	-0.015
-183.085	16.986	-0.186	-0.147
-182.071	-22.136	0.130	0.079
-181.056	121.263	0.152	0.189
-180.042	178.248	0.074	0.107
-179.027	-200.000	-0.003	-0.033
-178.012	-200.000	0.020	0.174
-176.998	-27.334	0.232	-0.134
-175.983	-133.956	0.263	0.033
-174.969	800.000	0.018	-0.074
-173.954	-18.558	0.100	-0.062
-172.939	-200.000	0.015	-0.174
-171.925	-6.655	-0.172	-0.117
-170.910	-72.454	-0.365	0.134
-169.896	-154.397	-0.213	-0.014
-168.881	800.000	-0.106	-0.389
-167.866	74.978	-0.099	0.104
-166.852	80.581	0.163	0.175
-165.837	26.065	-0.203	0.169
-164.823	800.000	0.069	0.203
-163.808	70.580	0.166	0.172
-162.793	-70.900	0.190	-0.071
-161.779	-14.264	-0.067	0.043
-160.764	183.539	-0.151	0.223
-159.750	800.000	-0.087	-0.270
-158.735	109.843	0.322	-0.385
-157.720	-200.000	0.016	-0.192
-156.706	86.784	-0.117	-0.129
-155.691	-37.916	0.242	0.128
-154.677	-25.547	0.215	0.127
-153.662	-200.000	-0.075	-0.352
-152.647	320.255	-0.137	0.259
-151.633	401.960	-0.078	-0.164
-150.618	741.075	-0.091	-0.243
-149.604	-200.000	-0.023	-0.120
-148.589	-100.166	0.379	0.094
-147.574	60.877	-0.146	0.144
-146.560	-119.292	-0.334	0.058
-145.545	9.094	0.124	0.093
-144.531	-200.000	-0.017	-0.144
-143.516	-179.358	-0.176	-0.004
-142.502	800.000	0.025	-0.074
-141.487	145.012	-0.046	-0.061
-140.472	37.997	-0.082	-0.072
-139.458	-92.013	0.160	0.045
-138.443	-147.340	-0.365	-0.031
-137.429	-16.716	-0.129	0.081
-136.414	556.570	0.062	0.149
-135.399	209.849	0.013	0.020
-134.385	25.154	-0.211	-0.174
-133.370	-40.974	0.102	-0.053
-132.356	102.497	0.217	0.253
-131.341	218.560	0.026	0.041
-130.326	-0.713	0.204	0.144
-129.312	-49.760	0.169	0.080
-128.297	561.799	-0.146	0.352
-127.283	13.663	0.228	0.176
-126.268	-122.921	0.093	0.015
-125.253	-112.151	-0.079	-0.016
-124.239	88.875	-0.247	-0.274
-123.224	-162.391	-0.253	-0.012
-122.210	-200.000	0.045	0.351
-121.195	800.000	0.085	0.299
-120.180	454.915	-0.106	0.235
-119.166	-200.000	-0.004	-0.165
-118.151	-43.552	-0.236	0.119
-117.137	172.776	-0.189	0.271
-116.122	408.284	0.188	0.395
-115.107	278.633	-0.093	0.165
-114.093	35.003	0.310	0.270
-113.078	34.641	0.146	0.127
-112.064	87.162	0.197	0.217
-111.049	-70.787	-0.143	0.054
-110.034	-34.486	-0.254	0.138
-109.020	402.528	0.185	0.388
-108.005	-27.512	0.171	0.099
-106.991	800.000	-0.018	-0.053
-105.976	-200.000	0.047	0.277
-104.962	-168.361	-0.198	0.008
-103.947	3.675	0.073	-0.053
-102.932	180.490	0.042	-0.062
-101.918	152.866	-0.196	0.267
-100.903	-165.357	0.123	-0.005
-99.889	-200.000	0.097	0.638
-98.874	-91.462	-0.092	-0.026
-97.859	-72.407	0.159	-0.059
-96.845	-179.701	0.070	-0.001
-95.830	-200.000	-0.018	-0.229
-94.816	-104.421	0.750	0.173
-93.801	-200.000	-0.039	0.185
-92.786	-36.488	-0.058	0.031
-91.772	800.000	0.036	0.104
-90.757	15.413	-0.237	-0.185
-89.743	92.747	0.151	0.170
-88.728	529.644	-0.066	-0.155
-87.713	68.053	0.051	-0.052
-86.699	46.481	-0.117	0.108
-85.684	88.250	-0.077	-0.084
-84.670	-200.000	0.028	-0.197
-83.655	326.158	-0.132	0.251
-82.640	-200.000	0.012	-0.252
-81.626	566.649	0.045	-0.108
-80.611	752.609	-0.193	-0.519
-79.597	-104.862	-0.073	0.017
-78.582	341.010	0.120	0.233
-77.567	-200.000	0.003	0.183
-76.553	351.117	-0.206	-0.405
-75.538	-149.376	0.204	-0.016
-74.524	160.654	-0.159	0.221
-73.509	126.695	0.057	0.071
-72.494	-132.928	-0.292	0.037
-71.480	-200.000	0.050	0.219
-70.465	-200.000	-0.020	0.170
-69.451	-200.000	0.042	-0.222
-68.436	-114.535	0.203	0.039
-67.422	9.287	-0.341	-0.256
-66.407	-131.210	0.419	-0.055
-65.392	-136.632	0.336	-0.039
-64.378	207.708	-0.132	0.204
-63.363	-182.380	-0.116	0.002
-62.349	-200.000	-0.006	-0.123
-61.334	120.017	-0.720	-0.887
-60.319	-30.442	0.295	0.166
-59.305	800.000	0.176	-0.592
-58.290	80.696	0.625	0.669
-57.276	424.677	0.685	1.464
-56.261	-200.000	93.334	547.451
-55.246	598.952	1382.977	3406.009
-54.232	187.134	2590.820	3834.956
-53.217	119.377	2213.237	2719.659
-52.203	45.326	1744.433	1597.598
-51.188	38.128	1553.293	1372.149
-50.173	35.764	1525.546	1331.241
-49.159	53.306	1574.789	1498.044
-48.144	56.813	1593.749	1540.706
-47.130	38.550	1549.934	1371.919
-46.115	35.374	1534.456	1336.092
-45.100	35.000	1531.697	1331.037
-44.086	35.150	1529.374	1330.004
-43.071	35.137	1527.576	1328.298
-42.057	35.072	1525.944	1326.379
-41.042	35.071	1524.485	1325.051
-40.027	35.001	1523.246	1323.437
-39.013	35.116	1521.410	1322.583
-37.998	35.060	1519.683	1320.639
-36.984	35.066	1518.965	1320.006
-35.969	35.041	1517.630	1318.618
-34.954	35.049	1516.606	1317.732
-33.940	34.981	1515.158	1315.956
-32.925	35.028	1513.455	1314.749
-31.911	35.174	1511.942	1314.385
-30.896	35.177	1510.518	1313.115
-29.881	35.073	1509.369	1311.352
-28.867	35.092	1508.305	1310.504
-27.852	35.152	1506.402	1309.209
-26.838	35.143	1505.057	1307.925
-25.823	35.111	1503.429	1306.242
-24.809	35.132	1501.874	1304.981
-23.794	35.094	1500.828	1303.765
-22.779	35.070	1499.737	1302.600
-21.765	35.117	1498.633	1301.905
-20.750	35.073	1497.453	1300.532
-19.736	35.165	1496.210	1300.028
-18.721	35.070	1495.117	1298.378
-17.706	34.997	1494.561	1297.351
-16.692	34.976	1493.180	1295.961
-15.677	34.974	1492.341	1295.168
-14.663	35.080	1490.872	1294.555
-13.648	35.121	1489.786	1293.841
-12.633	35.048	1488.654	1292.309
-11.619	34.961	1488.037	1291.134
-10.604	35.005	1487.375	1290.808
-9.590	35.107	1485.783	1290.065
-8.575	35.006	1485.680	1289.240
-7.560	35.038	1484.877	1288.707
-6.546	35.065	1483.736	1287.851
-5.531	34.995	1482.844	1286.552
-4.517	34.986	1482.080	1285.777
-3.502	35.031	1480.996	1285.092
-2.487	35.017	1479.952	1284.041
-1.473	35.077	1478.504	1283.133
-0.458	34.958	1477.834	1281.705
0.556	34.230	1468.497	1273.632
1.571	32.044	1443.171	1237.172
2.586	28.952	1380.700	1163.978
3.600	27.051	1296.430	1081.536
4.615	25.050	1249.270	1030.604
5.629	21.578	1192.748	964.789
6.644	13.040	1105.840	850.597
7.659	6.408	1063.315	784.855
8.673	5.299	1057.754	775.183
9.688	5.060	1055.158	772.027
10.702	4.935	1052.906	769.696
11.717	4.907	1051.375	768.371
12.731	7.826	1054.632	785.106
13.746	15.569	1065.465	831.567
14.761	19.793	1070.233	856.172
15.775	18.739	1067.577	848.764
16.790	17.406	1064.653	839.786
17.804	16.361	1062.719	833.037
18.819	15.604	1060.395	827.414
19.834	15.073	1059.215	823.809
20.848	14.806	1058.298	821.709
21.863	14.473	1057.462	819.352
22.877	14.176	1056.942	817.416
23.892	14.106	1055.709	816.049
24.907	13.905	1055.375	814.731
25.921	13.934	1054.768	814.334
26.936	14.058	1053.312	813.744
27.950	13.941	1052.833	812.729
28.965	14.012	1051.379	811.881
29.980	14.132	1049.999	811.328
30.994	14.262	1048.825	810.985
32.009	14.136	1048.289	809.886
33.023	14.265	1047.569	809.886
34.038	14.288	1046.830	809.350
35.053	14.166	1045.962	808.016
36.067	14.121	1044.814	806.842
37.082	14.285	1043.540	806.581
38.096	14.174	1043.241	805.739
39.111	14.066	1043.045	804.996
40.126	14.177	1041.812	804.507
41.140	14.152	1040.200	803.072
42.155	14.075	1039.574	802.148
43.169	13.944	1038.908	800.928
44.184	13.847	1037.750	799.500
45.199	13.836	1036.707	798.574
46.213	13.861	1035.701	797.848
47.228	13.906	1034.657	797.187
48.242	14.039	1033.653	796.980
49.257	14.108	1032.335	796.226
50.271	14.086	1031.506	795.412
51.286	13.993	1030.618	794.208
52.301	14.174	1029.729	794.318
53.315	14.135	1028.954	793.464
54.330	14.052	1028.278	792.476
55.344	14.002	1027.079	791.243
56.359	13.950	1026.032	790.121
57.374	13.983	1024.907	789.340
58.388	13.960	1024.063	788.511
59.403	13.916	1023.492	787.795
60.417	13.931	1022.746	787.223
61.432	13.946	1021.902	786.575
62.447	13.883	1021.132	785.612
63.461	13.680	1020.851	784.365
64.476	13.776	1019.688	783.858
65.490	13.768	1018.784	783.058
66.505	13.778	1017.798	782.277
67.520	13.777	1017.114	781.676
68.534	13.737	1016.472	780.924
69.549	13.720	1015.883	780.326
70.563	13.957	1014.432	780.253
71.578	13.762	1014.355	779.210
72.593	13.803	1013.339	778.552
73.607	13.728	1012.144	777.216
74.622	13.700	1011.159	776.259
75.636	13.605	1010.591	775.310
76.651	13.674	1009.520	774.741
77.666	13.649	1008.795	773.997
78.680	13.647	1008.240	773.497
79.695	13.732	1007.439	773.207
80.709	13.721	1007.140	772.860
81.724	13.824	1006.271	772.604
82.739	13.868	1005.618	772.239
83.753	13.940	1004.671	771.780
84.768	14.045	1003.654	771.415
85.782	14.150	1003.246	771.519
86.797	14.217	1002.469	771.166
87.812	14.176	1001.543	770.194
88.826	14.060	1000.941	769.128
89.841	14.051	999.939	768.249
90.855	14.114	999.404	768.059
91.870	14.084	998.343	767.039
92.884	14.105	997.625	766.516
93.899	14.208	996.895	766.361
94.914	14.187	996.228	765.683
95.928	14.161	995.612	765.026
96.943	14.199	994.805	764.511
97.957	14.244	993.802	763.877
98.972	14.219	993.046	763.114
99.987	14.095	992.339	761.936
101.001	14.187	991.761	761.846
102.016	14.138	990.971	760.949
103.030	14.020	990.212	759.756
104.045	14.098	988.738	758.914
105.060	14.175	987.564	758.298
106.074	14.115	986.778	757.354
107.089	14.043	985.972	756.341
108.103	13.840	985.365	754.884
109.118	13.884	984.280	754.189
110.133	13.842	983.376	753.237
111.147	13.946	982.100	752.665
112.162	13.780	981.779	751.599
113.176	13.807	980.770	750.882
114.191	13.844	980.124	750.492
115.206	14.025	979.107	750.460
116.220	13.963	978.346	749.534
117.235	13.972	977.681	749.000
118.249	13.886	976.614	747.729
119.264	13.875	975.886	747.056
120.279	13.931	974.985	746.551
121.293	13.926	974.097	745.783
122.308	13.820	973.682	744.924
123.322	13.827	972.552	744.022
124.337	13.847	970.863	742.755
125.352	13.747	970.653	742.083
126.366	13.740	969.249	740.909
127.381	13.794	968.455	740.480
128.395	13.842	967.266	739.720
129.410	13.750	966.732	738.836
130.424	13.829	965.579	738.241
131.439	13.818	965.001	737.681
132.454	14.081	964.335	738.276
133.468	13.851	963.298	736.397
134.483	13.964	962.762	736.421
135.497	13.949	962.245	735.897
136.512	14.005	961.525	735.528
137.527	13.994	960.640	734.740
138.541	13.983	960.036	734.163
139.556	14.027	959.167	733.626
140.570	13.951	958.518	732.732
141.585	14.149	957.683	732.901
142.600	14.164	957.239	732.562
143.614	14.141	956.299	731.674
144.629	14.151	955.269	730.868
145.643	14.259	954.499	730.690
146.658	14.201	953.587	729.669
147.673	14.252	952.107	728.695
148.687	14.005	951.811	727.323
149.702	13.989	951.085	726.638
150.716	13.953	949.988	725.578
151.731	14.069	949.044	725.298
152.746	13.939	948.753	724.446
153.760	14.127	947.774	724.451
154.775	14.077	946.883	723.489
155.789	14.086	946.558	723.216
156.804	14.189	945.448	722.750
157.819	14.158	944.912	722.141
158.833	14.187	944.152	721.625
159.848	14.260	943.074	721.052
160.862	14.227	942.694	720.554
161.877	14.228	942.137	720.069
162.892	14.197	941.220	719.170
163.906	14.018	940.518	717.796
164.921	14.149	939.152	717.255
165.935	14.136	938.558	716.682
166.950	14.042	937.844	715.670
167.964	14.192	936.862	715.503
168.979	14.174	935.692	714.468
169.994	14.100	934.870	713.460
171.008	14.348	933.774	713.622
172.023	14.158	933.430	712.483
173.037	14.314	932.083	712.060
174.052	14.358	931.888	712.034
175.067	14.447	930.885	711.586
176.081	14.233	929.803	709.783
177.096	14.163	929.337	709.065
178.110	14.095	928.951	708.420
179.125	14.175	927.980	707.956
180.140	14.204	927.067	707.322
181.154	14.191	926.627	706.866
182.169	14.138	926.081	706.163
183.183	14.382	925.224	706.483
184.198	14.479	924.003	705.899
185.213	14.389	924.083	705.515
186.227	14.456	923.118	705.001
187.242	14.419	922.776	704.519
188.256	14.417	922.189	704.000
189.271	14.589	921.184	703.898
190.286	14.606	920.585	703.447
191.300	14.481	919.866	702.310
192.315	14.359	918.786	700.910
193.329	14.148	918.389	699.658
194.344	14.149	917.467	698.900
195.359	14.116	917.419	698.663
196.373	14.345	917.026	699.262
197.388	14.437	916.151	698.917
198.402	14.502	915.973	698.995
199.417	14.578	915.376	698.793
200.432	14.811	914.774	699.248
201.446	14.765	914.553	698.826
202.461	14.820	914.221	698.741
203.475	14.766	913.589	697.970
204.490	14.633	913.282	697.115
205.504	14.815	911.657	696.573
206.519	14.776	910.814	695.704
207.534	14.712	910.502	695.141
208.548	14.689	909.401	694.142
209.563	14.539	909.212	693.310
210.577	14.545	908.276	692.560
211.592	14.678	907.464	692.435
212.607	14.826	907.234	692.810
213.621	14.740	906.764	692.032
214.636	14.691	906.115	691.272
215.650	14.729	905.361	690.794
216.665	14.812	904.769	690.627
217.680	14.903	904.370	690.634
218.694	14.838	903.841	689.900
219.709	15.013	903.191	690.067
220.723	14.980	902.351	689.230
221.738	14.818	902.077	688.291
222.753	14.939	900.930	687.851
223.767	14.886	900.219	687.031
224.782	15.045	899.374	686.976
225.796	15.065	898.594	686.404
226.811	15.116	898.430	686.427
227.826	15.010	897.484	685.206
228.840	15.074	897.046	685.077
229.855	14.937	896.096	683.727
230.869	14.993	895.193	683.208
231.884	14.992	895.162	683.121
232.899	14.956	894.156	682.147
233.913	15.089	893.162	681.868
234.928	15.107	892.762	681.577
235.942	15.067	891.781	680.603
236.957	14.990	891.030	679.657
237.972	14.893	890.866	679.080
238.986	14.918	890.168	678.586
240.001	15.057	889.400	678.504
241.015	15.005	888.854	677.819
242.030	15.049	887.943	677.240
243.045	15.012	887.710	676.853
244.059	15.027	887.061	676.359
245.074	15.165	886.141	676.155
246.088	14.983	885.919	675.194
247.103	15.130	885.240	675.207
248.117	15.214	884.576	674.978
249.132	15.150	884.500	674.605
250.147	15.257	883.510	674.219
251.161	15.468	883.047	674.654
252.176	15.529	882.172	674.171
253.190	15.358	881.590	672.980
254.205	15.494	880.997	673.015
255.220	15.592	880.523	672.985
256.234	15.476	879.831	671.933
257.249	15.381	879.200	671.010
258.263	15.544	878.343	670.950
259.278	15.623	877.890	670.858
260.293	15.427	877.935	670.051
261.307	15.719	877.062	670.491
262.322	15.726	876.346	669.913
263.336	15.607	875.829	668.982
264.351	15.745	874.789	668.677
265.366	15.604	874.754	668.033
266.380	15.703	873.855	667.680
267.395	15.654	873.435	667.104
268.409	15.701	872.248	666.326
269.424	15.826	871.508	666.198
270.439	15.567	871.002	664.727
271.453	15.857	869.765	664.868
272.468	15.738	869.211	663.915
273.482	15.596	869.206	663.295
274.497	15.654	868.515	662.935
275.512	15.755	867.747	662.688
276.526	15.753	866.860	661.946
277.541	15.797	866.026	661.424
278.555	15.747	865.644	660.875
279.570	15.905	865.058	660.989
280.585	15.847	864.982	660.645
281.599	15.935	864.111	660.267
282.614	15.877	863.373	659.419
283.628	15.789	862.953	658.694
284.643	15.891	862.215	658.471
285.657	15.993	861.535	658.292
286.672	15.909	861.449	657.840
287.687	15.991	860.648	657.491
288.701	15.970	860.112	656.943
289.716	15.986	859.802	656.710
290.730	15.905	859.543	656.137
291.745	15.974	858.651	655.669
292.760	15.982	858.159	655.266
293.774	16.092	857.298	654.977
294.789	16.049	856.804	654.374
295.803	15.946	856.385	653.595
296.818	16.047	855.379	653.163
297.833	15.963	855.226	652.661
298.847	15.963	854.295	651.894
299.862	15.943	853.724	651.324
300.876	16.128	853.038	651.459
301.891	16.286	851.948	651.178
302.906	16.259	851.568	650.726
303.920	16.283	850.686	650.085
304.935	16.323	850.250	649.850
305.949	16.366	849.851	649.652
306.964	16.417	848.962	649.111
307.979	16.212	848.695	648.063
308.993	16.282	848.360	648.016
310.008	16.272	847.556	647.309
311.022	16.419	846.794	647.229
312.037	16.413	846.511	646.934
313.052	16.280	846.201	646.133
314.066	16.376	845.306	645.758
315.081	16.265	844.861	644.936
316.095	16.266	844.432	644.555
317.110	16.359	843.857	644.416
318.125	16.282	842.883	643.320
319.139	16.323	842.458	643.097
320.154	16.370	841.829	642.735
321.168	16.263	841.499	642.020
322.183	16.331	841.107	641.926
323.197	16.510	840.371	641.984
324.212	16.377	839.982	641.127
325.227	16.431	839.564	640.957
326.241	16.468	838.672	640.358
327.256	16.444	838.323	639.944
328.270	16.294	837.846	638.954
329.285	16.456	837.301	639.095
330.300	16.386	836.331	638.033
331.314	16.494	835.732	637.927
332.329	16.498	835.093	637.399
333.343	16.477	834.620	636.905
334.358	16.345	834.395	636.178
335.373	16.538	833.980	636.530
336.387	16.623	832.970	636.025
337.402	16.597	832.530	635.535
338.416	16.571	832.098	635.052
339.431	16.643	831.516	634.819
340.446	16.637	831.215	634.510
341.460	16.762	830.385	634.291
342.475	16.790	830.277	634.257
343.489	16.734	829.254	633.208
344.504	16.899	828.953	633.541
345.519	16.936	828.068	632.946
346.533	16.966	827.849	632.836
347.548	16.942	827.570	632.477
348.562	16.974	826.620	631.813
349.577	16.880	825.915	630.870
350.592	16.702	825.366	629.730
351.606	16.973	824.884	630.313
352.621	16.723	824.590	629.104
353.635	16.772	824.316	629.022
354.650	16.749	823.780	628.471
355.665	16.835	823.632	628.623
356.679	16.808	823.437	628.318
357.694	16.825	822.519	627.627
358.708	16.829	821.967	627.162
359.723	16.938	821.022	626.792
360.738	16.969	820.752	626.644
361.752	16.880	820.186	625.827
362.767	16.909	820.153	625.852
363.781	17.089	819.710	626.125
364.796	17.204	819.019	625.965
365.810	17.168	818.588	625.446
366.825	17.178	818.216	625.143
367.840	17.183	818.055	624.984
368.854	17.278	817.128	624.570
369.869	17.230	816.798	624.086
370.883	17.163	816.147	623.286
371.898	17.105	816.058	622.951
372.913	17.287	815.176	622.888
373.927	17.342	814.538	622.550
374.942	17.265	813.957	621.769
375.956	17.189	813.671	621.217
376.971	17.310	813.168	621.219
377.986	17.385	812.579	620.990
379.000	17.316	812.088	620.306
380.015	17.377	811.551	620.063
381.029	17.471	810.877	619.837
382.044	17.604	810.479	619.960
383.059	17.478	809.940	619.037
384.073	17.577	809.155	618.743
385.088	17.455	808.790	617.963
386.102	17.428	808.115	617.297
387.117	17.315	807.810	616.599
388.132	17.517	807.003	616.661
389.146	17.269	806.848	615.589
390.161	17.457	806.173	615.699
391.175	17.494	806.112	615.733
392.190	17.593	805.522	615.586
393.205	17.523	805.144	614.989
394.219	17.413	804.723	614.215
395.234	17.420	804.139	613.740
396.248	17.302	803.681	612.910
397.263	17.346	803.116	612.586
398.278	17.420	802.714	612.490
399.292	17.412	802.261	612.062
400.307	17.373	801.760	611.484
401.321	17.537	801.034	611.466
402.336	17.420	800.594	610.658
403.350	17.420	800.612	610.617
404.365	17.601	800.099	610.821
405.380	17.684	799.553	610.647
406.394	17.729	799.059	610.377
407.409	17.879	798.525	610.452
408.423	17.743	798.576	609.948
409.438	17.787	797.773	609.440
410.453	17.860	797.598	609.511
411.467	17.835	797.031	608.935
412.482	17.954	796.534	608.926
413.496	17.878	795.996	608.192
414.511	17.930	795.581	608.007
415.526	18.076	794.980	608.010
416.540	18.034	795.082	607.886
417.555	17.880	794.785	607.059
418.569	18.083	794.022	607.141
419.584	18.108	793.408	606.707
420.599	17.963	792.953	605.793
421.613	151.788	1367.948	1787.482
422.628	131.253	1451.721	1787.577
