DTS Sentinel unit serial number:	SN413079Multiplexer serial number:	ORYXHardware model number:	OX4-SRSoftware version number:	ORYX F/W v4.00 Oryx Data Collector v3.7.2.0data status	okinstallation	princeton_trtdifferential loss correction	single-endedforward channel	channel 3reverse channel	N/Adate	2019/09/12time	23:36:35forward acquisition time	60.00reverse acquisition time	0.00gamma	496.2192k internal	0.2329k external	0.2329temperature offset calibration	1.0128default loss term (dB/km)	0.3790temperature slope calibration	1.0000multiplexer offset coefficient	1.0000multiplexer slope coefficient	1.0000fibre end	0.00T internal ref (°C)	28.92T ext. ref 1 (°C)	3.77T ext. ref 2 (°C)	23.59length (m)	temperature (°C)	Stokes	anti-Stokes-747.200	-23.404	0.173	0.104
-746.185	-200.000	0.000	-0.255
-745.171	-200.000	-0.042	0.216
-744.156	-49.034	0.196	0.095
-743.142	3.077	0.149	0.109
-742.127	200.620	0.276	0.428
-741.112	412.480	-0.018	0.039
-740.098	-51.953	-0.251	-0.118
-739.083	-200.000	-0.012	-0.055
-738.069	-29.107	-0.148	0.085
-737.054	237.916	-0.074	-0.124
-736.039	11.035	-0.175	-0.134
-735.025	478.234	0.152	0.346
-734.010	-82.999	-0.186	-0.060
-732.996	48.039	-0.280	-0.264
-731.981	-0.806	0.273	0.195
-730.966	-89.397	-0.105	0.031
-729.952	-200.000	-0.241	0.001
-728.937	800.000	0.051	0.152
-727.923	-16.993	0.245	-0.156
-726.908	-19.546	-0.491	-0.306
-725.894	199.337	0.067	0.103
-724.879	800.000	0.113	-0.374
-723.864	137.621	-0.206	0.272
-722.850	-123.218	-0.197	-0.032
-721.835	800.000	0.031	-0.122
-720.821	143.877	-0.041	0.056
-719.806	128.067	-0.105	0.134
-718.791	179.723	0.050	-0.073
-717.777	-164.997	0.150	0.007
-716.762	-111.832	-0.147	-0.030
-715.748	268.237	0.062	0.110
-714.733	-81.866	0.347	-0.114
-713.718	-69.235	-0.239	0.092
-712.704	-200.000	0.079	-0.452
-711.689	-149.351	-0.044	-0.004
-710.675	-119.848	0.139	0.024
-709.660	-120.401	0.135	0.023
-708.645	238.297	0.175	0.293
-707.631	-95.437	-0.232	0.063
-706.616	-118.373	0.334	-0.060
-705.602	-141.081	0.313	0.032
-704.587	800.000	-0.094	-0.340
-703.572	-43.932	0.264	-0.133
-702.558	80.165	0.221	0.239
-701.543	26.159	-0.062	0.052
-700.529	19.077	0.275	0.222
-699.514	-48.326	-0.178	-0.086
-698.499	800.000	0.111	-0.318
-697.485	800.000	-0.029	-0.097
-696.470	231.048	-0.081	0.133
-695.456	-200.000	-0.007	-0.330
-694.441	-120.912	0.113	0.019
-693.426	-157.990	0.377	-0.022
-692.412	-49.349	0.119	-0.057
-691.397	378.599	0.046	-0.095
-690.383	800.000	0.100	-0.301
-689.368	410.412	0.149	-0.318
-688.354	106.625	-0.070	0.084
-687.339	104.072	0.139	0.164
-686.324	-36.211	-0.205	0.111
-685.310	800.000	-0.068	0.243
-684.295	-144.655	0.246	-0.023
-683.281	-69.481	0.135	-0.052
-682.266	-200.000	0.029	-0.171
-681.251	-200.000	-0.101	-0.449
-680.237	-144.079	0.265	0.025
-679.222	72.199	-0.191	0.199
-678.208	255.784	-0.099	-0.171
-677.193	-20.752	0.306	-0.189
-676.178	34.192	0.128	-0.112
-675.164	-43.256	-0.206	-0.105
-674.149	412.230	-0.123	-0.261
-673.135	138.053	-0.210	-0.277
-672.120	-92.814	0.217	-0.061
-671.105	88.700	-0.134	0.150
-670.091	165.644	-0.152	-0.215
-669.076	-200.000	-0.020	-0.183
-668.062	-200.000	0.079	-0.409
-667.047	215.469	0.112	0.179
-666.032	-6.486	-0.154	0.105
-665.018	343.828	-0.172	0.338
-664.003	-61.923	-0.229	-0.096
-662.989	103.872	-0.151	0.178
-661.974	465.201	-0.063	0.142
-660.959	-25.397	0.149	0.088
-659.945	-4.538	0.135	-0.093
-658.930	-72.784	-0.344	0.127
-657.916	97.076	0.092	0.105
-656.901	-145.237	-0.101	-0.009
-655.886	-57.297	0.154	-0.068
-654.872	-119.058	-0.167	-0.029
-653.857	532.018	-0.096	-0.229
-652.843	-159.571	0.235	0.013
-651.828	8.104	-0.240	-0.181
-650.814	62.083	0.129	-0.129
-649.799	28.170	-0.145	0.123
-648.784	-67.663	0.181	-0.071
-647.770	-200.000	0.021	-0.154
-646.755	-104.238	-0.273	0.064
-645.741	-109.241	0.138	-0.029
-644.726	-27.356	-0.116	0.068
-643.711	173.094	0.129	-0.187
-642.697	-80.604	-0.274	-0.092
-641.682	-200.000	-0.002	-0.069
-640.668	168.885	-0.270	-0.387
-639.653	-200.000	0.036	-0.243
-638.638	800.000	-0.060	-0.173
-637.624	340.130	-0.204	-0.400
-636.609	-91.796	0.285	-0.081
-635.595	349.509	0.086	-0.170
-634.580	-200.000	-0.006	-0.270
-633.565	800.000	0.057	-0.200
-632.551	-49.719	-0.202	0.096
-631.536	-65.828	-0.194	-0.078
-630.522	-22.534	0.094	0.057
-629.507	52.221	0.139	-0.133
-628.492	386.767	-0.093	-0.193
-627.478	-112.265	0.147	-0.029
-626.463	-194.375	0.191	0.002
-625.449	149.233	0.243	-0.329
-624.434	9.782	-0.266	0.203
-623.419	-200.000	0.053	0.290
-622.405	-200.000	0.046	0.252
-621.390	55.007	0.254	0.246
-620.376	-8.054	-0.192	-0.130
-619.361	-166.988	-0.234	-0.010
-618.346	86.305	0.156	0.172
-617.332	-111.123	0.354	-0.073
-616.317	-200.000	0.021	-0.143
-615.303	329.451	-0.095	-0.183
-614.288	54.805	-0.254	0.246
-613.273	-135.016	-0.131	0.016
-612.259	-60.654	0.066	0.028
-611.244	-200.000	-0.015	0.182
-610.230	-133.180	-0.077	0.010
-609.215	-159.190	-0.333	-0.019
-608.201	704.759	0.075	-0.198
-607.186	-200.000	-0.013	0.174
-606.171	295.533	-0.210	0.385
-605.157	35.284	-0.273	0.240
-604.142	-100.801	0.157	0.039
-603.128	471.399	-0.164	-0.369
-602.113	-31.184	-0.205	-0.116
-601.098	93.067	-0.199	0.225
-600.084	273.797	0.151	0.267
-599.069	226.993	0.196	0.319
-598.055	-33.587	-0.250	-0.138
-597.040	-129.765	-0.437	0.060
-596.025	-147.406	0.072	0.006
-595.011	-200.000	0.073	-0.529
-593.996	149.959	0.224	0.304
-592.982	34.361	-0.244	-0.213
-591.967	800.000	-0.112	-0.318
-590.952	-28.939	-0.123	-0.071
-589.938	800.000	0.064	-0.267
-588.923	-78.109	0.132	-0.046
-587.909	176.113	0.123	0.179
-586.894	756.117	-0.085	0.230
-585.879	39.619	0.189	-0.169
-584.865	61.337	0.152	-0.152
-583.850	-179.535	0.174	-0.004
-582.836	23.894	0.424	0.349
-581.821	21.188	-0.069	-0.056
-580.806	51.228	-0.078	-0.074
-579.792	-95.548	0.133	-0.036
-578.777	-154.826	-0.238	0.016
-577.763	800.000	-0.110	0.315
-576.748	-131.314	-0.281	0.037
-575.733	488.765	-0.104	-0.238
-574.719	800.000	0.030	0.130
-573.704	21.732	0.143	-0.116
-572.690	-173.063	-0.114	-0.004
-571.675	-115.129	0.259	0.049
-570.661	-200.000	-0.036	-0.304
-569.646	800.000	-0.100	-0.317
-568.631	22.268	-0.225	-0.184
-567.617	33.222	-0.116	-0.100
-566.602	800.000	0.043	0.172
-565.588	-200.000	0.005	0.211
-564.573	-25.271	-0.042	0.025
-563.558	191.553	-0.085	-0.127
-562.544	800.000	0.094	-0.268
-561.529	39.872	-0.462	-0.415
-560.515	-107.731	0.295	0.064
-559.500	-35.916	-0.184	0.100
-558.485	-78.772	-0.100	-0.034
-557.471	96.949	0.066	0.076
-556.456	-13.704	0.179	-0.116
-555.442	-1.417	-0.327	0.230
-554.427	-200.000	-0.001	-0.071
-553.412	342.912	-0.085	-0.166
-552.398	-45.233	0.344	0.171
-551.383	-32.370	-0.207	-0.115
-550.369	169.052	-0.026	0.036
-549.354	-138.861	0.075	0.008
-548.339	148.943	0.044	-0.059
-547.325	-91.833	0.227	-0.064
-546.310	800.000	-0.102	-0.376
-545.296	75.090	-0.088	-0.093
-544.281	-200.000	-0.006	-0.124
-543.266	498.032	0.163	-0.375
-542.252	-183.231	-0.198	0.003
-541.237	-46.078	0.056	-0.027
-540.223	693.372	-0.046	-0.119
-539.208	69.364	-0.333	0.343
-538.193	800.000	0.113	0.346
-537.179	-200.000	-0.042	0.322
-536.164	107.885	0.059	-0.070
-535.150	-158.965	0.153	0.009
-534.135	800.000	-0.025	0.102
-533.121	49.769	0.113	0.106
-532.106	58.961	0.122	0.119
-531.091	23.035	0.168	-0.138
-530.077	117.566	0.201	-0.247
-529.062	1.059	0.234	0.167
-528.048	75.367	-0.142	0.149
-527.033	117.615	0.236	0.290
-526.018	586.967	0.042	-0.104
-525.004	585.089	-0.078	0.192
-523.989	-80.525	-0.186	0.062
-522.975	-123.919	-0.227	0.036
-521.960	800.000	0.055	-0.196
-520.945	-200.000	0.037	0.279
-519.931	800.000	0.039	0.111
-518.916	-101.872	-0.196	-0.047
-517.902	-101.305	-0.321	-0.078
-516.887	-156.348	0.191	-0.012
-515.872	800.000	-0.066	-0.242
-514.858	440.543	-0.033	-0.072
-513.843	-200.000	-0.002	-0.117
-512.829	-72.689	0.307	-0.113
-511.814	-132.421	0.141	-0.018
-510.799	-190.194	-0.331	-0.004
-509.785	18.684	0.302	-0.241
-508.770	-200.000	0.008	-0.148
-507.756	-108.545	-0.218	-0.047
-506.741	-71.139	0.190	-0.071
-505.726	-55.769	0.276	-0.123
-504.712	22.778	0.434	0.355
-503.697	-30.862	-0.103	0.058
-502.683	800.000	0.093	-0.290
-501.668	775.181	0.024	-0.066
-500.653	-200.000	-0.007	0.077
-499.639	67.948	-0.133	0.135
-498.624	-200.000	0.000	0.239
-497.610	460.631	-0.114	0.253
-496.595	-71.971	-0.175	-0.065
-495.581	800.000	-0.047	0.190
-494.566	800.000	0.077	0.241
-493.551	84.907	0.114	0.125
-492.537	26.882	-0.175	-0.146
-491.522	800.000	0.146	0.429
-490.508	800.000	0.011	0.044
-489.493	-95.405	-0.173	0.046
-488.478	-168.722	0.266	-0.010
-487.464	-200.000	-0.005	-0.276
-486.449	107.476	0.136	-0.161
-485.435	337.567	-0.110	0.214
-484.420	-113.913	0.294	0.057
-483.405	-200.000	-0.084	-0.455
-482.391	71.695	-0.151	-0.156
-481.376	-200.000	0.001	-0.109
-480.362	800.000	0.024	-0.076
-479.347	800.000	0.039	0.143
-478.332	-12.268	-0.153	0.100
-477.318	-88.786	0.114	-0.034
-476.303	-77.198	-0.057	-0.020
-475.289	-109.317	0.238	-0.050
-474.274	16.083	0.110	0.086
-473.259	3.606	0.055	-0.040
-472.245	23.160	0.276	0.226
-471.230	-31.977	-0.057	-0.032
-470.216	52.056	-0.250	-0.237
-469.201	-40.241	0.283	0.147
-468.186	49.600	0.196	-0.184
-467.172	-48.713	0.351	0.168
-466.157	49.514	0.106	-0.099
-465.143	-200.000	0.021	0.140
-464.128	800.000	-0.026	-0.086
-463.113	800.000	0.034	0.120
-462.099	-200.000	0.013	0.184
-461.084	-42.194	0.097	0.049
-460.070	-132.929	0.231	0.029
-459.055	-147.932	-0.194	-0.016
-458.040	-200.000	-0.025	0.336
-457.026	-63.321	0.134	0.055
-456.011	-200.000	-0.005	-0.046
-454.997	-2.920	0.212	-0.147
-453.982	-200.000	0.017	-0.201
-452.968	-61.398	0.195	-0.082
-451.953	-200.000	0.003	0.023
-450.938	164.819	-0.124	-0.175
-449.924	-200.000	-0.001	-0.064
-448.909	-167.981	-0.451	0.018
-447.895	800.000	-0.042	-0.139
-446.880	800.000	-0.046	-0.195
-445.865	-177.295	-0.177	0.004
-444.851	-200.000	-0.001	-0.220
-443.836	-200.000	-0.055	-0.258
-442.822	329.065	-0.066	0.127
-441.807	9.389	0.184	-0.139
-440.792	-115.930	0.226	0.042
-439.778	122.925	0.220	-0.274
-438.763	65.801	0.213	0.215
-437.749	192.595	-0.168	0.253
-436.734	311.005	0.111	-0.207
-435.719	-75.901	0.465	-0.164
-434.705	-200.000	0.030	0.457
-433.690	-40.601	0.134	-0.069
-432.676	105.081	0.198	0.233
-431.661	63.154	-0.253	-0.252
-430.646	-95.704	-0.255	-0.068
-429.632	80.848	0.192	-0.206
-428.617	2.458	-0.295	0.212
-427.603	187.418	0.097	-0.143
-426.588	-23.708	0.264	-0.157
-425.573	165.482	-0.019	0.027
-424.559	378.552	-0.165	0.335
-423.544	-58.977	0.197	0.085
-422.530	-42.640	-0.309	-0.157
-421.515	-119.616	-0.149	0.026
-420.500	603.372	-0.081	0.201
-419.486	800.000	0.031	-0.115
-418.471	290.440	-0.111	-0.200
-417.457	-86.245	-0.166	0.051
-416.442	-40.220	-0.210	0.108
-415.428	774.824	-0.064	-0.175
-414.413	-200.000	0.248	0.000
-413.398	-43.476	-0.287	-0.144
-412.384	-10.162	-0.239	-0.158
-411.369	-200.000	-0.027	-0.119
-410.355	60.132	-0.187	0.184
-409.340	-200.000	-0.023	-0.388
-408.325	612.464	-0.038	0.096
-407.311	-118.174	-0.163	0.029
-406.296	-200.000	-0.321	-0.000
-405.282	-113.774	0.105	-0.020
-404.267	39.799	0.255	0.227
-403.252	123.576	-0.182	0.227
-402.238	800.000	-0.063	-0.191
-401.223	104.404	0.068	-0.079
-400.209	-179.697	0.507	-0.011
-399.194	6.790	-0.066	0.049
-398.179	135.333	0.183	-0.237
-397.165	800.000	0.115	-0.352
-396.150	-183.069	-0.114	-0.002
-395.136	23.851	-0.064	0.053
-394.121	-200.000	-0.004	-0.029
-393.106	800.000	0.039	-0.130
-392.092	-41.664	-0.149	0.076
-391.077	-47.563	-0.189	-0.091
-390.063	-113.667	-0.367	0.071
-389.048	-33.339	-0.051	-0.028
-388.033	-151.241	0.428	0.032
-387.019	233.968	-0.219	-0.359
-386.004	-15.210	0.134	-0.085
-384.990	100.460	-0.131	0.151
-383.975	37.268	-0.175	-0.154
-382.960	98.061	0.035	-0.040
-381.946	56.017	-0.056	0.054
-380.931	-78.650	0.231	-0.078
-379.917	-200.000	-0.118	0.532
-378.902	-78.609	0.185	-0.063
-377.888	246.625	-0.065	-0.108
-376.873	-42.930	-0.116	-0.059
-375.858	12.702	-0.119	-0.091
-374.844	-200.000	-0.005	0.268
-373.829	-153.230	-0.249	-0.017
-372.815	800.000	0.079	0.319
-371.800	451.709	-0.103	0.226
-370.785	-99.737	-0.412	0.103
-369.771	-200.000	-0.016	0.157
-368.756	-200.000	-0.002	-0.178
-367.742	-200.000	-0.013	0.354
-366.727	278.908	-0.096	-0.169
-365.712	800.000	-0.093	0.346
-364.698	218.266	-0.141	0.223
-363.683	192.687	-0.074	0.111
-362.669	250.345	-0.135	0.228
-361.654	208.234	-0.257	0.399
-360.639	-97.843	-0.038	0.010
-359.625	800.000	-0.047	0.194
-358.610	-8.813	0.192	0.128
-357.596	800.000	-0.047	0.154
-356.581	-200.000	0.041	-0.217
-355.566	800.000	0.102	0.299
-354.552	227.914	0.063	0.102
-353.537	-200.000	0.017	-0.123
-352.523	-200.000	0.012	0.293
-351.508	-107.440	-0.066	0.014
-350.493	-143.713	-0.136	0.013
-349.479	74.965	0.051	0.054
-348.464	-200.000	0.054	-0.389
-347.450	-91.025	0.054	0.015
-346.435	-64.287	-0.250	-0.101
-345.420	81.428	-0.060	0.065
-344.406	-200.000	-0.018	-0.277
-343.391	-35.641	-0.135	0.073
-342.377	38.888	-0.198	0.175
-341.362	347.407	0.114	0.223
-340.348	-159.460	-0.165	0.009
-339.333	-200.000	-0.003	-0.232
-338.318	-20.631	-0.153	0.093
-337.304	210.505	0.198	0.309
-336.289	-200.000	-0.010	-0.079
-335.275	-152.609	0.058	-0.004
-334.260	37.299	0.155	0.136
-333.245	17.838	0.177	-0.139
-332.231	-200.000	0.035	0.251
-331.216	-200.000	-0.004	-0.271
-330.202	-2.195	0.094	-0.065
-329.187	37.538	-0.151	0.132
-328.172	800.000	0.134	0.561
-327.158	-69.437	-0.169	-0.064
-326.143	167.759	0.077	0.108
-325.129	386.138	-0.067	-0.137
-324.114	-89.633	-0.289	0.084
-323.099	-155.415	0.196	-0.013
-322.085	-112.335	-0.199	-0.040
-321.070	-65.495	0.081	0.032
-320.056	468.241	0.148	0.329
-319.041	-139.755	0.243	0.026
-318.026	-191.761	-0.370	0.004
-317.012	312.122	-0.123	0.228
-315.997	-195.378	0.113	-0.001
-314.983	-135.594	0.229	-0.027
-313.968	-32.186	-0.154	0.085
-312.953	27.859	-0.294	0.245
-311.939	800.000	0.128	0.521
-310.924	-126.202	-0.326	-0.048
-309.910	62.489	0.184	-0.182
-308.895	48.691	-0.474	0.440
-307.880	-85.323	0.416	0.129
-306.866	-30.487	-0.162	-0.091
-305.851	-113.484	-0.291	-0.056
-304.837	1.019	0.326	-0.232
-303.822	-200.000	0.012	-0.091
-302.807	-91.698	0.276	0.078
-301.793	200.655	-0.251	-0.383
-300.778	800.000	-0.074	-0.240
-299.764	-41.856	-0.106	0.054
-298.749	75.049	0.071	-0.075
-297.735	28.643	0.277	-0.232
-296.720	76.202	-0.113	-0.119
-295.705	69.063	0.133	0.135
-294.691	306.201	0.082	-0.152
-293.676	26.411	0.378	0.313
-292.662	800.000	-0.035	-0.095
-291.647	-200.000	-0.032	0.241
-290.632	194.222	0.072	-0.108
-289.618	35.651	-0.103	0.089
-288.603	257.860	0.051	-0.087
-287.589	-15.359	0.179	-0.113
-286.574	-200.000	0.003	-0.192
-285.559	-27.614	0.312	0.179
-284.545	-200.000	-0.014	0.212
-283.530	-58.678	0.370	-0.158
-282.516	-0.006	0.070	-0.050
-281.501	14.018	0.085	0.065
-280.486	350.647	-0.174	-0.341
-279.472	139.609	0.082	-0.106
-278.457	26.120	-0.079	-0.065
-277.443	-200.000	-0.069	-0.594
-276.428	-52.128	0.361	0.166
-275.413	90.525	-0.193	0.214
-274.399	92.751	0.112	-0.125
-273.384	-200.000	0.010	-0.415
-272.370	-144.493	-0.048	0.004
-271.355	-122.626	0.099	-0.016
-270.340	-47.646	0.253	0.122
-269.326	-200.000	0.052	0.243
-268.311	13.099	-0.139	0.107
-267.297	-21.254	-0.209	0.126
-266.282	10.654	-0.167	0.126
-265.267	-29.077	0.192	0.109
-264.253	-157.802	0.261	0.015
-263.238	82.793	-0.087	0.093
-262.224	-200.000	-0.328	-0.001
-261.209	-200.000	-0.065	0.313
-260.195	-137.215	-0.253	-0.028
-259.180	-77.095	0.171	-0.059
-258.165	-179.966	0.405	-0.009
-257.151	28.465	0.311	-0.260
-256.136	10.670	-0.422	-0.318
-255.122	47.894	-0.072	-0.066
-254.107	-200.000	0.001	0.089
-253.092	-168.541	0.156	-0.006
-252.078	-162.486	0.150	0.007
-251.063	-200.000	0.075	0.370
-250.049	277.198	0.139	0.245
-249.034	18.958	-0.269	0.213
-248.019	-20.419	0.443	0.269
-247.005	237.584	-0.146	-0.239
-245.990	576.259	0.028	-0.067
-244.976	-100.538	0.132	-0.032
-243.961	-137.347	-0.256	-0.029
-242.946	800.000	-0.066	0.218
-241.932	-13.141	0.160	0.103
-240.917	-63.125	-0.198	0.081
-239.903	-94.049	0.079	0.021
-238.888	101.671	-0.182	0.209
-237.873	-200.000	0.009	-0.139
-236.859	695.017	0.062	-0.160
-235.844	190.601	-0.168	0.249
-234.830	-200.000	0.011	0.188
-233.815	76.846	-0.140	0.147
-232.800	12.245	0.299	-0.227
-231.786	-200.000	0.063	-0.288
-230.771	-124.350	-0.201	-0.031
-229.757	195.332	-0.107	0.161
-228.742	14.670	0.109	0.084
-227.727	332.748	0.072	0.138
-226.713	-171.549	0.482	0.016
-225.698	156.325	0.210	-0.286
-224.684	800.000	-0.050	0.200
-223.669	402.837	0.057	-0.118
-222.655	-168.373	-0.197	0.007
-221.640	101.691	0.152	-0.175
-220.625	147.545	0.157	-0.209
-219.611	-35.477	-0.226	0.121
-218.596	280.292	-0.072	-0.127
-217.582	667.938	0.013	0.034
-216.567	46.385	-0.104	0.095
-215.552	-200.000	0.035	-0.242
-214.538	-160.934	-0.199	-0.010
-213.523	-29.803	0.095	0.053
-212.509	-47.265	0.096	0.046
-211.494	-38.082	0.306	0.160
-210.479	800.000	0.033	-0.102
-209.465	11.635	-0.145	0.110
-208.450	800.000	0.054	-0.188
-207.436	800.000	0.062	0.268
-206.421	141.586	0.022	-0.029
-205.406	-73.926	-0.138	-0.049
-204.392	11.463	0.299	-0.226
-203.377	-97.595	-0.078	-0.020
-202.363	-129.553	-0.119	0.016
-201.348	-130.742	0.390	-0.052
-200.333	-82.478	-0.186	0.060
-199.319	224.007	-0.248	-0.394
-198.304	-148.237	-0.052	0.004
-197.290	-124.830	0.091	-0.014
-196.275	488.606	-0.073	-0.164
-195.260	336.975	-0.024	-0.045
-194.246	-25.666	0.258	0.150
-193.231	-41.963	0.255	0.129
-192.217	-71.213	-0.494	0.183
-191.202	-37.293	-0.176	0.093
-190.187	476.126	0.123	0.274
-189.173	-200.000	-0.030	0.470
-188.158	15.206	-0.233	0.180
-187.144	-80.074	-0.084	0.028
-186.129	58.702	0.299	0.290
-185.114	-88.904	-0.129	-0.038
-184.100	-200.000	0.007	0.096
-183.085	-139.155	0.288	-0.031
-182.071	-200.000	-0.036	-0.182
-181.056	177.464	0.165	-0.238
-180.042	-200.000	-0.018	0.270
-179.027	121.007	0.220	0.269
-178.012	800.000	-0.079	0.251
-176.998	12.297	-0.312	-0.237
-175.983	-28.199	-0.304	0.173
-174.969	-76.096	-0.125	-0.043
-173.954	153.969	-0.098	0.133
-172.939	-107.250	-0.226	0.049
-171.925	61.037	0.194	-0.190
-170.910	800.000	-0.090	-0.319
-169.896	-38.651	0.127	-0.066
-168.881	-88.445	-0.137	-0.040
-167.866	-61.990	-0.315	-0.130
-166.852	224.038	0.120	-0.191
-165.837	232.510	-0.021	-0.034
-164.823	639.367	0.125	-0.312
-163.808	-200.000	-0.047	-0.239
-162.793	93.461	0.168	-0.187
-161.779	-183.719	-0.041	-0.001
-160.764	298.833	-0.197	0.358
-159.750	141.761	0.135	-0.176
-158.735	104.921	-0.248	0.288
-157.720	800.000	0.030	0.093
-156.706	86.824	0.486	-0.528
-155.691	367.714	0.121	0.241
-154.677	104.785	0.169	-0.196
-153.662	-73.036	0.260	-0.094
-152.647	-113.344	0.268	0.052
-151.633	800.000	-0.027	-0.108
-150.618	-90.085	-0.055	0.016
-149.604	677.312	0.023	-0.060
-148.589	163.694	0.058	-0.080
-147.574	-200.000	-0.003	0.013
-146.560	524.627	0.075	-0.173
-145.545	-63.154	0.300	0.122
-144.531	-15.183	-0.307	-0.193
-143.516	316.485	-0.042	0.079
-142.502	213.528	-0.312	-0.485
-141.487	449.643	0.118	0.257
-140.472	-68.033	0.269	-0.103
-139.458	322.164	0.088	0.165
-138.443	409.115	0.057	0.118
-137.429	-200.000	0.033	-0.215
-136.414	-200.000	0.356	-0.001
-135.399	-37.081	0.375	0.198
-134.385	-150.361	0.078	-0.006
-133.370	78.777	-0.264	-0.278
-132.356	407.894	0.050	-0.104
-131.341	-62.935	0.104	-0.042
-130.326	34.106	0.054	0.047
-129.312	603.184	-0.067	0.164
-128.297	488.724	0.117	0.263
-127.283	-44.290	-0.278	0.137
-126.268	35.307	0.221	0.191
-125.253	-7.926	-0.245	0.162
-124.239	712.387	-0.050	0.131
-123.224	228.875	-0.130	0.209
-122.210	340.660	0.075	-0.145
-121.195	605.841	-0.061	-0.149
-120.180	427.429	-0.057	0.120
-119.166	55.161	0.218	0.207
-118.151	-135.038	-0.295	-0.035
-117.137	800.000	0.133	0.390
-116.122	-73.211	0.426	0.153
-115.107	54.602	-0.123	0.116
-114.093	189.738	0.144	-0.212
-113.078	-88.953	0.068	-0.020
-112.064	-83.250	-0.143	-0.045
-111.049	-129.371	-0.335	-0.046
-110.034	-200.000	-0.020	0.105
-109.020	182.454	0.137	0.199
-108.005	-200.000	0.038	-0.193
-106.991	-200.000	0.015	-0.087
-105.976	-12.420	-0.136	-0.087
-104.962	-200.000	0.013	0.172
-103.947	-104.322	0.297	0.068
-102.932	-128.967	0.103	-0.014
-101.918	413.970	-0.055	0.114
-100.903	-200.000	-0.018	0.151
-99.889	112.886	0.102	-0.121
-98.874	-144.386	-0.076	-0.007
-97.859	-109.848	0.355	-0.073
-96.845	153.689	-0.184	-0.247
-95.830	-71.135	0.336	-0.124
-94.816	-130.845	-0.053	0.007
-93.801	-147.293	0.262	-0.022
-92.786	-37.732	0.167	-0.087
-91.772	392.408	0.158	-0.323
-90.757	754.706	0.017	-0.045
-89.743	88.643	-0.254	0.277
-88.728	42.923	-0.122	-0.109
-87.713	563.385	-0.177	-0.421
-86.699	83.620	0.210	-0.225
-85.684	-93.915	0.301	0.081
-84.670	-2.651	0.013	0.009
-83.655	-200.000	0.004	0.035
-82.640	-57.186	0.081	0.035
-81.626	800.000	-0.124	0.501
-80.611	750.845	-0.073	0.194
-79.597	800.000	0.082	0.230
-78.582	-86.439	-0.132	0.040
-77.567	-90.797	-0.325	0.092
-76.553	-200.000	0.038	-0.511
-75.538	-122.297	-0.252	-0.040
-74.524	-17.688	0.026	-0.016
-73.509	322.396	0.075	0.140
-72.494	15.127	-0.110	0.085
-71.480	-83.626	0.010	-0.003
-70.465	-103.063	0.284	0.066
-69.451	-159.712	0.138	0.007
-68.436	442.183	-0.049	-0.105
-67.422	31.874	0.373	-0.315
-66.407	-114.687	0.409	-0.077
-65.392	205.137	-0.023	-0.034
-64.378	433.522	0.069	0.147
-63.363	67.286	0.216	0.216
-62.349	800.000	-0.045	0.136
-61.334	84.515	-0.815	-0.875
-60.319	245.108	0.523	0.862
-59.305	-200.000	-0.150	-1.172
-58.290	475.015	0.497	1.099
-57.276	800.000	0.525	1.566
-56.261	-200.000	111.127	611.171
-55.246	506.694	1514.268	3442.659
-54.232	177.377	2691.326	3842.769
-53.217	108.812	2172.745	2545.676
-52.203	39.065	1704.325	1493.792
-51.188	32.087	1521.660	1286.049
-50.173	29.737	1496.339	1248.748
-49.159	50.837	1554.333	1443.141
-48.144	50.594	1570.627	1456.540
-47.130	32.182	1525.393	1289.654
-46.115	29.197	1510.967	1257.071
-45.100	29.063	1507.271	1253.037
-44.086	29.017	1504.963	1250.756
-43.071	29.043	1502.793	1249.078
-42.057	28.961	1501.448	1247.357
-41.042	28.845	1500.349	1245.607
-40.027	28.927	1498.423	1244.515
-39.013	28.919	1497.151	1243.356
-37.998	28.869	1495.836	1241.873
-36.984	28.800	1494.947	1240.621
-35.969	28.855	1493.210	1239.498
-34.954	28.947	1492.311	1239.328
-33.940	28.867	1490.934	1237.591
-32.925	28.977	1489.251	1236.888
-31.911	28.924	1487.658	1235.157
-30.896	28.974	1487.042	1234.938
-29.881	28.983	1485.599	1233.745
-28.867	29.042	1483.777	1232.582
-27.852	28.965	1482.895	1231.281
-26.838	28.962	1481.614	1230.151
-25.823	29.008	1480.384	1229.388
-24.809	28.940	1478.545	1227.356
-23.794	28.884	1477.399	1225.989
-22.779	28.907	1475.838	1224.797
-21.765	28.963	1475.183	1224.574
-20.750	29.088	1474.098	1224.459
-19.736	29.000	1472.876	1222.809
-18.721	28.969	1471.932	1221.770
-17.706	28.931	1470.143	1219.987
-16.692	28.964	1469.462	1219.588
-15.677	28.873	1468.618	1218.239
-14.663	28.946	1467.153	1217.462
-13.648	28.970	1466.434	1216.972
-12.633	28.902	1465.604	1215.786
-11.619	28.972	1464.441	1215.234
-10.604	28.812	1464.075	1213.824
-9.590	28.842	1462.616	1212.765
-8.575	28.922	1461.712	1212.493
-7.560	28.909	1460.691	1211.514
-6.546	28.832	1460.324	1210.659
-5.531	28.855	1459.403	1209.994
-4.517	28.869	1458.421	1209.224
-3.502	28.753	1457.438	1207.602
-2.487	28.810	1456.650	1207.271
-1.473	28.892	1455.102	1206.481
-0.458	28.916	1453.686	1205.418
0.556	30.414	1444.046	1193.676
1.571	27.379	1418.821	1153.515
2.586	23.639	1360.723	1083.406
3.600	21.912	1278.617	1008.034
4.615	20.610	1232.281	964.201
5.629	18.136	1175.609	906.672
6.644	10.569	1093.506	805.821
7.659	4.744	1054.708	749.187
8.673	3.988	1048.931	741.399
9.688	3.703	1046.009	737.904
10.702	3.622	1043.891	735.959
11.717	3.778	1041.846	735.195
12.731	6.510	1044.234	749.827
13.746	14.464	1055.530	795.990
14.761	21.250	1064.472	835.221
15.775	23.213	1066.600	846.215
16.790	22.805	1065.098	842.998
17.804	22.095	1062.923	837.818
18.819	21.363	1061.480	833.119
19.834	21.238	1060.232	831.470
20.848	21.031	1059.959	830.200
21.863	21.159	1059.603	830.456
22.877	21.046	1059.213	829.539
23.892	20.941	1058.175	828.154
24.907	20.686	1057.604	826.420
25.921	20.685	1057.164	825.998
26.936	20.751	1055.480	824.922
27.950	20.617	1054.645	823.564
28.965	20.750	1053.036	822.866
29.980	20.667	1052.278	821.805
30.994	20.766	1051.451	821.555
32.009	21.122	1050.210	822.189
33.023	21.121	1049.775	821.772
34.038	21.019	1049.068	820.664
35.053	20.995	1047.922	819.584
36.067	20.870	1046.968	818.177
37.082	20.713	1046.044	816.645
38.096	20.631	1045.441	815.721
39.111	20.839	1045.031	816.303
40.126	20.941	1043.888	815.816
41.140	20.811	1042.597	814.127
42.155	20.516	1041.169	811.562
43.169	20.341	1039.695	809.524
44.184	20.107	1039.244	808.011
45.199	20.124	1037.958	807.022
46.213	20.219	1037.095	806.720
47.228	20.237	1036.226	806.053
48.242	20.598	1035.688	807.244
49.257	20.798	1035.379	807.859
50.271	20.718	1034.296	806.570
51.286	20.832	1033.421	806.345
52.301	20.968	1033.122	806.669
53.315	21.016	1032.265	806.150
54.330	20.830	1031.354	804.508
55.344	20.633	1030.913	803.182
56.359	20.465	1029.508	801.242
57.374	20.484	1028.553	800.518
58.388	20.460	1027.795	799.746
59.403	20.292	1026.895	798.203
60.417	20.115	1026.189	796.770
61.432	20.089	1025.401	795.968
62.447	20.160	1024.815	795.767
63.461	20.069	1023.643	794.368
64.476	20.143	1022.397	793.672
65.490	19.995	1022.111	792.703
66.505	19.972	1020.794	791.506
67.520	20.068	1020.070	791.311
68.534	20.153	1019.504	791.190
69.549	20.016	1018.526	789.738
70.563	20.023	1017.478	788.889
71.578	19.866	1017.258	787.934
72.593	19.720	1015.903	786.150
73.607	19.447	1015.136	784.243
74.622	19.472	1013.887	783.322
75.636	19.519	1013.435	783.118
76.651	19.662	1012.663	783.101
77.666	19.656	1011.898	782.413
78.680	19.875	1011.218	782.810
79.695	19.722	1010.901	781.802
80.709	19.778	1010.121	781.382
81.724	19.979	1009.603	781.821
82.739	20.173	1008.194	781.534
83.753	20.201	1007.959	781.408
84.768	20.498	1007.700	782.475
85.782	20.932	1007.494	784.203
86.797	21.319	1006.683	785.240
87.812	21.268	1006.394	784.716
88.826	21.071	1005.042	782.706
89.841	20.996	1004.379	781.789
90.855	21.005	1003.909	781.394
91.870	21.090	1002.910	780.924
92.884	21.155	1002.242	780.627
93.899	21.208	1001.489	780.207
94.914	21.170	1000.390	779.115
95.928	21.247	999.573	778.750
96.943	21.218	999.110	778.192
97.957	21.154	997.997	776.972
98.972	20.835	997.067	774.760
99.987	20.935	996.743	774.886
101.001	20.955	995.920	774.265
102.016	21.127	994.536	773.883
103.030	20.784	994.096	771.951
104.045	21.062	992.764	772.081
105.060	21.139	992.173	771.895
106.074	20.938	991.121	770.120
107.089	20.660	990.027	767.973
108.103	20.271	988.959	765.361
109.118	20.309	987.865	764.615
110.133	20.039	986.763	762.505
111.147	19.883	985.999	761.162
112.162	19.916	984.701	760.236
113.176	20.027	984.017	760.130
114.191	20.176	983.548	760.352
115.206	20.304	982.763	760.241
116.220	20.155	982.002	758.933
117.235	20.157	981.316	758.343
118.249	20.049	980.192	756.936
119.264	19.963	979.449	755.921
120.279	19.826	978.902	754.833
121.293	19.660	977.699	753.116
122.308	19.691	976.926	752.587
123.322	19.696	975.951	751.790
124.337	19.646	974.392	750.305
125.352	19.513	973.404	748.902
126.366	19.469	972.732	748.126
127.381	19.472	971.576	747.185
128.395	19.474	970.661	746.426
129.410	19.600	970.331	746.652
130.424	19.681	969.431	746.242
131.439	19.822	968.232	745.861
132.454	20.036	967.936	746.490
133.468	20.090	967.422	746.259
134.483	20.044	966.863	745.565
135.497	20.125	966.031	745.205
136.512	20.108	965.310	744.509
137.527	20.240	964.488	744.378
138.541	20.243	963.656	743.681
139.556	20.120	963.147	742.697
140.570	20.201	962.526	742.496
141.585	20.365	961.835	742.600
142.600	20.746	961.576	743.963
143.614	20.688	961.080	743.268
144.629	20.918	960.115	743.435
145.643	21.118	959.540	743.776
146.658	21.109	958.215	742.647
147.673	20.861	957.104	740.663
148.687	20.373	956.475	738.040
149.702	20.492	955.035	737.369
150.716	20.263	954.007	735.539
151.731	20.141	953.190	734.325
152.746	20.189	952.448	733.892
153.760	20.333	951.998	734.089
154.775	20.469	950.577	733.504
155.789	20.524	950.211	733.390
156.804	20.629	949.426	733.162
157.819	20.640	948.596	732.500
158.833	20.640	948.178	732.115
159.848	20.761	947.590	732.104
160.862	21.121	946.668	732.838
161.877	20.951	946.506	731.933
162.892	20.519	944.753	728.702
163.906	20.249	943.333	726.413
164.921	20.029	942.700	724.942
165.935	20.109	941.659	724.410
166.950	20.180	940.767	723.955
167.964	20.385	939.900	724.081
168.979	20.456	938.981	723.602
169.994	20.286	937.751	721.883
171.008	20.217	936.790	720.793
172.023	20.275	936.269	720.572
173.037	20.735	935.542	721.854
174.052	20.871	935.457	722.291
175.067	20.948	933.963	721.393
176.081	20.567	932.845	718.888
177.096	20.085	931.724	715.970
178.110	19.997	931.111	715.074
179.125	20.010	930.399	714.515
180.140	20.251	929.257	714.569
181.154	20.266	929.443	714.710
182.169	20.392	929.135	714.929
183.183	20.624	928.653	715.448
184.198	20.777	927.960	715.480
185.213	20.673	927.113	714.338
186.227	20.610	926.995	713.926
187.242	20.729	926.272	713.790
188.256	20.969	925.123	713.829
189.271	21.107	924.977	714.215
190.286	21.096	924.405	713.665
191.300	20.869	923.618	712.070
192.315	20.259	921.906	708.194
193.329	19.930	921.124	706.189
194.344	19.935	920.477	705.652
195.359	20.111	920.020	705.958
196.373	20.239	919.417	705.952
197.388	20.508	919.040	706.696
198.402	20.624	919.100	707.150
199.417	20.921	919.198	708.370
200.432	21.232	918.382	708.940
201.446	21.255	918.543	709.095
202.461	21.411	917.815	709.103
203.475	21.451	917.220	708.743
204.490	21.369	916.289	707.631
205.504	21.050	915.254	705.478
206.519	20.795	914.263	703.622
207.534	20.789	913.516	702.960
208.548	20.706	912.730	701.957
209.563	20.829	911.857	701.722
210.577	20.679	911.580	700.842
211.592	20.782	910.936	700.697
212.607	20.866	910.941	700.978
213.621	21.188	910.408	701.801
214.636	21.276	909.442	701.346
215.650	20.978	908.858	699.639
216.665	21.047	908.394	699.495
217.680	21.092	908.126	699.407
218.694	21.190	907.961	699.611
219.709	21.314	907.022	699.322
220.723	21.318	906.129	698.587
221.738	21.201	905.380	697.482
222.753	21.102	904.496	696.343
223.767	20.964	904.223	695.523
224.782	21.052	903.489	695.245
225.796	21.212	902.760	695.260
226.811	21.461	902.264	695.807
227.826	21.512	900.931	694.919
228.840	21.083	900.395	692.743
229.855	20.901	899.701	691.428
230.869	20.944	898.966	690.971
231.884	21.041	898.476	690.919
232.899	20.787	897.806	689.335
233.913	20.616	897.208	688.138
234.928	20.647	896.162	687.399
235.942	20.615	895.350	686.589
236.957	20.436	894.550	685.209
237.972	20.479	893.753	684.705
238.986	20.459	893.618	684.464
240.001	20.443	893.169	683.997
241.015	20.567	892.026	683.549
242.030	20.489	891.751	682.971
243.045	20.782	890.948	683.446
244.059	20.940	890.642	683.769
245.074	20.933	890.199	683.340
246.088	20.916	889.794	682.903
247.103	20.998	889.397	682.860
248.117	21.237	888.849	683.314
249.132	21.459	888.528	683.873
250.147	21.845	888.276	685.127
251.161	22.179	887.943	686.115
252.176	22.300	887.127	685.896
253.190	22.302	886.705	685.517
254.205	22.328	886.355	685.288
255.220	22.435	885.851	685.251
256.234	22.417	884.567	684.128
257.249	22.225	884.274	683.094
258.263	22.175	883.700	682.395
259.278	22.228	883.194	682.152
260.293	22.072	882.778	681.166
261.307	22.194	882.037	681.006
262.322	22.203	881.852	680.839
263.336	22.142	881.642	680.379
264.351	22.328	880.474	680.135
265.366	22.264	879.857	679.354
266.380	22.346	879.052	678.987
267.395	22.409	878.452	678.708
268.409	22.189	877.965	677.423
269.424	22.178	877.050	676.616
270.439	21.998	876.301	675.284
271.453	21.946	875.650	674.522
272.468	21.845	874.838	673.450
273.482	21.754	873.839	672.272
274.497	21.922	873.238	672.394
275.512	21.690	872.849	671.148
276.526	21.775	871.942	670.714
277.541	21.912	871.605	670.919
278.555	21.868	871.132	670.329
279.570	22.155	870.617	670.969
280.585	22.215	870.870	671.332
281.599	22.422	870.168	671.524
282.614	22.133	869.274	669.673
283.628	21.878	868.187	667.803
284.643	21.807	867.700	667.102
285.657	21.817	867.105	666.624
286.672	21.869	866.604	666.376
287.687	21.771	866.630	665.964
288.701	21.966	865.747	665.969
289.716	21.907	865.290	665.333
290.730	22.076	864.215	665.088
291.745	22.030	863.490	664.298
292.760	21.959	863.474	663.956
293.774	22.113	862.582	663.794
294.789	22.365	862.898	664.930
295.803	22.415	862.039	664.399
296.818	22.050	861.117	662.253
297.833	21.914	860.452	661.170
298.847	21.919	859.501	660.401
299.862	21.942	859.020	660.058
300.876	21.935	858.629	659.673
301.891	22.236	857.782	660.094
302.906	22.409	857.909	660.785
303.920	22.578	856.993	660.654
304.935	22.688	856.719	660.794
305.949	22.833	856.085	660.793
306.964	22.715	855.780	660.057
307.979	22.395	854.898	658.122
308.993	22.382	853.782	657.157
310.008	22.276	853.714	656.649
311.022	22.488	853.135	656.935
312.037	22.494	852.780	656.627
313.052	22.259	851.926	655.034
314.066	21.991	851.135	653.374
315.081	21.879	850.046	652.062
316.095	21.696	849.564	650.957
317.110	21.790	849.316	651.059
318.125	21.966	848.143	650.752
319.139	21.849	847.995	650.148
320.154	21.653	847.494	648.981
321.168	21.689	846.848	648.562
322.183	22.004	846.363	649.299
323.197	21.997	845.826	648.803
324.212	22.016	845.342	648.444
325.227	22.022	845.145	648.256
326.241	22.036	844.009	647.379
327.256	21.987	843.432	646.701
328.270	22.036	842.932	646.438
329.285	21.962	842.489	645.771
330.300	21.800	841.839	644.620
331.314	21.859	840.869	644.036
332.329	21.936	840.510	643.987
333.343	22.102	840.532	644.556
334.358	22.134	840.131	644.310
335.373	22.384	839.445	644.640
336.387	22.374	838.882	644.114
337.402	22.557	838.228	644.226
338.416	22.624	837.820	644.100
339.431	22.622	837.601	643.867
340.446	22.873	837.410	644.580
341.460	23.074	837.046	644.974
342.475	23.112	836.486	644.625
343.489	23.044	836.080	644.009
344.504	23.165	835.680	644.081
345.519	23.217	835.145	643.804
346.533	23.526	834.376	644.275
347.548	23.320	833.811	643.035
348.562	22.999	832.994	641.184
349.577	22.572	832.478	639.181
350.592	22.541	831.390	638.177
351.606	22.377	830.884	637.138
352.621	22.310	830.498	636.545
353.635	22.300	829.578	635.748
354.650	22.323	829.747	635.904
355.665	22.494	829.275	636.102
356.679	22.717	828.609	636.341
357.694	22.668	828.245	635.827
358.708	22.788	827.634	635.734
359.723	22.651	827.365	634.976
360.738	22.689	826.269	634.217
361.752	22.599	825.954	633.597
362.767	22.815	825.700	634.121
363.781	22.894	825.581	634.258
364.796	23.182	825.165	634.916
365.810	23.318	824.895	635.140
366.825	23.523	824.219	635.294
367.840	23.537	824.391	635.424
368.854	23.433	824.177	634.830
369.869	23.339	823.123	633.626
370.883	23.136	822.312	632.220
371.898	23.130	821.693	631.665
372.913	23.244	821.702	632.024
373.927	23.311	821.213	631.831
374.942	23.281	820.223	630.905
375.956	23.173	819.564	629.961
376.971	23.276	818.555	629.495
377.986	23.398	818.704	629.988
379.000	23.667	818.229	630.522
380.015	23.855	817.691	630.717
381.029	23.776	816.766	629.668
382.044	23.559	816.527	628.659
383.059	23.425	816.190	627.869
384.073	23.581	815.585	627.902
385.088	23.579	814.883	627.300
386.102	23.209	814.054	625.298
387.117	22.928	813.341	623.704
388.132	22.938	812.520	623.053
389.146	22.891	812.120	622.526
390.161	22.885	811.887	622.272
391.175	23.150	811.695	623.003
392.190	23.499	811.566	624.075
393.205	23.408	810.758	623.080
394.219	23.207	810.006	621.739
395.234	23.022	809.251	620.458
396.248	22.907	808.913	619.740
397.263	22.860	808.338	619.080
398.278	22.750	808.039	618.409
399.292	22.626	807.778	617.722
400.307	22.538	807.006	616.768
401.321	22.696	806.389	616.794
402.336	22.620	806.103	616.257
403.350	22.885	805.528	616.686
404.365	22.974	805.499	616.921
405.380	23.360	805.019	617.843
406.394	23.536	804.999	618.388
407.409	23.824	804.395	618.873
408.423	23.848	804.464	618.955
409.438	23.806	803.851	618.281
410.453	23.943	803.580	618.496
411.467	23.965	802.962	618.043
412.482	23.920	802.619	617.565
413.496	23.962	802.223	617.353
414.511	24.145	801.828	617.628
415.526	24.068	801.718	617.221
416.540	23.854	801.138	615.980
417.555	23.994	800.493	615.913
418.569	23.917	800.104	615.295
419.584	23.894	799.548	614.731
420.599	23.894	798.834	614.130
421.613	163.388	1370.538	1796.741
422.628	141.897	1453.843	1796.853
