DTS Sentinel unit serial number:	SN413079Multiplexer serial number:	ORYXHardware model number:	OX4-SRSoftware version number:	ORYX F/W v4.00 Oryx Data Collector v3.7.2.0data status	okinstallation	princeton_trtdifferential loss correction	single-endedforward channel	channel 3reverse channel	N/Adate	2019/09/18time	05:32:35forward acquisition time	60.00reverse acquisition time	0.00gamma	496.2192k internal	0.2343k external	0.2343temperature offset calibration	0.9949default loss term (dB/km)	0.3790temperature slope calibration	1.0000multiplexer offset coefficient	1.0000multiplexer slope coefficient	1.0000fibre end	0.00T internal ref (°C)	23.41T ext. ref 1 (°C)	0.19T ext. ref 2 (°C)	17.04length (m)	temperature (°C)	Stokes	anti-Stokes-747.200	-93.893	-0.255	0.070
-746.185	-200.000	-0.042	0.319
-745.171	-66.489	-0.148	-0.059
-744.156	58.306	-0.144	0.141
-743.142	-19.596	-0.075	-0.047
-742.127	650.774	0.152	0.390
-741.112	-59.986	0.085	-0.036
-740.098	-101.191	-0.245	0.060
-739.083	610.735	0.042	0.106
-738.069	-107.977	-0.274	0.060
-737.054	239.237	-0.102	0.170
-736.039	800.000	-0.054	-0.225
-735.025	-126.972	-0.055	0.008
-734.010	800.000	-0.039	-0.127
-732.996	-200.000	0.016	-0.224
-731.981	3.183	-0.194	0.141
-730.966	178.348	0.007	-0.010
-729.952	10.865	-0.385	-0.294
-728.937	-116.244	-0.096	-0.018
-727.923	-141.988	-0.328	-0.033
-726.908	-124.393	0.076	-0.012
-725.894	73.130	0.174	-0.182
-724.879	-145.705	-0.047	0.004
-723.864	100.641	0.293	-0.340
-722.850	-200.000	0.001	-0.211
-721.835	-200.000	-0.046	-0.319
-720.821	-200.000	0.027	-0.245
-719.806	-120.966	0.280	0.047
-718.791	185.975	-0.129	-0.192
-717.777	-72.635	0.058	-0.022
-716.762	169.056	0.244	-0.348
-715.748	-108.229	-0.203	-0.044
-714.733	-60.434	-0.275	0.117
-713.718	147.156	-0.301	-0.405
-712.704	330.236	-0.310	-0.596
-711.689	520.750	0.111	-0.261
-710.675	108.350	-0.310	-0.369
-709.660	800.000	-0.081	-0.320
-708.645	35.788	0.116	0.102
-707.631	800.000	0.131	0.468
-706.616	-189.659	0.290	-0.003
-705.602	-200.000	-0.001	-0.026
-704.587	-147.178	-0.454	-0.039
-703.572	-47.900	-0.111	-0.054
-702.558	216.311	0.275	0.438
-701.543	379.194	-0.199	0.408
-700.529	-137.493	-0.492	-0.056
-699.514	355.913	0.103	0.205
-698.499	-200.000	-0.030	-0.206
-697.485	-134.846	0.208	0.025
-696.470	-200.000	-0.011	0.103
-695.456	-140.058	-0.401	0.042
-694.441	613.267	-0.115	0.289
-693.426	78.399	0.120	0.128
-692.412	-200.000	0.002	-0.017
-691.397	53.182	0.174	0.167
-690.383	109.276	0.067	-0.080
-689.368	800.000	-0.065	0.221
-688.354	-157.402	0.152	-0.009
-687.339	38.515	0.119	0.106
-686.324	-200.000	0.034	-0.157
-685.310	171.289	-0.221	0.316
-684.295	312.541	-0.183	0.343
-683.281	-112.912	-0.220	0.043
-682.266	-200.000	-0.005	0.103
-681.251	-80.559	-0.256	-0.085
-680.237	-59.819	-0.154	-0.066
-679.222	800.000	0.028	-0.079
-678.208	-93.427	-0.116	0.032
-677.193	-200.000	0.012	0.170
-676.178	-35.924	-0.290	-0.157
-675.164	-200.000	-0.018	0.127
-674.149	-200.000	-0.000	-0.049
-673.135	22.300	0.138	-0.113
-672.120	50.399	0.200	0.189
-671.105	205.911	-0.241	-0.374
-670.091	-200.000	-0.031	0.161
-669.076	-76.758	-0.207	-0.072
-668.062	-41.902	-0.020	-0.010
-667.047	-46.032	0.258	0.127
-666.032	-44.359	0.087	0.044
-665.018	-155.725	0.330	-0.021
-664.003	-105.690	-0.115	0.026
-662.989	280.834	0.088	0.157
-661.974	-200.000	0.060	0.278
-660.959	-200.000	-0.015	-0.402
-659.945	759.484	-0.027	-0.072
-658.930	-22.798	-0.224	-0.135
-657.916	-119.850	0.015	0.003
-656.901	1.786	0.037	0.027
-655.886	-93.644	0.177	-0.049
-654.872	205.856	-0.156	0.242
-653.857	333.266	0.125	-0.241
-652.843	-200.000	0.072	-0.419
-651.828	-200.000	-0.014	-0.123
-650.814	-96.881	-0.424	0.111
-649.799	312.978	0.257	-0.481
-648.784	-169.307	-0.348	-0.013
-647.770	311.728	-0.074	0.138
-646.755	-114.459	0.182	0.035
-645.741	222.406	0.084	-0.135
-644.726	-67.856	-0.217	-0.085
-643.711	-200.000	0.064	-0.514
-642.697	-114.879	0.070	-0.013
-641.682	59.609	-0.191	0.188
-640.668	52.324	0.145	0.138
-639.653	165.612	-0.113	-0.159
-638.638	-200.000	-0.012	-0.197
-637.624	-29.377	-0.220	-0.126
-636.609	-142.628	-0.207	0.020
-635.595	-47.238	0.099	0.048
-634.580	-200.000	-0.003	-0.285
-633.565	800.000	0.094	-0.296
-632.551	99.244	-0.110	0.126
-631.536	-9.939	0.135	-0.089
-630.522	-146.041	-0.200	0.018
-629.507	240.115	-0.158	-0.263
-628.492	-200.000	0.005	0.450
-627.478	-0.836	0.304	0.214
-626.463	-162.932	-0.073	0.004
-625.449	592.139	-0.121	0.297
-624.434	281.989	0.093	-0.166
-623.419	15.468	-0.081	-0.063
-622.405	149.518	-0.114	0.153
-621.390	484.533	-0.039	-0.088
-620.376	-200.000	-0.090	0.406
-619.361	-200.000	-0.030	0.249
-618.346	-79.657	0.192	0.064
-617.332	372.858	-0.191	0.387
-616.317	347.912	0.153	-0.300
-615.303	156.805	0.055	0.076
-614.288	-200.000	0.036	-0.205
-613.273	329.736	-0.133	-0.255
-612.259	-8.965	0.317	0.211
-611.244	-200.000	-0.004	0.225
-610.230	274.121	-0.084	-0.147
-609.215	-200.000	-0.005	-0.193
-608.201	-126.361	-0.382	-0.057
-607.186	800.000	0.056	-0.185
-606.171	-61.097	0.027	0.011
-605.157	-18.992	-0.053	0.033
-604.142	73.309	-0.166	-0.173
-603.128	-200.000	0.014	0.114
-602.113	-44.711	-0.204	-0.101
-601.098	-15.684	0.125	-0.079
-600.084	-12.615	-0.306	0.199
-599.069	122.218	-0.122	0.152
-598.055	493.889	0.145	-0.332
-597.040	421.249	-0.088	-0.188
-596.025	-79.472	0.143	-0.048
-595.011	436.602	0.074	-0.159
-593.996	184.974	-0.240	-0.354
-592.982	800.000	0.042	0.139
-591.967	110.460	0.135	0.162
-590.952	-120.258	-0.179	-0.030
-589.938	158.967	-0.122	-0.169
-588.923	47.264	-0.201	-0.186
-587.909	-146.778	-0.112	0.010
-586.894	54.323	0.151	0.145
-585.879	-75.430	0.045	0.016
-584.865	-200.000	0.039	0.206
-583.850	-28.471	-0.189	-0.109
-582.836	-200.000	0.037	-0.177
-581.821	382.488	-0.059	0.120
-580.806	76.783	-0.162	0.171
-579.792	362.819	-0.014	0.029
-578.777	509.815	-0.114	0.264
-577.763	-129.905	0.144	0.020
-576.748	-55.551	-0.318	-0.142
-575.733	69.500	0.078	-0.080
-574.719	800.000	-0.061	0.188
-573.704	-103.833	-0.518	-0.120
-572.690	-200.000	0.005	0.053
-571.675	-43.031	-0.242	0.122
-570.661	-200.000	-0.015	-0.282
-569.646	29.485	0.097	-0.082
-568.631	-27.415	-0.180	0.104
-567.617	-159.007	0.147	0.008
-566.602	-200.000	-0.049	0.313
-565.588	800.000	-0.010	-0.029
-564.573	141.353	-0.262	-0.344
-563.558	-106.079	-0.233	-0.052
-562.544	-200.000	0.015	0.109
-561.529	98.078	-0.162	-0.186
-560.515	800.000	0.093	-0.291
-559.500	800.000	-0.078	-0.229
-558.485	-200.000	0.013	0.073
-557.471	-122.756	0.160	-0.026
-556.456	-31.421	0.118	-0.066
-555.442	-72.864	0.066	0.024
-554.427	-200.000	-0.014	-0.143
-553.412	-44.513	0.225	-0.112
-552.398	637.280	-0.142	-0.359
-551.383	398.883	0.131	0.272
-550.369	244.100	-0.223	-0.372
-549.354	-18.617	0.126	-0.078
-548.339	-76.163	0.130	0.046
-547.325	44.863	0.226	-0.207
-546.310	83.504	0.219	-0.237
-545.296	96.045	-0.034	-0.038
-544.281	-200.000	-0.038	0.198
-543.266	-63.183	-0.194	-0.079
-542.252	-50.629	0.149	-0.070
-541.237	137.013	0.177	-0.230
-540.223	29.483	-0.162	-0.137
-539.208	-129.935	-0.137	0.019
-538.193	-95.578	0.244	-0.065
-537.179	-200.000	0.060	0.271
-536.164	-200.000	0.037	-0.203
-535.150	-108.889	0.204	-0.043
-534.135	55.689	0.128	0.123
-533.121	252.428	-0.120	0.204
-532.106	11.620	-0.222	0.169
-531.091	753.379	-0.037	0.100
-530.077	-200.000	0.062	-0.380
-529.062	185.375	-0.046	0.067
-528.048	-67.294	0.360	-0.140
-527.033	42.223	0.158	-0.142
-526.018	195.848	-0.051	0.077
-525.004	143.913	-0.149	-0.197
-523.989	-78.074	0.132	0.045
-522.975	-26.539	-0.112	-0.065
-521.960	712.041	-0.080	0.211
-520.945	-99.112	-0.204	0.051
-519.931	-175.029	-0.411	0.011
-518.916	193.968	-0.139	-0.209
-517.902	-68.317	0.216	-0.083
-516.887	-45.412	0.151	-0.074
-515.872	334.936	0.067	0.129
-514.858	47.720	0.250	-0.231
-513.843	-68.260	0.148	0.057
-512.829	-200.000	0.036	-0.180
-511.814	-161.904	-0.161	-0.008
-510.799	-200.000	0.032	-0.293
-509.785	-21.559	-0.071	0.043
-508.770	10.800	0.176	0.133
-507.756	-62.864	0.270	0.111
-506.741	133.124	0.128	0.164
-505.726	-200.000	-0.059	-0.258
-504.712	-51.604	-0.091	0.042
-503.697	-200.000	0.007	-0.078
-502.683	32.420	0.198	0.170
-501.668	-174.252	-0.333	-0.010
-500.653	-44.683	-0.335	0.166
-499.639	-134.547	0.394	0.048
-498.624	-200.000	0.090	-0.408
-497.610	22.150	-0.136	-0.110
-496.595	672.228	0.174	-0.448
-495.581	478.854	0.036	-0.081
-494.566	737.894	-0.086	-0.228
-493.551	-115.629	-0.189	-0.035
-492.537	283.880	0.012	0.021
-491.522	-87.239	-0.278	-0.084
-490.508	800.000	-0.046	0.169
-489.493	-148.369	-0.223	-0.018
-488.478	34.396	0.126	-0.109
-487.464	-78.729	-0.352	-0.119
-486.449	-200.000	0.013	-0.385
-485.435	-28.842	-0.064	0.037
-484.420	278.735	0.138	-0.244
-483.405	-200.000	-0.032	-0.233
-482.391	-120.574	-0.066	0.011
-481.376	62.788	0.319	-0.316
-480.362	800.000	0.150	0.590
-479.347	-143.111	-0.203	0.019
-478.332	-58.141	-0.112	0.048
-477.318	-54.580	0.286	0.128
-476.303	800.000	-0.054	0.224
-475.289	659.401	-0.090	0.229
-474.274	689.171	-0.085	-0.221
-473.259	-8.325	-0.059	-0.039
-472.245	-25.071	0.182	0.107
-471.230	77.939	0.125	-0.132
-470.216	-109.358	0.251	0.053
-469.201	24.435	0.303	-0.248
-468.186	-39.070	-0.110	0.057
-467.172	-135.608	0.032	0.004
-466.157	150.743	0.085	-0.114
-465.143	-200.000	-0.081	0.357
-464.128	237.829	-0.157	0.258
-463.113	45.510	0.155	0.142
-462.099	63.837	0.109	0.108
-461.084	96.415	0.179	-0.203
-460.070	1.450	-0.190	0.135
-459.055	-22.770	-0.146	0.087
-458.040	-200.000	0.014	0.105
-457.026	442.742	0.116	0.252
-456.011	-200.000	-0.019	-0.136
-454.997	-200.000	0.005	0.039
-453.982	-156.874	-0.190	0.012
-452.968	-200.000	0.006	-0.271
-451.953	-84.201	-0.200	0.063
-450.938	-122.711	-0.143	0.023
-449.924	800.000	-0.059	0.223
-448.909	-66.867	0.412	0.161
-447.895	-129.120	-0.221	-0.031
-446.880	-136.866	-0.293	0.033
-445.865	-200.000	-0.009	-0.155
-444.851	-200.000	-0.054	0.278
-443.836	154.782	0.290	-0.394
-442.822	241.659	0.075	-0.123
-441.807	646.361	0.052	-0.131
-440.792	-127.882	-0.314	0.045
-439.778	-24.965	0.225	0.132
-438.763	239.045	-0.238	0.391
-437.749	-85.603	0.117	-0.036
-436.734	-50.837	0.360	-0.168
-435.719	-200.000	0.012	-0.236
-434.705	87.711	-0.042	0.046
-433.690	-85.588	-0.152	-0.047
-432.676	-164.860	-0.206	-0.009
-431.661	34.997	0.111	0.096
-430.646	-200.000	-0.038	-0.341
-429.632	-200.000	-0.008	-0.152
-428.617	217.968	0.151	-0.239
-427.603	-49.263	0.219	0.103
-426.588	157.655	-0.102	-0.140
-425.573	313.515	0.046	-0.086
-424.559	-88.783	0.196	0.058
-423.544	322.333	0.093	0.174
-422.530	-155.964	0.209	-0.013
-421.515	800.000	0.083	-0.302
-420.500	-200.000	-0.037	-0.180
-419.486	-183.927	-0.117	-0.002
-418.471	-87.262	0.354	-0.106
-417.457	289.030	0.044	-0.079
-416.442	75.173	-0.313	-0.326
-415.428	348.746	0.119	0.232
-414.413	-92.352	0.131	0.036
-413.398	-200.000	0.088	0.408
-412.384	-108.140	0.037	0.008
-411.369	-147.314	0.180	0.015
-410.355	55.813	0.264	0.253
-409.340	800.000	-0.055	0.215
-408.325	-67.333	0.132	-0.051
-407.311	97.997	0.148	-0.168
-406.296	-11.953	-0.471	0.305
-405.282	35.992	-0.029	-0.025
-404.267	-87.501	0.305	-0.091
-403.252	28.168	0.147	0.123
-402.238	446.408	-0.054	-0.118
-401.223	800.000	0.026	0.099
-400.209	-100.532	-0.262	0.064
-399.194	-53.810	0.099	0.045
-398.179	-200.000	-0.004	-0.022
-397.165	-200.000	-0.025	0.130
-396.150	25.854	0.284	0.234
-395.136	148.746	0.055	-0.074
-394.121	-200.000	0.020	0.422
-393.106	-64.246	0.284	0.114
-392.092	800.000	0.071	0.280
-391.077	-200.000	0.100	0.527
-390.063	-200.000	-0.164	-0.000
-389.048	-13.963	0.025	-0.016
-388.033	27.492	0.155	-0.129
-387.019	-115.416	0.217	0.040
-386.004	33.613	0.060	-0.052
-384.990	-200.000	-0.007	0.289
-383.975	-59.369	-0.246	-0.104
-382.960	8.142	-0.206	0.152
-381.946	-200.000	0.012	0.265
-380.931	78.065	-0.103	-0.108
-379.917	-143.026	0.398	0.038
-378.902	800.000	0.074	0.234
-377.888	-27.583	-0.254	0.145
-376.873	300.263	-0.084	0.152
-375.858	518.095	0.038	-0.088
-374.844	-21.358	-0.084	-0.051
-373.829	800.000	0.068	0.193
-372.815	800.000	0.024	-0.082
-371.800	87.103	0.148	-0.161
-370.785	-20.222	-0.059	0.036
-369.771	-57.959	0.058	0.025
-368.756	-59.131	-0.039	0.016
-367.742	11.495	-0.327	0.247
-366.727	-200.000	0.030	-0.143
-365.712	100.141	0.162	-0.186
-364.698	713.399	0.195	-0.509
-363.683	800.000	0.057	-0.211
-362.669	-200.000	-0.037	0.221
-361.654	122.244	0.109	0.134
-360.639	344.590	-0.196	0.379
-359.625	72.271	-0.227	0.233
-358.610	-85.386	-0.257	0.079
-357.596	-115.708	0.333	-0.062
-356.581	376.152	-0.119	0.240
-355.566	222.640	-0.096	0.152
-354.552	563.699	0.133	0.317
-353.537	-184.361	-0.059	-0.001
-352.523	239.531	0.131	-0.216
-351.508	-200.000	-0.024	0.267
-350.493	800.000	-0.172	0.480
-349.479	800.000	0.082	-0.332
-348.464	-200.000	0.015	-0.356
-347.450	-65.756	0.176	-0.069
-346.435	800.000	0.117	-0.330
-345.420	238.532	0.265	-0.434
-344.406	800.000	-0.059	-0.217
-343.391	-137.386	0.341	0.038
-342.377	-143.985	-0.350	-0.032
-341.362	-158.683	-0.277	0.016
-340.348	-171.222	0.487	0.016
-339.333	-58.700	-0.237	0.101
-338.318	-99.000	-0.071	0.018
-337.304	-200.000	-0.035	0.199
-336.289	-200.000	-0.027	0.148
-335.275	-65.553	-0.051	0.020
-334.260	-200.000	0.041	-0.222
-333.245	392.352	-0.179	0.367
-332.231	68.566	-0.204	0.206
-331.216	695.923	-0.097	0.251
-330.202	-153.019	-0.157	-0.011
-329.187	-154.994	0.313	0.020
-328.172	-200.000	-0.069	-0.302
-327.158	466.390	0.075	-0.165
-326.143	-91.113	0.465	0.132
-325.129	-200.000	0.040	-0.294
-324.114	221.366	0.182	-0.288
-323.099	-200.000	-0.012	0.261
-322.085	754.668	0.075	0.199
-321.070	-6.438	0.066	0.044
-320.056	-147.550	-0.438	0.036
-319.041	-8.995	0.196	-0.129
-318.026	129.942	0.283	0.356
-317.012	69.511	0.163	-0.165
-315.997	-160.174	-0.131	-0.007
-314.983	-107.270	0.219	0.047
-313.968	237.325	0.251	-0.410
-312.953	119.999	-0.166	-0.202
-311.939	368.642	0.017	0.034
-310.924	307.715	-0.044	-0.081
-309.910	86.742	-0.116	0.126
-308.895	161.157	-0.047	-0.065
-307.880	-100.066	-0.352	-0.086
-306.866	340.452	-0.103	-0.199
-305.851	-24.181	0.218	-0.128
-304.837	800.000	0.090	0.273
-303.822	-71.627	-0.268	0.098
-302.807	222.293	0.139	-0.221
-301.793	-200.000	0.224	0.001
-300.778	-200.000	0.007	-0.127
-299.764	800.000	-0.085	0.246
-298.749	-200.000	-0.001	-0.125
-297.735	-108.915	0.225	-0.047
-296.720	800.000	0.039	0.105
-295.705	-21.437	-0.252	0.151
-294.691	183.186	-0.141	0.205
-293.676	215.545	-0.034	0.053
-292.662	-182.641	0.195	0.003
-291.647	-100.736	-0.094	0.023
-290.632	35.754	0.285	0.246
-289.618	20.437	0.404	0.321
-288.603	-40.399	0.200	0.102
-287.589	126.851	-0.122	-0.151
-286.574	195.676	-0.159	0.237
-285.559	115.214	-0.022	-0.026
-284.545	96.442	0.118	-0.132
-283.530	139.725	0.111	-0.144
-282.516	-15.049	0.079	0.050
-281.501	800.000	0.082	-0.330
-280.486	75.605	-0.127	0.132
-279.472	103.119	-0.303	-0.349
-278.457	16.539	0.231	0.179
-277.443	30.019	-0.117	-0.098
-276.428	-21.184	0.289	0.174
-275.413	2.354	0.179	0.127
-274.399	669.852	0.053	0.135
-273.384	-10.030	0.135	0.088
-272.370	162.610	0.151	0.209
-271.355	254.300	-0.118	-0.198
-270.340	255.217	0.230	0.388
-269.326	-200.000	0.033	0.201
-268.311	-119.247	0.107	0.018
-267.297	-200.000	-0.018	-0.113
-266.282	-200.000	-0.003	-0.074
-265.267	90.073	-0.274	0.301
-264.253	294.159	-0.017	-0.031
-263.238	144.033	-0.180	0.237
-262.224	-200.000	0.004	-0.122
-261.209	-200.000	-0.001	-0.051
-260.195	30.651	0.135	0.113
-259.180	-152.556	-0.230	0.016
-258.165	-200.000	0.024	-0.216
-257.151	-200.000	-0.071	-0.354
-256.136	-200.000	0.051	-0.311
-255.122	-200.000	-0.068	0.317
-254.107	-30.689	-0.195	-0.109
-253.092	281.398	-0.062	0.110
-252.078	-84.977	-0.197	0.061
-251.063	-150.938	0.236	-0.018
-250.049	-57.678	0.183	-0.079
-249.034	247.329	0.017	0.027
-248.019	-179.426	-0.093	0.002
-247.005	-82.863	0.231	0.073
-245.990	-135.846	0.161	-0.019
-244.976	800.000	0.034	0.103
-243.961	118.596	0.287	-0.348
-242.946	-106.733	0.173	0.038
-241.932	-200.000	-0.277	0.001
-240.917	-66.813	0.126	0.049
-239.903	-170.821	-0.245	0.008
-238.888	401.917	-0.096	-0.197
-237.873	585.611	-0.033	-0.081
-236.859	-58.913	-0.193	-0.082
-235.844	234.815	0.188	-0.304
-234.830	-85.411	0.088	-0.027
-233.815	-200.000	-0.006	-0.151
-232.800	-200.000	0.022	-0.141
-231.786	139.158	-0.079	0.102
-230.771	-89.330	-0.294	-0.085
-229.757	-156.280	0.223	-0.014
-228.742	-63.164	0.126	-0.051
-227.727	-90.981	0.236	-0.066
-226.713	427.420	0.099	0.209
-225.698	112.022	-0.169	-0.200
-224.684	-0.614	0.178	-0.124
-223.669	-200.000	0.038	0.166
-222.655	-128.870	0.196	0.027
-221.640	84.404	-0.103	0.111
-220.625	333.458	-0.181	0.344
-219.611	268.406	-0.087	-0.150
-218.596	684.313	0.103	-0.262
-217.582	-110.222	-0.283	0.058
-216.567	-192.848	0.264	0.002
-215.552	-3.557	-0.194	0.132
-214.538	-18.922	-0.269	-0.164
-213.523	38.404	-0.204	0.178
-212.509	33.367	-0.104	-0.089
-211.494	-101.333	0.274	-0.066
-210.479	-66.802	0.258	-0.100
-209.465	6.376	0.124	-0.090
-208.450	238.116	-0.261	0.424
-207.436	-20.628	-0.402	0.242
-206.421	-200.000	-0.020	0.110
-205.406	-106.216	0.350	0.077
-204.392	553.013	-0.030	0.072
-203.377	377.614	-0.083	0.167
-202.363	314.051	0.171	0.316
-201.348	800.000	0.023	0.073
-200.333	-135.310	0.278	0.033
-199.319	505.898	-0.124	-0.281
-198.304	800.000	0.223	-0.620
-197.290	-167.498	0.328	-0.013
-196.275	-74.780	-0.367	-0.129
-195.260	-142.339	-0.087	-0.008
-194.246	800.000	-0.044	-0.188
-193.231	-200.000	-0.001	0.245
-192.217	7.382	-0.106	0.078
-191.202	-153.711	-0.338	-0.023
-190.187	-112.817	-0.167	-0.033
-189.173	-28.397	0.283	0.160
-188.158	32.970	-0.107	-0.091
-187.144	561.651	-0.109	0.258
-186.129	-129.323	0.425	0.058
-185.114	-200.000	0.010	0.189
-184.100	61.507	-0.171	0.167
-183.085	-200.000	-0.019	0.300
-182.071	219.397	0.010	0.016
-181.056	61.270	0.043	-0.042
-180.042	-106.254	0.216	-0.047
-179.027	-111.249	-0.373	-0.075
-178.012	8.430	0.107	-0.079
-176.998	-63.151	0.139	0.056
-175.983	-200.000	0.005	-0.039
-174.969	-200.000	-0.022	-0.142
-173.954	-200.000	0.022	0.122
-172.939	-11.943	-0.215	0.138
-171.925	209.276	0.151	0.231
-170.910	236.776	-0.199	0.322
-169.896	800.000	0.098	0.371
-168.881	-200.000	0.015	0.065
-167.866	-48.942	-0.072	0.034
-166.852	524.477	0.035	-0.081
-165.837	-137.543	-0.368	0.041
-164.823	72.747	-0.025	-0.026
-163.808	146.849	0.133	0.175
-162.793	-82.979	-0.349	-0.110
-161.779	169.514	-0.155	-0.216
-160.764	-81.117	-0.348	-0.113
-159.750	-200.000	0.070	0.370
-158.735	-200.000	-0.032	0.284
-157.720	-200.000	-0.038	-0.394
-156.706	20.304	-0.160	0.127
-155.691	-200.000	0.045	0.368
-154.677	800.000	0.009	0.033
-153.662	-159.980	-0.334	-0.018
-152.647	-101.150	-0.211	-0.050
-151.633	179.237	0.100	-0.144
-150.618	800.000	-0.023	-0.082
-149.604	800.000	0.047	0.135
-148.589	482.261	-0.047	-0.104
-147.574	-144.822	-0.381	-0.034
-146.560	-88.284	0.055	-0.016
-145.545	-200.000	0.064	0.322
-144.531	67.149	-0.212	-0.211
-143.516	71.284	-0.313	-0.318
-142.502	-166.227	0.016	0.001
-141.487	-150.244	-0.237	0.018
-140.472	-200.000	-0.012	-0.084
-139.458	-34.072	-0.104	-0.056
-138.443	272.143	0.087	-0.150
-137.429	800.000	-0.015	-0.048
-136.414	453.648	0.094	-0.203
-135.399	-112.528	-0.116	0.023
-134.385	188.055	-0.059	-0.086
-133.370	-91.752	-0.419	0.116
-132.356	-112.035	-0.384	-0.076
-131.341	-182.460	0.312	0.006
-130.326	60.164	0.118	-0.114
-129.312	148.392	-0.238	0.314
-128.297	-101.851	0.365	0.086
-127.283	-200.000	0.003	0.070
-126.268	-200.000	-0.009	0.291
-125.253	181.854	-0.037	-0.053
-124.239	6.561	-0.061	0.045
-123.224	-11.351	0.245	0.157
-122.210	-88.137	0.248	0.073
-121.195	38.423	-0.125	-0.108
-120.180	345.509	0.170	0.326
-119.166	800.000	-0.075	0.254
-118.151	-200.000	0.025	-0.161
-117.137	279.503	-0.151	0.263
-116.122	123.668	-0.134	0.164
-115.107	538.680	-0.034	0.079
-114.093	-200.000	-0.017	-0.172
-113.078	-151.346	0.245	-0.018
-112.064	104.194	0.106	-0.122
-111.049	-66.595	0.169	-0.065
-110.034	96.721	-0.055	-0.061
-109.020	-200.000	-0.022	-0.339
-108.005	176.170	0.145	0.205
-106.991	-123.545	-0.180	-0.028
-105.976	114.263	0.117	-0.140
-104.962	560.234	0.051	-0.120
-103.947	433.610	0.129	0.273
-102.932	21.400	-0.321	0.254
-101.918	-200.000	-0.088	0.453
-100.903	800.000	0.123	0.420
-99.889	291.712	0.133	0.236
-98.874	35.077	0.409	0.350
-97.859	158.156	-0.081	-0.109
-96.845	153.514	0.081	-0.109
-95.830	-200.000	-0.094	0.436
-94.816	711.525	-0.038	0.098
-93.801	102.070	0.180	-0.205
-92.786	143.894	-0.170	0.222
-91.772	315.497	-0.190	0.350
-90.757	-33.254	-0.048	0.026
-89.743	118.574	-0.108	0.130
-88.728	800.000	0.051	-0.214
-87.713	-80.841	-0.070	-0.023
-86.699	-8.397	0.213	-0.140
-85.684	-130.532	0.050	-0.007
-84.670	-27.074	0.178	-0.101
-83.655	108.713	0.152	0.177
-82.640	31.624	-0.217	0.182
-81.626	372.531	-0.182	0.362
-80.611	30.555	0.187	0.156
-79.597	109.755	-0.238	-0.278
-78.582	37.446	-0.483	-0.418
-77.567	-200.000	0.005	0.050
-76.553	-200.000	-0.040	0.343
-75.538	263.544	-0.046	0.078
-74.524	42.252	-0.101	-0.089
-73.509	-200.000	0.011	0.086
-72.494	128.913	0.047	0.059
-71.480	-200.000	-0.030	0.324
-70.465	353.515	-0.236	0.456
-69.451	-200.000	-0.004	0.030
-68.436	-145.264	-0.402	0.035
-67.422	-88.381	-0.284	0.083
-66.407	800.000	0.085	-0.320
-65.392	34.142	0.295	0.251
-64.378	-18.603	0.181	-0.110
-63.363	100.410	0.165	0.187
-62.349	-35.157	0.208	-0.111
-61.334	126.276	-0.997	-1.229
-60.319	-2.193	0.809	0.554
-59.305	462.909	-0.682	-1.484
-58.290	111.079	1.163	1.365
-57.276	532.151	0.685	1.580
-56.261	-200.000	125.350	655.227
-55.246	414.425	1571.864	3261.574
-54.232	142.457	2730.850	3533.369
-53.217	95.622	2187.895	2432.459
-52.203	33.992	1705.275	1447.221
-51.188	26.412	1522.490	1240.295
-50.173	24.456	1499.422	1208.223
-49.159	48.744	1570.173	1434.804
-48.144	45.963	1582.800	1426.984
-47.130	26.582	1531.813	1248.863
-46.115	23.675	1515.651	1215.765
-45.100	23.535	1512.363	1212.118
-44.086	23.455	1510.566	1210.090
-43.071	23.420	1508.667	1208.279
-42.057	23.411	1507.266	1207.045
-41.042	23.406	1505.332	1205.415
-40.027	23.354	1504.146	1204.067
-39.013	23.442	1502.661	1203.431
-37.998	23.316	1501.779	1201.821
-36.984	23.347	1500.625	1201.056
-35.969	23.395	1498.747	1199.833
-34.954	23.460	1496.839	1198.694
-33.940	23.342	1495.804	1197.021
-32.925	23.397	1494.072	1195.957
-31.911	23.459	1493.564	1195.923
-30.896	23.538	1491.779	1194.979
-29.881	23.561	1490.512	1194.073
-28.867	23.438	1489.227	1192.166
-27.852	23.420	1487.841	1190.891
-26.838	23.413	1486.403	1189.647
-25.823	23.393	1484.974	1188.318
-24.809	23.412	1483.081	1186.888
-23.794	23.411	1481.833	1185.834
-22.779	23.355	1480.797	1184.582
-21.765	23.446	1479.543	1184.142
-20.750	23.413	1478.618	1183.133
-19.736	23.412	1477.685	1182.330
-18.721	23.487	1475.997	1181.431
-17.706	23.444	1475.513	1180.711
-16.692	23.397	1474.342	1179.418
-15.677	23.402	1473.205	1178.493
-14.663	23.362	1472.217	1177.389
-13.648	23.377	1471.132	1176.575
-12.633	23.337	1470.568	1175.812
-11.619	23.479	1469.287	1175.685
-10.604	23.356	1469.032	1174.617
-9.590	23.381	1468.171	1174.051
-8.575	23.398	1467.003	1173.181
-7.560	23.421	1466.144	1172.598
-6.546	23.378	1465.495	1171.751
-5.531	23.448	1463.943	1170.923
-4.517	23.325	1463.817	1169.964
-3.502	23.381	1462.472	1169.214
-2.487	23.409	1461.222	1168.351
-1.473	23.258	1461.043	1167.165
-0.458	23.347	1459.122	1166.170
0.556	21.632	1449.086	1154.586
1.571	18.451	1424.227	1114.032
2.586	14.953	1362.672	1043.997
3.600	13.458	1279.218	971.208
4.615	12.580	1235.432	932.905
5.629	11.103	1178.965	882.189
6.644	5.447	1097.202	792.351
7.659	0.779	1061.874	743.846
8.673	0.279	1056.714	737.717
9.688	0.137	1053.743	734.887
10.702	0.146	1052.058	733.688
11.717	0.179	1050.024	732.365
12.731	1.959	1050.979	741.630
13.746	8.100	1059.115	777.320
14.761	14.312	1067.333	813.726
15.775	16.534	1069.630	826.274
16.790	16.423	1068.044	824.431
17.804	15.442	1066.054	818.044
18.819	14.559	1064.379	812.389
19.834	14.282	1062.228	809.328
20.848	13.860	1061.910	806.965
21.863	13.728	1061.288	805.780
22.877	13.421	1060.644	803.726
23.892	13.261	1059.466	801.987
24.907	13.024	1058.821	800.279
25.921	13.042	1058.130	799.775
26.936	13.193	1057.538	799.985
27.950	13.172	1056.777	799.240
28.965	13.166	1056.225	798.722
29.980	13.279	1055.095	798.340
30.994	13.406	1054.186	798.196
32.009	13.334	1053.479	797.243
33.023	13.379	1052.756	796.841
34.038	13.436	1052.006	796.481
35.053	13.327	1050.598	794.816
36.067	13.380	1049.589	794.239
37.082	13.341	1049.289	793.757
38.096	13.383	1048.018	792.925
39.111	13.366	1047.610	792.464
40.126	13.400	1046.743	791.901
41.140	13.215	1045.946	790.342
42.155	13.255	1044.532	789.396
43.169	13.167	1043.837	788.381
44.184	13.280	1042.902	788.142
45.199	13.254	1041.585	786.954
46.213	13.196	1040.796	786.012
47.228	13.123	1039.928	784.943
48.242	13.145	1039.016	784.289
49.257	13.251	1037.581	783.637
50.271	13.119	1037.152	782.618
51.286	13.218	1036.360	782.420
52.301	13.196	1035.369	781.498
53.315	13.350	1034.315	781.363
54.330	13.294	1033.430	780.361
55.344	13.292	1032.820	779.823
56.359	13.194	1031.563	778.343
57.374	13.244	1031.005	778.088
58.388	13.301	1030.218	777.694
59.403	13.258	1029.375	776.783
60.417	13.189	1028.474	775.714
61.432	13.236	1027.617	775.217
62.447	13.182	1026.785	774.270
63.461	13.019	1026.585	773.285
64.476	13.164	1025.071	772.756
65.490	13.140	1024.508	772.150
66.505	13.074	1024.058	771.436
67.520	13.197	1023.117	771.232
68.534	13.301	1021.855	770.697
69.549	13.222	1021.207	769.773
70.563	13.275	1020.566	769.465
71.578	13.160	1020.244	768.621
72.593	12.954	1019.575	767.090
73.607	13.045	1018.115	766.349
74.622	13.046	1016.974	765.423
75.636	13.107	1016.008	764.913
76.651	13.069	1015.717	764.451
77.666	13.086	1014.666	763.671
78.680	13.066	1013.991	763.001
79.695	13.174	1013.702	763.216
80.709	13.183	1013.055	762.704
81.724	13.134	1012.214	761.778
82.739	13.223	1011.143	761.311
83.753	13.228	1010.661	760.907
84.768	13.275	1009.764	760.377
85.782	13.240	1009.028	759.596
86.797	13.355	1007.845	759.166
87.812	13.373	1007.297	758.771
88.826	13.231	1006.746	757.634
89.841	13.261	1005.416	756.705
90.855	13.409	1004.385	756.541
91.870	13.282	1003.809	755.457
92.884	13.388	1003.359	755.536
93.899	13.337	1002.623	754.684
94.914	13.284	1001.667	753.657
95.928	13.420	1001.004	753.710
96.943	13.586	1000.147	753.754
97.957	13.456	999.741	752.788
98.972	13.501	998.745	752.177
99.987	13.478	997.977	751.427
101.001	13.431	997.149	750.526
102.016	13.412	996.519	749.898
103.030	13.322	995.670	748.786
104.045	13.453	994.404	748.359
105.060	13.238	993.739	746.821
106.074	13.333	992.823	746.494
107.089	13.333	991.878	745.717
108.103	13.158	991.003	744.207
109.118	13.313	989.628	743.804
110.133	13.235	988.660	742.664
111.147	13.308	988.372	742.706
112.162	13.357	987.125	741.923
113.176	13.333	986.216	741.070
114.191	13.419	985.388	740.767
115.206	13.299	985.281	740.080
116.220	13.260	984.051	738.919
117.235	13.206	983.760	738.391
118.249	13.319	982.717	738.050
119.264	13.308	981.516	737.032
120.279	13.388	980.420	736.501
121.293	13.247	980.092	735.562
122.308	13.228	979.249	734.778
123.322	13.229	977.909	733.715
124.337	13.303	977.572	733.722
125.352	13.259	976.355	732.552
126.366	13.260	974.715	731.261
127.381	13.305	973.813	730.718
128.395	13.294	972.406	729.547
129.410	13.325	971.788	729.158
130.424	13.327	970.828	728.380
131.439	13.313	970.095	727.705
132.454	13.263	969.103	726.675
133.468	13.226	968.746	726.184
134.483	13.150	968.423	725.543
135.497	13.252	967.541	725.265
136.512	13.329	966.532	724.781
137.527	13.300	965.912	724.125
138.541	13.334	964.490	723.143
139.556	13.347	964.086	722.835
140.570	13.328	963.476	722.229
141.585	13.426	962.235	721.664
142.600	13.470	962.218	721.779
143.614	13.406	960.900	720.447
144.629	13.450	960.359	720.168
145.643	13.510	959.898	720.020
146.658	13.544	958.585	719.122
147.673	13.571	957.893	718.652
148.687	13.507	957.407	717.946
149.702	13.463	956.457	716.983
150.716	13.497	955.610	716.431
151.731	13.299	954.899	714.979
152.746	13.480	953.925	714.969
153.760	13.383	953.288	714.007
154.775	13.599	952.057	713.954
155.789	13.583	951.781	713.616
156.804	13.606	950.658	712.807
157.819	13.497	950.082	711.844
158.833	13.530	949.792	711.708
159.848	13.635	948.712	711.285
160.862	13.601	948.160	710.660
161.877	13.757	947.090	710.468
162.892	13.646	946.436	709.438
163.906	13.519	945.398	708.052
164.921	13.532	944.731	707.549
165.935	13.478	943.936	706.657
166.950	13.538	942.836	706.029
167.964	13.606	941.900	705.554
168.979	13.642	940.976	704.955
169.994	13.612	940.171	704.161
171.008	13.433	939.440	702.791
172.023	13.685	938.598	703.167
173.037	13.694	937.562	702.366
174.052	13.733	937.134	702.149
175.067	13.823	936.029	701.637
176.081	13.587	935.676	700.317
177.096	13.617	934.675	699.632
178.110	13.604	933.679	698.768
179.125	13.634	933.107	698.407
180.140	13.691	932.488	698.120
181.154	13.676	931.542	697.286
182.169	13.740	930.680	696.849
183.183	13.701	930.128	696.210
184.198	13.927	928.994	696.250
185.213	13.786	928.581	695.286
186.227	13.916	928.262	695.530
187.242	13.770	927.820	694.528
188.256	13.768	926.977	693.824
189.271	13.898	926.378	693.859
190.286	13.944	925.082	693.018
191.300	13.892	924.581	692.363
192.315	13.850	923.637	691.423
193.329	13.681	923.449	690.515
194.344	13.934	922.627	690.891
195.359	13.796	921.953	689.752
196.373	13.920	921.447	689.830
197.388	14.013	920.560	689.492
198.402	14.001	920.458	689.301
199.417	13.998	920.215	689.049
200.432	13.997	919.658	688.563
201.446	14.067	919.144	688.408
202.461	14.032	918.550	687.759
203.475	14.140	918.092	687.803
204.490	14.189	917.415	687.436
205.504	14.246	916.356	686.818
206.519	14.210	915.428	685.913
207.534	14.094	914.782	684.891
208.548	14.101	914.211	684.431
209.563	14.083	913.659	683.884
210.577	14.125	912.950	683.463
211.592	14.082	912.016	682.529
212.607	14.220	911.225	682.442
213.621	14.122	911.127	681.907
214.636	14.204	909.960	681.308
215.650	14.297	909.376	681.190
216.665	14.175	909.214	680.509
217.680	14.237	908.582	680.229
218.694	14.158	908.235	679.585
219.709	14.255	907.533	679.400
220.723	14.385	906.506	679.100
221.738	14.406	906.054	678.786
222.753	14.333	905.457	677.980
223.767	14.458	904.306	677.568
224.782	14.367	903.698	676.684
225.796	14.473	903.188	676.673
226.811	14.425	902.488	675.891
227.826	14.498	901.352	675.279
228.840	14.402	900.835	674.442
229.855	14.415	900.486	674.171
230.869	14.390	899.807	673.502
231.884	14.542	898.724	673.249
232.899	14.441	898.137	672.342
233.913	14.625	897.444	672.503
234.928	14.463	896.833	671.334
235.942	14.488	896.192	670.896
236.957	14.382	895.888	670.180
237.972	14.400	895.042	669.563
238.986	14.469	894.085	669.066
240.001	14.458	893.955	668.865
241.015	14.459	893.427	668.412
242.030	14.532	892.551	667.992
243.045	14.606	891.787	667.656
244.059	14.489	891.278	666.748
245.074	14.554	890.268	666.193
246.088	14.618	889.627	665.912
247.103	14.698	889.362	665.972
248.117	14.693	888.599	665.321
249.132	14.730	888.017	664.974
250.147	14.865	887.203	664.843
251.161	14.894	886.330	664.245
252.176	14.891	885.580	663.612
253.190	14.876	885.355	663.326
254.205	14.990	884.461	663.049
255.220	15.025	883.928	662.728
256.234	14.885	883.195	661.566
257.249	14.835	882.968	661.140
258.263	15.058	882.287	661.452
259.278	15.005	881.886	660.887
260.293	15.122	881.010	660.630
261.307	15.101	880.904	660.412
262.322	15.136	880.189	659.954
263.336	15.116	879.496	659.300
264.351	15.167	878.740	658.874
265.366	15.217	878.129	658.552
266.380	15.272	876.975	657.847
267.395	15.186	876.758	657.287
268.409	15.053	876.267	656.340
269.424	15.240	875.335	656.316
270.439	15.167	874.833	655.597
271.453	15.277	873.534	654.994
272.468	15.167	873.101	654.181
273.482	15.275	872.587	654.161
274.497	15.191	872.060	653.379
275.512	15.178	871.184	652.615
276.526	15.265	870.259	652.202
277.541	15.274	869.453	651.577
278.555	15.231	869.015	651.023
279.570	15.423	868.488	651.314
280.585	15.471	868.362	651.348
281.599	15.359	868.011	650.595
282.614	15.301	867.148	649.664
283.628	15.282	866.544	649.081
284.643	15.426	865.683	648.937
285.657	15.371	865.570	648.583
286.672	15.413	865.113	648.344
287.687	15.340	864.418	647.483
288.701	15.464	863.603	647.294
289.716	15.365	863.440	646.732
290.730	15.590	862.643	646.946
291.745	15.497	862.033	646.074
292.760	15.427	861.452	645.312
293.774	15.475	860.763	644.924
294.789	15.572	860.082	644.729
295.803	15.621	859.240	644.226
296.818	15.594	858.903	643.816
297.833	15.623	857.998	643.188
298.847	15.459	857.657	642.251
299.862	15.548	856.881	641.951
300.876	15.542	856.333	641.463
301.891	15.653	855.198	640.980
302.906	15.643	854.786	640.574
303.920	15.691	853.695	639.882
304.935	15.828	853.391	640.119
305.949	15.819	852.627	639.457
306.964	15.782	852.219	638.951
307.979	15.835	851.943	638.890
308.993	15.837	851.209	638.290
310.008	15.814	850.717	637.778
311.022	15.714	850.266	637.003
312.037	15.876	849.795	637.208
313.052	16.051	848.956	637.184
314.066	15.885	848.600	636.235
315.081	15.837	847.719	635.336
316.095	15.918	847.096	635.118
317.110	15.790	846.828	634.381
318.125	15.893	846.326	634.336
319.139	15.965	845.562	633.977
320.154	15.867	845.111	633.214
321.168	15.839	844.846	632.856
322.183	15.864	844.181	632.396
323.197	15.912	844.096	632.454
324.212	15.902	843.188	631.681
325.227	16.071	842.116	631.455
326.241	16.068	842.010	631.310
327.256	15.988	841.440	630.525
328.270	15.954	840.544	629.671
329.285	16.041	840.172	629.664
330.300	16.144	839.279	629.322
331.314	15.912	839.146	628.302
332.329	15.937	838.486	627.842
333.343	16.018	837.740	627.532
334.358	16.250	837.148	627.896
335.373	16.010	836.839	626.714
336.387	16.193	836.065	626.763
337.402	15.982	835.897	625.797
338.416	16.131	835.308	625.854
339.431	16.252	834.348	625.525
340.446	16.364	833.767	625.451
341.460	16.351	833.532	625.170
342.475	16.406	832.612	624.628
343.489	16.379	832.358	624.283
344.504	16.342	831.679	623.583
345.519	16.398	831.184	623.361
346.533	16.479	830.693	623.236
347.548	16.357	830.386	622.503
348.562	16.378	829.592	621.930
349.577	16.421	829.403	621.890
350.592	16.193	828.996	620.691
351.606	16.290	828.328	620.493
352.621	16.358	827.886	620.358
353.635	16.358	827.767	620.215
354.650	16.374	826.955	619.609
355.665	16.369	826.459	619.165
356.679	16.582	826.023	619.563
357.694	16.473	825.580	618.776
358.708	16.538	824.906	618.454
359.723	16.514	824.657	618.126
360.738	16.523	823.827	617.481
361.752	16.579	823.265	617.209
362.767	16.638	822.680	616.930
363.781	16.491	822.534	616.231
364.796	16.617	822.357	616.502
365.810	16.660	821.783	616.174
366.825	16.482	821.702	615.411
367.840	16.664	821.250	615.680
368.854	16.849	820.544	615.769
369.869	16.752	820.263	615.152
370.883	16.639	819.525	614.135
371.898	16.766	818.889	614.063
372.913	16.730	818.488	613.578
373.927	16.736	817.730	612.976
374.942	16.968	816.922	613.154
375.956	16.732	816.572	611.984
376.971	16.808	816.202	611.928
377.986	16.831	815.509	611.438
379.000	16.998	814.658	611.347
380.015	16.877	814.579	610.798
381.029	16.926	813.538	610.141
382.044	16.743	813.656	609.515
383.059	16.900	813.006	609.540
384.073	16.994	812.329	609.317
385.088	17.117	811.404	609.010
386.102	16.992	811.359	608.475
387.117	17.013	810.619	607.942
388.132	17.071	810.141	607.737
389.146	17.022	809.884	607.313
390.161	17.060	809.449	607.071
391.175	16.957	809.198	606.459
392.190	16.963	809.113	606.363
393.205	17.241	807.766	606.294
394.219	17.049	807.741	605.536
395.234	16.939	807.270	604.735
396.248	17.068	806.734	604.742
397.263	17.107	805.964	604.248
398.278	17.042	805.654	603.732
399.292	17.033	805.114	603.240
400.307	16.938	805.101	602.840
401.321	17.052	804.558	602.787
402.336	17.081	804.430	602.739
403.350	17.124	803.779	602.350
404.365	17.175	803.137	601.998
405.380	17.157	802.742	601.584
406.394	17.225	802.304	601.444
407.409	17.261	801.790	601.133
408.423	17.334	801.297	600.966
409.438	17.435	800.715	600.833
410.453	17.358	801.007	600.727
411.467	17.421	800.493	600.514
412.482	17.421	799.656	599.829
413.496	17.345	798.970	598.997
414.511	17.258	799.013	598.669
415.526	17.594	798.141	599.144
416.540	17.504	798.108	598.752
417.555	17.621	797.609	598.735
418.569	17.414	797.436	597.824
419.584	17.438	796.610	597.235
420.599	17.461	796.291	597.024
421.613	113.418	1297.480	1486.133
422.628	97.648	1370.464	1486.200
