DTS Sentinel unit serial number:	SN413079Multiplexer serial number:	ORYXHardware model number:	OX4-SRSoftware version number:	ORYX F/W v4.00 Oryx Data Collector v3.7.2.0data status	okinstallation	princeton_trtdifferential loss correction	single-endedforward channel	channel 3reverse channel	N/Adate	2019/09/16time	06:56:34forward acquisition time	60.00reverse acquisition time	0.00gamma	496.2192k internal	0.2335k external	0.2335temperature offset calibration	0.9961default loss term (dB/km)	0.3790temperature slope calibration	1.0000multiplexer offset coefficient	1.0000multiplexer slope coefficient	1.0000fibre end	0.00T internal ref (°C)	27.37T ext. ref 1 (°C)	11.48T ext. ref 2 (°C)	21.80length (m)	temperature (°C)	Stokes	anti-Stokes-747.200	101.329	-0.184	0.215
-746.185	800.000	-0.096	0.274
-745.171	-85.260	0.222	0.070
-744.156	-200.000	-0.061	0.419
-743.142	25.446	-0.219	-0.183
-742.127	-200.000	-0.023	-0.147
-741.112	-99.183	-0.159	0.040
-740.098	82.422	-0.245	0.268
-739.083	-92.061	0.051	-0.014
-738.069	295.701	0.121	-0.222
-737.054	-11.877	-0.183	-0.120
-736.039	538.592	-0.012	-0.029
-735.025	-70.974	0.072	-0.027
-734.010	-200.000	0.064	-0.399
-732.996	109.887	-0.166	-0.201
-731.981	-11.227	-0.121	-0.080
-730.966	103.550	0.101	0.119
-729.952	418.253	0.089	-0.192
-728.937	-139.592	0.307	0.033
-727.923	-86.891	-0.133	-0.041
-726.908	341.104	-0.195	-0.382
-725.894	-109.291	0.226	0.048
-724.879	76.243	-0.319	-0.339
-723.864	654.998	-0.072	0.185
-722.850	138.007	0.093	-0.122
-721.835	800.000	0.058	-0.219
-720.821	6.010	-0.330	-0.246
-719.806	316.030	0.154	-0.292
-718.791	-200.000	0.029	-0.210
-717.777	587.294	-0.010	-0.025
-716.762	-200.000	-0.047	0.218
-715.748	-130.503	0.378	-0.051
-714.733	519.212	-0.043	-0.102
-713.718	-200.000	-0.012	-0.168
-712.704	-176.767	-0.159	-0.004
-711.689	153.410	0.236	-0.325
-710.675	97.307	0.138	-0.158
-709.660	-22.526	0.240	0.146
-708.645	216.935	-0.060	-0.095
-707.631	-94.047	0.058	0.016
-706.616	-137.974	0.155	-0.017
-705.602	-90.243	0.245	-0.071
-704.587	7.774	0.060	0.045
-703.572	-91.988	0.172	0.049
-702.558	-200.000	0.038	0.264
-701.543	84.583	-0.312	-0.343
-700.529	-45.294	0.137	-0.068
-699.514	-200.000	-0.025	-0.246
-698.499	-200.000	0.003	0.312
-697.485	-200.000	0.009	-0.184
-696.470	-67.422	-0.302	-0.119
-695.456	-200.000	0.012	-0.065
-694.441	-200.000	-0.017	0.114
-693.426	-200.000	0.012	0.123
-692.412	800.000	-0.118	-0.491
-691.397	116.905	-0.130	-0.160
-690.383	800.000	-0.048	0.142
-689.368	800.000	-0.017	0.049
-688.354	151.175	-0.192	-0.262
-687.339	-200.000	0.020	-0.273
-686.324	101.279	0.166	0.194
-685.310	209.046	0.141	0.222
-684.295	-123.719	0.116	-0.018
-683.281	-200.000	-0.002	-0.038
-682.266	-85.003	-0.175	-0.055
-681.251	-200.000	0.025	-0.242
-680.237	-158.725	0.468	-0.027
-679.222	198.279	-0.309	-0.474
-678.208	-200.000	0.011	0.299
-677.193	-58.611	-0.134	0.058
-676.178	381.867	-0.037	0.076
-675.164	127.053	-0.102	0.130
-674.149	137.039	-0.154	-0.202
-673.135	-130.980	-0.075	-0.010
-672.120	339.997	0.106	-0.207
-671.105	14.029	-0.088	-0.069
-670.091	-200.000	-0.017	0.081
-669.076	-146.553	0.247	0.022
-668.062	-32.919	0.096	-0.054
-667.047	-82.326	-0.141	0.046
-666.032	-86.904	0.045	0.014
-665.018	56.946	0.058	-0.057
-664.003	-148.088	0.126	0.010
-662.989	-129.034	-0.106	-0.015
-661.974	94.114	-0.044	0.050
-660.959	-200.000	0.003	0.144
-659.945	7.772	0.419	0.314
-658.930	-16.528	0.268	0.170
-657.916	-200.000	-0.013	-0.060
-656.901	-118.337	-0.419	0.074
-655.886	-200.000	-0.025	-0.370
-654.872	-97.359	-0.241	0.063
-653.857	-110.007	-0.177	0.037
-652.843	97.787	0.021	0.024
-651.828	-183.294	0.265	-0.005
-650.814	390.594	0.086	0.179
-649.799	73.314	-0.253	-0.265
-648.784	-182.075	0.478	-0.009
-647.770	213.544	-0.166	-0.263
-646.755	-127.351	0.131	-0.019
-645.741	800.000	0.034	-0.127
-644.726	218.667	0.141	0.226
-643.711	146.060	-0.123	-0.166
-642.697	-200.000	-0.023	-0.160
-641.682	95.559	-0.076	-0.087
-640.668	14.494	-0.080	-0.062
-639.653	103.331	0.175	0.206
-638.638	4.979	-0.097	-0.072
-637.624	200.400	-0.172	-0.265
-636.609	-48.443	0.463	0.223
-635.595	-127.823	-0.305	0.044
-634.580	-200.000	0.066	0.327
-633.565	-66.042	-0.352	0.141
-632.551	-157.653	-0.246	-0.015
-631.536	26.159	-0.085	-0.071
-630.522	-94.869	-0.136	0.037
-629.507	5.046	0.240	-0.177
-628.492	-200.000	0.002	0.101
-627.478	227.234	-0.214	-0.348
-626.463	127.545	0.055	-0.070
-625.449	-28.700	0.143	0.082
-624.434	-200.000	-0.023	0.108
-623.419	229.825	0.113	0.185
-622.405	-162.796	-0.271	0.013
-621.390	-92.487	-0.243	-0.068
-620.376	194.253	-0.065	-0.098
-619.361	351.827	-0.081	-0.161
-618.346	479.613	-0.045	-0.103
-617.332	102.443	0.130	-0.152
-616.317	89.314	-0.155	-0.172
-615.303	-128.640	-0.170	-0.024
-614.288	106.986	0.029	-0.034
-613.273	-90.176	-0.306	-0.089
-612.259	-200.000	0.032	0.218
-611.244	68.176	-0.283	-0.290
-610.230	-16.186	-0.195	-0.124
-609.215	800.000	-0.075	-0.213
-608.201	-122.677	-0.205	0.033
-607.186	57.196	-0.236	0.230
-606.171	-76.341	-0.098	-0.035
-605.157	427.566	-0.187	0.403
-604.142	36.933	-0.219	0.193
-603.128	-200.000	0.005	-0.143
-602.113	105.945	-0.163	-0.193
-601.098	800.000	0.051	0.158
-600.084	-194.361	-0.242	0.002
-599.069	-84.428	0.229	0.072
-598.055	468.892	0.019	0.042
-597.040	-106.662	0.275	-0.061
-596.025	84.208	0.161	-0.176
-595.011	312.331	0.079	-0.149
-593.996	78.162	0.173	0.185
-592.982	193.418	-0.034	-0.052
-591.967	-72.079	0.103	0.038
-590.952	77.222	-0.108	0.115
-589.938	-200.000	0.027	0.268
-588.923	29.658	0.103	0.087
-587.909	-166.267	-0.145	0.006
-586.894	-200.000	0.014	-0.201
-585.879	-200.000	-0.002	0.264
-584.865	-57.663	0.288	0.126
-583.850	-196.543	-0.151	-0.001
-582.836	-41.330	-0.071	0.037
-581.821	331.612	-0.029	0.055
-580.806	167.157	0.166	0.235
-579.792	-155.632	-0.430	0.028
-578.777	231.961	0.151	0.247
-577.763	80.658	-0.149	-0.160
-576.748	-105.963	0.075	-0.017
-575.733	-200.000	-0.038	0.173
-574.719	140.038	-0.080	-0.105
-573.704	126.977	0.107	-0.135
-572.690	519.027	0.068	-0.159
-571.675	-85.994	0.235	0.072
-570.661	-86.179	0.219	-0.067
-569.646	435.672	0.146	0.317
-568.631	46.575	0.243	-0.225
-567.617	800.000	0.090	0.311
-566.602	254.075	-0.070	-0.119
-565.588	-29.676	-0.103	-0.059
-564.573	-200.000	0.000	-0.045
-563.558	0.769	-0.348	-0.248
-562.544	-52.400	-0.135	-0.062
-561.529	9.534	0.262	0.198
-560.515	-92.979	0.083	0.023
-559.500	800.000	0.064	0.273
-558.485	309.144	0.087	-0.162
-557.471	-200.000	-0.015	0.101
-556.456	188.797	-0.064	0.095
-555.442	-200.000	-0.002	-0.137
-554.427	-76.643	0.254	0.089
-553.412	68.475	-0.056	0.057
-552.398	6.233	-0.267	0.197
-551.383	657.700	0.104	-0.266
-550.369	87.223	0.132	0.145
-549.354	-200.000	0.028	-0.142
-548.339	-200.000	-0.015	0.203
-547.325	-25.167	0.259	0.153
-546.310	-86.760	-0.208	0.063
-545.296	-200.000	-0.026	-0.191
-544.281	-115.991	-0.205	0.038
-543.266	531.201	0.073	0.171
-542.252	-51.909	0.277	-0.128
-541.237	800.000	-0.013	-0.058
-540.223	-172.453	-0.383	0.012
-539.208	9.348	0.211	-0.159
-538.193	61.141	0.301	0.298
-537.179	265.158	-0.215	0.374
-536.164	635.428	0.092	-0.233
-535.150	-119.026	0.115	-0.020
-534.135	-200.000	-0.028	-0.143
-533.121	-109.624	0.124	-0.026
-532.106	-148.117	0.289	0.024
-531.091	-36.148	-0.148	0.079
-530.077	800.000	-0.166	0.466
-529.062	564.769	0.033	-0.079
-528.048	-1.077	0.270	0.190
-527.033	-2.080	-0.374	0.262
-526.018	4.093	-0.168	-0.122
-525.004	-4.471	0.279	0.192
-523.989	453.510	-0.084	-0.186
-522.975	123.791	0.124	-0.155
-521.960	67.083	-0.165	-0.167
-520.945	-200.000	-0.032	0.377
-519.931	-200.000	-0.041	0.184
-518.916	45.960	0.109	-0.100
-517.902	-87.015	-0.295	0.090
-516.887	201.303	-0.074	0.113
-515.872	224.063	0.200	0.322
-514.858	284.950	-0.158	-0.283
-513.843	-125.520	-0.262	0.040
-512.829	-66.231	0.327	-0.130
-511.814	-149.256	-0.083	-0.007
-510.799	282.379	0.158	-0.281
-509.785	800.000	-0.021	-0.067
-508.770	-78.109	0.317	0.108
-507.756	-24.245	0.116	0.069
-506.741	231.722	0.165	-0.270
-505.726	9.935	0.177	0.133
-504.712	800.000	0.076	0.242
-503.697	-200.000	-0.033	-0.151
-502.683	83.954	0.039	0.043
-501.668	58.001	0.232	0.226
-500.653	-22.274	0.343	-0.207
-499.639	14.033	-0.179	0.139
-498.624	10.631	-0.191	-0.145
-497.610	-200.000	0.018	0.125
-496.595	3.452	0.133	-0.096
-495.581	-100.651	0.269	-0.066
-494.566	239.965	-0.098	0.163
-493.551	54.445	0.342	0.328
-492.537	-200.000	-0.008	-0.360
-491.522	-62.918	-0.029	0.012
-490.508	-103.612	0.177	-0.041
-489.493	-200.000	-0.001	0.143
-488.478	-200.000	0.007	0.214
-487.464	800.000	0.096	-0.368
-486.449	-200.000	-0.017	-0.086
-485.435	96.540	-0.131	0.149
-484.420	-62.611	-0.050	0.020
-483.405	-73.615	0.195	0.071
-482.391	-200.000	0.035	-0.282
-481.376	-200.000	0.001	-0.235
-480.362	213.537	-0.050	0.078
-479.347	28.467	0.147	-0.124
-478.332	800.000	-0.099	0.308
-477.318	-81.689	-0.241	0.079
-476.303	210.952	0.037	0.058
-475.289	423.744	0.101	-0.215
-474.274	-165.899	-0.595	0.025
-473.259	-200.000	-0.002	-0.123
-472.245	800.000	0.084	-0.248
-471.230	800.000	0.086	-0.240
-470.216	706.335	-0.148	0.388
-469.201	-200.000	-0.007	-0.051
-468.186	-22.172	-0.283	-0.171
-467.172	240.839	0.069	-0.114
-466.157	-18.940	-0.131	-0.081
-465.143	2.150	0.202	-0.145
-464.128	-86.698	-0.226	0.069
-463.113	-200.000	-0.043	0.236
-462.099	-68.676	-0.093	0.036
-461.084	800.000	-0.014	-0.045
-460.070	109.949	-0.130	-0.155
-459.055	458.546	0.096	0.212
-458.040	800.000	0.064	0.204
-457.026	-67.667	0.213	0.083
-456.011	-45.823	0.180	-0.088
-454.997	-25.077	-0.193	0.114
-453.982	-101.570	-0.259	0.063
-452.968	-98.211	-0.320	-0.082
-451.953	344.418	-0.040	-0.077
-450.938	-116.954	0.275	-0.050
-449.924	800.000	-0.053	0.169
-448.909	276.710	0.173	-0.305
-447.895	-200.000	0.013	-0.316
-446.880	-90.668	0.115	-0.033
-445.865	-105.708	0.261	-0.059
-444.851	163.291	-0.073	0.102
-443.836	-200.000	0.015	0.111
-442.822	-24.329	0.182	-0.108
-441.807	-200.000	-0.055	-0.308
-440.792	-164.253	-0.241	-0.011
-439.778	-200.000	0.059	0.367
-438.763	12.246	-0.170	-0.130
-437.749	-13.509	0.087	-0.056
-436.734	485.388	0.121	-0.274
-435.719	-3.574	-0.433	-0.299
-434.705	-38.875	0.112	0.059
-433.690	-82.397	0.215	0.069
-432.676	114.501	0.028	0.034
-431.661	-11.634	0.071	-0.047
-430.646	-28.992	-0.206	-0.118
-429.632	226.552	0.120	-0.193
-428.617	-200.000	0.002	-0.499
-427.603	327.181	0.156	0.296
-426.588	98.727	0.236	-0.270
-425.573	487.978	0.032	0.073
-424.559	-40.416	-0.272	-0.140
-423.544	-42.902	-0.264	0.133
-422.530	800.000	0.078	0.331
-421.515	800.000	-0.055	0.225
-420.500	40.450	-0.146	0.130
-419.486	-28.593	0.264	0.151
-418.471	800.000	-0.049	-0.143
-417.457	-190.053	-0.109	0.001
-416.442	-200.000	0.014	-0.242
-415.428	-57.682	0.141	-0.061
-414.413	32.566	0.126	-0.108
-413.398	-35.693	-0.275	0.148
-412.384	-168.454	-0.046	0.002
-411.369	-190.014	-0.189	0.002
-410.355	524.422	0.080	-0.188
-409.340	-200.000	-0.009	0.232
-408.325	-200.000	-0.074	-0.396
-407.311	67.294	0.292	-0.295
-406.296	-143.833	-0.197	0.018
-405.282	-113.386	-0.261	0.051
-404.267	-200.000	-0.011	0.429
-403.252	768.393	0.080	-0.217
-402.238	-200.000	-0.008	-0.127
-401.223	-42.014	0.226	0.115
-400.209	23.723	0.154	0.126
-399.194	134.930	-0.115	0.148
-398.179	-103.332	0.265	-0.062
-397.165	-200.000	-0.015	-0.262
-396.150	284.892	0.064	0.115
-395.136	366.676	-0.119	0.239
-394.121	82.849	-0.151	-0.163
-393.106	-143.978	0.210	0.020
-392.092	217.304	-0.103	-0.162
-391.077	71.179	-0.215	-0.221
-390.063	-94.069	-0.313	0.085
-389.048	37.938	0.145	-0.128
-388.033	-28.052	0.225	0.129
-387.019	123.437	-0.170	-0.211
-386.004	401.030	-0.080	0.165
-384.990	800.000	0.086	0.253
-383.975	71.465	-0.136	0.140
-382.960	-152.092	-0.175	0.013
-381.946	-107.922	0.248	0.053
-380.931	800.000	0.066	0.196
-379.917	800.000	-0.030	0.118
-378.902	800.000	0.057	-0.160
-377.888	76.343	-0.069	-0.072
-376.873	-62.665	0.210	0.086
-375.858	-175.810	-0.186	-0.005
-374.844	-79.406	-0.224	-0.075
-373.829	-61.601	0.256	-0.106
-372.815	-104.224	-0.183	0.042
-371.800	-200.000	-0.019	-0.271
-370.785	85.336	-0.198	-0.215
-369.771	800.000	0.063	0.235
-368.756	216.288	0.025	-0.039
-367.742	-17.059	-0.148	0.092
-366.727	590.519	-0.158	0.386
-365.712	436.691	0.101	-0.218
-364.698	-144.680	0.199	0.018
-363.683	213.593	-0.066	-0.104
-362.669	-73.417	0.285	-0.103
-361.654	27.772	-0.073	-0.061
-360.639	-75.366	-0.400	0.141
-359.625	-144.591	-0.200	-0.018
-358.610	800.000	0.042	0.150
-357.596	800.000	-0.091	0.285
-356.581	800.000	-0.047	-0.159
-355.566	37.114	0.244	0.214
-354.552	-73.895	0.232	-0.083
-353.537	737.444	0.022	-0.058
-352.523	-107.948	-0.264	0.057
-351.508	455.378	0.072	0.157
-350.493	693.559	-0.041	-0.108
-349.479	-97.491	-0.144	-0.037
-348.464	354.325	-0.046	-0.091
-347.450	-132.808	0.259	-0.033
-346.435	73.119	0.208	0.215
-345.420	-13.464	0.214	-0.137
-344.406	-200.000	-0.003	-0.120
-343.391	681.177	-0.047	-0.122
-342.377	51.541	0.159	-0.150
-341.362	-200.000	0.019	-0.368
-340.348	-14.014	-0.313	-0.200
-339.333	-200.000	-0.018	0.215
-338.318	-200.000	0.034	-0.272
-337.304	-139.056	0.039	-0.004
-336.289	-200.000	0.016	0.095
-335.275	-62.177	0.016	-0.007
-334.260	-53.295	0.272	0.123
-333.245	-42.517	-0.151	0.076
-332.231	118.542	-0.232	-0.283
-331.216	-0.513	0.112	-0.079
-330.202	296.218	-0.092	0.166
-329.187	62.996	0.118	-0.117
-328.172	634.581	-0.067	0.168
-327.158	-141.263	0.405	0.041
-326.143	235.968	0.144	-0.236
-325.129	-97.015	-0.097	0.025
-324.114	258.489	0.037	0.063
-323.099	90.584	-0.062	-0.069
-322.085	390.159	0.137	0.281
-321.070	442.426	-0.150	0.325
-320.056	-59.012	0.332	0.142
-319.041	-200.000	0.003	-0.353
-318.026	-200.000	-0.027	-0.353
-317.012	800.000	-0.129	0.436
-315.997	-17.357	-0.193	0.120
-314.983	322.243	-0.121	-0.227
-313.968	-82.600	-0.215	0.069
-312.953	114.466	0.271	0.327
-311.939	-62.209	0.156	0.064
-310.924	439.714	-0.092	0.198
-309.910	212.135	-0.120	0.187
-308.895	800.000	0.020	-0.055
-307.880	-142.537	-0.174	-0.017
-306.866	318.928	-0.163	-0.305
-305.851	292.880	-0.093	0.168
-304.837	72.513	-0.180	0.185
-303.822	-200.000	-0.006	-0.159
-302.807	-2.383	0.081	-0.056
-301.793	170.811	0.070	-0.099
-300.778	117.430	0.214	0.260
-299.764	71.825	-0.200	-0.206
-298.749	-21.900	0.088	0.053
-297.735	800.000	0.056	0.166
-296.720	-143.225	0.174	0.017
-295.705	-173.055	0.293	0.009
-294.691	345.428	0.148	-0.288
-293.676	83.579	-0.320	0.344
-292.662	38.649	0.139	0.122
-291.647	34.144	0.093	-0.080
-290.632	-37.088	-0.257	0.136
-289.618	-186.627	0.370	-0.005
-288.603	-63.851	-0.169	0.068
-287.589	-200.000	0.006	-0.351
-286.574	-200.000	0.026	0.346
-285.559	-63.960	0.143	0.058
-284.545	-31.613	-0.226	-0.125
-283.530	150.546	0.129	0.173
-282.516	-112.248	-0.244	0.048
-281.501	270.805	0.132	-0.229
-280.486	-104.973	0.446	0.101
-279.472	-106.187	-0.298	-0.066
-278.457	-72.170	0.303	-0.111
-277.443	486.095	0.108	-0.243
-276.428	-36.715	-0.059	0.031
-275.413	133.462	-0.185	-0.235
-274.399	-124.111	0.087	-0.013
-273.384	800.000	0.039	-0.115
-272.370	-200.000	0.052	0.332
-271.355	179.375	0.107	-0.154
-270.340	-200.000	0.014	-0.123
-269.326	56.334	-0.066	0.063
-268.311	120.832	-0.052	-0.064
-267.297	313.578	0.058	-0.107
-266.282	-72.220	0.112	-0.041
-265.267	12.869	-0.098	0.075
-264.253	-69.439	-0.195	0.074
-263.238	119.727	0.157	0.192
-262.224	563.460	0.022	0.052
-261.209	-63.383	0.415	-0.168
-260.195	-139.793	-0.219	-0.023
-259.180	-147.457	-0.178	0.015
-258.165	260.456	0.118	0.200
-257.151	-112.484	0.182	0.036
-256.136	-134.701	0.022	0.003
-255.122	127.162	-0.162	-0.202
-254.107	-12.715	0.209	0.134
-253.092	-10.780	0.105	-0.068
-252.078	-200.000	0.011	0.266
-251.063	82.448	-0.218	0.233
-250.049	-7.365	0.229	-0.153
-249.034	154.273	0.199	0.269
-248.019	-200.000	-0.029	0.332
-247.005	183.688	-0.171	-0.249
-245.990	-190.214	-0.304	-0.003
-244.976	-22.685	0.119	-0.071
-243.961	307.749	0.151	0.277
-242.946	-200.000	-0.026	-0.269
-241.932	-107.242	-0.192	-0.042
-240.917	642.224	-0.065	-0.163
-239.903	-144.763	-0.317	-0.029
-238.888	-50.420	-0.193	-0.090
-237.873	29.459	-0.137	0.114
-236.859	-34.874	0.135	0.073
-235.844	800.000	0.023	0.067
-234.830	441.041	-0.093	-0.200
-233.815	-122.567	-0.145	-0.023
-232.800	-62.477	0.088	-0.036
-231.786	612.074	-0.075	-0.185
-230.771	145.016	0.035	0.046
-229.757	-12.089	0.070	-0.045
-228.742	-200.000	0.005	-0.142
-227.727	393.028	-0.042	0.086
-226.713	527.415	-0.186	-0.431
-225.698	22.442	-0.191	-0.154
-224.684	99.146	0.078	-0.089
-223.669	-64.366	0.187	0.075
-222.655	240.993	-0.095	-0.156
-221.640	326.602	-0.037	-0.070
-220.625	-200.000	-0.020	0.149
-219.611	-116.670	-0.212	-0.038
-218.596	-133.663	-0.122	0.015
-217.582	66.390	-0.219	0.219
-216.567	50.804	-0.227	-0.212
-215.552	-43.839	0.098	0.048
-214.538	800.000	0.079	0.239
-213.523	127.791	-0.102	0.128
-212.509	-81.657	-0.265	0.086
-211.494	-164.412	0.371	-0.017
-210.479	150.992	0.187	-0.250
-209.465	-200.000	-0.005	-0.148
-208.450	-98.328	-0.145	0.037
-207.436	800.000	-0.072	0.215
-206.421	-200.000	0.021	-0.410
-205.406	-72.603	-0.216	0.078
-204.392	1.491	0.165	-0.117
-203.377	-162.296	0.365	0.018
-202.363	555.823	0.128	-0.303
-201.348	131.199	-0.158	-0.200
-200.333	-200.000	0.010	0.188
-199.319	-200.000	0.006	0.116
-198.304	-2.885	0.413	0.284
-197.290	30.424	-0.137	0.115
-196.275	-31.732	0.158	0.087
-195.260	-47.612	0.190	0.091
-194.246	-94.525	-0.240	-0.064
-193.231	-80.687	-0.225	-0.073
-192.217	141.538	-0.216	0.281
-191.202	179.166	0.212	-0.306
-190.187	-155.930	-0.405	-0.025
-189.173	268.250	0.131	0.226
-188.158	-200.000	0.059	0.270
-187.144	800.000	0.089	0.249
-186.129	48.049	-0.110	-0.101
-185.114	-200.000	0.013	0.385
-184.100	159.706	0.072	0.098
-183.085	-29.407	0.263	-0.148
-182.071	-86.180	0.174	0.053
-181.056	120.467	-0.044	-0.053
-180.042	-17.841	0.364	0.225
-179.027	-48.258	-0.134	-0.064
-178.012	-200.000	0.040	0.275
-176.998	63.436	0.186	0.183
-175.983	-108.767	-0.171	0.036
-174.969	197.868	-0.057	-0.086
-173.954	-17.726	0.403	0.249
-172.939	348.913	-0.121	-0.234
-171.925	170.971	0.081	0.115
-170.910	100.057	-0.176	0.201
-169.896	-39.616	0.216	-0.111
-168.881	231.176	-0.121	-0.195
-167.866	-43.938	-0.075	-0.037
-166.852	-200.000	-0.151	0.000
-165.837	-200.000	0.014	-0.194
-164.823	-77.541	-0.306	-0.104
-163.808	309.352	0.086	0.158
-162.793	-200.000	-0.009	0.162
-161.779	698.746	-0.035	-0.090
-160.764	33.819	0.185	-0.158
-159.750	800.000	0.055	-0.176
-158.735	-200.000	0.009	-0.245
-157.720	-88.381	0.185	0.054
-156.706	92.262	0.095	0.105
-155.691	175.296	0.086	-0.123
-154.677	-90.899	0.241	0.068
-153.662	-200.000	-0.031	0.153
-152.647	800.000	0.081	-0.298
-151.633	-94.336	-0.173	0.046
-150.618	-200.000	0.000	0.463
-149.604	-200.000	0.318	-0.001
-148.589	202.521	-0.179	-0.271
-147.574	800.000	0.065	-0.247
-146.560	218.050	0.157	-0.247
-145.545	329.989	0.087	0.165
-144.531	-37.445	0.444	0.233
-143.516	354.622	0.107	-0.210
-142.502	-10.595	0.157	-0.102
-141.487	65.382	-0.163	-0.162
-140.472	43.589	-0.101	0.091
-139.458	-163.709	0.469	-0.022
-138.443	-131.822	0.263	-0.034
-137.429	-176.492	-0.257	-0.007
-136.414	22.810	0.133	0.107
-135.399	-4.093	0.369	-0.251
-134.385	-83.262	-0.321	0.101
-133.370	-161.738	0.134	0.007
-132.356	145.770	-0.225	-0.295
-131.341	-200.000	0.026	-0.118
-130.326	99.482	0.131	-0.148
-129.312	37.477	-0.250	0.218
-128.297	-102.403	-0.108	0.025
-127.283	203.980	0.053	0.081
-126.268	800.000	-0.048	0.151
-125.253	-200.000	0.018	-0.180
-124.239	125.550	0.232	0.287
-123.224	-200.000	-0.014	-0.405
-122.210	176.699	-0.264	0.376
-121.195	364.307	0.159	0.313
-120.180	-76.121	0.075	0.026
-119.166	-24.058	-0.091	-0.054
-118.151	-200.000	-0.069	0.351
-117.137	-200.000	0.044	-0.212
-116.122	-127.907	0.072	-0.010
-115.107	281.023	0.089	-0.156
-114.093	-200.000	0.020	0.142
-113.078	16.741	0.281	0.218
-112.064	-200.000	0.077	-0.410
-111.049	-168.000	0.198	0.008
-110.034	349.378	0.111	0.214
-109.020	18.695	0.174	0.136
-108.005	63.592	0.319	0.313
-106.991	-200.000	0.004	0.268
-105.976	800.000	0.045	0.127
-104.962	-178.190	0.526	-0.012
-103.947	-133.979	-0.384	0.047
-102.932	-82.221	0.069	-0.022
-101.918	-11.287	-0.223	0.144
-100.903	800.000	0.095	-0.295
-99.889	563.410	-0.041	-0.098
-98.874	800.000	0.130	0.392
-97.859	-88.070	0.257	-0.076
-96.845	-181.543	-0.178	-0.003
-95.830	630.204	0.112	0.277
-94.816	-130.321	-0.201	0.027
-93.801	-200.000	-0.058	-0.318
-92.786	-200.000	-0.025	0.149
-91.772	-21.120	-0.241	-0.144
-90.757	-41.836	-0.161	-0.081
-89.743	-87.454	0.394	0.117
-88.728	-200.000	-0.004	-0.084
-87.713	75.524	-0.058	0.060
-86.699	-13.736	0.421	0.267
-85.684	17.190	-0.073	-0.057
-84.670	-143.855	0.257	0.024
-83.655	-108.879	0.207	-0.043
-82.640	64.898	0.065	0.065
-81.626	-9.813	-0.192	0.125
-80.611	-83.623	0.217	0.068
-79.597	-200.000	-0.191	-0.000
-78.582	53.555	-0.283	-0.265
-77.567	-35.039	-0.215	0.115
-76.553	-23.686	-0.121	-0.071
-75.538	714.032	0.029	-0.076
-74.524	800.000	0.070	-0.211
-73.509	15.186	-0.145	0.111
-72.494	166.775	0.044	-0.061
-71.480	19.758	0.314	-0.248
-70.465	-200.000	-0.027	0.219
-69.451	-35.385	0.179	0.095
-68.436	383.612	0.088	-0.177
-67.422	139.554	-0.317	-0.409
-66.407	-4.638	-0.141	0.095
-65.392	-140.613	0.222	0.022
-64.378	-126.020	0.274	0.040
-63.363	-28.068	0.156	0.088
-62.349	26.183	0.310	-0.253
-61.334	17.777	-1.233	-0.960
-60.319	-31.454	0.455	0.250
-59.305	279.685	-0.658	-1.150
-58.290	794.248	0.585	1.575
-57.276	355.005	0.687	1.336
-56.261	-200.000	114.475	646.805
-55.246	464.174	1513.671	3309.293
-54.232	146.900	2679.903	3524.025
-53.217	102.623	2178.476	2492.322
-52.203	37.797	1705.842	1481.866
-51.188	30.464	1523.364	1273.261
-50.173	28.215	1498.865	1237.550
-49.159	52.391	1556.063	1451.834
-48.144	50.725	1572.124	1455.303
-47.130	30.675	1528.529	1278.828
-46.115	27.646	1513.318	1245.400
-45.100	27.523	1509.665	1241.508
-44.086	27.463	1507.584	1239.339
-43.071	27.397	1505.787	1237.362
-42.057	27.385	1504.230	1235.955
-41.042	27.352	1502.883	1234.573
-40.027	27.325	1501.520	1233.223
-39.013	27.285	1500.265	1231.870
-37.998	27.233	1499.277	1230.656
-36.984	27.331	1497.431	1229.756
-35.969	27.374	1495.608	1228.505
-34.954	27.375	1494.208	1227.311
-33.940	27.364	1493.329	1226.463
-32.925	27.416	1491.476	1225.244
-31.911	27.318	1490.675	1223.879
-30.896	27.433	1488.990	1223.220
-29.881	27.449	1488.498	1222.876
-28.867	27.447	1486.624	1221.271
-27.852	27.387	1485.565	1219.951
-26.838	27.408	1483.968	1218.732
-25.823	27.421	1482.726	1217.753
-24.809	27.359	1480.918	1215.803
-23.794	27.400	1479.778	1215.093
-22.779	27.374	1478.607	1213.913
-21.765	27.386	1477.429	1212.975
-20.750	27.469	1476.164	1212.443
-19.736	27.401	1475.560	1211.445
-18.721	27.447	1474.264	1210.635
-17.706	27.270	1473.337	1208.648
-16.692	27.356	1471.589	1207.738
-15.677	27.395	1470.982	1207.453
-14.663	27.404	1470.040	1206.691
-13.648	27.343	1469.593	1205.871
-12.633	27.311	1468.113	1204.396
-11.619	27.340	1467.643	1204.159
-10.604	27.381	1466.739	1203.636
-9.590	27.410	1465.675	1202.910
-8.575	27.395	1464.489	1201.788
-7.560	27.431	1463.748	1201.369
-6.546	27.417	1462.931	1200.561
-5.531	27.462	1461.881	1199.945
-4.517	27.370	1460.634	1198.270
-3.502	27.355	1460.144	1197.721
-2.487	27.410	1459.235	1197.289
-1.473	27.278	1458.333	1195.638
-0.458	27.346	1456.772	1194.754
0.556	25.879	1447.423	1183.864
1.571	22.958	1422.227	1144.267
2.586	19.582	1363.039	1075.565
3.600	18.161	1280.890	1002.330
4.615	17.086	1235.759	960.843
5.629	16.469	1182.923	916.341
6.644	14.152	1107.236	845.866
7.659	11.899	1073.463	808.874
8.673	11.565	1068.730	803.589
9.688	11.547	1065.655	801.120
10.702	11.361	1064.211	799.053
11.717	11.448	1061.982	797.732
12.731	12.279	1060.906	800.912
13.746	14.798	1064.081	815.546
14.761	17.267	1066.825	829.645
15.775	17.849	1066.811	832.397
16.790	17.085	1065.184	827.333
17.804	16.016	1062.839	820.237
18.819	15.303	1060.751	815.087
19.834	14.569	1059.761	810.690
20.848	14.332	1058.080	808.183
21.863	14.049	1057.658	806.417
22.877	13.783	1056.930	804.501
23.892	13.712	1055.722	803.168
24.907	13.617	1054.921	802.026
25.921	13.518	1054.271	800.982
26.936	13.649	1053.362	800.853
27.950	13.595	1052.679	800.005
28.965	13.715	1051.409	799.544
29.980	13.729	1050.195	798.618
30.994	13.799	1049.411	798.287
32.009	13.922	1048.041	797.767
33.023	13.901	1047.809	797.420
34.038	13.938	1046.536	796.558
35.053	13.962	1045.299	795.658
36.067	13.785	1045.086	794.579
37.082	13.865	1043.554	793.728
38.096	13.784	1042.984	792.834
39.111	13.857	1042.482	792.734
40.126	13.912	1041.563	792.227
41.140	13.721	1040.516	790.448
42.155	13.665	1039.173	789.094
43.169	13.570	1038.402	787.985
44.184	13.645	1037.245	787.394
45.199	13.575	1036.121	786.141
46.213	13.622	1034.860	785.337
47.228	13.520	1034.644	784.618
48.242	13.614	1033.759	784.326
49.257	13.828	1032.258	784.128
50.271	13.634	1031.825	782.810
51.286	13.688	1030.441	781.949
52.301	13.843	1029.697	782.043
53.315	13.725	1028.849	780.778
54.330	13.713	1028.018	780.021
55.344	13.857	1026.891	779.770
56.359	13.552	1026.246	777.782
57.374	13.631	1025.331	777.388
58.388	13.647	1024.484	776.754
59.403	13.545	1023.564	775.512
60.417	13.555	1022.814	774.919
61.432	13.559	1022.451	774.595
62.447	13.566	1021.633	773.940
63.461	13.627	1020.221	773.088
64.476	13.535	1019.632	772.143
65.490	13.551	1018.606	771.372
66.505	13.427	1018.076	770.326
67.520	13.487	1017.248	769.909
68.534	13.624	1016.118	769.624
69.549	13.663	1015.408	769.197
70.563	13.608	1014.554	768.228
71.578	13.488	1014.374	767.467
72.593	13.493	1012.734	766.179
73.607	13.438	1012.224	765.474
74.622	13.438	1011.336	764.732
75.636	13.407	1011.079	764.330
76.651	13.375	1010.071	763.350
77.666	13.368	1009.348	762.706
78.680	13.434	1008.258	762.117
79.695	13.501	1007.745	761.972
80.709	13.596	1006.919	761.715
81.724	13.493	1005.992	760.475
82.739	13.532	1005.570	760.268
83.753	13.689	1004.426	760.054
84.768	13.742	1003.870	759.811
85.782	13.790	1003.220	759.469
86.797	13.837	1002.452	759.038
87.812	13.767	1001.615	758.017
88.826	13.748	1000.905	757.326
89.841	13.724	999.952	756.427
90.855	13.750	998.932	755.708
91.870	13.798	998.341	755.412
92.884	13.806	997.647	754.855
93.899	13.722	997.039	753.949
94.914	13.842	995.947	753.599
95.928	13.914	995.285	753.359
96.943	13.940	994.533	752.841
97.957	13.850	993.824	751.831
98.972	13.728	992.917	750.525
99.987	13.852	991.861	750.221
101.001	13.821	991.572	749.794
102.016	13.866	990.411	749.055
103.030	13.803	989.566	748.064
104.045	13.929	988.443	747.717
105.060	13.825	987.433	746.420
106.074	13.892	986.665	746.076
107.089	13.843	985.980	745.270
108.103	13.685	985.132	743.856
109.118	13.601	984.378	742.841
110.133	13.681	983.171	742.225
111.147	13.570	982.802	741.382
112.162	13.644	982.154	741.162
113.176	13.604	980.864	739.944
114.191	13.789	979.645	739.783
115.206	13.678	979.226	738.904
116.220	13.608	978.485	737.970
117.235	13.635	977.470	737.258
118.249	13.721	976.857	737.112
119.264	13.759	975.429	736.139
120.279	13.530	975.392	735.031
121.293	13.675	974.242	734.742
122.308	13.494	973.790	733.534
123.322	13.577	972.716	733.028
124.337	13.702	971.207	732.376
125.352	13.560	970.345	731.037
126.366	13.530	969.347	730.088
127.381	13.607	968.484	729.710
128.395	13.609	967.390	728.831
129.410	13.680	966.022	728.047
130.424	13.597	965.433	727.174
131.439	13.625	964.665	726.653
132.454	13.658	963.891	726.152
133.468	13.608	963.337	725.450
134.483	13.698	962.334	725.028
135.497	13.677	962.223	724.787
136.512	13.665	961.319	723.990
137.527	13.735	960.099	723.313
138.541	13.727	959.187	722.526
139.556	13.702	959.026	722.233
140.570	13.741	958.131	721.663
141.585	13.833	957.035	721.174
142.600	13.819	956.784	720.861
143.614	13.873	955.809	720.294
144.629	13.787	955.773	719.833
145.643	13.906	954.491	719.320
146.658	13.821	953.950	718.480
147.673	13.803	952.915	717.557
148.687	13.781	952.128	716.806
149.702	13.784	950.897	715.830
150.716	13.821	950.335	715.502
151.731	13.768	949.331	714.454
152.746	13.828	948.308	713.882
153.760	13.766	947.836	713.194
154.775	13.891	946.748	712.851
155.789	13.940	946.437	712.762
156.804	13.880	945.669	711.866
157.819	13.935	944.875	711.440
158.833	13.999	944.070	711.046
159.848	14.026	943.538	710.695
160.862	13.999	942.916	710.051
161.877	14.006	942.389	709.621
162.892	13.883	941.579	708.420
163.906	13.847	940.428	707.340
164.921	13.910	939.598	706.920
165.935	13.916	938.300	705.907
166.950	13.915	937.228	705.035
167.964	14.100	936.343	705.093
168.979	14.049	935.593	704.247
169.994	14.005	934.478	703.160
171.008	14.005	933.599	702.438
172.023	14.101	932.885	702.245
173.037	14.030	932.579	701.652
174.052	14.044	931.949	701.175
175.067	14.055	931.157	700.563
176.081	14.073	929.956	699.673
177.096	13.966	929.641	698.924
178.110	13.994	928.430	698.067
179.125	14.044	927.950	697.855
180.140	14.047	927.159	697.211
181.154	14.093	926.395	696.769
182.169	14.055	926.232	696.425
183.183	14.263	925.257	696.501
184.198	14.157	924.708	695.582
185.213	14.131	923.925	694.822
186.227	14.261	922.994	694.605
187.242	14.233	922.697	694.202
188.256	14.158	922.105	693.384
189.271	14.435	920.856	693.536
190.286	14.352	920.381	692.770
191.300	14.238	919.786	691.786
192.315	14.051	919.103	690.436
193.329	13.900	918.449	689.257
194.344	14.007	917.258	688.746
195.359	14.035	917.259	688.801
196.373	14.034	916.533	688.191
197.388	14.213	915.874	688.375
198.402	14.290	915.206	688.130
199.417	14.443	914.608	688.253
200.432	14.546	914.013	688.169
201.446	14.444	913.904	687.605
202.461	14.586	913.523	687.844
203.475	14.549	913.063	687.282
204.490	14.482	912.153	686.264
205.504	14.532	911.253	685.731
206.519	14.432	910.718	684.857
207.534	14.384	910.125	684.151
208.548	14.319	909.188	683.121
209.563	14.464	908.594	683.209
210.577	14.470	908.026	682.744
211.592	14.425	907.359	682.000
212.607	14.551	906.912	682.118
213.621	14.721	906.434	682.395
214.636	14.607	905.209	680.947
215.650	14.726	904.644	680.944
216.665	14.674	904.004	680.191
217.680	14.630	903.974	679.930
218.694	14.679	903.179	679.472
219.709	14.635	902.808	678.950
220.723	14.745	901.623	678.447
221.738	14.545	901.900	677.783
222.753	14.683	900.595	677.303
223.767	14.633	900.114	676.680
224.782	14.652	899.063	675.903
225.796	14.719	898.230	675.489
226.811	14.855	897.656	675.550
227.826	14.870	897.072	675.111
228.840	14.810	896.472	674.358
229.855	14.956	895.373	674.059
230.869	14.853	895.133	673.402
231.884	14.796	894.290	672.479
232.899	14.839	893.570	672.052
233.913	14.761	893.155	671.367
234.928	14.886	891.968	670.918
235.942	14.690	891.838	669.973
236.957	14.798	890.907	669.649
237.972	14.670	890.240	668.575
238.986	14.713	889.597	668.206
240.001	14.814	889.035	668.126
241.015	14.802	888.436	667.568
242.030	14.662	887.884	666.537
243.045	14.688	887.144	666.025
244.059	14.863	886.115	665.890
245.074	15.104	885.205	666.109
246.088	14.876	885.600	665.440
247.103	14.875	884.996	664.924
248.117	15.044	883.876	664.693
249.132	15.138	883.090	664.417
250.147	15.192	882.734	664.304
251.161	15.143	882.581	663.934
252.176	15.183	881.632	663.320
253.190	15.199	881.033	662.876
254.205	15.281	880.466	662.715
255.220	15.421	879.717	662.645
256.234	15.331	879.135	661.791
257.249	15.264	878.184	660.755
258.263	15.379	877.835	660.886
259.278	15.425	877.218	660.542
260.293	15.393	876.865	660.094
261.307	15.470	876.208	659.844
262.322	15.485	875.572	659.366
263.336	15.508	875.132	659.066
264.351	15.500	874.216	658.286
265.366	15.478	873.607	657.685
266.380	15.613	873.264	657.894
267.395	15.488	872.504	656.774
268.409	15.681	871.097	656.413
269.424	15.553	870.755	655.596
270.439	15.547	870.279	655.155
271.453	15.605	869.200	654.514
272.468	15.546	868.678	653.832
273.482	15.491	868.160	653.171
274.497	15.443	867.650	652.542
275.512	15.479	867.036	652.163
276.526	15.535	866.455	651.885
277.541	15.568	865.485	651.225
278.555	15.663	865.061	651.217
279.570	15.638	864.541	650.671
280.585	15.700	864.070	650.497
281.599	15.687	863.428	649.907
282.614	15.729	862.685	649.453
283.628	15.742	862.015	648.940
284.643	15.681	861.680	648.395
285.657	15.706	861.202	648.077
286.672	15.803	860.610	647.945
287.687	15.693	860.329	647.255
288.701	15.716	859.613	646.748
289.716	15.763	859.207	646.567
290.730	15.722	858.739	645.999
291.745	15.856	857.584	645.587
292.760	15.969	856.936	645.475
293.774	15.873	856.231	644.520
294.789	15.949	856.029	644.600
295.803	15.986	855.210	644.066
296.818	15.777	854.898	642.977
297.833	15.775	854.096	642.309
298.847	15.938	853.253	642.241
299.862	15.863	852.638	641.435
300.876	16.013	852.012	641.477
301.891	15.860	851.645	640.562
302.906	16.051	850.505	640.376
303.920	16.145	850.187	640.434
304.935	16.073	849.751	639.779
305.949	16.167	848.843	639.392
306.964	16.097	848.431	638.760
307.979	16.111	847.822	638.300
308.993	16.121	847.467	638.015
310.008	16.216	847.002	637.967
311.022	16.194	846.313	637.308
312.037	16.237	845.741	636.983
313.052	16.112	845.235	636.074
314.066	16.105	844.716	635.601
315.081	16.277	843.959	635.623
316.095	16.129	843.660	634.785
317.110	16.154	843.361	634.597
318.125	16.125	842.737	633.960
319.139	16.219	841.942	633.660
320.154	16.088	841.613	632.865
321.168	16.115	841.139	632.553
322.183	16.169	840.523	632.236
323.197	16.312	839.861	632.217
324.212	16.203	839.107	631.189
325.227	16.198	838.697	630.803
326.241	16.283	838.431	630.867
327.256	16.401	837.311	630.409
328.270	16.348	836.828	629.791
329.285	16.215	836.394	628.911
330.300	16.191	836.288	628.690
331.314	16.375	835.258	628.543
332.329	16.392	834.766	628.180
333.343	16.405	834.161	627.716
334.358	16.323	833.616	626.948
335.373	16.493	833.006	627.063
336.387	16.397	832.576	626.330
337.402	16.517	832.285	626.501
338.416	16.507	831.560	625.862
339.431	16.489	831.084	625.381
340.446	16.604	830.209	625.091
341.460	16.747	829.795	625.253
342.475	16.694	829.412	624.712
343.489	16.713	829.144	624.527
344.504	16.852	827.825	623.988
345.519	16.674	827.936	623.362
346.533	16.772	827.397	623.263
347.548	16.767	826.668	622.640
348.562	16.757	826.116	622.131
349.577	16.729	825.657	621.630
350.592	16.648	825.020	620.797
351.606	16.619	824.865	620.519
352.621	16.693	824.212	620.243
353.635	16.748	823.732	620.029
354.650	16.809	823.319	619.887
355.665	16.631	823.175	619.071
356.679	16.741	822.399	618.837
357.694	16.720	822.335	618.658
358.708	16.952	820.887	618.359
359.723	16.745	820.887	617.550
360.738	16.783	820.284	617.177
361.752	16.732	819.884	616.637
362.767	16.917	819.100	616.668
363.781	16.953	818.801	616.518
364.796	16.863	818.602	615.985
365.810	17.032	817.666	615.840
366.825	17.103	817.313	615.777
367.840	17.083	817.181	615.552
368.854	17.054	817.327	615.500
369.869	17.046	816.172	614.548
370.883	17.015	815.714	614.035
371.898	17.036	815.581	613.958
372.913	17.053	814.661	613.275
373.927	17.093	814.361	613.139
374.942	17.002	813.802	612.334
375.956	17.276	812.924	612.607
376.971	17.320	811.747	611.822
377.986	17.239	811.908	611.597
379.000	17.375	811.191	611.494
380.015	17.306	810.954	611.013
381.029	17.335	810.515	610.733
382.044	17.255	809.766	609.828
383.059	17.102	809.215	608.810
384.073	17.422	808.677	609.496
385.088	17.393	808.111	608.912
386.102	17.263	807.223	607.725
387.117	17.305	807.080	607.715
388.132	17.180	806.834	607.030
389.146	17.349	806.067	607.001
390.161	17.420	805.611	606.859
391.175	17.274	805.381	606.110
392.190	17.284	805.331	606.055
393.205	17.346	804.626	605.689
394.219	17.444	803.823	605.381
395.234	17.391	803.807	605.128
396.248	17.303	803.144	604.261
397.263	17.193	802.488	603.324
398.278	17.389	802.155	603.716
399.292	17.182	802.035	602.839
400.307	17.424	801.263	603.061
401.321	17.273	801.241	602.455
402.336	17.221	800.508	601.667
403.350	17.342	800.004	601.664
404.365	17.421	799.875	601.795
405.380	17.437	799.233	601.313
406.394	17.597	798.501	601.273
407.409	17.543	798.199	600.802
408.423	17.580	797.671	600.483
409.438	17.697	797.137	600.439
410.453	17.684	796.729	600.033
411.467	17.689	796.466	599.802
412.482	17.796	796.078	599.833
413.496	17.674	795.795	599.137
414.511	17.740	795.056	598.759
415.526	17.852	794.701	598.830
416.540	17.702	794.827	598.346
417.555	17.793	794.104	598.068
418.569	17.893	793.412	597.844
419.584	17.949	793.014	597.687
420.599	18.015	792.379	597.389
421.613	111.703	1293.320	1476.290
422.628	96.031	1366.293	1476.383
