DTS Sentinel unit serial number:	SN413079Multiplexer serial number:	ORYXHardware model number:	OX4-SRSoftware version number:	ORYX F/W v4.00 Oryx Data Collector v3.7.2.0data status	okinstallation	princeton_trtdifferential loss correction	single-endedforward channel	channel 3reverse channel	N/Adate	2019/09/16time	02:44:35forward acquisition time	60.00reverse acquisition time	0.00gamma	496.2192k internal	0.2334k external	0.2334temperature offset calibration	0.9950default loss term (dB/km)	0.3790temperature slope calibration	1.0000multiplexer offset coefficient	1.0000multiplexer slope coefficient	1.0000fibre end	0.00T internal ref (°C)	27.75T ext. ref 1 (°C)	10.33T ext. ref 2 (°C)	22.36length (m)	temperature (°C)	Stokes	anti-Stokes-747.200	-51.382	-0.057	-0.027
-746.185	337.491	-0.136	0.265
-745.171	-23.973	0.307	-0.185
-744.156	-11.462	-0.246	0.163
-743.142	73.286	0.287	-0.302
-742.127	-147.616	0.587	0.050
-741.112	94.165	-0.355	-0.404
-740.098	-200.000	-0.007	0.421
-739.083	-9.079	-0.288	0.193
-738.069	-112.074	0.060	-0.012
-737.054	70.556	-0.075	-0.077
-736.039	125.071	-0.142	-0.179
-735.025	-154.522	-0.156	-0.010
-734.010	-124.842	0.082	-0.013
-732.996	-173.494	-0.345	-0.010
-731.981	-149.287	-0.297	-0.024
-730.966	350.479	-0.084	0.168
-729.952	-200.000	0.067	-0.463
-728.937	-200.000	0.013	-0.206
-727.923	-147.570	-0.181	-0.015
-726.908	-101.964	-0.231	-0.056
-725.894	800.000	0.074	0.222
-724.879	106.397	0.106	0.126
-723.864	-96.521	0.165	-0.044
-722.850	254.587	-0.081	-0.139
-721.835	-159.309	-0.188	-0.011
-720.821	480.841	0.073	0.165
-719.806	-17.279	0.227	0.143
-718.791	800.000	0.031	0.107
-717.777	186.638	0.221	0.330
-716.762	15.069	-0.111	-0.087
-715.748	48.621	-0.230	-0.216
-714.733	-200.000	-0.006	-0.110
-713.718	-57.684	-0.346	-0.152
-712.704	125.714	0.208	-0.264
-711.689	-31.425	0.288	-0.162
-710.675	-95.176	-0.259	-0.070
-709.660	-83.502	-0.278	0.089
-708.645	-136.991	0.436	0.050
-707.631	-114.933	0.260	0.050
-706.616	-80.182	0.276	-0.093
-705.602	-200.000	-0.039	0.301
-704.587	186.701	-0.272	-0.407
-703.572	-124.385	-0.105	-0.016
-702.558	-12.428	0.302	0.198
-701.543	104.013	-0.143	0.168
-700.529	-20.491	0.022	0.013
-699.514	-62.978	0.218	-0.090
-698.499	-3.082	-0.452	0.317
-697.485	-200.000	0.065	-0.323
-696.470	-200.000	0.016	-0.211
-695.456	-20.551	-0.190	-0.117
-694.441	542.320	-0.101	-0.242
-693.426	-188.426	-0.232	0.003
-692.412	-164.103	-0.436	0.020
-691.397	-200.000	0.034	-0.173
-690.383	38.402	0.101	0.091
-689.368	-94.222	-0.608	0.167
-688.354	-20.800	-0.097	-0.060
-687.339	714.187	-0.098	0.259
-686.324	408.122	0.056	-0.120
-685.310	-200.000	0.056	-0.255
-684.295	-44.790	-0.058	-0.029
-683.281	800.000	-0.116	-0.393
-682.266	-93.851	-0.341	-0.094
-681.251	36.595	0.188	0.166
-680.237	-146.590	0.313	0.027
-679.222	-89.302	0.210	0.062
-678.208	-20.289	-0.107	0.066
-677.193	-107.793	0.171	0.037
-676.178	-200.000	-0.016	0.324
-675.164	800.000	-0.024	-0.092
-674.149	800.000	-0.079	-0.320
-673.135	-146.472	-0.142	0.012
-672.120	127.569	-0.129	0.165
-671.105	-125.552	0.436	0.066
-670.091	63.384	0.188	0.189
-669.076	-118.728	-0.413	-0.073
-668.062	-52.796	-0.295	0.136
-667.047	-84.212	0.245	0.078
-666.032	800.000	0.075	-0.221
-665.018	-132.743	-0.146	-0.019
-664.003	-105.544	0.345	0.078
-662.989	195.479	-0.085	0.129
-661.974	387.399	0.092	0.191
-660.959	182.653	0.050	0.073
-659.945	622.186	0.071	-0.178
-658.930	-200.000	-0.026	0.263
-657.916	-39.152	0.248	-0.131
-656.901	-76.567	-0.138	-0.049
-655.886	357.768	-0.111	-0.222
-654.872	190.465	0.081	0.121
-653.857	-77.743	-0.220	-0.076
-652.843	25.393	-0.167	-0.139
-651.828	-24.871	0.356	-0.211
-650.814	-146.400	0.070	-0.006
-649.799	-57.586	0.321	-0.141
-648.784	-107.140	-0.421	-0.093
-647.770	-109.722	-0.179	0.038
-646.755	-58.033	-0.347	-0.151
-645.741	39.664	-0.175	-0.157
-644.726	103.504	-0.176	-0.207
-643.711	352.335	-0.166	0.329
-642.697	36.734	0.190	-0.168
-641.682	-100.865	-0.408	0.100
-640.668	-113.632	0.298	0.058
-639.653	109.759	0.166	0.199
-638.638	-200.000	0.038	0.174
-637.624	-75.543	-0.287	-0.102
-636.609	197.842	0.098	-0.150
-635.595	21.155	-0.080	-0.065
-634.580	95.223	-0.159	0.181
-633.565	195.732	0.062	-0.094
-632.551	-82.587	0.077	0.025
-631.536	-79.018	-0.125	-0.043
-630.522	328.766	-0.098	-0.189
-629.507	-80.742	0.120	-0.040
-628.492	176.821	0.071	0.103
-627.478	-106.272	-0.131	0.029
-626.463	438.754	0.168	0.367
-625.449	-47.110	-0.504	-0.246
-624.434	800.000	0.051	-0.182
-623.419	796.572	-0.132	-0.365
-622.405	251.524	0.065	0.111
-621.390	-83.023	0.322	-0.104
-620.376	-28.797	0.027	-0.016
-619.361	-49.171	-0.240	-0.115
-618.346	81.726	-0.197	-0.213
-617.332	800.000	0.037	0.124
-616.317	-122.137	0.350	-0.057
-615.303	4.568	0.130	0.095
-614.288	-100.333	0.151	-0.038
-613.273	50.845	-0.152	0.144
-612.259	380.130	-0.125	0.257
-611.244	180.982	0.136	-0.199
-610.230	199.320	-0.183	-0.280
-609.215	-101.878	-0.184	0.045
-608.201	-200.000	-0.036	-0.178
-607.186	65.832	-0.153	-0.155
-606.171	-169.760	-0.269	-0.010
-605.157	-78.909	-0.148	0.050
-604.142	538.063	0.090	-0.215
-603.128	-200.000	0.015	-0.162
-602.113	726.027	0.027	-0.073
-601.098	559.384	0.023	-0.056
-600.084	-200.000	-0.040	0.312
-599.069	45.236	0.177	-0.163
-598.055	-200.000	-0.017	0.364
-597.040	-200.000	-0.011	0.211
-596.025	-200.000	0.004	0.035
-595.011	22.600	-0.138	-0.113
-593.996	-4.040	0.319	-0.221
-592.982	258.596	0.164	0.282
-591.967	45.127	-0.265	-0.244
-590.952	332.507	-0.067	-0.130
-589.938	-47.283	-0.200	0.097
-588.923	-40.575	-0.155	-0.080
-587.909	-1.061	0.264	-0.187
-586.894	-16.378	0.247	-0.157
-585.879	-51.815	0.160	-0.074
-584.865	-21.407	-0.095	-0.058
-583.850	-101.042	-0.135	-0.033
-582.836	35.012	0.101	0.088
-581.821	-200.000	-0.003	0.092
-580.806	-82.452	0.186	-0.060
-579.792	-126.945	-0.269	-0.039
-578.777	-62.904	-0.118	-0.049
-577.763	-200.000	-0.032	0.165
-576.748	-59.828	-0.528	0.225
-575.733	200.023	0.215	-0.330
-574.719	310.267	-0.067	-0.125
-573.704	-200.000	-0.057	-0.255
-572.690	-162.343	-0.023	0.001
-571.675	276.728	-0.080	-0.143
-570.661	190.142	0.049	-0.074
-569.646	253.098	0.255	-0.434
-568.631	207.217	0.234	-0.365
-567.617	-147.101	-0.166	-0.014
-566.602	-183.464	0.082	0.001
-565.588	-200.000	-0.058	-0.268
-564.573	-22.208	0.198	-0.120
-563.558	657.569	0.101	0.258
-562.544	21.329	-0.107	0.087
-561.529	334.904	-0.083	-0.161
-560.515	107.343	0.151	0.180
-559.500	313.305	-0.001	-0.001
-558.485	68.609	0.154	0.158
-557.471	-87.178	-0.197	-0.060
-556.456	-200.000	-0.002	-0.199
-555.442	-37.714	-0.122	0.065
-554.427	174.735	0.018	0.026
-553.412	117.888	0.146	0.179
-552.398	-43.431	0.272	-0.137
-551.383	-16.947	0.210	-0.132
-550.369	-10.715	-0.259	0.171
-549.354	408.151	0.116	0.244
-548.339	-76.344	-0.203	0.071
-547.325	800.000	-0.046	0.157
-546.310	-200.000	-0.101	-0.448
-545.296	800.000	-0.088	-0.270
-544.281	-77.078	0.156	0.054
-543.266	435.061	-0.089	-0.192
-542.252	412.532	0.190	0.403
-541.237	692.847	-0.043	-0.113
-540.223	-200.000	0.030	-0.142
-539.208	237.250	0.067	0.110
-538.193	184.762	-0.152	0.224
-537.179	37.816	-0.164	-0.145
-536.164	-200.000	-0.008	-0.037
-535.150	187.647	-0.068	-0.101
-534.135	-59.884	0.242	-0.103
-533.121	-39.417	-0.133	0.069
-532.106	-107.682	0.099	0.021
-531.091	340.493	0.137	0.266
-530.077	-200.000	0.030	-0.220
-529.062	-200.000	-0.035	-0.154
-528.048	-118.356	-0.064	0.011
-527.033	-112.912	0.240	-0.047
-526.018	-35.809	-0.298	-0.161
-525.004	-70.068	-0.333	0.126
-523.989	-170.698	0.450	-0.015
-522.975	-53.430	0.250	-0.114
-521.960	-61.883	-0.250	-0.104
-520.945	800.000	-0.077	0.245
-519.931	114.413	-0.105	-0.127
-518.916	380.704	0.015	0.031
-517.902	-79.408	0.182	0.061
-516.887	800.000	0.097	-0.397
-515.872	-200.000	-0.022	-0.206
-514.858	800.000	-0.025	-0.091
-513.843	300.705	-0.023	-0.042
-512.829	-82.089	0.251	-0.082
-511.814	-118.642	0.344	0.060
-510.799	-200.000	-0.047	0.221
-509.785	-94.252	0.165	-0.045
-508.770	800.000	-0.028	0.116
-507.756	-82.940	0.361	0.116
-506.741	-115.035	0.133	-0.025
-505.726	-89.851	-0.250	0.073
-504.712	-133.312	-0.210	-0.026
-503.697	-200.000	-0.027	0.185
-502.683	800.000	0.066	-0.208
-501.668	175.566	-0.007	0.010
-500.653	-200.000	-0.028	0.136
-499.639	450.040	0.073	-0.161
-498.624	-200.000	0.002	0.061
-497.610	197.206	-0.068	0.103
-496.595	145.650	0.351	-0.469
-495.581	305.804	0.136	-0.252
-494.566	211.118	-0.203	-0.317
-493.551	113.942	-0.152	-0.184
-492.537	-200.000	-0.071	0.000
-491.522	185.156	-0.127	0.188
-490.508	-59.415	-0.126	0.054
-489.493	8.706	0.237	-0.178
-488.478	-107.578	-0.175	-0.038
-487.464	-110.410	-0.184	0.038
-486.449	-200.000	0.003	-0.033
-485.435	-54.213	-0.285	0.129
-484.420	-200.000	0.005	0.114
-483.405	178.281	-0.195	-0.284
-482.391	29.425	0.072	-0.061
-481.376	310.505	0.138	0.257
-480.362	-200.000	0.002	0.290
-479.347	-96.433	-0.203	0.053
-478.332	58.318	-0.013	0.013
-477.318	-154.754	0.147	-0.010
-476.303	-121.817	0.129	-0.021
-475.289	-200.000	0.030	-0.369
-474.274	21.955	-0.205	0.166
-473.259	268.761	0.067	-0.117
-472.245	186.829	-0.176	0.261
-471.230	-41.880	0.226	-0.115
-470.216	578.794	0.151	0.368
-469.201	17.340	-0.064	-0.050
-468.186	-38.189	-0.038	-0.020
-467.172	-158.745	0.061	-0.003
-466.157	64.676	-0.157	0.157
-465.143	-28.052	-0.148	0.085
-464.128	265.840	0.168	0.292
-463.113	-35.146	-0.151	0.082
-462.099	-3.422	0.261	0.180
-461.084	-200.000	-0.031	0.370
-460.070	-90.480	0.136	-0.039
-459.055	42.835	-0.204	0.185
-458.040	38.189	-0.291	0.257
-457.026	800.000	-0.040	0.114
-456.011	146.027	0.034	0.045
-454.997	-200.000	-0.005	0.216
-453.982	-200.000	-0.036	-0.160
-452.968	-99.627	-0.149	0.037
-451.953	79.668	0.070	0.075
-450.938	1.964	-0.067	0.048
-449.924	-47.647	-0.209	0.101
-448.909	-200.000	-0.014	0.064
-447.895	58.337	0.194	-0.189
-446.880	-85.817	0.178	0.055
-445.865	-200.000	-0.008	-0.095
-444.851	-200.000	-0.030	0.192
-443.836	123.838	0.052	-0.065
-442.822	348.081	-0.071	-0.138
-441.807	-200.000	0.011	-0.103
-440.792	123.980	-0.171	0.214
-439.778	-93.456	-0.184	0.051
-438.763	568.243	-0.178	-0.429
-437.749	176.066	0.286	0.412
-436.734	51.986	0.185	-0.175
-435.719	61.176	0.148	-0.146
-434.705	-200.000	0.006	-0.037
-433.690	-200.000	0.039	-0.267
-432.676	-196.497	0.256	0.002
-431.661	-144.131	0.155	-0.014
-430.646	800.000	0.064	0.198
-429.632	-38.161	-0.330	-0.174
-428.617	800.000	0.119	0.406
-427.603	751.515	0.034	-0.092
-426.588	-84.023	0.445	-0.140
-425.573	84.720	-0.266	0.289
-424.559	608.961	0.147	0.364
-423.544	296.380	-0.151	0.275
-422.530	-200.000	-0.047	0.395
-421.515	453.893	-0.215	0.472
-420.500	-200.000	-0.020	0.144
-419.486	247.801	0.110	0.185
-418.471	348.916	-0.127	-0.250
-417.457	-173.768	0.179	0.005
-416.442	356.709	0.099	-0.195
-415.428	48.979	-0.122	0.113
-414.413	-32.394	-0.105	0.058
-413.398	440.120	0.242	0.526
-412.384	-49.429	-0.162	-0.077
-411.369	-176.086	0.098	-0.003
-410.355	-143.041	0.149	0.014
-409.340	-17.357	0.097	-0.060
-408.325	-200.000	0.040	-0.425
-407.311	284.131	0.107	0.192
-406.296	282.760	0.202	-0.360
-405.282	-132.282	0.070	0.009
-404.267	55.460	0.236	-0.226
-403.252	-71.500	0.150	-0.056
-402.238	800.000	-0.079	-0.274
-401.223	-200.000	-0.040	0.243
-400.209	778.573	0.092	0.250
-399.194	-175.385	-0.406	-0.011
-398.179	105.829	-0.183	-0.215
-397.165	50.242	0.244	0.228
-396.150	598.680	-0.157	-0.387
-395.136	175.731	-0.059	-0.084
-394.121	93.938	-0.076	0.086
-393.106	800.000	0.052	0.164
-392.092	46.255	0.185	-0.170
-391.077	42.083	-0.159	-0.143
-390.063	-87.780	0.254	-0.076
-389.048	-79.853	0.091	0.030
-388.033	366.297	0.114	-0.229
-387.019	-121.581	-0.171	0.028
-386.004	50.753	0.136	0.128
-384.990	272.369	-0.070	-0.123
-383.975	59.503	-0.137	-0.134
-382.960	67.029	0.117	0.118
-381.946	-39.936	-0.313	-0.162
-380.931	180.435	0.113	-0.165
-379.917	122.456	0.265	0.328
-378.902	49.147	0.046	0.043
-377.888	161.920	0.106	-0.147
-376.873	-112.109	-0.359	-0.072
-375.858	-200.000	-0.019	-0.307
-374.844	5.516	0.123	0.090
-373.829	29.537	-0.127	-0.107
-372.815	449.321	0.114	-0.249
-371.800	708.304	0.054	0.140
-370.785	-34.779	0.427	-0.231
-369.771	-200.000	-0.030	0.171
-368.756	-103.390	-0.096	0.022
-367.742	-26.200	-0.419	0.244
-366.727	-37.555	0.308	0.162
-365.712	-73.131	0.275	-0.100
-364.698	276.340	0.150	-0.263
-363.683	-156.983	-0.273	-0.017
-362.669	-64.369	-0.187	0.075
-361.654	-200.000	-0.002	0.423
-360.639	-43.911	0.423	0.211
-359.625	-17.980	-0.256	0.159
-358.610	-81.982	-0.277	0.090
-357.596	221.262	0.079	0.125
-356.581	62.029	0.133	-0.131
-355.566	-106.532	0.196	0.043
-354.552	182.658	-0.139	-0.204
-353.537	-153.244	-0.247	-0.017
-352.523	-200.000	0.023	0.119
-351.508	497.709	0.036	-0.083
-350.493	-3.635	-0.418	-0.287
-349.479	-121.101	-0.068	0.011
-348.464	-200.000	-0.011	-0.101
-347.450	-146.491	-0.340	0.029
-346.435	-106.566	-0.307	0.068
-345.420	-95.005	0.276	0.074
-344.406	11.644	-0.147	0.112
-343.391	-34.672	0.334	-0.181
-342.377	-200.000	0.016	0.135
-341.362	800.000	0.056	0.174
-340.348	-21.288	-0.204	0.123
-339.333	-82.529	0.189	0.061
-338.318	-191.186	-0.549	0.006
-337.304	800.000	-0.097	0.354
-336.289	-109.967	-0.427	0.088
-335.275	18.475	0.273	0.216
-334.260	23.181	-0.219	-0.178
-333.245	800.000	0.046	0.172
-332.231	800.000	0.143	0.483
-331.216	800.000	-0.125	-0.383
-330.202	-64.341	0.064	0.026
-329.187	-200.000	-0.023	0.203
-328.172	-72.626	0.206	0.075
-327.158	-104.749	-0.275	-0.063
-326.143	-184.523	-0.077	-0.001
-325.129	3.050	0.099	-0.071
-324.114	-113.483	0.425	-0.082
-323.099	-200.000	-0.003	0.068
-322.085	-100.248	-0.292	-0.072
-321.070	106.629	0.061	0.072
-320.056	116.872	0.114	-0.138
-319.041	800.000	-0.024	-0.100
-318.026	-200.000	0.005	-0.288
-317.012	800.000	0.089	-0.374
-315.997	-115.895	-0.216	-0.040
-314.983	-86.230	0.265	0.081
-313.968	66.051	-0.079	-0.079
-312.953	285.745	0.094	0.167
-311.939	-120.810	-0.120	-0.020
-310.924	60.222	-0.066	0.065
-309.910	64.424	-0.247	-0.246
-308.895	252.814	0.120	-0.202
-307.880	-77.369	0.333	0.114
-306.866	-41.755	-0.131	0.067
-305.851	800.000	0.061	-0.185
-304.837	-87.913	0.462	0.137
-303.822	-90.791	-0.271	-0.077
-302.807	-200.000	-0.027	-0.214
-301.793	143.486	0.092	-0.121
-300.778	51.567	-0.204	0.192
-299.764	800.000	0.049	-0.156
-298.749	-120.100	-0.251	0.042
-297.735	-200.000	0.046	-0.360
-296.720	-29.145	-0.179	-0.101
-295.705	-45.935	-0.252	0.123
-294.691	-200.000	0.030	0.207
-293.676	-80.459	0.141	-0.046
-292.662	-200.000	0.018	0.139
-291.647	-116.452	-0.373	-0.068
-290.632	196.551	0.220	-0.330
-289.618	194.103	-0.088	-0.131
-288.603	444.134	-0.083	-0.180
-287.589	-118.467	-0.151	0.026
-286.574	-200.000	-0.014	-0.066
-285.559	3.730	-0.060	-0.043
-284.545	525.170	0.114	0.265
-283.530	-83.877	0.023	0.007
-282.516	-25.424	-0.175	0.102
-281.501	-200.000	0.032	-0.318
-280.486	-52.763	0.190	0.086
-279.472	-74.279	-0.373	-0.133
-278.457	331.546	-0.124	-0.236
-277.443	114.227	0.086	-0.104
-276.428	-34.121	-0.258	0.140
-275.413	800.000	0.051	-0.181
-274.399	-100.505	0.125	0.030
-273.384	-5.225	0.144	0.097
-272.370	-200.000	-0.001	0.174
-271.355	-60.107	-0.055	0.023
-270.340	217.829	0.060	0.095
-269.326	186.009	0.017	-0.025
-268.311	-146.979	0.137	-0.012
-267.297	-68.976	0.052	-0.020
-266.282	266.118	-0.115	0.198
-265.267	-111.250	0.099	-0.020
-264.253	-200.000	0.026	-0.147
-263.238	-194.019	0.314	-0.003
-262.224	-200.000	0.051	0.226
-261.209	96.643	-0.109	-0.124
-260.195	167.482	0.163	-0.228
-259.180	-141.985	-0.226	0.022
-258.165	800.000	-0.060	-0.206
-257.151	133.307	-0.049	0.063
-256.136	-166.949	-0.207	-0.008
-255.122	-200.000	0.015	-0.157
-254.107	32.283	0.193	-0.164
-253.092	-200.000	0.088	0.490
-252.078	83.983	0.268	0.289
-251.063	81.978	-0.106	-0.113
-250.049	-1.542	0.088	0.061
-249.034	-200.000	0.044	-0.210
-248.019	251.648	-0.087	-0.147
-247.005	-200.000	-0.052	-0.356
-245.990	-109.138	-0.208	-0.044
-244.976	-105.890	0.444	0.099
-243.961	-136.439	-0.318	-0.036
-242.946	-200.000	-0.010	0.254
-241.932	-200.000	-0.024	0.354
-240.917	-120.292	0.092	0.015
-239.903	685.647	0.131	-0.338
-238.888	-200.000	-0.013	-0.190
-237.873	221.894	-0.046	0.072
-236.859	-35.720	0.088	0.047
-235.844	-17.901	-0.191	0.118
-234.830	65.557	-0.356	0.355
-233.815	-9.840	-0.084	0.055
-232.800	-152.133	-0.055	-0.004
-231.786	-4.008	0.135	0.092
-230.771	-139.321	-0.354	0.037
-229.757	-64.843	-0.114	0.046
-228.742	68.105	-0.044	-0.044
-227.727	-200.000	-0.004	-0.291
-226.713	380.913	0.208	-0.420
-225.698	89.018	-0.193	-0.212
-224.684	503.594	0.063	-0.144
-223.669	-183.881	0.280	-0.005
-222.655	-200.000	-0.011	0.134
-221.640	-62.701	-0.096	-0.039
-220.625	-200.000	0.023	0.182
-219.611	-200.000	-0.004	-0.215
-218.596	-115.036	0.351	0.066
-217.582	800.000	-0.162	0.509
-216.567	800.000	0.050	0.150
-215.552	611.217	0.160	0.394
-214.538	-129.713	0.229	0.031
-213.523	21.729	0.130	0.104
-212.509	-10.939	0.326	-0.212
-211.494	386.842	-0.098	0.200
-210.479	788.412	-0.054	-0.146
-209.465	-41.325	-0.088	0.045
-208.450	-102.062	-0.100	-0.024
-207.436	-200.000	-0.016	0.113
-206.421	-200.000	-0.067	0.472
-205.406	800.000	-0.088	0.243
-204.392	384.636	-0.046	-0.093
-203.377	-200.000	-0.014	0.148
-202.363	-42.975	0.049	-0.024
-201.348	286.429	0.185	0.328
-200.333	-75.898	0.138	0.048
-199.319	-200.000	0.034	-0.207
-198.304	32.672	-0.044	-0.038
-197.290	93.327	0.053	0.059
-196.275	-52.307	0.337	0.154
-195.260	-200.000	0.027	0.533
-194.246	170.118	-0.082	0.116
-193.231	-200.000	-0.032	-0.198
-192.217	-89.033	0.106	0.031
-191.202	-200.000	0.047	-0.260
-190.187	333.985	0.137	0.260
-189.173	800.000	0.064	-0.244
-188.158	-114.495	0.346	0.065
-187.144	800.000	-0.053	0.158
-186.129	-127.431	0.264	-0.038
-185.114	228.814	0.152	-0.244
-184.100	94.770	-0.226	-0.253
-183.085	470.433	-0.035	-0.076
-182.071	-92.744	0.135	-0.037
-181.056	122.416	0.216	-0.266
-180.042	2.123	-0.108	-0.077
-179.027	41.801	-0.271	-0.242
-178.012	392.088	-0.152	0.311
-176.998	4.103	0.101	-0.073
-175.983	34.965	0.294	0.253
-174.969	36.360	0.180	0.156
-173.954	-200.000	-0.085	0.458
-172.939	-7.503	-0.112	0.075
-171.925	-15.514	0.360	-0.226
-170.910	198.712	0.139	-0.209
-169.896	-200.000	-0.016	0.163
-168.881	104.174	0.123	0.142
-167.866	-95.296	0.066	0.017
-166.852	-69.632	0.195	-0.073
-165.837	715.507	0.035	-0.091
-164.823	-200.000	-0.035	0.265
-163.808	-74.683	-0.157	0.055
-162.793	731.098	-0.061	-0.159
-161.779	-9.760	-0.273	-0.178
-160.764	-9.784	-0.167	0.109
-159.750	-71.207	0.218	0.080
-158.735	-157.180	0.232	-0.014
-157.720	-111.952	0.152	0.030
-156.706	372.379	-0.118	0.235
-155.691	-147.620	0.132	0.011
-154.677	178.766	-0.217	0.312
-153.662	-39.441	0.117	0.060
-152.647	555.592	-0.026	-0.061
-151.633	-200.000	-0.072	0.414
-150.618	-58.870	-0.198	0.084
-149.604	-200.000	-0.022	0.134
-148.589	-161.458	0.274	0.014
-147.574	-200.000	0.001	0.178
-146.560	-200.000	-0.036	0.297
-145.545	-12.035	-0.151	0.097
-144.531	-56.107	0.192	-0.084
-143.516	448.033	0.089	-0.193
-142.502	-124.999	-0.068	-0.010
-141.487	288.032	-0.070	0.124
-140.472	-123.833	0.080	-0.012
-139.458	800.000	0.062	0.248
-138.443	-92.204	-0.306	-0.085
-137.429	-4.932	-0.037	-0.025
-136.414	383.198	-0.150	0.302
-135.399	28.895	-0.279	-0.232
-134.385	-133.855	0.379	0.046
-133.370	-94.381	0.241	-0.065
-132.356	-82.937	-0.038	0.012
-131.341	246.803	0.046	0.076
-130.326	490.229	0.049	-0.109
-129.312	-200.000	-0.050	0.363
-128.297	-200.000	0.070	0.538
-127.283	268.548	0.141	0.243
-126.268	-45.259	0.139	0.068
-125.253	-123.500	-0.100	-0.016
-124.239	93.387	0.061	0.068
-123.224	-176.438	-0.323	-0.008
-122.210	156.051	0.148	-0.200
-121.195	139.036	0.135	-0.175
-120.180	63.717	0.145	0.143
-119.166	18.719	0.114	-0.089
-118.151	673.763	0.077	0.196
-117.137	-136.237	-0.147	-0.017
-116.122	43.498	0.156	-0.140
-115.107	-138.675	-0.147	-0.016
-114.093	-109.786	-0.125	-0.026
-113.078	-161.687	-0.192	0.010
-112.064	247.480	-0.085	0.141
-111.049	800.000	-0.032	-0.104
-110.034	-120.916	-0.266	-0.044
-109.020	-131.415	-0.282	-0.037
-108.005	437.202	-0.148	0.317
-106.991	4.447	0.305	-0.219
-105.976	230.454	-0.134	0.215
-104.962	507.721	-0.092	0.210
-103.947	68.048	0.157	-0.157
-102.932	271.090	-0.120	-0.206
-101.918	-200.000	0.001	-0.018
-100.903	800.000	0.100	-0.342
-99.889	533.560	-0.160	0.371
-98.874	-200.000	0.001	-0.155
-97.859	203.875	-0.146	0.222
-96.845	50.116	-0.127	0.117
-95.830	-173.051	-0.356	-0.011
-94.816	-74.782	0.320	0.113
-93.801	-84.201	-0.361	0.112
-92.786	146.046	0.027	-0.035
-91.772	-200.000	0.002	0.115
-90.757	344.844	0.061	-0.118
-89.743	-36.200	0.118	-0.062
-88.728	332.902	0.088	-0.167
-87.713	239.416	0.130	-0.211
-86.699	308.565	0.220	0.403
-85.684	149.452	-0.143	0.189
-84.670	-16.043	-0.146	0.091
-83.655	-49.367	0.058	-0.027
-82.640	-200.000	-0.042	-0.236
-81.626	59.713	0.100	-0.097
-80.611	-5.541	0.164	0.110
-79.597	-62.875	0.251	-0.101
-78.582	273.328	0.010	-0.018
-77.567	82.069	0.439	-0.466
-76.553	-200.000	-0.020	-0.189
-75.538	-92.872	-0.304	-0.083
-74.524	-200.000	-0.003	-0.164
-73.509	74.799	0.166	-0.171
-72.494	-200.000	-0.073	0.365
-71.480	-101.457	-0.239	-0.057
-70.465	134.536	-0.074	-0.095
-69.451	800.000	-0.044	0.128
-68.436	-200.000	0.031	-0.188
-67.422	17.962	-0.088	0.069
-66.407	353.847	0.111	0.216
-65.392	-200.000	0.046	0.296
-64.378	-200.000	0.053	0.279
-63.363	91.727	-0.136	0.149
-62.349	-200.000	0.015	0.167
-61.334	128.232	-0.925	-1.152
-60.319	85.669	0.424	0.456
-59.305	132.894	-0.803	-1.015
-58.290	358.174	0.742	1.450
-57.276	455.530	0.783	1.699
-56.261	-200.000	112.046	633.535
-55.246	471.176	1499.862	3300.671
-54.232	148.746	2664.850	3523.181
-53.217	103.216	2172.684	2491.432
-52.203	38.020	1704.717	1482.924
-51.188	30.775	1523.816	1276.063
-50.173	28.583	1499.595	1240.924
-49.159	52.260	1556.407	1451.587
-48.144	51.355	1572.193	1460.029
-47.130	31.041	1529.317	1282.293
-46.115	27.956	1514.665	1248.912
-45.100	27.836	1510.914	1244.947
-44.086	27.814	1508.793	1243.000
-43.071	27.813	1507.171	1241.612
-42.057	27.716	1505.490	1239.515
-41.042	27.726	1504.118	1238.407
-40.027	27.687	1502.666	1236.893
-39.013	27.682	1501.398	1235.769
-37.998	27.660	1499.866	1234.311
-36.984	27.780	1498.588	1234.020
-35.969	27.715	1498.007	1233.055
-34.954	27.669	1496.042	1231.078
-33.940	27.687	1494.407	1229.806
-32.925	27.670	1493.284	1228.720
-31.911	27.796	1491.751	1228.258
-30.896	27.767	1490.661	1227.116
-29.881	27.832	1489.310	1226.390
-28.867	27.843	1488.160	1225.468
-27.852	27.731	1487.249	1223.918
-26.838	27.742	1485.693	1222.664
-25.823	27.840	1483.935	1221.824
-24.809	27.857	1481.844	1220.163
-23.794	27.738	1481.106	1218.715
-22.779	27.784	1479.675	1217.798
-21.765	27.822	1478.646	1217.153
-20.750	27.754	1477.915	1216.050
-19.736	27.798	1476.486	1215.117
-18.721	27.786	1475.197	1213.934
-17.706	27.760	1473.776	1212.544
-16.692	27.813	1472.775	1212.021
-15.677	27.712	1472.222	1210.847
-14.663	27.763	1471.062	1210.181
-13.648	27.742	1470.382	1209.440
-12.633	27.743	1468.902	1208.177
-11.619	27.704	1469.265	1208.168
-10.604	27.756	1467.886	1207.333
-9.590	27.707	1467.239	1206.432
-8.575	27.779	1465.649	1205.547
-7.560	27.803	1465.258	1205.338
-6.546	27.805	1464.080	1204.337
-5.531	27.700	1463.719	1203.299
-4.517	27.735	1462.375	1202.376
-3.502	27.637	1461.389	1200.871
-2.487	27.693	1460.518	1200.476
-1.473	27.588	1459.741	1199.101
-0.458	27.646	1458.228	1198.193
0.556	26.002	1448.491	1187.193
1.571	23.145	1423.489	1148.087
2.586	20.011	1363.003	1079.702
3.600	18.441	1279.688	1004.416
4.615	17.520	1234.026	963.284
5.629	16.590	1181.629	917.258
6.644	13.647	1105.064	842.806
7.659	10.855	1070.728	802.773
8.673	10.467	1065.703	797.032
9.688	10.315	1062.520	793.833
10.702	10.220	1061.038	792.190
11.717	10.318	1058.790	790.922
12.731	11.365	1058.943	796.075
13.746	14.527	1062.517	814.152
14.761	17.330	1065.367	829.963
15.775	17.719	1065.351	831.777
16.790	16.973	1063.645	826.738
17.804	15.893	1061.410	819.672
18.819	15.036	1059.399	813.882
19.834	14.552	1058.067	810.436
20.848	14.162	1057.111	807.734
21.863	13.925	1056.358	805.940
22.877	13.666	1055.324	803.823
23.892	13.466	1054.394	802.075
24.907	13.404	1054.405	801.713
25.921	13.372	1053.492	800.792
26.936	13.511	1052.184	800.397
27.950	13.516	1050.916	799.386
28.965	13.687	1050.158	799.567
29.980	13.553	1049.289	798.187
30.994	13.734	1047.949	797.969
32.009	13.684	1047.125	797.031
33.023	13.593	1046.826	796.292
34.038	13.787	1045.599	796.221
35.053	13.737	1044.921	795.394
36.067	13.669	1043.417	793.856
37.082	13.603	1042.826	793.016
38.096	13.652	1041.924	792.498
39.111	13.701	1041.278	792.171
40.126	13.779	1040.224	791.670
41.140	13.592	1039.264	789.977
42.155	13.612	1037.999	789.041
43.169	13.393	1037.119	787.260
44.184	13.289	1036.242	786.032
45.199	13.317	1035.229	785.325
46.213	13.493	1033.931	785.106
47.228	13.449	1033.082	784.186
48.242	13.622	1032.175	784.246
49.257	13.573	1031.358	783.321
50.271	13.520	1030.590	782.418
51.286	13.589	1029.502	781.850
52.301	13.659	1028.895	781.651
53.315	13.647	1027.933	780.795
54.330	13.595	1027.033	779.798
55.344	13.442	1026.204	778.380
56.359	13.474	1025.438	777.881
57.374	13.492	1024.134	776.904
58.388	13.482	1023.439	776.263
59.403	13.425	1023.010	775.600
60.417	13.401	1021.932	774.604
61.432	13.329	1021.736	774.049
62.447	13.420	1020.740	773.650
63.461	13.351	1019.422	772.261
64.476	13.381	1018.677	771.769
65.490	13.260	1017.675	770.376
66.505	13.321	1017.036	770.110
67.520	13.265	1016.670	769.504
68.534	13.401	1015.536	769.211
69.549	13.391	1015.144	768.800
70.563	13.387	1014.114	767.930
71.578	13.390	1013.543	767.447
72.593	13.227	1012.809	766.067
73.607	13.283	1011.479	765.251
74.622	13.247	1010.493	764.272
75.636	13.310	1009.599	763.818
76.651	13.365	1009.047	763.586
77.666	13.371	1008.041	762.789
78.680	13.280	1007.769	762.095
79.695	13.221	1007.531	761.577
80.709	13.266	1006.692	761.080
81.724	13.448	1005.650	761.064
82.739	13.412	1004.940	760.293
83.753	13.594	1003.944	760.306
84.768	13.540	1003.454	759.618
85.782	13.634	1002.771	759.467
86.797	13.687	1001.921	758.998
87.812	13.680	1001.035	758.228
88.826	13.705	1000.023	757.510
89.841	13.625	999.215	756.465
90.855	13.628	998.663	755.993
91.870	13.739	997.582	755.615
92.884	13.682	997.013	754.855
93.899	13.726	996.285	754.437
94.914	13.650	995.609	753.514
95.928	13.797	994.487	753.264
96.943	13.784	993.652	752.506
97.957	13.736	992.989	751.721
98.972	13.782	991.889	751.030
99.987	13.812	990.997	750.423
101.001	13.699	990.846	749.731
102.016	13.758	989.943	749.251
103.030	13.806	988.903	748.615
104.045	13.702	988.382	747.683
105.060	13.585	986.923	745.987
106.074	13.648	986.091	745.577
107.089	13.553	985.564	744.686
108.103	13.510	984.666	743.749
109.118	13.338	983.888	742.323
110.133	13.614	982.584	742.510
111.147	13.500	982.375	741.774
112.162	13.511	980.754	740.533
113.176	13.504	980.533	740.271
114.191	13.510	979.229	739.246
115.206	13.559	978.564	738.896
116.220	13.583	977.518	738.150
117.235	13.538	976.948	737.455
118.249	13.495	975.922	736.421
119.264	13.501	974.924	735.631
120.279	13.521	974.388	735.251
121.293	13.503	973.596	734.506
122.308	13.460	972.900	733.728
123.322	13.520	971.733	733.049
124.337	13.401	970.964	731.875
125.352	13.367	969.818	730.799
126.366	13.497	968.639	730.420
127.381	13.465	967.790	729.575
128.395	13.400	966.883	728.539
129.410	13.371	965.840	727.561
130.424	13.453	964.584	726.909
131.439	13.548	963.560	726.489
132.454	13.582	963.088	726.219
133.468	13.591	962.243	725.557
134.483	13.522	961.825	724.877
135.497	13.532	961.155	724.352
136.512	13.607	960.153	723.860
137.527	13.558	959.627	723.186
138.541	13.602	958.616	722.552
139.556	13.643	958.290	722.418
140.570	13.542	957.102	721.022
141.585	13.527	956.501	720.440
142.600	13.659	955.789	720.411
143.614	13.723	955.191	720.177
144.629	13.731	954.459	719.594
145.643	13.868	953.356	719.292
146.658	13.777	952.779	718.401
147.673	13.674	951.771	717.132
148.687	13.735	950.748	716.561
149.702	13.784	949.816	716.005
150.716	13.590	948.987	714.481
151.731	13.624	948.118	713.910
152.746	13.629	947.604	713.481
153.760	13.687	946.882	713.123
154.775	13.583	946.753	712.516
155.789	13.797	945.740	712.610
156.804	13.867	944.637	712.015
157.819	13.808	943.951	711.182
158.833	13.854	943.290	710.821
159.848	13.820	942.591	710.084
160.862	13.990	941.516	709.939
161.877	13.777	941.337	708.829
162.892	13.660	940.868	707.915
163.906	13.647	939.724	706.938
164.921	13.713	938.606	706.312
165.935	13.698	937.616	705.445
166.950	13.875	936.746	705.479
167.964	13.905	935.957	704.950
168.979	13.888	935.078	704.152
169.994	13.744	934.038	702.698
171.008	13.858	933.600	702.789
172.023	13.767	932.636	701.613
173.037	13.995	931.496	701.660
174.052	14.021	930.907	701.264
175.067	13.934	930.456	700.495
176.081	13.996	929.609	700.055
177.096	13.891	928.900	699.016
178.110	13.818	927.802	697.824
179.125	13.833	927.333	697.471
180.140	13.878	926.565	697.020
181.154	13.979	925.726	696.751
182.169	14.092	925.070	696.669
183.183	14.119	924.409	696.223
184.198	14.164	923.349	695.549
185.213	14.081	923.161	695.000
186.227	14.096	922.560	694.552
187.242	14.083	922.182	694.149
188.256	14.143	921.547	693.862
189.271	14.229	920.852	693.634
190.286	14.248	919.789	692.853
191.300	14.161	919.170	691.963
192.315	13.973	918.218	690.404
193.329	13.948	917.556	689.742
194.344	13.849	917.251	689.041
195.359	14.021	916.109	688.834
196.373	14.139	915.522	688.821
197.388	14.104	915.362	688.493
198.402	14.196	915.244	688.725
199.417	14.304	914.517	688.563
200.432	14.257	914.338	688.173
201.446	14.220	913.777	687.535
202.461	14.367	913.473	687.855
203.475	14.488	912.620	687.650
204.490	14.491	911.639	686.863
205.504	14.353	911.087	685.818
206.519	14.370	910.448	685.346
207.534	14.226	909.791	684.200
208.548	14.314	908.616	683.618
209.563	14.270	908.609	683.368
210.577	14.283	907.795	682.752
211.592	14.349	907.154	682.477
212.607	14.367	906.903	682.304
213.621	14.420	905.899	681.702
214.636	14.553	905.005	681.513
215.650	14.568	904.386	681.047
216.665	14.616	903.959	680.863
217.680	14.644	903.550	680.609
218.694	14.572	902.968	679.817
219.709	14.523	902.490	679.197
220.723	14.534	901.961	678.783
221.738	14.534	901.285	678.214
222.753	14.598	900.288	677.666
223.767	14.632	899.476	677.132
224.782	14.633	898.701	676.491
225.796	14.719	897.954	676.220
226.811	14.776	897.216	675.833
227.826	14.724	896.686	675.163
228.840	14.539	896.238	674.018
229.855	14.637	895.442	673.756
230.869	14.782	894.274	673.403
231.884	14.556	894.045	672.261
232.899	14.611	893.260	671.829
233.913	14.570	892.784	671.248
234.928	14.578	891.932	670.583
235.942	14.560	891.464	670.098
236.957	14.572	890.178	669.121
237.972	14.644	890.153	669.331
238.986	14.789	889.168	669.111
240.001	14.626	888.904	668.203
241.015	14.712	888.096	667.877
242.030	14.731	887.213	667.233
243.045	14.722	886.727	666.771
244.059	14.758	886.257	666.503
245.074	14.844	885.310	666.074
246.088	14.788	884.891	665.476
247.103	14.858	884.541	665.434
248.117	14.954	883.482	664.960
249.132	14.901	883.238	664.505
250.147	15.055	882.407	664.435
251.161	15.097	882.182	664.373
252.176	15.088	881.169	663.516
253.190	15.194	880.266	663.195
254.205	15.308	879.531	663.033
255.220	15.229	879.490	662.632
256.234	15.222	878.447	661.758
257.249	15.325	877.681	661.531
258.263	15.243	877.535	661.037
259.278	15.194	877.069	660.436
260.293	15.249	876.586	660.229
261.307	15.320	875.877	659.917
262.322	15.512	875.312	660.190
263.336	15.374	874.646	659.087
264.351	15.282	874.149	658.290
265.366	15.418	873.300	658.126
266.380	15.427	872.815	657.737
267.395	15.430	872.041	657.111
268.409	15.423	871.103	656.317
269.424	15.407	871.001	656.121
270.439	15.446	870.088	655.527
271.453	15.402	869.140	654.583
272.468	15.373	868.435	653.880
273.482	15.288	867.879	653.072
274.497	15.371	867.198	652.826
275.512	15.394	866.526	652.352
276.526	15.329	865.971	651.623
277.541	15.434	865.420	651.556
278.555	15.497	864.698	651.201
279.570	15.568	864.156	651.011
280.585	15.599	863.458	650.549
281.599	15.797	862.668	650.660
282.614	15.589	862.381	649.583
283.628	15.563	861.869	649.040
284.643	15.605	861.014	648.499
285.657	15.552	860.873	648.131
286.672	15.708	859.976	648.002
287.687	15.462	860.028	647.033
288.701	15.715	859.168	647.305
289.716	15.618	858.629	646.466
290.730	15.739	857.579	646.082
291.745	15.601	857.250	645.248
292.760	15.694	856.594	645.056
293.774	15.609	856.382	644.512
294.789	15.786	855.492	644.463
295.803	15.855	854.684	644.064
296.818	15.684	854.317	643.075
297.833	15.674	853.538	642.393
298.847	15.787	852.683	642.124
299.862	15.640	851.978	640.974
300.876	15.799	851.373	641.070
301.891	15.835	850.909	640.802
302.906	15.961	850.151	640.650
303.920	16.011	849.149	640.030
304.935	15.976	848.759	639.547
305.949	16.147	847.920	639.505
306.964	16.110	847.530	639.015
307.979	15.946	847.187	638.079
308.993	16.204	846.318	638.345
310.008	16.155	846.390	638.159
311.022	16.140	845.837	637.627
312.037	16.119	845.089	636.926
313.052	16.026	844.801	636.302
314.066	15.959	843.912	635.325
315.081	15.808	843.288	634.229
316.095	15.913	843.056	634.392
317.110	15.969	842.584	634.193
318.125	15.994	841.716	633.577
319.139	16.073	841.186	633.421
320.154	16.096	840.401	632.860
321.168	16.146	839.880	632.597
322.183	16.106	839.629	632.204
323.197	15.976	839.204	631.339
324.212	16.112	838.556	631.305
325.227	16.108	837.947	630.778
326.241	16.010	837.803	630.246
327.256	16.143	836.830	629.956
328.270	16.141	836.540	629.674
329.285	16.135	835.792	629.031
330.300	16.117	834.962	628.286
331.314	16.124	834.852	628.171
332.329	16.220	833.854	627.722
333.343	16.200	833.473	627.308
334.358	16.262	832.932	627.075
335.373	16.241	832.477	626.599
336.387	16.255	831.657	625.978
337.402	16.283	831.309	625.765
338.416	16.316	830.661	625.344
339.431	16.387	830.166	625.176
340.446	16.542	829.712	625.354
341.460	16.422	828.947	624.280
342.475	16.519	828.717	624.408
343.489	16.645	827.733	624.076
344.504	16.542	827.389	623.382
345.519	16.719	826.957	623.653
346.533	16.674	826.549	623.124
347.548	16.660	826.114	622.692
348.562	16.677	825.521	622.250
349.577	16.718	824.632	621.675
350.592	16.481	824.368	620.554
351.606	16.454	824.030	620.143
352.621	16.528	823.462	619.932
353.635	16.457	823.046	619.305
354.650	16.583	822.232	619.099
355.665	16.596	822.273	619.122
356.679	16.676	821.600	618.852
357.694	16.516	821.347	618.022
358.708	16.710	820.469	618.015
359.723	16.695	819.666	617.303
360.738	16.528	819.416	616.449
361.752	16.679	819.170	616.760
362.767	16.948	818.172	616.934
363.781	16.698	818.086	615.904
364.796	16.793	817.819	615.996
365.810	16.819	817.129	615.516
366.825	16.903	817.061	615.714
367.840	16.891	816.728	615.366
368.854	16.844	816.484	614.955
369.869	16.955	815.454	614.529
370.883	16.876	814.907	613.776
371.898	16.923	814.551	613.623
372.913	17.025	813.747	613.331
373.927	16.948	813.381	612.723
374.942	17.056	812.806	612.627
375.956	17.021	812.144	611.949
376.971	17.102	811.306	611.553
377.986	17.027	810.913	610.931
379.000	17.105	810.624	610.942
380.015	17.266	809.881	610.908
381.029	17.086	809.540	609.950
382.044	17.005	809.074	609.251
383.059	17.239	808.192	609.372
384.073	17.239	807.912	609.109
385.088	17.288	807.139	608.648
386.102	17.145	806.750	607.789
387.117	17.184	806.364	607.584
388.132	17.166	805.920	607.130
389.146	17.207	805.518	606.922
390.161	17.312	804.879	606.758
391.175	17.242	804.902	606.473
392.190	17.111	804.472	605.628
393.205	17.142	803.797	605.179
394.219	17.323	803.224	605.337
395.234	17.110	802.946	604.315
396.248	17.269	801.973	604.094
397.263	17.187	801.751	603.584
398.278	17.108	801.498	603.060
399.292	17.102	800.838	602.488
400.307	17.248	800.237	602.499
401.321	17.203	799.974	602.089
402.336	17.201	799.888	601.964
403.350	17.129	799.559	601.409
404.365	17.216	799.084	601.307
405.380	17.336	798.206	601.017
406.394	17.427	797.816	600.989
407.409	17.441	797.541	600.778
408.423	17.486	797.119	600.566
409.438	17.504	796.598	600.184
410.453	17.479	796.119	599.683
411.467	17.628	795.642	599.794
412.482	17.729	795.013	599.623
413.496	17.731	794.875	599.472
414.511	17.688	794.343	598.867
415.526	17.794	793.961	598.898
416.540	17.711	793.848	598.468
417.555	17.631	793.663	597.995
418.569	17.660	793.089	597.611
419.584	17.598	792.151	596.634
420.599	17.862	791.469	596.992
421.613	111.143	1293.241	1475.468
422.628	95.491	1366.337	1475.569
