DTS Sentinel unit serial number:	SN413079Multiplexer serial number:	ORYXHardware model number:	OX4-SRSoftware version number:	ORYX F/W v4.00 Oryx Data Collector v3.7.2.0data status	okinstallation	princeton_trtdifferential loss correction	single-endedforward channel	channel 3reverse channel	N/Adate	2019/09/11time	06:38:11forward acquisition time	60.00reverse acquisition time	0.00gamma	496.2192k internal	0.2330k external	0.2330temperature offset calibration	0.9913default loss term (dB/km)	0.3790temperature slope calibration	1.0000multiplexer offset coefficient	1.0000multiplexer slope coefficient	1.0000fibre end	0.00T internal ref (°C)	29.70T ext. ref 1 (°C)	-0.16T ext. ref 2 (°C)	24.52length (m)	temperature (°C)	Stokes	anti-Stokes-747.200	459.923	-0.117	-0.262
-746.185	-101.261	0.426	-0.105
-745.171	54.158	-0.080	0.078
-744.156	800.000	-0.047	0.135
-743.142	-131.475	0.399	-0.053
-742.127	-119.162	-0.186	0.033
-741.112	-95.628	0.332	-0.090
-740.098	-85.650	-0.422	0.132
-739.083	-114.821	-0.132	0.025
-738.069	800.000	0.054	0.207
-737.054	226.358	0.027	-0.044
-736.039	-53.917	-0.137	-0.063
-735.025	176.008	0.063	0.092
-734.010	-57.718	0.241	0.106
-732.996	66.698	-0.446	-0.457
-731.981	-4.275	-0.453	0.315
-730.966	47.308	-0.241	-0.226
-729.952	15.918	-0.145	0.115
-728.937	2.812	-0.155	0.113
-727.923	-75.356	-0.008	-0.003
-726.908	353.891	-0.112	-0.225
-725.894	-149.595	-0.287	0.023
-724.879	-156.726	0.107	0.007
-723.864	-19.918	-0.127	-0.079
-722.850	775.547	-0.056	0.153
-721.835	117.027	-0.098	-0.121
-720.821	-127.402	-0.286	-0.042
-719.806	673.832	-0.144	-0.377
-718.791	-90.955	-0.039	0.011
-717.777	511.565	0.019	0.043
-716.762	-7.749	-0.135	-0.092
-715.748	-200.000	0.005	-0.127
-714.733	-87.730	-0.261	-0.079
-713.718	-150.525	0.182	0.014
-712.704	406.306	-0.107	0.227
-711.689	145.978	0.044	-0.060
-710.675	97.868	0.232	-0.268
-709.660	-36.272	0.221	0.120
-708.645	-200.000	-0.034	-0.213
-707.631	-200.000	-0.026	-0.114
-706.616	-41.040	-0.151	-0.078
-705.602	605.185	-0.140	-0.350
-704.587	150.657	-0.128	0.175
-703.572	109.990	-0.284	0.343
-702.558	413.077	0.173	0.370
-701.543	-200.000	0.006	0.227
-700.529	800.000	-0.016	-0.070
-699.514	800.000	0.052	0.209
-698.499	-200.000	0.054	0.245
-697.485	-75.754	0.180	0.064
-696.470	-200.000	-0.020	-0.259
-695.456	-55.791	0.443	0.199
-694.441	-95.955	-0.398	0.107
-693.426	-200.000	0.030	0.268
-692.412	165.924	-0.060	-0.085
-691.397	423.176	0.018	0.040
-690.383	-86.970	0.463	-0.142
-689.368	454.630	-0.149	-0.332
-688.354	800.000	0.022	0.085
-687.339	-200.000	0.001	0.155
-686.324	-200.000	-0.025	0.130
-685.310	-15.655	-0.261	-0.167
-684.295	-200.000	0.009	0.302
-683.281	-86.012	0.193	0.060
-682.266	347.582	-0.177	-0.351
-681.251	-89.705	0.147	0.043
-680.237	-39.267	0.215	0.113
-679.222	-200.000	0.047	0.363
-678.208	-200.000	0.023	-0.405
-677.193	16.624	0.202	0.160
-676.178	-107.624	-0.040	0.009
-675.164	15.840	-0.336	0.266
-674.149	642.310	0.066	-0.170
-673.135	-200.000	-0.052	0.277
-672.120	49.256	0.168	0.159
-671.105	-200.000	-0.001	0.111
-670.091	-200.000	0.189	0.000
-669.076	-165.216	-0.219	-0.010
-668.062	-25.011	-0.298	-0.177
-667.047	67.666	-0.129	-0.133
-666.032	-14.152	-0.165	-0.107
-665.018	-18.903	0.229	-0.143
-664.003	-114.117	0.217	-0.042
-662.989	-80.102	-0.591	-0.199
-661.974	-200.000	-0.011	0.084
-660.959	-200.000	-0.025	0.155
-659.945	219.806	-0.121	-0.195
-658.930	-116.310	-0.205	-0.038
-657.916	10.959	0.143	-0.110
-656.901	48.179	-0.185	-0.174
-655.886	-13.660	-0.159	-0.104
-654.872	800.000	-0.115	0.338
-653.857	-97.603	-0.093	0.024
-652.843	-83.381	-0.215	-0.069
-651.828	-200.000	-0.000	-0.290
-650.814	10.605	0.058	0.045
-649.799	-200.000	0.004	0.117
-648.784	166.878	0.180	-0.257
-647.770	-200.000	0.000	-0.070
-646.755	-63.522	-0.127	0.052
-645.741	28.531	-0.054	-0.046
-644.726	-98.556	-0.143	0.037
-643.711	800.000	-0.074	-0.212
-642.697	-181.935	-0.315	-0.006
-641.682	-60.476	0.237	0.101
-640.668	217.242	-0.049	0.077
-639.653	-164.672	-0.409	0.019
-638.638	41.077	-0.239	-0.216
-637.624	219.121	-0.052	-0.083
-636.609	-65.298	0.153	0.062
-635.595	-35.396	-0.101	0.055
-634.580	-200.000	-0.027	0.154
-633.565	-123.435	0.123	-0.020
-632.551	-200.000	0.036	0.227
-631.536	1.743	-0.284	0.205
-630.522	-200.000	0.060	0.463
-629.507	251.993	0.014	0.023
-628.492	-200.000	-0.033	0.221
-627.478	-141.891	0.189	0.019
-626.463	-33.885	-0.316	-0.175
-625.449	3.693	-0.125	-0.092
-624.434	-0.526	-0.215	-0.153
-623.419	29.360	0.313	-0.266
-622.405	-200.000	0.062	-0.313
-621.390	800.000	0.105	-0.303
-620.376	-101.201	0.216	-0.053
-619.361	274.341	-0.099	-0.176
-618.346	738.313	-0.036	0.098
-617.332	-200.000	-0.009	0.149
-616.317	99.153	0.118	-0.137
-615.303	-179.266	0.108	-0.002
-614.288	-200.000	0.036	0.325
-613.273	-150.621	-0.114	0.009
-612.259	-12.124	-0.181	-0.119
-611.244	-61.643	-0.188	0.079
-610.230	200.655	0.228	-0.352
-609.215	-200.000	0.039	-0.312
-608.201	-113.551	-0.403	-0.079
-607.186	800.000	0.040	0.172
-606.171	-200.000	0.025	-0.140
-605.157	270.679	0.051	-0.089
-604.142	-82.720	0.268	0.087
-603.128	-125.664	-0.122	-0.019
-602.113	-200.000	0.037	-0.271
-601.098	-200.000	0.032	-0.281
-600.084	800.000	-0.064	-0.209
-599.069	-200.000	0.006	0.229
-598.055	215.908	-0.100	-0.159
-597.040	-122.521	-0.025	-0.004
-596.025	-79.620	-0.161	-0.054
-595.011	-125.329	-0.113	0.017
-593.996	134.839	-0.150	0.195
-592.982	-147.315	-0.124	0.011
-591.967	-146.704	-0.186	-0.016
-590.952	-200.000	0.048	-0.254
-589.938	-44.881	-0.195	-0.097
-588.923	-82.239	0.340	0.111
-587.909	-76.763	-0.108	0.038
-586.894	800.000	0.084	-0.260
-585.879	800.000	-0.108	-0.334
-584.865	171.699	-0.169	0.243
-583.850	619.365	0.038	0.096
-582.836	43.260	0.057	0.052
-581.821	-47.723	0.259	0.126
-580.806	189.743	0.087	0.130
-579.792	-161.964	0.163	-0.008
-578.777	46.122	-0.134	-0.124
-577.763	-52.927	0.141	0.065
-576.748	-200.000	-0.026	-0.168
-575.733	115.044	-0.177	-0.216
-574.719	256.811	-0.070	-0.120
-573.704	47.520	0.155	-0.145
-572.690	-133.349	-0.123	-0.015
-571.675	158.833	-0.138	0.191
-570.661	-137.491	0.048	0.005
-569.646	-25.304	-0.350	-0.207
-568.631	166.812	0.158	0.223
-567.617	45.133	0.237	0.219
-566.602	-76.674	0.136	0.048
-565.588	-200.000	0.013	0.288
-564.573	-37.720	-0.160	0.085
-563.558	25.094	-0.209	-0.173
-562.544	800.000	0.008	0.030
-561.529	-105.597	0.352	-0.080
-560.515	-200.000	0.032	0.274
-559.500	-144.190	-0.353	0.033
-558.485	-200.000	0.022	0.144
-557.471	125.766	0.259	0.327
-556.456	-44.344	-0.268	-0.134
-555.442	611.992	0.231	-0.577
-554.427	-116.781	-0.296	0.054
-553.412	-66.145	0.173	0.069
-552.398	-34.674	-0.447	0.244
-551.383	297.540	0.083	0.153
-550.369	400.822	-0.052	-0.108
-549.354	-200.000	0.051	0.243
-548.339	-79.605	0.130	-0.044
-547.325	-68.261	-0.106	-0.041
-546.310	-92.020	0.239	-0.067
-545.296	-200.000	-0.009	-0.163
-544.281	597.445	-0.051	0.127
-543.266	16.527	0.171	-0.135
-542.252	528.325	0.127	-0.299
-541.237	210.264	0.088	-0.139
-540.223	-115.882	0.252	0.047
-539.208	-200.000	0.000	-0.190
-538.193	24.538	0.119	0.098
-537.179	-39.670	0.270	0.141
-536.164	-3.690	-0.096	0.067
-535.150	-22.048	0.258	-0.156
-534.135	37.125	0.116	0.102
-533.121	179.775	-0.031	0.045
-532.106	-97.214	-0.041	0.011
-531.091	-70.250	-0.117	-0.044
-530.077	545.741	0.052	-0.124
-529.062	800.000	0.058	-0.185
-528.048	111.928	0.209	-0.252
-527.033	240.065	-0.078	0.130
-526.018	280.742	0.045	0.080
-525.004	-155.836	-0.215	0.014
-523.989	800.000	-0.040	0.129
-522.975	800.000	-0.012	0.040
-521.960	-200.000	0.040	-0.182
-520.945	-200.000	0.021	-0.127
-519.931	349.564	0.107	0.211
-518.916	-103.479	-0.020	-0.005
-517.902	125.763	-0.053	-0.066
-516.887	-75.907	0.380	0.134
-515.872	-167.130	0.275	-0.011
-514.858	-126.685	0.212	-0.031
-513.843	20.507	0.151	-0.122
-512.829	108.775	-0.091	-0.109
-511.814	-115.170	-0.180	0.034
-510.799	-140.244	0.226	-0.024
-509.785	-85.625	0.146	-0.045
-508.770	44.465	-0.088	-0.081
-507.756	-112.001	-0.138	-0.028
-506.741	-200.000	-0.008	-0.184
-505.726	-68.199	0.249	-0.097
-504.712	-156.639	-0.292	-0.018
-503.697	-200.000	0.011	-0.148
-502.683	-63.300	-0.056	-0.023
-501.668	40.721	-0.309	-0.278
-500.653	-22.832	0.043	0.026
-499.639	-68.558	-0.274	-0.106
-498.624	-90.621	0.112	-0.032
-497.610	59.862	0.118	-0.116
-496.595	800.000	0.056	-0.235
-495.581	-30.688	-0.154	-0.087
-494.566	800.000	0.055	-0.154
-493.551	48.875	0.220	0.206
-492.537	549.516	-0.124	0.296
-491.522	194.599	-0.119	0.180
-490.508	127.869	-0.031	-0.039
-489.493	-119.838	0.126	-0.022
-488.478	-76.703	-0.094	-0.033
-487.464	-102.535	0.066	-0.016
-486.449	123.393	-0.063	-0.079
-485.435	-61.610	-0.142	0.060
-484.420	-158.580	0.329	0.019
-483.405	599.865	0.046	-0.113
-482.391	800.000	0.051	0.179
-481.376	100.859	-0.106	-0.123
-480.362	122.859	-0.156	0.194
-479.347	-162.445	-0.262	-0.013
-478.332	800.000	0.096	-0.329
-477.318	734.789	-0.098	0.261
-476.303	-196.745	-0.258	-0.002
-475.289	-200.000	0.025	-0.152
-474.274	800.000	-0.107	0.372
-473.259	-34.033	0.225	-0.124
-472.245	-133.906	-0.173	-0.021
-471.230	-99.815	0.253	0.063
-470.216	14.238	0.305	0.237
-469.201	-74.294	0.182	-0.066
-468.186	-78.962	-0.302	0.102
-467.172	-200.000	-0.010	0.045
-466.157	386.817	0.182	0.374
-465.143	-17.865	0.532	0.332
-464.128	402.443	0.072	-0.151
-463.113	-126.244	0.476	0.071
-462.099	-53.911	0.022	-0.010
-461.084	-51.976	-0.309	0.143
-460.070	109.300	0.090	0.107
-459.055	-58.803	-0.134	-0.058
-458.040	48.467	-0.290	0.270
-457.026	-133.336	0.247	-0.031
-456.011	758.833	-0.046	-0.125
-454.997	145.152	0.103	0.137
-453.982	125.853	0.117	0.147
-452.968	390.157	0.088	0.182
-451.953	99.555	0.216	0.249
-450.938	-200.000	0.003	0.118
-449.924	-48.908	-0.308	-0.147
-448.909	280.040	0.253	0.450
-447.895	-200.000	0.039	0.224
-446.880	-200.000	0.036	0.209
-445.865	-200.000	-0.020	0.147
-444.851	-63.609	0.260	0.106
-443.836	68.173	0.302	0.308
-442.822	157.754	-0.114	0.157
-441.807	1.162	0.108	0.077
-440.792	-10.951	0.139	-0.092
-439.778	-200.000	0.016	0.173
-438.763	374.769	-0.102	0.206
-437.749	-74.623	-0.477	0.171
-436.734	140.572	0.252	-0.331
-435.719	790.000	0.087	-0.237
-434.705	3.740	0.139	0.101
-433.690	-52.449	0.290	-0.134
-432.676	-103.666	0.128	-0.030
-431.661	426.745	-0.181	-0.389
-430.646	129.636	0.248	-0.315
-429.632	-13.831	-0.230	0.148
-428.617	-200.000	-0.004	-0.140
-427.603	-5.139	-0.097	0.066
-426.588	-71.475	0.159	-0.059
-425.573	223.125	-0.165	-0.265
-424.559	0.417	-0.259	-0.184
-423.544	407.760	0.095	-0.200
-422.530	-74.644	-0.468	-0.167
-421.515	-166.883	0.260	-0.011
-420.500	-200.000	0.057	0.306
-419.486	-157.977	-0.282	-0.017
-418.471	-47.950	0.145	-0.070
-417.457	-200.000	0.018	-0.167
-416.442	101.616	0.098	0.113
-415.428	-200.000	0.011	0.256
-414.413	38.552	-0.269	0.238
-413.398	-116.271	0.206	-0.038
-412.384	-200.000	-0.012	0.099
-411.369	-60.906	-0.118	-0.050
-410.355	-128.893	0.134	0.019
-409.340	-49.127	-0.238	-0.113
-408.325	399.310	-0.095	-0.199
-407.311	-29.991	0.082	0.047
-406.296	383.402	-0.038	0.078
-405.282	101.612	0.262	0.303
-404.267	800.000	0.020	-0.078
-403.252	-200.000	-0.037	-0.216
-402.238	-37.653	-0.406	-0.215
-401.223	-57.826	-0.066	0.029
-400.209	-125.086	0.190	0.029
-399.194	601.660	0.093	0.229
-398.179	-200.000	0.033	0.232
-397.165	48.280	0.173	0.161
-396.150	-133.178	0.168	-0.021
-395.136	-11.391	-0.071	0.047
-394.121	-200.000	-0.221	0.001
-393.106	-200.000	0.034	-0.351
-392.092	-87.141	-0.326	-0.098
-391.077	21.477	0.183	-0.148
-390.063	-200.000	0.037	0.168
-389.048	128.032	0.189	0.238
-388.033	-200.000	0.110	-0.000
-387.019	-129.764	0.110	0.015
-386.004	-84.123	-0.147	0.046
-384.990	800.000	0.031	-0.124
-383.975	-125.580	0.161	0.024
-382.960	-80.981	0.172	-0.057
-381.946	211.984	-0.175	0.274
-380.931	-200.000	-0.060	0.353
-379.917	27.894	-0.183	-0.153
-378.902	32.951	-0.150	-0.129
-377.888	376.401	0.100	-0.203
-376.873	575.501	-0.072	0.175
-375.858	603.212	0.067	-0.165
-374.844	800.000	-0.073	-0.219
-373.829	562.118	0.087	-0.208
-372.815	297.038	-0.178	0.324
-371.800	-200.000	0.001	-0.049
-370.785	-200.000	-0.050	-0.411
-369.771	-83.249	-0.122	0.039
-368.756	-149.275	0.205	-0.016
-367.742	110.054	0.039	-0.047
-366.727	800.000	0.089	-0.256
-365.712	-200.000	0.003	-0.136
-364.698	-173.993	-0.359	0.010
-363.683	260.929	0.307	-0.527
-362.669	0.327	0.152	0.108
-361.654	-3.409	-0.052	0.036
-360.639	-14.654	-0.084	-0.054
-359.625	-111.072	-0.120	-0.024
-358.610	-141.535	0.116	0.012
-357.596	173.847	-0.066	-0.095
-356.581	-55.501	-0.239	0.106
-355.566	-200.000	-0.028	-0.137
-354.552	-32.933	0.114	0.063
-353.537	18.456	-0.163	0.129
-352.523	703.173	-0.070	0.183
-351.508	532.342	0.058	0.137
-350.493	-200.000	-0.004	0.121
-349.479	-53.678	0.163	0.074
-348.464	800.000	-0.029	-0.110
-347.450	27.358	0.054	0.045
-346.435	456.011	0.148	0.326
-345.420	-200.000	0.043	0.471
-344.406	439.510	0.068	0.147
-343.391	-20.432	-0.318	-0.194
-342.377	-46.695	0.285	0.138
-341.362	-123.571	0.364	0.057
-340.348	-103.605	-0.109	-0.025
-339.333	-200.000	-0.019	0.189
-338.318	100.708	0.117	0.135
-337.304	-200.000	-0.064	-0.377
-336.289	-127.954	-0.347	-0.049
-335.275	-145.327	-0.333	-0.030
-334.260	71.093	0.069	0.071
-333.245	-40.041	0.089	-0.046
-332.231	-200.000	-0.022	-0.143
-331.216	-68.290	0.263	0.101
-330.202	800.000	-0.104	0.335
-329.187	-112.089	0.302	0.060
-328.172	189.892	-0.095	-0.141
-327.158	101.101	-0.113	0.130
-326.143	-30.871	0.314	0.176
-325.129	-69.565	0.130	-0.049
-324.114	25.639	0.251	-0.207
-323.099	184.488	0.040	-0.059
-322.085	122.418	0.154	-0.191
-321.070	-200.000	0.065	-0.330
-320.056	-113.756	0.229	-0.044
-319.041	-83.034	-0.091	-0.029
-318.026	-165.677	-0.192	-0.008
-317.012	571.573	0.049	0.118
-315.997	-200.000	0.029	0.195
-314.983	-47.294	-0.236	0.114
-313.968	-121.637	-0.162	-0.027
-312.953	800.000	-0.017	-0.064
-311.939	-200.000	-0.021	0.139
-310.924	-103.552	-0.158	0.037
-309.910	-63.093	0.195	-0.080
-308.895	-200.000	-0.021	0.155
-307.880	64.450	-0.091	0.091
-306.866	800.000	-0.022	-0.061
-305.851	318.911	0.180	-0.337
-304.837	704.451	-0.063	0.163
-303.822	-200.000	0.018	0.236
-302.807	665.775	0.044	0.112
-301.793	800.000	-0.013	-0.043
-300.778	-200.000	-0.011	0.071
-299.764	-60.393	-0.124	-0.052
-298.749	351.373	0.099	-0.194
-297.735	-78.744	-0.254	-0.086
-296.720	-27.020	-0.215	0.124
-295.705	-36.803	0.191	0.101
-294.691	-200.000	-0.006	0.113
-293.676	21.345	-0.198	-0.159
-292.662	-52.576	0.044	0.020
-291.647	197.515	0.102	-0.154
-290.632	-200.000	0.001	0.168
-289.618	800.000	-0.064	0.236
-288.603	-200.000	0.009	0.125
-287.589	-128.312	-0.345	0.049
-286.574	63.440	-0.187	0.186
-285.559	-20.188	0.267	0.163
-284.545	-200.000	0.005	-0.075
-283.530	-55.139	0.363	0.162
-282.516	-70.235	-0.117	-0.044
-281.501	800.000	-0.065	-0.190
-280.486	46.677	-0.166	0.153
-279.472	6.825	0.121	-0.089
-278.457	288.576	0.147	-0.264
-277.443	-42.453	0.287	-0.145
-276.428	-160.598	0.115	0.006
-275.413	-102.263	0.059	-0.014
-274.399	4.764	0.201	-0.146
-273.384	183.641	0.147	-0.214
-272.370	-200.000	-0.068	-0.408
-271.355	-129.354	-0.096	-0.013
-270.340	-200.000	-0.006	0.171
-269.326	-18.129	0.120	0.074
-268.311	233.805	0.018	-0.029
-267.297	39.389	0.375	0.332
-266.282	-46.637	-0.241	0.117
-265.267	163.207	-0.193	0.268
-264.253	317.935	0.091	-0.170
-263.238	137.002	0.065	-0.084
-262.224	-32.918	-0.209	-0.115
-261.209	-42.579	-0.066	-0.033
-260.195	739.535	-0.031	0.082
-259.180	456.443	0.094	-0.207
-258.165	-117.725	0.266	-0.047
-257.151	800.000	0.059	0.230
-256.136	-120.625	-0.185	0.031
-255.122	-200.000	-0.005	-0.097
-254.107	748.898	0.078	-0.209
-253.092	-74.190	-0.321	-0.115
-252.078	-200.000	-0.002	0.064
-251.063	-97.003	0.175	0.045
-250.049	12.122	-0.079	-0.060
-249.034	-9.613	-0.058	0.038
-248.019	752.792	-0.132	0.352
-247.005	-107.583	0.361	0.078
-245.990	183.322	0.310	0.452
-244.976	-117.768	-0.218	-0.039
-243.961	44.247	0.247	0.224
-242.946	-46.197	-0.174	-0.085
-241.932	190.817	-0.260	-0.386
-240.917	-200.000	-0.011	-0.105
-239.903	-3.134	-0.149	0.103
-238.888	13.626	-0.238	-0.182
-237.873	114.371	0.244	-0.293
-236.859	-200.000	-0.029	-0.321
-235.844	-32.260	0.087	0.048
-234.830	6.101	-0.133	-0.098
-233.815	343.990	0.080	0.154
-232.800	406.995	-0.156	-0.325
-231.786	-68.963	-0.224	0.085
-230.771	-87.926	0.260	0.077
-229.757	-98.000	0.289	-0.074
-228.742	-200.000	-0.012	0.314
-227.727	204.295	-0.157	-0.241
-226.713	47.992	0.186	-0.171
-225.698	-200.000	-0.019	0.132
-224.684	-35.794	-0.129	0.069
-223.669	-134.439	0.215	0.026
-222.655	800.000	-0.079	-0.226
-221.640	-140.736	-0.364	0.037
-220.625	16.735	0.139	0.109
-219.611	-185.337	0.135	0.002
-218.596	83.013	0.161	-0.173
-217.582	273.250	-0.028	-0.050
-216.567	-44.980	0.175	-0.086
-215.552	-200.000	-0.064	0.370
-214.538	-64.608	0.102	-0.041
-213.523	-200.000	-0.047	0.227
-212.509	-200.000	0.059	0.284
-211.494	-177.534	-0.129	0.003
-210.479	-200.000	-0.009	-0.216
-209.465	-200.000	0.049	-0.214
-208.450	331.440	0.169	-0.321
-207.436	107.071	-0.208	0.243
-206.421	-200.000	-0.009	-0.138
-205.406	-5.053	-0.310	0.210
-204.392	700.777	-0.061	0.159
-203.377	28.035	-0.220	0.183
-202.363	-200.000	0.036	0.339
-201.348	190.612	0.087	-0.129
-200.333	-79.123	-0.330	-0.111
-199.319	41.563	0.090	-0.080
-198.304	119.423	-0.100	-0.122
-197.290	-112.353	0.205	-0.040
-196.275	62.541	-0.230	0.227
-195.260	157.306	-0.158	-0.215
-194.246	154.910	-0.225	0.304
-193.231	-200.000	0.017	-0.137
-192.217	576.785	0.232	-0.558
-191.202	-74.909	-0.425	-0.150
-190.187	252.376	-0.027	-0.046
-189.173	-200.000	-0.033	-0.507
-188.158	-63.642	-0.514	-0.208
-187.144	199.138	-0.220	0.333
-186.129	-200.000	0.024	0.286
-185.114	-200.000	-0.075	-0.420
-184.100	-200.000	0.003	-0.227
-183.085	-108.224	-0.259	0.055
-182.071	-77.003	0.134	-0.046
-181.056	-200.000	0.009	0.211
-180.042	-155.686	0.147	0.009
-179.027	256.867	-0.054	-0.092
-178.012	45.598	-0.057	0.052
-176.998	-51.289	0.508	0.234
-175.983	437.550	-0.159	0.342
-174.969	211.578	0.202	0.314
-173.954	114.028	-0.090	0.107
-172.939	82.972	0.115	-0.123
-171.925	-61.198	0.247	0.103
-170.910	-70.015	-0.083	0.031
-169.896	53.645	-0.266	0.251
-168.881	-106.585	0.100	0.022
-167.866	-200.000	-0.027	0.127
-166.852	-200.000	-0.030	-0.207
-165.837	-50.380	0.099	-0.046
-164.823	463.368	0.099	0.219
-163.808	-53.407	0.279	0.126
-162.793	307.790	-0.016	0.029
-161.779	-80.363	-0.213	-0.070
-160.764	-79.724	-0.149	-0.050
-159.750	275.306	-0.099	0.173
-158.735	800.000	-0.091	-0.293
-157.720	31.144	-0.117	-0.099
-156.706	-67.851	0.127	-0.049
-155.691	-90.645	-0.242	-0.069
-154.677	800.000	-0.025	0.088
-153.662	431.341	-0.120	0.255
-152.647	-85.202	-0.152	0.047
-151.633	290.239	0.086	-0.154
-150.618	26.690	0.266	-0.219
-149.604	156.882	0.092	0.125
-148.589	244.965	-0.027	0.045
-147.574	-200.000	-0.037	0.290
-146.560	20.745	0.247	0.197
-145.545	557.974	-0.073	0.174
-144.531	800.000	-0.044	-0.181
-143.516	-128.587	-0.265	0.037
-142.502	91.779	0.206	0.228
-141.487	-200.000	0.054	0.335
-140.472	-27.714	-0.043	0.025
-139.458	-66.619	-0.107	0.042
-138.443	-116.620	0.175	-0.032
-137.429	-200.000	0.008	-0.211
-136.414	311.449	0.094	0.173
-135.399	436.744	-0.201	0.429
-134.385	261.127	-0.152	0.259
-133.370	-121.297	-0.163	0.027
-132.356	-1.320	-0.056	0.039
-131.341	114.307	0.111	-0.133
-130.326	56.162	-0.051	-0.049
-129.312	-19.858	0.195	-0.118
-128.297	788.845	0.200	-0.540
-127.283	5.930	0.044	0.032
-126.268	30.095	0.122	-0.102
-125.253	-31.640	-0.132	0.073
-124.239	-88.541	0.316	0.093
-123.224	-154.545	0.177	-0.012
-122.210	-10.669	-0.255	-0.166
-121.195	-200.000	-0.001	0.068
-120.180	-200.000	-0.016	0.276
-119.166	-33.265	-0.377	0.205
-118.151	-136.671	-0.257	0.029
-117.137	39.418	0.175	0.154
-116.122	240.262	0.238	0.390
-115.107	-200.000	-0.015	0.129
-114.093	707.523	0.153	0.397
-113.078	62.768	0.148	0.146
-112.064	-55.162	-0.132	-0.058
-111.049	36.340	-0.259	0.224
-110.034	-39.720	-0.112	-0.057
-109.020	-55.976	0.274	-0.120
-108.005	457.295	-0.055	-0.121
-106.991	-69.350	0.266	-0.100
-105.976	-56.724	-0.198	0.086
-104.962	-200.000	-0.045	-0.237
-103.947	-200.000	0.011	0.370
-102.932	-200.000	-0.012	-0.138
-101.918	115.386	-0.170	0.204
-100.903	-200.000	0.004	-0.064
-99.889	-43.517	-0.206	0.102
-98.874	-50.793	0.241	0.111
-97.859	-200.000	0.018	-0.191
-96.845	-16.854	-0.387	0.240
-95.830	37.016	-0.271	-0.236
-94.816	-104.993	0.223	-0.050
-93.801	-200.000	-0.002	-0.271
-92.786	-81.801	-0.197	-0.063
-91.772	68.447	0.140	-0.141
-90.757	-113.237	-0.440	0.085
-89.743	225.835	-0.046	0.074
-88.728	-86.425	0.287	-0.087
-87.713	113.748	0.172	-0.205
-86.699	31.240	0.210	-0.177
-85.684	257.617	0.053	0.090
-84.670	-88.777	0.463	-0.135
-83.655	-44.286	0.055	-0.027
-82.640	31.483	0.157	-0.133
-81.626	-132.798	-0.148	-0.019
-80.611	393.336	-0.076	0.154
-79.597	561.988	-0.068	0.162
-78.582	-200.000	0.009	-0.058
-77.567	158.485	-0.122	0.167
-76.553	-75.490	-0.226	-0.079
-75.538	33.310	-0.091	0.077
-74.524	29.654	0.163	-0.136
-73.509	155.696	0.189	0.256
-72.494	301.345	0.114	0.207
-71.480	800.000	0.085	-0.263
-70.465	-120.829	0.373	-0.062
-69.451	-36.583	0.085	0.045
-68.436	-49.793	-0.150	-0.070
-67.422	-29.554	0.115	0.064
-66.407	-200.000	0.008	-0.160
-65.392	632.883	-0.042	0.105
-64.378	800.000	-0.078	0.246
-63.363	-200.000	0.013	0.105
-62.349	-200.000	-0.010	0.236
-61.334	51.970	-1.139	-1.063
-60.319	247.736	0.383	0.635
-59.305	-200.000	-0.152	-1.175
-58.290	223.732	0.757	1.198
-57.276	800.000	0.598	1.652
-56.261	-200.000	104.715	609.253
-55.246	502.237	1498.020	3392.467
-54.232	177.380	2694.093	3845.816
-53.217	111.457	2186.461	2584.120
-52.203	40.489	1703.198	1503.253
-51.188	32.889	1511.880	1282.929
-50.173	30.447	1485.540	1244.197
-49.159	51.107	1540.838	1432.097
-48.144	51.826	1557.074	1452.036
-47.130	33.070	1513.364	1285.219
-46.115	29.988	1498.473	1251.725
-45.100	29.807	1494.881	1247.458
-44.086	29.714	1493.371	1245.518
-43.071	29.656	1490.961	1243.073
-42.057	29.615	1489.653	1241.652
-41.042	29.573	1488.197	1240.113
-40.027	29.609	1486.598	1238.967
-39.013	29.696	1484.625	1237.859
-37.998	29.737	1483.550	1237.190
-36.984	29.661	1482.145	1235.461
-35.969	29.705	1480.741	1234.531
-34.954	29.665	1479.592	1233.260
-33.940	29.666	1477.958	1231.858
-32.925	29.600	1477.082	1230.640
-31.911	29.694	1475.482	1229.883
-30.896	29.793	1474.073	1229.313
-29.881	29.810	1472.722	1228.256
-28.867	29.694	1471.702	1226.584
-27.852	29.808	1469.949	1225.832
-26.838	29.849	1468.469	1224.817
-25.823	29.717	1467.134	1222.784
-24.809	29.712	1465.763	1221.558
-23.794	29.697	1464.437	1220.307
-22.779	29.661	1463.576	1219.303
-21.765	29.711	1462.318	1218.538
-20.750	29.851	1460.891	1218.222
-19.736	29.777	1460.064	1216.998
-18.721	29.755	1458.678	1215.645
-17.706	29.731	1457.849	1214.751
-16.692	29.732	1456.822	1213.854
-15.677	29.729	1455.418	1212.617
-14.663	29.797	1454.313	1212.095
-13.648	29.691	1453.377	1210.570
-12.633	29.642	1452.840	1209.753
-11.619	29.665	1452.459	1209.540
-10.604	29.631	1451.592	1208.544
-9.590	29.678	1450.419	1207.830
-8.575	29.622	1449.563	1206.702
-7.560	29.695	1448.153	1205.956
-6.546	29.676	1447.733	1205.437
-5.531	29.584	1447.216	1204.358
-4.517	29.613	1445.946	1203.440
-3.502	29.614	1444.900	1202.529
-2.487	29.655	1444.136	1202.114
-1.473	29.661	1442.694	1200.906
-0.458	29.619	1441.700	1199.757
0.556	27.364	1432.560	1189.745
1.571	24.638	1408.193	1151.861
2.586	21.699	1350.016	1085.987
3.600	20.179	1270.578	1013.122
4.615	18.966	1225.788	970.480
5.629	16.597	1171.196	914.385
6.644	8.600	1086.932	808.265
7.659	1.289	1046.390	742.385
8.673	0.096	1040.520	732.353
9.688	-0.210	1037.526	728.695
10.702	-0.384	1036.126	726.803
11.717	-0.122	1033.872	726.426
12.731	3.218	1037.573	745.150
13.746	12.064	1050.360	797.461
14.761	18.840	1059.043	837.107
15.775	20.792	1060.570	847.753
16.790	21.020	1060.634	848.840
17.804	20.866	1059.743	847.304
18.819	20.742	1058.961	846.000
19.834	20.804	1058.485	845.844
20.848	20.868	1057.827	845.556
21.863	20.993	1057.350	845.704
22.877	21.017	1057.159	845.592
23.892	21.038	1056.251	844.897
24.907	20.828	1055.556	843.246
25.921	20.800	1055.592	843.064
26.936	20.969	1053.906	842.462
27.950	20.991	1052.557	841.416
28.965	20.817	1051.515	839.667
29.980	20.664	1050.182	837.795
30.994	20.628	1048.881	836.505
32.009	20.904	1047.841	836.930
33.023	21.045	1047.193	837.015
34.038	20.737	1046.262	834.719
35.053	20.674	1045.449	833.697
36.067	20.935	1044.401	834.036
37.082	21.013	1043.369	833.510
38.096	21.056	1042.820	833.205
39.111	21.117	1042.264	832.979
40.126	21.229	1040.993	832.419
41.140	21.154	1040.322	831.452
42.155	20.815	1039.418	829.046
43.169	20.626	1037.761	826.749
44.184	20.472	1036.695	825.097
45.199	20.703	1035.383	825.075
46.213	20.546	1034.826	823.816
47.228	20.500	1033.681	822.614
48.242	20.664	1032.980	822.757
49.257	20.805	1032.196	822.729
50.271	20.777	1031.602	822.051
51.286	20.987	1030.298	821.928
52.301	21.002	1029.626	821.390
53.315	20.938	1028.974	820.496
54.330	20.996	1028.342	820.189
55.344	20.977	1027.399	819.276
56.359	20.942	1026.356	818.209
57.374	20.976	1025.401	817.534
58.388	20.757	1024.758	815.921
59.403	20.791	1023.818	815.261
60.417	20.734	1022.892	814.184
61.432	20.521	1022.402	812.727
62.447	20.666	1021.806	812.857
63.461	20.836	1020.818	812.796
64.476	20.885	1019.863	812.192
65.490	20.818	1019.094	811.194
66.505	20.765	1017.771	809.822
67.520	20.678	1017.508	809.136
68.534	20.713	1016.807	808.673
69.549	20.666	1015.636	807.449
70.563	20.410	1014.125	804.993
71.578	20.308	1013.275	803.774
72.593	20.331	1012.473	803.170
73.607	20.299	1011.124	801.880
74.622	20.281	1010.100	800.918
75.636	20.437	1010.251	801.687
76.651	20.518	1009.511	801.402
77.666	20.525	1008.288	800.391
78.680	20.399	1007.228	798.899
79.695	20.454	1007.125	799.001
80.709	20.600	1006.119	798.802
81.724	20.698	1005.467	798.663
82.739	20.533	1004.703	797.230
83.753	20.574	1003.826	796.649
84.768	20.808	1003.416	797.324
85.782	21.065	1002.615	797.796
86.797	21.252	1001.905	798.013
87.812	21.181	1001.344	797.172
88.826	20.954	1000.004	795.001
89.841	21.180	998.868	795.058
90.855	21.072	998.355	794.086
91.870	21.291	997.534	794.358
92.884	21.176	996.665	793.075
93.899	21.053	995.607	791.602
94.914	20.980	994.705	790.485
95.928	21.080	994.266	790.521
96.943	21.105	993.205	789.717
97.957	20.858	991.841	787.448
98.972	20.584	990.876	785.374
99.987	20.479	989.916	784.073
101.001	20.590	989.347	784.053
102.016	20.780	988.668	784.301
103.030	20.969	987.586	784.222
104.045	20.926	986.262	782.909
105.060	20.743	985.014	781.029
106.074	20.521	984.047	779.195
107.089	20.691	983.195	779.216
108.103	20.971	983.370	780.538
109.118	21.045	982.190	779.862
110.133	20.751	981.310	777.782
111.147	20.737	980.223	776.789
112.162	20.675	979.039	775.507
113.176	20.424	977.778	773.320
114.191	20.374	977.158	772.539
115.206	20.618	976.253	772.842
116.220	20.402	975.067	770.876
117.235	20.271	973.930	769.325
118.249	20.490	973.312	769.742
119.264	20.319	972.893	768.584
120.279	20.352	971.198	767.324
121.293	20.298	970.888	766.771
122.308	20.429	970.180	766.724
123.322	20.579	968.590	766.060
124.337	20.351	968.007	764.524
125.352	20.319	966.608	763.211
126.366	19.909	965.346	760.347
127.381	19.711	963.686	758.106
128.395	20.204	963.919	760.385
129.410	20.814	963.491	762.650
130.424	20.910	962.618	762.311
131.439	21.030	960.936	761.436
132.454	20.880	960.130	760.077
133.468	20.978	959.224	759.721
134.483	20.767	958.744	758.350
135.497	20.706	958.270	757.643
136.512	21.017	957.616	758.415
137.527	21.177	956.504	758.160
138.541	21.071	955.455	756.803
139.556	21.138	955.255	756.868
140.570	21.064	954.575	755.940
141.585	21.041	953.561	754.972
142.600	21.035	952.946	754.391
143.614	21.010	951.840	753.343
144.629	21.093	951.021	752.986
145.643	21.317	950.353	753.357
146.658	21.346	949.136	752.448
147.673	21.097	948.402	750.731
148.687	21.019	947.034	749.246
149.702	21.110	945.785	748.579
150.716	20.940	944.895	747.082
151.731	20.920	943.897	746.140
152.746	21.013	943.390	746.072
153.760	21.046	943.279	746.060
154.775	21.263	942.200	746.067
155.789	21.406	941.246	745.856
156.804	21.266	940.916	744.930
157.819	21.223	939.584	743.629
158.833	21.251	938.772	743.039
159.848	21.335	938.301	742.956
160.862	21.366	936.775	741.815
161.877	21.143	935.679	739.935
162.892	21.258	934.750	739.621
163.906	21.295	934.601	739.596
164.921	21.260	933.376	738.415
165.935	21.352	931.931	737.593
166.950	21.296	931.289	736.783
167.964	21.299	930.781	736.327
168.979	21.265	929.245	734.906
169.994	21.210	928.187	733.774
171.008	20.926	927.913	732.298
172.023	21.398	926.733	733.282
173.037	21.355	926.148	732.576
174.052	21.148	924.672	730.476
175.067	21.019	923.949	729.301
176.081	20.979	922.809	728.168
177.096	21.161	922.337	728.492
178.110	21.148	921.804	727.950
179.125	20.897	920.506	725.817
180.140	20.763	919.288	724.234
181.154	20.627	918.868	723.276
182.169	20.751	918.715	723.606
183.183	21.022	918.085	724.171
184.198	21.160	917.732	724.400
185.213	21.171	917.057	723.852
186.227	21.069	916.553	722.967
187.242	21.282	915.682	723.098
188.256	21.260	914.965	722.373
189.271	21.269	914.056	721.630
190.286	21.441	913.179	721.582
191.300	21.062	912.691	719.571
192.315	20.641	911.020	716.456
193.329	20.116	909.409	712.967
194.344	19.708	908.396	710.435
195.359	20.247	909.293	713.288
196.373	20.967	909.352	716.231
197.388	21.230	909.171	717.107
198.402	21.028	908.486	715.675
199.417	21.018	907.652	714.910
200.432	21.169	907.145	715.067
201.446	21.003	906.617	713.908
202.461	20.767	905.267	711.818
203.475	20.825	905.008	711.788
204.490	20.426	903.735	709.094
205.504	19.305	901.010	702.328
206.519	19.763	901.639	704.626
207.534	20.691	901.512	708.241
208.548	20.931	901.020	708.770
209.563	21.154	901.272	709.810
210.577	21.162	900.131	708.881
211.592	20.812	899.374	706.802
212.607	21.224	899.382	708.418
213.621	21.325	898.944	708.419
214.636	21.384	897.828	707.719
215.650	21.341	897.723	707.398
216.665	21.108	897.442	706.171
217.680	21.157	896.954	705.921
218.694	21.212	896.549	705.763
219.709	21.047	894.778	703.643
220.723	20.650	894.116	701.459
221.738	20.838	893.536	701.701
222.753	21.109	893.137	702.416
223.767	21.049	892.189	701.366
224.782	21.176	891.541	701.305
225.796	21.343	890.974	701.467
226.811	21.418	890.526	701.351
227.826	21.133	888.956	698.913
228.840	20.307	887.546	694.440
229.855	20.246	886.995	693.701
230.869	20.546	886.697	694.608
231.884	20.110	885.781	692.088
232.899	20.244	885.455	692.307
233.913	20.898	885.630	694.992
234.928	21.115	885.094	695.374
235.942	21.064	884.665	694.772
236.957	21.218	883.836	694.670
237.972	20.809	882.885	692.237
238.986	20.691	882.368	691.302
240.001	20.809	881.854	691.308
241.015	20.898	880.967	690.903
242.030	20.912	880.531	690.556
243.045	21.053	880.035	690.665
244.059	21.176	879.283	690.498
245.074	21.366	878.985	690.955
246.088	21.133	878.356	689.478
247.103	20.897	876.917	687.359
248.117	20.856	876.667	686.938
249.132	21.494	876.525	689.283
250.147	21.798	876.075	690.064
251.161	21.768	875.812	689.676
252.176	21.773	875.373	689.289
253.190	21.907	874.522	689.084
254.205	22.013	873.850	688.911
255.220	22.230	873.800	689.662
256.234	22.121	872.970	688.519
257.249	22.027	872.556	687.762
258.263	21.996	871.605	686.832
259.278	21.943	871.099	686.163
260.293	22.059	870.662	686.213
261.307	21.986	870.324	685.601
262.322	21.894	869.702	684.689
263.336	21.929	868.677	683.961
264.351	21.331	866.853	680.137
265.366	20.264	865.056	674.521
266.380	19.923	864.381	672.610
267.395	20.752	865.065	676.304
268.409	21.632	864.871	679.509
269.424	21.583	864.168	678.706
270.439	21.587	864.065	678.583
271.453	21.817	863.151	678.696
272.468	21.818	862.315	677.980
273.482	21.924	862.103	678.162
274.497	22.078	861.852	678.503
275.512	21.863	860.588	676.618
276.526	21.309	859.142	673.287
277.541	21.415	859.211	673.691
278.555	21.964	858.642	675.297
279.570	21.750	857.789	673.744
280.585	21.459	857.214	672.113
281.599	21.469	856.850	671.807
282.614	21.807	856.068	672.431
283.628	21.223	855.534	669.712
284.643	20.905	854.688	667.772
285.657	21.328	854.592	669.258
286.672	21.243	853.220	667.801
287.687	20.740	852.463	665.227
288.701	21.020	852.615	666.357
289.716	21.533	852.229	667.955
290.730	21.053	851.892	665.799
291.745	21.089	850.691	664.939
292.760	20.915	849.598	663.364
293.774	20.813	849.259	662.653
294.789	21.617	849.856	666.119
295.803	22.351	849.794	668.802
296.818	22.386	849.031	668.276
297.833	22.445	848.534	668.050
298.847	22.235	847.051	666.028
299.862	21.841	846.205	663.811
300.876	22.011	846.025	664.257
301.891	22.314	845.826	665.187
302.906	22.300	845.065	664.477
303.920	22.012	843.400	662.022
304.935	21.786	843.667	661.320
305.949	22.291	842.993	662.639
306.964	22.366	842.754	662.675
307.979	22.061	841.938	660.828
308.993	21.915	841.616	659.964
310.008	22.509	841.030	661.681
311.022	22.559	840.621	661.487
312.037	22.241	840.603	660.219
313.052	22.049	839.717	658.746
314.066	21.990	838.984	657.891
315.081	21.355	837.178	654.043
316.095	20.613	836.526	650.701
317.110	21.162	836.567	652.727
318.125	21.955	836.893	655.890
319.139	21.618	835.611	653.569
320.154	20.442	833.932	647.815
321.168	20.212	832.894	646.092
322.183	20.719	833.386	648.308
323.197	21.746	833.753	652.362
324.212	21.963	833.259	652.724
325.227	21.959	832.953	652.411
326.241	22.158	832.495	652.735
327.256	22.057	831.719	651.694
328.270	22.014	831.010	650.921
329.285	22.131	830.289	650.731
330.300	21.827	829.471	648.908
331.314	21.425	829.099	647.072
332.329	21.549	828.407	646.932
333.343	21.926	828.073	648.007
334.358	22.406	827.254	649.081
335.373	22.222	827.180	648.285
336.387	22.344	826.238	647.939
337.402	22.491	826.139	648.347
338.416	22.735	825.434	648.631
339.431	22.490	825.359	647.615
340.446	22.547	824.192	646.850
341.460	22.841	824.094	647.798
342.475	22.864	823.665	647.487
343.489	22.476	822.893	645.401
344.504	22.333	822.267	644.327
345.519	22.649	822.158	645.344
346.533	22.858	822.284	646.148
347.548	22.931	821.432	645.691
348.562	23.023	821.146	645.743
349.577	22.937	820.383	644.771
350.592	23.023	819.477	644.316
351.606	22.964	819.338	643.935
352.621	22.841	818.693	642.925
353.635	22.799	818.312	642.415
354.650	22.685	817.562	641.357
355.665	22.366	817.062	639.748
356.679	21.370	814.866	634.359
357.694	21.431	814.750	634.432
358.708	21.890	814.524	635.864
359.723	21.948	813.832	635.479
360.738	22.266	813.735	636.498
361.752	22.684	813.371	637.668
362.767	22.641	812.808	637.015
363.781	22.872	813.322	638.195
364.796	23.145	812.936	638.823
365.810	23.232	812.569	638.793
366.825	23.320	812.286	638.833
367.840	23.314	811.978	638.511
368.854	23.185	811.285	637.444
369.869	22.783	810.411	635.256
370.883	22.715	809.148	633.963
371.898	22.696	809.128	633.823
372.913	22.754	807.970	633.069
373.927	22.820	807.528	632.902
374.942	22.806	807.370	632.674
375.956	22.989	806.848	632.862
376.971	23.055	806.059	632.426
377.986	23.090	805.585	632.122
379.000	23.196	805.506	632.383
380.015	23.274	804.688	631.961
381.029	23.197	803.928	631.034
382.044	22.970	803.597	629.913
383.059	23.335	802.773	630.507
384.073	23.284	802.474	630.037
385.088	23.251	802.231	629.673
386.102	23.428	801.423	629.612
387.117	23.081	800.822	627.853
388.132	23.010	800.537	627.319
389.146	22.711	799.853	625.669
390.161	22.255	798.724	623.115
391.175	22.416	798.202	623.224
392.190	22.995	798.417	625.386
393.205	23.050	797.622	624.903
394.219	21.997	795.963	619.831
395.234	20.395	793.907	612.529
396.248	19.725	793.209	609.576
397.263	20.740	794.007	613.713
398.278	22.473	795.064	620.589
399.292	23.036	795.158	622.591
400.307	22.858	794.198	621.159
401.321	22.649	793.878	620.117
402.336	22.648	793.542	619.798
403.350	22.880	793.682	620.665
404.365	23.359	793.435	622.101
405.380	23.762	793.131	623.221
406.394	23.974	792.656	623.536
407.409	23.964	792.770	623.535
408.423	23.954	791.873	622.739
409.438	23.894	791.522	622.199
410.453	24.016	790.838	622.033
411.467	24.063	790.499	621.875
412.482	23.864	789.888	620.643
413.496	23.991	789.246	620.529
414.511	24.142	788.916	620.741
415.526	23.928	788.788	619.840
416.540	23.906	788.378	619.384
417.555	23.865	787.919	618.827
418.569	23.622	787.205	617.365
419.584	23.467	786.662	616.348
420.599	23.611	786.169	616.407
421.613	157.246	1365.521	1799.239
422.628	136.015	1449.916	1799.339
