DTS Sentinel unit serial number:	SN413079Multiplexer serial number:	ORYXHardware model number:	OX4-SRSoftware version number:	ORYX F/W v4.00 Oryx Data Collector v3.7.2.0data status	okinstallation	princeton_trtdifferential loss correction	single-endedforward channel	channel 3reverse channel	N/Adate	2019/09/15time	18:52:34forward acquisition time	60.00reverse acquisition time	0.00gamma	496.2192k internal	0.2290k external	0.2290temperature offset calibration	0.9932default loss term (dB/km)	0.3790temperature slope calibration	1.0000multiplexer offset coefficient	1.0000multiplexer slope coefficient	1.0000fibre end	0.00T internal ref (°C)	42.89T ext. ref 1 (°C)	6.95T ext. ref 2 (°C)	33.42length (m)	temperature (°C)	Stokes	anti-Stokes-747.200	-9.141	0.182	0.125
-746.185	-200.000	-0.027	0.165
-745.171	-200.000	-0.020	0.310
-744.156	-43.045	0.280	0.145
-743.142	800.000	0.040	0.128
-742.127	-138.912	0.281	-0.031
-741.112	166.751	0.122	-0.177
-740.098	-40.095	0.155	0.083
-739.083	-14.293	0.292	0.193
-738.069	761.320	-0.162	0.450
-737.054	200.488	0.103	0.163
-736.039	163.186	-0.195	-0.281
-735.025	-200.000	0.087	0.409
-734.010	-200.000	0.045	-0.487
-732.996	-200.000	0.063	-0.342
-731.981	-19.595	0.100	-0.063
-730.966	321.071	-0.076	-0.148
-729.952	95.536	-0.315	-0.368
-728.937	209.973	-0.042	-0.067
-727.923	-50.769	-0.087	0.042
-726.908	-13.868	0.266	0.176
-725.894	329.561	0.079	-0.155
-724.879	-9.436	-0.155	0.106
-723.864	268.861	-0.181	-0.326
-722.850	-200.000	0.057	0.344
-721.835	235.029	-0.148	0.250
-720.821	-200.000	-0.042	-0.222
-719.806	235.284	-0.172	-0.291
-718.791	-24.952	0.128	0.078
-717.777	3.483	-0.184	0.138
-716.762	-200.000	0.010	-0.213
-715.748	-200.000	0.002	-0.150
-714.733	246.441	-0.144	-0.249
-713.718	0.076	0.054	-0.040
-712.704	39.669	-0.180	0.165
-711.689	243.038	0.067	0.114
-710.675	-200.000	0.018	0.111
-709.660	800.000	-0.051	0.167
-708.645	33.311	0.121	0.108
-707.631	-99.962	-0.111	-0.028
-706.616	67.962	-0.034	0.035
-705.602	800.000	0.029	-0.084
-704.587	55.025	-0.169	-0.167
-703.572	800.000	0.053	-0.238
-702.558	465.216	-0.070	-0.161
-701.543	106.727	0.267	0.325
-700.529	-60.105	-0.257	0.112
-699.514	109.670	0.258	-0.316
-698.499	-38.764	0.221	0.119
-697.485	800.000	-0.123	-0.395
-696.470	-200.000	0.014	-0.174
-695.456	105.651	0.125	-0.152
-694.441	126.752	0.081	-0.105
-693.426	-50.041	0.073	0.035
-692.412	-200.000	0.019	0.205
-691.397	598.958	-0.106	0.269
-690.383	-200.000	-0.040	-0.232
-689.368	-122.824	0.161	-0.026
-688.354	-53.911	-0.072	0.033
-687.339	-127.429	-0.559	0.083
-686.324	-76.697	-0.243	-0.087
-685.310	-136.049	-0.200	-0.024
-684.295	-200.000	0.108	-0.489
-683.281	-33.728	-0.100	-0.056
-682.266	31.837	-0.244	0.215
-681.251	-122.607	-0.080	0.013
-680.237	-44.048	-0.171	0.088
-679.222	353.720	-0.113	-0.230
-678.208	-200.000	0.011	-0.057
-677.193	-84.128	0.174	0.056
-676.178	-23.973	0.117	-0.072
-675.164	-200.000	0.002	0.021
-674.149	702.758	-0.078	-0.210
-673.135	169.689	-0.072	0.105
-672.120	55.175	-0.307	0.303
-671.105	125.282	-0.090	-0.116
-670.091	-48.661	0.448	-0.220
-669.076	135.596	-0.260	-0.346
-668.062	108.758	-0.034	0.041
-667.047	800.000	0.057	-0.172
-666.032	-113.212	-0.143	0.029
-665.018	-102.638	0.510	-0.124
-664.003	18.336	0.172	0.140
-662.989	64.634	-0.274	-0.282
-661.974	-107.411	-0.204	-0.046
-660.959	46.931	-0.110	-0.105
-659.945	-71.795	-0.097	-0.037
-658.930	-97.245	0.287	-0.076
-657.916	-28.612	-0.124	0.073
-656.901	254.910	0.086	-0.151
-655.886	330.357	-0.160	0.314
-654.872	185.006	-0.110	-0.167
-653.857	46.468	0.100	-0.095
-652.843	31.164	0.166	0.145
-651.828	-35.537	0.159	-0.088
-650.814	156.497	0.081	0.114
-649.799	800.000	0.092	0.313
-648.784	-200.000	0.015	-0.107
-647.770	-80.943	0.340	-0.115
-646.755	202.514	0.123	-0.194
-645.741	-115.145	-0.074	-0.014
-644.726	-23.813	0.120	-0.073
-643.711	-32.104	0.187	-0.106
-642.697	800.000	0.053	-0.222
-641.682	152.001	-0.073	0.102
-640.668	24.350	-0.329	-0.277
-639.653	26.270	0.141	-0.121
-638.638	800.000	-0.047	-0.193
-637.624	-55.806	-0.062	-0.028
-636.609	-113.135	-0.096	-0.019
-635.595	499.878	0.041	-0.095
-634.580	-130.604	-0.144	-0.020
-633.565	-66.476	-0.181	0.074
-632.551	97.179	-0.085	0.100
-631.536	31.149	0.061	-0.054
-630.522	-200.000	0.019	-0.156
-629.507	-53.167	-0.280	0.131
-628.492	-167.237	-0.268	-0.011
-627.478	107.847	-0.181	-0.220
-626.463	800.000	-0.006	0.020
-625.449	-78.971	0.073	0.025
-624.434	533.882	0.126	-0.305
-623.419	-6.280	-0.087	-0.061
-622.405	-117.988	0.415	-0.076
-621.390	227.761	-0.068	0.113
-620.376	-165.136	0.028	0.001
-619.361	-178.685	-0.314	-0.007
-618.346	-70.919	0.259	-0.099
-617.332	-28.438	0.091	-0.053
-616.317	198.367	-0.069	0.108
-615.303	113.553	-0.036	0.045
-614.288	-200.000	0.022	-0.138
-613.273	329.549	-0.164	0.322
-612.259	-200.000	-0.030	-0.367
-611.244	109.150	-0.072	0.088
-610.230	-81.179	0.313	-0.106
-609.215	635.137	-0.085	0.221
-608.201	30.739	-0.111	-0.097
-607.186	90.292	0.115	-0.131
-606.171	-200.000	0.037	-0.177
-605.157	10.112	0.141	0.109
-604.142	13.356	0.399	0.315
-603.128	-44.481	0.135	0.069
-602.113	71.736	0.217	0.230
-601.098	-52.696	-0.172	0.081
-600.084	-64.334	0.156	0.065
-599.069	153.217	-0.121	-0.169
-598.055	-200.000	0.013	0.186
-597.040	25.671	-0.234	-0.199
-596.025	-200.000	0.050	-0.394
-595.011	143.159	0.185	-0.251
-593.996	-124.630	0.132	-0.021
-592.982	-111.213	0.100	0.021
-591.967	-118.753	-0.330	0.059
-590.952	-86.979	-0.242	0.075
-589.938	-125.038	-0.268	0.042
-588.923	-118.621	0.288	-0.052
-587.909	800.000	-0.139	0.406
-586.894	117.458	-0.340	-0.426
-585.879	800.000	0.034	-0.133
-584.865	62.950	-0.234	0.239
-583.850	-34.010	-0.192	0.107
-582.836	-44.429	0.299	0.152
-581.821	-14.806	-0.200	0.131
-580.806	-157.136	-0.039	0.002
-579.792	800.000	-0.094	-0.319
-578.777	-22.330	0.139	0.086
-577.763	-138.780	0.105	0.012
-576.748	-67.405	-0.139	0.055
-575.733	-59.740	0.287	-0.125
-574.719	-109.235	0.244	0.053
-573.704	-43.177	0.052	0.027
-572.690	699.342	0.060	-0.160
-571.675	-106.695	0.366	0.083
-570.661	37.230	0.248	-0.223
-569.646	-67.903	0.265	0.105
-568.631	-135.571	-0.164	0.020
-567.617	-200.000	0.018	0.149
-566.602	400.870	-0.161	0.343
-565.588	272.333	-0.063	0.113
-564.573	126.062	0.054	0.069
-563.558	-92.208	-0.460	0.132
-562.544	-146.948	-0.057	0.005
-561.529	-37.623	-0.309	0.168
-560.515	-14.730	0.196	-0.128
-559.500	172.403	-0.110	-0.161
-558.485	-55.090	-0.125	-0.057
-557.471	-144.873	0.021	0.002
-556.456	800.000	0.090	0.304
-555.442	800.000	0.138	0.388
-554.427	-62.435	0.002	-0.001
-553.412	175.687	-0.199	0.294
-552.398	184.330	-0.061	0.093
-551.383	-124.643	0.161	-0.025
-550.369	800.000	0.048	0.175
-549.354	-102.987	0.022	0.005
-548.339	-107.786	0.157	-0.035
-547.325	-104.961	0.222	0.052
-546.310	-134.706	0.352	0.044
-545.296	-200.000	0.026	-0.313
-544.281	73.382	-0.136	-0.145
-543.266	79.475	-0.215	-0.235
-542.252	800.000	0.054	0.185
-541.237	800.000	-0.092	-0.292
-540.223	308.449	-0.159	0.301
-539.208	-28.798	-0.238	0.139
-538.193	673.703	0.235	0.619
-537.179	-200.000	-0.019	-0.090
-536.164	73.910	0.176	-0.188
-535.150	15.570	0.243	-0.194
-534.135	800.000	-0.048	-0.177
-533.121	704.952	0.061	-0.163
-532.106	361.262	0.054	-0.110
-531.091	-200.000	0.033	0.159
-530.077	-122.024	-0.335	0.056
-529.062	-154.017	-0.462	0.032
-528.048	-163.241	0.376	-0.018
-527.033	800.000	0.134	-0.392
-526.018	-71.053	-0.425	-0.162
-525.004	-200.000	-0.029	0.235
-523.989	282.112	-0.186	-0.339
-522.975	619.787	-0.034	-0.087
-521.960	-85.714	0.220	-0.070
-520.945	-74.269	0.207	0.076
-519.931	-108.727	-0.324	-0.071
-518.916	475.458	-0.147	0.336
-517.902	-140.223	-0.291	-0.031
-516.887	423.700	-0.189	0.412
-515.872	-200.000	-0.021	-0.410
-514.858	800.000	0.110	-0.425
-513.843	18.484	-0.239	0.194
-512.829	436.592	-0.088	-0.195
-511.814	0.784	0.312	-0.227
-510.799	375.594	0.193	-0.400
-509.785	-70.522	0.091	0.035
-508.770	0.520	-0.055	-0.040
-507.756	126.922	0.018	-0.023
-506.741	-84.194	0.240	0.077
-505.726	253.093	-0.077	-0.133
-504.712	60.384	0.111	0.112
-503.697	-167.426	0.038	0.002
-502.683	-43.756	0.085	0.043
-501.668	-200.000	-0.039	-0.307
-500.653	-184.575	-0.259	-0.004
-499.639	-200.000	-0.036	-0.338
-498.624	-200.000	0.006	-0.067
-497.610	800.000	0.051	0.213
-496.595	-159.861	-0.313	0.017
-495.581	-200.000	-0.063	-0.457
-494.566	58.509	-0.055	-0.055
-493.551	-200.000	-0.001	0.456
-492.537	-200.000	-0.042	0.243
-491.522	13.134	0.382	0.300
-490.508	-32.318	0.260	-0.147
-489.493	-200.000	-0.001	0.170
-488.478	20.293	0.232	0.190
-487.464	-107.633	-0.208	-0.046
-486.449	-108.051	0.215	0.047
-485.435	-75.335	0.194	0.070
-484.420	800.000	-0.090	0.298
-483.405	81.674	-0.072	-0.079
-482.391	-130.767	-0.501	-0.068
-481.376	-155.522	0.119	0.008
-480.362	-200.000	-0.016	0.135
-479.347	-148.218	0.311	-0.026
-478.332	-4.573	0.206	0.144
-477.318	-200.000	-0.008	0.278
-476.303	-103.755	-0.182	-0.043
-475.289	-200.000	0.041	0.294
-474.274	-71.622	0.274	0.104
-473.259	-89.649	-0.146	-0.043
-472.245	-200.000	-0.024	-0.147
-471.230	91.440	-0.098	0.111
-470.216	111.694	0.092	0.113
-469.201	-200.000	0.009	-0.140
-468.186	13.308	0.038	-0.030
-467.172	-200.000	0.005	0.024
-466.157	156.671	0.152	-0.213
-465.143	5.561	0.084	-0.063
-464.128	112.939	0.068	0.083
-463.113	21.081	-0.061	-0.050
-462.099	649.589	0.029	-0.076
-461.084	-125.943	0.296	-0.045
-460.070	-41.274	-0.095	0.050
-459.055	-138.831	0.205	0.023
-458.040	157.775	0.055	0.078
-457.026	463.927	0.103	-0.234
-456.011	-200.000	0.005	0.272
-454.997	-55.595	-0.165	-0.075
-453.982	706.017	0.051	-0.135
-452.968	-200.000	-0.008	-0.111
-451.953	207.281	0.164	-0.260
-450.938	185.148	0.109	0.164
-449.924	800.000	0.039	0.156
-448.909	-73.877	0.151	0.055
-447.895	-125.632	0.150	0.023
-446.880	95.912	-0.098	-0.113
-445.865	119.456	0.163	-0.205
-444.851	-80.568	0.114	0.038
-443.836	357.027	-0.180	0.364
-442.822	-30.728	0.272	0.156
-441.807	-117.891	-0.158	0.029
-440.792	271.099	0.177	0.315
-439.778	38.126	-0.191	-0.172
-438.763	-114.656	-0.218	0.042
-437.749	502.355	-0.066	0.156
-436.734	800.000	0.042	-0.187
-435.719	-186.612	0.252	0.004
-434.705	-124.476	-0.274	-0.043
-433.690	-200.000	0.054	0.305
-432.676	800.000	-0.118	-0.407
-431.661	81.118	0.079	-0.087
-430.646	-71.208	0.138	-0.053
-429.632	-37.879	-0.072	-0.039
-428.617	297.110	-0.122	-0.227
-427.603	-53.791	0.047	0.022
-426.588	42.039	0.169	-0.155
-425.573	19.511	0.097	-0.079
-424.559	-90.544	0.275	-0.081
-423.544	7.521	0.164	0.124
-422.530	112.869	-0.069	-0.084
-421.515	-96.735	-0.091	0.024
-420.500	-101.310	-0.229	-0.057
-419.486	47.214	0.059	-0.056
-418.471	59.285	0.190	0.189
-417.457	-1.115	-0.267	-0.191
-416.442	207.170	0.075	-0.119
-415.428	37.490	0.106	-0.095
-414.413	272.878	-0.069	0.123
-413.398	-34.092	-0.187	-0.104
-412.384	-154.479	0.238	-0.016
-411.369	-38.515	0.058	-0.031
-410.355	-50.811	-0.118	-0.056
-409.340	800.000	-0.053	0.155
-408.325	-125.329	0.081	0.013
-407.311	-200.000	-0.011	0.057
-406.296	-93.898	-0.215	-0.060
-405.282	372.056	0.047	-0.096
-404.267	16.757	0.091	0.073
-403.252	80.996	0.167	0.182
-402.238	-200.000	-0.062	-0.416
-401.223	800.000	0.085	-0.324
-400.209	385.910	0.074	-0.155
-399.194	-182.718	0.231	-0.004
-398.179	635.807	-0.058	-0.148
-397.165	305.956	-0.044	0.083
-396.150	800.000	0.087	0.245
-395.136	229.301	0.060	-0.099
-394.121	136.985	-0.186	0.246
-393.106	16.334	0.222	-0.177
-392.092	-200.000	-0.060	-0.324
-391.077	-129.841	-0.236	-0.033
-390.063	-58.665	-0.271	0.119
-389.048	92.970	-0.092	-0.105
-388.033	-24.933	-0.124	-0.075
-387.019	233.210	0.156	-0.260
-386.004	261.255	0.083	-0.146
-384.990	-152.861	-0.310	-0.022
-383.975	87.144	0.077	0.086
-382.960	88.499	-0.081	0.091
-381.946	122.710	0.163	-0.206
-380.931	-200.000	-0.003	0.076
-379.917	-126.490	-0.078	-0.012
-378.902	-133.967	-0.264	0.033
-377.888	-200.000	0.022	0.131
-376.873	-109.911	-0.225	-0.048
-375.858	-145.020	0.189	0.017
-374.844	-200.000	0.002	-0.106
-373.829	800.000	0.029	0.120
-372.815	77.331	-0.243	-0.261
-371.800	-200.000	0.033	-0.168
-370.785	554.049	-0.075	-0.183
-369.771	245.685	-0.052	-0.088
-368.756	-114.119	0.139	0.027
-367.742	-200.000	-0.067	-0.336
-366.727	-200.000	0.057	0.295
-365.712	172.503	0.092	-0.133
-364.698	800.000	-0.065	-0.226
-363.683	-91.953	0.207	0.059
-362.669	77.003	0.084	-0.090
-361.654	-141.888	-0.208	0.021
-360.639	-200.000	0.010	0.100
-359.625	382.906	0.048	-0.099
-358.610	-98.094	0.506	-0.132
-357.596	31.557	0.161	0.140
-356.581	368.984	0.148	-0.303
-355.566	33.946	0.334	-0.293
-354.552	-37.387	0.320	0.172
-353.537	-81.365	-0.154	-0.051
-352.523	800.000	-0.108	-0.316
-351.508	800.000	0.038	0.118
-350.493	92.800	-0.139	0.158
-349.479	365.514	-0.062	-0.126
-348.464	-9.532	-0.137	-0.092
-347.450	-200.000	-0.014	0.204
-346.435	-138.173	0.156	-0.017
-345.420	-46.269	0.156	0.077
-344.406	-50.656	-0.176	-0.084
-343.391	-78.497	-0.171	-0.059
-342.377	-200.000	-0.077	0.000
-341.362	173.403	-0.244	0.355
-340.348	-200.000	0.008	0.404
-339.333	63.208	-0.063	0.063
-338.318	800.000	0.124	-0.373
-337.304	-65.145	-0.119	-0.048
-336.289	-121.544	0.286	-0.048
-335.275	-200.000	-0.022	-0.222
-334.260	2.908	-0.147	0.108
-333.245	640.913	0.083	0.214
-332.231	297.189	-0.065	-0.121
-331.216	-48.516	-0.064	-0.031
-330.202	-200.000	0.036	0.217
-329.187	99.502	-0.331	0.386
-328.172	-15.436	0.031	-0.020
-327.158	557.154	-0.042	0.102
-326.143	394.720	-0.033	0.068
-325.129	24.792	0.129	-0.108
-324.114	-54.323	0.239	0.109
-323.099	5.194	0.058	0.043
-322.085	-19.077	0.209	0.131
-321.070	-200.000	0.031	0.270
-320.056	307.546	-0.102	0.191
-319.041	-72.812	-0.071	-0.026
-318.026	-24.431	-0.036	0.022
-317.012	-200.000	0.010	-0.048
-315.997	800.000	0.026	-0.100
-314.983	313.289	-0.078	0.147
-313.968	-166.875	0.203	-0.008
-312.953	124.592	0.143	-0.181
-311.939	-134.307	-0.393	-0.049
-310.924	67.007	-0.087	0.090
-309.910	486.874	0.125	0.287
-308.895	152.819	0.027	0.038
-307.880	-200.000	0.052	0.249
-306.866	-38.106	0.099	0.053
-305.851	174.225	-0.088	0.128
-304.837	-13.043	-0.056	-0.037
-303.822	-165.480	0.103	-0.005
-302.807	510.147	0.125	-0.292
-301.793	117.498	0.235	-0.291
-300.778	98.376	0.173	-0.201
-299.764	800.000	0.133	0.437
-298.749	-200.000	0.028	0.165
-297.735	108.166	-0.118	0.141
-296.720	87.948	0.095	0.106
-295.705	76.542	0.078	0.083
-294.691	109.697	0.192	0.231
-293.676	206.119	-0.156	0.244
-292.662	-3.999	0.174	-0.122
-291.647	32.790	-0.207	-0.180
-290.632	253.356	-0.120	0.207
-289.618	-8.945	-0.052	0.035
-288.603	800.000	0.042	-0.152
-287.589	800.000	0.122	-0.376
-286.574	742.736	0.046	0.125
-285.559	-193.420	0.418	-0.004
-284.545	-163.230	-0.189	0.009
-283.530	-47.925	0.204	-0.099
-282.516	-85.862	-0.104	0.032
-281.501	113.786	-0.136	-0.166
-280.486	-16.828	0.189	0.121
-279.472	167.140	0.189	0.269
-278.457	-200.000	-0.026	0.326
-277.443	-200.000	0.019	0.162
-276.428	-34.589	-0.253	0.139
-275.413	-129.781	-0.168	0.023
-274.399	800.000	-0.057	-0.198
-273.384	-200.000	0.019	-0.176
-272.370	8.273	-0.218	-0.165
-271.355	-110.445	-0.196	0.041
-270.340	-30.792	0.130	0.074
-269.326	36.102	-0.096	0.085
-268.311	-79.883	0.251	0.085
-267.297	-119.707	-0.391	0.068
-266.282	-3.436	0.324	-0.227
-265.267	149.138	-0.221	-0.301
-264.253	800.000	0.072	0.281
-263.238	492.983	-0.122	0.281
-262.224	602.114	0.036	-0.091
-261.209	-106.988	0.216	0.048
-260.195	431.104	0.079	-0.172
-259.180	32.050	-0.107	-0.093
-258.165	90.563	-0.095	-0.107
-257.151	66.549	0.204	0.208
-256.136	-0.393	-0.278	-0.199
-255.122	174.703	-0.165	-0.240
-254.107	800.000	-0.072	0.305
-253.092	-153.124	-0.115	-0.008
-252.078	-200.000	0.023	-0.168
-251.063	-47.219	-0.162	0.079
-250.049	-90.260	0.404	0.118
-249.034	245.642	-0.112	0.190
-248.019	-200.000	0.078	-0.629
-247.005	-200.000	-0.043	-0.239
-245.990	-200.000	0.033	-0.150
-244.976	-200.000	0.215	0.001
-243.961	-10.184	0.154	-0.103
-242.946	83.055	-0.117	0.128
-241.932	44.091	-0.031	0.029
-240.917	-50.953	0.208	0.098
-239.903	13.581	-0.348	0.272
-238.888	-200.000	-0.013	0.266
-237.873	18.874	-0.180	0.145
-236.859	-49.401	0.255	-0.122
-235.844	96.733	0.149	-0.172
-234.830	252.568	-0.077	-0.131
-233.815	302.588	0.133	-0.247
-232.800	732.129	-0.023	0.062
-231.786	-200.000	0.015	-0.076
-230.771	-200.000	0.001	0.018
-229.757	-72.578	-0.084	-0.031
-228.742	-17.481	-0.324	-0.205
-227.727	800.000	-0.054	0.214
-226.713	-88.264	0.378	-0.114
-225.698	-17.888	0.060	0.038
-224.684	216.206	-0.175	-0.279
-223.669	134.828	0.136	-0.177
-222.655	254.361	0.088	0.151
-221.640	-129.533	-0.168	-0.023
-220.625	-38.864	-0.115	-0.061
-219.611	-200.000	-0.074	-0.482
-218.596	-125.703	-0.302	0.046
-217.582	304.899	-0.155	-0.290
-216.567	16.123	0.355	-0.281
-215.552	-112.438	-0.190	-0.038
-214.538	-152.035	0.062	0.005
-213.523	-200.000	0.045	0.397
-212.509	-174.259	-0.022	0.001
-211.494	-200.000	-0.017	0.262
-210.479	-183.368	-0.173	0.003
-209.465	-154.710	-0.197	0.013
-208.450	-200.000	0.030	-0.187
-207.436	118.115	0.109	0.134
-206.421	-200.000	-0.029	0.294
-205.406	-200.000	0.015	-0.203
-204.392	-47.410	0.105	0.051
-203.377	-27.542	-0.176	-0.102
-202.363	-56.407	0.143	0.064
-201.348	-200.000	-0.020	0.256
-200.333	-200.000	-0.037	0.287
-199.319	-124.544	0.056	0.009
-198.304	-128.367	0.168	0.024
-197.290	224.693	-0.032	0.052
-196.275	-178.976	-0.212	0.005
-195.260	11.534	-0.212	0.163
-194.246	-93.539	-0.300	0.083
-193.231	-171.752	-0.205	-0.007
-192.217	186.089	0.055	-0.082
-191.202	225.864	-0.058	-0.094
-190.187	196.465	-0.091	0.139
-189.173	-78.078	0.097	0.034
-188.158	-130.115	0.123	0.017
-187.144	-116.317	0.163	0.030
-186.129	38.846	0.116	0.103
-185.114	154.840	-0.063	0.087
-184.100	-7.230	0.228	-0.155
-183.085	-37.081	0.282	0.151
-182.071	-200.000	-0.003	-0.061
-181.056	177.824	-0.092	-0.134
-180.042	6.597	-0.169	0.126
-179.027	252.186	-0.071	-0.122
-178.012	-92.773	-0.199	0.056
-176.998	107.814	-0.232	0.278
-175.983	-52.314	0.169	-0.079
-174.969	-102.311	-0.202	-0.049
-173.954	-120.250	-0.308	-0.053
-172.939	-167.300	0.108	0.004
-171.925	-97.799	-0.066	-0.017
-170.910	800.000	-0.158	0.482
-169.896	-49.803	-0.333	-0.159
-168.881	-76.311	-0.192	-0.068
-167.866	-122.294	-0.200	-0.033
-166.852	-200.000	0.099	0.583
-165.837	800.000	-0.081	0.276
-164.823	-24.351	-0.045	-0.027
-163.808	-200.000	0.031	0.267
-162.793	-200.000	-0.060	0.306
-161.779	-35.255	0.202	0.110
-160.764	-200.000	0.000	-0.086
-159.750	-69.634	0.059	-0.023
-158.735	148.035	-0.030	0.041
-157.720	0.387	-0.313	0.224
-156.706	-200.000	0.007	0.161
-155.691	-57.047	-0.178	-0.078
-154.677	-150.571	0.139	-0.011
-153.662	-200.000	-0.025	0.273
-152.647	-200.000	-0.066	-0.311
-151.633	7.022	0.155	0.115
-150.618	-42.708	-0.065	-0.033
-149.604	307.047	0.192	0.357
-148.589	-109.920	0.234	-0.049
-147.574	14.782	0.087	-0.068
-146.560	71.372	-0.075	-0.078
-145.545	-183.287	-0.538	-0.009
-144.531	130.076	-0.081	-0.103
-143.516	-94.234	0.261	0.071
-142.502	83.154	-0.137	0.149
-141.487	-122.429	0.136	-0.022
-140.472	-72.638	-0.092	0.034
-139.458	226.361	-0.256	0.416
-138.443	800.000	-0.019	0.070
-137.429	-121.888	-0.202	-0.033
-136.414	-34.686	0.141	0.077
-135.399	-64.610	-0.163	-0.066
-134.385	-92.643	-0.123	-0.035
-133.370	-200.000	0.002	0.511
-132.356	800.000	0.088	0.308
-131.341	31.839	0.238	-0.205
-130.326	-200.000	-0.046	-0.264
-129.312	11.828	0.190	0.146
-128.297	800.000	-0.103	-0.295
-127.283	-71.707	0.138	0.052
-126.268	252.112	-0.060	-0.102
-125.253	500.858	-0.045	-0.105
-124.239	-200.000	-0.056	-0.257
-123.224	-200.000	-0.010	-0.166
-122.210	99.899	0.108	0.125
-121.195	714.460	0.089	0.235
-120.180	-110.192	-0.197	-0.041
-119.166	3.271	-0.277	-0.201
-118.151	476.933	0.008	-0.018
-117.137	-12.859	0.135	0.088
-116.122	-200.000	0.031	-0.159
-115.107	92.874	-0.200	0.226
-114.093	-200.000	-0.015	0.137
-113.078	-40.729	-0.100	-0.052
-112.064	-200.000	0.049	0.448
-111.049	-200.000	-0.028	0.175
-110.034	471.702	-0.168	0.378
-109.020	-62.259	0.064	-0.026
-108.005	-156.406	-0.215	0.013
-106.991	351.358	0.071	0.141
-105.976	800.000	-0.063	-0.224
-104.962	-200.000	-0.006	0.395
-103.947	112.288	-0.169	-0.204
-102.932	-200.000	0.070	-0.382
-101.918	345.897	0.156	0.307
-100.903	663.386	-0.094	0.242
-99.889	800.000	-0.030	-0.114
-98.874	-122.935	0.209	0.034
-97.859	-106.721	-0.425	0.094
-96.845	351.172	0.118	-0.233
-95.830	43.106	-0.033	0.030
-94.816	-200.000	0.036	0.454
-93.801	456.853	0.123	0.272
-92.786	-200.000	0.019	-0.118
-91.772	-18.740	0.097	0.060
-90.757	-185.858	0.146	-0.002
-89.743	-20.243	-0.066	0.040
-88.728	710.739	-0.176	-0.465
-87.713	303.656	0.122	-0.226
-86.699	493.604	-0.038	-0.088
-85.684	199.096	-0.119	-0.183
-84.670	800.000	-0.053	0.205
-83.655	-14.310	-0.075	-0.048
-82.640	-200.000	-0.048	-0.214
-81.626	-171.085	0.086	-0.003
-80.611	22.326	-0.136	0.111
-79.597	82.105	-0.180	0.194
-78.582	-200.000	-0.048	0.291
-77.567	800.000	0.012	-0.035
-76.553	22.032	-0.363	-0.296
-75.538	-93.971	-0.236	0.065
-74.524	-138.678	-0.100	0.011
-73.509	-55.691	0.047	0.021
-72.494	39.328	0.141	-0.126
-71.480	194.559	-0.082	0.125
-70.465	93.341	-0.081	0.091
-69.451	-200.000	0.033	0.230
-68.436	-81.266	-0.333	0.110
-67.422	-200.000	-0.002	-0.281
-66.407	-200.000	-0.017	-0.184
-65.392	-200.000	-0.042	0.287
-64.378	-200.000	-0.014	0.168
-63.363	387.775	-0.072	-0.148
-62.349	531.905	-0.113	0.267
-61.334	116.094	-0.861	-1.052
-60.319	163.359	0.200	0.280
-59.305	-200.000	-0.030	-0.580
-58.290	-23.878	0.656	0.392
-57.276	800.000	0.473	1.348
-56.261	-200.000	75.696	550.680
-55.246	568.666	1308.842	3172.520
-54.232	147.567	2520.153	3386.058
-53.217	122.015	2234.197	2781.315
-52.203	54.462	1753.588	1684.949
-51.188	46.342	1548.491	1431.635
-50.173	43.692	1518.087	1385.355
-49.159	60.694	1554.362	1536.170
-48.144	67.195	1574.073	1600.391
-47.130	47.018	1537.232	1425.666
-46.115	43.106	1523.218	1385.792
-45.100	43.005	1519.852	1381.980
-44.086	42.833	1518.341	1379.373
-43.071	42.931	1516.040	1377.903
-42.057	42.717	1514.319	1374.820
-41.042	42.871	1512.522	1374.185
-40.027	42.905	1510.966	1372.949
-39.013	42.783	1509.606	1370.829
-37.998	42.708	1508.724	1369.460
-36.984	42.779	1507.387	1368.675
-35.969	42.926	1506.185	1368.526
-34.954	42.955	1504.492	1367.129
-33.940	42.928	1503.304	1365.813
-32.925	42.933	1501.580	1364.230
-31.911	42.891	1499.921	1362.383
-30.896	43.034	1498.763	1362.248
-29.881	42.956	1497.715	1360.714
-28.867	43.024	1495.894	1359.462
-27.852	42.977	1494.924	1358.209
-26.838	43.012	1493.239	1356.856
-25.823	42.999	1491.734	1355.348
-24.809	42.912	1490.048	1353.179
-23.794	42.949	1488.474	1351.944
-22.779	42.913	1487.688	1350.936
-21.765	42.912	1486.698	1349.976
-20.750	42.930	1485.989	1349.399
-19.736	43.016	1484.309	1348.396
-18.721	42.899	1483.429	1346.760
-17.706	42.964	1481.645	1345.525
-16.692	42.818	1480.858	1343.778
-15.677	42.829	1479.884	1342.918
-14.663	42.811	1479.326	1342.238
-13.648	42.887	1477.710	1341.222
-12.633	42.822	1476.638	1339.764
-11.619	42.806	1476.594	1339.566
-10.604	42.930	1474.878	1338.780
-9.590	42.822	1474.336	1337.519
-8.575	42.852	1473.669	1337.061
-7.560	42.922	1472.756	1336.638
-6.546	42.810	1472.225	1335.364
-5.531	42.831	1471.322	1334.632
-4.517	42.860	1469.951	1333.528
-3.502	42.917	1469.089	1333.065
-2.487	42.882	1467.896	1331.703
-1.473	42.901	1466.402	1330.417
-0.458	42.889	1465.293	1329.281
0.556	40.342	1455.231	1314.322
1.571	35.814	1424.857	1257.266
2.586	29.871	1358.302	1161.270
3.600	26.489	1273.689	1068.899
4.615	24.254	1224.445	1014.772
5.629	20.998	1170.689	952.382
6.644	14.041	1087.408	849.135
7.659	8.141	1044.825	786.774
8.673	7.189	1039.319	777.882
9.688	6.993	1036.379	774.655
10.702	6.845	1034.806	772.685
11.717	6.764	1033.555	771.286
12.731	9.054	1035.886	784.159
13.746	14.951	1043.297	818.638
14.761	18.358	1046.538	837.808
15.775	17.692	1045.527	833.667
16.790	16.704	1043.390	827.065
17.804	15.610	1041.139	819.872
18.819	14.616	1039.135	813.379
19.834	14.131	1037.808	809.907
20.848	13.794	1036.649	807.294
21.863	13.633	1035.884	805.843
22.877	13.302	1035.387	803.776
23.892	13.175	1034.446	802.358
24.907	13.135	1033.238	801.156
25.921	13.099	1032.473	800.315
26.936	13.149	1031.961	800.091
27.950	13.185	1031.197	799.601
28.965	13.304	1029.838	799.052
29.980	13.341	1028.707	798.281
30.994	13.321	1027.566	797.230
32.009	13.479	1026.672	797.226
33.023	13.547	1026.021	796.978
34.038	13.502	1025.437	796.240
35.053	13.437	1024.408	795.056
36.067	13.309	1023.875	793.960
37.082	13.372	1022.878	793.417
38.096	13.277	1022.312	792.453
39.111	13.332	1021.498	792.014
40.126	13.434	1020.285	791.494
41.140	13.272	1019.619	790.132
42.155	13.173	1018.473	788.698
43.169	13.219	1017.071	787.765
44.184	13.096	1016.470	786.643
45.199	13.059	1015.314	785.500
46.213	13.235	1013.586	784.931
47.228	13.201	1012.843	784.126
48.242	13.200	1012.075	783.456
49.257	13.246	1011.203	782.930
50.271	13.266	1010.059	782.069
51.286	13.276	1009.142	781.339
52.301	13.302	1008.582	780.957
53.315	13.368	1007.677	780.499
54.330	13.281	1007.064	779.547
55.344	13.058	1006.251	777.796
56.359	13.209	1005.217	777.641
57.374	13.157	1004.742	776.960
58.388	13.178	1003.822	776.277
59.403	13.183	1002.380	775.114
60.417	13.070	1002.105	774.304
61.432	13.147	1001.612	774.218
62.447	13.249	1000.399	773.690
63.461	13.155	999.862	772.766
64.476	13.028	998.766	771.255
65.490	12.861	998.333	770.072
66.505	12.973	997.722	770.058
67.520	13.083	996.731	769.738
68.534	13.042	996.178	769.051
69.549	13.090	995.396	768.603
70.563	13.108	994.826	768.179
71.578	13.091	993.836	767.265
72.593	13.040	992.875	766.221
73.607	13.028	991.767	765.242
74.622	12.958	991.181	764.399
75.636	12.952	990.360	763.669
76.651	12.935	989.357	762.752
77.666	12.854	989.332	762.286
78.680	12.885	988.149	761.452
79.695	12.998	987.462	761.377
80.709	13.086	987.270	761.566
81.724	12.926	986.055	759.828
82.739	13.009	985.383	759.622
83.753	13.096	984.868	759.557
84.768	13.252	983.980	759.525
85.782	13.236	983.120	758.718
86.797	13.435	982.596	759.162
87.812	13.242	982.117	757.839
88.826	13.348	981.148	757.508
89.841	13.236	980.374	756.330
90.855	13.296	979.263	755.681
91.870	13.423	978.704	755.765
92.884	13.296	978.395	754.880
93.899	13.397	977.540	754.612
94.914	13.468	976.601	754.143
95.928	13.480	975.995	753.666
96.943	13.595	974.854	753.239
97.957	13.367	974.451	751.825
98.972	13.380	973.421	751.021
99.987	13.499	972.507	750.791
101.001	13.478	971.896	750.156
102.016	13.442	971.117	749.328
103.030	13.384	970.169	748.268
104.045	13.440	969.190	747.699
105.060	13.425	968.338	746.909
106.074	13.429	967.523	746.233
107.089	13.233	966.616	744.584
108.103	13.199	966.073	743.946
109.118	13.127	965.187	742.873
110.133	13.212	964.086	742.342
111.147	13.079	963.454	741.193
112.162	13.114	962.619	740.641
113.176	13.171	961.442	739.927
114.191	13.153	960.680	739.195
115.206	13.362	959.535	739.182
116.220	13.261	958.982	738.239
117.235	13.205	958.444	737.510
118.249	13.199	957.751	736.886
119.264	13.052	957.310	735.824
120.279	13.114	956.445	735.369
121.293	13.039	955.581	734.309
122.308	13.175	954.163	733.758
123.322	13.117	953.738	733.106
124.337	13.104	952.458	732.001
125.352	13.132	951.624	731.421
126.366	13.086	950.881	730.580
127.381	13.231	949.529	730.117
128.395	13.066	948.825	728.783
129.410	13.131	947.960	728.340
130.424	13.210	946.893	727.805
131.439	13.233	946.231	727.332
132.454	13.256	945.549	726.847
133.468	13.206	945.032	726.165
134.483	13.374	944.159	726.166
135.497	13.302	943.654	725.399
136.512	13.242	943.102	724.648
137.527	13.275	942.329	724.132
138.541	13.251	941.059	722.990
139.556	13.307	940.400	722.662
140.570	13.316	939.374	721.851
141.585	13.305	938.560	721.113
142.600	13.449	937.938	721.199
143.614	13.447	937.319	720.651
144.629	13.398	936.863	720.021
145.643	13.554	935.666	719.714
146.658	13.538	935.181	719.209
147.673	13.483	934.207	718.160
148.687	13.352	933.330	716.852
149.702	13.237	932.537	715.681
150.716	13.307	931.727	715.299
151.731	13.358	930.978	714.883
152.746	13.386	929.683	713.945
153.760	13.294	929.500	713.347
154.775	13.388	928.664	713.045
155.789	13.400	927.913	712.457
156.804	13.415	927.417	712.077
157.819	13.388	926.505	711.201
158.833	13.391	925.689	710.522
159.848	13.575	925.318	710.965
160.862	13.435	925.052	710.095
161.877	13.525	923.909	709.543
162.892	13.478	923.160	708.701
163.906	13.359	922.200	707.395
164.921	13.245	921.711	706.470
165.935	13.369	919.991	705.616
166.950	13.459	919.134	705.281
167.964	13.389	918.766	704.639
168.979	13.432	917.575	703.845
169.994	13.353	917.051	703.046
171.008	13.413	915.503	702.053
172.023	13.490	915.100	702.007
173.037	13.485	914.657	701.582
174.052	13.604	913.777	701.350
175.067	13.530	912.961	700.349
176.081	13.475	912.249	699.509
177.096	13.450	910.927	698.326
178.110	13.417	910.340	697.676
179.125	13.447	910.236	697.662
180.140	13.443	909.180	696.774
181.154	13.603	908.421	696.803
182.169	13.577	907.900	696.231
183.183	13.623	907.151	695.791
184.198	13.585	907.002	695.454
185.213	13.697	906.017	695.107
186.227	13.763	905.589	694.994
187.242	13.870	904.776	694.756
188.256	13.832	904.029	693.961
189.271	13.835	903.789	693.729
190.286	13.858	902.589	692.844
191.300	13.632	902.322	691.633
192.315	13.556	901.171	690.372
193.329	13.458	900.417	689.327
194.344	13.578	899.890	689.360
195.359	13.488	899.597	688.703
196.373	13.528	899.230	688.527
197.388	13.648	898.243	688.206
198.402	13.681	898.037	688.125
199.417	13.880	897.485	688.467
200.432	13.883	897.124	688.140
201.446	14.033	896.359	688.114
202.461	13.912	896.290	687.501
203.475	14.144	895.299	687.639
204.490	14.173	894.874	687.370
205.504	13.909	893.800	685.396
206.519	13.871	893.435	684.899
207.534	13.934	892.327	684.249
208.548	14.009	891.571	683.914
209.563	13.888	891.291	683.145
210.577	13.786	890.925	682.382
211.592	13.906	890.437	682.440
212.607	13.994	889.759	682.222
213.621	14.095	889.290	682.217
214.636	14.132	888.558	681.745
215.650	14.039	887.645	680.606
216.665	14.101	887.269	680.513
217.680	14.044	886.995	680.006
218.694	14.116	886.395	679.780
219.709	14.313	885.505	679.846
220.723	14.164	885.262	678.990
221.738	14.214	884.242	678.351
222.753	14.123	883.658	677.473
223.767	14.147	883.165	677.132
224.782	14.311	882.064	676.892
225.796	14.293	881.296	676.171
226.811	14.374	880.508	675.838
227.826	14.362	880.199	675.488
228.840	14.266	879.561	674.550
229.855	14.309	878.535	673.879
230.869	14.217	878.265	673.242
231.884	14.245	877.457	672.676
232.899	14.240	876.765	672.065
233.913	14.390	875.830	671.891
234.928	14.319	875.357	671.186
235.942	14.268	874.500	670.262
236.957	14.235	874.062	669.737
237.972	14.114	873.506	668.763
238.986	14.218	872.734	668.529
240.001	14.341	871.922	668.342
241.015	14.210	871.306	667.286
242.030	14.325	870.651	667.185
243.045	14.400	870.378	667.217
244.059	14.452	869.447	666.652
245.074	14.449	868.583	665.922
246.088	14.294	868.351	665.063
247.103	14.411	867.961	665.172
248.117	14.480	867.478	665.021
249.132	14.457	866.762	664.320
250.147	14.675	866.096	664.619
251.161	14.674	865.536	664.127
252.176	14.735	865.107	663.981
253.190	14.735	864.401	663.382
254.205	14.818	863.891	663.261
255.220	14.923	863.058	662.979
256.234	14.779	862.472	661.899
257.249	14.703	861.886	661.090
258.263	14.864	861.589	661.441
259.278	14.804	860.775	660.522
260.293	14.937	860.284	660.610
261.307	14.961	859.640	660.153
262.322	14.918	859.376	659.720
263.336	15.030	858.718	659.600
264.351	14.904	858.349	658.763
265.366	14.945	857.858	658.489
266.380	14.983	856.828	657.790
267.395	14.968	856.427	657.361
268.409	14.932	855.792	656.678
269.424	14.996	855.030	656.285
270.439	15.041	854.174	655.744
271.453	15.025	853.493	655.101
272.468	14.915	852.669	653.981
273.482	14.994	852.245	653.905
274.497	14.908	851.656	653.062
275.512	14.934	850.958	652.571
276.526	15.063	849.981	652.264
277.541	14.887	849.432	651.102
278.555	14.940	849.071	650.974
279.570	15.114	848.149	650.884
280.585	15.278	847.696	651.115
281.599	15.306	847.447	650.977
282.614	15.176	846.626	649.783
283.628	15.116	845.854	648.901
284.643	15.171	845.787	649.005
285.657	15.164	845.062	648.365
286.672	15.180	844.599	648.016
287.687	15.240	844.010	647.737
288.701	15.151	843.707	647.103
289.716	15.218	842.883	646.674
290.730	15.179	842.518	646.185
291.745	15.205	842.065	645.879
292.760	15.230	841.420	645.423
293.774	15.380	840.610	645.323
294.789	15.417	839.802	644.790
295.803	15.376	839.496	644.340
296.818	15.411	838.804	643.884
297.833	15.422	838.084	643.319
298.847	15.301	837.570	642.402
299.862	15.237	836.926	641.606
300.876	15.405	836.208	641.641
301.891	15.378	835.633	641.042
302.906	15.310	835.215	640.405
303.920	15.515	834.463	640.555
304.935	15.516	833.859	640.036
305.949	15.583	832.945	639.533
306.964	15.624	832.447	639.250
307.979	15.604	831.931	638.721
308.993	15.621	831.564	638.449
310.008	15.646	830.981	638.040
311.022	15.629	830.122	637.257
312.037	15.706	829.823	637.264
313.052	15.563	829.667	636.546
314.066	15.568	828.561	635.659
315.081	15.549	828.020	635.116
316.095	15.558	827.452	634.660
317.110	15.479	826.997	633.956
318.125	15.456	826.854	633.702
319.139	15.466	826.364	633.307
320.154	15.540	825.487	632.858
321.168	15.476	825.058	632.233
322.183	15.652	824.252	632.224
323.197	15.639	823.967	631.899
324.212	15.723	823.343	631.679
325.227	15.808	822.882	631.591
326.241	15.834	822.262	631.155
327.256	15.762	821.767	630.451
328.270	15.678	821.366	629.773
329.285	15.724	820.645	629.336
330.300	15.697	820.132	628.787
331.314	15.683	819.677	628.329
332.329	15.656	819.066	627.705
333.343	15.704	818.403	627.319
334.358	15.786	817.699	627.028
335.373	15.843	817.751	627.226
336.387	15.762	816.998	626.291
337.402	15.904	816.489	626.373
338.416	15.839	815.985	625.692
339.431	15.873	815.286	625.224
340.446	15.999	814.839	625.295
341.460	16.132	814.215	625.255
342.475	16.072	813.684	624.570
343.489	16.223	812.917	624.484
344.504	16.152	812.599	623.923
345.519	16.295	812.174	624.070
346.533	16.236	811.374	623.180
347.548	16.222	811.038	622.817
348.562	16.143	810.656	622.177
349.577	16.169	810.097	621.787
350.592	16.172	809.273	621.111
351.606	16.013	809.163	620.386
352.621	15.973	808.723	619.848
353.635	16.154	808.210	620.065
354.650	16.141	807.948	619.762
355.665	16.257	807.301	619.636
356.679	16.208	806.974	619.151
357.694	16.113	806.670	618.513
358.708	16.320	805.654	618.438
359.723	16.250	804.990	617.617
360.738	16.201	804.719	617.175
361.752	16.236	804.301	616.928
362.767	16.204	803.944	616.482
363.781	16.416	803.604	616.942
364.796	16.303	802.976	615.994
365.810	16.542	802.598	616.521
366.825	16.426	802.511	615.976
367.840	16.498	801.948	615.751
368.854	16.405	802.049	615.435
369.869	16.478	801.335	615.098
370.883	16.436	800.754	614.446
371.898	16.431	800.026	613.816
372.913	16.418	799.445	613.268
373.927	16.738	798.688	613.791
374.942	16.680	798.176	613.134
375.956	16.501	797.662	612.036
376.971	16.623	796.943	611.873
377.986	16.599	796.872	611.676
379.000	16.642	796.154	611.226
380.015	16.826	795.359	611.228
381.029	16.687	795.198	610.549
382.044	16.695	794.848	610.254
383.059	16.858	794.227	610.310
384.073	16.698	793.660	609.243
385.088	16.934	792.633	609.249
386.102	16.712	792.413	608.232
387.117	16.824	791.617	607.966
388.132	16.687	791.192	607.097
389.146	16.707	791.009	606.974
390.161	16.648	790.831	606.570
391.175	16.850	790.014	606.615
392.190	16.786	789.855	606.209
393.205	16.804	789.273	605.773
394.219	16.805	789.295	605.739
395.234	16.718	788.670	604.897
396.248	16.652	788.144	604.203
397.263	16.636	787.663	603.726
398.278	16.539	787.451	603.164
399.292	16.795	786.518	603.304
400.307	16.761	786.301	602.965
401.321	16.839	785.650	602.689
402.336	16.996	785.365	602.977
403.350	16.895	785.145	602.394
404.365	16.924	784.836	602.207
405.380	16.910	784.242	601.650
406.394	17.050	783.745	601.712
407.409	17.176	783.217	601.698
408.423	17.189	782.810	601.380
409.438	17.012	782.394	600.379
410.453	17.195	782.391	600.970
411.467	17.193	782.117	600.702
412.482	17.247	781.094	600.052
413.496	16.930	781.185	598.949
414.511	17.178	780.588	599.313
415.526	17.187	780.155	598.959
416.540	17.256	779.633	598.750
417.555	17.355	778.993	598.555
418.569	17.185	778.861	597.802
419.584	17.202	778.046	597.183
420.599	17.270	777.734	597.129
421.613	86.855	1252.620	1337.973
422.628	73.383	1321.818	1338.104
