DTS Sentinel unit serial number:	SN413079Multiplexer serial number:	ORYXHardware model number:	OX4-SRSoftware version number:	ORYX F/W v4.00 Oryx Data Collector v3.7.2.0data status	okinstallation	princeton_trtdifferential loss correction	single-endedforward channel	channel 3reverse channel	N/Adate	2019/09/18time	02:40:35forward acquisition time	60.00reverse acquisition time	0.00gamma	496.2192k internal	0.2344k external	0.2344temperature offset calibration	0.9948default loss term (dB/km)	0.3790temperature slope calibration	1.0000multiplexer offset coefficient	1.0000multiplexer slope coefficient	1.0000fibre end	0.00T internal ref (°C)	22.77T ext. ref 1 (°C)	0.17T ext. ref 2 (°C)	16.69length (m)	temperature (°C)	Stokes	anti-Stokes-747.200	-40.263	0.458	-0.239
-746.185	-55.681	-0.266	-0.119
-745.171	54.965	0.205	0.198
-744.156	-94.573	-0.199	0.054
-743.142	0.220	0.315	-0.225
-742.127	-120.210	-0.243	0.042
-741.112	211.637	-0.215	-0.339
-740.098	274.858	0.128	0.227
-739.083	262.179	0.195	0.338
-738.069	73.453	-0.143	0.149
-737.054	98.678	-0.162	0.187
-736.039	10.861	-0.413	-0.315
-735.025	-63.332	-0.192	0.079
-734.010	-86.615	-0.236	0.072
-732.996	-34.218	-0.270	-0.148
-731.981	800.000	-0.131	0.453
-730.966	-123.558	-0.311	0.049
-729.952	-184.110	-0.338	0.006
-728.937	-200.000	0.077	-0.342
-727.923	-119.565	-0.364	-0.063
-726.908	-61.164	-0.319	-0.134
-725.894	-106.247	0.244	-0.055
-724.879	-25.112	0.090	0.053
-723.864	-85.055	-0.241	-0.076
-722.850	-103.384	0.060	0.014
-721.835	111.451	-0.178	-0.214
-720.821	-200.000	0.061	-0.317
-719.806	-83.537	-0.168	0.054
-718.791	413.151	0.005	-0.012
-717.777	299.448	0.062	-0.115
-716.762	198.860	0.100	0.154
-715.748	-200.000	-0.034	-0.281
-714.733	800.000	0.017	-0.066
-713.718	800.000	-0.081	0.226
-712.704	-73.083	0.063	-0.023
-711.689	-200.000	0.054	-0.587
-710.675	-200.000	-0.007	-0.376
-709.660	-84.999	-0.059	-0.019
-708.645	-29.311	-0.147	-0.084
-707.631	800.000	0.003	-0.012
-706.616	800.000	0.024	-0.086
-705.602	-4.835	-0.349	0.241
-704.587	115.817	0.127	-0.156
-703.572	-176.329	0.296	0.008
-702.558	-57.303	-0.147	-0.065
-701.543	91.460	-0.044	0.050
-700.529	10.465	0.121	-0.092
-699.514	-123.692	-0.357	-0.057
-698.499	28.995	0.238	-0.201
-697.485	-107.533	-0.260	0.057
-696.470	-73.826	-0.210	-0.076
-695.456	103.949	-0.186	-0.219
-694.441	-16.281	-0.176	-0.112
-693.426	-167.325	-0.129	0.005
-692.412	-88.363	0.362	0.108
-691.397	-200.000	0.021	-0.130
-690.383	-65.626	-0.248	-0.099
-689.368	64.799	-0.032	0.032
-688.354	-44.760	0.051	-0.025
-687.339	-78.123	0.224	-0.077
-686.324	169.143	0.111	0.158
-685.310	800.000	-0.120	0.340
-684.295	-200.000	-0.036	0.186
-683.281	-169.313	0.177	0.007
-682.266	-45.787	-0.167	-0.083
-681.251	478.540	-0.040	-0.090
-680.237	-200.000	-0.014	-0.225
-679.222	-200.000	-0.000	0.375
-678.208	-140.483	0.074	-0.008
-677.193	-79.452	0.171	-0.058
-676.178	-95.968	-0.300	0.080
-675.164	758.815	-0.163	0.440
-674.149	487.658	-0.118	-0.269
-673.135	78.630	-0.150	0.160
-672.120	-200.000	-0.025	-0.137
-671.105	-20.589	-0.097	0.060
-670.091	-200.000	0.032	-0.463
-669.076	-200.000	-0.027	-0.230
-668.062	73.615	-0.135	-0.141
-667.047	-148.749	-0.194	-0.016
-666.032	158.192	0.262	-0.363
-665.018	-169.543	-0.111	-0.004
-664.003	-200.000	-0.051	0.241
-662.989	25.318	0.055	0.046
-661.974	113.523	-0.181	-0.219
-660.959	-200.000	0.011	-0.383
-659.945	-62.145	0.093	0.039
-658.930	143.267	0.050	-0.066
-657.916	-39.806	-0.224	-0.117
-656.901	800.000	-0.116	-0.407
-655.886	212.391	-0.198	-0.311
-654.872	-200.000	-0.003	0.376
-653.857	-200.000	-0.039	0.201
-652.843	100.670	-0.080	-0.093
-651.828	-113.101	0.165	0.032
-650.814	-98.380	-0.184	-0.047
-649.799	174.802	0.080	0.115
-648.784	-200.000	0.039	0.253
-647.770	153.449	0.063	0.086
-646.755	-119.917	0.108	0.019
-645.741	87.779	0.241	-0.266
-644.726	-108.800	0.569	-0.121
-643.711	-150.803	0.188	-0.014
-642.697	-14.510	-0.209	-0.134
-641.682	132.172	-0.114	0.147
-640.668	-59.912	-0.071	-0.030
-639.653	800.000	0.063	0.227
-638.638	-183.942	-0.089	-0.001
-637.624	-70.329	0.276	0.104
-636.609	-200.000	-0.009	-0.091
-635.595	-113.289	-0.254	0.050
-634.580	-200.000	-0.004	0.090
-633.565	390.223	0.150	0.309
-632.551	418.122	-0.170	-0.361
-631.536	-100.905	0.096	0.023
-630.522	564.458	-0.047	-0.115
-629.507	-107.063	0.518	0.114
-628.492	63.299	0.227	-0.227
-627.478	800.000	-0.034	-0.101
-626.463	-200.000	-0.033	0.235
-625.449	170.702	-0.116	-0.166
-624.434	-23.719	-0.350	0.209
-623.419	66.934	-0.161	0.164
-622.405	-200.000	0.042	-0.204
-621.390	-123.678	-0.225	0.035
-620.376	-116.958	0.030	-0.006
-619.361	-76.233	-0.085	0.030
-618.346	-81.033	0.097	0.032
-617.332	800.000	-0.034	0.112
-616.317	204.754	0.062	0.095
-615.303	-200.000	0.021	-0.309
-614.288	-200.000	-0.031	-0.220
-613.273	-59.223	-0.102	0.044
-612.259	13.987	-0.198	-0.153
-611.244	800.000	-0.019	0.063
-610.230	85.705	-0.100	0.109
-609.215	-92.681	-0.095	-0.026
-608.201	800.000	-0.032	-0.122
-607.186	-49.513	-0.126	0.060
-606.171	-200.000	0.002	-0.129
-605.157	-108.378	-0.314	0.067
-604.142	800.000	-0.032	-0.138
-603.128	-200.000	-0.014	-0.081
-602.113	241.905	-0.132	-0.220
-601.098	180.049	-0.214	-0.312
-600.084	800.000	-0.056	0.214
-599.069	110.645	-0.069	-0.083
-598.055	78.413	0.109	0.115
-597.040	141.860	0.062	-0.082
-596.025	-200.000	0.034	0.390
-595.011	-167.345	-0.060	0.002
-593.996	-200.000	0.005	-0.446
-592.982	-101.832	0.121	0.029
-591.967	-45.094	-0.259	-0.128
-590.952	-200.000	0.023	0.142
-589.938	18.283	0.284	-0.226
-588.923	-200.000	-0.002	0.072
-587.909	-200.000	-0.019	-0.356
-586.894	3.387	-0.356	0.258
-585.879	-200.000	-0.012	0.160
-584.865	66.473	0.212	0.215
-583.850	-200.000	0.000	0.120
-582.836	-88.667	0.331	-0.098
-581.821	-16.437	-0.039	-0.024
-580.806	-101.895	0.332	0.080
-579.792	727.062	-0.058	0.155
-578.777	800.000	0.089	0.299
-577.763	302.493	-0.098	-0.180
-576.748	800.000	0.088	-0.246
-575.733	-200.000	0.001	-0.161
-574.719	-65.969	-0.276	-0.110
-573.704	-105.598	-0.039	-0.009
-572.690	37.288	-0.131	0.115
-571.675	-85.258	0.263	0.082
-570.661	-66.235	-0.404	0.160
-569.646	89.193	0.202	0.223
-568.631	214.080	0.093	-0.147
-567.617	-53.838	0.020	-0.009
-566.602	136.304	-0.152	0.197
-565.588	-200.000	-0.070	0.588
-564.573	-14.911	0.097	0.062
-563.558	371.630	-0.056	0.114
-562.544	205.216	-0.105	-0.161
-561.529	-1.175	-0.246	0.173
-560.515	57.037	0.422	-0.409
-559.500	-67.024	-0.191	0.075
-558.485	-53.689	-0.146	-0.066
-557.471	-200.000	0.019	0.087
-556.456	603.640	-0.040	-0.098
-555.442	-16.402	0.140	-0.088
-554.427	347.950	-0.080	0.156
-553.412	32.604	-0.266	0.229
-552.398	406.845	0.036	-0.075
-551.383	-15.389	0.095	0.060
-550.369	-86.529	0.248	0.076
-549.354	361.598	-0.097	0.193
-548.339	-43.340	-0.170	0.085
-547.325	800.000	0.071	0.255
-546.310	298.102	0.114	-0.209
-545.296	-93.056	-0.025	-0.007
-544.281	766.492	0.091	0.244
-543.266	2.985	0.172	-0.124
-542.252	-50.762	-0.261	-0.122
-541.237	454.836	0.094	0.207
-540.223	-193.353	-0.200	-0.002
-539.208	-200.000	-0.009	-0.249
-538.193	-59.437	-0.109	-0.047
-537.179	86.205	0.072	0.078
-536.164	-169.052	-0.023	-0.001
-535.150	-188.454	0.214	0.003
-534.135	41.823	-0.430	0.387
-533.121	-145.171	-0.287	-0.026
-532.106	137.348	-0.319	-0.414
-531.091	211.722	0.061	0.095
-530.077	27.895	-0.307	0.257
-529.062	-102.155	-0.284	0.068
-528.048	-200.000	0.017	0.135
-527.033	800.000	-0.003	0.009
-526.018	424.679	-0.021	-0.044
-525.004	-23.708	-0.216	0.128
-523.989	158.316	-0.168	-0.232
-522.975	-200.000	-0.037	-0.449
-521.960	-13.659	0.104	-0.067
-520.945	-23.334	0.215	0.128
-519.931	235.633	0.075	-0.123
-518.916	800.000	-0.029	-0.112
-517.902	116.832	0.193	0.235
-516.887	-200.000	0.010	-0.255
-515.872	-200.000	0.011	0.252
-514.858	-8.067	0.081	0.054
-513.843	-96.833	0.200	0.052
-512.829	800.000	-0.074	-0.251
-511.814	800.000	-0.058	-0.247
-510.799	31.976	-0.125	0.107
-509.785	-102.822	0.412	0.097
-508.770	765.373	0.059	0.159
-507.756	-109.051	-0.093	0.020
-506.741	-65.402	-0.112	0.044
-505.726	-143.489	0.358	0.034
-504.712	101.883	-0.114	-0.132
-503.697	800.000	-0.081	0.331
-502.683	800.000	-0.032	-0.128
-501.668	-57.955	-0.139	0.060
-500.653	4.046	0.370	-0.268
-499.639	96.029	-0.058	-0.066
-498.624	-47.790	0.196	0.094
-497.610	18.083	-0.042	-0.033
-496.595	-131.364	0.249	-0.033
-495.581	-200.000	0.044	-0.197
-494.566	21.939	0.151	0.122
-493.551	-118.780	-0.113	-0.020
-492.537	800.000	-0.035	-0.098
-491.522	157.467	0.059	-0.081
-490.508	-114.364	0.142	0.027
-489.493	-33.967	-0.314	0.171
-488.478	-16.582	0.338	0.212
-487.464	800.000	0.070	-0.251
-486.449	-13.017	-0.083	-0.053
-485.435	139.921	0.119	0.156
-484.420	-200.000	0.005	0.245
-483.405	-200.000	0.025	0.148
-482.391	-200.000	0.041	0.417
-481.376	-111.178	-0.148	-0.030
-480.362	800.000	0.047	0.194
-479.347	141.792	0.051	0.066
-478.332	-16.859	0.175	0.110
-477.318	-200.000	-0.029	0.288
-476.303	96.003	0.061	-0.069
-475.289	-106.976	-0.328	-0.072
-474.274	-101.229	0.164	0.040
-473.259	75.460	-0.199	0.208
-472.245	280.112	-0.257	-0.455
-471.230	87.825	-0.085	0.093
-470.216	6.355	-0.204	-0.150
-469.201	-200.000	0.020	0.117
-468.186	-36.975	-0.173	0.092
-467.172	-6.931	0.345	0.232
-466.157	342.537	0.096	-0.186
-465.143	36.709	-0.152	-0.133
-464.128	-45.025	0.152	0.075
-463.113	800.000	0.026	-0.104
-462.099	-81.195	-0.358	-0.117
-461.084	800.000	0.069	-0.224
-460.070	-200.000	0.048	-0.231
-459.055	800.000	-0.066	0.200
-458.040	-61.759	-0.221	-0.092
-457.026	153.169	-0.063	-0.085
-456.011	-122.588	0.353	0.057
-454.997	37.441	0.324	-0.285
-453.982	-200.000	-0.023	0.216
-452.968	-72.039	0.104	0.038
-451.953	88.174	0.134	-0.147
-450.938	474.167	0.083	0.185
-449.924	800.000	0.023	-0.069
-448.909	243.230	-0.067	-0.110
-447.895	103.774	-0.021	-0.024
-446.880	-200.000	0.028	-0.178
-445.865	401.469	-0.141	-0.294
-444.851	-155.630	0.040	0.003
-443.836	-69.942	0.071	0.027
-442.822	-76.237	0.095	0.033
-441.807	266.380	0.119	0.206
-440.792	102.695	-0.104	0.121
-439.778	539.197	-0.023	-0.053
-438.763	-163.101	-0.436	0.021
-437.749	297.181	0.241	-0.438
-436.734	800.000	-0.035	0.135
-435.719	552.639	-0.005	0.012
-434.705	54.348	0.035	0.033
-433.690	-200.000	-0.017	-0.084
-432.676	-94.611	0.150	0.040
-431.661	-139.997	-0.068	-0.007
-430.646	-102.736	-0.188	0.044
-429.632	-200.000	0.002	0.196
-428.617	526.973	0.107	-0.249
-427.603	800.000	0.073	-0.216
-426.588	-147.801	0.144	0.012
-425.573	-3.311	-0.172	0.118
-424.559	-13.956	0.184	0.118
-423.544	-49.921	0.272	-0.127
-422.530	-10.324	-0.164	0.108
-421.515	-141.861	-0.384	-0.038
-420.500	18.313	-0.061	-0.048
-419.486	800.000	-0.022	0.084
-418.471	18.284	0.172	0.136
-417.457	-200.000	-0.051	-0.381
-416.442	-101.048	0.219	-0.053
-415.428	-119.617	-0.165	-0.028
-414.413	-38.519	-0.180	0.094
-413.398	-29.965	-0.210	-0.118
-412.384	83.564	-0.152	0.163
-411.369	-200.000	-0.002	-0.203
-410.355	50.538	0.059	-0.055
-409.340	-185.924	-0.163	-0.002
-408.325	-49.327	-0.047	-0.022
-407.311	800.000	-0.027	-0.074
-406.296	-89.328	0.133	0.039
-405.282	-200.000	0.056	0.279
-404.267	268.852	0.164	-0.284
-403.252	47.123	-0.279	-0.256
-402.238	-60.930	0.112	0.047
-401.223	142.110	-0.112	0.147
-400.209	-137.003	0.259	-0.029
-399.194	17.902	0.371	-0.292
-398.179	-35.960	-0.094	-0.050
-397.165	220.916	-0.163	-0.258
-396.150	-200.000	-0.012	-0.395
-395.136	-200.000	0.000	-0.114
-394.121	-14.460	0.107	0.068
-393.106	-131.302	0.200	-0.026
-392.092	800.000	0.079	-0.217
-391.077	-200.000	-0.025	0.155
-390.063	80.927	-0.111	0.119
-389.048	-200.000	0.061	0.378
-388.033	800.000	-0.046	-0.127
-387.019	-59.468	-0.231	0.098
-386.004	-176.941	-0.368	-0.009
-384.990	107.060	-0.081	0.094
-383.975	-19.463	-0.211	-0.129
-382.960	496.862	-0.096	0.219
-381.946	800.000	0.146	0.496
-380.931	653.008	-0.018	-0.044
-379.917	14.798	-0.177	-0.137
-378.902	-108.411	0.354	-0.075
-377.888	117.117	-0.189	0.229
-376.873	800.000	0.017	-0.063
-375.858	-163.352	-0.105	0.005
-374.844	-108.589	-0.255	0.054
-373.829	-7.301	-0.221	-0.148
-372.815	-200.000	0.024	-0.121
-371.800	-29.577	0.135	-0.076
-370.785	120.016	0.183	-0.224
-369.771	17.413	-0.211	0.165
-368.756	232.564	-0.184	0.299
-367.742	-200.000	-0.016	-0.167
-366.727	800.000	0.033	-0.118
-365.712	-200.000	0.087	0.398
-364.698	-55.380	0.151	-0.067
-363.683	-114.175	0.285	-0.054
-362.669	800.000	-0.085	-0.256
-361.654	242.991	-0.142	0.234
-360.639	-67.136	0.282	0.110
-359.625	-42.197	0.172	0.087
-358.610	60.615	-0.262	-0.256
-357.596	288.784	-0.059	0.106
-356.581	37.413	0.069	-0.060
-355.566	800.000	0.089	-0.300
-354.552	-137.939	-0.435	-0.048
-353.537	84.356	0.075	-0.080
-352.523	66.464	0.009	0.009
-351.508	-11.807	-0.293	-0.189
-350.493	-200.000	0.013	-0.211
-349.479	-156.709	0.278	0.017
-348.464	91.485	-0.127	-0.141
-347.450	800.000	-0.039	0.119
-346.435	200.701	-0.242	-0.367
-345.420	-40.408	0.309	0.158
-344.406	-200.000	0.023	0.137
-343.391	-16.161	0.151	-0.095
-342.377	-200.000	0.017	0.168
-341.362	800.000	-0.151	0.479
-340.348	31.238	-0.152	0.129
-339.333	-27.703	0.261	-0.149
-338.318	62.038	0.405	-0.397
-337.304	-200.000	-0.043	0.214
-336.289	197.945	0.132	0.198
-335.275	34.836	0.066	0.057
-334.260	421.357	0.016	0.034
-333.245	800.000	0.034	0.099
-332.231	57.888	-0.050	-0.048
-331.216	441.806	0.083	-0.178
-330.202	-200.000	0.015	0.102
-329.187	231.708	-0.136	-0.220
-328.172	-42.273	0.287	-0.144
-327.158	585.428	0.137	-0.331
-326.143	-93.807	-0.233	-0.063
-325.129	227.145	0.052	-0.084
-324.114	173.346	-0.137	0.194
-323.099	-200.000	0.044	0.299
-322.085	-48.137	-0.170	0.081
-321.070	239.602	-0.121	-0.199
-320.056	-105.975	-0.039	0.009
-319.041	717.907	-0.057	-0.149
-318.026	17.837	0.206	-0.161
-317.012	48.794	0.182	-0.168
-315.997	-142.210	-0.389	0.038
-314.983	-200.000	0.034	-0.312
-313.968	-92.977	-0.204	-0.056
-312.953	-28.144	-0.109	0.062
-311.939	48.070	0.122	-0.112
-310.924	44.547	0.279	-0.252
-309.910	-97.767	-0.340	-0.086
-308.895	161.744	0.072	-0.099
-307.880	-200.000	0.026	-0.162
-306.866	-37.922	-0.297	-0.156
-305.851	-85.991	-0.418	0.127
-304.837	-180.188	0.212	-0.004
-303.822	-43.514	0.245	0.121
-302.807	-19.449	-0.194	-0.118
-301.793	-200.000	-0.060	0.265
-300.778	58.448	0.162	0.157
-299.764	752.258	-0.082	0.218
-298.749	-200.000	-0.019	-0.117
-297.735	38.191	-0.186	0.163
-296.720	-134.231	0.176	-0.021
-295.705	-86.869	0.144	-0.043
-294.691	6.851	-0.169	-0.124
-293.676	198.206	-0.112	-0.169
-292.662	191.939	0.166	-0.246
-291.647	-50.589	0.186	-0.086
-290.632	509.767	-0.220	-0.503
-289.618	-55.495	0.204	0.090
-288.603	-200.000	-0.028	-0.238
-287.589	77.446	-0.147	0.154
-286.574	-48.235	-0.217	-0.103
-285.559	-65.716	-0.201	0.079
-284.545	800.000	-0.124	-0.421
-283.530	-200.000	0.021	-0.190
-282.516	15.466	-0.048	0.037
-281.501	800.000	0.133	0.478
-280.486	50.004	-0.278	0.258
-279.472	-200.000	-0.029	0.584
-278.457	-104.735	0.186	0.042
-277.443	-136.022	0.529	0.061
-276.428	-200.000	0.029	0.168
-275.413	-191.173	0.295	-0.003
-274.399	-86.037	0.248	-0.075
-273.384	-196.795	-0.089	0.001
-272.370	35.074	-0.125	0.107
-271.355	109.383	0.055	0.064
-270.340	72.681	0.258	0.264
-269.326	300.202	-0.126	-0.229
-268.311	75.472	-0.274	-0.284
-267.297	-86.116	0.387	0.117
-266.282	6.759	0.054	0.039
-265.267	-110.206	0.017	-0.003
-264.253	-19.123	0.200	0.122
-263.238	-200.000	0.045	0.328
-262.224	47.238	0.080	0.073
-261.209	-140.452	0.145	0.015
-260.195	-47.682	-0.267	0.127
-259.180	-200.000	-0.020	-0.112
-258.165	-74.270	-0.134	-0.048
-257.151	332.325	0.155	-0.293
-256.136	-13.125	-0.047	-0.030
-255.122	67.813	-0.105	0.105
-254.107	-5.964	0.350	-0.235
-253.092	-15.682	0.322	0.201
-252.078	-74.223	-0.081	0.029
-251.063	375.475	-0.135	0.269
-250.049	-113.695	-0.052	-0.010
-249.034	-113.301	0.186	-0.036
-248.019	-200.000	-0.042	0.286
-247.005	-36.195	0.185	-0.098
-245.990	-188.697	0.291	-0.004
-244.976	-53.003	-0.367	0.166
-243.961	266.706	0.187	-0.320
-242.946	-131.057	-0.076	0.010
-241.932	160.788	0.106	0.146
-240.917	167.641	0.287	-0.401
-239.903	-200.000	0.037	-0.275
-238.888	6.744	-0.291	-0.213
-237.873	-200.000	0.036	0.180
-236.859	-200.000	-0.001	0.195
-235.844	-2.550	-0.025	-0.017
-234.830	324.041	0.110	-0.206
-233.815	167.307	0.117	0.163
-232.800	-118.772	-0.336	-0.058
-231.786	-22.887	0.229	-0.136
-230.771	82.552	-0.281	0.300
-229.757	800.000	0.047	0.130
-228.742	-154.054	0.134	-0.009
-227.727	-151.745	0.435	-0.031
-226.713	205.208	0.175	0.267
-225.698	39.779	-0.172	0.151
-224.684	-50.978	0.269	-0.124
-223.669	-200.000	0.059	-0.315
-222.655	75.772	0.071	-0.073
-221.640	-187.391	-0.184	0.002
-220.625	800.000	0.059	0.164
-219.611	81.480	-0.221	0.235
-218.596	120.589	0.188	-0.229
-217.582	94.911	-0.141	0.157
-216.567	-58.056	0.219	0.094
-215.552	-200.000	-0.009	0.202
-214.538	-200.000	0.014	0.066
-213.523	-3.488	0.054	0.037
-212.509	-107.435	0.102	0.022
-211.494	-65.688	0.118	0.046
-210.479	-63.864	0.191	-0.077
-209.465	29.238	-0.028	-0.023
-208.450	212.869	-0.071	0.110
-207.436	152.789	0.063	0.084
-206.421	-183.386	0.208	0.004
-205.406	264.538	0.082	-0.139
-204.392	-129.028	-0.325	0.045
-203.377	-164.658	-0.553	0.025
-202.363	-106.346	-0.231	0.051
-201.348	93.228	0.133	-0.148
-200.333	175.528	0.176	0.250
-199.319	794.924	0.134	0.360
-198.304	-87.743	-0.057	0.017
-197.290	217.717	-0.152	-0.237
-196.275	39.157	-0.160	-0.140
-195.260	-200.000	0.022	0.098
-194.246	-14.064	-0.139	0.088
-193.231	800.000	0.094	-0.313
-192.217	162.637	0.121	-0.166
-191.202	800.000	0.107	0.307
-190.187	-86.593	-0.166	0.050
-189.173	459.362	0.112	0.245
-188.158	800.000	0.070	-0.228
-187.144	194.257	0.037	0.055
-186.129	57.133	-0.179	0.171
-185.114	-200.000	-0.002	-0.091
-184.100	-200.000	0.034	0.306
-183.085	616.158	-0.108	0.265
-182.071	422.207	0.062	0.130
-181.056	-17.844	-0.108	-0.067
-180.042	800.000	-0.025	0.082
-179.027	234.930	-0.073	0.119
-178.012	241.150	0.119	-0.195
-176.998	-153.826	-0.417	-0.028
-175.983	-200.000	-0.010	-0.255
-174.969	502.279	0.006	-0.014
-173.954	800.000	0.026	-0.096
-172.939	-183.191	0.046	0.001
-171.925	117.811	0.158	0.190
-170.910	-99.671	0.269	-0.066
-169.896	-7.874	-0.102	0.067
-168.881	144.745	0.070	-0.091
-167.866	-89.692	-0.379	0.109
-166.852	93.141	0.208	-0.230
-165.837	72.628	0.094	0.095
-164.823	-166.305	-0.109	0.004
-163.808	-141.878	0.279	0.027
-162.793	41.703	-0.223	-0.198
-161.779	-92.290	-0.285	-0.079
-160.764	-35.464	0.052	-0.027
-159.750	138.149	0.229	0.293
-158.735	-162.093	0.316	-0.016
-157.720	567.662	-0.053	0.126
-156.706	19.390	-0.207	-0.163
-155.691	257.960	0.069	0.117
-154.677	-4.636	0.104	-0.071
-153.662	-200.000	0.009	0.069
-152.647	-51.786	-0.110	0.050
-151.633	-200.000	0.026	-0.223
-150.618	124.170	-0.132	0.162
-149.604	-189.165	0.256	-0.003
-148.589	184.712	-0.056	-0.081
-147.574	274.470	-0.055	-0.096
-146.560	-92.204	0.299	-0.082
-145.545	363.016	-0.158	0.309
-144.531	-200.000	0.011	-0.070
-143.516	154.377	0.260	-0.348
-142.502	533.078	0.060	-0.139
-141.487	71.986	-0.127	0.130
-140.472	-81.597	-0.213	0.068
-139.458	-61.370	0.144	-0.059
-138.443	-200.000	0.007	-0.272
-137.429	-94.655	-0.093	0.025
-136.414	800.000	-0.030	0.082
-135.399	-41.419	0.071	0.036
-134.385	-200.000	0.080	-0.382
-133.370	-75.212	-0.167	-0.058
-132.356	-7.865	-0.202	0.133
-131.341	-147.300	-0.414	0.034
-130.326	-150.998	-0.184	0.014
-129.312	-200.000	0.011	-0.233
-128.297	-77.474	-0.065	0.022
-127.283	-200.000	-0.050	0.336
-126.268	-127.476	0.171	0.024
-125.253	-200.000	-0.038	-0.179
-124.239	-39.687	0.134	-0.068
-123.224	-56.110	0.207	-0.090
-122.210	128.408	0.114	-0.142
-121.195	173.563	-0.144	0.203
-120.180	115.410	-0.126	0.151
-119.166	175.550	0.175	0.247
-118.151	-200.000	0.049	0.209
-117.137	-165.791	0.145	-0.006
-116.122	147.389	0.081	0.106
-115.107	123.256	0.184	0.225
-114.093	800.000	0.084	0.304
-113.078	182.276	-0.159	0.229
-112.064	-200.000	-0.007	0.306
-111.049	800.000	0.109	0.299
-110.034	18.649	0.047	-0.036
-109.020	-142.791	0.321	0.031
-108.005	-127.830	0.280	-0.039
-106.991	665.767	-0.107	-0.271
-105.976	25.547	0.064	0.052
-104.962	54.866	0.056	0.053
-103.947	452.726	0.067	0.146
-102.932	800.000	0.037	0.146
-101.918	147.820	-0.090	0.118
-100.903	197.553	0.140	0.209
-99.889	9.484	0.071	0.053
-98.874	-94.208	0.157	-0.042
-97.859	418.972	0.024	0.050
-96.845	201.184	-0.130	-0.195
-95.830	-102.335	0.098	0.023
-94.816	800.000	0.033	-0.095
-93.801	-56.973	-0.145	0.062
-92.786	22.687	-0.142	0.113
-91.772	137.283	-0.115	-0.146
-90.757	-112.709	0.320	-0.062
-89.743	-200.000	-0.014	-0.151
-88.728	204.716	-0.149	-0.226
-87.713	42.626	-0.135	-0.120
-86.699	292.239	-0.266	0.472
-85.684	-68.091	0.408	-0.155
-84.670	800.000	-0.039	-0.157
-83.655	-104.650	0.298	0.067
-82.640	-133.029	0.118	0.015
-81.626	191.332	0.112	-0.165
-80.611	-200.000	-0.022	-0.149
-79.597	-200.000	-0.030	-0.224
-78.582	53.727	-0.099	0.092
-77.567	-59.983	0.267	-0.111
-76.553	-200.000	0.036	0.296
-75.538	-19.039	0.101	0.061
-74.524	-50.015	-0.279	-0.129
-73.509	564.579	0.039	0.093
-72.494	66.162	0.081	-0.081
-71.480	1.937	0.228	0.160
-70.465	81.510	-0.117	-0.124
-69.451	800.000	0.050	0.203
-68.436	-200.000	-0.045	0.279
-67.422	75.833	0.116	0.120
-66.407	121.178	-0.201	0.244
-65.392	144.760	-0.045	-0.058
-64.378	-108.284	-0.209	-0.044
-63.363	377.747	0.046	-0.092
-62.349	192.963	0.157	-0.232
-61.334	225.041	-0.991	-1.563
-60.319	187.130	0.497	0.722
-59.305	800.000	-0.373	-1.129
-58.290	188.547	0.851	1.240
-57.276	535.093	0.636	1.469
-56.261	-200.000	127.974	672.196
-55.246	406.891	1610.982	3315.086
-54.232	138.092	2767.029	3533.992
-53.217	94.854	2185.589	2422.322
-52.203	33.316	1699.523	1436.766
-51.188	25.666	1517.810	1230.993
-50.173	23.933	1493.576	1199.616
-49.159	48.203	1566.871	1427.632
-48.144	45.186	1578.548	1417.321
-47.130	25.952	1526.584	1239.880
-46.115	23.153	1510.049	1207.331
-45.100	22.726	1507.339	1202.205
-44.086	22.695	1505.952	1200.840
-43.071	22.734	1503.870	1199.400
-42.057	22.668	1502.602	1197.895
-41.042	22.703	1500.701	1196.567
-40.027	22.794	1498.684	1195.531
-39.013	22.675	1497.694	1193.886
-37.998	22.687	1496.474	1192.948
-36.984	22.662	1495.947	1192.310
-35.969	22.644	1494.366	1190.877
-34.954	22.785	1492.726	1190.477
-33.940	22.742	1491.284	1188.988
-32.925	22.725	1490.063	1187.852
-31.911	22.888	1488.291	1187.491
-30.896	22.808	1487.288	1186.104
-29.881	22.801	1485.917	1184.916
-28.867	22.832	1484.547	1183.990
-27.852	22.804	1483.488	1182.911
-26.838	22.746	1482.200	1181.444
-25.823	22.876	1480.597	1180.989
-24.809	22.875	1478.437	1179.213
-23.794	22.784	1477.434	1177.758
-22.779	22.771	1476.485	1176.872
-21.765	22.732	1475.085	1175.446
-20.750	22.770	1473.817	1174.643
-19.736	22.775	1472.982	1173.963
-18.721	22.834	1471.298	1172.969
-17.706	22.737	1471.119	1172.134
-16.692	22.792	1469.331	1171.027
-15.677	22.809	1468.634	1170.541
-14.663	22.747	1467.735	1169.363
-13.648	22.789	1466.688	1168.763
-12.633	22.793	1465.754	1168.002
-11.619	22.709	1465.802	1167.437
-10.604	22.766	1464.119	1166.423
-9.590	22.810	1463.181	1165.924
-8.575	22.745	1462.554	1164.948
-7.560	22.846	1461.437	1164.677
-6.546	22.771	1461.051	1163.828
-5.531	22.735	1460.257	1162.910
-4.517	22.690	1458.826	1161.429
-3.502	22.695	1458.460	1161.127
-2.487	22.683	1457.224	1160.017
-1.473	22.764	1456.334	1159.794
-0.458	22.726	1454.768	1158.253
0.556	21.058	1444.565	1146.900
1.571	18.054	1420.320	1108.105
2.586	14.783	1359.001	1039.844
3.600	13.300	1276.198	967.728
4.615	12.338	1232.572	929.123
5.629	10.825	1175.911	878.165
6.644	5.232	1095.359	789.717
7.659	0.841	1059.867	742.542
8.673	0.231	1054.707	735.886
9.688	0.093	1051.609	732.987
10.702	0.143	1049.642	731.791
11.717	0.192	1047.431	730.425
12.731	1.801	1048.560	738.957
13.746	7.975	1056.630	774.679
14.761	14.234	1064.477	810.947
15.775	16.624	1067.090	824.527
16.790	16.368	1065.833	822.235
17.804	15.334	1064.130	815.820
18.819	14.636	1061.838	810.604
19.834	14.074	1060.833	807.038
20.848	14.041	1059.503	805.793
21.863	13.580	1059.297	803.331
22.877	13.416	1058.474	801.841
23.892	13.248	1057.074	799.897
24.907	13.093	1056.697	798.793
25.921	13.054	1056.102	798.085
26.936	13.117	1055.163	797.608
27.950	13.188	1054.636	797.479
28.965	13.338	1053.331	797.145
29.980	13.290	1052.970	796.569
30.994	13.309	1051.687	795.622
32.009	13.258	1051.221	794.952
33.023	13.381	1050.268	794.751
34.038	13.505	1049.299	794.543
35.053	13.285	1048.741	792.998
36.067	13.346	1048.067	792.707
37.082	13.292	1047.070	791.629
38.096	13.341	1046.134	791.086
39.111	13.376	1045.719	790.868
40.126	13.269	1044.834	789.615
41.140	13.267	1043.813	788.763
42.155	13.362	1042.615	788.241
43.169	13.214	1041.828	786.873
44.184	13.110	1040.793	785.530
45.199	13.151	1039.400	784.601
46.213	13.109	1039.223	784.201
47.228	13.116	1037.799	783.091
48.242	13.162	1037.162	782.755
49.257	13.189	1036.335	782.189
50.271	13.219	1034.710	781.038
51.286	13.249	1034.087	780.641
52.301	13.175	1033.533	779.804
53.315	13.342	1032.367	779.643
54.330	13.257	1031.498	778.518
55.344	13.233	1030.732	777.754
56.359	13.197	1029.937	776.917
57.374	13.265	1028.880	776.369
58.388	13.224	1027.892	775.363
59.403	13.194	1027.015	774.494
60.417	13.043	1026.966	773.683
61.432	13.152	1026.153	773.508
62.447	13.168	1025.076	772.702
63.461	13.115	1024.245	771.764
64.476	13.091	1023.485	771.010
65.490	13.194	1022.376	770.588
66.505	12.997	1021.752	769.131
67.520	13.075	1021.281	769.068
68.534	13.146	1020.213	768.527
69.549	13.088	1019.772	767.858
70.563	13.138	1018.733	767.242
71.578	13.175	1017.975	766.774
72.593	13.074	1017.295	765.727
73.607	13.079	1016.102	764.781
74.622	13.065	1015.578	764.253
75.636	13.031	1014.817	763.457
76.651	13.160	1013.457	762.964
77.666	13.031	1013.169	762.083
78.680	13.024	1012.345	761.364
79.695	13.056	1011.978	761.167
80.709	13.061	1011.453	760.727
81.724	13.155	1010.256	760.191
82.739	13.118	1009.807	759.619
83.753	13.146	1009.397	759.372
84.768	13.258	1008.332	759.017
85.782	13.294	1007.491	758.481
86.797	13.318	1006.926	758.100
87.812	13.364	1005.640	757.276
88.826	13.184	1005.519	756.292
89.841	13.280	1004.449	755.862
90.855	13.312	1003.312	755.084
91.870	13.393	1002.628	754.873
92.884	13.412	1001.297	753.891
93.899	13.457	1001.274	754.012
94.914	13.392	1000.529	753.088
95.928	13.409	999.837	752.575
96.943	13.414	998.738	751.708
97.957	13.401	998.180	751.161
98.972	13.435	997.529	750.758
99.987	13.428	996.740	750.067
101.001	13.539	995.585	749.634
102.016	13.367	995.197	748.495
103.030	13.394	993.981	747.637
104.045	13.381	993.407	747.082
105.060	13.353	992.666	746.333
106.074	13.377	991.690	745.641
107.089	13.383	990.511	744.716
108.103	13.308	990.075	743.985
109.118	13.289	988.868	742.925
110.133	13.251	988.203	742.188
111.147	13.322	987.169	741.665
112.162	13.229	986.516	740.694
113.176	13.258	985.647	740.104
114.191	13.336	984.748	739.712
115.206	13.291	983.993	738.880
116.220	13.479	982.994	738.904
117.235	13.266	982.221	737.306
118.249	13.340	981.496	737.027
119.264	13.275	980.306	735.777
120.279	13.331	979.543	735.390
121.293	13.304	978.858	734.690
122.308	13.310	978.458	734.350
123.322	13.355	976.864	733.289
124.337	13.188	976.117	731.926
125.352	13.221	975.509	731.551
126.366	13.212	974.435	730.638
127.381	13.188	973.205	729.548
128.395	13.175	972.432	728.847
129.410	13.397	971.222	728.851
130.424	13.252	970.387	727.523
131.439	13.260	969.548	726.863
132.454	13.371	968.494	726.497
133.468	13.229	968.173	725.569
134.483	13.323	967.320	725.280
135.497	13.335	966.620	724.741
136.512	13.250	965.958	723.811
137.527	13.257	965.208	723.216
138.541	13.322	964.491	722.896
139.556	13.309	963.613	722.119
140.570	13.237	963.224	721.449
141.585	13.385	962.231	721.285
142.600	13.425	961.499	720.849
143.614	13.490	961.069	720.743
144.629	13.565	959.954	720.169
145.643	13.496	959.319	719.330
146.658	13.582	958.358	718.921
147.673	13.538	957.308	717.876
148.687	13.454	956.947	717.181
149.702	13.382	955.999	716.095
150.716	13.471	955.007	715.671
151.731	13.333	954.711	714.792
152.746	13.429	953.515	714.247
153.760	13.254	953.194	713.186
154.775	13.469	952.408	713.465
155.789	13.426	951.593	712.604
156.804	13.658	950.296	712.570
157.819	13.560	949.977	711.843
158.833	13.573	948.948	711.068
159.848	13.524	948.719	710.622
160.862	13.697	947.866	710.661
161.877	13.624	946.954	709.601
162.892	13.652	945.974	708.923
163.906	13.466	945.482	707.698
164.921	13.492	944.815	707.248
165.935	13.628	943.623	706.872
166.950	13.545	942.772	705.820
167.964	13.555	942.199	705.369
168.979	13.527	941.194	704.434
169.994	13.556	939.670	703.354
171.008	13.557	939.476	703.152
172.023	13.619	938.437	702.577
173.037	13.598	937.950	702.061
174.052	13.673	937.087	701.672
175.067	13.720	936.572	701.421
176.081	13.758	935.322	700.584
177.096	13.595	934.898	699.518
178.110	13.741	933.815	699.257
179.125	13.734	933.113	698.644
180.140	13.759	932.278	698.060
181.154	13.784	931.806	697.750
182.169	13.866	930.996	697.427
183.183	13.734	930.732	696.612
184.198	13.896	929.528	696.330
185.213	13.799	928.818	695.329
186.227	13.824	928.577	695.194
187.242	13.810	927.746	694.450
188.256	13.904	927.376	694.506
189.271	13.973	926.478	694.057
190.286	13.952	925.729	693.347
191.300	13.846	924.930	692.246
192.315	13.694	924.564	691.279
193.329	13.635	923.641	690.280
194.344	13.703	922.748	689.835
195.359	13.738	922.250	689.548
196.373	13.828	921.781	689.510
197.388	13.949	921.164	689.490
198.402	13.956	920.522	688.976
199.417	14.039	920.313	689.102
200.432	14.039	919.761	688.631
201.446	14.081	919.362	688.445
202.461	14.228	919.032	688.743
203.475	14.090	918.439	687.668
204.490	14.319	917.423	687.794
205.504	14.138	916.857	686.562
206.519	14.282	915.614	686.162
207.534	14.169	915.306	685.406
208.548	14.150	914.259	684.481
209.563	14.076	914.016	683.935
210.577	14.138	913.161	683.489
211.592	14.163	912.665	683.159
212.607	14.174	911.917	682.586
213.621	14.320	911.490	682.805
214.636	14.329	910.999	682.413
215.650	14.361	909.952	681.699
216.665	14.237	909.522	680.808
217.680	14.349	909.044	680.848
218.694	14.195	908.964	680.100
219.709	14.402	907.753	679.977
220.723	14.298	907.247	679.115
221.738	14.388	906.577	678.919
222.753	14.399	905.570	678.153
223.767	14.455	905.152	678.005
224.782	14.503	904.208	677.435
225.796	14.508	903.407	676.793
226.811	14.405	902.909	675.942
227.826	14.517	902.237	675.833
228.840	14.430	901.801	675.094
229.855	14.606	900.844	675.031
230.869	14.528	900.443	674.355
231.884	14.484	899.782	673.623
232.899	14.452	898.892	672.767
233.913	14.458	898.568	672.491
234.928	14.534	897.493	671.932
235.942	14.438	896.890	671.035
236.957	14.415	895.985	670.205
237.972	14.480	895.371	669.948
238.986	14.515	894.639	669.483
240.001	14.582	893.688	668.981
241.015	14.483	893.502	668.383
242.030	14.364	893.073	667.529
243.045	14.573	892.150	667.614
244.059	14.592	891.323	667.011
245.074	14.637	891.041	666.923
246.088	14.644	890.401	666.412
247.103	14.653	889.647	665.824
248.117	14.727	888.891	665.497
249.132	14.649	888.658	664.950
250.147	14.803	888.019	665.026
251.161	14.766	887.403	664.362
252.176	14.824	886.922	664.173
253.190	14.832	886.425	663.774
254.205	14.941	885.539	663.483
255.220	14.986	884.977	663.181
256.234	15.078	884.327	662.998
257.249	14.965	883.392	661.793
258.263	15.084	883.136	662.015
259.278	15.201	882.427	661.884
260.293	14.947	882.293	660.724
261.307	14.946	881.521	660.082
262.322	15.089	880.869	660.099
263.336	15.209	879.968	659.840
264.351	15.041	879.848	659.031
265.366	15.156	879.017	658.802
266.380	15.235	878.269	658.494
267.395	15.179	878.041	658.041
268.409	15.149	877.139	657.191
269.424	15.154	876.551	656.714
270.439	15.136	875.594	655.865
271.453	15.238	874.671	655.517
272.468	15.214	874.131	654.962
273.482	15.146	873.410	654.095
274.497	15.153	873.080	653.820
275.512	15.127	872.460	653.193
276.526	15.173	871.595	652.671
277.541	15.313	870.378	652.245
278.555	15.340	870.069	652.058
279.570	15.375	869.476	651.693
280.585	15.340	869.193	651.287
281.599	15.302	868.204	650.341
282.614	15.434	867.849	650.531
283.628	15.259	867.619	649.623
284.643	15.342	866.730	649.220
285.657	15.424	866.104	649.009
286.672	15.450	865.895	648.898
287.687	15.523	865.171	648.578
288.701	15.541	864.433	648.036
289.716	15.463	864.199	647.505
290.730	15.493	863.488	647.032
291.745	15.455	862.852	646.349
292.760	15.506	862.022	645.868
293.774	15.554	861.794	645.824
294.789	15.656	861.014	645.573
295.803	15.555	860.297	644.593
296.818	15.634	859.643	644.349
297.833	15.612	858.953	643.688
298.847	15.591	858.468	643.186
299.862	15.688	857.670	642.903
300.876	15.581	857.054	641.979
301.891	15.581	856.721	641.671
302.906	15.588	855.963	641.072
303.920	15.700	855.047	640.755
304.935	15.814	854.381	640.636
305.949	15.840	853.892	640.310
306.964	15.781	853.499	639.734
307.979	15.681	852.986	638.913
308.993	15.631	852.797	638.527
310.008	15.900	851.814	638.753
311.022	15.874	851.259	638.182
312.037	15.759	851.157	637.616
313.052	15.927	850.415	637.638
314.066	15.791	849.715	636.542
315.081	15.767	849.014	635.871
316.095	15.946	848.103	635.808
317.110	15.845	847.672	635.048
318.125	15.789	847.447	634.609
319.139	15.803	846.767	634.099
320.154	15.802	846.299	633.686
321.168	15.945	845.620	633.659
322.183	15.808	845.666	633.124
323.197	15.979	844.733	633.014
324.212	15.941	844.194	632.409
325.227	16.085	843.384	632.287
326.241	16.023	843.048	631.747
327.256	16.120	842.336	631.522
328.270	16.040	842.113	630.998
329.285	15.875	841.651	629.978
330.300	16.057	841.165	630.241
331.314	16.174	839.854	629.638
332.329	15.956	839.762	628.700
333.343	16.161	838.871	628.743
334.358	16.071	838.552	628.111
335.373	16.060	838.173	627.730
336.387	16.187	837.702	627.795
337.402	16.159	836.739	626.913
338.416	16.249	835.909	626.572
339.431	16.252	835.559	626.264
340.446	16.357	835.184	626.319
341.460	16.217	834.695	625.377
342.475	16.374	833.656	625.125
343.489	16.293	833.620	624.743
344.504	16.572	832.791	625.095
345.519	16.376	832.603	624.174
346.533	16.439	831.710	623.682
347.548	16.376	831.675	623.370
348.562	16.314	831.054	622.619
349.577	16.499	830.101	622.534
350.592	16.482	829.799	622.189
351.606	16.514	828.840	621.530
352.621	16.281	828.843	620.621
353.635	16.518	828.427	621.128
354.650	16.579	827.782	620.812
355.665	16.333	827.444	619.600
356.679	16.501	827.258	620.024
357.694	16.532	826.500	619.513
358.708	16.544	826.054	619.168
359.723	16.524	825.478	618.608
360.738	16.567	824.954	618.320
361.752	16.477	824.656	617.713
362.767	16.575	823.909	617.455
363.781	16.497	823.724	616.979
364.796	16.494	823.355	616.635
365.810	16.645	822.982	616.853
366.825	16.656	822.400	616.403
367.840	16.836	821.956	616.669
368.854	16.756	821.815	616.219
369.869	16.737	821.338	615.736
370.883	16.824	820.333	615.245
371.898	16.625	820.170	614.346
372.913	16.812	819.086	614.159
373.927	16.671	818.945	613.486
374.942	16.726	818.287	613.136
375.956	16.822	817.739	613.020
376.971	16.949	816.767	612.694
377.986	16.851	816.622	612.179
379.000	16.942	815.689	611.755
380.015	16.984	815.415	611.647
381.029	16.895	814.995	610.955
382.044	17.055	814.309	610.964
383.059	16.936	814.186	610.389
384.073	17.035	813.178	609.936
385.088	16.934	813.104	609.463
386.102	17.119	812.264	609.444
387.117	16.921	811.756	608.299
388.132	17.049	810.945	608.097
389.146	17.011	810.691	607.714
390.161	17.099	810.443	607.788
391.175	16.987	810.173	607.133
392.190	17.197	809.489	607.318
393.205	17.117	809.259	606.803
394.219	17.108	808.706	606.305
395.234	17.035	808.111	605.544
396.248	17.125	807.635	605.454
397.263	17.030	807.430	604.908
398.278	17.226	806.544	604.889
399.292	17.101	806.431	604.305
400.307	16.918	806.086	603.344
401.321	17.111	805.621	603.628
402.336	17.091	805.126	603.135
403.350	17.213	804.609	603.126
404.365	17.129	804.338	602.570
405.380	17.204	803.652	602.270
406.394	17.308	803.318	602.336
407.409	17.297	802.875	601.912
408.423	17.253	802.604	601.496
409.438	17.240	801.907	600.876
410.453	17.396	801.376	600.975
411.467	17.335	801.370	600.704
412.482	17.515	800.682	600.770
413.496	17.370	800.197	599.841
414.511	17.467	799.571	599.662
415.526	17.572	799.368	599.825
416.540	17.530	799.005	599.350
417.555	17.429	798.423	598.508
418.569	17.573	797.864	598.542
419.584	17.470	797.748	598.039
420.599	17.484	797.498	597.847
421.613	113.365	1298.572	1486.719
422.628	97.626	1371.514	1486.815
