DTS Sentinel unit serial number:	SN413079Multiplexer serial number:	ORYXHardware model number:	OX4-SRSoftware version number:	ORYX F/W v4.00 Oryx Data Collector v3.7.2.0data status	okinstallation	princeton_trtdifferential loss correction	single-endedforward channel	channel 3reverse channel	N/Adate	2019/09/12time	18:47:04forward acquisition time	15.00reverse acquisition time	0.00gamma	496.2192k internal	0.2318k external	0.2318temperature offset calibration	1.0097default loss term (dB/km)	0.3790temperature slope calibration	1.0000multiplexer offset coefficient	1.0000multiplexer slope coefficient	1.0000fibre end	0.00T internal ref (°C)	32.94T ext. ref 1 (°C)	2.98T ext. ref 2 (°C)	27.51length (m)	temperature (°C)	Stokes	anti-Stokes-747.200	102.158	-0.221	0.262
-746.185	-35.462	0.129	0.071
-745.171	-200.000	0.007	0.507
-744.156	-100.063	0.233	0.059
-743.142	221.891	-0.264	-0.429
-742.127	15.614	0.439	0.349
-741.112	-9.908	-0.462	0.311
-740.098	-2.004	0.207	0.147
-739.083	-158.446	-0.949	-0.056
-738.069	50.480	0.243	-0.233
-737.054	-44.990	0.553	0.279
-736.039	800.000	0.123	-0.363
-735.025	-166.651	-0.547	-0.023
-734.010	-27.108	0.733	-0.432
-732.996	-124.315	-0.162	-0.026
-731.981	-14.637	0.285	0.185
-730.966	-126.045	0.133	0.020
-729.952	266.042	-0.115	-0.203
-728.937	-92.407	-0.180	0.051
-727.923	758.798	0.187	-0.513
-726.908	-157.149	0.450	-0.028
-725.894	44.904	0.334	0.311
-724.879	-90.681	-0.524	-0.153
-723.864	-200.000	-0.035	0.369
-722.850	-65.997	0.307	-0.124
-721.835	79.238	-0.432	0.468
-720.821	-20.965	0.522	-0.324
-719.806	104.709	0.388	0.462
-718.791	-100.545	0.423	0.106
-717.777	-153.718	-0.295	-0.021
-716.762	-200.000	0.101	-0.733
-715.748	-65.638	-0.180	0.073
-714.733	15.287	-0.430	-0.341
-713.718	-151.793	0.643	0.048
-712.704	216.794	-0.011	-0.018
-711.689	-200.000	-0.056	0.892
-710.675	666.835	0.222	0.579
-709.660	800.000	-0.271	1.191
-708.645	172.860	-0.347	0.505
-707.631	-193.077	-0.224	0.002
-706.616	17.708	-0.492	0.396
-705.602	-200.000	-0.135	0.672
-704.587	-76.236	-0.708	-0.252
-703.572	630.358	0.214	-0.548
-702.558	765.659	-0.152	0.418
-701.543	-83.688	-0.053	0.017
-700.529	59.316	-0.454	0.451
-699.514	800.000	0.115	0.360
-698.499	800.000	0.074	0.230
-697.485	800.000	-0.081	0.346
-696.470	-200.000	-0.146	0.776
-695.456	-168.448	-0.716	-0.028
-694.441	74.723	-0.379	-0.403
-693.426	127.112	0.029	-0.037
-692.412	-87.046	-0.195	-0.060
-691.397	-54.549	-0.335	-0.153
-690.383	172.903	-0.031	-0.045
-689.368	-60.404	0.510	0.219
-688.354	-200.000	0.002	0.273
-687.339	208.463	0.508	-0.803
-686.324	90.104	-0.303	0.342
-685.310	26.955	-0.558	-0.472
-684.295	264.068	-0.163	0.287
-683.281	-104.793	0.378	-0.088
-682.266	452.135	0.140	-0.313
-681.251	49.758	-0.672	-0.639
-680.237	-140.755	0.855	-0.089
-679.222	67.746	-0.627	0.647
-678.208	-152.578	0.320	-0.023
-677.193	-62.184	-0.151	-0.064
-676.178	800.000	-0.177	-0.735
-675.164	-65.918	0.322	0.130
-674.149	800.000	0.150	-0.433
-673.135	-200.000	0.029	-1.025
-672.120	-200.000	-0.021	-0.441
-671.105	-68.021	0.994	-0.391
-670.091	132.095	-0.637	-0.828
-669.076	800.000	0.265	-0.850
-668.062	-113.813	0.640	0.126
-667.047	419.427	-0.205	0.443
-666.032	382.451	-0.383	0.794
-665.018	218.269	-0.281	-0.452
-664.003	255.060	-0.274	-0.474
-662.989	112.851	-0.396	0.484
-661.974	-159.230	0.816	-0.046
-660.959	-133.632	-0.249	-0.031
-659.945	106.448	-0.233	0.278
-658.930	-200.000	-0.030	-0.737
-657.916	-150.700	0.744	0.057
-656.901	-200.000	0.038	0.291
-655.886	144.486	0.515	-0.694
-654.872	66.804	-0.736	-0.755
-653.857	-200.000	0.010	-0.243
-652.843	800.000	0.144	0.597
-651.828	-41.034	0.397	0.207
-650.814	48.853	0.160	0.151
-649.799	-133.529	-0.497	0.063
-648.784	604.575	-0.296	0.743
-647.770	800.000	0.163	0.478
-646.755	-169.860	-0.143	-0.005
-645.741	190.069	0.071	0.108
-644.726	-157.302	-0.311	-0.019
-643.711	-3.607	0.663	0.465
-642.697	-103.063	-0.389	-0.093
-641.682	63.531	-0.460	-0.466
-640.668	-82.297	0.504	-0.165
-639.653	203.581	0.139	-0.216
-638.638	-2.952	-0.456	0.321
-637.624	-74.242	0.753	-0.274
-636.609	-123.704	-0.472	0.075
-635.595	-42.768	-0.742	-0.380
-634.580	800.000	0.143	0.617
-633.565	102.273	0.483	-0.568
-632.551	-106.259	0.625	0.141
-631.536	67.241	-0.001	-0.001
-630.522	81.870	0.061	-0.066
-629.507	-89.102	-0.201	-0.060
-628.492	-143.210	-0.337	0.033
-627.478	618.968	-0.083	-0.210
-626.463	-200.000	0.080	-0.799
-625.449	46.437	-0.304	0.284
-624.434	-22.565	0.311	-0.189
-623.419	-200.000	0.543	0.002
-622.405	-200.000	0.021	0.286
-621.390	-200.000	0.034	-0.236
-620.376	800.000	0.221	-0.738
-619.361	-59.854	0.310	-0.133
-618.346	1.236	0.237	-0.171
-617.332	87.995	-0.217	0.243
-616.317	-32.236	-0.166	-0.093
-615.303	-127.097	0.637	-0.094
-614.288	-104.644	-0.406	0.094
-613.273	2.105	-0.343	0.250
-612.259	-158.828	-0.810	-0.047
-611.244	-106.715	-0.983	-0.220
-610.230	800.000	-0.142	-0.561
-609.215	-124.660	0.519	-0.081
-608.201	-59.929	0.782	0.337
-607.186	-74.995	0.163	0.059
-606.171	-17.731	-0.375	0.237
-605.157	0.293	-0.601	0.431
-604.142	-151.086	-0.618	0.047
-603.128	-200.000	-0.009	-0.091
-602.113	-167.784	-0.438	-0.017
-601.098	278.338	-0.318	-0.570
-600.084	-200.000	-0.089	0.595
-599.069	-200.000	-0.007	-0.329
-598.055	-163.975	-0.098	0.005
-597.040	-88.352	0.739	0.222
-596.025	-100.878	0.592	0.146
-595.011	-200.000	0.002	-0.746
-593.996	-200.000	0.116	0.683
-592.982	-37.902	0.784	-0.419
-591.967	800.000	-0.104	-0.295
-590.952	-123.795	0.370	-0.059
-589.938	-16.590	0.357	0.228
-588.923	-70.184	-0.207	-0.079
-587.909	-121.376	-0.364	0.061
-586.894	138.565	0.619	0.817
-585.879	27.489	0.309	-0.262
-584.865	-143.273	0.031	0.003
-583.850	172.669	-0.200	-0.290
-582.836	50.390	-0.392	0.373
-581.821	-172.180	0.031	0.001
-580.806	449.400	0.008	-0.019
-579.792	210.396	-0.304	0.480
-578.777	136.256	-0.084	0.110
-577.763	-22.877	-0.104	0.063
-576.748	-200.000	0.023	0.726
-575.733	187.524	0.181	-0.271
-574.719	-68.213	-0.603	0.236
-573.704	-149.777	0.239	-0.019
-572.690	376.661	0.033	-0.067
-571.675	-26.082	0.184	-0.109
-570.661	800.000	-0.179	-0.595
-569.646	680.362	-0.055	-0.143
-568.631	-125.832	-0.517	0.078
-567.617	800.000	-0.183	-0.554
-566.602	354.911	-0.200	-0.399
-565.588	-119.613	0.626	0.109
-564.573	84.978	-0.682	0.751
-563.558	18.690	0.489	0.393
-562.544	-150.418	0.465	0.036
-561.529	498.275	-0.275	-0.637
-560.515	-56.490	-0.264	-0.118
-559.500	-70.474	-0.254	0.096
-558.485	800.000	0.025	-0.071
-557.471	540.758	0.176	0.421
-556.456	114.095	-0.060	0.074
-555.442	72.864	-0.240	0.252
-554.427	800.000	-0.384	-1.451
-553.412	759.609	-0.317	-0.862
-552.398	-63.315	0.316	-0.131
-551.383	99.182	0.097	-0.113
-550.369	126.539	-0.736	0.936
-549.354	-200.000	0.106	-0.522
-548.339	256.545	0.027	-0.046
-547.325	4.894	-0.173	0.127
-546.310	-99.761	0.169	0.042
-545.296	-101.648	0.716	-0.174
-544.281	295.342	-0.422	-0.775
-543.266	725.697	-0.167	0.447
-542.252	800.000	0.289	1.010
-541.237	-113.501	-0.737	0.145
-540.223	21.293	0.341	0.278
-539.208	-80.108	0.264	0.089
-538.193	-110.818	-0.416	0.086
-537.179	-50.217	-0.526	-0.250
-536.164	-165.204	0.631	0.028
-535.150	503.843	-0.185	-0.429
-534.135	114.413	0.542	-0.662
-533.121	310.069	0.354	0.665
-532.106	-200.000	-0.051	-0.244
-531.091	-103.795	-0.117	-0.027
-530.077	-136.329	-0.569	0.067
-529.062	-29.555	-1.060	0.608
-528.048	-135.625	0.067	-0.008
-527.033	-84.491	-1.162	-0.368
-526.018	-103.435	-0.677	-0.160
-525.004	-54.155	1.059	0.483
-523.989	-1.331	0.222	0.157
-522.975	0.557	0.397	0.285
-521.960	-33.913	0.212	-0.117
-520.945	-34.796	0.994	-0.545
-519.931	384.662	0.117	0.242
-518.916	25.603	-0.521	-0.435
-517.902	98.584	0.106	-0.122
-516.887	-200.000	0.013	-0.409
-515.872	-200.000	0.040	-0.286
-514.858	285.766	0.070	-0.126
-513.843	-73.153	0.186	0.068
-512.829	93.111	0.171	0.194
-511.814	800.000	0.205	0.805
-510.799	161.224	-0.467	0.655
-509.785	-54.834	-0.979	0.443
-508.770	-139.527	-0.341	-0.037
-507.756	-200.000	-0.159	0.920
-506.741	-144.752	-0.473	0.044
-505.726	-109.477	-0.504	-0.107
-504.712	-97.279	-0.492	-0.129
-503.697	10.930	0.427	-0.327
-502.683	501.654	0.361	-0.836
-501.668	-200.000	-0.034	-0.608
-500.653	88.994	-0.230	0.257
-499.639	-147.325	-1.261	-0.107
-498.624	45.140	0.234	0.216
-497.610	120.175	-0.358	0.446
-496.595	5.485	0.691	0.511
-495.581	-200.000	0.137	0.994
-494.566	567.272	-0.453	-1.103
-493.551	-38.505	-0.580	-0.307
-492.537	2.055	0.407	-0.295
-491.522	-200.000	-0.040	0.570
-490.508	-200.000	-0.114	0.611
-489.493	800.000	0.210	0.695
-488.478	86.044	0.259	0.286
-487.464	391.784	0.497	-1.034
-486.449	800.000	0.157	-0.505
-485.435	-66.441	-0.174	-0.069
-484.420	566.815	-0.178	0.432
-483.405	-18.123	0.614	-0.385
-482.391	117.268	-0.489	0.602
-481.376	-25.404	-0.644	0.381
-480.362	65.934	-0.113	-0.115
-479.347	-200.000	-0.091	-0.955
-478.332	-200.000	-0.090	-0.532
-477.318	192.661	0.198	-0.299
-476.303	-125.540	0.188	-0.029
-475.289	-200.000	0.139	-0.752
-474.274	351.577	0.069	0.137
-473.259	-168.324	0.708	0.027
-472.245	-200.000	-0.123	0.804
-471.230	-154.370	-0.631	0.042
-470.216	6.175	0.259	0.192
-469.201	-200.000	-0.055	0.759
-468.186	640.607	-0.134	0.340
-467.172	-23.168	0.228	0.137
-466.157	523.084	-0.151	0.354
-465.143	241.568	0.245	-0.409
-464.128	-143.987	-0.673	0.063
-463.113	-161.381	-0.270	-0.014
-462.099	-42.376	-0.575	-0.294
-461.084	-83.153	0.275	-0.088
-460.070	77.703	-0.651	0.694
-459.055	-57.750	-0.480	0.210
-458.040	-114.500	-0.285	0.055
-457.026	-79.744	-1.079	-0.364
-456.011	785.589	-0.168	-0.460
-454.997	-200.000	-0.000	-0.724
-453.982	-25.459	-0.592	0.350
-452.968	800.000	-0.121	-0.530
-451.953	35.502	0.131	0.115
-450.938	-142.433	-0.669	0.066
-449.924	-14.256	-0.248	0.160
-448.909	30.218	0.653	0.558
-447.895	43.883	0.767	0.703
-446.880	-14.001	-0.299	-0.193
-445.865	633.806	0.347	-0.881
-444.851	800.000	0.109	-0.446
-443.836	-89.044	-1.209	-0.358
-442.822	136.915	0.393	-0.513
-441.807	52.134	-0.130	0.124
-440.792	-177.603	-0.403	0.010
-439.778	-31.040	0.244	0.137
-438.763	-59.323	-0.625	-0.269
-437.749	-21.491	0.784	0.478
-436.734	800.000	-0.271	-0.849
-435.719	-156.174	-0.978	0.062
-434.705	800.000	0.127	-0.478
-433.690	204.893	0.241	-0.373
-432.676	-200.000	0.009	0.120
-431.661	-45.659	-0.176	-0.087
-430.646	-35.915	0.696	-0.376
-429.632	43.596	-0.215	0.196
-428.617	32.086	0.553	-0.477
-427.603	42.456	0.460	-0.418
-426.588	-59.892	1.014	0.433
-425.573	537.511	0.373	-0.885
-424.559	-50.904	-0.574	-0.269
-423.544	800.000	-0.157	0.567
-422.530	608.504	-0.098	-0.245
-421.515	353.733	-0.353	-0.701
-420.500	-14.950	-0.155	-0.100
-419.486	289.406	-0.058	0.105
-418.471	183.340	0.390	-0.576
-417.457	-156.869	0.486	0.030
-416.442	213.188	0.410	0.647
-415.428	-63.461	-0.448	-0.184
-414.413	631.464	-0.139	0.352
-413.398	-21.121	0.282	-0.173
-412.384	-200.000	0.094	-0.441
-411.369	-200.000	0.020	-0.374
-410.355	510.955	0.295	0.685
-409.340	-200.000	0.020	0.134
-408.325	214.758	0.241	-0.381
-407.311	800.000	0.034	0.099
-406.296	-200.000	0.111	1.243
-405.282	110.325	0.208	-0.250
-404.267	-200.000	-0.004	-0.424
-403.252	143.357	-0.187	0.249
-402.238	-68.624	1.069	0.413
-401.223	-38.231	0.438	-0.232
-400.209	-200.000	-0.016	0.357
-399.194	-30.036	-0.712	0.405
-398.179	-200.000	0.001	0.010
-397.165	46.544	0.474	0.439
-396.150	460.855	-0.087	-0.194
-395.136	-118.251	-0.440	0.078
-394.121	-162.469	0.228	-0.011
-393.106	-63.487	-0.511	0.210
-392.092	800.000	0.157	0.476
-391.077	-24.321	0.535	0.318
-390.063	-200.000	0.077	-0.799
-389.048	-200.000	-0.046	-0.242
-388.033	49.033	0.574	-0.538
-387.019	-200.000	-0.018	-0.329
-386.004	-200.000	0.006	0.201
-384.990	13.130	0.653	0.504
-383.975	800.000	-0.170	0.670
-382.960	-200.000	0.030	-0.290
-381.946	25.170	0.406	0.337
-380.931	-133.689	0.431	0.054
-379.917	-175.349	-0.223	0.006
-378.902	-13.482	0.739	-0.478
-377.888	760.134	0.147	0.397
-376.873	-94.053	-1.047	0.287
-375.858	800.000	-0.078	0.248
-374.844	-110.858	1.298	0.267
-373.829	-200.000	0.110	-0.575
-372.815	-125.794	0.382	-0.058
-371.800	23.411	0.859	0.705
-370.785	-97.983	-0.400	-0.103
-369.771	404.548	-0.163	0.342
-368.756	-131.598	-0.422	-0.055
-367.742	505.198	0.255	-0.589
-366.727	360.136	-0.346	-0.691
-365.712	-64.648	-0.227	-0.092
-364.698	800.000	-0.157	-0.591
-363.683	-0.213	-0.240	-0.170
-362.669	559.923	0.380	-0.915
-361.654	-138.370	0.931	-0.102
-360.639	-200.000	-0.042	0.943
-359.625	-31.250	-0.487	-0.273
-358.610	-200.000	0.170	-0.806
-357.596	-38.361	0.432	0.228
-356.581	800.000	-0.090	-0.351
-355.566	128.646	-0.316	-0.402
-354.552	800.000	0.367	-1.018
-353.537	206.515	0.061	0.095
-352.523	305.023	-0.194	0.359
-351.508	800.000	-0.094	-0.366
-350.493	-84.072	0.153	-0.048
-349.479	33.690	0.244	-0.211
-348.464	70.928	-0.149	0.154
-347.450	-119.494	0.695	0.120
-346.435	54.262	0.386	-0.370
-345.420	15.628	-0.564	-0.442
-344.406	-117.547	0.335	-0.060
-343.391	50.205	-0.595	0.560
-342.377	-54.696	-0.433	0.195
-341.362	-59.576	0.483	-0.206
-340.348	800.000	0.100	-0.302
-339.333	520.266	-0.075	-0.174
-338.318	321.629	-0.061	0.116
-337.304	550.623	0.041	-0.097
-336.289	143.649	-0.217	0.288
-335.275	64.889	0.744	0.748
-334.260	8.332	0.280	0.210
-333.245	-165.332	-0.894	-0.039
-332.231	240.583	-0.329	0.546
-331.216	800.000	0.381	1.108
-330.202	-107.099	-0.405	0.089
-329.187	243.218	-0.419	0.699
-328.172	-200.000	0.069	-0.599
-327.158	-103.972	0.508	0.118
-326.143	-200.000	-0.042	-0.380
-325.129	533.150	0.318	0.751
-324.114	54.839	0.194	0.186
-323.099	-5.121	0.512	-0.351
-322.085	74.688	-0.483	-0.506
-321.070	-44.591	-0.575	0.286
-320.056	-126.123	0.468	-0.070
-319.041	-44.384	0.566	-0.282
-318.026	-149.196	0.750	0.060
-317.012	174.204	0.329	0.474
-315.997	-200.000	0.052	0.494
-314.983	-120.671	0.672	-0.113
-313.968	-84.962	-0.491	-0.153
-312.953	196.972	0.127	-0.192
-311.939	356.507	-0.443	0.877
-310.924	-20.753	0.383	0.234
-309.910	254.631	-0.190	-0.323
-308.895	35.895	-0.120	0.105
-307.880	-14.016	-0.277	-0.178
-306.866	52.989	-0.725	0.690
-305.851	-200.000	0.042	-0.745
-304.837	77.710	-0.496	-0.526
-303.822	800.000	0.102	0.425
-302.807	800.000	0.160	-0.548
-301.793	507.749	-0.093	-0.216
-300.778	3.557	-0.865	0.627
-299.764	63.886	0.250	-0.250
-298.749	-178.978	-1.028	-0.023
-297.735	-200.000	-0.015	0.464
-296.720	-7.196	-0.748	0.504
-295.705	125.917	0.497	0.625
-294.691	364.082	-0.087	0.173
-293.676	-122.491	0.466	0.075
-292.662	231.196	0.662	-1.078
-291.647	-79.908	0.439	0.147
-290.632	-200.000	0.219	-1.064
-289.618	97.931	-0.137	-0.157
-288.603	92.650	0.466	-0.523
-287.589	800.000	-0.159	-0.635
-286.574	-157.332	0.842	0.051
-285.559	800.000	-0.163	0.497
-284.545	149.581	-0.179	0.242
-283.530	-165.612	-0.354	0.015
-282.516	46.927	-0.588	-0.544
-281.501	-66.094	-0.892	0.354
-280.486	335.496	0.475	0.916
-279.472	-69.887	0.412	-0.156
-278.457	-200.000	0.003	0.577
-277.443	312.887	-0.165	0.308
-276.428	-94.902	-0.318	-0.086
-275.413	250.697	0.188	0.318
-274.399	-63.769	-0.278	0.113
-273.384	-177.402	0.455	0.011
-272.370	-124.719	0.733	0.113
-271.355	-6.132	0.374	0.254
-270.340	-200.000	0.036	0.663
-269.326	-42.891	0.433	0.218
-268.311	-200.000	0.042	0.304
-267.297	-165.193	0.470	-0.021
-266.282	-200.000	-0.025	-0.607
-265.267	-25.843	-0.447	0.262
-264.253	-83.707	-0.794	-0.252
-263.238	178.785	-0.295	-0.428
-262.224	-24.255	-0.661	-0.392
-261.209	-200.000	-0.080	-0.495
-260.195	-93.527	-0.653	-0.179
-259.180	-42.375	0.691	-0.350
-258.165	800.000	0.179	-0.657
-257.151	-35.482	0.518	-0.279
-256.136	-156.051	0.849	-0.053
-255.122	-35.145	0.403	0.218
-254.107	160.254	-0.399	-0.553
-253.092	78.661	-0.100	-0.106
-252.078	-200.000	0.083	0.447
-251.063	-200.000	-0.161	1.211
-250.049	89.181	0.293	-0.324
-249.034	42.848	0.353	-0.320
-248.019	138.627	-0.648	0.844
-247.005	800.000	0.258	0.735
-245.990	6.321	-0.489	0.360
-244.976	-119.418	0.072	-0.012
-243.961	-123.373	0.920	-0.146
-242.946	-51.951	-0.671	-0.309
-241.932	288.476	-0.140	0.251
-240.917	88.882	-0.378	-0.418
-239.903	-92.433	-0.497	-0.139
-238.888	-200.000	-0.007	0.568
-237.873	-166.167	0.194	-0.008
-236.859	14.807	0.383	-0.297
-235.844	755.729	0.219	0.588
-234.830	-200.000	-0.046	-0.378
-233.815	-98.382	0.134	-0.034
-232.800	17.018	-0.477	0.375
-231.786	-9.414	-0.357	-0.236
-230.771	57.345	-0.160	-0.155
-229.757	-200.000	0.021	-0.703
-228.742	30.537	-0.346	0.294
-227.727	756.375	0.161	-0.431
-226.713	488.028	0.131	0.297
-225.698	800.000	-0.062	-0.239
-224.684	211.721	0.155	0.242
-223.669	-148.404	-0.763	0.062
-222.655	-116.513	0.444	-0.081
-221.640	197.000	0.365	0.551
-220.625	63.025	0.199	0.198
-219.611	128.652	0.623	0.787
-218.596	-93.779	0.439	0.120
-217.582	500.622	-0.173	-0.396
-216.567	274.379	0.436	-0.764
-215.552	-144.492	-0.584	0.054
-214.538	-200.000	0.011	0.642
-213.523	-129.706	-0.515	-0.070
-212.509	800.000	0.001	0.004
-211.494	-70.330	0.339	-0.128
-210.479	337.749	0.196	-0.377
-209.465	-86.656	-0.503	-0.153
-208.450	-200.000	-0.005	-0.406
-207.436	-29.928	0.411	-0.232
-206.421	-200.000	0.067	-0.796
-205.406	-117.934	0.462	-0.082
-204.392	19.386	0.611	0.486
-203.377	186.584	-0.266	-0.393
-202.363	211.293	0.295	0.460
-201.348	800.000	0.252	-0.721
-200.333	-27.280	0.325	0.187
-199.319	-200.000	-0.144	0.681
-198.304	-107.035	0.748	-0.164
-197.290	42.698	-0.523	0.472
-196.275	80.818	-0.171	0.182
-195.260	213.731	-0.176	0.276
-194.246	49.531	-0.249	-0.232
-193.231	10.800	-0.741	0.560
-192.217	105.618	0.245	-0.286
-191.202	-131.861	0.594	0.077
-190.187	262.563	0.396	-0.680
-189.173	800.000	-0.152	0.491
-188.158	-111.316	-0.827	-0.167
-187.144	800.000	0.113	-0.352
-186.129	102.235	-0.480	-0.555
-185.114	-26.390	0.306	-0.178
-184.100	14.041	0.143	-0.110
-183.085	-92.077	0.595	0.167
-182.071	92.674	0.336	-0.375
-181.056	800.000	-0.150	-0.497
-180.042	70.063	-0.507	0.518
-179.027	-0.225	0.353	0.249
-178.012	143.802	0.290	0.382
-176.998	-36.444	0.719	0.383
-175.983	-67.084	-0.528	-0.206
-174.969	193.732	-0.113	-0.169
-173.954	-1.114	0.790	-0.553
-172.939	213.625	-0.495	0.774
-171.925	175.731	-0.443	-0.635
-170.910	-200.000	-0.027	-0.757
-169.896	-72.589	0.470	0.172
-168.881	800.000	-0.153	0.656
-167.866	124.135	0.313	-0.389
-166.852	99.013	0.233	0.266
-165.837	104.848	-0.498	0.581
-164.823	-154.502	-0.900	-0.060
-163.808	-0.913	0.403	0.282
-162.793	800.000	-0.103	-0.338
-161.779	-91.233	0.364	0.103
-160.764	-200.000	0.019	0.408
-159.750	800.000	-0.141	0.475
-158.735	-106.772	-0.120	-0.026
-157.720	122.611	0.478	0.591
-156.706	65.840	0.167	0.168
-155.691	29.656	0.197	0.166
-154.677	453.861	0.244	-0.534
-153.662	199.869	-0.625	0.949
-152.647	800.000	0.275	0.770
-151.633	-3.983	-0.409	-0.281
-150.618	-49.472	0.806	0.380
-149.604	87.317	-0.599	0.655
-148.589	7.923	-0.967	0.717
-147.574	-200.000	-0.100	-0.502
-146.560	48.285	-0.299	-0.277
-145.545	207.704	-0.100	-0.155
-144.531	349.901	-0.182	-0.355
-143.516	312.971	-0.038	-0.071
-142.502	220.452	0.451	0.715
-141.487	101.976	0.394	-0.455
-140.472	765.168	0.101	-0.271
-139.458	-106.968	0.552	-0.121
-138.443	-200.000	-0.045	-0.525
-137.429	-58.884	0.439	-0.187
-136.414	104.814	-0.597	-0.696
-135.399	124.391	-0.360	-0.447
-134.385	800.000	0.110	0.404
-133.370	-17.631	0.373	-0.232
-132.356	94.729	0.542	-0.609
-131.341	740.712	0.081	0.216
-130.326	-200.000	0.021	0.252
-129.312	-139.052	0.478	0.051
-128.297	81.752	-0.512	-0.547
-127.283	-200.000	0.039	-0.519
-126.268	-127.158	1.332	-0.193
-125.253	-184.386	-0.222	-0.004
-124.239	-200.000	-0.008	0.497
-123.224	800.000	-0.107	0.334
-122.210	-120.403	0.440	0.074
-121.195	765.596	0.088	-0.237
-120.180	258.224	0.111	-0.189
-119.166	626.838	-0.424	-1.058
-118.151	-22.693	0.200	0.119
-117.137	-200.000	-0.016	0.174
-116.122	-143.569	0.239	0.022
-115.107	34.613	-0.636	-0.549
-114.093	-200.000	0.030	-0.895
-113.078	232.445	-0.362	-0.586
-112.064	-200.000	-0.065	-0.346
-111.049	800.000	0.412	-1.510
-110.034	173.087	-0.250	0.356
-109.020	-200.000	0.137	-1.044
-108.005	162.563	-0.086	-0.119
-106.991	800.000	-0.172	-0.653
-105.976	-147.813	0.422	-0.035
-104.962	-173.432	-0.489	0.015
-103.947	-200.000	-0.003	0.498
-102.932	-200.000	-0.013	0.328
-101.918	-164.960	0.077	0.003
-100.903	-50.061	0.820	-0.383
-99.889	-109.110	0.887	0.186
-98.874	-167.302	-0.344	-0.014
-97.859	-146.188	0.425	0.037
-96.845	-94.270	0.713	0.192
-95.830	-113.167	-1.270	0.247
-94.816	-44.811	-0.899	-0.442
-93.801	179.589	0.349	0.505
-92.786	-9.996	-0.495	-0.325
-91.772	97.807	-0.771	-0.874
-90.757	-117.672	0.882	-0.157
-89.743	-200.000	0.044	-0.623
-88.728	-200.000	0.142	-0.933
-87.713	32.491	-0.332	-0.283
-86.699	-200.000	0.022	-0.192
-85.684	574.758	0.439	-1.055
-84.670	-200.000	-0.035	-0.379
-83.655	-28.973	-0.109	0.062
-82.640	257.101	-0.273	-0.463
-81.626	-200.000	-0.001	-0.237
-80.611	396.187	-0.155	-0.318
-79.597	-200.000	0.065	0.352
-78.582	43.278	0.654	0.589
-77.567	-200.000	0.030	0.221
-76.553	424.933	-0.292	0.620
-75.538	50.453	-0.368	-0.343
-74.524	703.458	0.116	-0.301
-73.509	144.882	-0.270	-0.356
-72.494	120.217	0.651	-0.796
-71.480	143.346	-0.540	-0.708
-70.465	-2.326	0.147	-0.101
-69.451	266.933	0.289	0.498
-68.436	-200.000	0.030	-0.208
-67.422	800.000	-0.243	0.756
-66.407	-83.666	-0.111	0.035
-65.392	800.000	0.156	-0.632
-64.378	5.576	-0.205	-0.149
-63.363	800.000	-0.059	-0.231
-62.349	-200.000	-0.113	0.784
-61.334	-200.000	-0.100	-0.808
-60.319	-200.000	-0.121	1.128
-59.305	611.628	-0.466	-1.148
-58.290	800.000	0.218	0.750
-57.276	-200.000	0.105	1.411
-56.261	-200.000	96.484	581.491
-55.246	655.429	1365.392	3453.561
-54.232	202.258	2526.580	3839.727
-53.217	117.598	2144.079	2598.829
-52.203	43.265	1696.323	1525.682
-51.188	36.203	1510.389	1310.624
-50.173	33.695	1484.684	1271.491
-49.159	53.865	1536.765	1454.077
-48.144	54.809	1554.656	1477.383
-47.130	36.307	1512.634	1313.070
-46.115	33.145	1498.305	1279.230
-45.100	33.112	1494.703	1275.880
-44.086	33.077	1493.308	1274.402
-43.071	33.048	1490.037	1271.367
-42.057	32.924	1489.355	1269.896
-41.042	32.999	1487.187	1268.503
-40.027	32.990	1486.492	1267.802
-39.013	33.105	1484.089	1266.473
-37.998	32.859	1484.250	1264.911
-36.984	33.038	1482.358	1264.447
-35.969	32.932	1480.961	1262.495
-34.954	32.885	1480.536	1261.771
-33.940	32.971	1478.621	1260.663
-32.925	33.223	1476.719	1260.665
-31.911	33.126	1475.119	1258.607
-30.896	32.926	1474.550	1256.742
-29.881	33.174	1472.648	1256.715
-28.867	33.134	1470.792	1254.816
-27.852	33.254	1470.108	1254.982
-26.838	33.157	1468.952	1253.305
-25.823	32.792	1467.752	1249.810
-24.809	33.082	1465.689	1249.922
-23.794	32.871	1464.148	1247.166
-22.779	32.930	1462.972	1246.502
-21.765	32.851	1462.599	1245.612
-20.750	32.809	1460.423	1243.435
-19.736	33.003	1459.072	1243.511
-18.721	32.916	1458.993	1242.826
-17.706	32.859	1458.301	1241.809
-16.692	32.715	1457.021	1239.723
-15.677	32.945	1454.857	1239.344
-14.663	32.966	1454.773	1239.362
-13.648	32.842	1454.355	1238.141
-12.633	32.863	1453.337	1237.362
-11.619	32.994	1452.752	1237.677
-10.604	32.708	1451.405	1234.601
-9.590	32.938	1450.283	1235.103
-8.575	32.840	1449.593	1233.828
-7.560	32.849	1447.767	1232.287
-6.546	32.867	1447.266	1231.927
-5.531	32.668	1448.203	1231.377
-4.517	32.908	1445.987	1231.009
-3.502	32.851	1444.768	1229.548
-2.487	32.861	1444.064	1228.966
-1.473	32.910	1441.125	1226.736
-0.458	33.184	1440.170	1227.654
0.556	34.145	1430.774	1215.820
1.571	30.877	1406.195	1174.273
2.586	27.311	1347.221	1103.341
3.600	25.501	1268.645	1028.552
4.615	23.635	1223.082	981.220
5.629	20.657	1164.687	918.591
6.644	11.172	1080.314	805.294
7.659	4.243	1039.164	741.510
8.673	3.160	1033.725	732.410
9.688	2.968	1029.473	728.423
10.702	2.856	1028.377	727.053
11.717	2.936	1027.071	726.442
12.731	6.143	1030.267	743.832
13.746	15.148	1044.152	796.805
14.761	23.032	1052.410	840.684
15.775	24.790	1054.490	850.636
16.790	24.561	1052.815	848.124
17.804	24.467	1052.739	847.540
18.819	24.079	1052.466	845.404
19.834	24.587	1050.597	846.236
20.848	24.487	1049.600	844.886
21.863	24.652	1049.546	845.549
22.877	24.544	1050.192	845.483
23.892	24.856	1048.983	845.909
24.907	24.572	1048.694	844.261
25.921	24.478	1047.181	842.523
26.936	24.323	1047.172	841.711
27.950	24.344	1045.448	840.346
28.965	24.467	1044.410	840.020
29.980	24.511	1043.237	839.208
30.994	24.623	1041.475	838.241
32.009	24.285	1041.401	836.521
33.023	24.606	1040.214	836.995
34.038	24.721	1039.815	837.143
35.053	24.292	1038.731	834.190
36.067	24.389	1038.378	834.284
37.082	24.214	1037.630	832.789
38.096	24.264	1038.263	833.457
39.111	24.564	1036.325	833.229
40.126	24.713	1034.832	832.647
41.140	24.635	1033.656	831.267
42.155	24.234	1032.161	828.128
43.169	23.907	1033.003	827.208
44.184	24.534	1029.930	827.583
45.199	24.032	1029.745	825.033
46.213	24.165	1029.262	825.192
47.228	24.089	1027.693	823.509
48.242	24.542	1027.774	825.596
49.257	24.199	1027.705	823.882
50.271	24.543	1027.218	825.005
51.286	24.351	1025.482	822.655
52.301	24.552	1026.173	824.061
53.315	24.469	1024.665	822.396
54.330	24.524	1023.781	821.868
55.344	24.437	1022.889	820.676
56.359	24.376	1021.628	819.313
57.374	24.597	1019.966	818.921
58.388	24.145	1020.939	817.558
59.403	24.412	1019.044	817.188
60.417	24.004	1019.719	815.789
61.432	23.685	1018.858	813.566
62.447	24.141	1017.341	814.370
63.461	24.124	1016.869	813.841
64.476	24.502	1015.810	814.646
65.490	24.044	1015.614	812.330
66.505	24.130	1014.783	811.983
67.520	24.309	1013.063	811.350
68.534	24.130	1012.968	810.385
69.549	24.096	1011.745	809.184
70.563	23.823	1011.731	807.861
71.578	23.820	1010.323	806.649
72.593	23.753	1008.987	805.206
73.607	23.217	1008.263	802.132
74.622	23.721	1007.417	803.668
75.636	23.694	1006.531	802.767
76.651	23.923	1005.638	803.018
77.666	23.887	1004.684	802.024
78.680	23.962	1004.797	802.381
79.695	23.882	1003.961	801.280
80.709	23.896	1002.648	800.226
81.724	24.015	1003.342	801.246
82.739	24.086	1000.861	799.514
83.753	23.967	1001.087	799.087
84.768	24.320	999.435	799.280
85.782	24.893	999.523	801.847
86.797	24.934	1000.273	802.563
87.812	24.671	998.880	800.198
88.826	24.704	997.520	799.182
89.841	24.710	996.635	798.432
90.855	24.945	996.088	798.969
91.870	24.916	995.859	798.587
92.884	24.772	995.178	797.326
93.899	24.751	994.538	796.653
94.914	24.766	992.855	795.298
95.928	25.134	991.091	795.449
96.943	24.755	991.679	794.170
97.957	24.687	990.124	792.552
98.972	24.725	989.106	791.832
99.987	24.378	989.329	790.406
101.001	24.847	987.288	790.778
102.016	24.996	987.365	791.429
103.030	24.575	986.976	789.188
104.045	24.461	985.948	787.791
105.060	24.763	984.652	788.017
106.074	24.528	984.084	786.457
107.089	24.714	982.336	785.807
108.103	24.386	982.940	784.779
109.118	24.448	981.699	783.994
110.133	24.277	980.692	782.369
111.147	24.570	978.105	781.517
112.162	23.939	977.718	778.378
113.176	23.740	978.040	777.697
114.191	24.155	976.991	778.607
115.206	24.209	975.904	777.909
116.220	24.106	974.424	776.211
117.235	23.939	973.929	775.021
118.249	23.864	973.121	773.983
119.264	23.870	973.024	773.862
120.279	23.744	971.504	772.037
121.293	23.651	969.925	770.311
122.308	24.181	969.837	772.472
123.322	24.215	969.370	772.180
124.337	24.071	967.925	770.337
125.352	23.634	967.573	768.097
126.366	23.682	966.575	767.441
127.381	23.628	964.988	765.881
128.395	23.716	965.366	766.495
129.410	24.111	964.885	767.749
130.424	24.472	963.442	768.087
131.439	24.383	963.140	767.396
132.454	24.296	961.684	765.793
133.468	24.369	960.689	765.247
134.483	24.394	960.724	765.312
135.497	24.457	959.110	764.229
136.512	24.456	959.320	764.323
137.527	24.382	959.062	763.735
138.541	24.653	958.536	764.409
139.556	24.579	957.519	763.215
140.570	24.479	956.429	761.851
141.585	24.925	955.179	762.686
142.600	24.540	955.790	761.466
143.614	24.851	953.267	760.712
144.629	24.720	953.541	760.306
145.643	24.619	953.608	759.861
146.658	24.701	952.019	758.878
147.673	24.722	950.309	757.535
148.687	24.713	948.554	756.032
149.702	24.415	948.781	754.884
150.716	24.383	947.280	753.489
151.731	24.389	946.836	753.095
152.746	24.392	945.854	752.261
153.760	24.775	944.264	752.538
154.775	24.855	943.433	752.149
155.789	24.990	942.997	752.298
156.804	24.869	943.399	752.046
157.819	24.793	941.617	750.240
158.833	24.853	941.047	749.972
159.848	24.597	941.175	748.933
160.862	24.837	940.995	749.730
161.877	24.801	938.721	747.700
162.892	24.473	938.569	746.144
163.906	24.385	937.657	744.986
164.921	24.454	935.955	743.852
165.935	24.519	935.408	743.626
166.950	24.667	934.290	743.286
167.964	25.029	932.940	743.650
168.979	24.420	932.438	740.656
169.994	24.629	931.689	740.860
171.008	24.514	930.092	739.052
172.023	24.892	928.553	739.324
173.037	25.134	928.259	740.024
174.052	24.810	928.384	738.719
175.067	24.743	927.361	737.565
176.081	24.785	926.030	736.612
177.096	24.646	925.417	735.489
178.110	24.332	924.115	733.097
179.125	24.405	923.130	732.552
180.140	24.248	922.670	731.478
181.154	24.152	922.146	730.605
182.169	24.404	921.011	730.671
183.183	24.921	920.478	732.301
184.198	24.566	921.364	731.486
185.213	24.442	920.649	730.347
186.227	24.261	919.471	728.610
187.242	24.199	920.223	728.884
188.256	24.671	919.336	730.048
189.271	24.731	917.841	729.038
190.286	24.854	917.421	729.142
191.300	25.022	915.567	728.289
192.315	24.097	914.695	723.772
193.329	23.782	914.481	722.257
194.344	23.497	913.119	719.960
195.359	24.150	912.511	722.067
196.373	24.860	912.500	724.872
197.388	24.894	912.052	724.588
198.402	24.974	912.005	724.811
199.417	24.916	911.178	723.857
200.432	25.277	911.457	725.471
201.446	25.213	910.744	724.582
202.461	24.901	910.531	723.087
203.475	25.101	909.777	723.234
204.490	24.611	909.547	721.007
205.504	24.379	906.485	717.583
206.519	24.202	906.948	717.176
207.534	24.141	907.734	717.486
208.548	24.766	905.516	718.183
209.563	24.919	905.286	718.548
210.577	25.127	904.502	718.697
211.592	24.858	903.837	717.027
212.607	25.151	903.477	717.852
213.621	25.066	903.442	717.420
214.636	24.880	903.095	716.337
215.650	25.212	902.037	716.759
216.665	25.273	901.044	716.154
217.680	24.859	901.465	714.770
218.694	25.108	900.509	714.941
219.709	24.986	900.237	714.178
220.723	24.707	899.092	712.095
221.738	24.998	897.664	712.056
222.753	24.950	898.155	712.192
223.767	24.709	896.818	710.112
224.782	24.983	895.858	710.375
225.796	24.839	896.253	710.056
226.811	24.965	895.234	709.682
227.826	24.841	894.461	708.516
228.840	24.848	891.940	706.486
229.855	24.684	892.036	705.851
230.869	24.671	891.729	705.495
231.884	24.862	891.006	705.612
232.899	24.557	890.592	704.020
233.913	24.829	890.569	705.013
234.928	24.865	890.232	704.827
235.942	24.769	888.577	703.075
236.957	24.821	888.732	703.340
237.972	24.595	887.850	701.693
238.986	24.820	886.157	701.174
240.001	24.333	885.507	698.692
241.015	24.420	885.989	699.350
242.030	24.724	884.868	699.592
243.045	24.457	884.479	698.179
244.059	24.520	884.425	698.321
245.074	24.662	883.908	698.405
246.088	24.532	883.905	697.833
247.103	24.926	882.358	698.088
248.117	25.058	881.522	697.878
249.132	25.129	882.490	698.861
250.147	25.437	882.174	699.747
251.161	25.568	881.716	699.830
252.176	26.064	880.555	700.776
253.190	25.861	880.356	699.768
254.205	25.612	879.396	697.977
255.220	25.975	878.706	698.773
256.234	26.016	878.290	698.540
257.249	25.826	877.626	697.215
258.263	25.746	877.101	696.426
259.278	25.654	876.792	695.765
260.293	25.558	875.396	694.222
261.307	25.821	875.991	695.648
262.322	25.410	876.442	694.357
263.336	25.613	874.706	693.703
264.351	25.395	873.958	692.209
265.366	24.349	873.469	687.730
266.380	25.061	871.460	688.825
267.395	25.279	871.306	689.480
268.409	25.590	871.310	690.618
269.424	25.727	869.697	689.803
270.439	25.462	869.477	688.550
271.453	25.823	868.558	689.146
272.468	25.869	867.245	688.218
273.482	25.840	866.859	687.741
274.497	25.925	867.219	688.289
275.512	25.557	867.459	687.013
276.526	25.694	865.702	686.080
277.541	25.676	864.746	685.197
278.555	25.510	864.940	684.656
279.570	25.735	864.178	684.850
280.585	25.877	864.026	685.206
281.599	25.719	863.042	683.768
282.614	25.443	862.454	682.191
283.628	25.302	862.588	681.703
284.643	25.179	861.366	680.210
285.657	25.228	860.866	679.943
286.672	25.448	861.070	680.876
287.687	25.136	859.645	678.507
288.701	25.017	860.223	678.452
289.716	25.321	859.300	678.813
290.730	25.477	857.559	677.969
291.745	25.526	857.624	678.144
292.760	25.034	856.759	675.547
293.774	25.351	856.117	676.173
294.789	25.902	856.540	678.523
295.803	25.979	856.219	678.499
296.818	26.139	855.376	678.373
297.833	25.730	854.795	676.316
298.847	25.481	854.081	674.757
299.862	25.616	852.358	673.842
300.876	25.770	852.995	674.860
301.891	25.686	852.481	674.082
302.906	25.971	851.996	674.704
303.920	26.140	850.477	674.073
304.935	25.955	849.922	672.882
305.949	26.175	850.812	674.349
306.964	25.648	850.087	671.750
307.979	25.786	848.385	670.859
308.993	25.551	848.243	669.811
310.008	25.728	848.414	670.548
311.022	25.708	847.851	669.967
312.037	25.673	847.766	669.712
313.052	25.914	846.872	669.840
314.066	25.825	846.130	668.864
315.081	25.380	844.129	665.576
316.095	25.313	843.334	664.642
317.110	24.808	843.879	663.139
318.125	25.231	843.452	664.312
319.139	25.267	842.468	663.613
320.154	24.660	841.471	660.525
321.168	24.553	840.564	659.361
322.183	24.610	840.796	659.694
323.197	25.221	841.026	662.074
324.212	25.561	839.567	662.117
325.227	25.551	839.343	661.847
326.241	25.292	839.108	660.650
327.256	25.128	837.931	659.060
328.270	25.231	837.847	659.314
329.285	25.431	837.085	659.392
330.300	25.210	836.374	657.961
331.314	25.138	835.727	657.132
332.329	25.233	834.389	656.367
333.343	25.070	835.241	656.382
334.358	25.548	834.591	657.563
335.373	25.781	834.013	657.900
336.387	25.629	833.970	657.252
337.402	25.960	832.795	657.475
338.416	26.061	831.864	657.050
339.431	26.361	832.150	658.310
340.446	26.050	831.716	656.778
341.460	26.198	831.790	657.316
342.475	26.303	830.721	656.796
343.489	26.492	829.244	656.255
344.504	26.543	828.757	655.998
345.519	26.145	829.252	654.887
346.533	26.133	828.928	654.529
347.548	26.340	828.520	654.898
348.562	26.571	827.385	654.781
349.577	26.680	826.142	654.132
350.592	26.112	827.128	652.801
351.606	26.325	825.348	652.108
352.621	26.102	824.686	650.721
353.635	25.792	825.309	650.036
354.650	26.329	823.787	650.715
355.665	25.784	824.145	648.976
356.679	25.175	822.867	645.723
357.694	25.762	822.040	647.128
358.708	26.069	821.645	647.861
359.723	25.638	821.822	646.393
360.738	25.714	820.272	645.390
361.752	25.675	820.924	645.706
362.767	25.503	820.955	645.056
363.781	26.128	819.752	646.294
364.796	26.476	820.054	647.719
365.810	26.260	819.638	646.560
366.825	26.655	819.312	647.659
367.840	26.444	818.260	646.017
368.854	26.196	818.086	644.936
369.869	26.033	817.404	643.760
370.883	26.341	816.570	644.145
371.898	26.169	816.752	643.617
372.913	26.412	815.243	643.236
373.927	26.576	813.914	642.711
374.942	26.149	814.305	641.447
375.956	26.005	814.377	640.934
376.971	26.181	813.663	640.942
377.986	26.255	812.487	640.221
379.000	26.256	812.173	639.921
380.015	27.000	810.892	641.484
381.029	26.432	810.735	639.295
382.044	26.312	810.406	638.557
383.059	26.336	809.515	637.885
384.073	26.707	809.836	639.390
385.088	26.243	809.571	637.485
386.102	26.077	807.816	635.462
387.117	26.034	807.441	634.960
388.132	25.936	807.616	634.697
389.146	26.350	805.933	634.773
390.161	25.795	805.396	632.345
391.175	26.083	805.495	633.376
392.190	26.692	806.233	636.040
393.205	26.751	804.445	634.780
394.219	25.867	804.760	631.874
395.234	25.082	803.612	628.169
396.248	24.537	802.024	624.964
397.263	25.214	802.049	627.295
398.278	25.722	802.077	629.038
399.292	25.989	802.172	629.992
400.307	25.720	800.137	627.399
401.321	25.670	800.455	627.417
402.336	25.612	800.223	626.979
403.350	26.007	798.932	627.288
404.365	26.269	799.779	628.806
405.380	26.795	799.207	630.130
406.394	26.996	799.243	630.802
407.409	26.701	798.971	629.508
408.423	26.862	797.879	629.149
409.438	26.592	798.018	628.266
410.453	26.862	797.812	628.984
411.467	27.072	795.795	628.067
412.482	26.306	796.079	625.582
413.496	26.624	796.451	626.921
414.511	26.515	796.028	626.154
415.526	26.932	794.724	626.514
416.540	26.900	794.283	626.001
417.555	26.694	793.698	624.775
418.569	26.600	793.975	624.612
419.584	26.903	792.636	624.546
420.599	26.614	793.206	623.947
421.613	160.002	1369.724	1793.673
422.628	138.633	1453.779	1793.710
