DTS Sentinel unit serial number:	SN413079Multiplexer serial number:	ORYXHardware model number:	OX4-SRSoftware version number:	ORYX F/W v4.00 Oryx Data Collector v3.7.2.0data status	okinstallation	princeton_trtdifferential loss correction	single-endedforward channel	channel 3reverse channel	N/Adate	2019/09/14time	06:00:34forward acquisition time	60.00reverse acquisition time	0.00gamma	496.2192k internal	0.2338k external	0.2338temperature offset calibration	1.0057default loss term (dB/km)	0.3790temperature slope calibration	1.0000multiplexer offset coefficient	1.0000multiplexer slope coefficient	1.0000fibre end	0.00T internal ref (°C)	26.81T ext. ref 1 (°C)	3.40T ext. ref 2 (°C)	21.02length (m)	temperature (°C)	Stokes	anti-Stokes-747.200	-129.878	0.729	-0.100
-746.185	-200.000	-0.030	0.339
-745.171	-200.000	0.020	0.161
-744.156	15.412	0.004	0.003
-743.142	-200.000	-0.043	0.254
-742.127	46.931	-0.279	0.260
-741.112	173.047	-0.077	0.111
-740.098	81.106	-0.274	0.297
-739.083	-109.120	0.170	-0.036
-738.069	-200.000	-0.051	0.356
-737.054	-56.945	0.171	-0.076
-736.039	-102.013	0.111	0.027
-735.025	-54.914	-0.067	-0.030
-734.010	800.000	-0.094	-0.262
-732.996	-92.683	-0.315	-0.088
-731.981	508.306	-0.121	-0.282
-730.966	-200.000	0.001	-0.286
-729.952	-31.313	-0.112	0.063
-728.937	118.363	-0.238	0.295
-727.923	164.109	0.173	-0.245
-726.908	-172.150	-0.157	-0.005
-725.894	-80.232	-0.132	-0.044
-724.879	479.890	0.115	0.261
-723.864	347.905	0.030	-0.058
-722.850	160.518	0.050	0.070
-721.835	74.877	0.167	0.176
-720.821	-115.378	-0.177	0.033
-719.806	-200.000	-0.031	-0.158
-718.791	24.207	-0.136	0.113
-717.777	800.000	-0.062	-0.253
-716.762	337.778	0.052	-0.101
-715.748	-43.496	-0.224	0.113
-714.733	800.000	-0.071	-0.234
-713.718	-140.675	-0.168	0.017
-712.704	-48.234	-0.189	-0.092
-711.689	-2.169	0.121	0.085
-710.675	98.398	0.132	-0.152
-709.660	193.443	-0.138	-0.210
-708.645	-200.000	0.061	-0.496
-707.631	-1.159	-0.042	-0.029
-706.616	86.237	0.174	-0.192
-705.602	666.915	0.108	-0.280
-704.587	70.389	-0.187	-0.194
-703.572	-81.897	-0.222	0.073
-702.558	622.680	0.177	-0.447
-701.543	-140.722	0.201	-0.021
-700.529	190.575	0.110	0.166
-699.514	548.890	-0.070	0.168
-698.499	-153.131	0.082	0.006
-697.485	-75.459	-0.246	-0.088
-696.470	-90.200	0.150	-0.044
-695.456	-16.523	0.254	-0.161
-694.441	138.825	0.133	-0.175
-693.426	54.090	-0.212	-0.204
-692.412	14.146	-0.239	0.186
-691.397	27.115	0.321	-0.270
-690.383	127.335	-0.033	-0.042
-689.368	-200.000	-0.056	-0.366
-688.354	67.948	-0.051	0.052
-687.339	115.599	0.206	0.253
-686.324	-18.168	0.137	-0.086
-685.310	-200.000	0.005	-0.102
-684.295	260.155	0.168	-0.291
-683.281	-4.135	0.177	-0.123
-682.266	66.835	-0.083	-0.085
-681.251	800.000	-0.042	-0.185
-680.237	800.000	0.141	0.435
-679.222	-52.752	0.088	0.041
-678.208	-94.133	0.221	-0.061
-677.193	89.157	0.192	-0.214
-676.178	728.382	0.106	-0.283
-675.164	-84.058	-0.103	-0.033
-674.149	3.093	0.103	0.075
-673.135	-200.000	0.012	-0.152
-672.120	-200.000	-0.012	-0.212
-671.105	-106.028	-0.359	-0.081
-670.091	-160.835	0.131	0.007
-669.076	-139.195	0.275	-0.030
-668.062	-45.702	0.279	-0.138
-667.047	-200.000	0.004	0.134
-666.032	-152.039	-0.419	0.031
-665.018	514.688	0.067	0.156
-664.003	326.835	0.073	-0.139
-662.989	-48.943	0.073	-0.035
-661.974	88.115	-0.190	0.210
-660.959	-200.000	0.000	0.060
-659.945	566.788	-0.125	0.302
-658.930	48.905	-0.125	-0.117
-657.916	25.857	-0.115	0.096
-656.901	-200.000	0.050	-0.311
-655.886	-108.479	-0.354	-0.076
-654.872	-200.000	0.016	0.205
-653.857	-65.289	-0.177	-0.071
-652.843	-162.166	-0.285	-0.014
-651.828	132.838	0.076	0.098
-650.814	-166.947	-0.278	0.011
-649.799	-200.000	-0.069	0.335
-648.784	-149.824	-0.433	0.034
-647.770	-200.000	0.016	0.236
-646.755	-50.308	-0.295	0.140
-645.741	7.959	-0.144	-0.108
-644.726	-117.191	-0.345	0.063
-643.711	95.390	0.250	-0.285
-642.697	487.457	-0.125	0.284
-641.682	292.990	-0.099	-0.180
-640.668	11.461	0.047	-0.036
-639.653	800.000	0.192	-0.539
-638.638	381.858	0.186	-0.383
-637.624	-71.978	-0.025	-0.009
-636.609	-163.169	-0.365	-0.018
-635.595	800.000	0.107	-0.298
-634.580	800.000	0.034	-0.148
-633.565	-31.543	-0.184	0.103
-632.551	-78.458	-0.106	0.036
-631.536	43.693	-0.250	0.229
-630.522	-74.655	-0.121	-0.044
-629.507	-46.699	-0.152	-0.074
-628.492	257.414	0.034	-0.058
-627.478	-96.066	-0.363	-0.096
-626.463	-107.875	-0.113	-0.025
-625.449	301.864	-0.064	0.118
-624.434	-180.736	0.289	0.006
-623.419	-63.780	-0.181	-0.074
-622.405	69.609	0.058	-0.060
-621.390	-200.000	0.011	-0.060
-620.376	-93.651	0.305	-0.084
-619.361	-21.495	-0.137	-0.083
-618.346	48.210	0.282	0.263
-617.332	800.000	0.100	-0.283
-616.317	101.948	-0.079	0.092
-615.303	-162.793	-0.057	0.003
-614.288	-104.798	0.163	0.037
-613.273	-200.000	-0.037	-0.170
-612.259	-4.286	0.263	0.181
-611.244	-82.723	-0.207	0.067
-610.230	-123.602	-0.142	-0.022
-609.215	-200.000	0.007	0.162
-608.201	-28.518	0.104	0.060
-607.186	263.437	-0.028	-0.048
-606.171	11.958	0.183	-0.141
-605.157	-50.743	-0.352	-0.165
-604.142	279.583	0.078	0.138
-603.128	-200.000	0.012	0.081
-602.113	129.840	-0.085	0.108
-601.098	-116.263	0.158	-0.029
-600.084	24.228	0.109	-0.089
-599.069	-42.476	0.112	0.057
-598.055	-200.000	0.002	-0.140
-597.040	-200.000	0.007	-0.051
-596.025	-19.595	-0.253	-0.156
-595.011	-22.120	-0.115	0.069
-593.996	-200.000	-0.076	0.337
-592.982	37.242	-0.227	-0.201
-591.967	-134.914	-0.127	-0.015
-590.952	474.168	0.078	0.175
-589.938	800.000	0.067	0.282
-588.923	457.961	0.185	0.409
-587.909	-62.481	-0.229	0.095
-586.894	375.486	-0.110	0.224
-585.879	800.000	0.108	0.306
-584.865	-0.985	0.147	-0.104
-583.850	88.621	0.066	-0.073
-582.836	-200.000	0.002	-0.235
-581.821	800.000	-0.066	-0.246
-580.806	34.661	-0.029	-0.025
-579.792	-50.610	0.097	-0.046
-578.777	-20.275	-0.168	-0.103
-577.763	407.695	-0.040	-0.085
-576.748	-95.769	0.069	0.019
-575.733	159.231	0.201	-0.278
-574.719	-94.770	0.139	0.037
-573.704	34.928	-0.164	0.143
-572.690	-99.409	0.290	0.073
-571.675	28.634	0.111	-0.093
-570.661	-57.301	0.401	-0.176
-569.646	563.501	0.095	0.230
-568.631	12.625	0.186	-0.143
-567.617	-200.000	-0.105	0.488
-566.602	800.000	-0.133	-0.371
-565.588	398.048	0.108	0.225
-564.573	-120.535	-0.458	-0.077
-563.558	800.000	0.061	0.174
-562.544	-101.188	-0.115	-0.028
-561.529	-200.000	-0.027	-0.275
-560.515	38.830	0.049	-0.043
-559.500	-87.452	0.134	-0.041
-558.485	-96.249	0.167	0.044
-557.471	800.000	-0.066	0.210
-556.456	261.508	-0.103	-0.178
-555.442	-154.094	-0.047	-0.003
-554.427	-52.554	0.269	-0.124
-553.412	7.831	-0.340	0.254
-552.398	-200.000	0.010	0.122
-551.383	23.192	-0.280	-0.229
-550.369	-200.000	0.053	0.340
-549.354	-79.923	0.228	-0.076
-548.339	-59.344	-0.353	-0.151
-547.325	-200.000	0.001	0.087
-546.310	-19.159	0.153	0.095
-545.296	126.474	0.176	-0.222
-544.281	11.655	-0.089	0.068
-543.266	770.061	0.114	-0.310
-542.252	144.381	-0.213	-0.283
-541.237	-39.885	-0.194	-0.101
-540.223	574.646	-0.049	0.120
-539.208	72.586	-0.125	-0.130
-538.193	-48.969	0.099	-0.047
-537.179	187.085	-0.048	0.071
-536.164	-32.151	-0.272	-0.151
-535.150	-183.564	-0.188	0.003
-534.135	-31.653	0.067	-0.037
-533.121	72.493	-0.038	0.040
-532.106	-200.000	-0.004	-0.475
-531.091	-151.934	-0.148	0.011
-530.077	-56.229	0.377	0.167
-529.062	-120.073	-0.057	-0.010
-528.048	-119.288	0.060	0.010
-527.033	54.081	0.238	0.228
-526.018	-99.943	0.177	-0.044
-525.004	626.968	-0.105	-0.264
-523.989	-86.819	0.068	0.021
-522.975	60.810	-0.051	-0.050
-521.960	-108.704	-0.606	0.129
-520.945	800.000	-0.054	-0.191
-519.931	48.176	0.211	-0.197
-518.916	-22.321	0.103	0.062
-517.902	-125.195	-0.121	0.018
-516.887	-200.000	0.026	0.128
-515.872	-30.950	0.200	-0.112
-514.858	197.182	-0.137	-0.208
-513.843	28.705	-0.086	0.072
-512.829	80.532	0.073	-0.079
-511.814	-32.856	-0.102	0.056
-510.799	268.770	0.056	0.097
-509.785	-200.000	-0.013	-0.057
-508.770	-78.958	-0.186	-0.063
-507.756	-200.000	0.026	-0.170
-506.741	800.000	-0.088	0.375
-505.726	-73.054	-0.290	0.106
-504.712	396.111	0.068	0.142
-503.697	-74.312	0.087	-0.031
-502.683	70.889	-0.203	-0.209
-501.668	2.925	0.087	0.063
-500.653	-88.032	-0.092	0.027
-499.639	-200.000	0.023	-0.303
-498.624	706.779	0.127	0.332
-497.610	129.147	0.029	0.037
-496.595	399.070	-0.041	-0.085
-495.581	-110.654	0.165	0.034
-494.566	-200.000	0.028	-0.180
-493.551	530.659	0.120	-0.281
-492.537	-70.955	-0.131	0.049
-491.522	-200.000	0.028	0.208
-490.508	-200.000	0.006	-0.092
-489.493	-118.824	0.169	0.029
-488.478	-200.000	-0.074	-0.418
-487.464	-200.000	0.002	-0.109
-486.449	-57.442	-0.109	-0.047
-485.435	-99.084	-0.295	0.074
-484.420	-159.846	0.293	0.016
-483.405	115.651	-0.153	-0.186
-482.391	678.544	-0.024	0.061
-481.376	138.440	0.107	0.139
-480.362	15.776	0.242	0.189
-479.347	-160.361	-0.575	-0.031
-478.332	800.000	0.060	-0.248
-477.318	30.491	0.062	-0.053
-476.303	-200.000	0.013	-0.132
-475.289	-196.678	0.107	0.001
-474.274	-51.335	-0.160	0.074
-473.259	489.386	-0.165	-0.375
-472.245	-200.000	-0.009	-0.083
-471.230	251.715	-0.026	-0.043
-470.216	800.000	0.006	-0.016
-469.201	-75.635	0.199	0.070
-468.186	-126.942	-0.300	-0.044
-467.172	-200.000	-0.055	-0.296
-466.157	121.546	-0.022	-0.027
-465.143	72.947	0.132	-0.137
-464.128	223.595	-0.150	-0.241
-463.113	278.456	-0.129	-0.229
-462.099	-138.457	0.461	-0.050
-461.084	-200.000	-0.006	0.136
-460.070	-200.000	-0.225	-0.001
-459.055	-73.150	-0.403	0.147
-458.040	-200.000	-0.077	0.449
-457.026	-24.160	0.152	-0.090
-456.011	-128.169	0.333	0.047
-454.997	-136.439	-0.366	0.042
-453.982	-200.000	0.010	0.091
-452.968	-105.362	-0.202	-0.046
-451.953	20.814	-0.063	0.051
-450.938	34.636	-0.225	-0.195
-449.924	35.246	0.091	0.079
-448.909	800.000	-0.059	0.191
-447.895	-95.496	0.288	-0.077
-446.880	-29.767	-0.416	0.235
-445.865	57.501	0.027	-0.027
-444.851	12.060	-0.218	-0.166
-443.836	-200.000	0.015	-0.263
-442.822	340.539	-0.036	-0.070
-441.807	-200.000	0.008	-0.123
-440.792	-200.000	0.029	0.318
-439.778	12.265	-0.229	-0.175
-438.763	75.212	-0.322	-0.337
-437.749	-132.541	-0.224	-0.029
-436.734	92.550	0.164	0.184
-435.719	-200.000	0.018	-0.135
-434.705	-87.912	-0.479	-0.143
-433.690	92.332	0.124	-0.139
-432.676	158.517	-0.067	-0.092
-431.661	17.930	0.226	-0.179
-430.646	208.079	0.035	-0.054
-429.632	767.477	-0.110	-0.298
-428.617	375.467	-0.091	0.184
-427.603	-200.000	0.003	0.350
-426.588	737.286	0.117	-0.312
-425.573	800.000	-0.097	0.407
-424.559	-62.920	0.257	-0.105
-423.544	-148.236	0.275	0.023
-422.530	106.438	0.154	-0.181
-421.515	-200.000	0.014	-0.149
-420.500	68.415	0.261	0.265
-419.486	800.000	0.078	0.227
-418.471	-56.751	0.107	0.047
-417.457	146.248	0.203	-0.271
-416.442	800.000	0.026	-0.084
-415.428	800.000	-0.053	-0.169
-414.413	186.826	0.058	-0.085
-413.398	4.463	-0.146	-0.106
-412.384	17.893	0.166	0.131
-411.369	-200.000	-0.009	-0.063
-410.355	86.962	0.041	0.045
-409.340	381.085	0.076	0.154
-408.325	-47.957	-0.114	-0.054
-407.311	-149.108	0.393	-0.031
-406.296	685.914	-0.112	0.291
-405.282	512.763	0.065	0.151
-404.267	-115.698	0.160	0.030
-403.252	800.000	-0.022	-0.078
-402.238	238.203	0.107	0.175
-401.223	-200.000	0.043	-0.261
-400.209	-128.602	-0.178	0.025
-399.194	132.666	-0.196	0.250
-398.179	-40.216	-0.262	0.135
-397.165	-200.000	0.044	-0.249
-396.150	800.000	0.082	0.292
-395.136	-67.935	-0.143	0.055
-394.121	-73.419	-0.182	0.066
-393.106	-172.703	0.408	-0.013
-392.092	-151.821	-0.262	-0.019
-391.077	27.904	0.361	0.301
-390.063	-147.908	0.125	-0.010
-389.048	-34.152	0.181	-0.098
-388.033	33.620	0.090	-0.078
-387.019	-49.201	-0.239	-0.113
-386.004	-101.883	-0.228	0.055
-384.990	-96.560	0.064	-0.017
-383.975	700.923	0.113	-0.293
-382.960	-200.000	0.012	-0.218
-381.946	95.086	-0.153	0.172
-380.931	15.372	0.108	0.084
-379.917	-120.882	0.294	0.049
-378.902	-200.000	-0.013	0.102
-377.888	58.312	0.314	0.305
-376.873	102.157	0.277	0.320
-375.858	-126.994	0.425	0.062
-374.844	-200.000	-0.048	0.247
-373.829	-99.265	-0.073	-0.018
-372.815	193.147	0.055	0.082
-371.800	-200.000	-0.017	0.384
-370.785	800.000	0.038	-0.113
-369.771	-174.720	0.327	0.009
-368.756	-200.000	-0.087	0.562
-367.742	800.000	0.045	0.158
-366.727	-94.409	0.198	0.053
-365.712	84.748	0.194	0.210
-364.698	-9.103	-0.039	-0.026
-363.683	-110.083	0.195	0.040
-362.669	-200.000	-0.010	0.154
-361.654	-133.405	-0.442	-0.055
-360.639	800.000	0.028	-0.076
-359.625	116.563	0.178	0.216
-358.610	519.976	-0.148	-0.342
-357.596	-165.963	0.315	0.013
-356.581	-200.000	0.052	-0.457
-355.566	-17.461	0.313	-0.195
-354.552	-200.000	0.018	0.255
-353.537	130.621	0.093	-0.118
-352.523	258.544	-0.128	0.218
-351.508	-200.000	0.001	0.123
-350.493	-200.000	-0.026	-0.184
-349.479	160.116	0.071	-0.097
-348.464	-135.204	-0.262	0.031
-347.450	800.000	-0.027	0.079
-346.435	333.228	0.097	-0.184
-345.420	800.000	0.030	0.108
-344.406	-200.000	-0.022	0.102
-343.391	-200.000	0.012	-0.091
-342.377	-174.302	-0.024	0.001
-341.362	-200.000	-0.002	0.215
-340.348	-136.760	-0.088	0.010
-339.333	-200.000	-0.020	-0.240
-338.318	-200.000	-0.030	-0.148
-337.304	61.016	0.148	0.145
-336.289	526.992	0.050	0.117
-335.275	237.157	0.162	0.264
-334.260	-167.763	-0.212	0.008
-333.245	141.802	-0.138	-0.181
-332.231	-32.853	0.066	0.036
-331.216	-127.367	0.246	-0.035
-330.202	6.673	0.100	-0.073
-329.187	43.257	-0.067	0.061
-328.172	-137.957	-0.250	0.028
-327.158	-169.365	-0.109	0.004
-326.143	37.246	-0.068	0.059
-325.129	-111.460	-0.171	-0.034
-324.114	2.555	-0.227	-0.162
-323.099	-54.113	0.054	-0.024
-322.085	-44.927	0.182	-0.090
-321.070	34.946	0.168	0.145
-320.056	-18.058	-0.037	-0.023
-319.041	-100.673	-0.224	0.055
-318.026	-92.709	-0.102	0.028
-317.012	184.652	-0.155	-0.226
-315.997	-200.000	-0.022	0.159
-314.983	-55.582	-0.337	0.149
-313.968	-200.000	-0.046	-0.303
-312.953	113.290	-0.172	-0.206
-311.939	350.696	-0.059	0.114
-310.924	-7.106	-0.199	0.133
-309.910	-200.000	0.042	0.295
-308.895	25.337	-0.110	0.090
-307.880	70.688	0.318	0.325
-306.866	187.857	0.094	0.138
-305.851	800.000	-0.107	-0.462
-304.837	133.793	0.042	0.054
-303.822	-127.196	0.091	-0.013
-302.807	-22.125	0.380	-0.227
-301.793	59.841	-0.207	-0.201
-300.778	719.761	0.101	-0.264
-299.764	36.924	-0.013	0.011
-298.749	423.587	-0.030	-0.064
-297.735	800.000	0.017	-0.049
-296.720	-129.728	0.169	0.023
-295.705	216.201	0.200	0.314
-294.691	134.941	0.149	0.190
-293.676	275.653	-0.133	-0.232
-292.662	38.750	-0.211	-0.185
-291.647	-9.743	0.089	-0.059
-290.632	-200.000	-0.004	-0.062
-289.618	17.282	0.092	0.072
-288.603	-200.000	0.001	0.036
-287.589	-195.569	-0.068	-0.000
-286.574	-179.380	-0.056	-0.001
-285.559	-80.364	-0.170	-0.056
-284.545	-173.530	-0.071	-0.002
-283.530	-200.000	-0.025	0.211
-282.516	-112.556	-0.379	0.074
-281.501	104.976	0.163	-0.189
-280.486	-200.000	0.000	-0.128
-279.472	-69.833	0.286	0.107
-278.457	-148.851	-0.083	0.007
-277.443	25.317	0.138	-0.113
-276.428	800.000	0.090	0.290
-275.413	92.566	0.159	-0.176
-274.399	9.954	-0.123	-0.092
-273.384	478.963	0.153	0.341
-272.370	81.212	0.312	-0.332
-271.355	-183.765	-0.144	-0.002
-270.340	162.953	0.107	-0.148
-269.326	-72.878	0.164	-0.059
-268.311	-13.168	0.118	0.075
-267.297	303.174	-0.061	0.111
-266.282	800.000	-0.025	-0.100
-265.267	-200.000	0.029	-0.233
-264.253	694.699	0.185	0.479
-263.238	614.925	-0.049	0.121
-262.224	298.224	-0.121	0.218
-261.209	251.479	-0.136	0.228
-260.195	-152.923	-0.159	0.011
-259.180	-132.987	0.332	-0.042
-258.165	-200.000	-0.025	0.290
-257.151	-60.047	-0.372	0.156
-256.136	71.318	0.119	0.122
-255.122	47.651	0.150	0.137
-254.107	-114.442	0.145	0.027
-253.092	-87.228	-0.236	-0.071
-252.078	-126.649	0.352	0.051
-251.063	37.312	0.163	-0.142
-250.049	-106.197	0.165	-0.037
-249.034	-177.725	0.170	-0.004
-248.019	690.422	0.060	0.155
-247.005	125.967	-0.051	-0.064
-245.990	40.220	0.284	-0.251
-244.976	-48.890	0.221	-0.104
-243.961	-74.442	-0.160	0.057
-242.946	-181.608	0.150	-0.003
-241.932	800.000	-0.082	0.282
-240.917	75.486	-0.137	0.143
-239.903	-200.000	0.046	-0.219
-238.888	-133.540	0.079	0.010
-237.873	-73.579	-0.035	0.012
-236.859	800.000	-0.018	-0.057
-235.844	-200.000	-0.011	0.294
-234.830	-100.326	-0.126	0.031
-233.815	-39.355	0.180	0.093
-232.800	76.710	-0.380	-0.397
-231.786	-45.040	0.287	-0.140
-230.771	9.597	0.257	-0.192
-229.757	147.647	-0.104	-0.138
-228.742	140.734	0.084	-0.110
-227.727	-90.276	-0.413	-0.118
-226.713	-49.276	-0.274	0.129
-225.698	97.461	-0.202	0.228
-224.684	-97.415	0.132	0.034
-223.669	422.767	-0.015	-0.031
-222.655	-61.774	0.227	0.093
-221.640	412.772	-0.022	-0.046
-220.625	-50.999	0.240	-0.111
-219.611	800.000	-0.096	0.401
-218.596	10.892	-0.302	0.227
-217.582	84.432	0.226	-0.243
-216.567	800.000	-0.018	0.064
-215.552	-96.212	0.348	-0.091
-214.538	338.975	-0.108	0.207
-213.523	36.097	0.061	-0.053
-212.509	655.276	0.122	0.307
-211.494	251.681	0.047	0.078
-210.479	-46.117	0.072	0.035
-209.465	-81.283	0.148	0.048
-208.450	315.297	0.129	0.239
-207.436	194.565	-0.250	0.372
-206.421	-185.209	-0.201	0.003
-205.406	-163.690	0.454	0.021
-204.392	338.824	-0.018	-0.035
-203.377	-79.130	-0.151	0.050
-202.363	-200.000	-0.011	0.187
-201.348	185.044	0.169	-0.246
-200.333	-18.496	-0.190	-0.116
-199.319	61.282	-0.144	-0.141
-198.304	37.358	-0.295	-0.257
-197.290	126.253	-0.169	-0.210
-196.275	-115.757	0.244	0.045
-195.260	33.242	0.149	-0.127
-194.246	-25.500	0.133	0.077
-193.231	-99.712	0.188	-0.046
-192.217	180.827	-0.016	0.023
-191.202	800.000	-0.072	0.228
-190.187	48.537	-0.211	-0.194
-189.173	-104.418	-0.027	-0.006
-188.158	-102.864	0.201	-0.047
-187.144	-89.586	0.158	0.045
-186.129	-155.389	-0.145	-0.009
-185.114	248.230	0.076	0.126
-184.100	-75.513	0.238	-0.083
-183.085	6.668	0.352	-0.257
-182.071	800.000	0.031	0.090
-181.056	800.000	0.078	-0.221
-180.042	568.386	-0.020	0.047
-179.027	88.309	-0.028	-0.030
-178.012	66.788	0.045	0.045
-176.998	-200.000	-0.017	0.156
-175.983	-200.000	-0.044	-0.248
-174.969	-200.000	-0.022	0.176
-173.954	163.505	-0.292	-0.403
-172.939	305.860	0.110	-0.200
-171.925	29.847	0.204	0.170
-170.910	-116.812	-0.266	0.048
-169.896	800.000	0.064	0.235
-168.881	-63.324	-0.199	-0.080
-167.866	-144.117	-0.184	-0.017
-166.852	101.939	0.118	0.135
-165.837	257.635	0.097	0.163
-164.823	-158.314	0.234	-0.013
-163.808	0.215	0.122	-0.086
-162.793	-21.195	0.240	0.144
-161.779	-36.857	-0.180	-0.095
-160.764	-146.415	0.237	0.020
-159.750	477.870	-0.016	-0.037
-158.735	11.059	-0.222	0.167
-157.720	-200.000	-0.002	0.256
-156.706	800.000	-0.132	0.422
-155.691	276.374	-0.069	-0.121
-154.677	101.356	-0.046	0.053
-153.662	-61.402	-0.464	-0.192
-152.647	45.247	-0.165	0.149
-151.633	-42.034	0.055	0.028
-150.618	112.027	0.047	-0.056
-149.604	380.075	-0.074	0.148
-148.589	-65.477	0.327	0.129
-147.574	-88.518	-0.094	-0.027
-146.560	-50.379	0.311	0.144
-145.545	96.103	0.196	-0.220
-144.531	467.032	-0.054	0.119
-143.516	462.208	-0.026	-0.056
-142.502	244.829	0.120	0.197
-141.487	411.585	-0.049	0.103
-140.472	-11.778	0.186	-0.120
-139.458	-137.913	-0.105	-0.011
-138.443	800.000	0.026	0.089
-137.429	-200.000	-0.018	-0.301
-136.414	-200.000	0.017	-0.257
-135.399	45.499	-0.125	-0.113
-134.385	-116.163	-0.376	0.068
-133.370	18.613	0.144	0.113
-132.356	-200.000	0.008	0.428
-131.341	-200.000	0.038	-0.427
-130.326	-69.615	-0.219	0.082
-129.312	11.094	0.075	-0.057
-128.297	-92.746	-0.301	-0.082
-127.283	800.000	-0.053	0.190
-126.268	-153.749	-0.180	0.012
-125.253	269.044	-0.063	-0.108
-124.239	-69.915	-0.160	0.060
-123.224	-129.239	-0.159	0.022
-122.210	101.886	0.076	0.087
-121.195	163.773	-0.244	-0.336
-120.180	800.000	0.086	0.258
-119.166	12.726	0.196	-0.149
-118.151	303.454	0.068	-0.123
-117.137	11.757	-0.342	0.257
-116.122	97.646	-0.094	-0.106
-115.107	-200.000	-0.003	0.127
-114.093	-47.305	-0.124	-0.059
-113.078	800.000	0.079	0.252
-112.064	-200.000	0.011	-0.087
-111.049	-58.633	-0.187	-0.079
-110.034	291.989	0.196	-0.350
-109.020	-86.550	-0.301	0.090
-108.005	209.868	0.127	0.195
-106.991	390.292	-0.093	0.189
-105.976	-44.208	-0.244	-0.120
-104.962	-8.649	-0.176	0.116
-103.947	327.953	-0.102	-0.192
-102.932	4.213	0.139	0.099
-101.918	-113.426	0.199	0.038
-100.903	-71.514	-0.265	-0.097
-99.889	745.649	-0.045	-0.118
-98.874	-200.000	0.019	0.087
-97.859	98.806	0.065	-0.074
-96.845	-200.000	-0.012	0.216
-95.830	-83.500	-0.298	-0.093
-94.816	-148.024	0.530	-0.043
-93.801	800.000	0.039	0.122
-92.786	-160.407	-0.036	0.002
-91.772	108.030	-0.239	0.278
-90.757	-77.043	-0.288	0.098
-89.743	780.834	0.015	-0.039
-88.728	-156.727	-0.440	-0.027
-87.713	81.583	0.182	0.193
-86.699	287.513	0.014	-0.025
-85.684	722.118	0.034	-0.089
-84.670	-139.860	0.206	0.021
-83.655	-126.298	0.317	-0.046
-82.640	145.780	0.111	-0.146
-81.626	4.075	-0.055	0.039
-80.611	88.588	-0.170	-0.185
-79.597	-200.000	0.003	0.064
-78.582	800.000	-0.089	-0.344
-77.567	-47.309	-0.364	0.173
-76.553	-200.000	-0.008	-0.197
-75.538	382.636	-0.087	0.175
-74.524	193.709	-0.106	-0.158
-73.509	-76.779	0.289	0.099
-72.494	800.000	0.084	0.262
-71.480	61.576	-0.071	-0.069
-70.465	-200.000	0.022	0.131
-69.451	-200.000	0.048	-0.222
-68.436	-200.000	0.011	-0.287
-67.422	-200.000	0.001	-0.184
-66.407	-200.000	-0.039	0.227
-65.392	800.000	0.099	0.277
-64.378	125.343	-0.175	0.216
-63.363	-134.788	-0.273	-0.032
-62.349	-200.000	-0.037	0.163
-61.334	123.599	-0.828	-1.015
-60.319	164.827	0.571	0.787
-59.305	-200.000	-0.218	-1.308
-58.290	101.838	0.891	1.015
-57.276	800.000	0.445	1.536
-56.261	-200.000	116.066	652.065
-55.246	521.919	1535.827	3521.318
-54.232	175.955	2710.510	3842.320
-53.217	107.238	2183.048	2534.561
-52.203	37.701	1700.435	1474.513
-51.188	29.835	1516.472	1261.554
-50.173	27.701	1491.247	1226.194
-49.159	51.291	1550.707	1437.490
-48.144	49.719	1565.557	1440.435
-47.130	30.104	1520.998	1266.962
-46.115	26.992	1506.449	1233.684
-45.100	26.882	1502.451	1229.616
-44.086	26.813	1500.802	1227.746
-43.071	26.803	1498.679	1225.897
-42.057	26.824	1497.138	1224.725
-41.042	26.761	1495.519	1222.931
-40.027	26.768	1494.414	1222.025
-39.013	26.811	1492.651	1220.824
-37.998	26.694	1491.653	1219.175
-36.984	26.725	1490.574	1218.453
-35.969	26.836	1489.117	1217.956
-34.954	26.764	1487.706	1216.272
-33.940	26.738	1486.704	1215.228
-32.925	26.861	1484.746	1214.401
-31.911	26.792	1483.799	1213.119
-30.896	26.825	1482.289	1212.058
-29.881	26.892	1480.937	1211.350
-28.867	26.890	1479.622	1210.214
-27.852	26.896	1478.755	1209.498
-26.838	26.768	1477.794	1207.811
-25.823	26.866	1475.359	1206.422
-24.809	26.899	1473.974	1205.464
-23.794	26.880	1472.615	1204.180
-22.779	26.820	1471.581	1202.887
-21.765	26.841	1470.099	1201.770
-20.750	26.943	1469.314	1201.749
-19.736	26.717	1468.395	1199.460
-18.721	26.809	1467.052	1198.919
-17.706	26.813	1465.983	1198.030
-16.692	26.858	1464.923	1197.409
-15.677	26.847	1463.946	1196.488
-14.663	26.821	1463.254	1195.705
-13.648	26.748	1462.101	1194.238
-12.633	26.817	1461.041	1193.776
-11.619	26.818	1460.516	1193.307
-10.604	26.817	1459.344	1192.296
-9.590	26.702	1458.791	1191.039
-8.575	26.855	1457.170	1190.674
-7.560	26.829	1456.720	1190.087
-6.546	26.914	1455.669	1189.740
-5.531	26.743	1455.149	1188.148
-4.517	26.766	1454.250	1187.518
-3.502	26.814	1453.152	1186.886
-2.487	26.777	1451.877	1185.557
-1.473	26.820	1451.245	1185.272
-0.458	26.819	1449.578	1183.859
0.556	26.967	1440.459	1172.434
1.571	23.914	1414.491	1131.802
2.586	20.215	1353.375	1060.233
3.600	18.689	1270.095	986.145
4.615	17.267	1225.414	943.478
5.629	14.732	1169.276	886.738
6.644	8.562	1088.291	794.675
7.659	3.963	1052.254	746.155
8.673	3.405	1046.741	739.504
9.688	3.395	1043.777	737.298
10.702	3.414	1042.052	736.103
11.717	3.376	1040.406	734.697
12.731	5.080	1040.686	742.946
13.746	11.338	1050.161	779.640
14.761	17.468	1058.105	814.905
15.775	19.542	1059.551	825.877
16.790	19.112	1057.778	822.372
17.804	18.128	1056.055	816.265
18.819	17.166	1054.211	810.179
19.834	16.733	1053.005	807.116
20.848	16.765	1051.543	806.078
21.863	16.423	1051.623	804.439
22.877	16.367	1050.526	803.262
23.892	16.130	1049.850	801.551
24.907	15.954	1049.367	800.274
25.921	16.071	1048.042	799.749
26.936	16.117	1047.724	799.650
27.950	16.005	1046.501	798.116
28.965	16.097	1045.083	797.398
29.980	16.070	1044.379	796.666
30.994	16.320	1042.833	796.593
32.009	16.327	1042.024	795.940
33.023	16.313	1042.070	795.840
34.038	16.347	1040.586	794.795
35.053	16.315	1039.656	793.862
36.067	16.135	1038.767	792.269
37.082	16.123	1037.651	791.293
38.096	16.260	1036.937	791.318
39.111	16.325	1036.581	791.282
40.126	16.333	1035.198	790.193
41.140	16.234	1034.388	789.040
42.155	16.048	1033.675	787.559
43.169	15.882	1032.378	785.729
44.184	15.924	1030.851	784.689
45.199	15.803	1030.194	783.560
46.213	15.835	1029.482	783.097
47.228	15.970	1028.051	782.566
48.242	16.105	1027.356	782.593
49.257	16.236	1026.575	782.536
50.271	16.172	1025.654	781.469
51.286	16.184	1024.393	780.495
52.301	16.189	1023.660	779.891
53.315	16.271	1023.327	779.945
54.330	16.198	1022.088	778.599
55.344	15.967	1021.614	777.100
56.359	15.869	1020.986	776.103
57.374	15.987	1019.815	775.690
58.388	16.026	1018.959	775.149
59.403	15.841	1018.254	773.692
60.417	15.898	1017.131	773.030
61.432	15.941	1016.395	772.601
62.447	15.837	1015.764	771.578
63.461	15.796	1015.234	770.918
64.476	15.878	1013.885	770.201
65.490	15.807	1012.849	769.020
66.505	15.820	1012.209	768.526
67.520	15.751	1011.385	767.517
68.534	15.759	1010.905	767.120
69.549	15.764	1009.975	766.371
70.563	15.819	1009.323	766.060
71.578	15.730	1008.520	764.978
72.593	15.828	1007.458	764.552
73.607	15.587	1006.680	762.798
74.622	15.530	1005.753	761.768
75.636	15.667	1004.752	761.566
76.651	15.693	1003.755	760.857
77.666	15.654	1003.404	760.351
78.680	15.647	1002.612	759.648
79.695	15.784	1001.822	759.600
80.709	15.628	1001.900	758.889
81.724	15.804	1000.934	758.886
82.739	15.884	1000.098	758.546
83.753	15.909	999.099	757.831
84.768	16.208	998.184	758.413
85.782	16.369	997.629	758.649
86.797	16.310	997.396	758.140
87.812	16.291	996.448	757.265
88.826	16.265	995.471	756.341
89.841	16.287	994.610	755.717
90.855	16.280	993.835	755.033
91.870	16.310	993.064	754.511
92.884	16.283	992.938	754.228
93.899	16.359	991.709	753.569
94.914	16.283	991.157	752.744
95.928	16.470	990.406	752.939
96.943	16.516	989.784	752.604
97.957	16.322	988.664	750.824
98.972	16.341	987.789	750.178
99.987	16.257	987.078	749.199
101.001	16.349	986.615	749.189
102.016	16.425	985.634	748.713
103.030	16.255	985.068	747.464
104.045	16.276	983.878	746.591
105.060	16.392	982.792	746.213
106.074	16.334	981.585	744.975
107.089	16.151	980.681	743.413
108.103	15.962	980.013	742.010
109.118	15.944	978.548	740.759
110.133	15.920	978.057	740.214
111.147	15.863	977.329	739.346
112.162	15.875	976.474	738.688
113.176	15.873	975.830	738.126
114.191	15.910	974.584	737.279
115.206	15.958	974.569	737.415
116.220	15.997	972.969	736.308
117.235	16.009	972.391	735.861
118.249	15.862	971.879	734.764
119.264	15.881	970.982	734.106
120.279	15.891	969.923	733.284
121.293	15.905	968.962	732.552
122.308	15.856	968.249	731.736
123.322	15.738	967.431	730.540
124.337	15.666	966.585	729.524
125.352	15.665	965.095	728.330
126.366	15.684	963.966	727.497
127.381	15.700	962.702	726.548
128.395	15.689	961.856	725.798
129.410	15.703	961.388	725.440
130.424	15.764	960.428	724.915
131.439	15.730	959.060	723.669
132.454	15.822	958.992	723.953
133.468	15.967	957.919	723.701
134.483	15.925	957.651	723.255
135.497	16.015	956.772	722.911
136.512	15.898	956.206	721.920
137.527	15.925	955.388	721.352
138.541	15.998	954.744	721.115
139.556	16.097	953.570	720.586
140.570	16.004	953.033	719.722
141.585	16.001	952.711	719.402
142.600	16.226	951.443	719.341
143.614	16.292	950.722	719.010
144.629	16.242	950.481	718.551
145.643	16.403	949.690	718.578
146.658	16.358	948.894	717.719
147.673	16.290	947.426	716.255
148.687	16.151	946.702	715.057
149.702	16.086	945.817	714.052
150.716	16.051	944.907	713.151
151.731	16.083	943.932	712.487
152.746	16.030	943.459	711.845
153.760	16.037	942.664	711.212
154.775	16.135	941.949	711.023
155.789	16.197	941.030	710.526
156.804	16.156	940.442	709.847
157.819	16.299	939.612	709.757
158.833	16.196	939.443	709.137
159.848	16.358	938.575	709.095
160.862	16.391	938.079	708.797
161.877	16.570	937.058	708.712
162.892	16.345	935.796	706.755
163.906	16.171	934.944	705.322
164.921	16.063	934.323	704.341
165.935	16.205	933.086	703.936
166.950	16.152	932.381	703.123
167.964	16.312	931.223	702.852
168.979	16.212	930.483	701.818
169.994	16.246	929.383	701.065
171.008	16.143	928.997	700.283
172.023	16.261	927.804	699.812
173.037	16.362	927.391	699.857
174.052	16.439	926.637	699.548
175.067	16.278	926.125	698.433
176.081	16.225	925.140	697.409
177.096	16.168	924.352	696.516
178.110	16.184	923.352	695.766
179.125	16.245	922.623	695.409
180.140	16.256	921.644	694.653
181.154	16.283	921.178	694.351
182.169	16.388	920.681	694.348
183.183	16.370	920.140	693.806
184.198	16.514	919.567	693.900
185.213	16.528	918.471	693.069
186.227	16.533	918.100	692.750
187.242	16.466	917.935	692.290
188.256	16.545	916.902	691.772
189.271	16.836	915.944	692.179
190.286	16.748	915.655	691.537
191.300	16.552	914.692	689.951
192.315	16.194	913.796	687.754
193.329	16.127	912.765	686.644
194.344	16.037	912.272	685.847
195.359	16.295	911.526	686.276
196.373	16.292	911.681	686.318
197.388	16.350	910.605	685.683
198.402	16.628	910.525	686.688
199.417	16.753	910.353	687.009
200.432	16.766	909.790	686.574
201.446	16.912	909.162	686.629
202.461	16.851	908.723	685.991
203.475	17.022	908.163	686.198
204.490	16.946	907.702	685.483
205.504	16.855	906.461	684.117
206.519	16.661	905.820	682.792
207.534	16.741	905.123	682.526
208.548	16.680	903.964	681.348
209.563	16.708	903.443	681.009
210.577	16.744	902.715	680.541
211.592	16.664	902.449	679.960
212.607	16.865	901.961	680.341
213.621	17.034	901.323	680.475
214.636	16.919	900.466	679.309
215.650	17.032	899.632	679.070
216.665	17.072	898.983	678.680
217.680	17.075	898.819	678.509
218.694	17.126	898.417	678.350
219.709	17.159	898.114	678.192
220.723	17.052	897.298	677.090
221.738	17.165	896.394	676.799
222.753	17.112	895.448	675.812
223.767	16.850	895.243	674.556
224.782	16.971	894.463	674.392
225.796	17.184	893.679	674.584
226.811	17.123	893.349	674.033
227.826	17.058	892.525	673.095
228.840	17.050	891.230	672.029
229.855	16.867	891.053	671.109
230.869	17.056	890.421	671.322
231.884	17.088	889.767	670.897
232.899	17.081	888.791	670.073
233.913	16.937	888.320	669.092
234.928	16.948	887.496	668.453
235.942	16.995	886.734	668.004
236.957	16.869	886.041	666.928
237.972	16.837	885.646	666.446
238.986	16.923	885.078	666.299
240.001	16.871	884.213	665.386
241.015	17.004	883.370	665.213
242.030	16.980	883.091	664.850
243.045	17.230	882.024	664.968
244.059	17.063	881.679	663.993
245.074	17.165	881.140	663.926
246.088	17.198	880.562	663.563
247.103	17.200	880.154	663.205
248.117	17.346	879.419	663.159
249.132	17.236	879.023	662.376
250.147	17.533	878.673	663.210
251.161	17.701	878.112	663.379
252.176	17.639	877.133	662.342
253.190	17.609	876.549	661.727
254.205	17.762	876.054	661.888
255.220	17.802	875.962	661.914
256.234	17.809	874.952	661.118
257.249	17.838	874.496	660.828
258.263	17.826	873.646	660.081
259.278	17.780	873.223	659.527
260.293	17.767	872.914	659.182
261.307	17.969	872.202	659.367
262.322	17.938	871.319	658.520
263.336	17.987	870.908	658.343
264.351	17.971	870.469	657.891
265.366	18.033	869.636	657.443
266.380	18.027	868.974	656.860
267.395	17.877	868.215	655.653
268.409	18.030	867.862	655.913
269.424	17.980	866.707	654.793
270.439	17.827	865.987	653.605
271.453	17.907	865.611	653.568
272.468	17.771	864.717	652.315
273.482	17.843	864.154	652.107
274.497	17.900	863.382	651.684
275.512	17.935	862.740	651.277
276.526	17.741	862.208	650.077
277.541	17.759	861.723	649.726
278.555	17.725	861.381	649.280
279.570	17.882	861.192	649.677
280.585	18.112	860.260	649.789
281.599	18.194	859.761	649.666
282.614	17.891	859.406	648.190
283.628	17.947	858.185	647.425
284.643	17.945	858.025	647.240
285.657	17.945	857.234	646.584
286.672	17.921	857.230	646.436
287.687	18.089	856.222	646.251
288.701	17.995	855.946	645.632
289.716	18.067	855.140	645.238
290.730	18.003	854.635	644.559
291.745	18.034	854.053	644.180
292.760	18.037	853.160	643.462
293.774	18.107	852.602	643.248
294.789	18.226	852.004	643.184
295.803	18.184	851.421	642.531
296.818	18.203	850.987	642.216
297.833	18.278	849.793	641.541
298.847	18.074	849.423	640.439
299.862	18.096	848.798	639.996
300.876	18.138	848.033	639.519
301.891	18.318	847.280	639.567
302.906	18.399	847.101	639.678
303.920	18.425	846.297	639.112
304.935	18.489	845.992	639.062
305.949	18.583	845.485	638.973
306.964	18.722	844.197	638.462
307.979	18.371	844.191	637.095
308.993	18.429	843.450	636.695
310.008	18.606	842.652	636.690
311.022	18.473	842.923	636.345
312.037	18.446	842.323	635.739
313.052	18.436	841.606	635.101
314.066	18.321	840.932	634.114
315.081	18.252	840.036	633.127
316.095	18.262	839.406	632.631
317.110	18.278	839.334	632.581
318.125	18.215	838.588	631.727
319.139	18.177	837.699	630.864
320.154	18.254	837.633	631.043
321.168	18.329	837.002	630.789
322.183	18.292	836.865	630.491
323.197	18.252	836.340	629.894
324.212	18.473	834.959	629.610
325.227	18.414	834.980	629.354
326.241	18.395	834.537	628.892
327.256	18.403	833.916	628.400
328.270	18.370	833.298	627.758
329.285	18.397	832.515	627.209
330.300	18.518	831.926	627.153
331.314	18.357	831.368	626.088
332.329	18.409	830.817	625.807
333.343	18.558	830.135	625.784
334.358	18.524	829.622	625.217
335.373	18.494	829.349	624.846
336.387	18.612	828.647	624.693
337.402	18.759	828.143	624.791
338.416	18.758	827.694	624.394
339.431	18.805	827.451	624.326
340.446	18.828	826.610	623.722
341.460	19.022	825.907	623.840
342.475	18.994	825.448	623.333
343.489	18.947	824.988	622.764
344.504	19.249	824.113	623.140
345.519	19.010	823.704	621.910
346.533	19.158	823.492	622.232
347.548	19.208	822.910	621.917
348.562	19.018	822.462	620.836
349.577	18.964	821.727	620.031
350.592	18.861	820.801	618.907
351.606	18.772	820.496	618.304
352.621	18.829	819.892	617.997
353.635	18.761	820.002	617.783
354.650	18.935	819.427	617.921
355.665	18.852	819.343	617.502
356.679	19.017	818.508	617.409
357.694	18.876	818.381	616.754
358.708	19.158	817.198	616.820
359.723	19.099	816.463	615.999
360.738	18.966	816.150	615.234
361.752	19.059	815.855	615.289
362.767	18.962	815.421	614.558
363.781	19.060	815.035	614.563
364.796	19.213	814.960	615.000
365.810	19.231	814.724	614.829
366.825	19.354	814.321	614.912
367.840	19.470	813.821	614.894
368.854	19.521	813.340	614.656
369.869	19.405	812.746	613.740
370.883	19.284	812.330	612.943
371.898	19.374	811.564	612.629
372.913	19.384	811.125	612.280
373.927	19.500	810.520	612.178
374.942	19.533	809.176	611.229
375.956	19.304	808.941	610.184
376.971	19.398	808.803	610.360
377.986	19.433	808.131	609.921
379.000	19.609	807.757	610.208
380.015	19.546	807.661	609.858
381.029	19.620	806.583	609.253
382.044	19.635	806.143	608.920
383.059	19.538	805.635	608.140
384.073	19.498	805.361	607.738
385.088	19.559	804.629	607.345
386.102	19.477	803.891	606.448
387.117	19.313	803.309	605.377
388.132	19.398	802.823	605.258
389.146	19.412	802.342	604.891
390.161	19.616	801.965	605.267
391.175	19.610	801.802	605.070
392.190	19.493	801.737	604.558
393.205	19.680	800.325	604.094
394.219	19.633	800.222	603.797
395.234	19.502	799.757	602.936
396.248	19.442	799.420	602.418
397.263	19.535	798.380	601.906
398.278	19.293	798.311	600.957
399.292	19.409	797.688	600.840
400.307	19.337	797.548	600.429
401.321	19.407	797.210	600.364
402.336	19.336	796.715	599.691
403.350	19.586	796.252	600.161
404.365	19.590	796.084	599.993
405.380	19.445	795.506	599.002
406.394	19.830	795.143	600.009
407.409	19.915	794.594	599.839
408.423	19.884	794.274	599.437
409.438	19.856	793.762	598.898
410.453	19.883	793.731	598.917
411.467	20.075	793.090	599.045
412.482	20.041	792.460	598.397
413.496	20.065	792.110	598.165
414.511	20.081	791.614	597.791
415.526	20.022	791.532	597.472
416.540	20.074	791.188	597.338
417.555	20.156	790.283	596.888
418.569	19.917	790.212	595.958
419.584	20.092	789.454	595.932
420.599	20.077	789.155	595.605
421.613	161.858	1371.382	1796.609
422.628	140.159	1456.218	1796.691
