DTS Sentinel unit serial number:	SN413079Multiplexer serial number:	ORYXHardware model number:	OX4-SRSoftware version number:	ORYX F/W v4.00 Oryx Data Collector v3.7.2.0data status	okinstallation	princeton_trtdifferential loss correction	single-endedforward channel	channel 3reverse channel	N/Adate	2019/09/11time	07:38:11forward acquisition time	60.00reverse acquisition time	0.00gamma	496.2192k internal	0.2324k external	0.2324temperature offset calibration	0.9903default loss term (dB/km)	0.3790temperature slope calibration	1.0000multiplexer offset coefficient	1.0000multiplexer slope coefficient	1.0000fibre end	0.00T internal ref (°C)	31.36T ext. ref 1 (°C)	-0.03T ext. ref 2 (°C)	27.82length (m)	temperature (°C)	Stokes	anti-Stokes-747.200	-121.891	-0.121	0.020
-746.185	789.586	0.047	0.131
-745.171	60.424	0.244	0.244
-744.156	800.000	-0.075	0.274
-743.142	205.762	-0.154	0.241
-742.127	524.053	-0.046	0.110
-741.112	800.000	-0.048	0.212
-740.098	-184.701	0.243	-0.004
-739.083	382.536	0.149	0.309
-738.069	-23.421	-0.121	0.073
-737.054	165.415	0.086	0.123
-736.039	-29.212	0.027	0.016
-735.025	-200.000	-0.033	0.209
-734.010	-123.898	-0.227	-0.036
-732.996	-147.710	0.032	-0.003
-731.981	4.864	-0.155	0.115
-730.966	188.923	-0.167	-0.252
-729.952	800.000	-0.118	0.387
-728.937	-75.452	-0.591	0.212
-727.923	-2.836	-0.467	-0.329
-726.908	1.701	-0.365	-0.265
-725.894	-22.297	-0.234	-0.143
-724.879	-68.965	-0.326	0.127
-723.864	122.925	-0.090	0.113
-722.850	-38.746	-0.113	-0.060
-721.835	115.144	-0.037	0.046
-720.821	-200.000	-0.014	0.245
-719.806	-200.000	0.023	0.137
-718.791	-200.000	0.009	-0.130
-717.777	-154.025	0.449	0.031
-716.762	22.519	-0.122	-0.100
-715.748	76.415	0.120	-0.129
-714.733	-128.149	0.174	0.025
-713.718	-200.000	0.031	-0.268
-712.704	169.677	-0.064	-0.092
-711.689	725.224	0.051	0.138
-710.675	-200.000	-0.004	0.088
-709.660	-117.886	-0.203	0.037
-708.645	-200.000	0.078	-0.424
-707.631	-44.412	0.243	-0.123
-706.616	-200.000	-0.022	-0.110
-705.602	-78.001	-0.294	0.102
-704.587	-21.835	-0.135	-0.083
-703.572	-121.870	-0.217	-0.036
-702.558	41.660	0.127	0.116
-701.543	-105.250	0.217	0.050
-700.529	-1.942	-0.218	0.154
-699.514	800.000	0.086	0.338
-698.499	800.000	-0.079	-0.289
-697.485	-76.630	-0.189	-0.067
-696.470	9.573	0.097	0.074
-695.456	-71.286	-0.344	-0.130
-694.441	-84.834	0.267	-0.085
-693.426	-44.013	-0.220	0.111
-692.412	800.000	0.046	-0.202
-691.397	-21.866	0.125	-0.077
-690.383	800.000	-0.093	-0.303
-689.368	98.382	-0.067	0.078
-688.354	-176.275	0.008	-0.000
-687.339	-131.175	-0.157	0.021
-686.324	-127.172	-0.321	-0.047
-685.310	447.902	-0.109	0.243
-684.295	-66.460	-0.091	0.036
-683.281	99.357	-0.156	0.182
-682.266	8.003	0.122	0.092
-681.251	800.000	0.059	-0.203
-680.237	-164.254	0.207	-0.010
-679.222	-200.000	-0.026	-0.137
-678.208	-41.202	-0.015	-0.008
-677.193	98.413	0.218	-0.253
-676.178	-81.248	-0.264	-0.088
-675.164	-80.080	-0.448	0.151
-674.149	721.058	-0.034	-0.092
-673.135	35.048	-0.286	-0.252
-672.120	-19.605	0.095	-0.059
-671.105	528.490	-0.043	0.103
-670.091	-157.214	-0.695	-0.042
-669.076	-90.933	-0.077	-0.022
-668.062	-60.063	0.287	-0.123
-667.047	79.643	0.247	0.267
-666.032	471.408	-0.060	-0.137
-665.018	465.842	-0.241	0.543
-664.003	-66.383	0.236	0.094
-662.989	-155.368	-0.142	-0.009
-661.974	-114.833	-0.220	0.042
-660.959	800.000	0.023	-0.097
-659.945	-6.335	-0.218	-0.149
-658.930	84.627	0.174	-0.191
-657.916	-145.043	-0.596	0.055
-656.901	-117.053	0.343	0.063
-655.886	-200.000	0.048	-0.297
-654.872	163.640	-0.069	0.098
-653.857	320.058	0.046	0.089
-652.843	113.661	-0.104	-0.127
-651.828	-40.092	-0.169	-0.089
-650.814	3.577	-0.293	0.215
-649.799	191.457	0.146	0.222
-648.784	-200.000	-0.023	0.342
-647.770	186.492	-0.158	0.237
-646.755	800.000	-0.033	0.094
-645.741	800.000	0.052	-0.151
-644.726	-200.000	0.015	0.182
-643.711	7.363	-0.164	-0.123
-642.697	-5.901	-0.161	0.110
-641.682	-70.127	-0.210	-0.080
-640.668	112.308	0.067	-0.081
-639.653	65.471	-0.091	0.092
-638.638	50.996	-0.089	0.085
-637.624	-200.000	-0.061	-0.360
-636.609	-97.980	0.210	-0.054
-635.595	-117.169	-0.316	0.058
-634.580	214.536	-0.061	0.097
-633.565	17.789	-0.080	0.064
-632.551	-105.565	0.226	0.051
-631.536	-113.334	-0.138	0.027
-630.522	-69.531	0.139	-0.054
-629.507	785.535	-0.071	-0.196
-628.492	-93.514	0.038	-0.011
-627.478	65.957	0.254	-0.259
-626.463	-54.950	-0.315	0.143
-625.449	23.208	0.073	0.061
-624.434	-200.000	0.022	-0.314
-623.419	252.969	0.158	-0.270
-622.405	112.680	-0.259	-0.315
-621.390	-133.441	0.147	0.018
-620.376	321.995	-0.069	0.132
-619.361	-51.162	-0.145	-0.068
-618.346	189.840	0.103	-0.155
-617.332	81.457	-0.210	-0.228
-616.317	800.000	-0.048	-0.201
-615.303	-5.932	0.164	0.113
-614.288	-34.181	0.411	0.227
-613.273	-155.666	-0.216	0.014
-612.259	-119.599	-0.703	0.122
-611.244	-45.910	-0.048	0.024
-610.230	-173.717	0.280	0.008
-609.215	-174.144	-0.028	-0.001
-608.201	-124.114	0.252	0.040
-607.186	-43.738	0.179	-0.091
-606.171	-90.952	0.134	-0.039
-605.157	-166.761	0.371	-0.015
-604.142	-76.807	0.169	-0.059
-603.128	704.453	0.171	-0.452
-602.113	215.001	-0.178	0.283
-601.098	-95.210	-0.286	-0.077
-600.084	-155.641	0.308	-0.020
-599.069	-72.838	-0.357	-0.132
-598.055	390.249	0.064	0.134
-597.040	-3.824	0.138	-0.096
-596.025	-20.577	-0.239	-0.147
-595.011	800.000	-0.009	0.026
-593.996	-200.000	0.014	-0.065
-592.982	-67.583	0.099	0.039
-591.967	-114.476	0.170	-0.033
-590.952	272.503	0.109	0.193
-589.938	800.000	-0.076	-0.292
-588.923	376.819	-0.102	-0.210
-587.909	190.383	-0.071	-0.108
-586.894	39.844	0.154	-0.139
-585.879	223.852	-0.180	-0.291
-584.865	-200.000	0.046	0.408
-583.850	-200.000	-0.002	0.210
-582.836	-21.175	-0.219	0.134
-581.821	36.798	-0.115	-0.102
-580.806	264.699	-0.085	0.148
-579.792	-13.113	-0.290	0.189
-578.777	310.418	-0.060	-0.113
-577.763	-200.000	0.008	0.093
-576.748	800.000	-0.061	-0.225
-575.733	85.886	0.029	0.032
-574.719	182.539	-0.017	0.025
-573.704	785.145	0.006	0.016
-572.690	552.874	0.095	0.228
-571.675	-200.000	-0.020	-0.354
-570.661	242.045	0.223	-0.374
-569.646	28.849	-0.382	0.324
-568.631	-137.374	-0.276	-0.031
-567.617	633.427	-0.060	0.153
-566.602	7.518	0.101	-0.076
-565.588	-152.046	0.524	0.038
-564.573	-115.335	0.465	0.088
-563.558	800.000	0.064	0.227
-562.544	-200.000	-0.040	0.199
-561.529	-109.609	0.159	0.034
-560.515	587.188	-0.110	0.271
-559.500	186.946	-0.179	-0.267
-558.485	800.000	0.049	-0.166
-557.471	271.340	-0.145	0.255
-556.456	410.253	-0.227	0.483
-555.442	57.156	-0.100	0.098
-554.427	-24.634	-0.274	-0.163
-553.412	157.615	0.062	-0.086
-552.398	-200.000	-0.016	-0.135
-551.383	56.396	0.134	0.130
-550.369	-79.369	-0.127	0.043
-549.354	-200.000	-0.008	-0.169
-548.339	673.814	-0.048	0.123
-547.325	52.296	-0.290	0.277
-546.310	-166.847	-0.362	0.015
-545.296	-3.944	0.206	-0.143
-544.281	800.000	0.031	-0.116
-543.266	-200.000	0.013	-0.185
-542.252	224.758	-0.161	-0.261
-541.237	-51.763	-0.276	-0.129
-540.223	-155.911	0.363	-0.023
-539.208	800.000	-0.062	0.200
-538.193	-35.942	-0.173	-0.094
-537.179	94.695	0.109	-0.124
-536.164	-52.871	0.386	-0.178
-535.150	800.000	0.126	-0.367
-534.135	343.101	-0.104	-0.203
-533.121	-133.291	-0.108	-0.014
-532.106	-200.000	0.011	0.059
-531.091	353.797	0.022	0.045
-530.077	-49.219	0.269	0.129
-529.062	86.832	-0.244	-0.270
-528.048	372.256	-0.229	-0.466
-527.033	-200.000	0.001	-0.032
-526.018	-78.432	0.121	-0.041
-525.004	36.372	-0.237	0.209
-523.989	648.536	-0.098	-0.250
-522.975	768.538	-0.076	-0.207
-521.960	-18.551	0.017	0.010
-520.945	800.000	0.011	-0.043
-519.931	-122.404	-0.287	-0.047
-518.916	404.970	0.093	-0.196
-517.902	755.567	0.066	0.180
-516.887	359.372	0.061	-0.121
-515.872	800.000	-0.081	0.255
-514.858	-39.610	-0.183	0.096
-513.843	-94.763	-0.324	-0.088
-512.829	-24.002	-0.060	-0.036
-511.814	18.696	-0.107	-0.085
-510.799	282.536	0.063	0.113
-509.785	547.989	-0.047	-0.113
-508.770	286.340	-0.164	-0.296
-507.756	86.186	-0.238	0.263
-506.741	22.472	0.294	0.240
-505.726	-199.649	0.364	0.002
-504.712	173.863	0.093	-0.134
-503.697	98.157	0.096	0.110
-502.683	109.829	0.209	0.251
-501.668	-37.315	-0.213	0.114
-500.653	800.000	-0.088	0.274
-499.639	-142.443	-0.076	-0.007
-498.624	-52.330	-0.449	0.208
-497.610	-76.388	0.332	-0.117
-496.595	-9.678	-0.087	-0.058
-495.581	648.732	0.097	-0.248
-494.566	-200.000	0.002	0.169
-493.551	246.440	0.046	-0.078
-492.537	87.753	-0.062	-0.069
-491.522	105.182	0.214	-0.252
-490.508	-27.983	0.068	0.039
-489.493	34.847	-0.081	-0.071
-488.478	-110.563	0.216	0.045
-487.464	296.887	-0.143	-0.262
-486.449	-200.000	0.002	-0.052
-485.435	633.348	-0.108	-0.273
-484.420	172.235	-0.145	0.208
-483.405	-200.000	-0.016	-0.149
-482.391	587.162	-0.108	0.265
-481.376	45.510	0.129	-0.119
-480.362	-200.000	0.043	-0.188
-479.347	-200.000	-0.001	-0.281
-478.332	-9.043	-0.075	-0.050
-477.318	1.435	0.315	0.227
-476.303	362.865	0.029	-0.057
-475.289	12.146	0.261	-0.201
-474.274	49.733	0.299	-0.282
-473.259	-79.199	-0.067	-0.023
-472.245	-125.554	0.511	-0.077
-471.230	-200.000	0.054	0.301
-470.216	-200.000	-0.015	0.111
-469.201	-200.000	0.004	0.203
-468.186	-91.784	-0.051	0.014
-467.172	566.355	-0.065	0.157
-466.157	-4.610	-0.109	0.075
-465.143	-84.931	-0.192	-0.060
-464.128	-200.000	0.011	0.168
-463.113	264.614	-0.115	-0.200
-462.099	243.820	-0.093	0.156
-461.084	800.000	-0.065	0.268
-460.070	251.223	0.165	0.281
-459.055	402.740	0.112	-0.235
-458.040	-112.869	0.267	-0.053
-457.026	-144.099	0.223	-0.021
-456.011	54.010	0.028	-0.027
-454.997	195.139	0.153	-0.232
-453.982	-200.000	-0.011	-0.254
-452.968	-155.068	0.140	0.009
-451.953	-168.416	-0.087	0.003
-450.938	800.000	-0.007	0.025
-449.924	-200.000	-0.013	-0.132
-448.909	-104.040	0.123	-0.029
-447.895	-78.240	0.297	-0.102
-446.880	-103.232	0.014	-0.003
-445.865	245.019	-0.157	-0.263
-444.851	800.000	-0.046	0.142
-443.836	-125.945	0.294	0.044
-442.822	-60.515	-0.390	0.165
-441.807	393.265	-0.147	0.306
-440.792	212.083	0.070	0.109
-439.778	-13.263	-0.303	-0.196
-438.763	-200.000	-0.045	0.400
-437.749	96.772	0.144	-0.165
-436.734	-10.965	-0.235	0.154
-435.719	-100.708	0.324	0.080
-434.705	-196.279	-0.269	-0.002
-433.690	-19.749	-0.148	0.091
-432.676	-24.943	-0.228	-0.135
-431.661	-200.000	-0.005	-0.307
-430.646	73.512	-0.042	0.044
-429.632	-157.678	0.221	0.013
-428.617	33.344	0.354	0.307
-427.603	-200.000	-0.022	-0.290
-426.588	29.708	0.175	-0.149
-425.573	17.687	0.254	-0.202
-424.559	-200.000	0.066	-0.440
-423.544	-200.000	0.001	-0.143
-422.530	-25.723	-0.010	0.006
-421.515	563.484	0.118	0.285
-420.500	-110.444	-0.097	-0.020
-419.486	-116.408	-0.338	0.062
-418.471	-180.164	-0.180	-0.004
-417.457	737.827	-0.068	-0.182
-416.442	371.369	0.209	0.423
-415.428	800.000	0.094	-0.262
-414.413	-169.190	0.288	-0.011
-413.398	52.613	-0.075	-0.071
-412.384	0.980	-0.287	0.205
-411.369	131.400	-0.204	-0.261
-410.355	46.870	0.376	-0.348
-409.340	63.697	0.105	0.105
-408.325	-159.302	-0.198	-0.011
-407.311	81.740	-0.087	-0.094
-406.296	800.000	-0.116	-0.328
-405.282	61.723	0.225	0.223
-404.267	-200.000	-0.057	0.302
-403.252	-76.838	0.123	0.043
-402.238	-93.785	0.148	0.041
-401.223	103.510	0.109	-0.127
-400.209	-200.000	-0.009	0.240
-399.194	-123.611	-0.319	0.050
-398.179	160.393	-0.266	-0.369
-397.165	187.893	-0.231	-0.344
-396.150	-24.780	0.075	0.045
-395.136	583.499	-0.091	0.221
-394.121	-95.582	0.056	0.015
-393.106	7.194	-0.197	-0.147
-392.092	-200.000	0.044	-0.264
-391.077	-38.562	0.165	0.087
-390.063	4.317	0.201	0.147
-389.048	-52.925	0.135	0.062
-388.033	-88.188	-0.247	0.074
-387.019	-123.511	-0.395	0.062
-386.004	185.644	0.055	0.081
-384.990	-60.151	-0.127	0.054
-383.975	108.563	0.288	-0.342
-382.960	227.959	-0.143	0.232
-381.946	786.202	-0.163	0.445
-380.931	208.132	0.157	0.245
-379.917	74.138	0.152	0.159
-378.902	66.806	0.143	-0.145
-377.888	369.612	-0.006	0.012
-376.873	-114.968	0.168	0.032
-375.858	-72.505	-0.331	0.122
-374.844	-55.872	0.189	-0.084
-373.829	-200.000	0.004	-0.074
-372.815	267.098	0.101	0.175
-371.800	-200.000	0.029	-0.191
-370.785	433.087	-0.074	0.160
-369.771	-137.914	-0.052	0.006
-368.756	-200.000	-0.045	-0.248
-367.742	-6.308	-0.217	-0.147
-366.727	-73.436	0.168	0.061
-365.712	-200.000	0.039	-0.216
-364.698	-19.387	-0.121	0.074
-363.683	143.883	0.139	-0.185
-362.669	-200.000	0.006	-0.209
-361.654	-200.000	0.037	0.458
-360.639	118.086	-0.121	-0.148
-359.625	-98.976	-0.169	0.043
-358.610	800.000	-0.078	0.246
-357.596	-18.501	-0.178	-0.110
-356.581	97.472	-0.240	-0.273
-355.566	-27.542	-0.241	0.139
-354.552	-200.000	-0.043	0.246
-353.537	134.695	-0.048	0.062
-352.523	2.211	0.168	-0.120
-351.508	-120.657	-0.136	0.023
-350.493	684.106	-0.026	-0.066
-349.479	-156.672	0.081	-0.005
-348.464	701.658	0.094	-0.247
-347.450	135.651	0.069	-0.089
-346.435	-119.980	-0.299	0.051
-345.420	-76.636	-0.211	0.073
-344.406	314.154	-0.123	-0.229
-343.391	800.000	0.059	0.173
-342.377	-200.000	0.003	-0.039
-341.362	18.066	0.313	0.248
-340.348	-16.516	-0.378	0.238
-339.333	353.766	-0.051	0.100
-338.318	-28.150	0.153	-0.088
-337.304	-72.202	0.257	0.095
-336.289	20.422	0.195	0.156
-335.275	89.488	-0.043	-0.048
-334.260	-111.578	-0.062	0.013
-333.245	171.047	-0.204	0.291
-332.231	-200.000	0.018	0.285
-331.216	-200.000	-0.032	0.143
-330.202	-154.275	0.431	-0.029
-329.187	-200.000	-0.013	0.191
-328.172	-104.738	-0.183	0.042
-327.158	-60.116	0.253	0.107
-326.143	-200.000	0.012	-0.075
-325.129	239.784	-0.070	-0.115
-324.114	-200.000	0.007	0.200
-323.099	-80.877	-0.141	0.046
-322.085	39.650	-0.049	-0.044
-321.070	132.696	0.174	-0.223
-320.056	-90.189	-0.061	-0.018
-319.041	19.622	0.070	0.056
-318.026	472.610	0.156	0.349
-317.012	-58.669	-0.164	-0.070
-315.997	449.722	0.061	0.134
-314.983	-153.194	0.202	0.014
-313.968	-140.560	0.214	-0.022
-312.953	342.303	-0.136	-0.264
-311.939	104.723	-0.092	-0.107
-310.924	209.013	0.100	-0.155
-309.910	-72.305	0.180	0.066
-308.895	14.139	-0.253	-0.195
-307.880	361.960	0.060	0.119
-306.866	-200.000	0.014	0.177
-305.851	-178.476	-0.184	0.004
-304.837	51.732	0.276	-0.260
-303.822	-104.751	-0.355	-0.081
-302.807	-180.398	0.104	-0.002
-301.793	-41.559	0.176	-0.090
-300.778	45.522	0.202	0.185
-299.764	-96.445	0.125	0.033
-298.749	34.716	-0.126	-0.109
-297.735	2.411	-0.196	-0.141
-296.720	248.951	0.192	-0.323
-295.705	-80.862	0.136	0.045
-294.691	398.868	-0.092	0.192
-293.676	-169.176	-0.042	0.002
-292.662	-110.212	-0.054	-0.011
-291.647	-20.268	-0.079	-0.048
-290.632	-128.146	0.345	-0.049
-289.618	-54.886	0.203	-0.091
-288.603	-151.023	0.220	0.016
-287.589	759.819	-0.174	0.466
-286.574	-195.925	-0.073	-0.001
-285.559	13.913	0.268	0.207
-284.545	238.611	0.052	-0.086
-283.530	800.000	0.085	-0.259
-282.516	-200.000	0.021	-0.118
-281.501	-157.066	-0.333	-0.020
-280.486	-200.000	0.014	-0.112
-279.472	800.000	-0.048	-0.201
-278.457	-137.319	0.142	0.016
-277.443	800.000	0.031	0.103
-276.428	-53.471	-0.147	-0.067
-275.413	112.432	-0.192	-0.230
-274.399	-5.186	0.089	0.061
-273.384	474.205	0.121	-0.271
-272.370	-79.367	0.040	0.013
-271.355	-200.000	0.106	0.480
-270.340	-37.198	-0.023	0.012
-269.326	85.960	-0.069	-0.075
-268.311	-58.626	-0.181	-0.078
-267.297	800.000	-0.065	-0.192
-266.282	252.922	-0.106	0.178
-265.267	-200.000	-0.004	0.068
-264.253	221.619	0.250	-0.397
-263.238	229.620	0.285	-0.462
-262.224	-82.946	0.077	-0.025
-261.209	-5.806	0.263	0.178
-260.195	800.000	0.056	0.217
-259.180	116.800	0.179	-0.217
-258.165	59.876	0.157	0.154
-257.151	77.832	0.084	-0.089
-256.136	137.057	-0.203	0.262
-255.122	-200.000	0.057	-0.346
-254.107	-200.000	0.009	0.340
-253.092	-200.000	-0.007	-0.178
-252.078	640.812	0.010	-0.026
-251.063	800.000	-0.050	0.185
-250.049	800.000	0.080	0.268
-249.034	137.257	0.114	0.148
-248.019	-17.141	-0.097	-0.060
-247.005	225.281	-0.217	-0.347
-245.990	-142.839	0.109	0.010
-244.976	-200.000	-0.035	-0.154
-243.961	800.000	0.059	-0.229
-242.946	73.402	0.275	-0.285
-241.932	-57.295	0.136	0.059
-240.917	-152.526	-0.284	0.020
-239.903	-83.927	0.146	0.046
-238.888	800.000	0.019	-0.075
-237.873	26.593	-0.196	0.163
-236.859	-63.017	-0.102	0.042
-235.844	-24.479	-0.112	0.066
-234.830	-200.000	-0.004	0.125
-233.815	37.709	0.229	-0.201
-232.800	107.059	-0.182	0.214
-231.786	-67.862	0.049	0.019
-230.771	528.294	0.207	0.482
-229.757	-177.796	-0.153	0.004
-228.742	-200.000	-0.005	-0.120
-227.727	-200.000	0.017	-0.163
-226.713	-148.902	-0.235	-0.019
-225.698	800.000	-0.054	-0.205
-224.684	-67.901	-0.173	-0.067
-223.669	34.905	-0.053	0.046
-222.655	71.965	-0.189	0.195
-221.640	252.137	-0.142	0.240
-220.625	-31.348	-0.259	0.144
-219.611	-200.000	0.033	0.312
-218.596	-200.000	-0.033	0.191
-217.582	-191.406	0.318	-0.003
-216.567	315.437	0.181	-0.337
-215.552	-200.000	0.005	-0.115
-214.538	55.171	-0.135	0.129
-213.523	-10.092	0.338	-0.222
-212.509	-111.416	0.212	-0.043
-211.494	394.768	0.179	0.368
-210.479	191.744	-0.094	0.140
-209.465	217.830	-0.127	0.200
-208.450	-118.319	0.151	0.027
-207.436	248.591	0.029	0.048
-206.421	101.753	-0.233	-0.269
-205.406	-73.057	0.187	0.068
-204.392	800.000	0.070	0.257
-203.377	44.101	0.050	-0.045
-202.363	116.769	0.155	-0.188
-201.348	-200.000	-0.001	-0.134
-200.333	800.000	0.104	-0.291
-199.319	-36.919	-0.075	0.040
-198.304	-200.000	-0.082	0.411
-197.290	66.096	0.149	0.149
-196.275	21.539	-0.209	-0.168
-195.260	-93.753	-0.280	0.076
-194.246	-149.780	0.079	-0.006
-193.231	19.460	-0.067	-0.054
-192.217	241.101	-0.118	0.195
-191.202	-156.019	0.148	-0.009
-190.187	-141.519	0.145	0.014
-189.173	-76.640	-0.271	-0.094
-188.158	45.381	0.128	0.117
-187.144	-200.000	-0.194	-0.001
-186.129	342.426	-0.198	0.382
-185.114	-200.000	-0.012	0.352
-184.100	-141.436	0.299	0.030
-183.085	106.169	-0.353	0.413
-182.071	800.000	-0.025	0.070
-181.056	-200.000	-0.052	0.464
-180.042	192.364	-0.206	-0.307
-179.027	-53.660	0.524	0.237
-178.012	465.483	-0.091	0.202
-176.998	-200.000	-0.217	-0.001
-175.983	659.230	-0.070	0.179
-174.969	-42.522	0.427	0.215
-173.954	129.617	0.116	0.146
-172.939	-57.997	0.124	-0.053
-171.925	298.767	0.046	0.083
-170.910	-74.999	0.041	0.014
-169.896	-200.000	0.015	-0.111
-168.881	108.695	-0.183	-0.216
-167.866	-140.022	0.199	-0.021
-166.852	312.378	0.065	-0.121
-165.837	80.017	0.218	0.232
-164.823	-200.000	-0.017	0.082
-163.808	783.978	-0.045	-0.120
-162.793	-0.408	-0.044	-0.031
-161.779	-200.000	0.034	0.183
-160.764	-121.458	-0.271	-0.044
-159.750	-8.523	-0.178	-0.118
-158.735	758.980	-0.055	-0.147
-157.720	-124.750	0.278	0.042
-156.706	177.579	0.037	-0.053
-155.691	158.760	0.128	-0.176
-154.677	586.346	0.010	0.024
-153.662	-114.755	0.214	0.040
-152.647	84.912	-0.054	0.059
-151.633	-96.266	-0.207	-0.054
-150.618	217.135	0.121	-0.190
-149.604	-45.421	-0.059	0.029
-148.589	800.000	-0.109	0.320
-147.574	-90.111	0.207	0.059
-146.560	405.248	-0.065	-0.135
-145.545	62.946	-0.173	-0.171
-144.531	-200.000	-0.015	0.175
-143.516	58.017	-0.194	0.188
-142.502	-153.847	0.340	0.023
-141.487	-116.620	0.159	-0.029
-140.472	-31.062	0.082	0.046
-139.458	-112.432	-0.211	-0.042
-138.443	-96.318	-0.318	0.083
-137.429	67.856	-0.147	0.148
-136.414	-200.000	0.019	-0.316
-135.399	402.805	-0.113	-0.233
-134.385	23.287	-0.081	-0.065
-133.370	-18.369	0.203	0.125
-132.356	-79.168	0.258	0.086
-131.341	-67.752	-0.111	0.043
-130.326	-57.726	0.047	-0.020
-129.312	-11.669	0.307	-0.199
-128.297	-160.528	-0.396	0.021
-127.283	90.517	0.148	-0.163
-126.268	-148.542	-0.189	-0.015
-125.253	63.767	0.096	0.095
-124.239	66.472	0.164	-0.164
-123.224	-60.996	-0.418	0.174
-122.210	-200.000	0.055	-0.299
-121.195	-10.263	-0.140	-0.092
-120.180	-78.793	0.275	-0.092
-119.166	58.938	-0.096	-0.093
-118.151	14.662	0.317	-0.244
-117.137	467.571	0.138	0.304
-116.122	-200.000	0.020	0.358
-115.107	-162.367	0.120	0.006
-114.093	224.141	-0.085	-0.135
-113.078	-45.289	-0.098	-0.048
-112.064	94.561	0.305	0.342
-111.049	178.362	-0.040	0.057
-110.034	25.930	0.156	-0.128
-109.020	354.889	0.129	0.253
-108.005	71.002	0.277	0.283
-106.991	-8.541	-0.166	0.110
-105.976	52.740	-0.062	-0.058
-104.962	800.000	0.108	-0.365
-103.947	-0.830	0.345	-0.241
-102.932	-46.818	-0.039	-0.019
-101.918	709.591	-0.014	-0.036
-100.903	55.238	-0.114	0.109
-99.889	-200.000	0.210	0.000
-98.874	65.677	-0.109	0.109
-97.859	-53.363	0.223	-0.100
-96.845	-35.383	0.195	0.104
-95.830	-65.311	0.212	0.084
-94.816	251.801	-0.038	0.063
-93.801	-200.000	-0.031	-0.185
-92.786	31.453	-0.164	-0.138
-91.772	199.428	-0.211	0.319
-90.757	-200.000	-0.024	-0.239
-89.743	-135.937	0.076	0.009
-88.728	-58.711	-0.319	0.136
-87.713	800.000	-0.100	-0.288
-86.699	-200.000	-0.010	0.116
-85.684	-200.000	0.029	0.161
-84.670	-130.203	-0.385	-0.052
-83.655	107.287	0.121	0.142
-82.640	152.862	-0.251	-0.338
-81.626	800.000	-0.132	-0.370
-80.611	800.000	0.082	0.314
-79.597	3.060	-0.258	-0.184
-78.582	-60.134	-0.167	0.070
-77.567	-38.501	0.190	-0.099
-76.553	-200.000	-0.042	0.281
-75.538	-114.006	-0.314	0.060
-74.524	3.998	0.084	-0.061
-73.509	373.981	0.087	0.174
-72.494	-200.000	0.030	0.187
-71.480	61.356	0.192	-0.188
-70.465	-200.000	-0.037	0.215
-69.451	800.000	-0.095	0.362
-68.436	172.861	-0.098	0.139
-67.422	39.004	0.118	-0.104
-66.407	-89.458	-0.409	0.118
-65.392	108.917	-0.084	0.098
-64.378	150.974	-0.222	-0.297
-63.363	73.122	-0.209	0.215
-62.349	209.705	0.017	0.026
-61.334	65.571	-0.813	-0.809
-60.319	292.924	0.355	0.636
-59.305	800.000	-0.219	-0.810
-58.290	127.973	0.807	1.009
-57.276	800.000	0.520	1.505
-56.261	-200.000	99.325	624.378
-55.246	619.665	1435.761	3545.214
-54.232	184.961	2638.029	3843.959
-53.217	117.214	2192.097	2646.672
-52.203	42.437	1721.532	1537.909
-51.188	34.552	1533.913	1316.131
-50.173	32.216	1506.929	1277.074
-49.159	52.041	1558.422	1458.193
-48.144	53.643	1575.453	1485.140
-47.130	34.806	1533.431	1317.259
-46.115	31.661	1518.462	1282.845
-45.100	31.419	1515.102	1278.296
-44.086	31.427	1513.039	1276.565
-43.071	31.412	1510.904	1274.606
-42.057	31.406	1509.557	1273.383
-41.042	31.401	1508.569	1272.463
-40.027	31.367	1506.839	1270.723
-39.013	31.348	1505.176	1269.139
-37.998	31.358	1503.875	1268.058
-36.984	31.292	1503.102	1266.913
-35.969	31.426	1500.961	1265.966
-34.954	31.349	1499.939	1264.532
-33.940	31.321	1498.438	1263.023
-32.925	31.463	1496.672	1262.445
-31.911	31.402	1495.668	1261.137
-30.896	31.431	1494.852	1260.591
-29.881	31.515	1492.952	1259.506
-28.867	31.447	1491.767	1257.999
-27.852	31.470	1490.190	1256.773
-26.838	31.323	1489.014	1254.745
-25.823	31.431	1487.265	1253.945
-24.809	31.435	1485.417	1252.365
-23.794	31.514	1484.124	1251.752
-22.779	31.342	1483.369	1249.918
-21.765	31.379	1481.944	1248.913
-20.750	31.386	1480.815	1247.957
-19.736	31.318	1479.628	1246.459
-18.721	31.322	1478.809	1245.743
-17.706	31.305	1477.735	1244.679
-16.692	31.328	1476.720	1243.924
-15.677	31.401	1475.471	1243.307
-14.663	31.334	1474.603	1242.082
-13.648	31.304	1473.341	1240.774
-12.633	31.265	1472.628	1239.866
-11.619	31.409	1471.480	1239.803
-10.604	31.299	1470.784	1238.434
-9.590	31.261	1470.389	1237.802
-8.575	31.257	1469.625	1237.087
-7.560	31.288	1468.504	1236.295
-6.546	31.363	1467.193	1235.643
-5.531	31.372	1466.481	1235.050
-4.517	31.317	1465.326	1233.665
-3.502	31.305	1464.493	1232.839
-2.487	31.250	1463.683	1231.743
-1.473	31.300	1462.196	1230.772
-0.458	31.304	1461.362	1230.049
0.556	29.029	1451.575	1220.573
1.571	26.632	1425.753	1183.118
2.586	23.688	1365.153	1114.286
3.600	22.257	1283.775	1039.319
4.615	20.935	1238.052	994.675
5.629	18.153	1182.691	934.928
6.644	9.441	1097.127	822.840
7.659	1.601	1054.904	752.442
8.673	0.183	1048.798	741.046
9.688	-0.007	1045.100	737.434
10.702	-0.255	1043.973	735.360
11.717	-0.040	1041.865	734.862
12.731	3.659	1046.385	756.121
13.746	12.714	1059.500	810.257
14.761	19.360	1067.363	849.034
15.775	20.759	1069.347	857.431
16.790	21.196	1068.330	858.690
17.804	20.856	1068.291	856.912
18.819	20.854	1067.405	856.114
19.834	20.827	1066.711	855.347
20.848	20.978	1066.133	855.551
21.863	20.998	1066.020	855.482
22.877	21.007	1065.602	855.116
23.892	20.862	1064.604	853.528
24.907	20.858	1063.653	852.671
25.921	20.963	1063.335	852.855
26.936	20.859	1062.851	851.884
27.950	20.944	1061.121	850.837
28.965	20.965	1059.872	849.858
29.980	20.772	1058.566	847.800
30.994	20.708	1056.983	846.145
32.009	20.950	1055.951	846.417
33.023	21.079	1055.409	846.536
34.038	20.835	1054.352	844.429
35.053	20.750	1053.588	843.330
36.067	20.915	1053.115	843.675
37.082	20.962	1052.239	843.126
38.096	21.033	1051.325	842.666
39.111	21.180	1050.510	842.645
40.126	21.296	1049.420	842.256
41.140	21.190	1048.280	840.758
42.155	20.913	1047.059	838.373
43.169	20.658	1045.970	836.198
44.184	20.592	1044.980	835.019
45.199	20.717	1043.645	834.475
46.213	20.624	1042.661	833.171
47.228	20.610	1041.742	832.293
48.242	20.694	1041.475	832.411
49.257	20.868	1040.381	832.290
50.271	20.999	1039.072	831.799
51.286	21.151	1038.285	831.819
52.301	21.161	1037.542	831.198
53.315	21.076	1037.331	830.547
54.330	20.910	1036.762	829.228
55.344	20.952	1035.596	828.424
56.359	20.982	1034.940	827.970
57.374	21.011	1034.357	827.568
58.388	20.801	1032.911	825.343
59.403	20.837	1032.131	824.814
60.417	20.793	1031.222	823.810
61.432	20.648	1030.337	822.342
62.447	20.622	1030.035	821.905
63.461	20.832	1029.191	822.152
64.476	20.820	1028.184	821.217
65.490	20.774	1027.592	820.454
66.505	20.688	1026.187	818.857
67.520	20.607	1025.811	818.102
68.534	20.683	1025.166	817.874
69.549	20.782	1023.995	817.328
70.563	20.269	1022.810	813.906
71.578	20.235	1021.717	812.806
72.593	20.328	1021.300	812.836
73.607	20.291	1019.580	811.224
74.622	20.190	1018.825	810.079
75.636	20.464	1018.506	811.035
76.651	20.629	1017.732	811.113
77.666	20.415	1017.281	809.684
78.680	20.440	1015.539	808.345
79.695	20.389	1015.517	808.020
80.709	20.492	1014.995	808.010
81.724	20.527	1014.421	807.644
82.739	20.609	1013.330	807.086
83.753	20.634	1012.241	806.264
84.768	20.848	1011.744	806.787
85.782	21.044	1011.244	807.224
86.797	21.350	1010.240	807.764
87.812	21.211	1009.602	806.543
88.826	21.142	1008.326	805.132
89.841	21.149	1007.537	804.462
90.855	21.209	1007.207	804.407
91.870	21.214	1006.384	803.698
92.884	21.366	1004.793	803.056
93.899	21.085	1004.391	801.374
94.914	21.036	1003.463	800.338
95.928	21.078	1003.017	800.102
96.943	21.096	1002.241	799.498
97.957	20.888	1000.713	797.256
98.972	20.625	999.370	794.912
99.987	20.510	998.584	793.690
101.001	20.574	997.976	793.433
102.016	20.708	997.619	793.686
103.030	20.958	996.193	793.620
104.045	20.826	995.323	792.260
105.060	20.648	994.086	790.393
106.074	20.542	992.918	788.914
107.089	20.615	992.465	788.818
108.103	20.899	992.104	789.747
109.118	21.015	991.118	789.419
110.133	20.755	989.567	786.938
111.147	20.661	988.831	785.855
112.162	20.627	987.952	784.936
113.176	20.456	986.245	782.738
114.191	20.491	985.737	782.426
115.206	20.643	985.337	782.720
116.220	20.218	983.976	779.664
117.235	20.198	982.759	778.540
118.249	20.247	982.142	778.202
119.264	20.434	981.143	778.176
120.279	20.330	980.443	777.090
121.293	20.246	979.756	776.100
122.308	20.480	978.899	776.396
123.322	20.508	977.813	775.594
124.337	20.503	976.958	774.825
125.352	20.357	975.308	772.797
126.366	19.920	973.636	769.462
127.381	19.669	972.468	767.357
128.395	20.170	972.117	769.234
129.410	20.741	971.898	771.526
130.424	20.857	971.193	771.412
131.439	20.835	969.896	770.214
132.454	20.751	968.778	768.887
133.468	20.901	967.588	768.537
134.483	20.773	967.194	767.593
135.497	20.877	966.530	767.454
136.512	21.019	965.849	767.470
137.527	21.196	965.454	767.867
138.541	21.218	964.251	766.940
139.556	21.110	963.930	766.143
140.570	21.040	962.771	764.846
141.585	21.148	962.153	764.760
142.600	21.176	960.903	763.823
143.614	21.237	959.860	763.190
144.629	21.212	958.991	762.324
145.643	21.445	958.942	763.235
146.658	21.401	957.906	762.150
147.673	21.162	956.524	759.945
148.687	21.116	955.190	758.618
149.702	20.989	954.267	757.265
150.716	20.790	953.456	755.692
151.731	20.706	952.650	754.620
152.746	20.854	951.396	754.201
153.760	20.990	951.245	754.604
154.775	21.255	950.500	755.090
155.789	21.347	949.517	754.644
156.804	21.296	948.562	753.598
157.819	21.111	947.897	752.202
158.833	21.355	946.575	752.138
159.848	21.364	946.059	751.700
160.862	21.331	945.550	751.090
161.877	21.199	944.267	749.434
162.892	21.208	943.268	748.614
163.906	21.355	942.426	748.511
164.921	21.314	941.404	747.458
165.935	21.177	940.503	746.089
166.950	21.295	939.398	745.652
167.964	21.324	938.270	744.814
168.979	21.255	937.523	743.862
169.994	21.204	936.468	742.741
171.008	21.098	935.284	741.286
172.023	21.270	934.617	741.420
173.037	21.410	933.624	741.163
174.052	21.130	932.549	739.056
175.067	20.936	931.503	737.343
176.081	21.021	930.760	737.048
177.096	21.055	930.196	736.681
178.110	21.031	929.318	735.817
179.125	20.954	928.221	734.558
180.140	20.683	927.122	732.485
181.154	20.655	926.517	731.824
182.169	20.777	925.789	731.696
183.183	20.884	925.858	732.136
184.198	21.217	925.497	733.185
185.213	21.174	924.553	732.192
186.227	21.129	923.771	731.319
187.242	21.167	923.212	730.969
188.256	21.202	922.947	730.842
189.271	21.244	921.797	730.043
190.286	21.418	920.925	730.012
191.300	21.274	919.677	728.359
192.315	20.824	918.430	725.435
193.329	19.953	917.168	720.751
194.344	19.683	916.063	718.694
195.359	20.256	916.755	721.556
196.373	20.963	916.710	724.397
197.388	21.234	916.297	725.130
198.402	21.133	915.637	724.127
199.417	21.056	915.183	723.386
200.432	21.203	914.660	723.515
201.446	20.900	914.017	721.689
202.461	20.698	912.988	719.974
203.475	20.757	912.506	719.776
204.490	20.362	910.851	716.777
205.504	19.257	908.949	710.661
206.519	19.680	908.874	712.283
207.534	20.613	909.421	716.497
208.548	20.721	908.545	716.187
209.563	21.076	908.576	717.609
210.577	21.067	907.880	716.958
211.592	20.799	906.909	715.027
212.607	21.226	906.824	716.650
213.621	21.327	906.200	716.509
214.636	21.320	905.277	715.683
215.650	21.365	904.413	715.122
216.665	21.275	904.247	714.558
217.680	21.322	904.107	714.580
218.694	21.333	903.583	714.148
219.709	21.076	902.431	712.122
220.723	20.719	901.352	709.753
221.738	20.934	900.749	710.093
222.753	21.262	900.178	710.913
223.767	21.187	899.548	710.049
224.782	21.122	899.104	709.372
225.796	21.363	898.538	709.843
226.811	21.513	897.526	709.585
227.826	21.085	896.519	706.996
228.840	20.368	895.266	703.041
229.855	20.263	894.806	702.195
230.869	20.397	894.316	702.287
231.884	20.065	893.352	700.129
232.899	20.007	893.067	699.609
233.913	21.056	892.934	703.676
234.928	21.122	892.864	703.823
235.942	20.889	891.924	702.084
236.957	21.163	890.762	702.210
237.972	20.914	890.174	700.683
238.986	20.686	889.539	699.204
240.001	20.881	889.077	699.563
241.015	20.818	888.308	698.643
242.030	20.912	887.715	698.491
243.045	21.189	887.164	699.106
244.059	21.040	887.134	698.424
245.074	21.183	886.450	698.396
246.088	21.296	885.591	698.107
247.103	20.830	884.607	695.409
248.117	20.879	883.931	695.011
249.132	21.451	883.961	697.257
250.147	21.731	883.698	698.101
251.161	21.886	882.776	697.929
252.176	22.080	882.736	698.608
253.190	22.127	881.574	697.813
254.205	22.081	881.255	697.316
255.220	22.230	880.955	697.606
256.234	22.206	880.272	696.911
257.249	21.996	879.827	695.664
258.263	21.870	879.303	694.691
259.278	21.936	878.446	694.212
260.293	21.890	878.154	693.738
261.307	22.111	877.711	694.199
262.322	21.884	876.692	692.434
263.336	21.752	876.276	691.524
264.351	21.148	875.379	688.374
265.366	20.171	873.076	682.659
266.380	19.775	871.903	680.125
267.395	20.796	872.406	684.472
268.409	21.577	872.337	687.425
269.424	21.551	871.454	686.565
270.439	21.607	871.562	686.810
271.453	21.815	870.470	686.703
272.468	21.780	869.762	685.948
273.482	22.074	869.215	686.603
274.497	22.084	868.901	686.335
275.512	21.903	867.704	684.624
276.526	21.398	866.451	681.607
277.541	21.687	865.952	682.276
278.555	21.860	866.217	683.099
279.570	21.823	865.183	682.083
280.585	21.544	864.388	680.310
281.599	21.584	863.822	679.959
282.614	21.756	863.317	680.169
283.628	21.422	862.226	677.953
284.643	20.989	861.473	675.626
285.657	21.316	861.677	676.991
286.672	21.282	860.640	675.985
287.687	20.674	859.894	672.991
288.701	21.018	859.761	674.155
289.716	21.482	859.561	675.733
290.730	21.272	858.358	673.916
291.745	21.084	857.675	672.597
292.760	20.928	856.771	671.228
293.774	20.710	856.565	670.166
294.789	21.751	856.880	674.359
295.803	22.273	857.053	676.445
296.818	22.403	856.072	676.113
297.833	22.537	856.007	676.514
298.847	22.189	854.826	674.187
299.862	21.960	853.468	672.178
300.876	21.989	853.701	672.414
301.891	22.388	853.046	673.365
302.906	22.396	852.611	672.992
303.920	22.072	851.442	670.773
304.935	21.842	850.666	669.224
305.949	22.280	850.424	670.646
306.964	22.230	850.001	670.064
307.979	22.216	848.919	669.099
308.993	22.090	848.439	668.181
310.008	22.343	848.552	669.171
311.022	22.529	848.176	669.524
312.037	22.394	847.151	668.145
313.052	22.061	846.664	666.435
314.066	21.961	846.417	665.805
315.081	21.459	844.381	662.243
316.095	20.618	843.388	658.225
317.110	21.197	843.529	660.467
318.125	22.111	843.536	663.871
319.139	21.697	842.784	661.656
320.154	20.567	841.132	656.038
321.168	20.032	839.985	653.069
322.183	20.673	840.172	655.574
323.197	21.568	840.432	659.091
324.212	21.883	839.981	659.865
325.227	21.907	839.862	659.801
326.241	22.089	839.575	660.202
327.256	22.115	838.833	659.656
328.270	21.924	838.344	658.499
329.285	21.943	837.114	657.544
330.300	21.721	836.602	656.254
331.314	21.630	835.755	655.189
332.329	21.582	835.168	654.492
333.343	21.959	835.237	655.896
334.358	22.282	834.299	656.309
335.373	22.197	834.142	655.809
336.387	22.364	833.629	655.970
337.402	22.607	833.236	656.507
338.416	22.749	832.850	656.674
339.431	22.578	832.345	655.582
340.446	22.643	831.326	654.962
341.460	22.882	830.964	655.508
342.475	22.745	830.755	654.776
343.489	22.738	829.653	653.823
344.504	22.560	829.368	652.881
345.519	22.623	829.291	652.996
346.533	23.015	828.637	653.874
347.548	23.140	828.036	653.803
348.562	23.106	827.592	653.273
349.577	22.980	827.127	652.380
350.592	22.999	826.673	652.036
351.606	22.911	826.106	651.205
352.621	23.077	825.602	651.362
353.635	22.845	825.232	650.157
354.650	22.905	824.479	649.728
355.665	22.485	823.558	647.400
356.679	21.469	821.763	642.206
357.694	21.166	821.577	640.889
358.708	21.916	821.283	643.358
359.723	21.951	820.655	642.934
360.738	22.050	820.786	643.343
361.752	22.680	820.448	645.327
362.767	22.568	820.316	644.757
363.781	22.837	820.489	645.820
364.796	23.155	819.728	646.325
365.810	23.349	819.344	646.673
366.825	23.363	818.992	646.389
367.840	23.331	818.515	645.841
368.854	23.129	817.943	644.597
369.869	22.944	816.999	643.120
370.883	22.711	816.381	641.730
371.898	22.812	815.791	641.578
372.913	22.670	814.954	640.345
373.927	22.721	814.204	639.887
374.942	22.668	814.077	639.537
375.956	22.778	813.511	639.434
376.971	23.091	812.668	639.846
377.986	23.298	811.930	639.956
379.000	23.245	812.057	639.809
380.015	23.318	811.545	639.613
381.029	23.007	811.178	638.143
382.044	23.239	810.136	638.106
383.059	23.344	809.704	638.087
384.073	23.349	808.992	637.489
385.088	23.233	808.724	636.801
386.102	23.270	808.223	636.485
387.117	23.130	807.340	635.230
388.132	23.130	806.893	634.822
389.146	22.880	805.936	633.119
390.161	22.300	805.448	630.601
391.175	22.397	805.080	630.602
392.190	22.877	804.918	632.140
393.205	22.961	804.516	632.069
394.219	22.092	802.402	627.251
395.234	20.495	800.391	619.929
396.248	19.666	799.650	616.345
397.263	20.845	800.703	621.311
398.278	22.481	801.880	628.006
399.292	22.964	801.982	629.752
400.307	22.593	800.874	627.506
401.321	22.678	800.625	627.559
402.336	22.609	800.451	627.121
403.350	22.886	800.249	627.891
404.365	23.259	800.179	629.106
405.380	23.688	799.798	630.274
406.394	23.898	799.352	630.612
407.409	24.010	799.276	630.893
408.423	23.899	798.594	629.908
409.438	23.788	798.456	629.347
410.453	23.929	797.708	629.202
411.467	23.947	797.525	629.066
412.482	23.971	796.725	628.464
413.496	23.818	796.405	627.615
414.511	23.982	796.260	628.024
415.526	24.022	795.668	627.642
416.540	23.934	795.792	627.374
417.555	23.882	794.893	626.428
418.569	23.675	793.999	624.941
419.584	23.499	793.734	624.057
420.599	23.612	793.142	623.933
421.613	155.667	1365.046	1796.912
422.628	134.830	1448.368	1797.021
