DTS Sentinel unit serial number:	SN413079Multiplexer serial number:	ORYXHardware model number:	OX4-SRSoftware version number:	ORYX F/W v4.00 Oryx Data Collector v3.7.2.0data status	okinstallation	princeton_trtdifferential loss correction	single-endedforward channel	channel 3reverse channel	N/Adate	2019/09/18time	07:08:35forward acquisition time	60.00reverse acquisition time	0.00gamma	496.2192k internal	0.2343k external	0.2343temperature offset calibration	0.9949default loss term (dB/km)	0.3790temperature slope calibration	1.0000multiplexer offset coefficient	1.0000multiplexer slope coefficient	1.0000fibre end	0.00T internal ref (°C)	23.19T ext. ref 1 (°C)	0.19T ext. ref 2 (°C)	17.35length (m)	temperature (°C)	Stokes	anti-Stokes-747.200	-200.000	0.012	-0.262
-746.185	489.797	-0.110	-0.252
-745.171	-200.000	0.008	-0.069
-744.156	405.824	-0.064	0.135
-743.142	170.684	0.135	0.194
-742.127	-14.551	-0.041	-0.026
-741.112	800.000	0.091	-0.348
-740.098	-111.767	-0.409	-0.083
-739.083	-24.833	0.200	0.119
-738.069	-200.000	0.056	0.300
-737.054	-51.843	0.191	0.089
-736.039	-16.934	-0.335	-0.212
-735.025	182.143	0.149	-0.220
-734.010	587.170	0.096	-0.237
-732.996	-200.000	-0.003	0.351
-731.981	-163.096	-0.097	-0.005
-730.966	-47.836	-0.204	-0.099
-729.952	134.855	0.072	0.093
-728.937	135.153	-0.264	0.343
-727.923	-115.821	-0.123	-0.023
-726.908	211.842	0.153	0.241
-725.894	205.216	0.081	0.126
-724.879	-48.043	-0.040	0.019
-723.864	-51.751	-0.283	-0.132
-722.850	-200.000	-0.038	0.207
-721.835	120.663	0.109	0.135
-720.821	-200.000	-0.015	-0.336
-719.806	-32.412	0.315	0.176
-718.791	-155.570	0.159	-0.010
-717.777	90.001	-0.226	-0.252
-716.762	-85.922	0.205	-0.064
-715.748	182.744	-0.116	0.171
-714.733	-43.311	0.280	0.142
-713.718	287.531	0.044	0.079
-712.704	-39.313	0.044	-0.023
-711.689	36.285	-0.124	-0.109
-710.675	-9.776	-0.417	-0.277
-709.660	800.000	-0.052	-0.204
-708.645	-160.760	0.233	-0.012
-707.631	32.361	-0.423	-0.365
-706.616	-162.394	-0.171	-0.008
-705.602	-112.138	-0.370	0.074
-704.587	800.000	-0.080	-0.247
-703.572	-76.284	-0.131	0.046
-702.558	-200.000	0.060	0.298
-701.543	-200.000	-0.059	0.267
-700.529	800.000	-0.019	-0.075
-699.514	800.000	0.053	0.213
-698.499	3.682	-0.175	-0.128
-697.485	274.747	0.255	0.451
-696.470	-99.891	0.199	0.050
-695.456	-200.000	-0.020	0.118
-694.441	157.112	-0.009	0.012
-693.426	117.022	-0.224	-0.275
-692.412	-27.214	0.155	-0.090
-691.397	-200.000	-0.037	-0.315
-690.383	182.054	0.137	-0.201
-689.368	-200.000	0.025	0.109
-688.354	-71.932	-0.253	-0.094
-687.339	181.172	-0.118	0.173
-686.324	-118.252	-0.046	-0.008
-685.310	-104.321	-0.097	-0.023
-684.295	275.159	-0.101	0.179
-683.281	39.179	-0.118	-0.105
-682.266	519.905	0.144	0.337
-681.251	143.206	-0.177	0.235
-680.237	161.109	-0.261	0.364
-679.222	-200.000	0.037	0.324
-678.208	104.242	0.088	0.103
-677.193	-85.821	0.156	0.048
-676.178	-80.498	-0.240	-0.080
-675.164	201.972	-0.055	-0.085
-674.149	-62.298	0.047	-0.019
-673.135	-109.428	-0.254	0.054
-672.120	-51.494	0.075	0.035
-671.105	-200.000	-0.032	-0.266
-670.091	-88.642	-0.278	-0.083
-669.076	32.288	-0.168	0.145
-668.062	-144.660	-0.162	-0.015
-667.047	-200.000	0.018	-0.248
-666.032	-200.000	-0.006	0.066
-665.018	-98.276	-0.089	-0.023
-664.003	-200.000	-0.033	0.286
-662.989	144.419	0.260	-0.346
-661.974	-51.834	-0.136	0.063
-660.959	241.293	0.136	-0.226
-659.945	-19.970	-0.227	-0.140
-658.930	-200.000	0.000	0.075
-657.916	128.146	0.132	0.167
-656.901	4.614	-0.201	0.147
-655.886	800.000	-0.060	-0.168
-654.872	-155.323	-0.095	-0.006
-653.857	-101.365	-0.308	-0.075
-652.843	83.818	0.029	0.032
-651.828	-200.000	-0.206	-0.000
-650.814	-46.512	-0.206	0.101
-649.799	-152.231	0.125	0.009
-648.784	165.222	-0.170	0.239
-647.770	74.139	-0.048	0.051
-646.755	-61.885	-0.166	-0.069
-645.741	-56.657	-0.450	-0.199
-644.726	-92.993	-0.281	-0.078
-643.711	140.797	0.224	-0.295
-642.697	694.021	-0.024	-0.063
-641.682	-166.990	-0.363	0.015
-640.668	169.180	-0.106	-0.150
-639.653	-195.808	0.191	-0.001
-638.638	114.280	-0.184	0.223
-637.624	129.423	-0.262	-0.334
-636.609	115.820	0.085	0.103
-635.595	-3.819	0.110	-0.076
-634.580	254.205	0.048	-0.082
-633.565	-12.245	0.192	0.125
-632.551	-114.982	-0.479	0.091
-631.536	214.785	0.171	0.271
-630.522	97.693	-0.070	0.080
-629.507	403.965	0.076	0.160
-628.492	52.578	-0.088	0.084
-627.478	-84.156	0.227	-0.072
-626.463	-200.000	0.029	-0.131
-625.449	-98.871	-0.224	0.057
-624.434	-62.737	0.342	-0.141
-623.419	-35.165	0.217	0.118
-622.405	-73.629	0.175	0.063
-621.390	-1.035	0.254	0.179
-620.376	327.587	-0.126	-0.241
-619.361	-95.748	-0.177	-0.047
-618.346	-17.144	-0.124	-0.078
-617.332	80.604	0.076	-0.082
-616.317	-146.345	-0.176	-0.015
-615.303	80.793	0.195	0.209
-614.288	5.052	0.249	0.183
-613.273	-200.000	0.031	-0.197
-612.259	-20.554	0.201	-0.123
-611.244	-61.716	-0.256	-0.107
-610.230	-167.013	-0.484	-0.020
-609.215	312.039	-0.103	-0.192
-608.201	123.979	-0.349	0.436
-607.186	-200.000	-0.038	0.166
-606.171	-19.706	0.032	-0.020
-605.157	175.681	-0.214	-0.310
-604.142	76.145	0.205	0.216
-603.128	-50.059	0.253	-0.119
-602.113	176.879	0.150	0.217
-601.098	56.806	-0.119	-0.115
-600.084	-200.000	0.013	-0.192
-599.069	-53.311	-0.372	-0.170
-598.055	-200.000	0.005	-0.118
-597.040	-200.000	0.008	-0.076
-596.025	-4.347	-0.292	-0.201
-595.011	-200.000	-0.006	-0.354
-593.996	-200.000	-0.017	-0.208
-592.982	387.563	0.043	0.088
-591.967	800.000	-0.047	-0.131
-590.952	-79.754	-0.140	-0.047
-589.938	800.000	-0.038	0.117
-588.923	-141.403	0.417	-0.042
-587.909	-132.708	-0.108	0.014
-586.894	-1.503	-0.276	0.194
-585.879	-156.209	-0.290	0.018
-584.865	129.712	-0.038	0.049
-583.850	91.844	0.106	-0.119
-582.836	-24.150	-0.089	0.053
-581.821	800.000	0.117	0.433
-580.806	-174.697	-0.088	0.002
-579.792	-138.883	0.445	-0.048
-578.777	-200.000	0.075	-0.389
-577.763	101.725	-0.147	-0.171
-576.748	311.505	-0.163	-0.303
-575.733	-103.313	-0.153	-0.036
-574.719	335.592	0.066	-0.128
-573.704	-89.923	0.387	-0.112
-572.690	447.049	-0.191	-0.417
-571.675	-62.672	-0.145	0.060
-570.661	93.648	0.146	0.164
-569.646	118.229	-0.052	-0.063
-568.631	800.000	0.036	-0.104
-567.617	-200.000	0.023	0.103
-566.602	-15.850	0.056	0.035
-565.588	203.267	0.067	0.102
-564.573	610.279	-0.065	-0.162
-563.558	-20.090	0.224	0.137
-562.544	800.000	-0.025	0.104
-561.529	-200.000	-0.026	0.199
-560.515	-52.342	-0.067	-0.031
-559.500	-200.000	-0.055	-0.256
-558.485	-39.300	-0.123	-0.064
-557.471	-83.541	0.406	0.129
-556.456	-63.969	-0.067	-0.027
-555.442	800.000	0.126	-0.409
-554.427	-11.822	0.265	-0.173
-553.412	388.128	-0.099	0.204
-552.398	-117.882	0.134	-0.024
-551.383	-200.000	0.005	0.033
-550.369	-27.957	-0.279	0.160
-549.354	-12.604	-0.158	-0.102
-548.339	-115.882	0.240	0.044
-547.325	155.311	0.095	0.129
-546.310	-110.285	0.246	0.051
-545.296	800.000	-0.042	0.121
-544.281	-24.191	-0.243	-0.144
-543.266	800.000	0.098	0.276
-542.252	-200.000	-0.024	0.267
-541.237	-116.761	0.198	0.036
-540.223	-101.602	0.391	0.094
-539.208	79.347	0.154	0.164
-538.193	-121.959	0.043	0.007
-537.179	800.000	-0.047	-0.165
-536.164	705.600	0.037	-0.098
-535.150	-98.332	-0.111	-0.028
-534.135	99.719	-0.180	0.207
-533.121	-200.000	-0.001	-0.153
-532.106	489.396	-0.202	-0.459
-531.091	-200.000	0.047	0.276
-530.077	-64.815	0.157	-0.063
-529.062	32.128	0.153	0.131
-528.048	-200.000	-0.044	0.371
-527.033	-179.095	0.122	0.003
-526.018	-49.568	-0.152	-0.072
-525.004	-128.384	-0.287	0.041
-523.989	-66.124	0.092	0.036
-522.975	-190.032	-0.165	0.002
-521.960	83.105	-0.208	0.225
-520.945	-68.327	0.164	0.063
-519.931	-97.543	0.143	0.037
-518.916	-93.286	-0.205	-0.056
-517.902	-200.000	0.014	0.111
-516.887	-12.466	0.383	-0.248
-515.872	-46.311	-0.128	-0.063
-514.858	704.669	0.101	-0.263
-513.843	800.000	0.091	-0.318
-512.829	-173.023	0.200	0.006
-511.814	277.618	-0.054	0.095
-510.799	203.002	0.173	-0.265
-509.785	422.755	0.082	0.174
-508.770	28.010	0.248	-0.208
-507.756	-200.000	-0.003	0.076
-506.741	-77.395	-0.106	-0.037
-505.726	-200.000	-0.041	-0.245
-504.712	-200.000	0.010	-0.054
-503.697	800.000	-0.114	0.338
-502.683	401.342	-0.122	0.253
-501.668	492.069	-0.076	0.172
-500.653	-97.428	-0.138	-0.036
-499.639	-200.000	-0.024	-0.118
-498.624	-45.927	-0.129	-0.063
-497.610	-200.000	-0.011	-0.083
-496.595	13.955	-0.280	0.216
-495.581	-126.318	-0.219	0.032
-494.566	-200.000	-0.034	-0.262
-493.551	0.480	-0.006	0.005
-492.537	707.337	0.162	0.425
-491.522	-108.650	-0.153	-0.033
-490.508	800.000	-0.055	0.182
-489.493	-165.690	0.210	0.009
-488.478	-47.074	-0.488	0.236
-487.464	163.776	0.222	-0.310
-486.449	-75.491	0.188	-0.066
-485.435	577.030	-0.020	-0.049
-484.420	-50.252	0.129	0.060
-483.405	-200.000	0.025	-0.248
-482.391	164.395	0.047	-0.066
-481.376	43.997	0.097	0.088
-480.362	-132.356	-0.229	-0.029
-479.347	54.344	-0.106	0.101
-478.332	800.000	0.077	0.236
-477.318	-200.000	-0.036	0.206
-476.303	415.700	-0.093	-0.197
-475.289	-75.476	0.059	-0.021
-474.274	-129.846	-0.048	-0.006
-473.259	-152.982	0.359	0.025
-472.245	70.734	0.186	-0.190
-471.230	-200.000	0.034	-0.374
-470.216	-200.000	-0.029	-0.165
-469.201	244.486	0.075	-0.125
-468.186	480.164	0.024	-0.054
-467.172	800.000	-0.033	0.107
-466.157	193.475	-0.139	0.209
-465.143	105.428	0.107	0.125
-464.128	-41.109	-0.272	-0.139
-463.113	-82.133	-0.315	-0.102
-462.099	238.277	0.204	0.335
-461.084	-85.427	-0.308	0.095
-460.070	592.157	0.038	-0.092
-459.055	-150.611	0.062	0.005
-458.040	170.944	-0.133	0.189
-457.026	-32.491	0.185	-0.102
-456.011	-5.497	-0.246	0.167
-454.997	33.289	-0.159	0.136
-453.982	-200.000	0.004	-0.052
-452.968	-200.000	0.089	0.390
-451.953	87.886	-0.202	0.222
-450.938	-34.409	0.125	0.068
-449.924	-187.774	-0.156	-0.002
-448.909	509.663	0.147	0.338
-447.895	-179.289	0.262	-0.006
-446.880	263.438	0.050	-0.086
-445.865	-134.442	0.177	0.021
-444.851	-200.000	-0.035	0.156
-443.836	-148.118	-0.202	-0.017
-442.822	-146.345	0.155	-0.013
-441.807	214.889	-0.082	-0.128
-440.792	-134.154	0.157	-0.019
-439.778	-200.000	-0.019	0.282
-438.763	-200.000	0.010	-0.053
-437.749	-55.659	0.205	-0.091
-436.734	-200.000	0.011	-0.288
-435.719	157.577	-0.093	-0.127
-434.705	-200.000	0.015	0.089
-433.690	82.293	-0.239	0.256
-432.676	294.446	-0.167	-0.303
-431.661	-144.345	0.054	-0.005
-430.646	-45.903	0.163	-0.079
-429.632	-7.960	-0.262	-0.175
-428.617	-14.252	0.227	0.145
-427.603	446.820	-0.127	0.276
-426.588	-120.326	0.050	-0.008
-425.573	-92.200	-0.137	0.038
-424.559	-102.308	0.119	-0.028
-423.544	-44.135	0.310	-0.154
-422.530	81.634	0.129	-0.138
-421.515	-50.960	0.374	0.174
-420.500	-200.000	0.012	-0.130
-419.486	-200.000	-0.020	-0.276
-418.471	219.819	-0.174	-0.275
-417.457	-11.816	-0.085	-0.055
-416.442	-155.915	-0.243	0.015
-415.428	-185.727	-0.187	-0.003
-414.413	223.421	-0.144	0.230
-413.398	114.367	0.082	0.099
-412.384	-114.955	-0.232	0.044
-411.369	-81.916	-0.182	0.059
-410.355	291.630	-0.202	0.363
-409.340	110.665	0.185	-0.220
-408.325	330.398	-0.081	-0.153
-407.311	-200.000	-0.046	0.205
-406.296	-38.546	0.147	0.077
-405.282	436.756	0.058	0.125
-404.267	435.838	0.105	0.225
-403.252	275.828	0.197	-0.346
-402.238	-200.000	-0.105	0.482
-401.223	-47.441	-0.059	-0.028
-400.209	409.944	-0.051	0.106
-399.194	452.162	0.186	-0.407
-398.179	-200.000	-0.042	-0.247
-397.165	-200.000	-0.013	0.087
-396.150	38.142	0.364	0.320
-395.136	800.000	0.066	-0.226
-394.121	-200.000	0.039	0.220
-393.106	-3.051	0.114	-0.079
-392.092	-200.000	0.057	0.262
-391.077	298.590	-0.146	0.265
-390.063	-200.000	-0.015	-0.265
-389.048	206.095	0.070	-0.108
-388.033	-141.689	-0.030	0.003
-387.019	800.000	0.052	0.145
-386.004	264.534	-0.213	0.366
-384.990	-164.702	-0.634	0.028
-383.975	-6.726	-0.175	-0.117
-382.960	30.911	0.083	-0.070
-381.946	-200.000	0.039	-0.387
-380.931	100.865	0.170	0.195
-379.917	-175.721	0.169	-0.004
-378.902	51.002	0.206	-0.193
-377.888	90.260	-0.083	0.092
-376.873	-56.623	0.080	0.035
-375.858	-200.000	-0.055	0.336
-374.844	62.433	0.110	0.109
-373.829	323.373	-0.163	-0.307
-372.815	30.321	-0.409	0.345
-371.800	-32.135	-0.254	0.140
-370.785	-200.000	-0.040	0.179
-369.771	138.986	0.127	-0.164
-368.756	380.098	-0.194	0.393
-367.742	-200.000	0.013	0.242
-366.727	337.764	0.065	0.125
-365.712	-200.000	0.038	-0.183
-364.698	466.277	0.146	-0.324
-363.683	53.735	-0.209	-0.198
-362.669	273.637	0.065	-0.114
-361.654	-158.540	-0.512	-0.029
-360.639	800.000	0.029	0.121
-359.625	0.348	0.205	-0.145
-358.610	249.220	-0.066	0.111
-357.596	-34.990	-0.247	0.133
-356.581	12.956	0.209	0.159
-355.566	-200.000	0.018	0.102
-354.552	206.673	-0.150	0.230
-353.537	285.470	-0.136	-0.241
-352.523	346.911	0.074	0.144
-351.508	7.052	0.116	0.085
-350.493	43.090	-0.160	0.144
-349.479	-200.000	0.029	0.335
-348.464	18.347	-0.332	-0.262
-347.450	1.919	-0.229	-0.163
-346.435	215.298	0.158	-0.248
-345.420	248.738	0.173	-0.288
-344.406	-43.535	0.171	-0.085
-343.391	60.290	-0.141	0.137
-342.377	-5.377	0.237	-0.160
-341.362	8.870	-0.064	-0.048
-340.348	800.000	0.090	-0.350
-339.333	118.475	-0.134	-0.163
-338.318	110.371	-0.150	0.178
-337.304	247.320	0.159	0.264
-336.289	-155.286	-0.177	0.011
-335.275	248.799	0.163	-0.273
-334.260	218.181	0.061	0.096
-333.245	-5.490	0.128	-0.087
-332.231	-200.000	0.018	-0.100
-331.216	-6.832	-0.182	0.122
-330.202	-104.771	-0.518	0.117
-329.187	542.205	0.113	0.266
-328.172	-85.467	-0.134	0.041
-327.158	-113.762	0.472	0.091
-326.143	-200.000	0.014	0.076
-325.129	-1.093	-0.291	0.203
-324.114	86.222	-0.233	0.253
-323.099	76.547	-0.225	-0.235
-322.085	-119.595	-0.027	-0.005
-321.070	41.048	-0.141	-0.126
-320.056	-200.000	-0.011	-0.276
-319.041	-90.653	-0.196	0.056
-318.026	-200.000	0.004	-0.142
-317.012	344.338	0.157	0.302
-315.997	-132.955	-0.055	0.007
-314.983	-200.000	-0.004	0.215
-313.968	-28.723	0.208	0.118
-312.953	-104.805	0.021	0.005
-311.939	659.184	0.076	-0.194
-310.924	77.182	0.044	-0.046
-309.910	302.889	0.071	-0.130
-308.895	566.940	0.131	-0.314
-307.880	-200.000	-0.002	0.231
-306.866	-200.000	-0.023	-0.135
-305.851	-81.920	0.269	-0.087
-304.837	-37.722	0.275	-0.144
-303.822	338.665	-0.027	-0.052
-302.807	53.661	-0.161	-0.152
-301.793	800.000	0.005	0.017
-300.778	411.032	-0.061	0.127
-299.764	-111.753	0.450	-0.090
-298.749	-87.079	-0.250	0.075
-297.735	-33.815	-0.313	0.170
-296.720	124.270	-0.158	0.195
-295.705	10.000	0.130	0.097
-294.691	79.322	0.129	-0.137
-293.676	306.527	-0.110	0.202
-292.662	20.725	0.076	-0.061
-291.647	740.548	0.058	0.153
-290.632	60.574	-0.232	-0.227
-289.618	-77.882	0.363	-0.123
-288.603	-143.381	-0.307	0.029
-287.589	48.828	0.293	-0.270
-286.574	-69.455	0.199	-0.075
-285.559	-42.344	0.279	-0.140
-284.545	13.205	-0.128	-0.098
-283.530	-41.742	-0.074	0.037
-282.516	427.464	-0.157	0.333
-281.501	625.230	-0.111	0.274
-280.486	800.000	-0.157	-0.576
-279.472	654.761	0.073	-0.184
-278.457	518.801	-0.093	0.215
-277.443	-140.027	0.303	-0.031
-276.428	704.286	0.107	0.276
-275.413	-200.000	-0.006	0.198
-274.399	-200.000	-0.017	-0.077
-273.384	458.731	0.093	-0.203
-272.370	-23.415	-0.182	-0.107
-271.355	102.587	0.153	0.176
-270.340	-120.992	-0.195	-0.032
-269.326	158.082	-0.229	-0.312
-268.311	-28.456	0.168	0.095
-267.297	673.501	0.121	-0.308
-266.282	-200.000	-0.016	-0.224
-265.267	-115.672	0.094	-0.017
-264.253	-26.593	-0.208	-0.120
-263.238	-200.000	-0.242	0.000
-262.224	-165.428	0.055	0.002
-261.209	226.799	-0.033	0.053
-260.195	-200.000	-0.020	0.194
-259.180	-159.021	0.418	-0.023
-258.165	-96.750	0.183	-0.047
-257.151	800.000	0.034	0.124
-256.136	-200.000	-0.013	0.061
-255.122	-200.000	0.006	0.208
-254.107	142.070	0.127	0.165
-253.092	800.000	-0.044	-0.178
-252.078	-40.339	-0.050	0.025
-251.063	-46.478	-0.060	-0.029
-250.049	-106.499	0.293	0.064
-249.034	198.690	0.052	-0.079
-248.019	204.315	0.194	0.295
-247.005	287.078	-0.188	-0.333
-245.990	-200.000	0.007	0.131
-244.976	187.870	0.173	-0.254
-243.961	-169.344	0.307	0.011
-242.946	252.127	-0.163	-0.272
-241.932	630.091	0.125	-0.311
-240.917	-47.040	0.281	-0.134
-239.903	800.000	0.103	0.286
-238.888	-200.000	-0.001	-0.181
-237.873	-12.745	-0.051	0.032
-236.859	-126.924	0.017	0.002
-235.844	588.120	0.116	-0.280
-234.830	-133.871	0.193	-0.024
-233.815	-148.856	-0.065	0.005
-232.800	205.882	0.129	-0.196
-231.786	6.335	-0.193	0.140
-230.771	168.664	0.096	-0.134
-229.757	1.606	0.181	-0.128
-228.742	339.808	0.148	-0.283
-227.727	-200.000	-0.063	-0.310
-226.713	800.000	0.091	0.344
-225.698	206.097	0.151	-0.231
-224.684	800.000	0.049	0.166
-223.669	105.399	0.167	0.193
-222.655	-127.575	-0.184	0.026
-221.640	163.000	-0.035	0.048
-220.625	800.000	-0.054	-0.173
-219.611	-59.072	0.079	0.034
-218.596	-200.000	0.046	-0.239
-217.582	-200.000	-0.005	0.049
-216.567	272.533	-0.084	0.146
-215.552	171.495	0.241	0.339
-214.538	696.209	0.090	0.232
-213.523	38.529	-0.209	0.183
-212.509	194.821	-0.096	-0.143
-211.494	-19.169	0.150	-0.092
-210.479	-200.000	-0.021	0.094
-209.465	11.173	-0.172	-0.129
-208.450	-200.000	0.001	-0.187
-207.436	-48.038	0.245	0.116
-206.421	239.454	-0.045	-0.073
-205.406	111.702	0.083	0.098
-204.392	-200.000	-0.008	0.305
-203.377	264.416	0.133	0.227
-202.363	800.000	0.115	0.411
-201.348	-200.000	0.002	0.347
-200.333	-25.256	0.394	-0.228
-199.319	143.234	0.108	-0.140
-198.304	800.000	-0.044	0.163
-197.290	86.394	0.225	-0.243
-196.275	-29.278	0.060	0.034
-195.260	-44.066	0.302	0.149
-194.246	-72.638	0.181	0.066
-193.231	800.000	-0.082	-0.320
-192.217	51.489	-0.057	-0.053
-191.202	-49.021	-0.283	-0.133
-190.187	-200.000	-0.004	0.192
-189.173	366.301	0.115	-0.227
-188.158	-102.629	0.118	-0.028
-187.144	109.590	-0.121	0.143
-186.129	-200.000	-0.010	-0.091
-185.114	-36.819	-0.274	-0.144
-184.100	575.840	0.046	-0.110
-183.085	62.931	-0.070	-0.069
-182.071	-144.533	-0.271	-0.025
-181.056	-200.000	0.008	0.109
-180.042	-200.000	0.001	-0.161
-179.027	-62.649	0.062	0.025
-178.012	-200.000	-0.017	-0.111
-176.998	-73.691	0.130	-0.046
-175.983	-60.177	-0.365	-0.152
-174.969	-200.000	0.048	0.659
-173.954	146.001	-0.142	0.186
-172.939	71.634	0.071	0.073
-171.925	-190.463	0.177	-0.002
-170.910	243.721	-0.175	-0.287
-169.896	-200.000	-0.007	0.483
-168.881	800.000	0.037	0.156
-167.866	-161.658	-0.226	0.011
-166.852	-151.146	-0.414	0.030
-165.837	52.140	0.207	0.193
-164.823	110.042	0.106	0.124
-163.808	-44.669	-0.386	-0.189
-162.793	66.583	0.179	0.178
-161.779	800.000	-0.098	-0.350
-160.764	-200.000	-0.021	-0.312
-159.750	344.736	0.057	-0.109
-158.735	269.952	0.111	0.191
-157.720	90.857	-0.191	0.209
-156.706	-84.758	0.180	-0.055
-155.691	48.961	-0.068	-0.062
-154.677	81.740	-0.056	0.059
-153.662	-200.000	-0.012	0.148
-152.647	-35.906	0.364	0.193
-151.633	317.142	0.142	-0.263
-150.618	493.780	0.096	-0.216
-149.604	-107.447	0.277	0.059
-148.589	725.976	-0.039	0.102
-147.574	150.179	0.130	-0.173
-146.560	-200.000	-0.013	0.220
-145.545	-51.022	-0.272	-0.125
-144.531	-200.000	-0.044	0.214
-143.516	239.806	-0.199	-0.324
-142.502	-83.948	0.229	-0.071
-141.487	-200.000	-0.004	-0.041
-140.472	588.816	-0.107	-0.258
-139.458	-200.000	0.003	0.214
-138.443	-200.000	0.007	0.358
-137.429	-200.000	-0.076	0.494
-136.414	-104.262	-0.100	0.023
-135.399	309.142	-0.213	0.389
-134.385	193.245	-0.054	0.080
-133.370	436.168	-0.091	0.194
-132.356	-152.881	0.247	-0.017
-131.341	781.331	-0.065	-0.174
-130.326	-96.717	0.107	0.027
-129.312	-64.185	0.223	0.089
-128.297	-200.000	-0.001	0.076
-127.283	-120.290	-0.230	0.038
-126.268	-40.609	-0.161	-0.082
-125.253	-66.596	-0.265	0.103
-124.239	382.266	-0.149	-0.299
-123.224	-94.806	0.207	-0.055
-122.210	76.783	-0.196	-0.203
-121.195	-200.000	-0.056	0.482
-120.180	-200.000	0.025	-0.191
-119.166	229.789	0.042	0.067
-118.151	800.000	-0.034	-0.104
-117.137	272.916	0.027	0.046
-116.122	-135.992	0.077	0.009
-115.107	800.000	-0.076	-0.211
-114.093	436.573	-0.080	0.171
-113.078	78.032	0.371	0.386
-112.064	-200.000	-0.016	-0.153
-111.049	16.822	0.178	-0.138
-110.034	800.000	-0.062	0.252
-109.020	-200.000	-0.004	-0.166
-108.005	800.000	-0.065	0.197
-106.991	-200.000	-0.024	0.391
-105.976	795.449	-0.087	-0.234
-104.962	-129.682	-0.016	-0.002
-103.947	-126.250	-0.096	0.014
-102.932	532.411	0.035	0.082
-101.918	-106.397	0.156	0.034
-100.903	-98.638	-0.225	0.056
-99.889	-182.042	-0.336	0.006
-98.874	74.567	0.199	-0.204
-97.859	-200.000	-0.050	0.395
-96.845	-160.342	0.180	-0.009
-95.830	14.092	-0.262	-0.199
-94.816	-100.315	0.343	0.083
-93.801	81.218	-0.069	0.073
-92.786	29.519	0.215	0.179
-91.772	179.218	0.074	0.106
-90.757	119.147	0.213	-0.257
-89.743	-128.005	-0.227	-0.032
-88.728	-12.578	0.189	0.120
-87.713	-200.000	0.024	-0.201
-86.699	-38.672	0.342	0.176
-85.684	-43.519	-0.149	0.073
-84.670	-95.013	-0.337	-0.089
-83.655	-48.155	0.316	-0.149
-82.640	-200.000	-0.053	-0.274
-81.626	-114.046	0.260	0.049
-80.611	-200.000	0.018	-0.145
-79.597	393.550	0.127	-0.258
-78.582	89.715	-0.076	0.083
-77.567	69.921	0.065	-0.065
-76.553	-79.927	0.150	-0.049
-75.538	-184.694	0.211	-0.003
-74.524	204.416	0.053	0.081
-73.509	105.351	0.247	0.284
-72.494	16.939	-0.453	-0.350
-71.480	655.865	0.028	-0.071
-70.465	5.366	0.252	0.181
-69.451	-200.000	-0.049	0.229
-68.436	800.000	0.042	0.113
-67.422	167.575	-0.061	0.084
-66.407	24.924	-0.079	-0.064
-65.392	-200.000	-0.033	-0.144
-64.378	-59.335	-0.280	-0.117
-63.363	55.076	-0.168	0.158
-62.349	-200.000	-0.030	0.183
-61.334	88.485	-1.183	-1.281
-60.319	220.020	0.409	0.639
-59.305	590.538	-0.487	-1.171
-58.290	206.411	0.810	1.229
-57.276	221.187	0.647	1.012
-56.261	-200.000	125.613	651.978
-55.246	402.837	1585.093	3248.621
-54.232	140.555	2746.349	3534.015
-53.217	94.130	2191.967	2423.729
-52.203	33.784	1706.465	1446.668
-51.188	26.123	1523.908	1239.482
-50.173	24.254	1500.701	1207.904
-49.159	48.820	1571.662	1436.707
-48.144	45.668	1584.599	1426.568
-47.130	26.185	1533.669	1247.649
-46.115	23.415	1517.344	1215.355
-45.100	23.268	1513.583	1211.286
-44.086	23.258	1512.126	1210.003
-43.071	23.114	1510.445	1207.628
-42.057	23.105	1508.016	1205.575
-41.042	23.148	1506.567	1204.666
-40.027	23.184	1505.293	1203.839
-39.013	23.097	1503.817	1202.020
-37.998	23.223	1502.542	1201.809
-36.984	23.114	1501.972	1200.566
-35.969	23.138	1500.255	1199.312
-34.954	23.193	1498.447	1198.192
-33.940	23.099	1497.160	1196.476
-32.925	23.185	1495.950	1196.045
-31.911	23.169	1494.827	1194.994
-30.896	23.284	1493.340	1194.534
-29.881	23.360	1491.849	1193.804
-28.867	23.351	1490.007	1192.220
-27.852	23.340	1488.816	1191.143
-26.838	23.183	1487.791	1189.222
-25.823	23.208	1486.680	1188.459
-24.809	23.127	1484.753	1186.329
-23.794	23.234	1483.447	1185.950
-22.779	23.162	1482.137	1184.375
-21.765	23.196	1481.246	1183.848
-20.750	23.209	1479.807	1182.732
-19.736	23.224	1478.961	1182.109
-18.721	23.256	1477.682	1181.258
-17.706	23.188	1476.389	1179.724
-16.692	23.216	1475.471	1179.130
-15.677	23.210	1474.647	1178.381
-14.663	23.194	1473.640	1177.428
-13.648	23.141	1472.920	1176.449
-12.633	23.226	1471.766	1176.045
-11.619	23.166	1471.588	1175.462
-10.604	23.196	1470.193	1174.497
-9.590	23.009	1469.922	1172.992
-8.575	23.162	1468.477	1172.806
-7.560	23.182	1467.456	1172.082
-6.546	23.142	1466.832	1171.270
-5.531	23.207	1465.604	1170.671
-4.517	23.017	1465.131	1168.991
-3.502	23.143	1463.473	1168.457
-2.487	23.155	1462.971	1168.087
-1.473	23.112	1461.893	1166.896
-0.458	23.095	1460.720	1165.802
0.556	21.457	1450.661	1154.639
1.571	18.349	1426.446	1115.063
2.586	15.008	1364.474	1045.682
3.600	13.465	1280.766	972.382
4.615	12.523	1237.324	933.973
5.629	10.982	1180.559	882.690
6.644	5.415	1099.421	793.758
7.659	1.027	1062.421	745.419
8.673	0.320	1058.094	738.853
9.688	0.119	1055.329	735.875
10.702	0.143	1053.591	734.714
11.717	0.159	1051.074	732.973
12.731	2.017	1051.921	742.547
13.746	8.059	1060.515	778.120
14.761	14.197	1068.192	813.787
15.775	16.453	1071.214	827.069
16.790	16.402	1069.457	825.391
17.804	15.408	1067.465	818.931
18.819	14.632	1065.305	813.418
19.834	14.142	1064.091	810.038
20.848	13.850	1063.556	808.137
21.863	13.733	1062.596	806.765
22.877	13.400	1061.747	804.430
23.892	13.189	1060.581	802.449
24.907	13.052	1060.070	801.329
25.921	13.010	1059.610	800.708
26.936	13.322	1058.145	801.042
27.950	13.279	1057.622	800.365
28.965	13.314	1057.235	800.170
29.980	13.218	1056.386	798.993
30.994	13.227	1055.387	798.210
32.009	13.353	1054.518	798.089
33.023	13.418	1054.089	798.007
34.038	13.306	1053.554	796.994
35.053	13.248	1052.822	796.088
36.067	13.394	1051.319	795.584
37.082	13.409	1050.273	794.792
38.096	13.372	1049.498	793.960
39.111	13.449	1048.875	793.790
40.126	13.209	1048.453	792.248
41.140	13.443	1046.952	792.161
42.155	13.264	1046.112	790.601
43.169	13.153	1045.993	789.912
44.184	13.127	1044.498	788.587
45.199	13.153	1043.478	787.872
46.213	13.130	1042.355	786.847
47.228	13.299	1041.043	786.587
48.242	13.212	1040.318	785.557
49.257	13.287	1038.990	784.841
50.271	13.375	1038.209	784.601
51.286	13.246	1037.813	783.618
52.301	13.352	1036.674	783.193
53.315	13.312	1035.837	782.304
54.330	13.302	1034.923	781.493
55.344	13.326	1033.726	780.638
56.359	13.312	1032.867	779.851
57.374	13.328	1031.914	779.140
58.388	13.239	1031.410	778.272
59.403	13.177	1030.490	777.214
60.417	13.124	1029.728	776.321
61.432	13.076	1029.362	775.750
62.447	13.234	1028.287	775.616
63.461	13.184	1027.811	774.951
64.476	12.948	1027.294	773.390
65.490	13.229	1025.342	773.167
66.505	13.100	1025.019	772.249
67.520	13.162	1024.446	772.042
68.534	13.296	1023.212	771.668
69.549	13.184	1022.447	770.497
70.563	13.283	1021.840	770.433
71.578	13.217	1021.532	769.829
72.593	12.969	1020.651	767.942
73.607	13.142	1019.200	767.583
74.622	13.090	1018.334	766.622
75.636	13.154	1017.432	766.175
76.651	13.184	1016.678	765.678
77.666	13.088	1016.381	764.940
78.680	13.067	1015.183	763.876
79.695	12.977	1015.108	763.333
80.709	13.173	1014.195	763.483
81.724	13.252	1013.184	763.024
82.739	13.219	1012.236	762.089
83.753	13.220	1011.528	761.490
84.768	13.355	1010.665	761.395
85.782	13.388	1010.135	761.080
86.797	13.455	1009.380	760.754
87.812	13.310	1008.438	759.311
88.826	13.283	1007.984	758.775
89.841	13.396	1007.027	758.510
90.855	13.417	1005.993	757.757
91.870	13.339	1005.848	757.226
92.884	13.341	1005.094	756.598
93.899	13.443	1004.080	756.233
94.914	13.431	1003.546	755.712
95.928	13.467	1002.551	755.059
96.943	13.382	1001.938	754.142
97.957	13.453	1001.222	753.860
98.972	13.372	1000.465	752.855
99.987	13.392	999.435	752.107
101.001	13.407	998.701	751.555
102.016	13.379	998.043	750.866
103.030	13.339	997.233	750.009
104.045	13.417	996.074	749.423
105.060	13.492	994.852	748.776
106.074	13.332	994.145	747.456
107.089	13.316	993.474	746.815
108.103	13.300	992.436	745.893
109.118	13.246	991.656	744.997
110.133	13.254	991.057	744.518
111.147	13.186	990.119	743.443
112.162	13.273	988.631	742.650
113.176	13.212	988.465	742.184
114.191	13.441	987.088	742.111
115.206	13.420	986.306	741.364
116.220	13.341	985.576	740.400
117.235	13.366	984.619	739.724
118.249	13.279	984.031	738.828
119.264	13.232	983.346	738.041
120.279	13.302	982.088	737.340
121.293	13.219	981.498	736.464
122.308	13.283	980.382	735.845
123.322	13.433	979.453	735.751
124.337	13.282	978.486	734.287
125.352	13.195	977.560	733.144
126.366	13.333	976.557	732.937
127.381	13.175	975.652	731.495
128.395	13.247	974.227	730.678
129.410	13.283	973.335	730.105
130.424	13.307	972.517	729.531
131.439	13.287	971.386	728.531
132.454	13.225	970.833	727.779
133.468	13.288	969.947	727.325
134.483	13.451	969.132	727.367
135.497	13.209	969.224	726.310
136.512	13.386	967.993	726.102
137.527	13.259	967.457	725.077
138.541	13.207	966.367	723.969
139.556	13.225	965.661	723.454
140.570	13.524	964.630	723.923
141.585	13.352	964.146	722.743
142.600	13.583	962.919	722.771
143.614	13.469	962.585	721.956
144.629	13.384	962.192	721.228
145.643	13.588	961.135	721.261
146.658	13.461	960.182	719.930
147.673	13.485	959.503	719.462
148.687	13.461	958.834	718.791
149.702	13.426	958.056	717.992
150.716	13.415	956.740	716.896
151.731	13.378	956.222	716.285
152.746	13.296	955.846	715.584
153.760	13.512	954.696	715.591
154.775	13.503	953.547	714.629
155.789	13.476	953.006	714.043
156.804	13.619	952.070	713.897
157.819	13.582	951.939	713.574
158.833	13.572	950.942	712.720
159.848	13.646	950.318	712.510
160.862	13.698	949.110	711.764
161.877	13.663	948.793	711.314
162.892	13.587	948.102	710.407
163.906	13.512	947.287	709.410
164.921	13.536	946.479	708.844
165.935	13.633	945.321	708.330
166.950	13.776	944.164	708.012
167.964	13.677	943.647	707.137
168.979	13.639	942.779	706.264
169.994	13.567	941.783	705.150
171.008	13.704	940.816	704.946
172.023	13.637	939.938	703.939
173.037	13.847	939.023	704.082
174.052	13.728	938.537	703.151
175.067	13.694	938.097	702.616
176.081	13.729	937.286	702.094
177.096	13.573	936.723	700.949
178.110	13.638	935.636	700.349
179.125	13.763	934.537	699.995
180.140	13.967	933.390	699.933
181.154	13.849	933.134	699.181
182.169	13.728	932.880	698.418
183.183	13.764	932.338	698.103
184.198	13.905	931.187	697.773
185.213	13.937	930.463	697.302
186.227	13.935	930.411	697.191
187.242	13.909	929.784	696.550
188.256	13.953	928.749	695.899
189.271	14.042	927.783	695.488
190.286	13.951	927.383	694.745
191.300	13.828	926.962	693.854
192.315	13.939	925.826	693.405
193.329	13.874	924.978	692.437
194.344	13.747	924.755	691.681
195.359	13.838	924.244	691.615
196.373	13.858	923.685	691.221
197.388	13.866	923.061	690.724
198.402	14.028	922.548	690.955
199.417	14.097	922.017	690.780
200.432	14.092	921.489	690.305
201.446	14.135	921.008	690.059
202.461	14.176	920.913	690.099
203.475	14.181	920.124	689.468
204.490	14.221	919.336	688.980
205.504	14.342	917.827	688.289
206.519	14.101	917.716	687.150
207.534	14.201	917.463	687.312
208.548	14.143	916.470	686.270
209.563	14.081	915.694	685.372
210.577	14.164	914.955	685.097
211.592	14.285	914.196	684.969
212.607	14.182	914.259	684.529
213.621	14.403	913.189	684.579
214.636	14.263	912.904	683.726
215.650	14.401	911.766	683.380
216.665	14.336	911.130	682.576
217.680	14.277	910.982	682.166
218.694	14.420	910.255	682.143
219.709	14.486	909.608	681.869
220.723	14.445	908.859	681.078
221.738	14.412	908.327	680.487
222.753	14.435	907.620	679.990
223.767	14.389	907.277	679.486
224.782	14.524	906.341	679.273
225.796	14.660	905.224	678.931
226.811	14.428	905.160	677.877
227.826	14.520	904.276	677.532
228.840	14.496	903.418	676.732
229.855	14.400	902.937	675.920
230.869	14.391	902.288	675.337
231.884	14.563	901.403	675.312
232.899	14.474	900.581	674.278
233.913	14.499	899.927	673.831
234.928	14.529	899.226	673.364
235.942	14.407	898.998	672.643
236.957	14.540	898.337	672.626
237.972	14.648	897.264	672.200
238.986	14.426	896.798	670.897
240.001	14.429	896.213	670.411
241.015	14.582	895.125	670.153
242.030	14.575	894.545	669.630
243.045	14.528	894.169	669.101
244.059	14.578	893.441	668.697
245.074	14.534	893.102	668.206
246.088	14.720	892.135	668.171
247.103	14.716	891.577	667.678
248.117	14.719	891.042	667.230
249.132	14.752	890.674	667.026
250.147	14.845	889.843	666.717
251.161	14.761	889.235	665.865
252.176	14.847	888.511	665.607
253.190	14.854	887.922	665.136
254.205	14.841	887.341	664.589
255.220	14.986	886.540	664.506
256.234	14.945	886.204	664.032
257.249	14.972	885.280	663.388
258.263	15.020	884.999	663.309
259.278	14.971	884.091	662.378
260.293	14.984	883.640	662.033
261.307	14.997	883.393	661.839
262.322	15.121	882.536	661.629
263.336	15.174	881.886	661.294
264.351	15.290	881.401	661.327
265.366	15.102	880.641	659.958
266.380	15.200	879.831	659.680
267.395	15.116	879.497	659.038
268.409	15.259	878.168	658.546
269.424	15.211	877.821	658.038
270.439	15.289	876.990	657.664
271.453	15.243	876.482	657.045
272.468	15.233	875.579	656.271
273.482	15.100	875.462	655.604
274.497	15.171	874.710	655.260
275.512	15.189	873.755	654.557
276.526	15.295	872.721	654.138
277.541	15.272	872.674	653.956
278.555	15.450	871.595	653.785
279.570	15.287	871.607	653.101
280.585	15.292	870.985	652.594
281.599	15.400	870.449	652.555
282.614	15.357	869.717	651.781
283.628	15.507	868.950	651.731
284.643	15.522	868.277	651.229
285.657	15.598	868.033	651.280
286.672	15.367	867.742	650.111
287.687	15.510	866.652	649.792
288.701	15.577	866.110	649.585
289.716	15.523	865.934	649.186
290.730	15.434	865.444	648.416
291.745	15.469	864.679	647.924
292.760	15.586	863.770	647.636
293.774	15.602	863.427	647.383
294.789	15.689	862.571	647.020
295.803	15.545	862.072	646.034
296.818	15.547	861.304	645.407
297.833	15.699	860.591	645.399
298.847	15.725	860.098	645.074
299.862	15.718	858.868	644.065
300.876	15.642	858.711	643.602
301.891	15.640	858.006	643.008
302.906	15.773	857.561	643.125
303.920	15.807	856.754	642.594
304.935	15.905	855.943	642.302
305.949	15.853	855.903	642.018
306.964	15.906	854.951	641.450
307.979	15.893	854.120	640.720
308.993	15.899	853.939	640.550
310.008	15.864	853.421	639.970
311.022	16.030	852.538	639.882
312.037	15.857	852.583	639.201
313.052	15.971	851.487	638.756
314.066	15.796	851.255	637.862
315.081	15.950	850.506	637.830
316.095	15.861	849.996	637.051
317.110	15.946	849.507	636.950
318.125	15.970	849.099	636.681
319.139	15.920	848.410	635.920
320.154	15.895	847.821	635.326
321.168	15.976	847.197	635.108
322.183	15.955	846.653	634.563
323.197	16.077	846.212	634.636
324.212	15.985	845.974	634.057
325.227	16.021	844.844	633.289
326.241	16.011	844.820	633.175
327.256	16.017	844.312	632.761
328.270	16.076	843.590	632.386
329.285	15.980	842.862	631.426
330.300	16.005	842.251	631.007
331.314	15.960	842.093	630.662
332.329	15.894	841.610	629.998
333.343	16.108	840.471	629.888
334.358	16.048	839.976	629.237
335.373	16.199	839.274	629.219
336.387	16.170	838.868	628.754
337.402	16.163	838.314	628.255
338.416	16.261	837.747	628.138
339.431	16.368	837.151	628.035
340.446	16.262	836.785	627.311
341.460	16.329	835.983	626.903
342.475	16.357	835.212	626.371
343.489	16.346	835.436	626.445
344.504	16.358	834.601	625.809
345.519	16.347	833.969	625.239
346.533	16.475	833.123	625.021
347.548	16.485	832.862	624.807
348.562	16.474	832.326	624.309
349.577	16.406	832.073	623.814
350.592	16.545	831.177	623.598
351.606	16.286	831.088	622.522
352.621	16.408	830.475	622.458
353.635	16.361	830.342	622.130
354.650	16.373	829.743	621.669
355.665	16.345	829.305	621.183
356.679	16.692	828.483	621.789
357.694	16.651	828.021	621.236
358.708	16.471	827.640	620.233
359.723	16.653	826.873	620.273
360.738	16.661	826.487	619.955
361.752	16.612	826.023	619.373
362.767	16.531	825.896	618.926
363.781	16.682	825.095	618.826
364.796	16.782	824.657	618.807
365.810	16.670	824.517	618.237
366.825	16.605	824.142	617.664
367.840	16.745	823.609	617.722
368.854	16.782	823.156	617.460
369.869	16.827	822.486	617.067
370.883	16.796	822.259	616.730
371.898	16.782	821.313	615.916
372.913	16.701	820.906	615.261
373.927	16.811	820.161	615.048
374.942	16.826	819.745	614.734
375.956	16.789	819.021	614.003
376.971	16.878	818.516	613.895
377.986	17.011	817.811	613.792
379.000	16.927	817.165	612.948
380.015	17.060	816.798	613.101
381.029	17.073	816.077	612.552
382.044	17.074	815.609	612.148
383.059	16.988	815.209	611.485
384.073	17.008	814.803	611.198
385.088	16.936	814.219	610.446
386.102	16.969	813.815	610.209
387.117	16.953	813.486	609.852
388.132	17.104	812.244	609.410
389.146	17.176	811.835	609.305
390.161	17.106	811.559	608.795
391.175	16.975	811.637	608.329
392.190	17.037	811.195	608.167
393.205	17.075	810.765	607.926
394.219	17.109	810.153	607.534
395.234	17.133	809.586	607.141
396.248	17.222	808.856	606.859
397.263	16.991	808.894	606.006
398.278	17.196	807.988	606.006
399.292	17.109	807.446	605.238
400.307	17.250	807.208	605.506
401.321	17.125	807.226	605.021
402.336	17.150	806.787	604.727
403.350	17.141	806.397	604.349
404.365	17.179	805.591	603.828
405.380	17.224	805.584	603.927
406.394	17.209	805.023	603.400
407.409	17.405	804.213	603.435
408.423	17.427	803.628	603.023
409.438	17.425	803.561	602.910
410.453	17.326	803.046	602.121
411.467	17.421	802.610	602.075
412.482	17.455	802.021	601.701
413.496	17.564	801.750	601.831
414.511	17.514	801.330	601.287
415.526	17.507	800.853	600.848
416.540	17.587	800.195	600.584
417.555	17.522	800.353	600.421
418.569	17.488	799.414	599.545
419.584	17.583	798.916	599.450
420.599	17.529	798.809	599.128
421.613	113.583	1297.471	1486.883
422.628	97.883	1370.076	1486.981
