DTS Sentinel unit serial number:	SN413079Multiplexer serial number:	ORYXHardware model number:	OX4-SRSoftware version number:	ORYX F/W v4.00 Oryx Data Collector v3.7.2.0data status	okinstallation	princeton_trtdifferential loss correction	single-endedforward channel	channel 3reverse channel	N/Adate	2019/09/18time	16:28:35forward acquisition time	60.00reverse acquisition time	0.00gamma	496.2192k internal	0.2292k external	0.2292temperature offset calibration	0.9982default loss term (dB/km)	0.3790temperature slope calibration	1.0000multiplexer offset coefficient	1.0000multiplexer slope coefficient	1.0000fibre end	0.00T internal ref (°C)	39.12T ext. ref 1 (°C)	0.86T ext. ref 2 (°C)	36.33length (m)	temperature (°C)	Stokes	anti-Stokes-747.200	129.509	-0.074	0.096
-746.185	-45.602	0.299	0.152
-745.171	272.167	-0.145	-0.261
-744.156	574.127	0.023	0.057
-743.142	80.943	0.151	0.167
-742.127	12.452	0.167	0.132
-741.112	-169.396	-0.181	0.007
-740.098	800.000	0.035	0.153
-739.083	70.721	-0.053	-0.056
-738.069	150.270	0.165	0.230
-737.054	59.954	-0.065	0.066
-736.039	800.000	0.082	-0.331
-735.025	243.491	0.052	-0.089
-734.010	-76.697	-0.167	0.060
-732.996	-57.050	-0.224	0.101
-731.981	417.219	0.081	-0.176
-730.966	19.829	-0.146	-0.120
-729.952	-124.281	-0.449	0.072
-728.937	33.105	0.132	-0.117
-727.923	272.927	0.111	-0.200
-726.908	800.000	-0.099	0.358
-725.894	46.357	-0.302	0.287
-724.879	118.943	-0.116	0.147
-723.864	361.930	-0.075	0.153
-722.850	15.216	-0.117	-0.093
-721.835	46.175	-0.190	0.180
-720.821	96.621	-0.201	-0.235
-719.806	-200.000	-0.010	0.200
-718.791	6.515	0.123	-0.093
-717.777	-182.000	-0.091	0.002
-716.762	331.617	0.034	-0.068
-715.748	-200.000	-0.010	0.231
-714.733	9.016	0.174	0.134
-713.718	-15.992	0.337	-0.219
-712.704	-125.864	0.357	-0.055
-711.689	-200.000	-0.010	-0.075
-710.675	47.157	0.058	0.055
-709.660	-200.000	0.000	0.131
-708.645	-141.004	-0.366	0.038
-707.631	-114.977	0.121	-0.023
-706.616	-14.944	-0.064	-0.042
-705.602	800.000	-0.045	0.134
-704.587	31.209	0.173	-0.152
-703.572	800.000	-0.043	0.125
-702.558	-77.407	0.105	0.037
-701.543	-200.000	0.042	0.359
-700.529	125.381	-0.265	0.342
-699.514	800.000	-0.039	-0.132
-698.499	800.000	0.049	-0.143
-697.485	-200.000	-0.026	-0.265
-696.470	169.046	0.130	-0.190
-695.456	57.353	-0.250	0.250
-694.441	68.453	0.121	-0.127
-693.426	-200.000	-0.023	-0.289
-692.412	-49.906	-0.230	0.112
-691.397	-168.341	0.143	0.006
-690.383	25.723	-0.216	0.184
-689.368	-20.601	0.271	0.170
-688.354	-40.004	0.120	-0.064
-687.339	800.000	0.011	-0.038
-686.324	800.000	-0.040	-0.159
-685.310	-135.558	-0.278	0.034
-684.295	220.773	0.105	-0.172
-683.281	-171.720	-0.411	-0.014
-682.266	41.037	0.140	-0.129
-681.251	800.000	0.034	-0.107
-680.237	-124.860	-0.159	-0.025
-679.222	-88.164	-0.156	-0.048
-678.208	607.309	-0.040	-0.102
-677.193	-66.609	0.220	0.089
-676.178	70.919	-0.108	0.114
-675.164	-13.889	0.091	0.060
-674.149	-106.761	0.407	0.092
-673.135	-0.999	0.337	0.243
-672.120	494.927	-0.104	0.244
-671.105	-200.000	-0.003	-0.053
-670.091	-106.074	0.336	-0.077
-669.076	-200.000	-0.045	-0.226
-668.062	800.000	-0.108	-0.327
-667.047	-168.618	-0.264	0.010
-666.032	800.000	0.021	0.073
-665.018	-200.000	0.019	0.309
-664.003	-83.803	-0.034	-0.011
-662.989	-200.000	0.056	0.276
-661.974	341.872	-0.030	-0.060
-660.959	-122.420	-0.295	0.049
-659.945	-200.000	0.002	0.102
-658.930	-57.687	0.223	0.100
-657.916	116.299	0.113	-0.141
-656.901	-200.000	0.083	0.420
-655.886	-200.000	0.027	-0.125
-654.872	768.988	-0.039	0.108
-653.857	743.031	-0.082	-0.224
-652.843	-48.795	0.216	-0.106
-651.828	462.632	-0.119	0.271
-650.814	-200.000	-0.001	0.194
-649.799	227.612	0.077	-0.128
-648.784	12.190	0.215	0.169
-647.770	431.866	0.089	0.197
-646.755	-88.703	-0.144	0.044
-645.741	328.121	0.172	0.337
-644.726	-50.123	-0.251	-0.121
-643.711	341.945	0.111	0.222
-642.697	64.403	-0.107	0.109
-641.682	-194.607	0.169	-0.001
-640.668	159.751	-0.181	0.257
-639.653	800.000	-0.053	0.215
-638.638	-200.000	0.008	-0.089
-637.624	-200.000	0.009	-0.103
-636.609	-52.789	0.131	0.062
-635.595	153.205	-0.109	0.152
-634.580	800.000	0.111	0.372
-633.565	34.976	-0.207	-0.185
-632.551	215.036	0.160	-0.259
-631.536	800.000	0.030	0.105
-630.522	-16.597	0.222	0.143
-629.507	-149.462	0.120	-0.010
-628.492	92.039	-0.165	-0.189
-627.478	-174.545	-0.157	0.005
-626.463	69.530	0.126	-0.132
-625.449	74.864	-0.199	-0.213
-624.434	-33.716	-0.250	-0.141
-623.419	190.344	0.141	-0.216
-622.405	626.377	0.057	-0.147
-621.390	-65.002	0.142	0.058
-620.376	715.792	0.086	-0.233
-619.361	-99.606	0.337	-0.086
-618.346	7.789	0.197	-0.150
-617.332	148.699	-0.117	-0.161
-616.317	187.482	-0.100	0.152
-615.303	-151.832	-0.185	-0.014
-614.288	-80.528	-0.030	-0.010
-613.273	156.247	-0.147	-0.207
-612.259	-107.664	-0.336	0.075
-611.244	56.945	-0.130	-0.129
-610.230	800.000	0.017	0.070
-609.215	-168.001	0.398	0.016
-608.201	517.304	0.180	-0.428
-607.186	-200.000	-0.090	0.408
-606.171	-200.000	0.030	0.272
-605.157	352.186	-0.119	0.240
-604.142	675.701	-0.063	-0.167
-603.128	298.425	-0.093	-0.173
-602.113	-200.000	0.062	-0.339
-601.098	-22.428	0.023	-0.014
-600.084	365.233	0.073	-0.149
-599.069	765.437	0.098	0.270
-598.055	611.796	-0.024	0.062
-597.040	-200.000	-0.003	0.070
-596.025	-99.015	0.083	-0.022
-595.011	800.000	0.096	-0.298
-593.996	-116.444	0.147	-0.028
-592.982	-7.600	-0.154	0.106
-591.967	-200.000	0.040	-0.220
-590.952	-128.312	0.162	0.023
-589.938	83.955	0.108	-0.120
-588.923	15.422	-0.160	0.128
-587.909	59.946	-0.078	-0.078
-586.894	-200.000	0.055	0.250
-585.879	70.028	-0.249	0.262
-584.865	-123.997	0.204	0.033
-583.850	378.331	-0.002	-0.003
-582.836	141.154	-0.155	-0.209
-581.821	-89.021	0.211	-0.064
-580.806	102.045	0.151	-0.179
-579.792	-200.000	-0.041	0.312
-578.777	-145.361	-0.217	-0.020
-577.763	-200.000	0.018	0.113
-576.748	-28.071	0.270	-0.159
-575.733	191.376	0.051	-0.078
-574.719	168.777	0.186	0.269
-573.704	35.048	-0.110	0.098
-572.690	220.514	-0.050	-0.082
-571.675	800.000	-0.055	-0.227
-570.661	297.727	0.112	-0.210
-569.646	800.000	0.115	-0.440
-568.631	116.961	0.242	0.302
-567.617	105.418	0.243	-0.292
-566.602	19.904	-0.184	-0.150
-565.588	-200.000	-0.086	0.430
-564.573	55.658	0.029	0.029
-563.558	-9.824	-0.181	0.122
-562.544	-106.284	0.011	0.002
-561.529	388.816	0.132	0.277
-560.515	13.053	-0.325	0.256
-559.500	151.119	0.101	-0.139
-558.485	-192.053	-0.169	-0.002
-557.471	732.897	-0.134	-0.363
-556.456	-200.000	-0.017	-0.212
-555.442	220.216	-0.156	0.255
-554.427	-67.900	0.143	-0.057
-553.412	-86.856	0.194	0.060
-552.398	-124.232	-0.112	-0.018
-551.383	-85.304	0.332	-0.105
-550.369	-15.381	0.190	0.123
-549.354	194.039	-0.135	0.208
-548.339	89.900	-0.145	0.165
-547.325	40.296	0.121	-0.110
-546.310	41.006	-0.218	0.200
-545.296	11.807	0.237	-0.185
-544.281	-37.364	0.341	0.185
-543.266	384.108	-0.159	0.333
-542.252	-24.101	-0.383	-0.232
-541.237	-6.586	0.249	0.172
-540.223	-114.881	-0.042	-0.008
-539.208	-178.116	0.068	-0.002
-538.193	-74.676	0.177	-0.065
-537.179	-70.222	0.056	0.022
-536.164	333.003	-0.029	0.056
-535.150	-64.940	0.118	0.048
-534.135	-72.310	-0.043	-0.016
-533.121	-105.686	-0.240	0.055
-532.106	-200.000	0.012	0.324
-531.091	21.246	0.377	0.311
-530.077	-39.316	-0.308	-0.164
-529.062	-101.257	-0.318	0.079
-528.048	-200.000	0.009	-0.172
-527.033	800.000	-0.073	-0.252
-526.018	10.417	0.216	-0.167
-525.004	-140.440	-0.004	0.000
-523.989	-118.419	-0.227	0.041
-522.975	-63.455	-0.245	-0.102
-521.960	-79.634	-0.567	-0.194
-520.945	-67.950	0.112	0.044
-519.931	-17.193	0.260	-0.166
-518.916	-200.000	0.266	0.001
-517.902	58.086	0.048	0.047
-516.887	-57.733	-0.314	0.139
-515.872	14.945	0.361	-0.287
-514.858	800.000	-0.051	-0.179
-513.843	-115.177	0.188	0.036
-512.829	103.267	-0.148	-0.176
-511.814	-81.984	-0.223	-0.074
-510.799	218.658	0.203	0.328
-509.785	207.280	-0.122	-0.192
-508.770	-50.243	-0.194	-0.093
-507.756	-76.945	-0.200	-0.071
-506.741	-62.180	-0.101	0.043
-505.726	-200.000	0.067	-0.336
-504.712	-127.655	0.249	0.036
-503.697	-200.000	-0.020	0.219
-502.683	174.221	-0.151	0.221
-501.668	-4.955	0.101	0.071
-500.653	375.013	0.035	-0.072
-499.639	-99.626	-0.156	-0.040
-498.624	-200.000	-0.010	-0.054
-497.610	-200.000	0.011	0.374
-496.595	152.411	0.053	0.074
-495.581	49.747	-0.130	0.124
-494.566	-101.329	-0.127	-0.031
-493.551	-102.911	-0.181	-0.044
-492.537	-200.000	-0.016	0.167
-491.522	-111.864	-0.193	-0.039
-490.508	312.504	-0.038	-0.073
-489.493	148.678	-0.197	0.270
-488.478	-107.998	-0.074	0.016
-487.464	29.944	0.213	0.184
-486.449	-14.236	-0.183	0.120
-485.435	20.910	-0.297	-0.244
-484.420	-16.951	-0.491	-0.314
-483.405	211.810	0.275	-0.439
-482.391	-200.000	0.060	-0.390
-481.376	31.178	-0.184	-0.160
-480.362	800.000	0.058	-0.185
-479.347	800.000	-0.124	0.381
-478.332	581.452	-0.180	0.447
-477.318	-200.000	-0.011	0.264
-476.303	-121.578	-0.220	-0.037
-475.289	218.084	0.008	-0.012
-474.274	76.910	-0.010	0.011
-473.259	42.322	0.041	0.038
-472.245	-200.000	0.020	-0.227
-471.230	-128.531	-0.213	0.031
-470.216	-163.968	-0.337	-0.016
-469.201	4.670	-0.141	-0.105
-468.186	-162.616	0.310	0.015
-467.172	-200.000	-0.060	-0.444
-466.157	-107.315	-0.379	-0.084
-465.143	8.002	-0.226	0.172
-464.128	-115.575	0.121	0.023
-463.113	86.561	0.233	0.261
-462.099	-200.000	-0.033	0.167
-461.084	-98.513	0.348	-0.090
-460.070	-167.574	-0.187	0.008
-459.055	-50.980	0.234	0.111
-458.040	40.123	-0.198	-0.180
-457.026	-112.515	-0.135	-0.027
-456.011	-66.507	0.208	0.084
-454.997	12.688	-0.088	-0.069
-453.982	-200.000	0.060	0.409
-452.968	-43.329	0.270	-0.138
-451.953	-157.465	-0.293	0.018
-450.938	581.346	-0.046	-0.114
-449.924	38.599	-0.089	-0.080
-448.909	-92.925	0.052	0.015
-447.895	800.000	-0.048	0.136
-446.880	580.551	-0.066	0.163
-445.865	-200.000	0.024	0.234
-444.851	-76.666	0.148	0.052
-443.836	-69.817	0.231	-0.089
-442.822	408.652	0.101	0.215
-441.807	726.351	-0.122	-0.329
-440.792	-49.682	-0.170	0.082
-439.778	68.906	0.202	0.209
-438.763	5.419	0.351	-0.262
-437.749	-10.215	0.142	0.095
-436.734	-200.000	0.062	-0.327
-435.719	31.522	0.055	0.048
-434.705	-33.451	0.299	0.167
-433.690	-41.712	0.232	-0.121
-432.676	-200.000	-0.033	0.316
-431.661	-51.469	0.242	0.115
-430.646	70.593	-0.161	0.169
-429.632	285.879	-0.086	-0.156
-428.617	-105.876	0.058	0.013
-427.603	280.672	0.125	0.226
-426.588	312.790	0.130	-0.246
-425.573	165.770	0.101	-0.145
-424.559	-200.000	-0.031	-0.210
-423.544	-48.774	-0.093	0.045
-422.530	-200.000	0.073	0.465
-421.515	800.000	-0.045	-0.132
-420.500	-10.287	0.224	-0.150
-419.486	-115.077	0.163	-0.031
-418.471	-19.619	-0.154	-0.096
-417.457	-200.000	-0.040	0.207
-416.442	-29.328	-0.157	-0.091
-415.428	-50.735	-0.168	-0.080
-414.413	800.000	0.058	0.165
-413.398	338.669	-0.114	0.224
-412.384	-115.541	-0.261	0.050
-411.369	59.972	0.022	-0.022
-410.355	39.525	-0.257	-0.232
-409.340	-35.571	-0.248	0.136
-408.325	22.865	0.182	0.151
-407.311	-81.025	0.158	0.053
-406.296	86.210	-0.234	-0.260
-405.282	340.604	-0.172	-0.339
-404.267	-185.021	-0.067	-0.001
-403.252	-88.365	0.108	-0.033
-402.238	209.672	-0.129	-0.203
-401.223	-47.187	0.106	-0.052
-400.209	-118.340	0.257	-0.046
-399.194	504.553	-0.133	0.310
-398.179	800.000	0.140	-0.465
-397.165	-15.290	-0.156	-0.100
-396.150	800.000	-0.072	0.234
-395.136	-129.796	0.214	-0.030
-394.121	-200.000	-0.027	-0.140
-393.106	29.605	-0.435	-0.373
-392.092	-61.615	0.170	-0.072
-391.077	-200.000	0.016	-0.228
-390.063	244.435	-0.089	-0.151
-389.048	-111.993	0.182	-0.037
-388.033	191.511	-0.086	0.131
-387.019	-14.120	-0.212	-0.138
-386.004	479.375	0.098	-0.224
-384.990	-2.253	0.106	0.075
-383.975	-10.931	0.198	0.132
-382.960	800.000	0.073	0.265
-381.946	-200.000	0.032	-0.246
-380.931	-200.000	0.009	0.269
-379.917	3.492	-0.216	-0.159
-378.902	-12.723	0.060	0.039
-377.888	68.704	0.084	0.087
-376.873	205.555	0.104	-0.163
-375.858	-69.658	-0.256	-0.099
-374.844	571.119	-0.091	-0.225
-373.829	-118.396	-0.363	0.065
-372.815	-93.240	-0.311	-0.087
-371.800	800.000	0.043	0.173
-370.785	800.000	0.065	-0.246
-369.771	-200.000	-0.029	-0.241
-368.756	75.470	0.211	0.224
-367.742	-10.614	-0.148	-0.099
-366.727	-200.000	0.033	-0.399
-365.712	6.765	-0.104	-0.078
-364.698	-85.119	0.177	0.056
-363.683	-200.000	-0.023	0.317
-362.669	36.965	0.111	-0.099
-361.654	-200.000	0.084	-0.385
-360.639	-80.760	-0.382	-0.128
-359.625	92.960	-0.209	-0.238
-358.610	27.286	-0.249	-0.211
-357.596	-9.533	-0.123	0.083
-356.581	-81.708	-0.109	0.036
-355.566	-200.000	0.023	-0.127
-354.552	-104.353	0.098	0.023
-353.537	-200.000	0.005	-0.188
-352.523	-200.000	-0.008	0.053
-351.508	30.948	-0.204	-0.177
-350.493	-71.670	-0.125	-0.047
-349.479	106.506	0.146	0.175
-348.464	11.669	-0.154	-0.119
-347.450	-200.000	-0.016	0.291
-346.435	-79.686	-0.155	-0.053
-345.420	-50.038	0.087	-0.042
-344.406	-200.000	-0.032	0.189
-343.391	-4.250	0.282	-0.197
-342.377	-200.000	0.027	0.290
-341.362	-114.248	-0.154	-0.030
-340.348	-25.537	0.156	0.093
-339.333	118.968	0.166	0.207
-338.318	67.494	-0.228	-0.234
-337.304	-113.736	0.119	0.023
-336.289	-115.141	-0.337	-0.064
-335.275	334.300	-0.086	-0.167
-334.260	-94.391	0.212	-0.058
-333.245	-76.419	0.162	0.058
-332.231	-59.164	-0.183	0.080
-331.216	14.653	-0.226	0.178
-330.202	454.222	-0.083	-0.185
-329.187	-45.100	0.074	0.037
-328.172	277.650	-0.082	-0.147
-327.158	-200.000	-0.023	-0.361
-326.143	85.418	-0.136	-0.150
-325.129	106.430	-0.171	0.204
-324.114	424.723	-0.114	-0.247
-323.099	800.000	-0.059	-0.165
-322.085	-164.059	0.299	0.014
-321.070	261.822	-0.097	0.170
-320.056	-104.387	0.118	-0.028
-319.041	-65.107	0.237	0.096
-318.026	-5.031	-0.325	0.226
-317.012	-151.937	-0.107	0.008
-315.997	800.000	0.023	0.066
-314.983	200.024	0.232	0.359
-313.968	364.340	-0.053	0.107
-312.953	11.744	0.076	-0.059
-311.939	386.195	-0.021	-0.043
-310.924	800.000	0.051	-0.144
-309.910	7.069	-0.106	0.080
-308.895	249.164	0.245	0.418
-307.880	-52.727	-0.038	-0.018
-306.866	-76.803	-0.130	-0.046
-305.851	-200.000	-0.039	-0.190
-304.837	65.555	-0.202	-0.205
-303.822	-26.881	0.119	0.070
-302.807	107.662	-0.172	0.206
-301.793	357.259	0.105	0.211
-300.778	-13.907	0.231	0.150
-299.764	800.000	0.109	0.376
-298.749	247.326	0.195	-0.331
-297.735	-155.894	0.160	-0.010
-296.720	61.560	0.293	0.293
-295.705	-63.781	-0.033	0.014
-294.691	24.408	-0.197	0.164
-293.676	-200.000	-0.032	-0.203
-292.662	-123.273	0.116	-0.019
-291.647	-99.313	0.453	-0.115
-290.632	304.193	-0.213	-0.398
-289.618	-125.267	0.372	-0.057
-288.603	-200.000	-0.029	0.185
-287.589	163.760	0.291	0.411
-286.574	-200.000	0.340	0.002
-285.559	800.000	-0.162	-0.590
-284.545	443.580	0.097	0.213
-283.530	-200.000	-0.039	-0.241
-282.516	-145.473	0.241	0.022
-281.501	-42.739	-0.129	0.066
-280.486	800.000	-0.115	-0.483
-279.472	220.961	0.264	0.427
-278.457	800.000	0.022	-0.077
-277.443	-137.102	-0.035	0.004
-276.428	800.000	-0.049	-0.150
-275.413	-0.472	0.113	-0.080
-274.399	131.830	0.249	0.322
-273.384	-114.933	-0.289	-0.055
-272.370	-44.752	0.271	0.136
-271.355	-140.714	0.272	-0.028
-270.340	-159.700	0.233	-0.013
-269.326	-11.528	-0.160	-0.106
-268.311	-200.000	-0.010	-0.054
-267.297	11.454	-0.129	-0.099
-266.282	-96.943	-0.453	0.119
-265.267	-135.112	0.516	-0.062
-264.253	230.838	0.201	0.330
-263.238	141.951	-0.072	0.096
-262.224	129.919	0.156	0.200
-261.209	407.929	-0.082	-0.173
-260.195	155.248	0.154	-0.212
-259.180	-63.864	0.060	0.024
-258.165	-42.280	-0.130	0.067
-257.151	130.072	0.069	0.089
-256.136	124.780	-0.118	-0.149
-255.122	323.188	-0.094	0.180
-254.107	-200.000	-0.021	0.182
-253.092	-51.618	0.178	-0.084
-252.078	22.046	0.282	-0.231
-251.063	448.366	-0.024	0.052
-250.049	243.793	0.074	0.124
-249.034	-200.000	0.001	-0.141
-248.019	49.846	0.301	0.285
-247.005	148.024	0.168	0.227
-245.990	-2.021	0.188	-0.133
-244.976	-200.000	0.008	-0.052
-243.961	40.560	-0.173	-0.157
-242.946	-66.304	0.091	0.036
-241.932	800.000	0.046	0.174
-240.917	-128.663	0.211	-0.030
-239.903	367.879	0.149	-0.303
-238.888	-108.883	-0.388	0.083
-237.873	-67.892	0.305	0.120
-236.859	-36.159	-0.193	0.104
-235.844	-200.000	-0.009	-0.093
-234.830	-164.984	0.259	-0.012
-233.815	511.028	-0.166	-0.387
-232.800	33.724	0.353	0.308
-231.786	10.478	-0.071	0.054
-230.771	-200.000	-0.014	-0.091
-229.757	-200.000	-0.026	-0.411
-228.742	800.000	-0.033	0.107
-227.727	479.658	-0.087	0.197
-226.713	84.314	0.158	-0.173
-225.698	-7.674	0.079	0.053
-224.684	43.929	-0.116	-0.107
-223.669	99.700	-0.092	0.107
-222.655	60.202	-0.168	-0.166
-221.640	21.521	0.152	-0.124
-220.625	55.998	0.215	-0.209
-219.611	-90.340	-0.172	-0.050
-218.596	800.000	0.064	0.226
-217.582	-130.300	-0.166	0.023
-216.567	-200.000	-0.026	-0.190
-215.552	-200.000	0.014	0.140
-214.538	187.325	-0.181	0.270
-213.523	800.000	0.042	-0.122
-212.509	30.818	-0.244	0.209
-211.494	110.769	-0.082	-0.099
-210.479	105.113	-0.338	0.400
-209.465	240.676	0.110	-0.183
-208.450	-37.578	0.259	-0.139
-207.436	-90.701	-0.285	0.082
-206.421	43.638	-0.206	-0.189
-205.406	255.844	0.264	0.454
-204.392	-15.276	0.241	-0.154
-203.377	799.893	-0.108	0.299
-202.363	-200.000	-0.002	-0.115
-201.348	-75.296	0.145	-0.052
-200.333	54.645	0.120	0.116
-199.319	-200.000	-0.001	-0.254
-198.304	-64.306	0.263	-0.107
-197.290	91.945	0.254	-0.287
-196.275	-10.130	0.162	-0.108
-195.260	-170.505	-0.116	-0.004
-194.246	-200.000	0.085	0.418
-193.231	-200.000	-0.004	0.147
-192.217	-161.053	-0.141	0.007
-191.202	-122.123	-0.202	0.033
-190.187	755.859	0.049	0.132
-189.173	248.352	0.093	0.158
-188.158	800.000	0.102	-0.316
-187.144	21.125	-0.114	0.093
-186.129	800.000	0.066	0.218
-185.114	-200.000	-0.088	0.447
-184.100	419.604	-0.193	0.415
-183.085	2.046	-0.201	0.145
-182.071	-47.489	0.078	-0.038
-181.056	35.758	-0.110	0.097
-180.042	15.382	0.027	0.021
-179.027	-139.441	0.245	0.026
-178.012	-191.408	0.233	0.002
-176.998	-0.164	0.168	0.120
-175.983	-144.481	-0.287	-0.027
-174.969	800.000	-0.102	-0.346
-173.954	-30.695	-0.249	-0.141
-172.939	55.567	0.262	-0.254
-171.925	4.629	0.170	-0.125
-170.910	572.364	-0.061	0.149
-169.896	221.415	-0.148	0.238
-168.881	-200.000	0.008	0.186
-167.866	-129.437	0.296	0.041
-166.852	613.750	-0.082	0.206
-165.837	200.154	0.026	-0.041
-164.823	106.038	0.067	0.079
-163.808	-23.800	-0.044	0.026
-162.793	8.678	-0.296	-0.223
-161.779	136.593	0.047	-0.061
-160.764	-111.883	-0.130	0.026
-159.750	7.126	-0.169	-0.126
-158.735	-50.579	-0.085	0.040
-157.720	800.000	0.087	0.323
-156.706	16.695	-0.308	0.243
-155.691	-200.000	-0.028	0.213
-154.677	800.000	0.084	-0.271
-153.662	147.797	-0.190	0.257
-152.647	-44.353	-0.216	0.108
-151.633	-127.467	0.251	-0.037
-150.618	-34.459	0.130	0.071
-149.604	-11.910	-0.024	0.016
-148.589	92.507	0.033	-0.037
-147.574	-136.176	-0.198	0.023
-146.560	-119.640	-0.152	-0.026
-145.545	-118.577	-0.061	0.011
-144.531	-113.427	0.206	0.040
-143.516	-132.148	-0.304	0.039
-142.502	67.329	-0.125	0.128
-141.487	62.391	-0.195	-0.195
-140.472	52.096	-0.200	0.191
-139.458	120.943	-0.084	0.105
-138.443	18.270	0.098	0.078
-137.429	-200.000	-0.078	0.368
-136.414	-200.000	0.003	-0.089
-135.399	442.169	0.165	0.361
-134.385	-118.979	-0.358	-0.063
-133.370	-0.418	-0.106	0.075
-132.356	-28.066	-0.076	-0.044
-131.341	78.066	-0.044	0.046
-130.326	91.956	0.137	-0.154
-129.312	455.949	-0.045	0.100
-128.297	1.973	-0.034	-0.025
-127.283	207.982	0.033	0.051
-126.268	800.000	0.009	0.033
-125.253	-200.000	0.087	0.428
-124.239	-147.223	0.127	0.011
-123.224	-9.598	-0.162	0.108
-122.210	800.000	0.011	0.047
-121.195	615.928	-0.053	-0.133
-120.180	-63.015	-0.127	0.052
-119.166	68.187	0.122	0.125
-118.151	307.251	0.124	-0.231
-117.137	397.978	0.050	0.105
-116.122	169.982	0.195	0.279
-115.107	-31.093	0.129	-0.073
-114.093	-92.585	0.223	0.062
-113.078	406.158	0.164	0.345
-112.064	-200.000	-0.060	-0.361
-111.049	-125.697	-0.089	-0.014
-110.034	53.645	0.048	-0.046
-109.020	-200.000	0.066	-0.375
-108.005	122.913	0.192	-0.240
-106.991	54.359	-0.209	0.201
-105.976	-70.052	0.269	0.102
-104.962	800.000	-0.072	0.211
-103.947	-117.154	0.469	0.085
-102.932	86.676	-0.039	-0.043
-101.918	-11.052	0.061	-0.040
-100.903	-192.675	0.209	0.002
-99.889	-200.000	-0.005	0.028
-98.874	-15.300	0.116	0.074
-97.859	-200.000	-0.005	-0.302
-96.845	-200.000	0.006	-0.219
-95.830	-152.210	0.011	-0.001
-94.816	800.000	-0.066	0.197
-93.801	33.620	0.068	-0.059
-92.786	22.023	-0.130	0.105
-91.772	-83.145	-0.257	0.083
-90.757	-130.835	0.251	-0.034
-89.743	-83.029	0.312	-0.100
-88.728	-171.401	0.147	0.005
-87.713	30.631	-0.117	0.100
-86.699	-44.357	-0.234	-0.117
-85.684	-200.000	-0.035	-0.256
-84.670	-91.257	-0.098	0.028
-83.655	490.956	-0.095	0.216
-82.640	204.316	-0.105	-0.162
-81.626	-27.102	-0.203	0.118
-80.611	-59.443	-0.192	0.082
-79.597	-131.592	0.229	-0.030
-78.582	8.073	0.060	-0.045
-77.567	-157.305	0.224	0.013
-76.553	-107.986	0.278	-0.060
-75.538	6.141	-0.213	-0.157
-74.524	211.998	-0.091	0.143
-73.509	800.000	0.060	0.188
-72.494	-108.721	0.146	0.031
-71.480	-126.658	-0.305	0.045
-70.465	-14.454	0.299	-0.192
-69.451	437.321	-0.043	-0.093
-68.436	-200.000	-0.004	-0.170
-67.422	-175.504	0.198	-0.005
-66.407	384.226	0.068	-0.141
-65.392	-200.000	0.013	0.082
-64.378	800.000	0.066	0.225
-63.363	-140.364	-0.328	0.034
-62.349	74.788	-0.110	0.116
-61.334	-39.550	-0.820	-0.428
-60.319	-145.102	-0.030	-0.003
-59.305	434.819	-0.413	-0.895
-58.290	327.815	0.539	1.030
-57.276	336.204	0.800	1.547
-56.261	-200.000	78.018	508.056
-55.246	482.053	1363.767	3085.595
-54.232	140.919	2614.220	3442.130
-53.217	110.977	2287.537	2743.258
-52.203	49.198	1808.955	1693.510
-51.188	42.326	1607.775	1455.474
-50.173	39.869	1578.006	1410.937
-49.159	55.283	1617.739	1558.125
-48.144	60.016	1638.028	1611.833
-47.130	42.888	1599.525	1451.833
-46.115	39.492	1584.645	1413.943
-45.100	39.328	1580.918	1409.389
-44.086	39.210	1579.165	1406.924
-43.071	39.089	1577.414	1404.443
-42.057	39.147	1575.389	1403.000
-41.042	39.168	1573.988	1401.848
-40.027	39.098	1572.643	1400.098
-39.013	39.131	1570.446	1398.318
-37.998	39.082	1569.720	1397.269
-36.984	39.097	1568.262	1396.021
-35.969	39.089	1567.060	1394.836
-34.954	39.173	1565.905	1394.352
-33.940	39.153	1564.554	1392.951
-32.925	39.127	1562.731	1391.089
-31.911	39.068	1561.289	1389.336
-30.896	39.197	1559.593	1388.676
-29.881	39.255	1558.242	1387.834
-28.867	39.210	1557.185	1386.517
-27.852	39.174	1555.923	1385.086
-26.838	39.166	1554.495	1383.705
-25.823	39.267	1552.186	1382.305
-24.809	39.207	1550.407	1380.241
-23.794	39.161	1549.045	1378.653
-22.779	39.161	1548.105	1377.759
-21.765	39.181	1546.920	1376.794
-20.750	39.237	1545.023	1375.437
-19.736	39.209	1544.689	1374.892
-18.721	39.199	1543.292	1373.522
-17.706	39.126	1542.135	1371.929
-16.692	39.082	1541.437	1370.946
-15.677	39.207	1539.749	1370.261
-14.663	39.035	1538.976	1368.320
-13.648	39.033	1537.728	1367.146
-12.633	39.032	1536.677	1366.148
-11.619	39.091	1536.505	1366.352
-10.604	39.131	1534.993	1365.232
-9.590	39.040	1534.493	1364.100
-8.575	39.116	1533.136	1363.366
-7.560	39.089	1532.210	1362.303
-6.546	38.977	1531.808	1361.112
-5.531	39.002	1530.958	1360.482
-4.517	39.033	1529.760	1359.577
-3.502	39.024	1528.584	1358.415
-2.487	39.027	1527.873	1357.745
-1.473	39.012	1526.543	1356.411
-0.458	39.139	1524.959	1355.823
0.556	38.449	1516.248	1347.840
1.571	36.249	1489.254	1308.817
2.586	32.162	1423.002	1223.921
3.600	28.838	1333.444	1126.461
4.615	25.645	1282.112	1064.149
5.629	20.862	1221.628	986.831
6.644	10.641	1128.856	858.037
7.659	2.495	1081.810	780.798
8.673	1.036	1075.712	768.923
9.688	0.827	1072.990	765.856
10.702	0.870	1071.532	764.963
11.717	0.697	1069.702	762.718
12.731	3.183	1072.667	777.333
13.746	11.639	1084.180	828.629
14.761	17.475	1091.546	863.891
15.775	17.716	1090.657	864.331
16.790	17.158	1088.539	859.752
17.804	15.882	1086.819	851.866
18.819	15.093	1084.482	845.975
19.834	14.551	1083.186	842.149
20.848	14.336	1081.501	839.682
21.863	14.109	1080.822	837.940
22.877	13.723	1080.560	835.718
23.892	13.622	1079.408	834.244
24.907	13.493	1078.624	832.912
25.921	13.528	1077.719	832.319
26.936	13.615	1077.480	832.495
27.950	13.605	1076.450	831.579
28.965	13.544	1076.124	830.943
29.980	13.656	1074.725	830.352
30.994	13.748	1073.871	830.078
32.009	13.812	1073.118	829.745
33.023	13.731	1072.624	828.885
34.038	13.795	1071.439	828.214
35.053	13.712	1070.904	827.314
36.067	13.733	1069.871	826.548
37.082	13.551	1069.380	825.186
38.096	13.634	1068.510	824.855
39.111	13.703	1067.349	824.232
40.126	13.682	1066.416	823.334
41.140	13.738	1065.439	822.786
42.155	13.717	1064.269	821.703
43.169	13.563	1063.594	820.348
44.184	13.497	1062.617	819.196
45.199	13.412	1061.807	818.075
46.213	13.507	1060.672	817.598
47.228	13.507	1059.446	816.581
48.242	13.520	1058.635	815.947
49.257	13.556	1057.596	815.254
50.271	13.653	1056.388	814.725
51.286	13.593	1055.382	813.585
52.301	13.604	1054.520	812.903
53.315	13.670	1053.667	812.494
54.330	13.589	1052.885	811.424
55.344	13.643	1051.834	810.805
56.359	13.520	1050.882	809.400
57.374	13.593	1050.118	809.098
58.388	13.632	1048.907	808.284
59.403	13.563	1048.623	807.657
60.417	13.454	1048.190	806.717
61.432	13.417	1047.384	805.845
62.447	13.483	1046.280	805.245
63.461	13.458	1045.226	804.244
64.476	13.503	1044.327	803.699
65.490	13.368	1043.552	802.376
66.505	13.391	1042.739	801.791
67.520	13.345	1042.220	801.100
68.534	13.440	1040.664	800.292
69.549	13.445	1040.396	800.037
70.563	13.568	1039.370	799.774
71.578	13.437	1038.906	798.715
72.593	13.513	1037.828	798.180
73.607	13.420	1036.641	796.748
74.622	13.436	1036.045	796.298
75.636	13.398	1035.182	795.379
76.651	13.345	1034.238	794.329
77.666	13.384	1033.443	793.838
78.680	13.479	1032.806	793.731
79.695	13.409	1032.408	793.021
80.709	13.378	1031.842	792.368
81.724	13.374	1030.964	791.605
82.739	13.433	1030.308	791.315
83.753	13.462	1029.460	790.731
84.768	13.543	1028.855	790.580
85.782	13.547	1028.003	789.877
86.797	13.598	1027.278	789.493
87.812	13.652	1026.082	788.762
88.826	13.640	1024.689	787.564
89.841	13.510	1024.189	786.492
90.855	13.529	1023.625	786.080
91.870	13.609	1022.843	785.790
92.884	13.635	1021.976	785.174
93.899	13.720	1021.403	785.069
94.914	13.638	1020.581	783.978
95.928	13.782	1019.825	784.010
96.943	13.676	1019.185	782.946
97.957	13.644	1018.344	782.083
98.972	13.640	1017.580	781.405
99.987	13.673	1016.687	780.805
101.001	13.613	1016.087	779.995
102.016	13.575	1015.208	779.071
103.030	13.617	1014.424	778.599
104.045	13.722	1013.082	777.991
105.060	13.701	1011.952	776.960
106.074	13.622	1011.055	775.832
107.089	13.525	1010.405	774.808
108.103	13.618	1009.219	774.266
109.118	13.493	1008.508	773.070
110.133	13.447	1007.741	772.200
111.147	13.555	1006.733	771.860
112.162	13.610	1006.103	771.566
113.176	13.481	1005.432	770.382
114.191	13.583	1004.477	770.057
115.206	13.480	1003.355	768.647
116.220	13.551	1002.497	768.252
117.235	13.608	1001.837	767.942
118.249	13.617	1001.126	767.374
119.264	13.561	999.741	765.984
120.279	13.528	999.235	765.378
121.293	13.600	997.913	764.630
122.308	13.567	997.533	764.120
123.322	13.462	996.619	762.865
124.337	13.524	995.519	762.242
125.352	13.571	994.381	761.520
126.366	13.479	993.917	760.674
127.381	13.590	992.026	759.668
128.395	13.676	991.153	759.327
129.410	13.520	990.497	758.041
130.424	13.541	989.604	757.386
131.439	13.561	988.657	756.690
132.454	13.707	988.061	756.833
133.468	13.686	987.189	756.002
134.483	13.741	986.572	755.710
135.497	13.720	985.787	754.948
136.512	13.705	984.875	754.114
137.527	13.810	983.679	753.609
138.541	13.732	983.058	752.711
139.556	13.612	982.834	751.927
140.570	13.672	982.380	751.789
141.585	13.746	981.399	751.307
142.600	13.698	980.725	750.507
143.614	13.836	979.524	750.146
144.629	13.744	978.979	749.246
145.643	13.912	977.887	749.101
146.658	13.815	976.852	747.806
147.673	13.712	975.941	746.577
148.687	13.754	975.285	746.197
149.702	13.832	974.122	745.592
150.716	13.701	973.670	744.593
151.731	13.534	973.023	743.283
152.746	13.685	971.820	742.974
153.760	13.698	970.875	742.246
154.775	13.799	970.397	742.265
155.789	13.857	969.581	741.835
156.804	13.806	968.885	741.010
157.819	13.906	968.103	740.792
158.833	13.831	967.487	739.919
159.848	13.814	966.782	739.240
160.862	13.887	966.546	739.318
161.877	13.776	965.417	737.896
162.892	13.912	964.544	737.769
163.906	13.864	963.713	736.856
164.921	13.656	962.946	735.282
165.935	13.828	961.550	734.911
166.950	13.800	960.949	734.260
167.964	13.852	960.021	733.720
168.979	13.813	958.938	732.654
169.994	13.877	957.706	731.928
171.008	13.961	956.928	731.640
172.023	13.866	956.453	730.794
173.037	13.921	955.818	730.485
174.052	13.995	954.584	729.805
175.067	13.931	953.845	728.893
176.081	13.990	953.382	728.735
177.096	14.006	952.349	727.952
178.110	13.881	951.520	726.703
179.125	13.876	951.098	726.297
180.140	13.789	950.120	725.107
181.154	13.797	949.786	724.823
182.169	14.043	948.967	725.204
183.183	14.037	947.993	724.372
184.198	14.038	947.431	723.881
185.213	14.178	946.548	723.752
186.227	14.108	945.885	722.876
187.242	13.982	945.924	722.295
188.256	14.119	945.236	722.299
189.271	14.194	944.548	722.036
190.286	14.211	943.582	721.308
191.300	14.048	942.966	720.069
192.315	14.061	942.047	719.360
193.329	13.924	941.523	718.302
194.344	13.929	940.788	717.699
195.359	14.052	940.061	717.610
196.373	14.064	939.521	717.189
197.388	14.117	938.906	716.885
198.402	14.156	938.415	716.612
199.417	14.234	938.120	716.660
200.432	14.229	937.482	716.086
201.446	14.308	936.960	715.968
202.461	14.385	936.081	715.559
203.475	14.407	935.970	715.507
204.490	14.390	935.423	714.955
205.504	14.385	934.430	714.110
206.519	14.374	933.846	713.555
207.534	14.385	933.048	712.926
208.548	14.253	932.568	711.930
209.563	14.366	931.685	711.680
210.577	14.401	930.646	710.970
211.592	14.330	929.953	710.076
212.607	14.440	929.687	710.278
213.621	14.426	929.049	709.669
214.636	14.333	928.014	708.420
215.650	14.391	927.704	708.369
216.665	14.546	926.943	708.380
217.680	14.570	926.315	707.941
218.694	14.588	925.678	707.468
219.709	14.538	925.635	707.160
220.723	14.484	925.085	706.447
221.738	14.449	924.463	705.763
222.753	14.483	923.805	705.344
223.767	14.560	922.883	704.901
224.782	14.755	921.455	704.570
225.796	14.619	921.035	703.612
226.811	14.648	920.224	703.053
227.826	14.703	919.556	702.714
228.840	14.603	919.258	702.003
229.855	14.659	918.449	701.557
230.869	14.728	917.510	701.067
231.884	14.619	917.056	700.201
232.899	14.675	915.935	699.519
233.913	14.583	915.421	698.678
234.928	14.730	914.472	698.507
235.942	14.675	913.878	697.763
236.957	14.604	913.350	697.001
237.972	14.678	912.505	696.606
238.986	14.647	912.094	696.099
240.001	14.710	911.466	695.822
241.015	14.731	910.670	695.239
242.030	14.760	910.314	695.025
243.045	14.801	909.649	694.627
244.059	14.831	908.526	693.834
245.074	14.888	908.064	693.653
246.088	14.823	907.294	692.734
247.103	14.907	907.064	692.848
248.117	14.745	906.552	691.722
249.132	14.873	905.832	691.643
250.147	14.949	905.429	691.589
251.161	14.942	904.546	690.823
252.176	15.049	903.891	690.703
253.190	15.071	902.806	689.904
254.205	15.031	902.365	689.340
255.220	15.125	902.050	689.428
256.234	15.114	901.376	688.805
257.249	15.223	900.358	688.413
258.263	15.299	900.117	688.480
259.278	15.159	899.881	687.666
260.293	15.184	898.825	686.901
261.307	15.236	898.242	686.608
262.322	15.343	897.606	686.496
263.336	15.386	896.875	686.053
264.351	15.294	896.453	685.293
265.366	15.399	895.607	685.016
266.380	15.385	894.930	684.380
267.395	15.384	894.275	683.814
268.409	15.412	893.845	683.539
269.424	15.329	892.848	682.378
270.439	15.447	892.363	682.429
271.453	15.437	891.600	681.741
272.468	15.229	890.900	680.303
273.482	15.334	890.241	680.167
274.497	15.414	889.424	679.804
275.512	15.355	889.031	679.204
276.526	15.327	888.220	678.413
277.541	15.497	887.290	678.331
278.555	15.560	887.138	678.408
279.570	15.612	886.245	677.873
280.585	15.525	885.725	677.068
281.599	15.590	885.269	676.919
282.614	15.529	884.314	675.883
283.628	15.520	883.986	675.537
284.643	15.498	883.473	674.997
285.657	15.474	882.747	674.285
286.672	15.618	882.468	674.590
287.687	15.432	881.881	673.335
288.701	15.522	881.401	673.271
289.716	15.628	881.213	673.495
290.730	15.676	880.054	672.741
291.745	15.633	879.484	672.072
292.760	15.602	878.611	671.221
293.774	15.680	878.236	671.187
294.789	15.818	877.510	671.122
295.803	15.820	877.080	670.743
296.818	15.653	876.458	669.544
297.833	15.651	875.662	668.870
298.847	15.792	874.775	668.694
299.862	15.801	873.967	668.050
300.876	15.765	873.510	667.501
301.891	15.816	872.714	667.033
302.906	15.851	872.458	666.919
303.920	15.876	871.841	666.487
304.935	15.937	870.797	665.872
305.949	16.020	870.212	665.693
306.964	15.919	870.049	665.109
307.979	15.951	869.079	664.437
308.993	15.887	868.608	663.766
310.008	15.902	868.182	663.439
311.022	16.068	867.500	663.514
312.037	16.170	866.915	663.410
313.052	16.162	866.545	663.036
314.066	16.059	865.604	661.851
315.081	16.064	865.194	661.501
316.095	16.057	864.611	660.969
317.110	16.008	864.372	660.533
318.125	16.051	863.579	660.037
319.139	15.950	863.056	659.185
320.154	16.074	862.505	659.192
321.168	16.091	861.597	658.505
322.183	16.023	861.293	657.950
323.197	16.127	860.814	657.929
324.212	16.164	860.352	657.663
325.227	16.150	859.835	657.157
326.241	16.164	859.288	656.735
327.256	16.144	858.590	656.065
328.270	16.230	858.113	655.975
329.285	16.198	857.618	655.417
330.300	16.166	856.986	654.751
331.314	16.256	856.208	654.445
332.329	16.209	855.831	653.920
333.343	16.330	854.822	653.558
334.358	16.350	854.426	653.276
335.373	16.352	853.962	652.870
336.387	16.388	853.341	652.478
337.402	16.436	852.799	652.190
338.416	16.331	852.679	651.635
339.431	16.283	852.146	650.983
340.446	16.407	850.967	650.505
341.460	16.345	850.788	650.072
342.475	16.472	849.902	649.823
343.489	16.423	849.741	649.455
344.504	16.622	849.047	649.632
345.519	16.599	848.556	649.110
346.533	16.530	848.154	648.480
347.548	16.650	847.348	648.267
348.562	16.576	846.980	647.643
349.577	16.671	846.026	647.222
350.592	16.624	846.054	647.004
351.606	16.527	845.088	645.841
352.621	16.693	844.772	646.173
353.635	16.544	844.543	645.374
354.650	16.554	844.343	645.203
355.665	16.526	843.780	644.607
356.679	16.584	843.184	644.315
357.694	16.764	842.600	644.497
358.708	16.680	841.979	643.647
359.723	16.789	841.278	643.469
360.738	16.953	840.275	643.266
361.752	16.593	840.397	641.936
362.767	16.724	840.103	642.151
363.781	16.807	839.526	641.968
364.796	16.773	839.035	641.407
365.810	16.938	838.247	641.372
366.825	16.828	838.190	640.855
367.840	17.039	837.668	641.200
368.854	16.988	836.898	640.360
369.869	16.910	836.692	639.849
370.883	16.876	836.350	639.404
371.898	16.942	835.260	638.761
372.913	16.858	834.807	638.044
373.927	17.124	834.135	638.474
374.942	16.881	833.800	637.247
375.956	17.004	833.087	637.109
376.971	17.034	832.669	636.847
377.986	17.061	832.093	636.450
379.000	17.229	831.481	636.554
380.015	17.154	830.956	635.813
381.029	17.077	830.605	635.202
382.044	17.220	829.949	635.179
383.059	17.139	829.295	634.321
384.073	17.186	828.724	634.002
385.088	17.238	828.211	633.749
386.102	17.250	827.759	633.391
387.117	17.208	827.015	632.608
388.132	17.126	826.831	632.107
389.146	17.090	826.225	631.455
390.161	17.222	826.003	631.719
391.175	17.316	825.235	631.423
392.190	17.246	825.301	631.160
393.205	17.296	824.430	630.624
394.219	17.274	824.049	630.195
395.234	17.183	823.737	629.562
396.248	17.069	823.407	628.831
397.263	17.214	822.637	628.726
398.278	17.260	822.071	628.407
399.292	17.260	821.620	628.007
400.307	17.207	821.255	627.475
401.321	17.373	821.018	627.853
402.336	17.333	820.555	627.295
403.350	17.429	819.787	627.008
404.365	17.351	819.616	626.534
405.380	17.401	819.100	626.266
406.394	17.392	818.469	625.695
407.409	17.437	818.239	625.629
408.423	17.400	817.976	625.236
409.438	17.557	817.026	625.033
410.453	17.644	816.647	625.007
411.467	17.624	816.525	624.784
412.482	17.548	816.074	624.105
413.496	17.640	815.241	623.748
414.511	17.496	815.235	623.165
415.526	17.619	814.863	623.275
416.540	17.548	814.592	622.752
417.555	17.735	813.729	622.719
418.569	17.885	812.807	622.508
419.584	17.797	812.492	621.891
420.599	17.640	812.043	620.917
421.613	95.604	1271.096	1394.067
422.628	82.110	1338.010	1394.209
