DTS Sentinel unit serial number:	SN413079Multiplexer serial number:	ORYXHardware model number:	OX4-SRSoftware version number:	ORYX F/W v4.00 Oryx Data Collector v3.7.2.0data status	okinstallation	princeton_trtdifferential loss correction	single-endedforward channel	channel 3reverse channel	N/Adate	2019/09/11time	10:02:11forward acquisition time	60.00reverse acquisition time	0.00gamma	496.2192k internal	0.2301k external	0.2301temperature offset calibration	0.9940default loss term (dB/km)	0.3790temperature slope calibration	1.0000multiplexer offset coefficient	1.0000multiplexer slope coefficient	1.0000fibre end	0.00T internal ref (°C)	35.44T ext. ref 1 (°C)	0.14T ext. ref 2 (°C)	32.69length (m)	temperature (°C)	Stokes	anti-Stokes-747.200	-42.806	0.113	-0.059
-746.185	581.714	-0.050	0.125
-745.171	-131.297	-0.060	-0.008
-744.156	-200.000	-0.011	0.439
-743.142	-85.854	-0.065	0.021
-742.127	70.527	-0.167	0.176
-741.112	267.136	-0.017	-0.031
-740.098	275.487	-0.148	0.268
-739.083	43.984	0.029	0.027
-738.069	50.491	0.210	0.202
-737.054	25.773	0.268	-0.228
-736.039	245.287	-0.152	-0.260
-735.025	173.029	0.197	0.289
-734.010	-15.729	-0.136	-0.088
-732.996	331.206	-0.205	0.403
-731.981	-105.027	-0.244	-0.057
-730.966	140.732	-0.214	0.288
-729.952	-75.534	-0.041	-0.015
-728.937	-200.000	-0.023	-0.318
-727.923	800.000	-0.074	-0.261
-726.908	800.000	-0.153	-0.454
-725.894	51.160	-0.129	0.125
-724.879	197.199	-0.274	-0.426
-723.864	-200.000	-0.061	-0.379
-722.850	-200.000	0.014	-0.247
-721.835	-17.125	-0.283	0.182
-720.821	-53.003	-0.320	-0.150
-719.806	62.403	-0.346	-0.351
-718.791	-90.481	-0.270	0.080
-717.777	359.228	0.126	-0.256
-716.762	-19.053	-0.046	0.029
-715.748	-200.000	-0.020	-0.249
-714.733	-200.000	0.038	-0.236
-713.718	334.428	-0.071	-0.140
-712.704	-115.190	-0.166	-0.032
-711.689	22.025	-0.072	0.060
-710.675	254.134	-0.193	-0.336
-709.660	50.755	-0.046	0.044
-708.645	-94.174	-0.240	-0.067
-707.631	101.990	0.108	0.128
-706.616	-160.461	-0.277	0.015
-705.602	-200.000	-0.016	-0.150
-704.587	-103.402	0.097	-0.023
-703.572	-93.324	0.218	0.062
-702.558	-8.883	-0.187	0.128
-701.543	21.862	0.182	-0.151
-700.529	800.000	-0.061	-0.258
-699.514	-200.000	-0.035	-0.245
-698.499	18.124	-0.090	0.073
-697.485	42.610	0.175	-0.162
-696.470	88.357	0.107	0.121
-695.456	53.033	0.102	-0.099
-694.441	-83.767	-0.310	0.101
-693.426	800.000	-0.054	-0.194
-692.412	21.023	0.164	-0.136
-691.397	93.511	0.054	0.062
-690.383	800.000	-0.089	-0.385
-689.368	656.289	-0.031	0.080
-688.354	-200.000	-0.029	-0.178
-687.339	-165.984	-0.237	0.010
-686.324	-200.000	0.018	0.276
-685.310	-200.000	-0.067	-0.310
-684.295	694.623	0.068	0.182
-683.281	21.546	-0.170	-0.141
-682.266	-95.339	0.217	-0.059
-681.251	-200.000	-0.031	-0.184
-680.237	39.852	-0.203	-0.185
-679.222	-200.000	0.030	-0.202
-678.208	-200.000	-0.055	0.253
-677.193	-200.000	0.002	0.025
-676.178	21.938	-0.054	-0.045
-675.164	-31.689	-0.294	0.168
-674.149	-176.556	-0.129	0.003
-673.135	-138.810	-0.052	-0.006
-672.120	-200.000	0.007	-0.094
-671.105	-30.692	0.090	-0.052
-670.091	105.559	-0.167	0.200
-669.076	800.000	-0.069	-0.279
-668.062	-200.000	-0.025	-0.449
-667.047	150.403	0.008	-0.011
-666.032	-200.000	-0.026	0.154
-665.018	-200.000	-0.036	-0.208
-664.003	638.793	-0.096	-0.249
-662.989	800.000	0.010	-0.032
-661.974	800.000	0.018	-0.068
-660.959	54.905	0.188	0.185
-659.945	16.492	0.241	0.194
-658.930	-200.000	0.007	-0.084
-657.916	252.675	0.233	-0.404
-656.901	-200.000	0.022	0.240
-655.886	-17.887	-0.058	0.037
-654.872	62.387	0.226	-0.229
-653.857	-63.345	0.346	-0.145
-652.843	-200.000	0.033	0.356
-651.828	181.028	0.014	-0.021
-650.814	-137.984	0.209	-0.024
-649.799	24.019	0.028	0.024
-648.784	800.000	0.098	0.368
-647.770	-68.167	0.023	0.009
-646.755	-102.312	0.364	-0.089
-645.741	-52.732	0.024	-0.011
-644.726	134.672	-0.160	-0.212
-643.711	119.683	-0.082	0.104
-642.697	68.686	-0.109	-0.114
-641.682	-62.985	0.289	0.121
-640.668	-4.244	0.258	0.181
-639.653	-152.275	0.292	-0.021
-638.638	-200.000	-0.014	-0.111
-637.624	-69.639	0.242	0.094
-636.609	-135.235	-0.193	-0.024
-635.595	-105.912	-0.164	0.038
-634.580	-31.276	0.127	-0.072
-633.565	8.884	-0.146	-0.112
-632.551	300.142	-0.102	-0.192
-631.536	300.819	0.172	0.322
-630.522	-19.430	0.188	0.118
-629.507	64.509	0.078	0.080
-628.492	-127.292	0.098	-0.014
-627.478	60.895	0.222	0.224
-626.463	-90.806	-0.508	-0.149
-625.449	-200.000	0.021	0.114
-624.434	-95.148	0.188	0.052
-623.419	-109.597	-0.052	0.011
-622.405	344.536	0.073	0.145
-621.390	-113.207	0.193	-0.039
-620.376	142.466	-0.051	0.068
-619.361	-38.015	0.176	-0.095
-618.346	36.265	0.182	-0.163
-617.332	219.866	0.074	0.120
-616.317	208.902	0.088	0.140
-615.303	612.602	0.171	-0.434
-614.288	-116.726	0.313	0.058
-613.273	356.215	-0.018	-0.037
-612.259	404.511	0.033	0.071
-611.244	-38.787	0.059	0.032
-610.230	221.804	-0.265	-0.433
-609.215	161.418	-0.038	-0.054
-608.201	295.289	0.153	-0.284
-607.186	-200.000	-0.010	-0.260
-606.171	307.279	0.107	0.202
-605.157	-139.412	-0.111	-0.012
-604.142	286.447	0.205	0.375
-603.128	-2.836	-0.243	-0.172
-602.113	7.178	0.184	-0.139
-601.098	-200.000	-0.000	0.085
-600.084	157.882	0.114	-0.160
-599.069	97.513	0.321	-0.373
-598.055	-122.613	0.070	-0.012
-597.040	185.778	0.041	0.062
-596.025	275.077	-0.114	-0.205
-595.011	216.108	0.047	-0.076
-593.996	354.635	-0.125	-0.252
-592.982	-2.086	-0.149	0.106
-591.967	-200.000	0.020	0.164
-590.952	-90.296	-0.144	0.042
-589.938	-200.000	0.011	-0.189
-588.923	-144.667	-0.127	0.012
-587.909	800.000	-0.090	0.305
-586.894	153.115	-0.223	-0.309
-585.879	800.000	-0.013	0.052
-584.865	800.000	0.078	-0.345
-583.850	800.000	-0.035	-0.119
-582.836	-52.372	-0.117	0.055
-581.821	800.000	0.031	-0.092
-580.806	-62.006	0.045	-0.019
-579.792	3.638	-0.256	0.189
-578.777	-200.000	-0.024	0.227
-577.763	800.000	0.008	0.027
-576.748	-121.531	0.142	-0.024
-575.733	-200.000	0.025	-0.263
-574.719	-125.202	-0.168	0.026
-573.704	800.000	0.056	0.178
-572.690	12.105	0.144	0.112
-571.675	78.332	-0.202	-0.219
-570.661	-21.240	-0.066	-0.041
-569.646	-67.977	0.143	0.056
-568.631	490.714	0.052	0.121
-567.617	800.000	-0.041	0.183
-566.602	-100.389	0.207	0.052
-565.588	-134.479	-0.039	-0.005
-564.573	-166.359	0.266	-0.011
-563.558	-117.035	0.247	0.046
-562.544	73.201	0.112	0.118
-561.529	3.119	-0.102	-0.075
-560.515	280.190	-0.124	-0.224
-559.500	-28.065	-0.078	-0.046
-558.485	-125.741	-0.233	-0.036
-557.471	800.000	0.098	-0.354
-556.456	209.394	0.090	-0.142
-555.442	-200.000	-0.023	0.312
-554.427	800.000	0.008	0.024
-553.412	13.538	0.178	0.140
-552.398	260.744	-0.041	-0.071
-551.383	118.901	0.053	0.067
-550.369	-181.400	0.230	0.005
-549.354	-76.902	0.382	-0.135
-548.339	-126.306	-0.182	-0.027
-547.325	-200.000	0.032	0.271
-546.310	-127.002	0.195	-0.029
-545.296	-131.430	0.247	0.033
-544.281	-26.587	0.443	-0.263
-543.266	-200.000	-0.030	0.145
-542.252	-200.000	0.001	0.127
-541.237	-200.000	0.014	0.159
-540.223	-138.394	-0.097	0.011
-539.208	63.562	0.098	0.100
-538.193	3.784	-0.146	0.108
-537.179	155.570	-0.258	0.359
-536.164	-200.000	-0.007	0.323
-535.150	26.641	-0.311	0.264
-534.135	18.010	-0.218	-0.176
-533.121	-4.102	0.269	0.189
-532.106	22.541	0.173	0.143
-531.091	182.109	-0.097	0.145
-530.077	-200.000	0.049	0.355
-529.062	48.505	-0.382	0.362
-528.048	14.982	-0.122	-0.097
-527.033	800.000	0.114	0.416
-526.018	-200.000	-0.003	0.162
-525.004	240.454	0.043	0.072
-523.989	800.000	0.107	0.313
-522.975	-200.000	0.023	-0.242
-521.960	14.940	-0.218	0.173
-520.945	281.463	0.149	0.271
-519.931	186.537	-0.071	-0.107
-518.916	632.019	0.115	-0.294
-517.902	-56.972	0.029	-0.013
-516.887	-151.473	0.387	0.029
-515.872	150.600	0.058	-0.080
-514.858	8.584	-0.136	-0.104
-513.843	415.305	0.051	-0.110
-512.829	81.301	-0.142	0.155
-511.814	-27.834	0.382	0.224
-510.799	-200.000	-0.031	-0.504
-509.785	800.000	-0.021	-0.069
-508.770	106.337	-0.199	0.238
-507.756	-1.493	-0.108	0.077
-506.741	-200.000	-0.043	-0.226
-505.726	-57.821	-0.215	-0.095
-504.712	-200.000	0.015	0.097
-503.697	-69.210	-0.128	0.050
-502.683	418.799	-0.218	-0.471
-501.668	800.000	0.076	-0.287
-500.653	-143.706	-0.329	0.032
-499.639	-200.000	0.021	-0.432
-498.624	375.032	0.079	-0.162
-497.610	-62.370	0.084	-0.035
-496.595	-111.231	-0.078	-0.016
-495.581	482.222	-0.228	-0.522
-494.566	72.535	0.149	-0.157
-493.551	-28.230	0.387	0.226
-492.537	-105.019	-0.029	-0.007
-491.522	-143.672	0.279	-0.027
-490.508	122.377	0.077	-0.097
-489.493	800.000	-0.103	0.384
-488.478	296.444	0.061	0.113
-487.464	271.665	0.141	0.251
-486.449	148.509	-0.106	0.145
-485.435	800.000	-0.049	0.180
-484.420	-86.959	0.346	0.106
-483.405	-106.622	0.133	0.030
-482.391	-45.304	-0.121	-0.061
-481.376	-123.686	0.095	-0.015
-480.362	-191.100	-0.220	0.002
-479.347	-200.000	-0.083	-0.569
-478.332	591.140	-0.079	-0.196
-477.318	56.966	-0.366	-0.359
-476.303	55.009	0.052	0.051
-475.289	-54.106	0.065	-0.030
-474.274	-1.646	-0.144	-0.102
-473.259	800.000	0.082	-0.333
-472.245	1.387	0.111	0.081
-471.230	59.057	0.125	-0.124
-470.216	188.495	-0.107	-0.162
-469.201	784.347	0.073	-0.201
-468.186	-14.610	-0.344	-0.223
-467.172	-64.629	0.267	-0.109
-466.157	-40.244	-0.067	-0.035
-465.143	14.213	-0.094	0.074
-464.128	136.122	-0.201	0.264
-463.113	-200.000	-0.062	0.315
-462.099	33.149	0.243	-0.213
-461.084	-6.307	0.168	-0.115
-460.070	-36.607	0.256	-0.139
-459.055	271.399	0.088	0.156
-458.040	800.000	0.028	0.078
-457.026	744.321	0.117	-0.319
-456.011	729.811	0.057	0.155
-454.997	-152.887	-0.175	-0.013
-453.982	-34.590	0.365	0.201
-452.968	368.956	-0.189	0.386
-451.953	-62.748	0.169	0.071
-450.938	-122.118	0.161	-0.027
-449.924	34.082	-0.230	0.202
-448.909	-146.149	-0.175	0.016
-447.895	-104.749	-0.198	0.046
-446.880	-200.000	-0.003	0.207
-445.865	-23.311	-0.267	-0.162
-444.851	77.981	0.189	0.204
-443.836	-137.338	0.355	-0.041
-442.822	-156.296	0.151	-0.010
-441.807	569.506	0.054	-0.131
-440.792	-58.358	-0.274	0.120
-439.778	-200.000	0.044	0.276
-438.763	-43.196	-0.147	0.075
-437.749	158.283	0.146	0.204
-436.734	221.545	0.162	-0.261
-435.719	508.315	0.029	0.068
-434.705	-171.441	0.229	0.008
-433.690	-200.000	0.046	0.226
-432.676	49.252	0.106	0.100
-431.661	579.552	0.103	-0.254
-430.646	-94.951	-0.138	-0.038
-429.632	580.977	-0.042	0.103
-428.617	-121.741	-0.242	-0.040
-427.603	-200.000	0.028	0.300
-426.588	21.575	-0.340	0.279
-425.573	-200.000	-0.010	0.330
-424.559	207.208	0.115	-0.180
-423.544	-37.788	0.149	-0.080
-422.530	-3.852	-0.240	0.167
-421.515	-106.607	-0.090	-0.020
-420.500	-95.657	-0.145	0.039
-419.486	-74.860	0.117	0.042
-418.471	30.409	0.137	0.118
-417.457	207.654	0.057	-0.089
-416.442	121.243	0.043	-0.054
-415.428	-19.561	0.280	-0.175
-414.413	139.533	-0.127	0.168
-413.398	-159.346	-0.096	0.005
-412.384	71.267	-0.050	-0.052
-411.369	-124.259	-0.351	0.055
-410.355	800.000	0.046	0.158
-409.340	-4.637	-0.313	0.218
-408.325	1.194	0.231	0.167
-407.311	-14.156	0.032	-0.021
-406.296	244.508	-0.278	0.470
-405.282	-84.500	0.107	-0.034
-404.267	72.112	-0.183	0.192
-403.252	800.000	-0.035	0.114
-402.238	98.972	-0.071	-0.082
-401.223	-73.655	0.248	-0.091
-400.209	294.578	-0.135	-0.248
-399.194	-45.092	-0.103	0.051
-398.179	-27.914	-0.311	-0.181
-397.165	-154.449	-0.358	-0.024
-396.150	-132.083	-0.147	0.019
-395.136	119.357	0.141	-0.175
-394.121	-99.899	-0.274	-0.069
-393.106	46.791	-0.260	-0.243
-392.092	160.708	-0.096	-0.135
-391.077	800.000	0.064	-0.209
-390.063	121.911	-0.081	-0.102
-389.048	80.019	-0.158	0.170
-388.033	161.629	0.102	0.143
-387.019	-185.930	-0.363	0.005
-386.004	-118.520	0.219	0.039
-384.990	39.817	-0.137	-0.123
-383.975	43.975	-0.090	0.083
-382.960	202.699	0.127	0.197
-381.946	-67.224	0.311	-0.123
-380.931	125.504	-0.191	-0.243
-379.917	-200.000	0.059	-0.481
-378.902	391.533	-0.113	-0.235
-377.888	800.000	-0.040	-0.156
-376.873	-47.345	-0.222	0.109
-375.858	182.584	-0.115	-0.171
-374.844	-200.000	0.025	-0.166
-373.829	-5.202	0.160	-0.110
-372.815	-79.220	0.127	-0.043
-371.800	-126.815	-0.060	-0.009
-370.785	-200.000	0.065	0.352
-369.771	156.570	-0.182	0.253
-368.756	-20.506	0.182	-0.112
-367.742	-200.000	0.023	-0.134
-366.727	381.837	-0.178	0.368
-365.712	-200.000	0.011	-0.224
-364.698	800.000	-0.045	-0.181
-363.683	-200.000	-0.032	-0.244
-362.669	800.000	-0.165	0.502
-361.654	165.149	0.060	0.085
-360.639	234.014	0.147	0.242
-359.625	-200.000	0.053	0.238
-358.610	32.006	0.283	-0.245
-357.596	159.839	0.116	0.162
-356.581	42.445	0.077	0.070
-355.566	-139.730	0.303	0.032
-354.552	465.678	-0.066	0.147
-353.537	-74.687	-0.125	0.045
-352.523	248.028	0.032	0.055
-351.508	-200.000	-0.045	0.331
-350.493	800.000	0.081	-0.278
-349.479	34.202	-0.258	-0.226
-348.464	23.835	0.302	0.250
-347.450	-88.042	0.148	-0.045
-346.435	435.696	-0.033	-0.071
-345.420	414.461	0.105	-0.224
-344.406	-133.262	0.363	-0.046
-343.391	800.000	0.017	0.049
-342.377	-158.055	-0.185	0.011
-341.362	-186.363	-0.316	0.005
-340.348	409.664	-0.123	-0.261
-339.333	-70.712	0.033	0.013
-338.318	-151.907	-0.106	-0.008
-337.304	-84.273	-0.401	0.128
-336.289	-56.702	0.415	-0.184
-335.275	-104.660	0.120	0.028
-334.260	-131.317	-0.058	-0.008
-333.245	24.554	0.248	-0.206
-332.231	-200.000	-0.065	-0.623
-331.216	-83.401	-0.097	0.031
-330.202	-200.000	-0.006	-0.189
-329.187	91.290	-0.095	-0.107
-328.172	-2.415	-0.183	-0.129
-327.158	40.304	0.238	-0.215
-326.143	343.674	0.067	-0.131
-325.129	-52.303	-0.203	-0.094
-324.114	40.917	0.167	-0.151
-323.099	145.630	0.181	0.243
-322.085	-200.000	0.018	0.285
-321.070	800.000	0.022	-0.087
-320.056	223.170	-0.162	0.261
-319.041	-9.136	-0.122	-0.082
-318.026	159.727	0.169	-0.236
-317.012	167.038	-0.167	-0.238
-315.997	800.000	-0.028	-0.101
-314.983	102.784	-0.173	-0.203
-313.968	-94.050	-0.121	-0.033
-312.953	-81.380	-0.125	-0.041
-311.939	-80.340	-0.179	0.060
-310.924	237.623	0.035	0.057
-309.910	-19.303	-0.182	-0.113
-308.895	-1.848	-0.046	0.032
-307.880	-34.952	0.161	-0.088
-306.866	198.529	-0.063	0.096
-305.851	-27.095	-0.048	-0.028
-304.837	112.221	-0.038	-0.047
-303.822	-178.554	-0.118	0.003
-302.807	3.364	0.317	0.231
-301.793	292.493	0.062	0.113
-300.778	800.000	-0.057	0.204
-299.764	242.435	-0.230	0.386
-298.749	-147.438	-0.413	0.035
-297.735	-8.418	0.176	-0.118
-296.720	-65.212	-0.065	0.026
-295.705	232.448	-0.072	0.118
-294.691	-200.000	0.000	-0.084
-293.676	800.000	0.068	-0.288
-292.662	-91.614	0.308	-0.088
-291.647	-77.731	-0.083	0.029
-290.632	-200.000	0.027	-0.274
-289.618	-175.297	-0.127	0.003
-288.603	175.148	0.038	0.055
-287.589	434.456	-0.051	-0.111
-286.574	-111.021	-0.195	-0.040
-285.559	105.115	-0.109	-0.128
-284.545	-35.465	0.160	-0.087
-283.530	-115.636	-0.143	0.027
-282.516	-11.926	0.182	-0.119
-281.501	-11.024	-0.314	-0.207
-280.486	-82.747	0.208	-0.067
-279.472	-200.000	0.009	0.217
-278.457	-50.990	0.186	-0.087
-277.443	-200.000	-0.008	-0.322
-276.428	-80.177	-0.325	-0.109
-275.413	800.000	0.074	0.286
-274.399	288.469	0.177	0.321
-273.384	-200.000	0.010	-0.111
-272.370	800.000	-0.073	0.271
-271.355	69.378	0.030	-0.031
-270.340	80.722	-0.233	-0.251
-269.326	-62.565	0.043	-0.018
-268.311	-95.892	0.089	-0.024
-267.297	800.000	0.077	-0.327
-266.282	-200.000	-0.024	-0.115
-265.267	-200.000	-0.353	-0.001
-264.253	17.754	-0.206	0.164
-263.238	13.355	0.085	0.066
-262.224	-200.000	-0.064	-0.384
-261.209	-161.045	-0.282	-0.015
-260.195	800.000	-0.054	0.192
-259.180	-25.495	0.248	0.147
-258.165	83.744	-0.166	0.182
-257.151	-66.879	0.207	-0.082
-256.136	229.744	0.096	-0.156
-255.122	547.061	0.066	0.157
-254.107	207.558	0.148	0.231
-253.092	60.925	-0.403	0.400
-252.078	217.262	-0.055	-0.087
-251.063	800.000	0.063	0.196
-250.049	-6.385	-0.235	-0.160
-249.034	-200.000	0.000	-0.166
-248.019	-72.575	-0.423	-0.156
-247.005	-51.461	-0.401	-0.187
-245.990	-150.510	0.336	0.026
-244.976	29.355	-0.041	0.035
-243.961	145.559	-0.137	-0.183
-242.946	36.292	-0.167	-0.148
-241.932	-200.000	0.003	-0.197
-240.917	434.437	0.106	-0.231
-239.903	306.522	0.194	-0.361
-238.888	-115.834	0.090	-0.017
-237.873	25.068	-0.111	-0.092
-236.859	-70.268	-0.079	0.030
-235.844	230.680	-0.039	0.064
-234.830	90.711	0.205	0.229
-233.815	-56.303	0.142	-0.063
-232.800	-200.000	0.008	-0.038
-231.786	157.323	-0.097	0.134
-230.771	800.000	0.125	-0.406
-229.757	800.000	0.018	-0.064
-228.742	-175.006	0.247	0.007
-227.727	385.775	-0.053	0.109
-226.713	-43.207	-0.258	0.131
-225.698	-127.542	-0.213	0.031
-224.684	-107.461	-0.311	0.068
-223.669	-160.393	0.249	-0.013
-222.655	800.000	-0.094	0.304
-221.640	800.000	-0.095	0.348
-220.625	6.036	0.187	-0.138
-219.611	-128.312	-0.004	0.001
-218.596	460.203	0.045	0.101
-217.582	61.485	0.197	0.196
-216.567	800.000	-0.113	0.394
-215.552	800.000	0.084	0.357
-214.538	800.000	0.033	-0.129
-213.523	100.540	-0.092	-0.107
-212.509	-35.168	0.341	0.186
-211.494	-200.000	0.047	0.318
-210.479	352.524	-0.040	-0.080
-209.465	336.286	0.112	-0.218
-208.450	68.944	0.093	0.095
-207.436	26.921	-0.427	0.357
-206.421	194.346	-0.091	-0.138
-205.406	-30.359	0.457	0.259
-204.392	-105.219	-0.096	-0.022
-203.377	-95.859	-0.175	0.047
-202.363	-119.241	0.066	-0.012
-201.348	-21.754	0.316	-0.192
-200.333	800.000	-0.081	-0.290
-199.319	-200.000	0.054	0.292
-198.304	230.075	-0.053	-0.087
-197.290	298.384	0.140	0.257
-196.275	-5.692	0.223	0.152
-195.260	38.807	-0.114	0.101
-194.246	95.723	0.190	-0.217
-193.231	73.177	0.079	0.083
-192.217	148.567	0.074	0.099
-191.202	-99.447	-0.334	0.084
-190.187	26.871	0.159	0.133
-189.173	-30.006	0.369	0.210
-188.158	800.000	-0.103	-0.292
-187.144	603.006	0.073	-0.180
-186.129	-200.000	0.010	-0.068
-185.114	-200.000	0.026	-0.202
-184.100	45.098	-0.130	0.120
-183.085	-200.000	-0.002	0.187
-182.071	-156.936	0.365	0.022
-181.056	59.620	-0.106	0.104
-180.042	48.690	0.116	-0.109
-179.027	244.828	0.190	-0.319
-178.012	567.585	-0.054	-0.130
-176.998	-138.776	-0.390	0.042
-175.983	-147.422	-0.252	-0.021
-174.969	-106.335	0.028	0.006
-173.954	-192.870	0.041	0.000
-172.939	-200.000	0.016	-0.264
-171.925	-22.722	0.107	0.064
-170.910	253.574	-0.227	0.386
-169.896	-120.316	0.240	0.041
-168.881	109.737	-0.278	0.332
-167.866	-70.101	-0.141	0.053
-166.852	17.215	0.047	0.038
-165.837	-95.227	-0.165	0.044
-164.823	-60.295	0.250	0.106
-163.808	800.000	-0.070	0.193
-162.793	-117.419	-0.068	-0.012
-161.779	2.084	-0.081	0.058
-160.764	28.583	0.061	0.052
-159.750	-147.600	-0.073	0.006
-158.735	495.090	0.026	-0.060
-157.720	-15.581	-0.191	0.121
-156.706	748.597	0.009	-0.025
-155.691	311.400	-0.024	-0.045
-154.677	-185.719	-0.156	0.002
-153.662	55.778	0.181	0.175
-152.647	-200.000	-0.014	-0.182
-151.633	373.449	0.196	-0.398
-150.618	-115.896	-0.106	-0.020
-149.604	-27.715	0.386	0.223
-148.589	800.000	-0.053	0.200
-147.574	800.000	-0.078	0.238
-146.560	679.238	0.105	-0.273
-145.545	258.002	0.033	-0.057
-144.531	58.806	0.261	-0.255
-143.516	-200.000	-0.021	0.160
-142.502	446.648	0.093	-0.204
-141.487	-13.851	0.352	-0.227
-140.472	-78.194	-0.110	0.038
-139.458	117.165	-0.080	-0.097
-138.443	398.545	-0.117	-0.245
-137.429	85.877	0.027	-0.029
-136.414	439.033	0.095	0.206
-135.399	800.000	-0.061	0.241
-134.385	295.755	0.071	-0.129
-133.370	52.435	-0.080	-0.076
-132.356	-173.976	0.242	0.007
-131.341	-200.000	0.048	0.264
-130.326	800.000	0.042	-0.122
-129.312	311.963	-0.061	0.114
-128.297	-122.667	-0.123	-0.020
-127.283	600.443	-0.168	-0.415
-126.268	24.287	0.282	-0.232
-125.253	-163.603	-0.137	-0.006
-124.239	163.063	-0.081	0.113
-123.224	-200.000	0.041	-0.267
-122.210	476.617	0.086	0.193
-121.195	3.138	0.228	0.165
-120.180	-45.459	0.055	-0.027
-119.166	-153.524	0.229	0.016
-118.151	-200.000	0.021	0.100
-117.137	106.416	-0.090	0.106
-116.122	-69.057	0.016	-0.006
-115.107	70.120	-0.022	0.022
-114.093	800.000	0.062	0.216
-113.078	-168.201	-0.217	0.008
-112.064	800.000	-0.128	0.378
-111.049	315.564	0.049	-0.093
-110.034	-200.000	-0.017	0.112
-109.020	-21.130	0.107	0.065
-108.005	-27.343	-0.075	0.043
-106.991	250.434	-0.182	-0.307
-105.976	-95.561	0.073	0.019
-104.962	5.905	0.248	0.183
-103.947	55.535	0.133	-0.128
-102.932	-107.845	-0.448	-0.097
-101.918	800.000	0.007	0.023
-100.903	-109.015	-0.117	-0.025
-99.889	-34.609	0.123	0.067
-98.874	-66.375	0.177	0.070
-97.859	-200.000	0.083	-0.374
-96.845	83.710	0.155	0.168
-95.830	-113.892	0.407	-0.079
-94.816	-167.120	-0.049	0.002
-93.801	72.077	0.168	0.174
-92.786	-158.971	0.722	-0.041
-91.772	-50.839	0.261	0.122
-90.757	-25.364	-0.071	-0.041
-89.743	-58.310	-0.279	-0.121
-88.728	-19.324	-0.092	-0.057
-87.713	109.886	-0.208	0.248
-86.699	357.630	0.063	-0.124
-85.684	-143.589	-0.181	-0.017
-84.670	541.647	-0.150	-0.356
-83.655	174.480	0.080	0.115
-82.640	800.000	-0.099	-0.370
-81.626	189.459	-0.168	0.250
-80.611	688.618	0.024	0.062
-79.597	-39.832	-0.087	0.045
-78.582	-62.738	-0.223	-0.092
-77.567	-36.604	-0.252	-0.135
-76.553	421.818	0.013	0.028
-75.538	-23.989	0.180	-0.107
-74.524	-73.597	-0.245	-0.089
-73.509	-182.306	0.331	-0.006
-72.494	-200.000	-0.022	0.334
-71.480	-106.418	0.206	0.046
-70.465	57.791	0.244	0.237
-69.451	-11.444	0.148	0.097
-68.436	800.000	-0.038	0.143
-67.422	-149.379	-0.244	0.019
-66.407	-200.000	-0.099	-0.553
-65.392	-128.866	-0.238	-0.033
-64.378	55.040	-0.102	-0.097
-63.363	-132.675	0.192	0.024
-62.349	-102.241	0.183	0.044
-61.334	51.618	-0.700	-0.660
-60.319	514.818	0.187	0.432
-59.305	800.000	-0.410	-1.182
-58.290	124.642	0.704	0.880
-57.276	800.000	0.556	1.554
-56.261	-200.000	90.940	505.316
-55.246	546.104	1368.421	3247.143
-54.232	184.289	2610.398	3836.271
-53.217	114.491	2234.168	2700.677
-52.203	45.199	1762.777	1612.615
-51.188	38.298	1569.474	1386.980
-50.173	36.011	1541.075	1345.874
-49.159	52.767	1589.249	1507.275
-48.144	56.382	1607.948	1550.634
-47.130	38.974	1565.231	1387.793
-46.115	35.718	1549.827	1351.247
-45.100	35.574	1546.118	1346.951
-44.086	35.521	1544.650	1345.248
-43.071	35.455	1542.956	1343.254
-42.057	35.426	1541.296	1341.553
-41.042	35.275	1540.001	1339.314
-40.027	35.435	1538.168	1338.787
-39.013	35.415	1536.683	1337.300
-37.998	35.480	1534.999	1336.236
-36.984	35.469	1534.260	1335.464
-35.969	35.514	1532.483	1334.175
-34.954	35.448	1531.452	1332.765
-33.940	35.430	1530.278	1331.568
-32.925	35.451	1528.202	1329.850
-31.911	35.477	1526.986	1328.924
-30.896	35.577	1525.394	1328.176
-29.881	35.460	1524.641	1326.656
-28.867	35.512	1523.141	1325.660
-27.852	35.521	1521.291	1324.061
-26.838	35.551	1519.856	1322.967
-25.823	35.577	1517.879	1321.367
-24.809	35.499	1516.150	1319.274
-23.794	35.470	1515.365	1318.340
-22.779	35.431	1514.667	1317.411
-21.765	35.437	1513.201	1316.130
-20.750	35.538	1511.907	1315.643
-19.736	35.491	1510.650	1314.172
-18.721	35.450	1509.645	1312.969
-17.706	35.347	1509.088	1311.729
-16.692	35.433	1507.575	1310.947
-15.677	35.360	1506.618	1309.565
-14.663	35.318	1505.887	1308.589
-13.648	35.423	1504.578	1308.114
-12.633	35.355	1503.262	1306.456
-11.619	35.318	1502.646	1305.615
-10.604	35.304	1501.907	1304.829
-9.590	35.418	1500.079	1303.966
-8.575	35.402	1499.840	1303.598
-7.560	35.372	1498.988	1302.598
-6.546	35.501	1497.612	1302.227
-5.531	35.356	1497.080	1300.733
-4.517	35.427	1495.735	1299.993
-3.502	35.332	1495.089	1298.736
-2.487	35.379	1494.180	1298.208
-1.473	35.324	1493.438	1297.144
-0.458	35.338	1491.664	1295.643
0.556	33.759	1482.634	1286.784
1.571	31.482	1456.583	1248.880
2.586	28.488	1394.914	1176.715
3.600	27.006	1312.404	1098.061
4.615	25.500	1264.780	1049.337
5.629	20.918	1205.166	974.234
6.644	9.902	1113.198	842.616
7.659	1.426	1069.118	766.552
8.673	0.364	1063.352	757.022
9.688	0.184	1060.211	753.816
10.702	0.115	1058.522	752.202
11.717	-0.082	1057.338	750.311
12.731	3.756	1061.695	772.554
13.746	14.077	1076.585	835.420
14.761	21.118	1086.019	878.229
15.775	21.987	1086.238	882.698
16.790	22.148	1085.271	882.642
17.804	21.950	1084.712	881.115
18.819	21.853	1083.565	879.622
19.834	21.827	1083.230	879.139
20.848	21.897	1082.762	879.032
21.863	22.014	1082.259	879.134
22.877	21.986	1081.527	878.320
23.892	21.942	1081.066	877.649
24.907	21.969	1080.319	877.101
25.921	22.043	1079.494	876.718
26.936	22.046	1078.776	876.075
27.950	21.901	1077.477	874.219
28.965	21.936	1076.470	873.502
29.980	21.763	1075.019	871.387
30.994	21.749	1073.240	869.795
32.009	21.911	1072.736	870.116
33.023	22.036	1072.264	870.276
34.038	21.888	1070.563	868.083
35.053	21.765	1070.196	867.102
36.067	21.929	1069.305	867.114
37.082	21.815	1068.908	866.153
38.096	21.924	1067.948	865.835
39.111	22.093	1067.439	866.180
40.126	22.231	1066.014	865.628
41.140	22.273	1065.024	864.954
42.155	21.802	1063.645	861.444
43.169	21.650	1062.218	859.467
44.184	21.492	1061.546	858.070
45.199	21.540	1060.613	857.473
46.213	21.565	1059.053	856.260
47.228	21.503	1058.255	855.235
48.242	21.677	1057.320	855.256
49.257	21.847	1056.577	855.408
50.271	21.825	1055.958	854.724
51.286	21.912	1055.378	854.600
52.301	21.978	1054.538	854.168
53.315	21.963	1054.059	853.629
54.330	21.932	1053.209	852.716
55.344	21.902	1052.301	851.759
56.359	21.946	1051.050	850.887
57.374	21.897	1050.516	850.140
58.388	21.743	1049.634	848.603
59.403	21.660	1049.061	847.667
60.417	21.660	1048.241	846.928
61.432	21.482	1047.078	845.053
62.447	21.550	1046.262	844.648
63.461	21.686	1046.109	845.109
64.476	21.709	1044.807	844.092
65.490	21.656	1044.140	843.220
66.505	21.723	1043.111	842.639
67.520	21.525	1042.742	841.314
68.534	21.502	1041.794	840.364
69.549	21.555	1040.630	839.605
70.563	21.252	1039.402	837.090
71.578	21.153	1038.537	835.844
72.593	21.333	1037.464	835.769
73.607	21.136	1036.164	833.704
74.622	21.129	1035.557	833.108
75.636	21.298	1035.066	833.448
76.651	21.541	1033.954	833.635
77.666	21.484	1033.109	832.609
78.680	21.340	1032.179	831.102
79.695	21.312	1031.532	830.373
80.709	21.393	1031.318	830.510
81.724	21.560	1030.451	830.534
82.739	21.537	1029.422	829.523
83.753	21.437	1029.008	828.640
84.768	21.768	1028.081	829.387
85.782	22.008	1027.397	829.897
86.797	22.259	1026.742	830.480
87.812	22.174	1025.750	829.201
88.826	21.931	1025.011	827.386
89.841	21.929	1024.337	826.762
90.855	22.105	1023.353	826.718
91.870	22.184	1022.482	826.314
92.884	22.106	1021.318	824.937
93.899	22.007	1020.634	823.845
94.914	21.936	1019.336	822.392
95.928	22.060	1018.828	822.489
96.943	22.057	1018.012	821.746
97.957	21.817	1017.063	819.782
98.972	21.669	1016.003	818.167
99.987	21.384	1014.742	815.748
101.001	21.581	1013.823	815.854
102.016	21.830	1013.498	816.682
103.030	21.898	1012.653	816.243
104.045	21.718	1011.653	814.531
105.060	21.662	1010.309	813.116
106.074	21.514	1009.019	811.320
107.089	21.421	1008.558	810.448
108.103	21.776	1008.050	811.610
109.118	21.851	1007.694	811.601
110.133	21.639	1006.074	809.245
111.147	21.671	1004.908	808.384
112.162	21.529	1003.645	806.640
113.176	21.361	1002.549	804.914
114.191	21.450	1001.771	804.626
115.206	21.504	1000.841	804.056
116.220	21.267	999.873	802.122
117.235	20.981	999.098	800.116
118.249	21.381	998.060	801.048
119.264	21.373	997.406	800.412
120.279	21.332	996.253	799.231
121.293	21.280	995.461	798.285
122.308	21.347	995.108	798.238
123.322	21.367	994.149	797.492
124.337	21.366	992.625	796.191
125.352	21.332	991.388	794.973
126.366	20.893	989.730	791.580
127.381	20.501	988.560	788.794
128.395	21.041	988.453	791.089
129.410	21.665	988.231	793.672
130.424	21.795	987.062	793.251
131.439	21.823	986.243	792.649
132.454	21.639	985.485	791.141
133.468	21.758	984.625	790.917
134.483	21.773	983.917	790.345
135.497	21.798	982.887	789.561
136.512	21.873	982.724	789.698
137.527	22.153	981.304	789.745
138.541	22.064	980.498	788.626
139.556	22.003	979.979	787.868
140.570	21.920	979.819	787.294
141.585	22.014	978.391	786.500
142.600	22.023	978.022	786.172
143.614	22.000	976.551	784.817
144.629	22.071	975.896	784.538
145.643	22.324	975.461	785.251
146.658	22.167	974.504	783.710
147.673	22.112	972.724	781.965
148.687	22.008	971.927	780.790
149.702	21.930	970.683	779.376
150.716	21.822	969.935	778.226
151.731	21.826	968.589	777.096
152.746	21.812	968.276	776.714
153.760	21.990	967.921	777.151
154.775	22.058	966.854	776.525
155.789	22.181	965.871	776.211
156.804	22.118	965.452	775.526
157.819	22.015	963.877	773.739
158.833	22.127	963.239	773.651
159.848	22.159	962.620	773.226
160.862	22.127	962.200	772.680
161.877	22.028	960.484	770.798
162.892	22.010	959.791	770.096
163.906	22.014	958.943	769.365
164.921	22.118	957.868	768.889
165.935	22.090	956.866	767.897
166.950	22.173	955.855	767.379
167.964	22.183	954.751	766.466
168.979	22.266	953.490	765.748
169.994	21.922	952.919	763.727
171.008	21.906	951.758	762.659
172.023	22.035	950.817	762.396
173.037	22.298	950.410	763.145
174.052	21.983	948.745	760.377
175.067	21.951	947.741	759.365
176.081	21.971	946.874	758.688
177.096	21.883	946.316	757.794
178.110	21.966	945.597	757.508
179.125	21.768	944.377	755.614
180.140	21.452	943.344	753.358
181.154	21.509	942.678	753.007
182.169	21.580	942.185	752.851
183.183	21.877	941.608	753.599
184.198	22.133	941.140	754.256
185.213	22.105	940.710	753.723
186.227	22.068	939.990	752.922
187.242	22.020	939.390	752.170
188.256	22.115	938.604	751.881
189.271	22.016	938.175	751.047
190.286	22.306	936.931	751.222
191.300	22.113	935.931	749.531
192.315	21.678	934.471	746.443
193.329	21.034	933.448	742.820
194.344	20.689	932.013	740.144
195.359	20.994	932.831	742.025
196.373	21.909	932.844	745.861
197.388	21.946	932.806	745.922
198.402	21.920	931.910	745.031
199.417	21.949	931.300	744.598
200.432	22.013	930.942	744.518
201.446	21.832	930.040	742.966
202.461	21.617	929.246	741.354
203.475	21.670	928.931	741.262
204.490	21.219	927.232	737.936
205.504	20.077	925.227	731.455
206.519	20.498	924.884	732.896
207.534	21.392	925.495	737.085
208.548	21.518	925.125	737.258
209.563	21.770	925.439	738.506
210.577	21.909	924.091	737.948
211.592	21.548	923.214	735.666
212.607	22.027	922.965	737.412
213.621	22.203	922.319	737.571
214.636	22.017	922.073	736.530
215.650	22.247	921.240	736.763
216.665	22.111	920.180	735.280
217.680	22.119	920.316	735.357
218.694	22.306	919.094	735.098
219.709	21.891	918.739	733.013
220.723	21.620	917.415	730.763
221.738	21.848	917.049	731.357
222.753	22.039	916.746	731.848
223.767	21.970	915.675	730.638
224.782	22.040	914.936	730.279
225.796	22.150	914.668	730.454
226.811	22.300	913.980	730.463
227.826	21.972	912.596	727.934
228.840	21.166	911.499	723.654
229.855	21.084	910.697	722.614
230.869	21.295	910.385	723.176
231.884	21.071	908.989	721.076
232.899	21.130	908.543	720.906
233.913	21.666	909.103	723.498
234.928	22.009	908.430	724.315
235.942	21.775	907.839	722.813
236.957	21.980	906.711	722.696
237.972	21.645	905.901	720.608
238.986	21.541	905.396	719.714
240.001	21.657	904.517	719.429
241.015	21.676	904.018	719.048
242.030	21.851	903.696	719.446
243.045	21.968	902.927	719.248
244.059	22.016	902.449	719.000
245.074	22.188	901.950	719.243
246.088	22.111	901.222	718.286
247.103	21.739	900.118	715.824
248.117	21.747	899.813	715.549
249.132	22.136	899.844	717.098
250.147	22.532	899.638	718.484
251.161	22.563	898.943	717.993
252.176	22.781	898.312	718.314
253.190	22.909	897.334	717.989
254.205	22.805	897.515	717.646
255.220	23.048	896.743	717.954
256.234	23.109	895.952	717.504
257.249	22.894	895.545	716.240
258.263	22.682	894.663	714.616
259.278	22.712	894.332	714.410
260.293	22.861	894.230	714.867
261.307	22.774	893.465	713.839
262.322	22.919	892.418	713.525
263.336	22.751	891.455	712.017
264.351	22.254	890.108	708.874
265.366	21.111	888.001	702.534
266.380	20.646	887.554	700.245
267.395	21.590	887.853	704.222
268.409	22.284	887.849	706.947
269.424	22.355	887.077	706.553
270.439	22.516	886.370	706.574
271.453	22.746	885.764	706.948
272.468	22.581	885.463	705.984
273.482	22.812	884.114	705.772
274.497	22.941	884.440	706.485
275.512	22.758	882.986	704.531
276.526	22.219	881.971	701.508
277.541	22.395	881.787	702.003
278.555	22.792	881.339	703.165
279.570	22.697	880.284	701.883
280.585	22.379	879.830	700.194
281.599	22.466	879.682	700.360
282.614	22.583	879.025	700.238
283.628	22.177	877.633	697.456
284.643	21.925	876.716	695.668
285.657	22.250	876.621	696.818
286.672	22.192	875.913	695.965
287.687	21.640	875.016	693.007
288.701	21.976	874.854	694.145
289.716	22.392	874.557	695.495
290.730	22.043	873.596	693.292
291.745	21.895	872.909	692.101
292.760	21.705	871.681	690.319
293.774	21.503	871.934	689.661
294.789	22.442	872.384	693.658
295.803	23.198	871.959	696.231
296.818	23.321	871.498	696.286
297.833	23.381	871.332	696.327
298.847	22.924	870.401	693.728
299.862	22.498	869.196	691.033
300.876	22.916	868.598	692.136
301.891	23.125	868.384	692.724
302.906	23.182	867.996	692.575
303.920	22.815	866.457	689.852
304.935	22.690	866.113	689.030
305.949	22.998	865.896	690.000
306.964	23.246	865.187	690.338
307.979	23.008	864.072	688.464
308.993	22.951	863.711	687.892
310.008	23.126	863.790	688.575
311.022	23.424	863.171	689.179
312.037	23.185	862.638	687.765
313.052	22.894	861.553	685.707
314.066	22.957	861.004	685.455
315.081	22.111	859.782	681.143
316.095	21.504	858.228	677.502
317.110	22.160	858.476	680.179
318.125	22.924	858.624	683.191
319.139	22.367	857.982	680.466
320.154	21.404	856.031	675.143
321.168	21.040	854.858	672.755
322.183	21.519	854.980	674.637
323.197	22.401	855.815	678.638
324.212	22.697	855.437	679.420
325.227	22.882	854.858	679.611
326.241	23.036	854.578	679.920
327.256	22.774	854.018	678.410
328.270	22.798	853.082	677.697
329.285	22.762	852.335	676.904
330.300	22.631	851.690	675.832
331.314	22.444	850.790	674.340
332.329	22.551	849.949	674.024
333.343	22.726	850.114	674.763
334.358	22.991	850.007	675.633
335.373	23.075	849.268	675.308
336.387	23.201	848.415	675.049
337.402	23.292	848.430	675.347
338.416	23.431	847.785	675.303
339.431	23.525	846.815	674.830
340.446	23.440	846.776	674.418
341.460	23.584	846.474	674.663
342.475	23.639	845.240	673.829
343.489	23.322	844.939	672.325
344.504	23.388	844.405	672.092
345.519	23.784	843.648	672.928
346.533	23.968	843.337	673.320
347.548	24.035	842.991	673.237
348.562	23.925	842.975	672.747
349.577	23.875	842.070	671.779
350.592	23.837	841.472	671.097
351.606	23.764	841.040	670.420
352.621	23.863	840.292	670.137
353.635	23.705	839.941	669.201
354.650	23.582	839.404	668.251
355.665	23.176	838.543	665.981
356.679	22.290	836.369	660.867
357.694	22.158	836.226	660.198
358.708	22.847	836.392	662.859
359.723	22.798	835.355	661.795
360.738	22.970	835.082	662.166
361.752	23.365	835.513	663.928
362.767	23.567	834.880	664.123
363.781	23.932	834.326	664.990
364.796	23.988	834.161	665.007
365.810	24.132	833.827	665.220
366.825	24.211	833.662	665.325
367.840	24.245	833.558	665.309
368.854	24.049	832.699	663.836
369.869	23.611	831.720	661.364
370.883	23.553	830.888	660.428
371.898	23.678	830.266	660.340
372.913	23.546	829.377	659.083
373.927	23.407	829.116	658.302
374.942	23.640	828.768	658.831
375.956	23.680	828.114	658.404
376.971	23.898	827.449	658.622
377.986	23.916	827.149	658.393
379.000	24.054	827.103	658.807
380.015	24.177	826.423	658.661
381.029	24.024	825.385	657.212
382.044	23.995	824.983	656.726
383.059	24.133	824.424	656.732
384.073	23.988	824.232	655.988
385.088	24.110	823.390	655.710
386.102	24.268	822.947	655.881
387.117	23.988	822.101	654.117
388.132	23.801	821.604	652.977
389.146	23.766	820.777	652.132
390.161	23.133	819.929	649.082
391.175	23.243	819.510	649.095
392.190	23.647	819.802	650.749
393.205	23.809	819.394	650.961
394.219	22.938	817.435	646.165
395.234	21.144	815.535	638.052
396.248	20.597	813.890	634.714
397.263	21.656	815.038	639.421
398.278	23.479	816.003	646.775
399.292	23.700	816.204	647.686
400.307	23.555	815.300	646.384
401.321	23.487	814.939	645.793
402.336	23.380	814.932	645.341
403.350	23.923	814.346	646.795
404.365	24.227	814.362	647.853
405.380	24.530	814.225	648.787
406.394	24.845	813.850	649.578
407.409	24.986	813.481	649.733
408.423	24.854	813.321	649.072
409.438	24.657	812.604	647.727
410.453	24.679	811.967	647.243
411.467	24.803	811.972	647.638
412.482	24.593	811.216	646.220
413.496	24.638	810.588	645.825
414.511	24.745	810.385	645.992
415.526	24.871	809.677	645.826
416.540	24.871	809.300	645.465
417.555	24.768	808.662	644.530
418.569	24.386	808.059	642.615
419.584	24.515	807.398	642.498
420.599	24.666	806.569	642.323
421.613	151.558	1366.108	1789.609
422.628	131.531	1447.667	1789.749
