DTS Sentinel unit serial number:	SN413079Multiplexer serial number:	ORYXHardware model number:	OX4-SRSoftware version number:	ORYX F/W v4.00 Oryx Data Collector v3.7.2.0data status	okinstallation	princeton_trtdifferential loss correction	single-endedforward channel	channel 3reverse channel	N/Adate	2019/09/18time	22:24:34forward acquisition time	60.00reverse acquisition time	0.00gamma	496.2192k internal	0.2345k external	0.2345temperature offset calibration	0.9985default loss term (dB/km)	0.3790temperature slope calibration	1.0000multiplexer offset coefficient	1.0000multiplexer slope coefficient	1.0000fibre end	0.00T internal ref (°C)	24.30T ext. ref 1 (°C)	0.79T ext. ref 2 (°C)	17.99length (m)	temperature (°C)	Stokes	anti-Stokes-747.200	249.169	-0.107	0.181
-746.185	-101.361	-0.340	0.083
-745.171	-150.247	-0.232	-0.018
-744.156	800.000	-0.073	0.299
-743.142	80.601	-0.092	-0.099
-742.127	368.242	-0.123	0.249
-741.112	-200.000	-0.024	0.156
-740.098	14.178	-0.052	0.040
-739.083	-200.000	0.004	-0.464
-738.069	85.171	-0.142	0.156
-737.054	-200.000	-0.026	-0.139
-736.039	72.023	-0.172	0.179
-735.025	206.460	-0.074	-0.115
-734.010	800.000	0.094	-0.360
-732.996	148.038	0.238	-0.320
-731.981	106.179	-0.079	-0.094
-730.966	-200.000	0.023	0.183
-729.952	-149.188	0.299	-0.024
-728.937	-62.256	0.277	0.116
-727.923	497.652	0.026	-0.060
-726.908	40.869	-0.210	-0.189
-725.894	512.670	0.045	0.105
-724.879	10.813	-0.291	0.222
-723.864	215.646	0.018	-0.028
-722.850	-121.854	0.471	0.078
-721.835	129.333	0.139	-0.177
-720.821	-200.000	0.031	-0.389
-719.806	294.815	0.138	0.252
-718.791	79.769	0.222	0.238
-717.777	-200.000	-0.008	-0.145
-716.762	54.842	-0.111	-0.107
-715.748	253.170	0.069	-0.118
-714.733	-88.892	-0.132	-0.039
-713.718	342.250	-0.108	0.210
-712.704	227.503	-0.121	0.196
-711.689	77.958	-0.182	0.194
-710.675	-9.950	0.313	-0.208
-709.660	-115.113	0.238	-0.045
-708.645	273.630	0.087	0.154
-707.631	-107.703	0.079	0.017
-706.616	-151.737	-0.446	-0.033
-705.602	95.600	-0.038	0.044
-704.587	70.539	-0.119	-0.122
-703.572	-37.006	0.175	-0.094
-702.558	-3.741	-0.065	-0.045
-701.543	-200.000	-0.028	0.383
-700.529	289.362	0.099	0.178
-699.514	-200.000	0.022	-0.248
-698.499	241.562	-0.192	0.320
-697.485	-200.000	-0.015	0.122
-696.470	-102.217	-0.203	-0.049
-695.456	-200.000	-0.048	0.381
-694.441	-200.000	-0.026	0.153
-693.426	-200.000	-0.026	0.130
-692.412	800.000	-0.072	-0.245
-691.397	-23.964	0.239	-0.143
-690.383	-200.000	0.002	-0.382
-689.368	659.235	0.063	-0.161
-688.354	-200.000	0.062	0.304
-687.339	800.000	0.049	0.192
-686.324	70.653	0.262	0.271
-685.310	-159.101	0.436	0.025
-684.295	-43.417	-0.126	-0.064
-683.281	-49.524	0.154	0.073
-682.266	800.000	0.066	0.194
-681.251	-48.756	0.440	-0.211
-680.237	800.000	0.055	-0.205
-679.222	-200.000	-0.041	-0.375
-678.208	-18.195	0.166	-0.104
-677.193	-119.792	0.381	0.066
-676.178	774.717	0.022	0.059
-675.164	-165.287	-0.169	-0.007
-674.149	175.956	-0.117	-0.169
-673.135	193.372	-0.182	-0.275
-672.120	97.371	0.050	0.057
-671.105	131.225	0.121	0.155
-670.091	426.385	-0.098	0.210
-669.076	233.124	0.064	0.105
-668.062	800.000	0.036	0.106
-667.047	-200.000	-0.007	0.072
-666.032	-200.000	0.001	0.064
-665.018	-0.743	0.357	0.252
-664.003	-71.134	0.211	-0.079
-662.989	-193.139	0.082	0.001
-661.974	97.522	0.095	-0.108
-660.959	70.758	-0.089	-0.092
-659.945	-12.555	0.150	0.098
-658.930	-39.204	0.222	-0.116
-657.916	126.004	0.168	0.212
-656.901	-143.627	0.413	0.039
-655.886	14.876	0.256	0.199
-654.872	162.804	-0.129	0.180
-653.857	193.283	0.031	-0.047
-652.843	800.000	0.060	0.200
-651.828	326.334	-0.036	0.069
-650.814	-60.161	-0.294	-0.125
-649.799	129.772	-0.271	-0.346
-648.784	800.000	0.117	-0.352
-647.770	30.423	0.170	0.145
-646.755	268.089	-0.133	0.232
-645.741	-200.000	-0.010	0.155
-644.726	-171.854	0.141	0.005
-643.711	-52.897	0.152	0.070
-642.697	-51.627	-0.046	-0.021
-641.682	-25.025	-0.390	-0.230
-640.668	-50.119	0.134	-0.063
-639.653	-164.661	0.283	-0.013
-638.638	800.000	-0.086	-0.369
-637.624	-140.130	-0.188	0.020
-636.609	800.000	0.106	-0.313
-635.595	203.691	-0.076	-0.118
-634.580	185.572	0.094	-0.139
-633.565	-29.192	0.576	-0.329
-632.551	228.545	-0.156	-0.254
-631.536	800.000	0.052	-0.172
-630.522	137.796	-0.060	0.078
-629.507	-200.000	0.019	-0.152
-628.492	-131.880	0.213	-0.028
-627.478	800.000	0.037	-0.109
-626.463	360.262	-0.042	0.085
-625.449	16.944	-0.221	-0.174
-624.434	-62.036	-0.312	0.130
-623.419	-200.000	0.015	0.227
-622.405	-180.535	0.217	-0.004
-621.390	14.976	0.190	-0.148
-620.376	-167.626	0.149	0.006
-619.361	68.242	0.173	0.176
-618.346	800.000	0.032	-0.103
-617.332	20.812	0.254	0.205
-616.317	76.088	0.106	-0.112
-615.303	17.586	0.133	0.105
-614.288	-74.528	-0.127	0.046
-613.273	29.006	0.187	-0.158
-612.259	-79.796	-0.178	0.060
-611.244	78.990	-0.046	0.049
-610.230	-19.683	0.220	-0.136
-609.215	800.000	-0.032	-0.105
-608.201	520.445	-0.091	0.213
-607.186	800.000	0.057	-0.165
-606.171	81.070	-0.161	-0.172
-605.157	59.458	-0.143	-0.140
-604.142	80.929	0.091	-0.098
-603.128	-77.870	-0.159	0.055
-602.113	-200.000	0.043	-0.329
-601.098	-200.000	0.017	-0.086
-600.084	-115.837	0.176	-0.033
-599.069	-92.929	0.156	0.043
-598.055	-154.505	0.156	-0.010
-597.040	-173.216	-0.244	-0.007
-596.025	-11.558	-0.140	-0.092
-595.011	-200.000	0.004	0.027
-593.996	575.763	-0.086	-0.208
-592.982	-174.083	-0.280	0.008
-591.967	-160.688	-0.194	-0.010
-590.952	152.991	0.013	-0.017
-589.938	-200.000	0.016	-0.187
-588.923	-200.000	-0.014	-0.221
-587.909	-200.000	-0.013	-0.234
-586.894	-200.000	0.020	0.169
-585.879	268.319	-0.117	0.203
-584.865	-200.000	0.022	-0.315
-583.850	-21.136	-0.181	-0.110
-582.836	800.000	-0.026	-0.085
-581.821	-200.000	0.063	-0.319
-580.806	-11.551	-0.147	0.096
-579.792	-10.668	0.135	-0.089
-578.777	800.000	0.093	-0.307
-577.763	-16.937	0.370	-0.232
-576.748	609.166	0.053	-0.133
-575.733	-72.483	-0.056	0.021
-574.719	375.305	-0.195	0.396
-573.704	173.968	0.144	-0.206
-572.690	3.446	-0.242	-0.175
-571.675	-167.631	0.206	0.008
-570.661	413.055	0.057	-0.121
-569.646	-89.549	0.274	0.080
-568.631	-4.752	0.222	0.152
-567.617	-89.362	-0.163	0.048
-566.602	253.786	0.044	0.075
-565.588	-85.312	-0.198	0.061
-564.573	169.911	-0.199	0.282
-563.558	537.984	0.102	0.242
-562.544	-200.000	0.027	0.121
-561.529	91.818	0.184	0.206
-560.515	800.000	-0.076	0.299
-559.500	-200.000	0.056	0.252
-558.485	-98.233	-0.365	-0.093
-557.471	318.339	0.139	0.262
-556.456	23.715	-0.197	0.161
-555.442	800.000	-0.065	0.238
-554.427	186.260	-0.134	-0.198
-553.412	-200.000	-0.004	-0.105
-552.398	-76.125	0.111	-0.039
-551.383	77.692	-0.106	0.112
-550.369	79.888	-0.067	0.072
-549.354	-39.787	-0.151	-0.078
-548.339	-147.154	-0.208	0.018
-547.325	-200.000	0.001	-0.019
-546.310	-200.000	-0.072	0.362
-545.296	37.052	0.108	-0.095
-544.281	24.531	-0.100	0.082
-543.266	-200.000	0.025	-0.200
-542.252	-2.347	-0.250	0.174
-541.237	-25.154	0.068	0.040
-540.223	-139.915	-0.167	-0.017
-539.208	-200.000	-0.006	-0.089
-538.193	-107.324	-0.246	-0.054
-537.179	-136.500	-0.312	-0.036
-536.164	-133.571	0.302	-0.038
-535.150	52.135	-0.030	-0.028
-534.135	-6.550	0.175	0.118
-533.121	119.262	-0.107	-0.131
-532.106	-165.950	-0.084	0.004
-531.091	-200.000	-0.055	-0.367
-530.077	-200.000	-0.005	0.079
-529.062	-127.239	0.161	-0.023
-528.048	-200.000	-0.008	0.128
-527.033	-46.462	-0.091	0.044
-526.018	48.208	0.103	0.096
-525.004	103.979	0.022	-0.025
-523.989	-19.899	0.299	0.183
-522.975	800.000	0.047	0.175
-521.960	-4.877	-0.268	0.183
-520.945	-55.720	0.295	-0.131
-519.931	-99.784	0.198	-0.049
-518.916	-1.131	0.150	-0.105
-517.902	-19.376	0.066	-0.041
-516.887	-64.124	-0.130	0.052
-515.872	-34.027	0.091	-0.050
-514.858	800.000	0.076	0.303
-513.843	49.384	0.262	-0.245
-512.829	103.728	0.011	0.012
-511.814	449.019	0.073	-0.159
-510.799	-88.617	0.148	-0.044
-509.785	-116.810	-0.134	0.024
-508.770	800.000	-0.074	0.229
-507.756	193.931	-0.156	-0.235
-506.741	-88.964	-0.161	0.047
-505.726	-155.858	0.127	0.008
-504.712	265.301	-0.292	0.504
-503.697	-200.000	-0.036	0.168
-502.683	-83.908	0.029	0.009
-501.668	-46.008	-0.423	0.207
-500.653	72.059	0.257	-0.265
-499.639	42.215	0.173	-0.155
-498.624	-145.823	0.130	-0.011
-497.610	355.012	0.187	0.368
-496.595	-200.000	0.042	-0.189
-495.581	-92.948	-0.234	-0.065
-494.566	116.569	-0.028	-0.034
-493.551	-191.375	0.266	0.003
-492.537	-58.067	-0.171	-0.074
-491.522	189.287	-0.052	-0.077
-490.508	-9.297	0.325	0.215
-489.493	-31.033	-0.120	-0.067
-488.478	-200.000	-0.006	0.144
-487.464	-98.335	-0.107	-0.027
-486.449	-200.000	0.018	0.329
-485.435	478.607	0.061	-0.138
-484.420	-180.121	0.183	0.004
-483.405	231.298	-0.175	-0.284
-482.391	12.563	-0.242	-0.185
-481.376	-122.968	0.140	-0.022
-480.362	-74.355	0.144	-0.051
-479.347	-13.205	-0.210	0.135
-478.332	-48.306	0.146	-0.070
-477.318	475.560	0.074	-0.165
-476.303	-98.785	0.126	0.032
-475.289	272.414	0.130	-0.226
-474.274	-22.545	0.365	-0.219
-473.259	75.821	0.211	-0.221
-472.245	180.982	0.115	-0.167
-471.230	-200.000	0.068	0.417
-470.216	690.509	0.070	0.183
-469.201	-200.000	0.010	0.205
-468.186	-200.000	0.047	0.304
-467.172	-104.202	0.102	-0.023
-466.157	-58.237	-0.133	-0.057
-465.143	-100.244	-0.042	-0.010
-464.128	69.566	0.131	0.134
-463.113	-200.000	-0.042	0.245
-462.099	179.581	0.036	-0.052
-461.084	-156.045	-0.090	-0.006
-460.070	-200.000	-0.024	-0.138
-459.055	95.917	0.109	-0.124
-458.040	-49.856	-0.275	-0.129
-457.026	202.907	0.126	-0.193
-456.011	-200.000	-0.044	0.202
-454.997	-149.159	-0.230	-0.018
-453.982	108.149	0.145	-0.171
-452.968	614.468	0.101	-0.250
-451.953	-97.215	0.097	-0.025
-450.938	377.860	0.010	0.019
-449.924	81.631	-0.104	0.111
-448.909	1.713	0.333	0.237
-447.895	800.000	0.047	0.146
-446.880	72.554	0.032	0.033
-445.865	-165.448	0.144	-0.006
-444.851	136.657	0.308	0.398
-443.836	-31.995	-0.367	-0.203
-442.822	510.155	0.089	0.205
-441.807	-78.407	0.092	-0.031
-440.792	141.399	0.010	-0.014
-439.778	-200.000	-0.058	-0.368
-438.763	800.000	0.124	0.518
-437.749	-200.000	-0.011	-0.097
-436.734	-200.000	-0.017	-0.101
-435.719	58.778	-0.127	-0.124
-434.705	8.913	0.115	0.086
-433.690	51.148	-0.154	0.145
-432.676	-200.000	-0.032	-0.146
-431.661	387.594	-0.059	-0.121
-430.646	800.000	-0.012	-0.041
-429.632	-41.476	0.213	-0.108
-428.617	85.478	-0.382	0.415
-427.603	267.540	-0.124	0.214
-426.588	-123.513	0.355	-0.056
-425.573	55.014	0.211	0.201
-424.559	430.076	0.045	-0.096
-423.544	271.799	-0.172	0.300
-422.530	105.705	0.159	-0.185
-421.515	-200.000	-0.010	-0.182
-420.500	-10.877	-0.141	0.092
-419.486	69.537	0.052	-0.053
-418.471	-119.490	0.170	0.029
-417.457	-5.439	0.072	0.049
-416.442	173.278	-0.097	0.139
-415.428	-200.000	0.082	-0.378
-414.413	800.000	-0.077	0.320
-413.398	28.938	0.202	-0.169
-412.384	668.646	-0.144	0.367
-411.369	18.860	-0.130	-0.103
-410.355	287.211	-0.035	0.062
-409.340	-44.465	-0.132	-0.065
-408.325	137.444	-0.128	-0.166
-407.311	-47.842	0.194	0.093
-406.296	54.695	0.103	-0.098
-405.282	572.108	0.056	0.136
-404.267	386.980	-0.047	0.097
-403.252	-200.000	-0.033	0.248
-402.238	184.241	-0.168	-0.245
-401.223	41.739	-0.121	-0.108
-400.209	-76.426	-0.098	0.034
-399.194	28.546	0.174	-0.145
-398.179	-59.025	-0.101	-0.043
-397.165	321.302	-0.145	0.272
-396.150	-200.000	0.003	0.178
-395.136	-165.824	-0.146	0.006
-394.121	320.276	-0.078	0.146
-393.106	-181.391	-0.313	0.006
-392.092	56.963	0.132	-0.127
-391.077	-63.831	-0.229	0.093
-390.063	-54.868	-0.078	-0.035
-389.048	69.237	-0.144	-0.146
-388.033	-91.882	-0.087	-0.024
-387.019	-148.688	0.366	-0.029
-386.004	-200.000	0.057	-0.298
-384.990	-185.283	-0.176	-0.003
-383.975	233.110	0.088	-0.143
-382.960	68.569	-0.232	0.234
-381.946	101.086	-0.273	0.313
-380.931	57.393	-0.292	0.282
-379.917	279.809	-0.187	-0.330
-378.902	800.000	-0.081	0.227
-377.888	-72.161	0.217	-0.079
-376.873	757.173	-0.102	-0.272
-375.858	-37.536	-0.394	0.207
-374.844	58.853	0.188	0.182
-373.829	-200.000	0.011	-0.049
-372.815	-200.000	0.014	0.182
-371.800	276.434	-0.142	-0.249
-370.785	-23.130	0.270	0.160
-369.771	-200.000	-0.020	0.090
-368.756	-200.000	0.017	0.140
-367.742	179.514	0.187	-0.270
-366.727	800.000	0.042	-0.138
-365.712	-55.422	0.228	-0.101
-364.698	4.101	-0.587	0.423
-363.683	-200.000	-0.016	-0.240
-362.669	-120.806	-0.237	-0.039
-361.654	129.583	0.077	-0.097
-360.639	-28.805	0.182	-0.103
-359.625	13.821	0.132	0.101
-358.610	110.807	0.115	0.136
-357.596	450.126	-0.096	-0.209
-356.581	138.052	-0.077	0.099
-355.566	-84.967	-0.192	-0.059
-354.552	13.713	0.215	-0.164
-353.537	800.000	-0.095	0.325
-352.523	333.475	-0.106	0.202
-351.508	285.652	-0.064	-0.114
-350.493	-70.510	-0.120	0.045
-349.479	800.000	-0.062	0.180
-348.464	81.655	0.275	0.293
-347.450	-129.506	-0.329	-0.045
-346.435	-2.162	-0.141	-0.097
-345.420	592.483	-0.041	0.100
-344.406	261.083	0.121	0.206
-343.391	356.638	0.085	0.167
-342.377	-31.720	-0.275	0.152
-341.362	116.050	-0.100	-0.120
-340.348	72.429	-0.163	0.167
-339.333	-82.873	0.389	-0.124
-338.318	50.288	-0.108	0.101
-337.304	-57.556	0.233	0.101
-336.289	0.666	0.234	0.165
-335.275	800.000	-0.088	-0.280
-334.260	-97.407	-0.231	-0.059
-333.245	-200.000	-0.001	-0.278
-332.231	-200.000	0.033	0.166
-331.216	372.246	0.094	0.188
-330.202	-99.601	-0.189	-0.047
-329.187	-68.519	-0.113	0.043
-328.172	-114.383	0.186	-0.035
-327.158	-65.640	0.178	0.070
-326.143	-61.434	-0.047	0.019
-325.129	438.612	-0.132	-0.283
-324.114	-163.528	0.175	0.008
-323.099	226.868	0.037	0.059
-322.085	79.970	-0.034	-0.036
-321.070	-200.000	-0.019	-0.141
-320.056	126.306	0.179	0.222
-319.041	800.000	-0.040	0.158
-318.026	131.174	0.223	0.282
-317.012	-77.350	0.334	0.114
-315.997	236.096	-0.210	-0.342
-314.983	112.808	-0.298	-0.355
-313.968	-76.751	0.227	-0.078
-312.953	-60.184	-0.149	-0.062
-311.939	-15.956	0.307	0.192
-310.924	-200.000	0.009	-0.083
-309.910	724.828	0.098	0.257
-308.895	-26.211	-0.082	-0.048
-307.880	-200.000	0.040	0.205
-306.866	-200.000	0.001	-0.046
-305.851	41.686	-0.122	0.109
-304.837	-59.103	-0.138	-0.059
-303.822	-141.347	-0.317	-0.032
-302.807	-80.028	0.218	0.072
-301.793	38.675	-0.216	-0.190
-300.778	-32.811	-0.176	0.096
-299.764	-73.066	-0.086	0.031
-298.749	-200.000	-0.114	-0.508
-297.735	414.140	0.088	-0.185
-296.720	-200.000	-0.080	0.386
-295.705	-40.009	-0.152	0.078
-294.691	-3.770	-0.061	-0.042
-293.676	-136.784	0.159	-0.018
-292.662	-58.840	-0.220	0.094
-291.647	355.459	-0.043	0.084
-290.632	-118.981	0.374	-0.064
-289.618	65.173	0.135	0.134
-288.603	-122.714	-0.290	0.046
-287.589	39.227	0.146	-0.128
-286.574	-134.946	0.217	0.026
-285.559	311.375	0.158	-0.290
-284.545	461.987	-0.125	-0.274
-283.530	-150.361	0.141	-0.011
-282.516	-200.000	0.014	0.136
-281.501	-23.966	0.228	-0.134
-280.486	800.000	0.116	-0.432
-279.472	-136.252	-0.242	-0.028
-278.457	183.051	-0.139	0.201
-277.443	248.700	-0.195	0.325
-276.428	800.000	-0.127	0.361
-275.413	-89.339	-0.220	0.064
-274.399	-151.308	-0.103	-0.008
-273.384	393.031	0.230	0.471
-272.370	-200.000	-0.065	0.348
-271.355	-69.343	0.212	-0.080
-270.340	-153.409	-0.343	-0.023
-269.326	800.000	0.029	0.095
-268.311	-122.857	-0.179	-0.028
-267.297	49.287	-0.239	-0.221
-266.282	-200.000	-0.021	0.356
-265.267	800.000	-0.089	-0.275
-264.253	-182.920	0.321	0.006
-263.238	800.000	0.060	-0.248
-262.224	596.770	-0.024	-0.059
-261.209	77.806	-0.130	-0.136
-260.195	-79.373	0.233	-0.077
-259.180	427.900	-0.085	-0.180
-258.165	-126.816	0.204	0.030
-257.151	33.009	-0.237	0.201
-256.136	637.268	0.125	-0.312
-255.122	-94.555	0.206	-0.055
-254.107	-200.000	-0.053	0.270
-253.092	-66.015	0.146	-0.057
-252.078	31.027	0.259	0.218
-251.063	-200.000	0.028	-0.123
-250.049	-63.866	0.112	0.045
-249.034	-200.000	-0.023	0.350
-248.019	-200.000	0.019	-0.270
-247.005	-55.881	-0.334	-0.146
-245.990	-131.142	0.086	0.011
-244.976	141.754	-0.126	-0.163
-243.961	800.000	-0.041	0.155
-242.946	-26.619	-0.030	-0.017
-241.932	-41.325	-0.197	-0.100
-240.917	800.000	0.044	-0.153
-239.903	-40.781	0.120	0.061
-238.888	317.466	0.187	-0.347
-237.873	-46.459	-0.138	-0.067
-236.859	164.225	0.134	0.186
-235.844	279.214	-0.115	-0.200
-234.830	-132.199	0.218	-0.028
-233.815	-98.797	0.527	0.131
-232.800	181.316	-0.180	-0.260
-231.786	387.005	-0.055	0.112
-230.771	-162.984	-0.215	0.010
-229.757	54.689	-0.160	0.151
-228.742	-200.000	0.020	0.268
-227.727	-50.099	-0.143	-0.066
-226.713	-58.093	0.074	0.032
-225.698	9.670	0.125	0.093
-224.684	-27.129	0.031	0.018
-223.669	0.321	0.092	-0.064
-222.655	26.246	-0.191	0.156
-221.640	44.829	0.105	-0.094
-220.625	-81.447	0.179	-0.058
-219.611	53.087	-0.110	-0.103
-218.596	37.002	-0.309	0.268
-217.582	28.133	0.170	0.141
-216.567	135.029	-0.150	0.191
-215.552	149.742	0.075	-0.100
-214.538	384.053	0.143	-0.288
-213.523	-28.618	-0.117	-0.066
-212.509	36.340	0.182	0.157
-211.494	-13.459	0.032	0.020
-210.479	197.431	-0.120	-0.179
-209.465	-200.000	-0.002	0.107
-208.450	800.000	-0.081	-0.346
-207.436	241.542	-0.127	0.208
-206.421	153.731	-0.107	0.144
-205.406	-115.450	-0.122	-0.023
-204.392	-200.000	-0.005	0.230
-203.377	103.754	0.119	-0.137
-202.363	-35.975	-0.201	-0.107
-201.348	-200.000	0.040	-0.195
-200.333	274.964	0.212	-0.368
-199.319	266.984	0.015	0.025
-198.304	-100.197	-0.399	0.097
-197.290	-183.316	-0.191	0.003
-196.275	-200.000	-0.000	0.044
-195.260	-49.631	0.042	-0.020
-194.246	-82.918	-0.095	-0.030
-193.231	101.134	0.072	0.082
-192.217	301.883	0.144	0.260
-191.202	-129.355	0.191	-0.026
-190.187	430.950	-0.128	0.271
-189.173	-67.933	-0.352	0.135
-188.158	-89.105	0.213	0.062
-187.144	-139.293	0.396	0.042
-186.129	-174.853	-0.087	-0.002
-185.114	800.000	-0.091	0.362
-184.100	800.000	0.037	0.135
-183.085	157.064	-0.159	-0.215
-182.071	-80.622	0.295	0.096
-181.056	-80.672	0.538	0.175
-180.042	218.486	0.045	-0.070
-179.027	-200.000	0.004	0.218
-178.012	103.816	0.097	0.112
-176.998	22.433	0.043	0.035
-175.983	50.243	-0.084	0.078
-174.969	800.000	-0.040	-0.160
-173.954	-112.200	-0.012	0.002
-172.939	288.194	0.158	-0.279
-171.925	800.000	-0.089	0.282
-170.910	-101.718	0.228	0.054
-169.896	75.643	0.135	-0.139
-168.881	-93.117	0.186	0.051
-167.866	-59.236	-0.155	0.065
-166.852	-200.000	-0.004	-0.068
-165.837	26.423	0.066	0.054
-164.823	-200.000	-0.049	-0.239
-163.808	800.000	0.085	-0.312
-162.793	240.310	0.045	-0.074
-161.779	800.000	-0.027	0.097
-160.764	-156.013	-0.168	-0.010
-159.750	-184.432	-0.085	-0.001
-158.735	-118.940	-0.240	-0.041
-157.720	800.000	0.070	-0.217
-156.706	-124.348	-0.156	0.024
-155.691	800.000	-0.036	-0.138
-154.677	56.166	0.170	0.161
-153.662	790.278	-0.077	-0.207
-152.647	-70.110	0.145	-0.054
-151.633	800.000	-0.075	-0.217
-150.618	67.496	0.088	-0.087
-149.604	190.593	-0.110	-0.162
-148.589	800.000	-0.056	-0.222
-147.574	-84.836	0.155	0.048
-146.560	748.116	0.094	-0.247
-145.545	-112.296	0.450	0.088
-144.531	280.819	0.095	0.165
-143.516	73.632	0.144	0.147
-142.502	-200.000	-0.015	0.324
-141.487	39.866	-0.077	0.068
-140.472	-54.401	-0.020	-0.009
-139.458	308.627	0.108	0.197
-138.443	-168.607	-0.363	-0.013
-137.429	-200.000	0.010	-0.373
-136.414	47.526	0.228	-0.208
-135.399	-98.529	0.242	0.060
-134.385	53.387	0.119	0.112
-133.370	-109.377	0.225	-0.047
-132.356	54.833	0.187	-0.176
-131.341	62.328	-0.225	0.219
-130.326	-67.552	-0.254	0.097
-129.312	60.407	0.125	0.121
-128.297	-30.053	0.126	0.070
-127.283	189.692	0.070	0.102
-126.268	-200.000	-0.001	-0.024
-125.253	-138.409	0.146	-0.016
-124.239	800.000	0.073	-0.260
-123.224	89.540	-0.225	0.245
-122.210	-200.000	0.029	0.367
-121.195	660.175	-0.039	0.099
-120.180	-200.000	-0.013	-0.149
-119.166	113.794	-0.169	-0.200
-118.151	-200.000	-0.028	0.385
-117.137	800.000	-0.041	0.119
-116.122	540.833	0.107	0.248
-115.107	-200.000	-0.006	0.108
-114.093	-74.096	-0.231	0.082
-113.078	48.446	0.065	-0.060
-112.064	127.388	0.061	0.075
-111.049	407.215	0.110	-0.228
-110.034	31.730	0.134	-0.112
-109.020	-43.483	0.136	0.067
-108.005	-131.712	0.484	0.062
-106.991	94.465	-0.118	0.130
-105.976	-200.000	-0.114	0.504
-104.962	-200.000	0.090	0.487
-103.947	-75.871	0.055	-0.019
-102.932	-90.397	0.135	0.038
-101.918	-131.478	-0.210	-0.027
-100.903	-111.806	0.028	-0.006
-99.889	-145.629	-0.173	-0.015
-98.874	-200.000	0.008	0.318
-97.859	41.628	-0.237	0.210
-96.845	443.157	0.022	0.048
-95.830	-105.296	0.146	-0.032
-94.816	54.576	-0.274	-0.258
-93.801	449.946	0.124	0.267
-92.786	141.074	0.127	0.164
-91.772	18.895	-0.291	-0.227
-90.757	-157.756	0.123	-0.007
-89.743	-80.525	0.363	-0.118
-88.728	-200.000	0.016	-0.112
-87.713	-127.237	-0.290	0.041
-86.699	371.024	-0.117	0.230
-85.684	660.553	-0.124	0.312
-84.670	185.517	-0.179	0.259
-83.655	0.497	0.268	0.187
-82.640	-172.957	0.294	0.009
-81.626	-82.878	-0.095	-0.030
-80.611	-200.000	0.042	0.506
-79.597	10.779	-0.257	0.191
-78.582	765.578	0.091	0.242
-77.567	-43.476	-0.083	-0.041
-76.553	169.199	0.280	0.389
-75.538	-71.339	-0.166	0.061
-74.524	-200.000	0.006	0.035
-73.509	-200.000	0.059	-0.335
-72.494	-129.132	-0.179	0.024
-71.480	-66.267	0.226	0.087
-70.465	180.009	0.056	0.080
-69.451	236.016	-0.158	-0.254
-68.436	286.867	-0.042	0.074
-67.422	-139.162	-0.204	-0.022
-66.407	-200.000	0.033	-0.182
-65.392	217.633	-0.135	0.209
-64.378	-15.816	-0.247	-0.153
-63.363	746.964	-0.132	-0.347
-62.349	-108.417	0.446	-0.094
-61.334	39.778	-1.124	-0.982
-60.319	238.653	0.395	0.640
-59.305	800.000	-0.363	-1.395
-58.290	369.629	0.806	1.590
-57.276	800.000	0.503	1.785
-56.261	-200.000	121.371	644.967
-55.246	437.505	1536.532	3260.906
-54.232	149.051	2685.731	3537.181
-53.217	98.787	2157.309	2423.870
-52.203	34.945	1683.224	1434.365
-51.188	27.451	1501.795	1229.343
-50.173	25.357	1478.769	1196.507
-49.159	49.098	1548.152	1415.791
-48.144	46.683	1561.796	1411.704
-47.130	27.438	1511.322	1236.854
-46.115	24.455	1495.656	1203.897
-45.100	24.325	1492.180	1200.180
-44.086	24.359	1490.088	1198.678
-43.071	24.261	1488.173	1196.432
-42.057	24.261	1486.548	1195.078
-41.042	24.318	1485.215	1194.343
-40.027	24.249	1483.977	1192.837
-39.013	24.265	1482.021	1191.326
-37.998	24.277	1480.843	1190.408
-36.984	24.187	1479.881	1188.987
-35.969	24.310	1478.209	1188.418
-34.954	24.264	1476.830	1186.957
-33.940	24.248	1475.623	1185.829
-32.925	24.335	1474.453	1185.419
-31.911	24.263	1472.990	1183.718
-30.896	24.253	1471.861	1182.700
-29.881	24.298	1470.749	1182.057
-28.867	24.428	1468.787	1181.291
-27.852	24.327	1467.816	1179.801
-26.838	24.439	1466.421	1179.374
-25.823	24.340	1465.235	1177.717
-24.809	24.241	1463.588	1175.695
-23.794	24.393	1462.161	1175.504
-22.779	24.259	1461.233	1173.827
-21.765	24.362	1459.838	1173.337
-20.750	24.333	1459.168	1172.561
-19.736	24.409	1457.386	1171.583
-18.721	24.346	1456.284	1170.237
-17.706	24.291	1455.800	1169.441
-16.692	24.294	1454.528	1168.389
-15.677	24.306	1453.500	1167.599
-14.663	24.272	1452.707	1166.689
-13.648	24.344	1451.536	1166.173
-12.633	24.228	1451.049	1164.981
-11.619	24.344	1449.840	1164.718
-10.604	24.266	1449.277	1163.710
-9.590	24.244	1448.468	1162.877
-8.575	24.287	1447.445	1162.287
-7.560	24.354	1446.437	1161.868
-6.546	24.277	1445.639	1160.677
-5.531	24.232	1444.856	1159.708
-4.517	24.202	1444.213	1158.954
-3.502	24.323	1442.485	1158.305
-2.487	24.325	1441.803	1157.726
-1.473	24.243	1441.087	1156.571
-0.458	24.268	1439.763	1155.629
0.556	23.153	1430.025	1144.034
1.571	19.914	1405.405	1103.624
2.586	16.338	1343.413	1033.014
3.600	14.792	1261.333	960.931
4.615	13.838	1218.239	922.717
5.629	12.275	1162.477	872.105
6.644	6.438	1081.735	782.537
7.659	1.548	1045.656	732.846
8.673	0.949	1040.405	726.229
9.688	0.767	1037.538	723.294
10.702	0.785	1036.069	722.291
11.717	0.659	1034.021	720.196
12.731	2.577	1035.020	729.976
13.746	9.010	1043.388	766.627
14.761	15.210	1050.786	801.747
15.775	17.193	1053.430	813.197
16.790	16.916	1051.876	810.601
17.804	16.013	1049.838	804.648
18.819	15.182	1048.478	799.570
19.834	14.653	1046.840	795.727
20.848	14.439	1045.808	793.855
21.863	14.144	1045.602	792.221
22.877	14.035	1043.963	790.392
23.892	13.779	1043.644	788.862
24.907	13.602	1042.514	787.101
25.921	13.592	1042.077	786.652
26.936	13.627	1041.213	786.099
27.950	13.677	1040.593	785.795
28.965	13.628	1039.815	784.906
29.980	13.821	1038.740	784.937
30.994	13.823	1038.096	784.391
32.009	13.742	1037.572	783.543
33.023	13.932	1036.370	783.465
34.038	13.889	1035.832	782.783
35.053	13.949	1034.861	782.265
36.067	13.955	1034.151	781.685
37.082	13.703	1033.372	779.844
38.096	13.748	1032.488	779.320
39.111	13.947	1031.561	779.483
40.126	13.818	1031.142	778.493
41.140	13.754	1029.917	777.201
42.155	13.777	1028.790	776.389
43.169	13.732	1028.222	775.679
44.184	13.624	1027.353	774.453
45.199	13.661	1026.371	773.817
46.213	13.808	1024.847	773.282
47.228	13.695	1024.119	772.137
48.242	13.745	1023.071	771.513
49.257	13.844	1022.270	771.300
50.271	13.761	1021.485	770.253
51.286	13.861	1020.215	769.696
52.301	13.867	1019.617	769.202
53.315	13.811	1018.971	768.389
54.330	13.714	1018.126	767.236
55.344	13.839	1016.933	766.844
56.359	13.769	1015.991	765.741
57.374	13.778	1015.399	765.271
58.388	13.829	1014.030	764.407
59.403	13.683	1013.653	763.384
60.417	13.665	1012.706	762.518
61.432	13.746	1012.195	762.440
62.447	13.650	1011.494	761.400
63.461	13.664	1010.547	760.688
64.476	13.732	1009.718	760.308
65.490	13.661	1008.826	759.241
66.505	13.689	1007.875	758.590
67.520	13.646	1007.288	757.883
68.534	13.676	1006.333	757.235
69.549	13.713	1005.862	756.980
70.563	13.707	1005.193	756.384
71.578	13.655	1004.520	755.575
72.593	13.667	1003.473	754.774
73.607	13.635	1002.529	753.851
74.622	13.694	1001.299	753.129
75.636	13.714	1000.476	752.534
76.651	13.460	1000.193	751.100
77.666	13.613	998.910	750.766
78.680	13.635	998.699	750.640
79.695	13.648	998.562	750.530
80.709	13.794	997.163	750.069
81.724	13.502	996.957	748.530
82.739	13.614	995.916	748.185
83.753	13.761	994.776	747.925
84.768	13.808	994.499	747.865
85.782	13.869	993.087	747.011
86.797	13.904	992.658	746.782
87.812	13.816	992.146	745.932
88.826	13.732	990.972	744.608
89.841	13.821	990.560	744.630
90.855	13.772	989.436	743.500
91.870	13.848	988.511	743.079
92.884	13.774	988.060	742.344
93.899	13.956	987.191	742.441
94.914	14.023	986.334	742.030
95.928	14.089	985.523	741.648
96.943	13.953	984.940	740.538
97.957	13.949	984.063	739.794
98.972	13.917	983.528	739.183
99.987	13.818	983.170	738.409
101.001	14.057	982.055	738.570
102.016	13.919	981.256	737.289
103.030	13.894	980.405	736.475
104.045	13.959	979.223	735.808
105.060	13.895	978.283	734.755
106.074	13.828	977.886	734.092
107.089	13.833	976.384	732.925
108.103	13.785	976.212	732.517
109.118	13.807	974.925	731.582
110.133	13.850	974.100	731.087
111.147	13.800	973.442	730.310
112.162	13.660	972.783	729.137
113.176	13.753	971.515	728.528
114.191	13.858	970.699	728.315
115.206	13.947	969.546	727.775
116.220	13.837	969.323	727.060
117.235	14.034	967.860	726.759
118.249	13.812	967.503	725.457
119.264	13.953	966.219	725.047
120.279	13.852	965.814	724.237
121.293	13.771	965.133	723.309
122.308	13.848	964.301	722.957
123.322	13.857	963.539	722.361
124.337	13.794	962.384	721.159
125.352	13.778	961.461	720.332
126.366	13.716	960.243	719.090
127.381	13.857	958.788	718.547
128.395	13.908	958.017	718.124
129.410	13.844	956.933	716.971
130.424	13.892	956.204	716.570
131.439	13.855	955.414	715.753
132.454	13.778	954.376	714.583
133.468	13.981	953.579	714.794
134.483	13.858	953.662	714.267
135.497	13.698	952.639	712.747
136.512	13.789	951.744	712.409
137.527	13.717	950.859	711.370
138.541	13.831	950.339	711.408
139.556	13.961	949.304	711.125
140.570	13.873	948.931	710.407
141.585	13.924	948.047	709.903
142.600	13.924	947.338	709.307
143.614	13.896	947.113	708.955
144.629	14.028	946.282	708.836
145.643	13.951	945.384	707.771
146.658	13.987	944.287	707.042
147.673	13.967	943.187	706.071
148.687	13.965	942.516	705.498
149.702	13.979	941.928	705.056
150.716	13.946	941.055	704.197
151.731	14.082	940.163	704.044
152.746	13.975	939.526	703.054
153.760	13.960	939.082	702.597
154.775	13.959	937.805	701.573
155.789	14.076	937.093	701.473
156.804	13.973	936.594	700.600
157.819	14.108	935.578	700.348
158.833	14.033	935.593	699.984
159.848	14.064	934.511	699.241
160.862	14.222	933.828	699.331
161.877	14.377	932.575	698.984
162.892	14.163	932.565	698.013
163.906	14.040	931.596	696.711
164.921	14.074	930.655	696.090
165.935	14.113	929.555	695.369
166.950	13.945	929.126	694.282
167.964	14.136	927.923	694.122
168.979	14.170	926.770	693.338
169.994	14.090	926.087	692.433
171.008	14.186	925.385	692.245
172.023	14.144	924.362	691.243
173.037	14.242	923.886	691.235
174.052	14.258	922.587	690.267
175.067	14.071	922.553	689.407
176.081	14.154	921.793	689.121
177.096	14.190	921.298	688.839
178.110	14.295	920.002	688.244
179.125	14.304	919.318	687.709
180.140	14.127	918.551	686.344
181.154	14.174	918.036	686.091
182.169	14.152	917.078	685.225
183.183	14.369	916.247	685.437
184.198	14.541	915.617	685.612
185.213	14.370	915.199	684.533
186.227	14.463	914.209	684.115
187.242	14.407	914.125	683.760
188.256	14.459	913.439	683.403
189.271	14.430	912.598	682.592
190.286	14.416	911.793	681.875
191.300	14.442	911.080	681.386
192.315	14.258	910.486	680.129
193.329	14.270	909.728	679.552
194.344	14.358	909.010	679.315
195.359	14.447	908.197	679.010
196.373	14.356	907.806	678.287
197.388	14.493	907.429	678.503
198.402	14.581	906.541	678.135
199.417	14.626	906.197	678.001
200.432	14.628	906.181	677.937
201.446	14.671	905.587	677.608
202.461	14.618	905.161	677.016
203.475	14.693	904.651	676.877
204.490	14.759	903.955	676.564
205.504	14.767	902.924	675.765
206.519	14.675	902.045	674.674
207.534	14.621	901.598	674.064
208.548	14.644	900.625	673.367
209.563	14.604	900.496	673.050
210.577	14.513	899.688	672.022
211.592	14.761	898.625	672.166
212.607	14.782	898.520	672.113
213.621	14.819	897.818	671.675
214.636	14.840	896.921	671.028
215.650	14.895	896.302	670.729
216.665	14.752	895.895	669.791
217.680	14.933	895.300	670.010
218.694	14.876	894.610	669.208
219.709	14.852	894.455	668.938
220.723	14.884	893.773	668.496
221.738	14.754	893.126	667.431
222.753	14.868	892.567	667.410
223.767	14.979	891.154	666.737
224.782	15.088	890.343	666.507
225.796	15.062	890.050	666.125
226.811	15.266	889.209	666.249
227.826	15.003	888.706	664.768
228.840	14.939	888.542	664.332
229.855	14.996	887.632	663.816
230.869	14.922	886.998	662.992
231.884	15.042	886.050	662.700
232.899	14.877	885.723	661.744
233.913	14.957	885.144	661.569
234.928	15.101	884.094	661.294
235.942	15.013	883.484	660.432
236.957	14.967	883.166	659.955
237.972	15.025	882.459	659.595
238.986	15.096	881.533	659.126
240.001	14.997	881.030	658.300
241.015	15.031	880.495	657.976
242.030	14.998	879.640	657.149
243.045	15.124	879.041	657.139
244.059	15.071	878.928	656.789
245.074	15.061	878.221	656.165
246.088	15.115	877.647	655.887
247.103	15.147	876.604	655.174
248.117	15.270	876.117	655.233
249.132	15.287	874.984	654.394
250.147	15.324	874.902	654.419
251.161	15.410	873.924	653.965
252.176	15.446	873.324	653.601
253.190	15.405	872.890	653.058
254.205	15.446	872.661	652.987
255.220	15.531	871.709	652.547
256.234	15.389	871.095	651.477
257.249	15.400	870.619	651.109
258.263	15.534	869.653	650.846
259.278	15.468	869.362	650.318
260.293	15.527	868.831	650.089
261.307	15.412	868.659	649.460
262.322	15.591	867.877	649.507
263.336	15.767	866.965	649.448
264.351	15.654	866.500	648.607
265.366	15.613	866.113	648.101
266.380	15.701	865.405	647.853
267.395	15.779	864.339	647.298
268.409	15.769	863.565	646.622
269.424	15.634	862.961	645.593
270.439	15.634	862.632	645.290
271.453	15.730	861.436	644.709
272.468	15.743	861.023	644.393
273.482	15.751	860.455	643.940
274.497	15.802	860.057	643.782
275.512	15.811	858.829	642.838
276.526	15.897	858.232	642.665
277.541	15.812	858.120	642.198
278.555	15.767	857.708	641.660
279.570	15.896	856.544	641.226
280.585	15.805	856.433	640.738
281.599	15.928	855.545	640.486
282.614	15.897	855.156	640.021
283.628	15.909	854.453	639.484
284.643	15.830	853.967	638.764
285.657	15.820	853.492	638.312
286.672	15.977	852.831	638.357
287.687	16.024	852.272	638.061
288.701	15.934	851.964	637.431
289.716	15.962	851.422	637.077
290.730	15.959	850.578	636.377
291.745	16.030	849.864	636.054
292.760	16.031	849.338	635.607
293.774	16.205	848.404	635.510
294.789	16.145	848.168	635.048
295.803	16.105	847.841	634.598
296.818	16.132	847.162	634.134
297.833	16.173	846.214	633.524
298.847	16.128	845.689	632.906
299.862	16.125	844.832	632.196
300.876	16.197	844.237	631.964
301.891	16.244	843.545	631.566
302.906	16.182	843.133	630.971
303.920	16.232	842.364	630.528
304.935	16.366	841.870	630.600
305.949	16.286	841.354	629.862
306.964	16.472	840.639	629.962
307.979	16.267	840.135	628.766
308.993	16.293	839.659	628.452
310.008	16.335	838.966	628.032
311.022	16.402	838.731	628.050
312.037	16.506	837.845	627.715
313.052	16.510	837.386	627.332
314.066	16.485	837.101	626.971
315.081	16.308	836.574	625.866
316.095	16.476	835.767	625.829
317.110	16.396	835.099	624.977
318.125	16.514	834.317	624.773
319.139	16.486	833.935	624.325
320.154	16.451	833.863	624.090
321.168	16.464	833.023	623.452
322.183	16.371	832.413	622.599
323.197	16.412	832.276	622.593
324.212	16.525	831.392	622.292
325.227	16.597	830.616	621.921
326.241	16.420	830.694	621.274
327.256	16.566	829.904	621.163
328.270	16.501	829.313	620.427
329.285	16.581	828.863	620.330
330.300	16.546	828.076	619.558
331.314	16.602	827.681	619.410
332.329	16.525	827.117	618.653
333.343	16.544	826.436	618.158
334.358	16.587	826.047	617.968
335.373	16.781	825.719	618.376
336.387	16.721	824.862	617.461
337.402	16.587	824.656	616.764
338.416	16.741	823.935	616.732
339.431	16.768	823.340	616.331
340.446	16.685	822.806	615.573
341.460	16.841	822.034	615.508
342.475	17.020	821.217	615.491
343.489	16.885	821.261	614.982
344.504	17.017	820.513	614.843
345.519	16.991	819.896	614.232
346.533	17.053	819.547	614.141
347.548	16.933	819.466	613.593
348.562	16.847	819.136	612.979
349.577	16.930	818.158	612.496
350.592	16.864	817.885	611.997
351.606	16.881	817.343	611.599
352.621	16.885	816.774	611.135
353.635	17.029	816.129	611.115
354.650	16.943	816.014	610.666
355.665	16.833	815.932	610.156
356.679	17.133	814.802	610.333
357.694	17.033	814.248	609.507
358.708	17.004	813.652	608.902
359.723	17.247	813.054	609.270
360.738	16.999	812.596	607.987
361.752	17.047	812.241	607.840
362.767	17.176	811.579	607.750
363.781	17.080	811.441	607.251
364.796	17.189	811.121	607.345
365.810	17.141	810.415	606.593
366.825	17.462	810.133	607.475
367.840	17.270	809.867	606.536
368.854	17.183	809.384	605.808
369.869	17.149	809.084	605.409
370.883	17.152	808.560	604.975
371.898	17.275	807.933	604.890
372.913	17.291	807.038	604.225
373.927	17.397	806.703	604.295
374.942	17.568	805.703	604.102
375.956	17.409	805.056	603.000
376.971	17.431	804.908	602.910
377.986	17.498	804.113	602.499
379.000	17.538	803.885	602.417
380.015	17.461	803.359	601.698
381.029	17.621	802.612	601.650
382.044	17.406	802.191	600.522
383.059	17.557	801.522	600.501
384.073	17.481	801.125	599.881
385.088	17.491	800.740	599.576
386.102	17.552	800.325	599.429
387.117	17.568	799.620	598.901
388.132	17.493	798.994	598.117
389.146	17.574	798.806	598.206
390.161	17.649	798.707	598.345
391.175	17.582	798.415	597.839
392.190	17.669	797.883	597.691
393.205	17.569	797.288	596.842
394.219	17.693	796.703	596.787
395.234	17.643	795.981	596.018
396.248	17.603	795.884	595.751
397.263	17.554	795.375	595.148
398.278	17.612	794.812	594.877
399.292	17.558	794.862	594.671
400.307	17.587	794.176	594.209
401.321	17.691	793.830	594.258
402.336	17.728	792.959	593.681
403.350	17.753	792.887	593.664
404.365	17.760	792.627	593.442
405.380	17.658	792.070	592.614
406.394	17.761	791.630	592.591
407.409	17.794	791.247	592.367
408.423	17.840	790.974	592.271
409.438	17.887	789.941	591.608
410.453	18.012	789.768	591.858
411.467	17.935	789.486	591.330
412.482	18.127	788.766	591.401
413.496	17.969	788.471	590.582
414.511	17.983	788.245	590.406
415.526	18.022	787.508	589.937
416.540	18.093	787.111	589.835
417.555	17.995	786.720	589.151
418.569	17.934	786.514	588.734
419.584	18.000	786.209	588.680
420.599	18.063	785.365	588.214
421.613	115.974	1295.749	1489.880
422.628	99.709	1370.097	1489.989
