DTS Sentinel unit serial number:	SN413079Multiplexer serial number:	ORYXHardware model number:	OX4-SRSoftware version number:	ORYX F/W v4.00 Oryx Data Collector v3.7.2.0data status	okinstallation	princeton_trtdifferential loss correction	single-endedforward channel	channel 3reverse channel	N/Adate	2019/09/15time	08:44:35forward acquisition time	60.00reverse acquisition time	0.00gamma	496.2192k internal	0.2318k external	0.2318temperature offset calibration	0.9976default loss term (dB/km)	0.3790temperature slope calibration	1.0000multiplexer offset coefficient	1.0000multiplexer slope coefficient	1.0000fibre end	0.00T internal ref (°C)	32.16T ext. ref 1 (°C)	4.98T ext. ref 2 (°C)	29.40length (m)	temperature (°C)	Stokes	anti-Stokes-747.200	375.178	0.251	-0.519
-746.185	-64.130	-0.211	0.087
-745.171	446.429	-0.126	-0.281
-744.156	-75.474	0.144	0.052
-743.142	11.947	-0.209	-0.163
-742.127	-136.100	-0.032	0.004
-741.112	-114.646	-0.251	0.049
-740.098	-41.395	0.112	0.058
-739.083	262.137	-0.123	0.216
-738.069	-81.031	-0.067	-0.023
-737.054	6.953	-0.112	-0.084
-736.039	310.280	0.088	-0.168
-735.025	260.130	0.120	0.210
-734.010	16.845	0.100	-0.080
-732.996	592.171	-0.117	-0.291
-731.981	-43.723	-0.123	0.063
-730.966	-13.118	-0.121	-0.080
-729.952	800.000	0.085	0.241
-728.937	190.928	0.107	0.163
-727.923	164.117	-0.144	-0.205
-726.908	135.549	-0.162	0.213
-725.894	407.292	-0.020	-0.043
-724.879	-200.000	0.020	-0.412
-723.864	-38.443	-0.288	-0.154
-722.850	-56.536	-0.201	0.090
-721.835	-104.632	-0.032	-0.007
-720.821	-92.794	-0.168	-0.048
-719.806	43.889	-0.150	0.139
-718.791	-200.000	-0.005	-0.149
-717.777	-200.000	0.035	-0.226
-716.762	-200.000	-0.096	0.429
-715.748	6.361	0.160	-0.120
-714.733	48.215	-0.238	0.225
-713.718	-129.438	-0.184	-0.026
-712.704	79.561	0.185	-0.201
-711.689	-148.769	0.103	0.008
-710.675	-10.461	0.084	0.056
-709.660	-42.250	-0.154	-0.080
-708.645	800.000	-0.011	0.030
-707.631	46.776	0.167	-0.156
-706.616	800.000	-0.074	-0.211
-705.602	-181.393	-0.297	0.006
-704.587	673.962	-0.028	0.074
-703.572	800.000	-0.081	0.270
-702.558	-200.000	-0.250	0.001
-701.543	85.006	-0.086	0.095
-700.529	800.000	0.100	0.298
-699.514	-68.482	0.395	-0.155
-698.499	-89.070	-0.168	0.050
-697.485	98.314	0.058	0.067
-696.470	53.105	0.098	0.095
-695.456	562.823	0.110	-0.268
-694.441	-200.000	-0.088	-0.392
-693.426	800.000	-0.070	0.274
-692.412	-101.858	0.237	-0.058
-691.397	153.822	0.021	0.029
-690.383	-200.000	0.018	0.101
-689.368	-72.788	0.118	0.044
-688.354	704.037	0.094	0.251
-687.339	-79.914	0.283	0.096
-686.324	-200.000	-0.029	-0.247
-685.310	67.838	-0.107	0.110
-684.295	800.000	-0.109	-0.310
-683.281	25.267	-0.081	0.068
-682.266	-84.540	-0.287	0.091
-681.251	126.697	0.215	-0.275
-680.237	-10.506	0.318	-0.213
-679.222	-132.528	0.091	0.012
-678.208	193.520	0.081	-0.124
-677.193	219.677	-0.087	-0.141
-676.178	-148.104	-0.227	-0.019
-675.164	-140.822	0.174	-0.018
-674.149	800.000	0.025	0.077
-673.135	-200.000	0.025	-0.375
-672.120	-82.521	-0.037	0.012
-671.105	675.032	-0.134	0.351
-670.091	-15.548	0.027	-0.017
-669.076	83.064	-0.131	0.144
-668.062	40.182	0.144	0.130
-667.047	-102.470	-0.320	0.077
-666.032	8.912	0.412	0.314
-665.018	-141.959	0.160	0.016
-664.003	-128.211	0.073	-0.011
-662.989	-16.700	-0.019	-0.012
-661.974	159.427	-0.056	-0.078
-660.959	-172.276	-0.036	0.001
-659.945	-198.408	-0.276	0.002
-658.930	-74.052	0.261	0.095
-657.916	42.568	0.002	-0.002
-656.901	533.113	0.019	0.046
-655.886	610.792	-0.117	0.296
-654.872	-100.058	-0.252	-0.063
-653.857	800.000	-0.102	-0.286
-652.843	800.000	-0.096	-0.271
-651.828	-139.147	0.254	0.028
-650.814	482.076	-0.150	0.343
-649.799	-98.861	-0.114	-0.029
-648.784	701.107	0.064	-0.171
-647.770	414.629	-0.037	-0.080
-646.755	-200.000	-0.024	-0.299
-645.741	69.500	-0.229	0.238
-644.726	248.682	-0.042	-0.071
-643.711	-31.095	0.172	-0.098
-642.697	-200.000	-0.024	0.162
-641.682	440.886	-0.146	0.322
-640.668	800.000	0.125	0.391
-639.653	137.275	0.223	-0.293
-638.638	151.563	0.079	-0.109
-637.624	78.987	-0.152	0.164
-636.609	800.000	0.051	-0.186
-635.595	-110.031	-0.129	0.027
-634.580	50.468	0.167	0.159
-633.565	-200.000	0.007	0.247
-632.551	-140.328	-0.063	0.007
-631.536	800.000	0.042	-0.160
-630.522	150.082	-0.199	0.273
-629.507	-21.988	-0.246	-0.150
-628.492	309.913	-0.059	-0.111
-627.478	800.000	-0.049	-0.179
-626.463	-19.341	0.038	0.024
-625.449	552.572	-0.139	-0.337
-624.434	48.937	-0.135	0.128
-623.419	363.260	0.113	-0.229
-622.405	-141.000	0.204	-0.021
-621.390	-106.660	-0.389	-0.087
-620.376	-200.000	-0.029	-0.243
-619.361	28.789	-0.300	-0.256
-618.346	800.000	0.063	-0.233
-617.332	15.289	-0.117	0.093
-616.317	-158.428	-0.328	-0.019
-615.303	-160.612	-0.132	0.007
-614.288	78.955	-0.058	0.062
-613.273	30.348	0.093	0.080
-612.259	63.979	0.036	0.037
-611.244	279.740	0.131	0.236
-610.230	-190.437	-0.187	0.002
-609.215	800.000	0.067	-0.265
-608.201	253.227	0.131	0.225
-607.186	-161.069	-0.355	-0.019
-606.171	-3.678	-0.146	-0.102
-605.157	-109.653	0.270	-0.057
-604.142	-78.497	0.270	-0.093
-603.128	-24.275	0.234	-0.140
-602.113	-100.053	0.142	0.036
-601.098	225.509	-0.127	-0.207
-600.084	24.962	-0.210	0.175
-599.069	168.748	-0.121	-0.173
-598.055	-111.074	-0.141	0.029
-597.040	-200.000	0.031	-0.243
-596.025	258.162	-0.160	-0.277
-595.011	-200.000	-0.038	-0.185
-593.996	800.000	0.039	-0.146
-592.982	306.960	0.077	0.144
-591.967	-79.079	0.167	-0.057
-590.952	-200.000	0.005	0.035
-589.938	-113.324	0.135	-0.027
-588.923	-200.000	0.074	-0.446
-587.909	-177.855	0.179	-0.004
-586.894	68.448	0.125	0.129
-585.879	-200.000	0.023	0.129
-584.865	256.620	0.084	-0.145
-583.850	-80.568	0.047	0.016
-582.836	148.275	0.155	0.211
-581.821	57.855	-0.161	-0.158
-580.806	-82.071	-0.265	-0.087
-579.792	800.000	-0.035	-0.105
-578.777	-40.854	-0.217	-0.113
-577.763	-67.652	-0.017	-0.007
-576.748	118.238	-0.130	0.162
-575.733	-85.042	-0.064	-0.020
-574.719	578.464	0.033	-0.081
-573.704	345.112	0.100	-0.197
-572.690	-83.507	0.132	-0.042
-571.675	156.963	0.101	0.141
-570.661	-134.379	0.357	0.044
-569.646	-200.000	-0.038	-0.270
-568.631	-72.660	-0.271	-0.101
-567.617	194.320	-0.052	-0.078
-566.602	601.590	-0.106	-0.265
-565.588	199.851	-0.191	0.294
-564.573	74.352	0.062	0.065
-563.558	8.081	-0.122	0.092
-562.544	466.974	-0.074	0.166
-561.529	800.000	0.111	-0.393
-560.515	-200.000	-0.016	-0.159
-559.500	-200.000	0.048	-0.236
-558.485	324.236	0.149	-0.286
-557.471	-27.884	-0.218	-0.127
-556.456	-71.201	-0.169	-0.064
-555.442	-200.000	0.055	-0.278
-554.427	6.434	0.092	0.069
-553.412	-154.486	-0.185	0.012
-552.398	800.000	-0.048	0.170
-551.383	800.000	0.025	0.110
-550.369	-40.562	-0.352	-0.183
-549.354	-186.552	0.351	0.005
-548.339	-75.158	0.176	-0.063
-547.325	-135.354	-0.250	-0.030
-546.310	-96.535	-0.102	-0.027
-545.296	-82.080	0.279	-0.092
-544.281	-200.000	0.011	0.198
-543.266	-144.085	-0.296	-0.028
-542.252	800.000	0.048	0.201
-541.237	570.016	-0.115	-0.282
-540.223	334.317	-0.058	-0.113
-539.208	-100.503	-0.482	-0.120
-538.193	800.000	0.016	-0.047
-537.179	98.885	0.196	-0.227
-536.164	67.020	-0.272	0.279
-535.150	-200.000	-0.030	-0.450
-534.135	-103.093	-0.198	0.047
-533.121	-99.524	0.314	0.079
-532.106	19.891	0.276	0.223
-531.091	-58.458	0.064	0.028
-530.077	-200.000	-0.003	-0.037
-529.062	800.000	-0.061	-0.207
-528.048	35.163	-0.037	0.032
-527.033	477.732	-0.055	0.126
-526.018	-66.648	-0.190	0.076
-525.004	15.944	-0.173	-0.137
-523.989	135.911	-0.128	-0.167
-522.975	-86.924	0.248	0.076
-521.960	-200.000	0.025	-0.199
-520.945	-9.439	-0.172	0.115
-519.931	-5.690	0.281	0.193
-518.916	-94.571	0.060	0.016
-517.902	-66.317	0.445	-0.178
-516.887	-81.499	-0.256	0.084
-515.872	212.702	-0.134	0.212
-514.858	-96.084	0.373	0.099
-513.843	-20.341	-0.402	-0.248
-512.829	-9.679	0.177	-0.118
-511.814	800.000	0.029	-0.092
-510.799	-113.568	0.188	-0.037
-509.785	-144.310	-0.388	-0.036
-508.770	-141.088	-0.177	-0.018
-507.756	-200.000	-0.003	0.173
-506.741	-70.686	0.152	-0.058
-505.726	157.296	0.064	0.089
-504.712	-130.277	0.052	-0.007
-503.697	688.547	0.120	0.316
-502.683	272.402	0.114	0.202
-501.668	-43.375	0.206	0.104
-500.653	51.918	-0.109	0.105
-499.639	54.773	0.130	0.126
-498.624	273.227	-0.043	0.077
-497.610	-121.425	-0.115	0.019
-496.595	-105.104	0.342	0.078
-495.581	-97.405	-0.145	-0.038
-494.566	107.796	-0.169	0.202
-493.551	-200.000	-0.001	0.095
-492.537	383.627	-0.073	0.151
-491.522	177.930	-0.111	0.162
-490.508	-200.000	0.051	-0.404
-489.493	-79.999	0.045	0.015
-488.478	-7.286	-0.046	0.032
-487.464	257.758	0.136	0.235
-486.449	-191.734	-0.132	0.001
-485.435	716.886	-0.095	0.254
-484.420	-87.879	-0.342	0.103
-483.405	1.394	0.288	0.207
-482.391	-62.320	-0.229	-0.096
-481.376	-200.000	-0.004	-0.387
-480.362	64.198	-0.176	-0.177
-479.347	322.673	-0.123	-0.235
-478.332	-22.655	-0.201	0.122
-477.318	-131.086	0.126	-0.017
-476.303	-200.000	-0.018	0.114
-475.289	-12.101	-0.166	-0.109
-474.274	-46.460	0.099	0.049
-473.259	655.791	0.070	-0.180
-472.245	89.573	0.139	0.156
-471.230	-164.814	0.199	-0.009
-470.216	23.232	-0.196	0.161
-469.201	-114.660	-0.349	-0.067
-468.186	-78.722	-0.176	-0.060
-467.172	141.838	0.048	-0.063
-466.157	-52.578	-0.010	-0.004
-465.143	-19.781	-0.279	-0.173
-464.128	115.280	-0.252	-0.308
-463.113	123.195	-0.002	-0.002
-462.099	-106.672	-0.279	-0.062
-461.084	110.521	-0.199	-0.239
-460.070	-135.681	-0.108	-0.013
-459.055	-25.899	0.161	-0.095
-458.040	134.685	0.098	-0.128
-457.026	-200.000	-0.043	0.248
-456.011	-95.108	-0.113	-0.031
-454.997	-153.417	0.366	0.025
-453.982	116.071	0.199	-0.244
-452.968	-200.000	-0.041	-0.255
-451.953	-31.748	-0.153	0.086
-450.938	-112.185	0.211	-0.042
-449.924	-200.000	-0.023	0.201
-448.909	178.086	0.088	-0.129
-447.895	55.824	-0.184	-0.178
-446.880	108.377	-0.244	-0.292
-445.865	89.100	0.338	0.376
-444.851	30.496	0.157	-0.134
-443.836	-75.651	0.037	0.013
-442.822	-200.000	-0.041	0.298
-441.807	-103.923	0.134	0.031
-440.792	32.951	-0.127	0.110
-439.778	90.501	0.293	-0.328
-438.763	800.000	-0.038	-0.115
-437.749	-82.101	-0.219	0.072
-436.734	210.207	0.111	0.174
-435.719	228.594	0.059	-0.096
-434.705	-200.000	0.000	-0.065
-433.690	40.063	0.214	0.192
-432.676	76.208	-0.113	-0.120
-431.661	0.885	-0.175	-0.125
-430.646	-31.198	-0.128	0.072
-429.632	18.906	0.088	-0.071
-428.617	-200.000	-0.013	-0.146
-427.603	-200.000	-0.035	-0.166
-426.588	-15.471	0.249	0.159
-425.573	-200.000	-0.006	0.368
-424.559	786.903	-0.022	-0.059
-423.544	-200.000	0.058	-0.282
-422.530	66.137	0.207	0.210
-421.515	91.265	0.105	0.117
-420.500	190.013	0.115	0.172
-419.486	-200.000	-0.055	0.251
-418.471	-200.000	0.008	0.078
-417.457	-200.000	0.070	-0.314
-416.442	800.000	0.040	0.135
-415.428	800.000	0.057	0.172
-414.413	800.000	0.053	-0.200
-413.398	-200.000	0.084	0.428
-412.384	-41.399	0.210	0.108
-411.369	39.011	0.099	-0.089
-410.355	-18.679	-0.059	0.036
-409.340	-172.115	0.369	-0.012
-408.325	-83.967	-0.389	-0.124
-407.311	-81.312	-0.217	0.071
-406.296	-149.971	0.026	0.002
-405.282	800.000	0.083	0.328
-404.267	-200.000	0.083	-0.461
-403.252	127.573	-0.072	-0.092
-402.238	-64.842	-0.190	0.077
-401.223	312.063	0.126	-0.237
-400.209	-193.655	0.231	-0.002
-399.194	-49.183	0.246	-0.118
-398.179	773.225	0.051	-0.139
-397.165	800.000	0.072	-0.296
-396.150	-24.192	0.167	0.100
-395.136	-106.335	-0.017	-0.004
-394.121	-114.327	-0.276	-0.053
-393.106	367.097	-0.083	-0.167
-392.092	-194.618	-0.165	0.001
-391.077	60.454	0.280	0.276
-390.063	-200.000	0.033	0.166
-389.048	26.518	0.291	-0.243
-388.033	-145.602	-0.113	-0.010
-387.019	235.837	-0.214	-0.354
-386.004	126.552	-0.124	0.157
-384.990	377.145	0.176	0.360
-383.975	334.420	0.110	0.212
-382.960	65.754	0.111	-0.113
-381.946	-96.118	0.207	0.055
-380.931	-200.000	0.023	0.246
-379.917	-200.000	-0.053	0.235
-378.902	-200.000	-0.034	0.222
-377.888	-183.053	0.182	0.003
-376.873	800.000	0.087	0.299
-375.858	80.689	0.091	0.098
-374.844	-26.253	-0.174	0.102
-373.829	-147.825	0.434	-0.036
-372.815	-164.019	-0.278	0.013
-371.800	23.268	0.286	0.234
-370.785	20.651	-0.132	0.107
-369.771	668.997	0.094	0.244
-368.756	142.942	0.190	0.252
-367.742	-105.207	0.474	0.108
-366.727	-47.021	-0.311	0.151
-365.712	559.315	0.058	-0.139
-364.698	-96.082	-0.253	0.067
-363.683	40.605	-0.172	-0.154
-362.669	228.041	-0.069	0.112
-361.654	-27.704	-0.207	-0.120
-360.639	-200.000	-0.040	-0.215
-359.625	182.251	-0.195	-0.286
-358.610	-78.068	-0.215	-0.074
-357.596	-200.000	-0.010	0.133
-356.581	630.276	-0.057	0.143
-355.566	-33.289	0.232	0.128
-354.552	800.000	0.036	0.144
-353.537	-200.000	0.009	0.110
-352.523	108.445	-0.050	0.059
-351.508	-88.387	-0.212	-0.063
-350.493	58.181	-0.071	-0.069
-349.479	-200.000	0.053	-0.244
-348.464	214.822	-0.111	0.176
-347.450	-100.590	-0.152	0.037
-346.435	301.049	-0.096	0.177
-345.420	-200.000	-0.039	-0.336
-344.406	-102.552	0.199	0.047
-343.391	-200.000	-0.003	0.073
-342.377	126.485	-0.053	-0.067
-341.362	-14.156	-0.424	0.273
-340.348	222.211	0.113	-0.181
-339.333	213.259	0.025	-0.040
-338.318	800.000	0.018	-0.051
-337.304	324.596	0.227	0.432
-336.289	-22.740	-0.158	0.095
-335.275	800.000	0.107	0.376
-334.260	-22.812	0.044	-0.027
-333.245	-200.000	0.002	-0.184
-332.231	176.029	0.234	-0.338
-331.216	-74.194	0.434	-0.156
-330.202	11.054	0.107	-0.081
-329.187	800.000	-0.044	-0.138
-328.172	3.936	0.186	0.136
-327.158	105.666	0.104	-0.123
-326.143	-82.069	-0.334	-0.108
-325.129	27.816	0.168	-0.141
-324.114	-147.855	-0.240	0.020
-323.099	230.053	0.118	0.192
-322.085	199.620	0.099	-0.151
-321.070	21.998	0.072	0.058
-320.056	-200.000	-0.031	0.244
-319.041	44.647	-0.112	0.102
-318.026	611.035	0.148	0.368
-317.012	115.782	0.174	0.212
-315.997	77.927	0.058	0.062
-314.983	-31.407	-0.274	-0.154
-313.968	800.000	-0.146	-0.497
-312.953	-97.997	0.274	-0.070
-311.939	-22.204	-0.130	0.078
-310.924	143.819	0.145	-0.193
-309.910	9.059	-0.109	0.082
-308.895	8.274	-0.324	0.242
-307.880	284.267	-0.192	-0.343
-306.866	-91.813	0.200	-0.057
-305.851	-200.000	-0.015	-0.150
-304.837	156.069	-0.245	0.336
-303.822	-200.000	0.028	-0.158
-302.807	150.219	-0.232	0.313
-301.793	71.204	-0.116	-0.120
-300.778	669.473	0.061	-0.156
-299.764	-135.448	0.256	0.030
-298.749	1.142	-0.068	-0.048
-297.735	310.355	-0.105	-0.195
-296.720	5.492	0.098	-0.072
-295.705	-46.102	-0.189	0.093
-294.691	-76.946	-0.190	-0.066
-293.676	-200.000	0.024	-0.220
-292.662	130.958	0.194	-0.248
-291.647	800.000	-0.032	0.117
-290.632	94.715	-0.217	-0.246
-289.618	58.163	0.072	-0.070
-288.603	-200.000	-0.041	0.282
-287.589	-200.000	0.031	-0.182
-286.574	-200.000	-0.005	0.166
-285.559	800.000	0.076	0.312
-284.545	-133.254	0.430	0.054
-283.530	-118.721	-0.185	-0.032
-282.516	-119.566	-0.329	0.057
-281.501	800.000	-0.100	-0.351
-280.486	-200.000	-0.025	0.356
-279.472	-5.761	0.133	-0.091
-278.457	127.942	0.202	0.256
-277.443	-17.643	-0.160	0.100
-276.428	-146.766	-0.241	0.021
-275.413	-200.000	-0.042	0.224
-274.399	800.000	0.088	-0.359
-273.384	148.637	0.056	0.075
-272.370	236.823	0.150	0.247
-271.355	-200.000	-0.041	0.248
-270.340	432.115	-0.079	0.171
-269.326	495.107	0.074	0.168
-268.311	325.861	-0.151	0.287
-267.297	-200.000	0.004	0.184
-266.282	81.645	0.201	-0.217
-265.267	-88.300	-0.180	-0.053
-264.253	800.000	-0.065	0.257
-263.238	-141.602	-0.221	-0.022
-262.224	-119.556	-0.161	-0.028
-261.209	-84.434	0.087	-0.027
-260.195	-75.546	-0.116	0.041
-259.180	-200.000	0.067	0.362
-258.165	-27.799	-0.449	-0.258
-257.151	-118.823	0.386	0.067
-256.136	-200.000	0.026	0.288
-255.122	-117.134	0.230	0.042
-254.107	-200.000	0.019	-0.216
-253.092	-200.000	-0.041	0.325
-252.078	-161.996	0.449	0.023
-251.063	800.000	-0.051	-0.167
-250.049	27.940	0.305	-0.255
-249.034	556.490	-0.069	0.164
-248.019	-88.568	0.164	-0.049
-247.005	59.054	0.137	-0.133
-245.990	-71.278	0.044	-0.016
-244.976	-122.663	-0.210	0.034
-243.961	800.000	-0.078	0.291
-242.946	92.332	0.063	0.070
-241.932	-200.000	0.016	0.103
-240.917	-101.062	0.395	-0.096
-239.903	654.926	-0.088	0.225
-238.888	72.892	0.049	0.051
-237.873	-200.000	-0.033	-0.147
-236.859	-9.885	0.385	0.254
-235.844	-116.282	0.204	-0.038
-234.830	-200.000	-0.022	-0.103
-233.815	-200.000	0.025	0.141
-232.800	-54.937	-0.038	-0.017
-231.786	-168.848	-0.106	0.004
-230.771	94.820	-0.119	-0.134
-229.757	-60.990	0.225	-0.094
-228.742	-200.000	-0.223	0.000
-227.727	-48.039	0.174	-0.083
-226.713	-200.000	0.038	0.417
-225.698	20.351	0.275	0.221
-224.684	-122.705	0.340	0.055
-223.669	-142.934	-0.136	-0.013
-222.655	61.446	0.117	0.116
-221.640	92.441	-0.156	0.174
-220.625	244.949	0.068	-0.113
-219.611	-200.000	-0.011	-0.122
-218.596	138.922	0.214	0.279
-217.582	1.211	-0.145	0.103
-216.567	-51.752	0.166	-0.077
-215.552	258.868	0.044	0.075
-214.538	-37.343	-0.353	-0.187
-213.523	-200.000	0.015	0.132
-212.509	-86.313	-0.224	0.068
-211.494	-158.300	-0.219	-0.013
-210.479	800.000	0.040	-0.120
-209.465	-30.609	-0.123	0.069
-208.450	357.954	0.066	0.131
-207.436	436.784	0.093	0.201
-206.421	131.711	0.086	0.109
-205.406	251.583	-0.110	-0.186
-204.392	432.442	0.097	-0.209
-203.377	-200.000	-0.043	-0.356
-202.363	-200.000	-0.021	0.156
-201.348	-136.801	-0.143	-0.016
-200.333	-200.000	0.073	0.425
-199.319	800.000	-0.045	-0.168
-198.304	-78.861	-0.291	-0.098
-197.290	476.969	-0.124	-0.278
-196.275	40.681	0.106	-0.095
-195.260	800.000	0.044	-0.131
-194.246	-76.955	-0.183	0.063
-193.231	-200.000	0.072	-0.000
-192.217	270.730	0.133	-0.232
-191.202	-32.503	0.227	-0.125
-190.187	-49.096	0.077	0.036
-189.173	-200.000	0.010	-0.159
-188.158	-146.999	-0.109	-0.009
-187.144	-200.000	0.036	0.173
-186.129	-20.558	0.031	-0.019
-185.114	800.000	-0.046	-0.172
-184.100	328.252	0.052	0.099
-183.085	14.974	-0.252	0.195
-182.071	800.000	0.076	0.225
-181.056	-95.335	0.304	-0.081
-180.042	-200.000	0.059	-0.278
-179.027	-92.638	-0.073	0.020
-178.012	248.097	-0.090	-0.151
-176.998	-29.845	-0.045	0.025
-175.983	589.497	0.028	0.069
-174.969	-200.000	0.026	0.333
-173.954	52.965	0.134	0.127
-172.939	98.242	0.214	-0.244
-171.925	-64.884	-0.117	0.047
-170.910	-81.616	0.052	-0.017
-169.896	-78.882	0.193	-0.065
-168.881	-200.000	0.018	0.107
-167.866	231.970	0.076	0.123
-166.852	431.468	0.028	0.059
-165.837	20.537	-0.214	0.172
-164.823	240.830	0.108	0.178
-163.808	93.727	0.084	-0.094
-162.793	-101.414	-0.239	-0.058
-161.779	221.135	-0.048	0.077
-160.764	184.897	0.106	0.156
-159.750	-200.000	0.001	-0.240
-158.735	552.261	0.153	-0.364
-157.720	800.000	-0.033	-0.096
-156.706	-20.096	-0.231	-0.141
-155.691	-200.000	0.035	-0.186
-154.677	-122.426	0.280	0.045
-153.662	-124.585	0.251	0.039
-152.647	544.431	-0.109	0.258
-151.633	197.132	0.175	0.264
-150.618	152.211	0.061	-0.082
-149.604	288.826	-0.114	0.204
-148.589	18.306	-0.155	0.122
-147.574	-200.000	-0.031	0.233
-146.560	-200.000	-0.005	-0.085
-145.545	-33.640	0.183	0.100
-144.531	-27.258	-0.211	0.122
-143.516	89.155	-0.114	-0.126
-142.502	-55.577	-0.284	0.126
-141.487	108.830	0.068	-0.081
-140.472	-74.573	0.294	0.105
-139.458	-64.615	-0.455	0.182
-138.443	484.901	-0.185	-0.417
-137.429	174.801	-0.036	-0.051
-136.414	-136.193	-0.300	0.035
-135.399	-200.000	-0.035	0.341
-134.385	-200.000	-0.007	0.188
-133.370	800.000	0.028	-0.110
-132.356	-88.709	0.377	0.111
-131.341	-113.461	0.375	-0.073
-130.326	-200.000	0.004	0.321
-129.312	800.000	-0.108	-0.354
-128.297	-97.780	0.070	-0.018
-127.283	-41.086	-0.203	-0.104
-126.268	-47.278	0.201	-0.097
-125.253	247.681	0.081	0.135
-124.239	-108.892	-0.200	-0.042
-123.224	61.749	-0.138	-0.135
-122.210	-51.347	-0.168	0.078
-121.195	172.631	-0.182	0.259
-120.180	-200.000	0.008	0.126
-119.166	-200.000	0.025	0.133
-118.151	10.900	0.116	-0.088
-117.137	-68.020	0.448	0.172
-116.122	20.872	0.327	0.261
-115.107	800.000	0.070	0.225
-114.093	-62.703	0.333	0.136
-113.078	-178.955	0.194	-0.004
-112.064	4.430	-0.267	-0.194
-111.049	-12.035	0.267	-0.173
-110.034	-57.686	0.052	-0.022
-109.020	-69.335	-0.110	0.042
-108.005	-136.063	-0.099	-0.011
-106.991	25.535	-0.120	0.099
-105.976	800.000	0.101	0.325
-104.962	-21.607	0.419	0.252
-103.947	-200.000	-0.007	0.123
-102.932	-200.000	0.054	0.379
-101.918	-93.549	0.146	-0.040
-100.903	396.427	-0.107	0.220
-99.889	301.789	-0.086	0.156
-98.874	9.644	-0.308	0.230
-97.859	-200.000	-0.022	-0.170
-96.845	629.126	-0.177	0.441
-95.830	349.416	0.107	0.209
-94.816	-106.698	0.250	0.055
-93.801	-101.466	-0.340	-0.082
-92.786	-28.988	-0.098	-0.056
-91.772	-135.256	0.112	-0.013
-90.757	561.655	-0.130	-0.310
-89.743	4.271	0.191	0.138
-88.728	-200.000	0.200	-0.001
-87.713	800.000	-0.079	-0.313
-86.699	-200.000	-0.037	0.218
-85.684	-67.356	0.311	-0.121
-84.670	790.973	0.048	0.131
-83.655	-200.000	0.099	0.457
-82.640	-44.505	-0.221	-0.109
-81.626	-160.689	0.057	-0.003
-80.611	122.038	-0.139	-0.171
-79.597	-200.000	0.057	0.333
-78.582	141.768	-0.089	0.117
-77.567	800.000	0.025	0.107
-76.553	-54.484	0.265	0.118
-75.538	-15.912	-0.183	-0.115
-74.524	103.159	0.275	-0.318
-73.509	176.129	0.203	0.290
-72.494	800.000	-0.043	0.129
-71.480	141.905	-0.092	0.120
-70.465	800.000	-0.069	0.200
-69.451	-200.000	0.014	0.359
-68.436	-200.000	-0.037	-0.419
-67.422	32.055	0.230	-0.196
-66.407	2.418	0.173	0.124
-65.392	245.108	-0.088	0.145
-64.378	-200.000	0.009	-0.127
-63.363	800.000	-0.017	-0.056
-62.349	800.000	0.060	-0.195
-61.334	51.216	-0.969	-0.907
-60.319	151.583	0.285	0.382
-59.305	-200.000	0.045	-1.046
-58.290	189.180	0.543	0.801
-57.276	800.000	0.485	1.425
-56.261	-200.000	96.237	589.738
-55.246	643.754	1399.777	3517.478
-54.232	192.222	2583.583	3840.004
-53.217	119.733	2183.195	2665.284
-52.203	42.978	1720.368	1545.526
-51.188	35.364	1532.587	1324.454
-50.173	32.999	1505.239	1284.708
-49.159	52.539	1553.230	1461.000
-48.144	54.308	1571.009	1489.877
-47.130	35.592	1531.488	1324.868
-46.115	32.541	1516.348	1290.846
-45.100	32.303	1512.660	1286.029
-44.086	32.282	1510.911	1284.345
-43.071	32.287	1509.246	1282.913
-42.057	32.152	1507.682	1280.615
-41.042	32.216	1506.498	1279.994
-40.027	32.261	1504.834	1278.836
-39.013	32.172	1503.135	1276.733
-37.998	32.127	1502.400	1275.756
-36.984	32.121	1501.461	1274.864
-35.969	32.253	1499.322	1273.894
-34.954	32.213	1497.964	1272.419
-33.940	32.158	1497.139	1271.298
-32.925	32.242	1495.231	1270.195
-31.911	32.174	1494.150	1268.766
-30.896	32.163	1492.643	1267.363
-29.881	32.229	1491.181	1266.514
-28.867	32.203	1489.522	1264.876
-27.852	32.295	1487.924	1264.093
-26.838	32.259	1486.757	1262.805
-25.823	32.171	1485.293	1260.922
-24.809	32.162	1483.789	1259.534
-23.794	32.264	1481.956	1258.613
-22.779	32.230	1480.752	1257.315
-21.765	32.193	1480.002	1256.379
-20.750	32.184	1478.967	1255.393
-19.736	32.152	1477.995	1254.300
-18.721	32.156	1477.085	1253.507
-17.706	32.166	1475.712	1252.356
-16.692	32.120	1474.748	1251.182
-15.677	32.126	1473.008	1249.699
-14.663	32.142	1472.373	1249.217
-13.648	32.142	1471.466	1248.397
-12.633	32.109	1470.439	1247.259
-11.619	32.017	1469.903	1246.143
-10.604	32.115	1468.679	1245.706
-9.590	32.161	1467.957	1245.347
-8.575	32.143	1467.006	1244.375
-7.560	32.081	1466.423	1243.421
-6.546	32.039	1465.604	1242.399
-5.531	32.061	1464.533	1241.585
-4.517	32.048	1463.274	1240.384
-3.502	32.084	1461.985	1239.479
-2.487	32.099	1461.283	1238.932
-1.473	32.087	1460.164	1237.858
-0.458	32.157	1458.607	1236.945
0.556	31.157	1449.880	1227.827
1.571	28.800	1424.815	1191.229
2.586	25.763	1364.877	1122.124
3.600	24.342	1283.310	1046.640
4.615	22.919	1237.181	1000.871
5.629	19.952	1180.429	938.812
6.644	12.191	1095.889	832.280
7.659	5.991	1055.430	771.115
8.673	5.222	1049.711	763.108
9.688	5.007	1047.206	760.172
10.702	4.849	1045.332	757.976
11.717	4.834	1043.418	756.448
12.731	7.442	1046.568	771.357
13.746	14.938	1056.658	815.396
14.761	19.339	1061.591	840.638
15.775	18.646	1059.564	835.584
16.790	17.544	1057.101	828.212
17.804	16.428	1055.225	821.251
18.819	15.484	1052.892	814.780
19.834	14.943	1051.985	811.381
20.848	14.736	1050.914	809.481
21.863	14.447	1050.357	807.583
22.877	14.311	1049.526	806.213
23.892	14.151	1048.367	804.478
24.907	14.062	1047.306	803.163
25.921	14.091	1046.967	802.971
26.936	13.984	1046.351	801.912
27.950	14.093	1045.241	801.517
28.965	14.180	1043.984	800.897
29.980	14.220	1042.821	800.129
30.994	14.338	1041.843	799.873
32.009	14.350	1040.414	798.765
33.023	14.320	1040.149	798.348
34.038	14.316	1039.020	797.392
35.053	14.230	1038.271	796.332
36.067	14.202	1037.422	795.475
37.082	14.119	1036.719	794.473
38.096	14.264	1035.745	794.348
39.111	14.181	1035.726	793.866
40.126	14.301	1033.922	792.985
41.140	14.075	1033.442	791.472
42.155	14.053	1032.139	790.296
43.169	13.961	1031.550	789.338
44.184	13.977	1029.898	788.081
45.199	14.005	1028.831	787.330
46.213	13.974	1027.672	786.226
47.228	13.961	1026.836	785.455
48.242	14.058	1025.957	785.170
49.257	14.100	1025.583	785.015
50.271	14.043	1024.443	783.802
51.286	14.247	1022.810	783.443
52.301	14.148	1022.579	782.729
53.315	14.275	1021.544	782.468
54.330	14.124	1020.995	781.270
55.344	14.035	1020.399	780.327
56.359	14.064	1019.116	779.410
57.374	14.004	1018.351	778.475
58.388	14.127	1017.036	777.978
59.403	13.991	1016.444	776.819
60.417	13.994	1015.644	776.156
61.432	13.962	1015.185	775.583
62.447	13.879	1014.950	774.949
63.461	13.887	1013.570	773.864
64.476	13.887	1012.473	772.959
65.490	13.885	1011.506	772.141
66.505	13.849	1011.223	771.689
67.520	13.932	1009.970	771.054
68.534	13.978	1009.298	770.682
69.549	14.032	1008.586	770.324
70.563	14.024	1007.655	769.506
71.578	13.975	1007.208	768.872
72.593	13.885	1006.296	767.688
73.607	13.880	1005.299	766.837
74.622	13.791	1004.308	765.602
75.636	13.804	1003.608	765.062
76.651	13.870	1002.995	764.833
77.666	13.777	1002.338	763.835
78.680	13.867	1001.287	763.380
79.695	13.885	1000.689	762.939
80.709	13.897	1000.314	762.639
81.724	13.917	999.686	762.184
82.739	13.847	999.091	761.344
83.753	14.063	998.012	761.442
84.768	13.988	997.562	760.690
85.782	14.222	996.370	760.783
86.797	14.271	995.822	760.520
87.812	14.345	994.743	759.969
88.826	14.064	994.308	758.288
89.841	14.109	993.124	757.523
90.855	14.173	992.584	757.336
91.870	14.183	991.619	756.576
92.884	14.352	990.868	756.704
93.899	14.304	990.415	756.072
94.914	14.331	989.563	755.480
95.928	14.409	988.519	754.969
96.943	14.381	987.806	754.230
97.957	14.299	987.345	753.440
98.972	14.111	986.725	752.052
99.987	14.272	986.113	752.247
101.001	14.341	985.108	751.725
102.016	14.277	984.380	750.814
103.030	14.160	983.776	749.759
104.045	14.228	982.712	749.188
105.060	14.293	981.286	748.328
106.074	14.348	980.260	747.722
107.089	14.222	979.296	746.357
108.103	14.036	978.977	745.214
109.118	13.949	978.042	744.049
110.133	13.958	977.464	743.580
111.147	14.000	976.113	742.674
112.162	14.004	975.394	742.082
113.176	13.981	974.814	741.470
114.191	14.046	973.532	740.722
115.206	14.022	972.833	740.018
116.220	14.049	972.106	739.516
117.235	14.072	971.583	739.157
118.249	14.062	970.452	738.187
119.264	14.027	969.690	737.388
120.279	14.054	968.582	736.598
121.293	13.875	968.167	735.423
122.308	13.958	967.056	734.883
123.322	13.991	966.264	734.360
124.337	13.874	965.740	733.383
125.352	13.975	964.412	732.753
126.366	13.957	963.193	731.685
127.381	13.909	962.452	730.847
128.395	13.905	961.548	730.075
129.410	14.035	960.422	729.728
130.424	13.935	959.791	728.743
131.439	13.930	959.382	728.349
132.454	14.118	957.941	728.012
133.468	14.018	957.603	727.254
134.483	14.098	956.966	727.053
135.497	14.113	955.863	726.217
136.512	14.115	955.224	725.678
137.527	14.047	954.782	724.983
138.541	14.025	953.930	724.176
139.556	14.167	953.130	724.119
140.570	14.171	952.184	723.355
141.585	14.194	951.679	723.006
142.600	14.259	951.078	722.769
143.614	14.239	950.411	722.112
144.629	14.262	949.973	721.814
145.643	14.423	948.880	721.616
146.658	14.299	948.073	720.401
147.673	14.352	947.027	719.775
148.687	14.294	945.628	718.395
149.702	14.165	945.264	717.499
150.716	14.087	944.554	716.562
151.731	14.107	943.608	715.868
152.746	14.155	942.728	715.343
153.760	14.227	941.865	714.931
154.775	14.192	941.639	714.550
155.789	14.270	940.569	714.009
156.804	14.395	939.608	713.749
157.819	14.346	938.863	712.913
158.833	14.327	938.581	712.553
159.848	14.355	938.181	712.307
160.862	14.432	937.224	711.846
161.877	14.372	936.454	710.943
162.892	14.376	935.362	710.066
163.906	14.208	934.725	708.805
164.921	14.108	934.297	707.993
165.935	14.199	933.157	707.453
166.950	14.186	932.207	706.615
167.964	14.452	931.120	706.857
168.979	14.369	930.226	705.761
169.994	14.280	929.297	704.619
171.008	14.263	928.815	704.119
172.023	14.354	927.868	703.723
173.037	14.387	927.201	703.296
174.052	14.440	926.203	702.700
175.067	14.386	925.581	701.935
176.081	14.298	924.909	700.998
177.096	14.227	924.033	699.971
178.110	14.447	922.934	700.002
179.125	14.393	922.464	699.356
180.140	14.383	921.731	698.698
181.154	14.433	920.894	698.210
182.169	14.480	920.583	698.106
183.183	14.362	920.095	697.181
184.198	14.514	919.672	697.436
185.213	14.609	918.624	696.978
186.227	14.627	917.689	696.282
187.242	14.589	917.535	695.942
188.256	14.694	916.329	695.405
189.271	14.635	916.362	695.123
190.286	14.730	915.164	694.549
191.300	14.587	914.022	693.023
192.315	14.379	913.456	691.672
193.329	14.358	912.821	691.041
194.344	14.339	912.197	690.431
195.359	14.333	911.931	690.144
196.373	14.559	911.042	690.346
197.388	14.498	910.860	689.893
198.402	14.715	910.174	690.209
199.417	14.764	909.738	690.020
200.432	14.833	909.546	690.097
201.446	14.913	909.007	689.956
202.461	14.843	908.645	689.335
203.475	15.019	907.645	689.237
204.490	14.988	907.215	688.726
205.504	14.887	906.512	687.715
206.519	14.753	905.546	686.371
207.534	14.882	904.907	686.353
208.548	14.840	903.723	685.224
209.563	14.844	903.841	685.268
210.577	14.829	902.762	684.329
211.592	14.892	901.962	683.919
212.607	14.981	901.482	683.857
213.621	15.092	900.832	683.757
214.636	15.055	900.324	683.161
215.650	14.871	899.740	681.907
216.665	15.038	899.513	682.355
217.680	14.990	898.755	681.525
218.694	15.255	898.136	682.072
219.709	14.966	897.721	680.522
220.723	15.047	897.056	680.287
221.738	15.131	896.001	679.768
222.753	15.106	895.353	679.116
223.767	15.034	895.202	678.649
224.782	15.103	893.814	677.815
225.796	15.172	893.477	677.780
226.811	15.314	892.870	677.833
227.826	15.155	892.409	676.779
228.840	15.011	891.699	675.602
229.855	15.070	890.593	674.942
230.869	15.016	890.295	674.439
231.884	15.139	889.523	674.290
232.899	15.071	889.056	673.603
233.913	14.994	888.145	672.543
234.928	15.079	887.156	672.073
235.942	15.138	886.422	671.696
236.957	15.115	885.727	671.019
237.972	15.060	885.427	670.511
238.986	15.037	884.468	669.631
240.001	15.148	883.688	669.428
241.015	15.197	883.067	669.092
242.030	15.099	883.004	668.594
243.045	15.197	882.026	668.185
244.059	15.277	881.366	667.946
245.074	15.166	880.917	667.102
246.088	15.289	880.489	667.211
247.103	15.336	880.036	666.996
248.117	15.329	879.262	666.321
249.132	15.459	878.655	666.320
250.147	15.393	878.669	666.008
251.161	15.651	877.457	666.053
252.176	15.686	876.551	665.445
253.190	15.754	876.160	665.357
254.205	15.740	875.775	664.951
255.220	15.697	875.160	664.255
256.234	15.693	874.560	663.725
257.249	15.671	873.760	662.975
258.263	15.810	873.217	663.053
259.278	15.680	872.358	661.827
260.293	15.789	872.093	661.999
261.307	15.856	871.643	661.859
262.322	15.813	870.944	661.103
263.336	15.886	870.044	660.647
264.351	15.823	869.524	659.945
265.366	15.915	868.553	659.512
266.380	15.958	868.239	659.383
267.395	16.001	867.355	658.821
268.409	15.941	866.751	658.069
269.424	15.889	866.125	657.333
270.439	15.839	865.448	656.567
271.453	15.904	864.592	656.112
272.468	15.864	864.225	655.621
273.482	15.829	863.750	655.068
274.497	15.873	862.796	654.456
275.512	15.982	861.989	654.207
276.526	15.834	861.411	653.137
277.541	15.960	860.817	653.117
278.555	15.965	860.363	652.734
279.570	15.824	859.671	651.608
280.585	16.050	859.045	651.948
281.599	16.085	858.926	651.936
282.614	16.080	858.181	651.294
283.628	16.078	857.161	650.455
284.643	15.950	856.713	649.562
285.657	15.985	856.494	649.476
286.672	16.051	855.968	649.271
287.687	16.175	855.227	649.132
288.701	16.078	854.858	648.420
289.716	16.191	854.049	648.183
290.730	16.181	853.300	647.519
291.745	16.108	853.207	647.110
292.760	16.161	852.390	646.638
293.774	16.197	851.736	646.220
294.789	16.183	851.155	645.671
295.803	16.071	851.135	645.169
296.818	16.245	849.779	644.747
297.833	16.164	849.493	644.166
298.847	16.260	848.597	643.795
299.862	16.257	848.265	643.474
300.876	16.168	847.279	642.331
301.891	16.226	847.252	642.476
302.906	16.325	846.429	642.170
303.920	16.296	845.698	641.447
304.935	16.221	845.047	640.614
305.949	16.456	844.343	640.914
306.964	16.570	843.575	640.706
307.979	16.467	842.799	639.670
308.993	16.436	842.686	639.411
310.008	16.402	842.158	638.825
311.022	16.512	841.517	638.698
312.037	16.626	840.881	638.588
313.052	16.471	840.387	637.573
314.066	16.443	839.958	637.086
315.081	16.403	839.116	636.239
316.095	16.406	838.366	635.627
317.110	16.270	838.140	634.885
318.125	16.452	837.351	634.918
319.139	16.323	837.326	634.357
320.154	16.453	836.638	634.266
321.168	16.441	836.204	633.838
322.183	16.448	835.191	633.040
323.197	16.504	834.885	632.960
324.212	16.456	834.608	632.517
325.227	16.544	833.801	632.176
326.241	16.603	833.310	631.970
327.256	16.484	832.732	631.030
328.270	16.429	832.103	630.292
329.285	16.567	831.114	630.003
330.300	16.597	830.737	629.771
331.314	16.480	830.699	629.253
332.329	16.547	830.070	628.970
333.343	16.544	829.394	628.392
334.358	16.581	829.329	628.425
335.373	16.652	828.215	627.788
336.387	16.740	827.661	627.638
337.402	16.815	827.343	627.618
338.416	16.882	826.548	627.209
339.431	16.866	826.063	626.725
340.446	16.920	825.552	626.483
341.460	16.980	824.829	626.097
342.475	17.078	824.095	625.847
343.489	17.029	823.897	625.462
344.504	16.993	823.686	625.114
345.519	17.006	823.095	624.657
346.533	17.116	822.535	624.582
347.548	17.109	821.979	624.079
348.562	16.960	821.429	623.056
349.577	17.036	820.855	622.846
350.592	16.954	820.163	621.966
351.606	16.897	819.955	621.543
352.621	16.953	819.276	621.178
353.635	16.948	818.906	620.826
354.650	17.003	818.448	620.625
355.665	16.981	818.193	620.297
356.679	16.981	817.841	619.976
357.694	16.954	817.481	619.549
358.708	17.070	816.581	619.235
359.723	17.129	815.882	618.865
360.738	17.041	815.585	618.262
361.752	17.081	815.065	617.959
362.767	17.110	814.515	617.595
363.781	17.140	814.405	617.565
364.796	17.316	813.529	617.486
365.810	17.302	813.161	617.100
366.825	17.450	812.728	617.254
367.840	17.405	812.785	617.080
368.854	17.457	812.154	616.733
369.869	17.453	811.505	616.173
370.883	17.249	811.095	615.069
371.898	17.297	810.521	614.752
372.913	17.149	810.284	613.983
373.927	17.454	809.272	614.263
374.942	17.504	808.826	614.052
375.956	17.382	808.087	612.996
376.971	17.462	807.456	612.750
377.986	17.492	807.031	612.484
379.000	17.553	806.978	612.608
380.015	17.679	806.097	612.337
381.029	17.587	805.481	611.483
382.044	17.603	805.039	611.151
383.059	17.700	804.339	610.916
384.073	17.634	803.876	610.273
385.088	17.573	803.297	609.561
386.102	17.594	802.610	609.059
387.117	17.562	802.235	608.609
388.132	17.481	801.935	608.036
389.146	17.560	801.246	607.741
390.161	17.567	801.218	607.693
391.175	17.589	800.682	607.309
392.190	17.596	800.115	606.851
393.205	17.718	799.736	606.945
394.219	17.589	799.468	606.228
395.234	17.599	798.798	605.703
396.248	17.600	798.137	605.152
397.263	17.589	797.757	604.770
398.278	17.525	797.401	604.219
399.292	17.490	796.895	603.659
400.307	17.463	796.699	603.360
401.321	17.574	796.042	603.204
402.336	17.580	795.907	603.069
403.350	17.646	795.341	602.820
404.365	17.684	794.976	602.626
405.380	17.711	794.437	602.257
406.394	17.839	793.919	602.264
407.409	17.859	793.449	601.924
408.423	17.866	793.298	601.781
409.438	17.925	792.544	601.366
410.453	18.017	792.179	601.359
411.467	18.035	791.692	600.999
412.482	17.903	791.571	600.389
413.496	18.137	790.772	600.552
414.511	18.130	790.552	600.308
415.526	18.229	790.222	600.351
416.540	18.245	790.033	600.209
417.555	18.056	789.581	599.152
418.569	18.159	788.789	598.856
419.584	18.076	788.259	598.111
420.599	18.103	788.052	597.998
421.613	155.224	1369.503	1792.732
422.628	134.168	1454.222	1792.829
