DTS Sentinel unit serial number:	SN413079Multiplexer serial number:	ORYXHardware model number:	OX4-SRSoftware version number:	ORYX F/W v4.00 Oryx Data Collector v3.7.2.0data status	okinstallation	princeton_trtdifferential loss correction	single-endedforward channel	channel 3reverse channel	N/Adate	2019/09/17time	03:20:35forward acquisition time	60.00reverse acquisition time	0.00gamma	496.2192k internal	0.2323k external	0.2323temperature offset calibration	0.9943default loss term (dB/km)	0.3790temperature slope calibration	1.0000multiplexer offset coefficient	1.0000multiplexer slope coefficient	1.0000fibre end	0.00T internal ref (°C)	30.00T ext. ref 1 (°C)	0.13T ext. ref 2 (°C)	24.87length (m)	temperature (°C)	Stokes	anti-Stokes-747.200	-65.545	0.077	0.031
-746.185	800.000	-0.015	0.060
-745.171	-102.990	0.272	-0.065
-744.156	-152.257	0.169	0.012
-743.142	67.268	-0.200	0.206
-742.127	112.849	0.273	0.334
-741.112	261.099	0.249	0.435
-740.098	800.000	-0.039	0.149
-739.083	55.320	-0.089	-0.087
-738.069	-37.731	-0.307	0.165
-737.054	-20.391	0.340	0.211
-736.039	-100.000	-0.198	0.050
-735.025	414.241	0.034	0.073
-734.010	88.552	-0.066	0.074
-732.996	-55.382	0.021	-0.010
-731.981	540.529	0.155	-0.372
-730.966	-100.253	-0.076	-0.019
-729.952	-32.715	-0.130	-0.073
-728.937	26.904	-0.207	-0.176
-727.923	-137.490	-0.225	0.026
-726.908	-30.534	-0.330	-0.189
-725.894	-10.379	-0.227	-0.152
-724.879	115.144	-0.230	-0.284
-723.864	-27.927	0.299	0.175
-722.850	-86.930	0.127	0.039
-721.835	-200.000	0.016	-0.485
-720.821	-200.000	-0.008	0.277
-719.806	688.469	-0.131	0.347
-718.791	204.701	0.151	-0.236
-717.777	0.559	-0.137	-0.099
-716.762	168.381	0.136	-0.195
-715.748	-81.965	0.211	-0.070
-714.733	48.829	-0.323	0.306
-713.718	-144.497	0.213	0.020
-712.704	84.793	0.115	-0.127
-711.689	-9.970	-0.157	0.105
-710.675	-184.802	0.164	0.003
-709.660	-136.103	-0.488	0.058
-708.645	-200.000	-0.028	-0.334
-707.631	-37.923	0.363	-0.195
-706.616	83.786	-0.106	-0.117
-705.602	42.704	-0.140	-0.129
-704.587	102.697	-0.157	-0.185
-703.572	-118.104	-0.109	-0.020
-702.558	-37.725	-0.208	-0.111
-701.543	-2.852	0.077	0.055
-700.529	152.763	0.255	-0.351
-699.514	39.935	-0.065	-0.058
-698.499	204.831	-0.151	-0.236
-697.485	354.271	-0.144	-0.289
-696.470	162.593	0.157	0.222
-695.456	80.480	0.183	0.199
-694.441	90.042	0.348	0.392
-693.426	800.000	0.049	0.209
-692.412	-200.000	0.023	-0.191
-691.397	-200.000	0.018	0.281
-690.383	-39.447	-0.197	0.104
-689.368	32.027	-0.121	-0.105
-688.354	70.023	0.196	0.204
-687.339	-180.272	0.216	-0.005
-686.324	14.923	-0.175	-0.138
-685.310	159.534	-0.138	-0.193
-684.295	6.773	0.072	-0.054
-683.281	641.822	0.013	-0.033
-682.266	130.841	-0.123	0.159
-681.251	-97.866	-0.163	-0.042
-680.237	-117.927	0.228	0.041
-679.222	800.000	0.042	-0.173
-678.208	54.756	-0.333	-0.324
-677.193	232.943	0.085	-0.141
-676.178	234.737	0.192	-0.320
-675.164	-155.332	0.070	-0.005
-674.149	514.390	-0.068	0.160
-673.135	65.326	-0.003	0.003
-672.120	536.733	0.128	-0.306
-671.105	74.000	-0.222	-0.235
-670.091	119.421	0.093	0.115
-669.076	-53.485	-0.234	-0.108
-668.062	-125.179	0.154	0.024
-667.047	-144.559	-0.347	-0.032
-666.032	-121.769	-0.105	0.017
-665.018	155.323	0.390	-0.541
-664.003	-74.989	-0.162	0.058
-662.989	-40.284	-0.170	-0.089
-661.974	-157.267	-0.161	-0.010
-660.959	42.036	-0.248	-0.227
-659.945	187.732	0.073	0.110
-658.930	-33.214	-0.139	-0.077
-657.916	197.772	0.157	0.241
-656.901	180.231	0.041	-0.060
-655.886	-200.000	-0.001	-0.021
-654.872	-188.328	-0.219	-0.003
-653.857	58.414	0.091	-0.089
-652.843	43.864	0.342	0.315
-651.828	-69.420	-0.258	0.099
-650.814	26.370	0.159	-0.134
-649.799	41.616	-0.187	0.170
-648.784	-52.680	-0.159	-0.074
-647.770	138.510	0.080	0.105
-646.755	-200.000	-0.006	0.080
-645.741	-44.711	-0.336	-0.169
-644.726	-103.264	-0.119	0.028
-643.711	41.374	-0.346	0.315
-642.697	81.957	0.131	-0.143
-641.682	504.195	-0.128	-0.297
-640.668	-56.480	-0.328	-0.146
-639.653	256.414	-0.051	0.088
-638.638	-22.744	-0.336	-0.204
-637.624	108.516	-0.067	-0.081
-636.609	64.854	-0.155	-0.157
-635.595	-200.000	-0.195	-0.000
-634.580	415.086	0.106	0.227
-633.565	169.874	0.125	0.180
-632.551	-18.923	-0.239	0.150
-631.536	800.000	-0.060	0.189
-630.522	-161.688	0.206	0.011
-629.507	-200.000	0.004	0.039
-628.492	-43.265	-0.165	-0.084
-627.478	-53.235	-0.087	0.040
-626.463	800.000	-0.019	-0.068
-625.449	18.075	0.227	0.182
-624.434	-47.438	0.151	-0.074
-623.419	115.868	-0.143	0.176
-622.405	95.316	0.223	0.256
-621.390	-116.957	0.456	-0.084
-620.376	800.000	-0.115	-0.372
-619.361	-78.771	0.086	-0.030
-618.346	453.881	0.142	-0.315
-617.332	67.203	0.187	-0.192
-616.317	-200.000	-0.063	-0.368
-615.303	800.000	-0.035	0.100
-614.288	371.699	-0.079	-0.160
-613.273	-77.243	-0.110	-0.038
-612.259	-98.518	-0.239	-0.061
-611.244	203.826	-0.151	-0.234
-610.230	5.107	0.243	0.180
-609.215	-14.245	-0.137	-0.089
-608.201	-52.064	0.092	-0.043
-607.186	-200.000	0.071	0.325
-606.171	129.191	-0.275	-0.352
-605.157	-6.362	-0.075	-0.052
-604.142	91.329	0.154	-0.173
-603.128	-50.793	-0.288	-0.136
-602.113	226.866	-0.089	0.145
-601.098	668.993	0.077	0.199
-600.084	-200.000	0.013	-0.102
-599.069	-84.813	0.242	0.077
-598.055	91.750	0.221	-0.249
-597.040	-84.201	-0.081	-0.026
-596.025	-62.057	-0.110	0.046
-595.011	42.026	-0.058	-0.053
-593.996	44.879	-0.011	0.010
-592.982	405.898	0.028	0.058
-591.967	800.000	0.097	-0.374
-590.952	-118.378	0.447	0.080
-589.938	-144.484	-0.094	-0.009
-588.923	800.000	0.023	-0.066
-587.909	-200.000	-0.025	-0.147
-586.894	-200.000	0.032	-0.174
-585.879	-200.000	-0.024	-0.169
-584.865	-200.000	-0.043	-0.341
-583.850	-195.087	-0.462	-0.004
-582.836	-200.000	-0.017	-0.430
-581.821	-35.473	0.165	-0.090
-580.806	-200.000	0.028	-0.271
-579.792	-58.381	0.283	-0.123
-578.777	-81.118	0.277	-0.092
-577.763	-84.846	0.463	-0.146
-576.748	315.455	-0.157	-0.298
-575.733	-132.403	-0.203	-0.026
-574.719	540.374	-0.041	0.099
-573.704	-81.100	0.352	0.117
-572.690	505.758	-0.061	0.142
-571.675	-34.988	-0.474	-0.259
-570.661	-118.384	-0.213	-0.038
-569.646	-119.891	0.183	0.031
-568.631	290.244	-0.033	-0.059
-567.617	-52.743	0.271	-0.126
-566.602	800.000	0.008	-0.028
-565.588	49.847	0.190	-0.179
-564.573	81.831	-0.124	0.134
-563.558	-28.789	0.198	0.114
-562.544	-18.719	0.062	0.039
-561.529	-38.171	-0.107	-0.057
-560.515	226.312	0.056	-0.091
-559.500	148.686	-0.196	0.266
-558.485	-200.000	0.013	0.181
-557.471	5.613	-0.075	-0.056
-556.456	597.024	-0.102	0.253
-555.442	37.498	-0.176	0.157
-554.427	77.617	0.146	-0.156
-553.412	-169.733	-0.130	-0.005
-552.398	-31.098	0.188	0.106
-551.383	-31.198	0.039	0.022
-550.369	-36.702	-0.050	-0.027
-549.354	167.837	-0.111	0.158
-548.339	183.070	0.104	0.155
-547.325	108.965	0.099	0.119
-546.310	7.037	0.142	0.106
-545.296	-200.000	-0.009	0.080
-544.281	110.430	0.025	-0.030
-543.266	-160.005	0.169	0.009
-542.252	-200.000	-0.028	0.164
-541.237	239.126	-0.120	-0.200
-540.223	53.708	0.067	0.064
-539.208	-27.304	-0.264	0.154
-538.193	-23.788	-0.309	-0.186
-537.179	-200.000	-0.022	-0.251
-536.164	-33.104	0.231	-0.128
-535.150	-200.000	-0.042	0.256
-534.135	-200.000	0.007	-0.117
-533.121	-200.000	0.023	0.400
-532.106	-35.363	0.409	0.223
-531.091	265.409	-0.099	-0.173
-530.077	-121.143	0.255	0.043
-529.062	-200.000	-0.043	0.253
-528.048	-169.966	0.312	-0.011
-527.033	-92.496	-0.091	-0.026
-526.018	204.272	0.058	-0.090
-525.004	-24.813	0.213	0.127
-523.989	57.540	-0.476	-0.466
-522.975	-200.000	0.038	-0.218
-521.960	93.924	0.100	0.113
-520.945	800.000	-0.072	-0.261
-519.931	-65.811	-0.163	-0.065
-518.916	-200.000	0.019	0.324
-517.902	78.904	-0.081	-0.087
-516.887	800.000	-0.119	-0.369
-515.872	-33.366	-0.126	0.070
-514.858	-165.090	0.392	0.017
-513.843	-29.061	-0.284	0.163
-512.829	-200.000	-0.021	-0.134
-511.814	-200.000	-0.001	0.188
-510.799	709.357	0.064	-0.170
-509.785	-66.354	0.160	0.063
-508.770	56.128	0.164	-0.160
-507.756	97.566	-0.096	0.110
-506.741	-200.000	-0.065	0.313
-505.726	246.670	0.068	-0.114
-504.712	-200.000	-0.025	0.223
-503.697	-69.324	-0.215	0.083
-502.683	-200.000	-0.041	0.194
-501.668	-117.282	-0.436	-0.079
-500.653	800.000	0.071	-0.218
-499.639	9.516	-0.139	-0.105
-498.624	-200.000	-0.003	-0.105
-497.610	140.627	0.176	0.233
-496.595	-71.991	0.239	0.089
-495.581	-184.291	-0.263	-0.004
-494.566	-200.000	-0.288	0.000
-493.551	710.194	-0.013	0.035
-492.537	6.663	0.040	-0.029
-491.522	-85.526	-0.270	0.084
-490.508	-200.000	-0.041	-0.203
-489.493	-3.364	0.055	-0.038
-488.478	-200.000	-0.002	-0.100
-487.464	-157.266	-0.344	-0.021
-486.449	-200.000	0.008	0.365
-485.435	10.499	-0.237	-0.181
-484.420	-67.737	-0.188	0.073
-483.405	-63.776	-0.348	-0.143
-482.391	800.000	0.144	-0.413
-481.376	-200.000	0.014	0.277
-480.362	87.991	-0.165	0.182
-479.347	137.834	-0.235	-0.308
-478.332	-63.461	0.255	-0.105
-477.318	800.000	-0.078	0.279
-476.303	-118.044	-0.038	0.007
-475.289	-82.226	-0.350	0.114
-474.274	264.744	-0.084	0.147
-473.259	152.834	-0.229	0.313
-472.245	-200.000	0.012	0.170
-471.230	-76.486	0.415	-0.146
-470.216	338.097	0.030	0.057
-469.201	-157.757	0.197	0.012
-468.186	131.569	-0.137	-0.175
-467.172	62.934	-0.076	-0.076
-466.157	168.177	-0.096	-0.137
-465.143	160.224	0.318	-0.443
-464.128	-16.267	-0.113	0.072
-463.113	-147.793	0.377	-0.031
-462.099	-85.669	0.148	-0.046
-461.084	-125.288	-0.313	0.048
-460.070	13.108	0.146	0.113
-459.055	-200.000	-0.065	-0.343
-458.040	-200.000	-0.067	0.320
-457.026	-3.911	-0.413	0.286
-456.011	-200.000	0.003	-0.284
-454.997	-200.000	-0.006	-0.389
-453.982	-185.951	0.073	0.001
-452.968	112.437	0.183	-0.222
-451.953	-75.950	-0.133	0.047
-450.938	-35.724	0.149	0.081
-449.924	235.716	-0.165	0.272
-448.909	-200.000	-0.183	-0.000
-447.895	-64.821	0.086	0.035
-446.880	-200.000	0.012	0.073
-445.865	800.000	-0.058	0.205
-444.851	-112.907	-0.105	0.021
-443.836	235.261	-0.051	-0.083
-442.822	-105.203	0.257	-0.059
-441.807	800.000	0.041	-0.168
-440.792	-200.000	0.014	-0.075
-439.778	59.958	-0.154	0.152
-438.763	-200.000	0.007	0.163
-437.749	-86.906	-0.078	-0.024
-436.734	-62.413	-0.214	-0.089
-435.719	590.625	-0.048	-0.118
-434.705	31.372	-0.116	0.099
-433.690	309.560	0.210	0.392
-432.676	421.003	0.009	0.018
-431.661	121.034	0.175	0.217
-430.646	-49.187	0.351	0.167
-429.632	-155.027	0.123	0.008
-428.617	-38.260	-0.278	-0.147
-427.603	177.541	0.133	-0.193
-426.588	800.000	0.083	0.353
-425.573	-200.000	-0.028	0.221
-424.559	-107.378	-0.065	-0.014
-423.544	800.000	-0.015	-0.043
-422.530	-52.902	-0.336	-0.155
-421.515	-57.722	-0.185	-0.081
-420.500	-134.700	0.158	-0.019
-419.486	-200.000	-0.034	0.191
-418.471	302.750	-0.062	-0.114
-417.457	-12.600	-0.049	0.032
-416.442	339.487	0.120	-0.234
-415.428	-72.658	-0.241	-0.089
-414.413	-120.386	-0.104	0.018
-413.398	800.000	-0.095	-0.338
-412.384	113.479	0.127	0.154
-411.369	-107.434	0.330	0.072
-410.355	572.498	-0.018	0.043
-409.340	-87.262	0.084	-0.025
-408.325	-200.000	0.004	-0.082
-407.311	-14.517	0.241	-0.155
-406.296	4.347	0.141	-0.103
-405.282	134.887	0.172	-0.223
-404.267	134.230	-0.092	0.119
-403.252	-40.858	-0.201	0.103
-402.238	69.224	0.239	-0.245
-401.223	-160.875	0.306	0.016
-400.209	-200.000	-0.010	-0.141
-399.194	90.442	-0.118	-0.132
-398.179	800.000	0.056	-0.189
-397.165	61.241	0.095	-0.094
-396.150	-35.507	0.227	0.123
-395.136	83.513	0.105	0.114
-394.121	800.000	0.097	0.268
-393.106	46.042	-0.161	-0.148
-392.092	-98.620	-0.062	0.016
-391.077	-191.919	0.103	-0.001
-390.063	-200.000	-0.069	0.330
-389.048	-200.000	-0.013	0.109
-388.033	198.722	0.178	-0.272
-387.019	800.000	-0.065	-0.250
-386.004	800.000	0.129	0.486
-384.990	-2.511	0.412	0.287
-383.975	800.000	-0.083	-0.296
-382.960	-116.585	-0.334	0.061
-381.946	-132.082	-0.060	-0.008
-380.931	21.270	-0.101	0.081
-379.917	-37.093	0.068	-0.036
-378.902	98.667	0.150	-0.173
-377.888	800.000	0.030	0.121
-376.873	-200.000	-0.017	-0.235
-375.858	262.707	-0.166	-0.287
-374.844	240.277	0.056	0.093
-373.829	-125.941	0.286	0.043
-372.815	-145.734	0.301	0.027
-371.800	-83.806	0.124	-0.040
-370.785	800.000	0.033	0.139
-369.771	-129.145	-0.158	0.022
-368.756	-143.937	-0.187	0.018
-367.742	-131.768	0.283	0.037
-366.727	800.000	0.047	0.167
-365.712	800.000	0.039	0.140
-364.698	83.721	-0.039	0.042
-363.683	-127.197	-0.357	-0.052
-362.669	-174.789	0.392	0.011
-361.654	-106.150	-0.029	0.007
-360.639	132.347	0.014	-0.018
-359.625	-200.000	-0.025	0.377
-358.610	-200.000	0.012	-0.237
-357.596	-200.000	0.006	-0.156
-356.581	-50.570	-0.197	0.092
-355.566	626.891	0.103	-0.258
-354.552	-145.745	-0.305	0.027
-353.537	-200.000	0.032	-0.259
-352.523	-98.655	0.149	0.038
-351.508	336.642	0.081	-0.157
-350.493	-58.566	0.250	-0.108
-349.479	800.000	0.024	-0.101
-348.464	-85.549	-0.159	0.049
-347.450	11.811	-0.130	-0.099
-346.435	-200.000	0.005	-0.044
-345.420	800.000	0.091	-0.348
-344.406	-200.000	0.016	0.221
-343.391	52.748	-0.142	0.135
-342.377	-139.436	-0.349	-0.037
-341.362	439.515	-0.075	-0.163
-340.348	263.198	0.175	-0.303
-339.333	-200.000	0.040	-0.332
-338.318	-96.268	-0.254	-0.067
-337.304	36.114	0.131	0.115
-336.289	-86.244	0.458	-0.140
-335.275	-200.000	-0.013	-0.194
-334.260	362.936	-0.057	0.114
-333.245	-150.864	0.455	0.034
-332.231	-20.352	-0.155	0.095
-331.216	-85.583	-0.211	0.065
-330.202	-200.000	0.027	0.171
-329.187	-166.978	-0.244	0.010
-328.172	-40.311	0.151	-0.078
-327.158	376.633	-0.209	0.424
-326.143	800.000	0.024	-0.094
-325.129	118.427	-0.096	-0.118
-324.114	-45.806	-0.286	-0.140
-323.099	-68.651	-0.134	-0.051
-322.085	237.890	-0.167	-0.275
-321.070	-118.988	-0.297	0.052
-320.056	-6.042	-0.030	-0.020
-319.041	107.756	0.184	0.218
-318.026	100.663	0.216	0.249
-317.012	800.000	-0.107	0.361
-315.997	-149.075	0.264	-0.021
-314.983	-20.080	0.086	0.053
-313.968	-200.000	0.021	0.340
-312.953	183.649	-0.106	-0.156
-311.939	-200.000	-0.009	0.152
-310.924	156.202	0.154	0.211
-309.910	800.000	-0.093	0.291
-308.895	-150.273	0.169	-0.013
-307.880	-87.426	0.233	0.070
-306.866	43.668	-0.080	0.073
-305.851	-56.711	0.117	-0.051
-304.837	311.873	0.099	0.185
-303.822	-200.000	0.091	0.438
-302.807	-76.578	-0.243	-0.085
-301.793	7.042	-0.089	0.066
-300.778	-70.044	0.100	0.038
-299.764	-200.000	0.014	-0.153
-298.749	9.314	-0.021	-0.016
-297.735	14.877	-0.139	-0.108
-296.720	800.000	0.004	-0.012
-295.705	40.580	0.332	0.297
-294.691	-57.985	0.336	-0.146
-293.676	185.263	0.176	0.260
-292.662	-200.000	-0.023	-0.429
-291.647	106.122	0.179	0.210
-290.632	-200.000	-0.023	0.327
-289.618	-52.515	-0.259	0.119
-288.603	512.629	0.125	0.288
-287.589	800.000	-0.007	0.023
-286.574	-200.000	-0.046	-0.316
-285.559	16.637	-0.180	-0.141
-284.545	46.349	0.127	-0.117
-283.530	-86.772	-0.274	0.083
-282.516	552.452	0.163	0.388
-281.501	390.315	0.052	0.106
-280.486	-101.137	0.194	0.047
-279.472	57.456	0.109	0.106
-278.457	2.789	-0.216	0.156
-277.443	38.484	0.197	-0.174
-276.428	-91.120	-0.352	0.100
-275.413	280.333	-0.012	-0.021
-274.399	2.245	-0.089	0.064
-273.384	-200.000	0.011	-0.132
-272.370	-200.000	-0.026	0.213
-271.355	17.420	0.153	-0.120
-270.340	74.163	-0.241	0.251
-269.326	74.805	-0.171	0.179
-268.311	-200.000	0.077	-0.000
-267.297	-16.388	-0.224	0.141
-266.282	-190.302	0.248	-0.003
-265.267	607.860	0.119	0.296
-264.253	209.818	0.175	0.272
-263.238	-15.543	0.022	-0.014
-262.224	154.835	-0.106	-0.145
-261.209	-80.218	0.243	-0.081
-260.195	-200.000	-0.018	0.282
-259.180	-55.827	-0.241	-0.107
-258.165	-101.702	0.069	-0.017
-257.151	91.794	-0.024	-0.027
-256.136	5.601	0.242	0.177
-255.122	62.177	-0.099	0.097
-254.107	128.281	0.044	-0.055
-253.092	-82.764	-0.308	-0.099
-252.078	224.884	0.111	-0.178
-251.063	293.427	-0.153	-0.277
-250.049	-0.236	-0.206	-0.145
-249.034	800.000	-0.048	-0.147
-248.019	800.000	0.033	-0.117
-247.005	9.047	-0.298	0.223
-245.990	70.812	0.268	-0.275
-244.976	-55.964	0.053	0.023
-243.961	-200.000	-0.004	-0.079
-242.946	-200.000	0.006	-0.067
-241.932	258.959	-0.109	-0.187
-240.917	-200.000	0.010	0.219
-239.903	38.432	0.103	-0.091
-238.888	11.623	0.216	0.164
-237.873	-50.444	-0.211	0.099
-236.859	96.638	0.096	0.109
-235.844	-101.592	0.132	0.032
-234.830	578.107	-0.067	-0.163
-233.815	169.023	0.033	-0.047
-232.800	-114.582	0.448	-0.085
-231.786	10.011	0.217	0.163
-230.771	414.196	-0.107	0.226
-229.757	4.906	0.144	-0.105
-228.742	-200.000	0.011	0.187
-227.727	-200.000	-0.001	-0.357
-226.713	-106.558	-0.227	0.050
-225.698	-45.159	-0.328	0.161
-224.684	256.268	0.069	0.118
-223.669	53.746	0.259	-0.246
-222.655	800.000	0.103	-0.295
-221.640	39.745	0.238	-0.211
-220.625	250.979	-0.043	0.072
-219.611	-3.393	-0.202	0.139
-218.596	94.673	0.294	0.331
-217.582	39.615	0.214	-0.190
-216.567	67.715	-0.079	-0.080
-215.552	-52.375	0.096	-0.044
-214.538	-147.967	0.064	0.005
-213.523	-200.000	0.028	-0.223
-212.509	164.886	0.031	0.044
-211.494	800.000	-0.081	-0.250
-210.479	800.000	0.078	0.257
-209.465	-200.000	0.018	0.082
-208.450	800.000	-0.097	-0.406
-207.436	-73.002	-0.103	-0.038
-206.421	79.068	0.202	-0.214
-205.406	-200.000	0.013	0.080
-204.392	35.504	0.245	-0.212
-203.377	-113.768	0.108	0.021
-202.363	218.738	-0.148	-0.234
-201.348	507.411	-0.072	-0.164
-200.333	211.733	-0.095	0.148
-199.319	-200.000	0.043	0.276
-198.304	-195.005	-0.221	0.002
-197.290	48.529	-0.159	-0.147
-196.275	-169.173	-0.414	0.015
-195.260	115.973	0.113	-0.137
-194.246	-4.919	0.265	0.181
-193.231	-127.641	0.358	0.051
-192.217	138.404	0.116	0.150
-191.202	800.000	0.047	0.182
-190.187	254.872	0.197	-0.333
-189.173	800.000	0.029	0.119
-188.158	60.720	0.156	-0.153
-187.144	17.892	-0.103	0.081
-186.129	-75.252	-0.310	0.109
-185.114	-20.725	-0.296	0.180
-184.100	-128.674	0.107	0.015
-183.085	-66.478	0.135	0.053
-182.071	-50.722	-0.118	-0.055
-181.056	190.800	0.069	-0.102
-180.042	-200.000	-0.007	0.114
-179.027	-86.096	-0.278	-0.085
-178.012	-115.975	-0.158	-0.029
-176.998	-192.916	0.236	-0.002
-175.983	-200.000	0.041	0.231
-174.969	800.000	0.004	0.012
-173.954	10.737	0.076	0.057
-172.939	-172.223	0.230	-0.007
-171.925	-200.000	-0.041	-0.216
-170.910	8.623	0.094	-0.070
-169.896	710.027	0.082	0.213
-168.881	389.713	-0.082	-0.168
-167.866	-88.624	-0.079	-0.023
-166.852	263.738	0.147	0.253
-165.837	375.033	0.072	0.144
-164.823	-200.000	0.040	0.229
-163.808	99.584	0.124	0.141
-162.793	117.295	0.133	0.161
-161.779	-200.000	-0.167	0.001
-160.764	-200.000	-0.008	-0.156
-159.750	800.000	0.008	-0.026
-158.735	59.643	-0.228	0.222
-157.720	-96.254	0.149	0.039
-156.706	-40.669	0.277	0.142
-155.691	-155.839	-0.232	0.015
-154.677	724.884	-0.101	0.265
-153.662	446.327	-0.091	0.198
-152.647	412.449	0.132	0.276
-151.633	-1.858	-0.321	-0.223
-150.618	800.000	0.043	0.140
-149.604	-200.000	0.026	0.399
-148.589	800.000	0.030	-0.097
-147.574	-80.283	-0.185	-0.061
-146.560	189.379	-0.028	-0.041
-145.545	8.180	0.084	0.062
-144.531	-66.365	-0.093	0.037
-143.516	276.829	0.202	0.355
-142.502	-9.834	0.194	-0.127
-141.487	-92.676	-0.105	0.029
-140.472	800.000	-0.095	0.369
-139.458	-200.000	-0.040	0.282
-138.443	-128.915	0.227	0.031
-137.429	-78.185	-0.304	-0.103
-136.414	800.000	0.073	-0.229
-135.399	-4.982	-0.032	0.022
-134.385	-5.689	0.020	-0.014
-133.370	-32.546	0.289	-0.159
-132.356	-136.066	0.223	-0.026
-131.341	-200.000	0.003	-0.217
-130.326	-200.000	-0.006	0.079
-129.312	323.333	-0.167	-0.315
-128.297	800.000	0.084	-0.256
-127.283	-118.893	0.226	-0.039
-126.268	-200.000	0.016	0.173
-125.253	-151.931	-0.180	0.013
-124.239	40.407	0.079	0.070
-123.224	-32.308	0.236	0.130
-122.210	122.256	-0.268	0.330
-121.195	11.855	-0.150	-0.114
-120.180	-200.000	0.007	0.183
-119.166	260.781	0.055	-0.093
-118.151	30.108	-0.047	0.039
-117.137	-17.937	0.031	0.019
-116.122	-200.000	0.137	0.640
-115.107	-200.000	0.019	0.308
-114.093	249.023	-0.068	0.114
-113.078	71.192	0.126	-0.129
-112.064	0.227	0.224	0.158
-111.049	-120.492	0.277	0.046
-110.034	-200.000	0.011	-0.400
-109.020	156.176	-0.137	0.187
-108.005	150.753	0.190	0.254
-106.991	146.644	-0.168	0.222
-105.976	-5.092	0.179	-0.121
-104.962	-200.000	0.050	0.321
-103.947	118.124	-0.119	0.144
-102.932	800.000	0.063	-0.254
-101.918	196.312	0.083	-0.124
-100.903	800.000	-0.063	-0.179
-99.889	123.946	0.384	-0.475
-98.874	637.040	0.069	-0.173
-97.859	-200.000	-0.023	-0.253
-96.845	92.118	0.092	-0.102
-95.830	332.139	-0.087	-0.165
-94.816	-58.509	-0.161	-0.069
-93.801	-200.000	0.035	-0.346
-92.786	206.503	0.267	0.410
-91.772	183.985	-0.134	0.196
-90.757	541.150	-0.095	-0.224
-89.743	142.325	0.186	0.243
-88.728	23.924	0.149	-0.121
-87.713	-71.951	-0.266	-0.097
-86.699	-88.291	-0.043	-0.013
-85.684	-4.534	0.151	0.103
-84.670	55.284	0.139	0.132
-83.655	266.593	0.076	-0.130
-82.640	428.889	0.047	0.099
-81.626	-200.000	-0.021	0.217
-80.611	3.951	-0.194	-0.139
-79.597	-159.146	0.229	0.013
-78.582	-43.710	0.139	-0.069
-77.567	79.182	-0.085	-0.089
-76.553	143.535	0.069	0.091
-75.538	268.561	0.205	0.354
-74.524	-24.987	0.156	-0.091
-73.509	527.719	0.025	0.058
-72.494	220.871	0.037	0.058
-71.480	-51.641	-0.174	-0.080
-70.465	-162.053	0.077	-0.004
-69.451	-167.639	0.193	0.008
-68.436	-160.629	0.343	0.018
-67.422	-128.794	-0.362	0.050
-66.407	-200.000	0.011	0.053
-65.392	-108.499	0.554	0.117
-64.378	100.363	-0.113	-0.129
-63.363	-28.821	0.114	-0.064
-62.349	-100.924	0.111	0.027
-61.334	323.117	-0.641	-1.203
-60.319	60.510	0.516	0.502
-59.305	-200.000	-0.070	-0.830
-58.290	106.858	0.705	0.823
-57.276	512.328	0.677	1.551
-56.261	-200.000	105.494	575.756
-55.246	461.141	1455.125	3189.281
-54.232	149.811	2638.463	3516.395
-53.217	106.674	2177.729	2540.195
-52.203	40.463	1706.642	1510.781
-51.188	33.125	1518.944	1294.553
-50.173	30.803	1491.342	1255.341
-49.159	50.339	1545.312	1435.497
-48.144	51.351	1562.392	1458.262
-47.130	33.362	1519.409	1296.367
-46.115	30.230	1504.714	1262.498
-45.100	30.085	1501.225	1258.539
-44.086	30.107	1498.936	1256.720
-43.071	29.991	1496.876	1254.156
-42.057	29.930	1495.892	1252.864
-41.042	29.940	1494.094	1251.379
-40.027	29.966	1492.536	1250.197
-39.013	29.873	1491.248	1248.446
-37.998	29.873	1489.913	1247.280
-36.984	29.985	1488.622	1246.898
-35.969	29.853	1487.608	1245.115
-34.954	29.915	1486.343	1244.420
-33.940	29.975	1484.357	1243.115
-32.925	30.033	1483.154	1242.445
-31.911	30.064	1481.691	1241.379
-30.896	30.134	1480.640	1240.921
-29.881	30.090	1479.394	1239.528
-28.867	30.021	1477.714	1237.611
-27.852	30.009	1476.557	1236.513
-26.838	29.999	1475.301	1235.343
-25.823	30.080	1473.528	1234.353
-24.809	30.025	1472.063	1232.713
-23.794	30.117	1470.601	1232.046
-22.779	30.119	1469.526	1231.110
-21.765	30.086	1468.177	1229.714
-20.750	30.029	1467.456	1228.682
-19.736	30.082	1466.427	1228.122
-18.721	30.017	1465.107	1226.542
-17.706	29.980	1464.247	1225.523
-16.692	29.993	1462.706	1224.275
-15.677	30.026	1461.800	1223.684
-14.663	30.055	1460.710	1222.916
-13.648	29.972	1460.256	1221.940
-12.633	30.034	1459.127	1221.356
-11.619	29.990	1458.388	1220.401
-10.604	30.066	1457.017	1219.699
-9.590	30.023	1456.478	1218.923
-8.575	30.037	1455.707	1218.315
-7.560	30.017	1454.484	1217.113
-6.546	29.853	1454.275	1215.817
-5.531	29.821	1452.946	1214.444
-4.517	29.913	1451.961	1214.177
-3.502	30.011	1450.767	1213.773
-2.487	29.881	1450.291	1212.471
-1.473	29.830	1449.346	1211.300
-0.458	29.966	1447.491	1210.592
0.556	28.251	1438.078	1200.200
1.571	25.366	1413.185	1160.703
2.586	22.237	1352.932	1091.719
3.600	20.443	1271.735	1015.632
4.615	19.431	1226.515	973.721
5.629	16.884	1170.470	915.408
6.644	8.678	1084.143	806.618
7.659	1.490	1043.202	741.136
8.673	0.360	1037.843	731.779
9.688	0.253	1034.388	728.765
10.702	-0.064	1033.292	726.393
11.717	-0.027	1031.542	725.276
12.731	2.725	1034.202	740.384
13.746	11.198	1045.364	789.508
14.761	17.211	1052.947	824.429
15.775	17.536	1052.281	825.411
16.790	16.562	1050.000	818.833
17.804	15.372	1047.764	811.265
18.819	14.564	1046.029	805.950
19.834	14.104	1044.264	802.298
20.848	13.898	1043.332	800.518
21.863	13.565	1042.967	798.565
22.877	13.393	1042.052	796.963
23.892	13.250	1040.982	795.386
24.907	12.967	1040.372	793.491
25.921	13.096	1039.423	793.315
26.936	13.124	1039.242	793.240
27.950	13.206	1038.415	792.933
28.965	13.303	1037.300	792.474
29.980	13.234	1036.952	791.812
30.994	13.367	1035.757	791.462
32.009	13.320	1035.045	790.623
33.023	13.279	1034.884	790.235
34.038	13.362	1033.440	789.459
35.053	13.308	1032.864	788.692
36.067	13.279	1031.854	787.712
37.082	13.230	1031.223	786.927
38.096	13.318	1030.372	786.628
39.111	13.307	1029.516	785.851
40.126	13.292	1028.934	785.268
41.140	13.289	1027.702	784.242
42.155	13.113	1027.006	782.808
43.169	13.207	1025.518	782.051
44.184	13.152	1024.509	780.952
45.199	13.087	1023.642	779.916
46.213	13.055	1022.916	779.140
47.228	13.236	1021.610	778.931
48.242	13.168	1020.801	777.923
49.257	13.241	1019.921	777.531
50.271	13.254	1018.760	776.638
51.286	13.271	1017.597	775.761
52.301	13.142	1017.607	775.096
53.315	13.231	1016.585	774.664
54.330	13.266	1015.876	774.221
55.344	13.146	1014.925	772.863
56.359	13.112	1013.878	771.842
57.374	13.221	1013.113	771.699
58.388	13.177	1012.262	770.777
59.403	12.938	1011.708	769.174
60.417	13.065	1010.829	769.028
61.432	13.069	1009.948	768.308
62.447	12.988	1009.315	767.384
63.461	13.005	1008.287	766.609
64.476	13.141	1007.020	766.210
65.490	12.970	1006.667	765.080
66.505	13.205	1005.506	765.221
67.520	13.009	1005.461	764.213
68.534	13.044	1004.606	763.654
69.549	13.064	1003.642	762.948
70.563	13.134	1002.898	762.636
71.578	13.140	1001.979	761.897
72.593	13.156	1000.925	761.103
73.607	13.054	999.927	759.806
74.622	12.814	999.797	758.536
75.636	13.035	998.406	758.429
76.651	13.100	997.663	758.099
77.666	12.860	997.333	756.680
78.680	12.922	996.518	756.278
79.695	13.008	995.951	756.173
80.709	13.085	995.010	755.747
81.724	12.995	994.448	754.841
82.739	12.970	993.818	754.182
83.753	13.052	993.102	753.944
84.768	13.227	992.202	753.996
85.782	13.125	991.860	753.201
86.797	13.291	990.911	753.169
87.812	13.224	990.176	752.238
88.826	13.270	989.082	751.550
89.841	13.183	988.614	750.735
90.855	13.148	987.777	749.876
91.870	13.296	986.705	749.662
92.884	13.355	985.989	749.320
93.899	13.310	985.655	748.797
94.914	13.334	984.557	748.004
95.928	13.381	983.707	747.508
96.943	13.505	982.656	747.201
97.957	13.301	982.338	745.974
98.972	13.238	981.355	744.878
99.987	13.161	981.243	744.378
101.001	13.294	980.170	744.098
102.016	13.280	979.396	743.381
103.030	13.254	978.357	742.412
104.045	13.332	977.393	741.961
105.060	13.403	976.546	741.574
106.074	13.180	975.925	740.035
107.089	13.093	974.871	738.784
108.103	13.167	973.822	738.252
109.118	13.065	973.105	737.186
110.133	13.177	972.444	737.123
111.147	13.069	971.127	735.578
112.162	13.096	971.069	735.589
113.176	13.165	969.723	734.810
114.191	13.257	968.766	734.430
115.206	13.203	968.038	733.572
116.220	13.170	967.390	732.871
117.235	13.226	966.339	732.260
118.249	13.220	965.298	731.378
119.264	13.113	964.663	730.358
120.279	13.265	963.639	730.189
121.293	13.192	963.014	729.330
122.308	13.218	962.649	729.105
123.322	13.217	961.593	728.233
124.337	13.108	960.524	726.882
125.352	13.126	959.365	726.018
126.366	13.150	958.388	725.319
127.381	13.152	957.347	724.479
128.395	13.210	956.267	723.850
129.410	13.187	955.046	722.760
130.424	13.200	954.005	721.965
131.439	13.205	953.310	721.396
132.454	13.157	952.796	720.734
133.468	13.235	951.702	720.185
134.483	13.256	951.407	719.991
135.497	13.321	950.467	719.498
136.512	13.293	949.720	718.744
137.527	13.208	949.297	717.994
138.541	13.211	948.505	717.344
139.556	13.285	947.528	716.864
140.570	13.200	947.302	716.261
141.585	13.177	946.684	715.629
142.600	13.358	946.036	715.859
143.614	13.370	944.780	714.899
144.629	13.394	944.028	714.367
145.643	13.354	943.346	713.617
146.658	13.355	942.528	712.937
147.673	13.404	941.243	712.113
148.687	13.326	940.617	711.245
149.702	13.349	939.854	710.701
150.716	13.372	938.630	709.810
151.731	13.249	938.530	709.144
152.746	13.257	937.300	708.188
153.760	13.321	936.785	708.012
154.775	13.452	935.487	707.525
155.789	13.266	935.264	706.502
156.804	13.375	934.498	706.325
157.819	13.354	933.688	705.562
158.833	13.386	932.952	705.080
159.848	13.489	932.613	705.197
160.862	13.402	931.794	704.149
161.877	13.480	931.015	703.828
162.892	13.522	929.763	702.998
163.906	13.414	929.195	702.046
164.921	13.496	928.100	701.505
165.935	13.318	927.433	700.187
166.950	13.424	926.540	699.898
167.964	13.486	925.747	699.496
168.979	13.419	924.925	698.531
169.994	13.452	923.899	697.834
171.008	13.446	922.860	696.962
172.023	13.484	922.209	696.570
173.037	13.516	921.624	696.201
174.052	13.581	921.032	695.963
175.067	13.436	920.621	694.983
176.081	13.400	919.682	694.063
177.096	13.470	918.738	693.584
178.110	13.394	917.917	692.585
179.125	13.504	917.163	692.413
180.140	13.521	916.258	691.737
181.154	13.448	915.732	690.978
182.169	13.580	915.197	691.062
183.183	13.523	914.349	690.124
184.198	13.625	913.860	690.118
185.213	13.521	913.302	689.203
186.227	13.611	912.450	688.873
187.242	13.612	912.082	688.537
188.256	13.732	911.497	688.531
189.271	13.925	910.136	688.243
190.286	13.796	909.669	687.297
191.300	13.669	908.820	686.070
192.315	13.455	908.194	684.649
193.329	13.471	907.515	684.145
194.344	13.516	906.932	683.828
195.359	13.618	906.009	683.494
196.373	13.608	905.966	683.360
197.388	13.769	905.240	683.415
198.402	13.678	904.918	682.734
199.417	13.806	904.726	683.058
200.432	13.865	904.002	682.693
201.446	14.033	903.159	682.686
202.461	14.016	902.786	682.274
203.475	13.941	902.417	681.630
204.490	13.870	901.878	680.870
205.504	14.043	901.048	680.892
206.519	13.984	899.912	679.729
207.534	13.960	899.137	678.989
208.548	13.723	898.990	677.850
209.563	13.959	898.137	678.109
210.577	14.020	897.281	677.651
211.592	14.017	896.745	677.174
212.607	14.072	896.116	676.864
213.621	14.005	895.880	676.353
214.636	14.080	894.787	675.772
215.650	14.031	894.399	675.220
216.665	14.046	894.033	674.944
217.680	14.105	893.321	674.587
218.694	14.067	892.961	674.102
219.709	14.272	892.064	674.192
220.723	14.319	891.327	673.767
221.738	14.184	890.815	672.776
222.753	14.227	890.146	672.385
223.767	14.265	889.595	672.061
224.782	14.287	888.383	671.176
225.796	14.389	887.632	670.960
226.811	14.391	887.382	670.717
227.826	14.375	887.109	670.391
228.840	14.260	885.782	668.866
229.855	14.245	885.672	668.664
230.869	14.248	885.096	668.182
231.884	14.285	884.291	667.663
232.899	14.263	883.633	667.018
233.913	14.278	882.840	666.421
234.928	14.235	882.363	665.831
235.942	14.256	881.722	665.371
236.957	14.283	880.384	664.409
237.972	14.385	880.260	664.664
238.986	14.399	879.541	664.120
240.001	14.418	878.839	663.605
241.015	14.154	878.431	662.189
242.030	14.357	877.323	662.101
243.045	14.392	876.884	661.849
244.059	14.413	876.598	661.659
245.074	14.388	875.801	660.901
246.088	14.395	874.985	660.255
247.103	14.393	874.555	659.861
248.117	14.517	874.082	659.936
249.132	14.558	873.589	659.669
250.147	14.698	872.773	659.548
251.161	14.710	872.293	659.173
252.176	14.692	871.635	658.546
253.190	14.803	870.556	658.112
254.205	14.778	870.259	657.731
255.220	14.784	869.753	657.315
256.234	14.789	868.758	656.523
257.249	14.874	868.219	656.390
258.263	14.873	867.537	655.814
259.278	14.921	866.929	655.484
260.293	14.827	866.749	654.923
261.307	14.929	865.741	654.500
262.322	14.893	865.668	654.248
263.336	14.990	864.989	654.057
264.351	14.979	864.250	653.396
265.366	14.973	863.545	652.781
266.380	15.059	862.823	652.515
267.395	14.980	862.445	651.862
268.409	15.007	861.499	651.195
269.424	14.968	860.794	650.451
270.439	14.895	860.198	649.663
271.453	14.928	859.448	649.166
272.468	14.964	858.826	648.778
273.482	15.025	858.343	648.593
274.497	14.890	857.823	647.619
275.512	15.055	856.775	647.409
276.526	14.982	855.909	646.414
277.541	15.100	855.309	646.360
278.555	15.150	854.540	645.913
279.570	15.030	854.368	645.266
280.585	15.077	853.989	645.103
281.599	15.169	853.383	644.940
282.614	15.204	852.520	644.368
283.628	15.151	852.070	643.767
284.643	15.181	851.470	643.371
285.657	15.130	851.050	642.801
286.672	15.237	850.504	642.740
287.687	15.135	850.116	642.000
288.701	15.107	849.615	641.457
289.716	15.215	849.152	641.465
290.730	15.232	848.221	640.771
291.745	15.375	847.709	640.873
292.760	15.436	846.778	640.345
293.774	15.305	846.307	639.433
294.789	15.358	845.905	639.275
295.803	15.377	845.486	638.974
296.818	15.283	844.662	637.938
297.833	15.407	843.876	637.760
298.847	15.322	843.542	637.128
299.862	15.363	842.621	636.529
300.876	15.339	842.260	636.110
301.891	15.423	841.324	635.665
302.906	15.420	840.932	635.302
303.920	15.458	840.108	634.765
304.935	15.694	839.130	634.864
305.949	15.547	839.085	634.217
306.964	15.650	838.199	633.882
307.979	15.555	837.569	632.989
308.993	15.617	837.208	632.894
310.008	15.673	836.670	632.642
311.022	15.698	835.669	631.923
312.037	15.791	835.413	632.024
313.052	15.644	835.032	631.126
314.066	15.649	834.261	630.506
315.081	15.687	833.678	630.153
316.095	15.573	833.383	629.448
317.110	15.538	832.834	628.847
318.125	15.740	832.283	629.129
319.139	15.616	831.895	628.319
320.154	15.542	831.391	627.606
321.168	15.579	830.752	627.204
322.183	15.582	830.132	626.694
323.197	15.725	829.404	626.618
324.212	15.761	828.861	626.289
325.227	15.655	828.635	625.667
326.241	15.697	828.274	625.495
327.256	15.784	827.217	624.967
328.270	15.573	827.102	624.041
329.285	15.686	826.318	623.813
330.300	15.561	826.080	623.113
331.314	15.729	825.713	623.407
332.329	15.735	824.738	622.637
333.343	15.919	823.898	622.628
334.358	15.841	823.352	621.873
335.373	16.051	822.764	622.147
336.387	15.935	822.530	621.486
337.402	15.923	821.874	620.892
338.416	16.055	821.135	620.765
339.431	15.807	821.257	619.890
340.446	16.085	820.089	619.975
341.460	15.996	819.954	619.491
342.475	16.127	819.539	619.604
343.489	16.159	818.433	618.832
344.504	16.127	818.167	618.456
345.519	16.288	817.495	618.483
346.533	16.242	817.090	617.954
347.548	16.270	816.508	617.563
348.562	16.103	816.264	616.713
349.577	16.165	815.659	616.428
350.592	16.182	814.976	615.920
351.606	16.101	814.614	615.296
352.621	16.046	814.091	614.645
353.635	16.126	813.695	614.582
354.650	16.258	813.562	614.909
355.665	16.244	812.934	614.328
356.679	16.317	812.212	613.993
357.694	16.171	811.876	613.157
358.708	16.283	811.407	613.153
359.723	16.192	810.799	612.309
360.738	16.256	810.592	612.332
361.752	16.242	809.870	611.680
362.767	16.319	809.165	611.371
363.781	16.338	809.316	611.501
364.796	16.284	808.668	610.763
365.810	16.466	808.074	610.920
366.825	16.523	807.648	610.748
367.840	16.470	807.488	610.381
368.854	16.321	807.467	609.773
369.869	16.627	806.493	610.087
370.883	16.505	805.817	609.084
371.898	16.673	804.863	608.912
372.913	16.641	804.678	608.604
373.927	16.638	803.802	607.876
374.942	16.598	803.652	607.566
375.956	16.524	802.636	606.479
376.971	16.644	802.206	606.529
377.986	16.615	801.707	605.996
379.000	16.831	801.093	606.251
380.015	16.686	801.050	605.646
381.029	16.770	800.477	605.457
382.044	16.707	799.588	604.509
383.059	16.893	798.993	604.669
384.073	16.754	798.699	603.894
385.088	16.767	798.348	603.624
386.102	16.779	797.300	602.820
387.117	16.817	797.054	602.717
388.132	16.891	796.622	602.598
389.146	16.559	796.481	601.259
390.161	16.747	795.968	601.486
391.175	16.931	795.591	601.803
392.190	16.981	795.186	601.619
393.205	16.970	794.521	601.024
394.219	16.791	794.398	600.243
395.234	16.922	793.481	599.962
396.248	16.978	792.985	599.730
397.263	16.960	792.699	599.399
398.278	16.848	792.373	598.701
399.292	16.665	792.070	597.776
400.307	16.952	791.261	598.124
401.321	16.804	791.245	597.536
402.336	16.840	790.727	597.220
403.350	16.794	790.521	596.851
404.365	16.847	789.917	596.527
405.380	17.140	789.027	596.833
406.394	16.866	789.004	595.798
407.409	17.003	788.398	595.768
408.423	16.983	788.268	595.548
409.438	17.177	787.399	595.519
410.453	17.057	787.372	595.025
411.467	17.198	786.976	595.166
412.482	17.173	786.125	594.384
413.496	17.081	785.652	593.653
414.511	17.287	785.194	593.972
415.526	17.335	785.046	593.977
416.540	17.207	784.981	593.427
417.555	17.166	784.434	592.817
418.569	17.210	783.502	592.214
419.584	17.271	783.659	592.493
420.599	17.120	783.270	591.620
421.613	108.917	1289.411	1468.466
422.628	93.274	1363.137	1468.570
