DTS Sentinel unit serial number:	SN413079Multiplexer serial number:	ORYXHardware model number:	OX4-SRSoftware version number:	ORYX F/W v4.00 Oryx Data Collector v3.7.2.0data status	okinstallation	princeton_trtdifferential loss correction	single-endedforward channel	channel 3reverse channel	N/Adate	2019/09/13time	15:08:35forward acquisition time	60.00reverse acquisition time	0.00gamma	496.2192k internal	0.2301k external	0.2301temperature offset calibration	1.0140default loss term (dB/km)	0.3790temperature slope calibration	1.0000multiplexer offset coefficient	1.0000multiplexer slope coefficient	1.0000fibre end	0.00T internal ref (°C)	35.62T ext. ref 1 (°C)	4.72T ext. ref 2 (°C)	30.92length (m)	temperature (°C)	Stokes	anti-Stokes-747.200	-103.523	-0.114	0.027
-746.185	-111.470	0.117	-0.024
-745.171	-200.000	-0.184	-0.001
-744.156	-108.524	0.189	0.041
-743.142	-200.000	-0.028	-0.330
-742.127	-200.000	-0.005	0.238
-741.112	460.459	0.093	-0.212
-740.098	-200.000	0.046	0.307
-739.083	-200.000	-0.003	-0.133
-738.069	224.873	0.042	0.070
-737.054	800.000	0.036	-0.109
-736.039	-200.000	-0.044	-0.416
-735.025	-64.062	-0.145	0.060
-734.010	-58.202	-0.415	-0.184
-732.996	-200.000	-0.026	-0.248
-731.981	-59.625	0.200	0.087
-730.966	-187.406	-0.129	0.002
-729.952	-144.623	-0.461	0.043
-728.937	-200.000	-0.030	-0.216
-727.923	-37.695	0.197	-0.107
-726.908	-62.134	-0.131	0.056
-725.894	144.623	-0.194	-0.264
-724.879	55.551	-0.046	-0.045
-723.864	800.000	0.079	-0.257
-722.850	-67.420	-0.242	0.097
-721.835	95.540	0.105	-0.122
-720.821	-200.000	0.019	-0.139
-719.806	133.428	0.289	-0.380
-718.791	-200.000	-0.039	-0.280
-717.777	-49.776	-0.145	0.070
-716.762	-200.000	-0.014	-0.100
-715.748	-156.219	0.280	-0.018
-714.733	-79.367	-0.275	0.095
-713.718	236.885	0.110	-0.186
-712.704	37.670	0.168	0.152
-711.689	800.000	-0.153	-0.528
-710.675	-200.000	-0.194	-0.001
-709.660	-86.014	-0.154	0.049
-708.645	197.673	-0.140	0.218
-707.631	-70.792	-0.041	-0.016
-706.616	-59.601	-0.093	-0.040
-705.602	-200.000	-0.036	-0.256
-704.587	40.475	-0.279	0.255
-703.572	235.146	0.085	-0.142
-702.558	-188.952	-0.327	-0.004
-701.543	-55.292	0.207	0.095
-700.529	-200.000	-0.026	0.289
-699.514	-162.520	-0.304	0.015
-698.499	-73.862	0.202	0.075
-697.485	800.000	-0.068	0.223
-696.470	143.410	-0.253	0.343
-695.456	-76.626	0.233	0.083
-694.441	800.000	0.037	-0.115
-693.426	-200.000	0.019	0.258
-692.412	-138.309	-0.290	-0.033
-691.397	452.594	-0.027	0.061
-690.383	-125.141	0.149	0.023
-689.368	800.000	-0.020	0.087
-688.354	-200.000	0.053	-0.375
-687.339	529.950	0.055	-0.133
-686.324	-38.433	0.137	-0.074
-685.310	-106.571	0.236	0.053
-684.295	-20.632	0.137	0.086
-683.281	-200.000	0.013	0.135
-682.266	-200.000	-0.008	-0.067
-681.251	-103.826	-0.331	-0.079
-680.237	-125.699	-0.071	-0.011
-679.222	-125.827	0.081	-0.012
-678.208	8.988	-0.253	0.194
-677.193	165.300	-0.026	0.037
-676.178	402.826	0.114	0.243
-675.164	42.807	-0.073	-0.068
-674.149	800.000	0.043	-0.163
-673.135	-69.559	-0.140	0.055
-672.120	800.000	-0.070	0.228
-671.105	-200.000	0.001	-0.166
-670.091	800.000	0.032	-0.105
-669.076	636.239	0.071	-0.183
-668.062	-98.160	-0.372	-0.097
-667.047	-174.393	-0.157	0.005
-666.032	-27.115	-0.342	0.203
-665.018	-70.479	0.264	0.102
-664.003	-107.929	-0.154	-0.034
-662.989	238.744	-0.239	0.404
-661.974	-200.000	-0.044	0.199
-660.959	36.743	0.230	0.207
-659.945	165.820	-0.117	-0.169
-658.930	-116.901	0.156	-0.029
-657.916	25.971	0.216	-0.183
-656.901	-14.277	-0.177	0.116
-655.886	-200.000	0.005	-0.292
-654.872	-98.682	0.200	0.052
-653.857	98.379	-0.309	-0.362
-652.843	582.527	0.126	-0.315
-651.828	-119.098	0.044	0.008
-650.814	-10.606	-0.253	0.170
-649.799	-20.391	-0.247	-0.154
-648.784	-85.755	0.219	-0.069
-647.770	-65.462	0.197	0.080
-646.755	322.100	-0.035	0.067
-645.741	-70.493	0.071	0.027
-644.726	-187.338	0.185	0.003
-643.711	-19.397	0.179	-0.113
-642.697	800.000	0.111	-0.321
-641.682	123.987	0.146	-0.186
-640.668	10.416	0.252	0.195
-639.653	23.406	0.159	-0.132
-638.638	-6.245	0.206	-0.143
-637.624	-200.000	0.010	0.073
-636.609	-24.184	-0.163	0.099
-635.595	-9.677	0.174	-0.118
-634.580	-112.270	0.225	-0.046
-633.565	-141.614	0.332	-0.034
-632.551	-108.751	0.091	0.020
-631.536	9.511	-0.124	-0.096
-630.522	800.000	0.021	-0.091
-629.507	-69.476	-0.375	0.146
-628.492	-151.603	0.075	0.006
-627.478	79.085	-0.155	-0.168
-626.463	-28.792	-0.099	0.058
-625.449	-62.170	0.247	0.105
-624.434	800.000	-0.074	-0.329
-623.419	-200.000	0.034	-0.320
-622.405	-200.000	0.055	-0.261
-621.390	-4.308	0.254	0.179
-620.376	-9.143	0.166	-0.113
-619.361	-149.746	-0.110	-0.009
-618.346	-104.747	-0.080	-0.019
-617.332	800.000	0.056	0.230
-616.317	800.000	-0.084	-0.298
-615.303	53.778	-0.197	-0.192
-614.288	-140.937	0.249	-0.026
-613.273	-144.059	0.131	-0.012
-612.259	-111.449	0.256	0.053
-611.244	340.793	-0.027	0.054
-610.230	296.282	0.159	0.296
-609.215	88.997	0.162	0.183
-608.201	-148.648	-0.250	0.021
-607.186	162.321	0.205	0.291
-606.171	-200.000	0.002	-0.118
-605.157	-121.747	-0.187	0.031
-604.142	151.139	-0.141	-0.195
-603.128	128.363	0.105	0.135
-602.113	96.215	-0.290	-0.336
-601.098	-111.635	0.102	0.021
-600.084	164.937	0.233	0.333
-599.069	-200.000	-0.029	0.247
-598.055	-164.241	0.060	-0.003
-597.040	303.990	-0.076	0.143
-596.025	-96.404	-0.369	0.099
-595.011	123.669	-0.085	-0.108
-593.996	284.270	-0.056	-0.102
-592.982	-104.514	-0.187	0.044
-591.967	74.250	-0.089	0.095
-590.952	800.000	0.139	-0.559
-589.938	220.276	-0.069	-0.112
-588.923	-58.900	-0.138	-0.060
-587.909	119.428	0.173	0.217
-586.894	-76.585	-0.291	0.103
-585.879	-200.000	0.062	-0.291
-584.865	-200.000	0.040	0.181
-583.850	800.000	0.021	-0.067
-582.836	225.882	-0.115	0.189
-581.821	-154.387	0.124	-0.008
-580.806	-42.812	-0.249	-0.128
-579.792	-200.000	0.013	0.115
-578.777	-200.000	0.005	-0.074
-577.763	74.083	0.322	0.343
-576.748	-57.151	0.130	-0.058
-575.733	-114.335	-0.138	-0.027
-574.719	-200.000	0.055	-0.289
-573.704	246.784	-0.026	-0.044
-572.690	800.000	-0.015	0.045
-571.675	63.768	0.157	0.159
-570.661	-29.863	0.402	0.232
-569.646	-73.574	-0.194	0.072
-568.631	-143.720	-0.400	-0.038
-567.617	410.741	0.212	-0.454
-566.602	-200.000	-0.035	-0.163
-565.588	800.000	0.057	0.223
-564.573	800.000	0.020	-0.058
-563.558	72.636	-0.186	-0.196
-562.544	-41.999	0.114	-0.059
-561.529	-71.582	0.201	0.076
-560.515	221.334	0.101	-0.163
-559.500	-150.274	0.112	0.009
-558.485	78.136	-0.142	-0.154
-557.471	-111.309	-0.288	0.060
-556.456	69.091	0.265	0.276
-555.442	1.320	-0.238	0.173
-554.427	43.772	-0.210	-0.195
-553.412	-200.000	-0.025	-0.177
-552.398	49.867	-0.311	-0.297
-551.383	64.674	0.081	-0.083
-550.369	460.049	-0.046	-0.104
-549.354	206.909	0.125	0.198
-548.339	26.507	0.083	-0.070
-547.325	124.371	0.180	-0.229
-546.310	-96.386	0.167	-0.045
-545.296	31.035	0.084	-0.073
-544.281	-200.000	-0.065	-0.417
-543.266	-200.000	-0.038	0.267
-542.252	-200.000	0.018	0.465
-541.237	-83.241	0.076	-0.025
-540.223	15.053	0.170	-0.135
-539.208	-200.000	0.002	0.164
-538.193	800.000	-0.110	0.309
-537.179	-3.012	0.122	0.086
-536.164	800.000	-0.078	0.329
-535.150	14.060	-0.174	0.137
-534.135	452.434	0.073	0.163
-533.121	213.335	-0.067	-0.108
-532.106	86.723	-0.030	0.034
-531.091	-48.699	0.126	0.061
-530.077	800.000	-0.029	-0.110
-529.062	235.297	0.160	0.267
-528.048	173.041	0.057	-0.083
-527.033	-200.000	-0.010	0.153
-526.018	259.734	-0.138	-0.241
-525.004	-200.000	-0.029	0.368
-523.989	-174.994	-0.273	0.008
-522.975	10.757	0.338	0.260
-521.960	-200.000	0.106	-0.000
-520.945	63.426	0.120	-0.122
-519.931	101.687	0.159	-0.187
-518.916	571.515	-0.106	0.260
-517.902	107.144	-0.179	0.215
-516.887	184.181	0.230	0.345
-515.872	-68.492	0.162	-0.063
-514.858	-42.946	-0.152	-0.078
-513.843	-45.801	-0.128	0.064
-512.829	104.428	0.152	0.181
-511.814	-141.380	-0.279	0.029
-510.799	-200.000	0.070	-0.442
-509.785	-70.073	0.530	-0.204
-508.770	232.656	-0.077	-0.128
-507.756	-200.000	-0.001	-0.271
-506.741	800.000	-0.096	-0.271
-505.726	-111.600	-0.250	0.051
-504.712	194.544	0.144	-0.221
-503.697	-149.203	0.092	0.007
-502.683	-194.006	-0.069	-0.001
-501.668	-200.000	0.007	-0.214
-500.653	-200.000	0.049	0.242
-499.639	-200.000	0.017	0.238
-498.624	800.000	0.155	0.486
-497.610	262.592	0.252	0.441
-496.595	-65.390	0.074	0.030
-495.581	-135.748	0.279	0.033
-494.566	-88.039	-0.089	0.027
-493.551	136.745	-0.148	-0.195
-492.537	6.574	0.254	-0.190
-491.522	36.282	-0.051	-0.046
-490.508	800.000	0.078	-0.318
-489.493	-200.000	-0.007	-0.106
-488.478	21.394	-0.187	-0.153
-487.464	-73.722	-0.232	0.085
-486.449	187.841	-0.223	0.336
-485.435	41.195	-0.024	0.022
-484.420	-52.371	-0.314	-0.147
-483.405	15.975	-0.106	-0.084
-482.391	212.151	-0.206	0.328
-481.376	681.720	0.068	-0.179
-480.362	-133.325	-0.217	0.028
-479.347	-2.284	0.210	0.149
-478.332	-200.000	-0.001	0.183
-477.318	-200.000	0.014	0.232
-476.303	-151.761	-0.258	-0.019
-475.289	450.467	0.027	-0.059
-474.274	-70.053	0.290	0.111
-473.259	327.617	0.040	-0.077
-472.245	-80.660	0.130	-0.044
-471.230	-2.653	0.105	0.074
-470.216	2.669	-0.245	0.179
-469.201	3.721	0.013	-0.010
-468.186	62.586	0.170	-0.171
-467.172	-157.484	-0.228	-0.014
-466.157	104.873	-0.068	0.081
-465.143	-165.198	0.393	-0.018
-464.128	22.709	0.065	-0.054
-463.113	-128.378	0.351	-0.050
-462.099	618.472	0.092	-0.233
-461.084	529.984	-0.074	0.177
-460.070	299.057	-0.159	-0.294
-459.055	-200.000	-0.035	-0.169
-458.040	-116.466	0.321	0.060
-457.026	-196.891	0.200	0.001
-456.011	-200.000	-0.031	-0.314
-454.997	-72.846	-0.217	-0.081
-453.982	159.339	0.064	-0.090
-452.968	-200.000	0.019	-0.240
-451.953	-200.000	0.010	0.121
-450.938	137.258	0.101	-0.133
-449.924	-200.000	-0.013	-0.093
-448.909	-34.872	0.078	0.043
-447.895	15.147	-0.075	-0.059
-446.880	510.599	0.132	-0.309
-445.865	663.913	0.104	-0.270
-444.851	-144.340	0.310	0.029
-443.836	-87.010	-0.469	-0.144
-442.822	380.214	-0.141	-0.291
-441.807	-107.313	-0.057	-0.013
-440.792	-200.000	0.052	-0.462
-439.778	33.438	0.092	-0.081
-438.763	-136.201	-0.184	0.022
-437.749	-112.344	-0.314	0.063
-436.734	800.000	-0.024	-0.071
-435.719	-200.000	-0.030	-0.196
-434.705	651.573	-0.036	0.094
-433.690	-174.326	-0.234	-0.007
-432.676	-138.777	0.189	-0.021
-431.661	800.000	0.093	-0.362
-430.646	0.940	-0.171	-0.123
-429.632	-7.629	-0.187	-0.128
-428.617	87.836	0.165	0.184
-427.603	103.289	-0.287	0.339
-426.588	-54.929	0.111	0.051
-425.573	479.451	-0.046	-0.105
-424.559	-48.302	-0.273	0.133
-423.544	-121.057	0.173	0.029
-422.530	75.939	-0.347	-0.370
-421.515	-200.000	-0.031	-0.507
-420.500	-83.873	0.220	-0.070
-419.486	437.917	-0.059	0.129
-418.471	-35.883	0.206	-0.112
-417.457	122.984	-0.050	-0.063
-416.442	12.159	-0.226	0.175
-415.428	800.000	0.151	0.443
-414.413	-33.049	-0.165	0.092
-413.398	298.267	-0.158	0.293
-412.384	497.842	-0.054	0.125
-411.369	-108.017	0.162	-0.035
-410.355	-200.000	0.001	0.152
-409.340	800.000	0.021	-0.085
-408.325	390.071	0.045	-0.095
-407.311	800.000	0.070	0.300
-406.296	52.921	0.189	0.182
-405.282	800.000	-0.039	-0.127
-404.267	677.820	0.174	0.455
-403.252	556.066	-0.053	-0.128
-402.238	221.000	-0.037	-0.060
-401.223	-88.662	-0.361	-0.108
-400.209	-171.340	0.171	0.006
-399.194	143.708	-0.066	-0.088
-398.179	-143.015	-0.117	0.011
-397.165	800.000	0.024	-0.087
-396.150	-200.000	0.002	0.015
-395.136	-71.089	-0.273	0.103
-394.121	-195.844	0.039	0.000
-393.106	105.388	0.109	-0.130
-392.092	-200.000	-0.063	0.340
-391.077	800.000	0.096	0.284
-390.063	800.000	0.035	-0.129
-389.048	236.617	-0.080	0.134
-388.033	150.902	0.166	0.227
-387.019	743.057	-0.085	0.230
-386.004	-200.000	0.051	-0.249
-384.990	599.168	-0.020	0.050
-383.975	-164.309	0.335	-0.015
-382.960	-13.630	-0.301	-0.196
-381.946	-200.000	0.047	0.379
-380.931	-77.647	-0.141	0.049
-379.917	-0.499	-0.112	-0.080
-378.902	-35.249	0.251	-0.137
-377.888	81.843	0.022	-0.024
-376.873	-200.000	0.013	0.140
-375.858	43.480	0.133	0.122
-374.844	-48.847	-0.072	-0.035
-373.829	-5.194	0.251	0.174
-372.815	58.238	0.255	-0.251
-371.800	-27.755	-0.061	-0.035
-370.785	-200.000	-0.023	0.131
-369.771	800.000	-0.016	0.064
-368.756	25.546	0.123	-0.103
-367.742	40.351	-0.141	-0.128
-366.727	451.452	-0.123	-0.273
-365.712	279.484	0.043	-0.077
-364.698	49.209	0.026	-0.024
-363.683	-200.000	-0.044	0.289
-362.669	-4.709	-0.086	-0.060
-361.654	-200.000	-0.008	-0.248
-360.639	201.850	0.074	0.114
-359.625	-200.000	-0.021	0.289
-358.610	-107.992	-0.094	-0.020
-357.596	419.941	-0.047	-0.101
-356.581	40.965	-0.139	0.126
-355.566	605.663	0.081	0.204
-354.552	-93.107	-0.266	-0.074
-353.537	800.000	-0.011	0.035
-352.523	-200.000	0.003	0.322
-351.508	-25.640	-0.275	0.163
-350.493	-127.313	0.360	0.053
-349.479	31.397	0.124	-0.107
-348.464	530.117	-0.154	-0.365
-347.450	-177.460	0.180	0.004
-346.435	-103.063	-0.085	0.020
-345.420	-138.093	0.286	0.032
-344.406	800.000	0.024	-0.087
-343.391	400.201	0.089	-0.186
-342.377	-42.488	-0.112	-0.057
-341.362	800.000	0.076	-0.249
-340.348	577.780	-0.064	0.158
-339.333	534.915	-0.064	0.153
-338.318	-167.679	0.172	0.007
-337.304	-8.814	-0.103	-0.070
-336.289	16.485	-0.116	-0.092
-335.275	113.190	0.154	0.188
-334.260	-1.836	-0.381	0.269
-333.245	290.858	-0.091	-0.166
-332.231	-18.777	-0.169	0.106
-331.216	475.019	-0.132	0.300
-330.202	800.000	0.043	0.187
-329.187	98.400	-0.172	0.198
-328.172	24.266	0.284	0.235
-327.158	157.493	-0.047	-0.065
-326.143	86.216	0.211	0.234
-325.129	-115.752	0.171	-0.032
-324.114	-144.941	-0.290	0.027
-323.099	800.000	-0.045	-0.155
-322.085	186.588	-0.043	0.064
-321.070	-46.804	-0.159	-0.078
-320.056	-200.000	0.018	-0.595
-319.041	44.997	0.194	0.179
-318.026	755.008	0.095	0.256
-317.012	-152.997	-0.245	0.017
-315.997	800.000	-0.126	0.432
-314.983	-200.000	0.003	0.286
-313.968	-200.000	-0.005	0.234
-312.953	-200.000	0.014	0.086
-311.939	-102.876	0.166	0.039
-310.924	-200.000	-0.004	0.094
-309.910	762.697	0.127	0.345
-308.895	-77.042	-0.170	0.059
-307.880	-101.927	0.282	-0.068
-306.866	219.553	-0.183	0.294
-305.851	-155.350	0.545	0.035
-304.837	143.325	-0.249	-0.332
-303.822	-55.323	0.111	-0.050
-302.807	348.051	0.081	-0.160
-301.793	-89.368	-0.280	-0.083
-300.778	-11.251	-0.315	-0.208
-299.764	159.028	0.180	-0.250
-298.749	800.000	-0.038	-0.126
-297.735	64.411	0.193	-0.195
-296.720	129.034	0.301	-0.384
-295.705	623.009	0.126	-0.317
-294.691	-200.000	0.021	0.199
-293.676	-144.826	0.249	0.023
-292.662	-200.000	0.026	0.390
-291.647	-200.000	0.026	0.208
-290.632	-63.470	-0.137	-0.056
-289.618	-0.991	-0.055	0.039
-288.603	362.548	0.036	-0.072
-287.589	107.432	-0.126	-0.150
-286.574	471.063	0.138	-0.311
-285.559	-200.000	0.006	0.233
-284.545	45.479	-0.148	-0.136
-283.530	-45.693	0.101	0.050
-282.516	-200.000	0.007	-0.062
-281.501	-50.767	0.178	0.084
-280.486	800.000	0.101	0.387
-279.472	-200.000	0.061	0.463
-278.457	99.647	-0.284	0.329
-277.443	333.626	-0.106	0.206
-276.428	33.972	0.095	0.083
-275.413	-72.955	-0.180	-0.066
-274.399	-200.000	-0.026	0.137
-273.384	800.000	-0.096	-0.336
-272.370	-121.729	-0.143	-0.024
-271.355	99.547	0.215	-0.249
-270.340	-200.000	-0.023	-0.283
-269.326	135.721	0.162	0.211
-268.311	800.000	-0.034	-0.100
-267.297	441.603	0.026	0.058
-266.282	-126.653	0.184	0.027
-265.267	121.702	0.168	0.210
-264.253	-200.000	-0.023	-0.128
-263.238	-155.321	0.248	-0.016
-262.224	-35.009	-0.095	0.052
-261.209	-23.410	-0.231	-0.139
-260.195	256.334	0.123	-0.212
-259.180	800.000	-0.051	-0.159
-258.165	-111.872	-0.328	0.066
-257.151	-2.055	-0.269	0.189
-256.136	77.112	0.151	0.161
-255.122	-161.948	0.291	0.015
-254.107	165.394	-0.170	-0.240
-253.092	-200.000	-0.050	0.239
-252.078	66.957	0.151	0.154
-251.063	800.000	0.076	-0.310
-250.049	-149.520	-0.298	0.024
-249.034	-47.531	0.233	0.113
-248.019	-13.383	-0.107	0.069
-247.005	-85.872	-0.079	-0.024
-245.990	800.000	0.023	-0.084
-244.976	363.260	-0.040	0.080
-243.961	-23.746	-0.201	0.120
-242.946	-17.462	-0.343	-0.216
-241.932	800.000	-0.045	0.145
-240.917	800.000	-0.073	-0.230
-239.903	-87.632	-0.260	0.079
-238.888	77.123	0.015	-0.016
-237.873	-57.720	-0.063	-0.028
-236.859	77.393	0.029	-0.031
-235.844	-115.794	0.268	-0.050
-234.830	485.327	0.065	-0.148
-233.815	220.488	0.049	0.078
-232.800	-115.154	-0.229	0.043
-231.786	-200.000	0.033	0.387
-230.771	-200.000	0.005	-0.165
-229.757	-99.580	0.174	0.044
-228.742	237.410	-0.160	0.264
-227.727	-200.000	0.029	-0.347
-226.713	111.134	-0.035	0.043
-225.698	-200.000	-0.028	0.250
-224.684	59.068	-0.100	-0.098
-223.669	-90.916	-0.293	0.084
-222.655	73.868	0.231	-0.242
-221.640	67.400	0.117	-0.119
-220.625	-14.490	-0.218	0.140
-219.611	-88.008	-0.179	0.054
-218.596	233.436	0.270	0.443
-217.582	-105.910	-0.376	-0.085
-216.567	800.000	0.053	0.172
-215.552	-200.000	-0.012	-0.067
-214.538	-200.000	0.036	-0.190
-213.523	53.653	0.257	-0.246
-212.509	-134.358	-0.151	-0.019
-211.494	800.000	-0.075	-0.255
-210.479	-13.203	-0.231	0.150
-209.465	-19.592	-0.075	0.046
-208.450	9.538	-0.178	-0.134
-207.436	-90.332	-0.385	0.112
-206.421	92.676	-0.272	-0.307
-205.406	19.826	0.409	-0.329
-204.392	277.428	-0.049	0.088
-203.377	-138.517	0.124	0.014
-202.363	-73.491	0.435	-0.159
-201.348	58.606	-0.233	0.229
-200.333	-56.042	-0.159	-0.071
-199.319	-200.000	-0.061	-0.338
-198.304	75.599	0.179	-0.189
-197.290	739.002	-0.049	-0.130
-196.275	152.922	0.080	0.110
-195.260	-138.607	0.313	0.034
-194.246	-163.366	0.053	0.003
-193.231	173.944	-0.055	-0.079
-192.217	-200.000	0.019	0.222
-191.202	-53.046	-0.047	0.022
-190.187	29.151	-0.183	-0.155
-189.173	-130.454	0.252	-0.034
-188.158	-200.000	-0.035	-0.250
-187.144	-125.905	-0.054	0.008
-186.129	-86.867	-0.219	0.067
-185.114	-40.977	0.156	0.081
-184.100	-63.662	0.232	-0.095
-183.085	-200.000	0.013	-0.315
-182.071	-101.799	-0.354	-0.086
-181.056	-81.277	-0.193	0.064
-180.042	4.939	0.240	-0.176
-179.027	62.797	0.245	0.245
-178.012	-45.123	-0.063	-0.031
-176.998	354.240	0.132	0.261
-175.983	214.952	0.205	0.323
-174.969	-92.380	0.304	-0.085
-173.954	230.870	0.126	-0.206
-172.939	-101.853	-0.150	-0.036
-171.925	163.353	-0.215	0.301
-170.910	-200.000	0.002	-0.106
-169.896	38.612	0.114	-0.101
-168.881	-138.310	-0.405	0.045
-167.866	-114.301	0.208	0.040
-166.852	-76.654	-0.028	-0.010
-165.837	-102.069	-0.345	0.083
-164.823	-159.494	-0.153	-0.008
-163.808	-76.074	-0.126	0.044
-162.793	-51.852	-0.151	0.070
-161.779	162.040	-0.255	-0.356
-160.764	-89.610	-0.281	0.082
-159.750	-21.387	-0.030	-0.019
-158.735	800.000	0.090	0.365
-157.720	203.697	-0.167	0.257
-156.706	-168.774	-0.181	0.007
-155.691	-200.000	-0.027	0.157
-154.677	-127.120	0.277	-0.040
-153.662	-159.309	0.226	-0.013
-152.647	622.538	0.104	0.261
-151.633	60.347	-0.151	-0.149
-150.618	-200.000	-0.011	-0.248
-149.604	151.762	-0.111	0.151
-148.589	-200.000	0.025	0.158
-147.574	-200.000	0.022	0.166
-146.560	159.318	-0.166	0.230
-145.545	-147.725	-0.344	-0.029
-144.531	52.721	0.187	0.178
-143.516	-84.030	-0.297	0.094
-142.502	-73.539	0.150	0.055
-141.487	-53.320	-0.161	0.073
-140.472	-20.024	0.351	-0.216
-139.458	-146.452	-0.359	0.031
-138.443	-8.079	-0.335	-0.225
-137.429	800.000	-0.104	-0.368
-136.414	67.513	0.189	0.192
-135.399	-200.000	-0.007	0.051
-134.385	25.480	-0.200	0.166
-133.370	-200.000	0.029	0.350
-132.356	-200.000	-0.006	0.177
-131.341	-31.731	0.330	0.184
-130.326	-200.000	0.030	0.204
-129.312	-81.740	-0.457	0.149
-128.297	-48.891	0.301	0.144
-127.283	12.346	-0.238	-0.183
-126.268	518.569	0.093	-0.217
-125.253	-200.000	0.023	-0.112
-124.239	-42.163	-0.156	0.079
-123.224	800.000	0.073	0.212
-122.210	67.613	-0.186	0.190
-121.195	431.509	-0.095	-0.205
-120.180	262.373	-0.091	0.157
-119.166	151.585	0.088	-0.119
-118.151	-79.530	0.272	0.091
-117.137	-176.082	0.255	0.007
-116.122	320.214	-0.037	-0.069
-115.107	-41.021	-0.119	-0.061
-114.093	8.606	-0.079	0.059
-113.078	800.000	0.054	-0.223
-112.064	800.000	-0.018	-0.069
-111.049	800.000	-0.014	-0.056
-110.034	800.000	-0.040	0.169
-109.020	800.000	0.053	0.207
-108.005	115.915	-0.050	0.061
-106.991	800.000	-0.089	0.249
-105.976	112.794	-0.143	-0.172
-104.962	-200.000	-0.031	-0.291
-103.947	233.905	-0.189	0.309
-102.932	-38.529	0.119	-0.063
-101.918	96.855	0.098	-0.112
-100.903	800.000	0.078	0.283
-99.889	21.569	0.324	-0.262
-98.874	800.000	-0.035	-0.104
-97.859	63.119	-0.120	0.120
-96.845	40.511	0.187	0.167
-95.830	258.713	-0.158	0.271
-94.816	671.322	0.108	0.278
-93.801	-200.000	-0.011	0.056
-92.786	-78.345	0.430	0.147
-91.772	-140.751	0.361	-0.037
-90.757	305.442	-0.076	0.141
-89.743	-58.250	0.296	0.128
-88.728	-59.932	0.268	0.114
-87.713	800.000	0.052	0.210
-86.699	488.145	0.129	-0.292
-85.684	7.599	-0.092	0.068
-84.670	-64.468	-0.397	-0.160
-83.655	162.990	-0.060	-0.084
-82.640	211.048	0.140	-0.219
-81.626	-95.744	0.308	0.082
-80.611	-200.000	-0.056	0.285
-79.597	377.990	-0.027	-0.054
-78.582	-175.843	0.189	-0.005
-77.567	126.997	-0.167	0.210
-76.553	-200.000	0.077	0.436
-75.538	216.863	-0.209	0.330
-74.524	-137.549	0.046	-0.005
-73.509	-198.143	-0.155	-0.001
-72.494	-34.205	0.250	0.137
-71.480	800.000	0.126	0.348
-70.465	115.289	0.117	-0.141
-69.451	-107.179	0.154	0.034
-68.436	800.000	0.056	-0.157
-67.422	-11.070	-0.007	0.005
-66.407	-130.263	-0.234	0.032
-65.392	-79.405	0.317	-0.106
-64.378	9.836	0.294	0.222
-63.363	-31.249	0.084	-0.047
-62.349	0.681	0.345	0.245
-61.334	28.180	-0.720	-0.603
-60.319	-54.110	0.387	0.175
-59.305	246.214	-0.322	-0.538
-58.290	109.691	0.694	0.826
-57.276	645.159	0.555	1.407
-56.261	-200.000	93.444	554.239
-55.246	614.646	1384.486	3442.799
-54.232	185.462	2601.944	3834.757
-53.217	121.061	2215.838	2736.492
-52.203	46.224	1746.934	1606.259
-51.188	38.707	1555.978	1378.038
-50.173	36.196	1528.377	1336.171
-49.159	54.457	1577.829	1508.360
-48.144	58.184	1596.778	1552.641
-47.130	39.114	1552.848	1377.901
-46.115	35.922	1537.527	1342.045
-45.100	35.725	1534.127	1337.656
-44.086	35.628	1532.369	1335.394
-43.071	35.551	1530.620	1333.279
-42.057	35.584	1529.049	1332.088
-41.042	35.575	1527.214	1330.377
-40.027	35.517	1526.362	1329.176
-39.013	35.565	1524.598	1327.920
-37.998	35.629	1522.780	1326.726
-36.984	35.548	1522.106	1325.528
-35.969	35.620	1520.360	1324.452
-34.954	35.624	1519.060	1323.297
-33.940	35.584	1517.756	1321.829
-32.925	35.546	1516.608	1320.518
-31.911	35.695	1514.995	1320.083
-30.896	35.668	1513.340	1318.403
-29.881	35.711	1512.143	1317.605
-28.867	35.715	1510.628	1316.259
-27.852	35.733	1509.306	1315.179
-26.838	35.777	1507.694	1314.023
-25.823	35.737	1506.101	1312.309
-24.809	35.659	1505.088	1310.844
-23.794	35.641	1503.321	1309.127
-22.779	35.668	1502.251	1308.328
-21.765	35.682	1500.748	1307.059
-20.750	35.651	1499.970	1306.119
-19.736	35.611	1499.249	1305.170
-18.721	35.646	1497.606	1303.923
-17.706	35.576	1496.458	1302.400
-16.692	35.666	1495.454	1302.085
-15.677	35.623	1494.654	1301.046
-14.663	35.560	1493.666	1299.703
-13.648	35.557	1492.825	1298.901
-12.633	35.534	1491.597	1297.628
-11.619	35.587	1490.794	1297.235
-10.604	35.610	1489.861	1296.527
-9.590	35.580	1489.172	1295.674
-8.575	35.721	1487.787	1295.369
-7.560	35.603	1487.221	1294.028
-6.546	35.576	1486.249	1292.950
-5.531	35.599	1485.341	1292.261
-4.517	35.692	1483.801	1291.499
-3.502	35.634	1483.272	1290.594
-2.487	35.638	1482.293	1289.721
-1.473	35.577	1481.240	1288.341
-0.458	35.680	1479.855	1287.775
0.556	37.625	1470.261	1276.432
1.571	34.031	1443.182	1229.629
2.586	29.654	1379.335	1148.000
3.600	27.450	1294.952	1064.806
4.615	25.015	1246.569	1011.207
5.629	21.057	1188.644	942.783
6.644	12.803	1102.676	832.967
7.659	5.950	1061.009	767.987
8.673	4.962	1054.821	758.635
9.688	4.711	1051.857	755.221
10.702	4.489	1050.435	753.055
11.717	4.708	1049.141	753.122
12.731	7.977	1052.638	771.418
13.746	16.367	1064.167	820.724
14.761	22.021	1070.899	853.405
15.775	22.097	1070.377	853.285
16.790	21.318	1068.259	847.740
17.804	20.302	1066.101	841.035
18.819	19.235	1064.820	834.780
19.834	19.050	1062.668	832.123
20.848	18.848	1062.100	830.632
21.863	18.815	1061.170	829.672
22.877	18.584	1060.829	828.215
23.892	18.553	1059.805	827.193
24.907	18.273	1059.316	825.386
25.921	18.159	1058.525	824.151
26.936	18.259	1057.620	823.855
27.950	18.299	1056.596	823.177
28.965	18.226	1055.672	822.032
29.980	18.381	1054.297	821.633
30.994	18.398	1053.765	821.225
32.009	18.637	1052.505	821.314
33.023	18.666	1052.197	821.140
34.038	18.580	1051.509	820.121
35.053	18.576	1050.093	818.925
36.067	18.325	1049.448	817.153
37.082	18.273	1048.237	815.889
38.096	18.552	1047.281	816.399
39.111	18.367	1047.135	815.332
40.126	18.595	1045.979	815.445
41.140	18.449	1045.041	813.950
42.155	18.140	1043.819	811.457
43.169	18.153	1042.382	810.329
44.184	17.976	1041.474	808.718
45.199	17.947	1040.816	807.994
46.213	18.012	1039.364	807.105
47.228	18.056	1038.789	806.797
48.242	18.204	1038.319	807.058
49.257	18.410	1037.177	807.069
50.271	18.340	1036.094	805.826
51.286	18.344	1035.499	805.307
52.301	18.457	1034.868	805.280
53.315	18.373	1034.180	804.277
54.330	18.248	1032.938	802.655
55.344	18.040	1032.110	800.964
56.359	18.186	1030.922	800.656
57.374	18.219	1029.882	799.933
58.388	18.130	1029.115	798.851
59.403	17.996	1028.345	797.557
60.417	17.917	1027.537	796.491
61.432	17.865	1026.633	795.477
62.447	17.856	1026.238	795.057
63.461	17.929	1025.065	794.419
64.476	17.773	1024.017	792.812
65.490	17.853	1022.977	792.307
66.505	17.801	1022.550	791.665
67.520	17.858	1021.586	791.111
68.534	17.877	1020.911	790.608
69.549	17.945	1019.922	790.085
70.563	17.900	1019.103	789.173
71.578	17.830	1018.465	788.287
72.593	17.758	1017.292	786.978
73.607	17.624	1016.493	785.669
74.622	17.638	1015.630	785.001
75.636	17.636	1014.830	784.303
76.651	17.614	1014.331	783.744
77.666	17.739	1013.276	783.438
78.680	17.693	1012.843	782.821
79.695	17.875	1011.948	782.896
80.709	17.678	1011.402	781.500
81.724	17.816	1010.843	781.632
82.739	17.956	1010.112	781.638
83.753	18.019	1009.395	781.302
84.768	18.207	1008.870	781.686
85.782	18.332	1008.343	781.779
86.797	18.591	1007.229	782.025
87.812	18.520	1006.844	781.333
88.826	18.348	1005.683	779.580
89.841	18.362	1004.608	778.741
90.855	18.485	1003.829	778.631
91.870	18.332	1003.632	777.711
92.884	18.514	1002.835	777.850
93.899	18.603	1001.793	777.379
94.914	18.625	1000.939	776.745
95.928	18.687	1000.340	776.493
96.943	18.539	999.956	775.458
97.957	18.559	998.263	774.168
98.972	18.505	997.677	773.399
99.987	18.430	997.085	772.533
101.001	18.551	996.189	772.316
102.016	18.454	995.481	771.260
103.030	18.551	994.367	770.768
104.045	18.591	993.439	770.160
105.060	18.519	992.940	769.380
106.074	18.467	991.731	768.145
107.089	18.164	990.628	765.864
108.103	17.929	989.654	763.993
109.118	17.928	988.495	763.027
110.133	17.744	988.000	761.753
111.147	17.834	987.164	761.445
112.162	17.697	986.459	760.223
113.176	17.915	985.030	760.022
114.191	17.951	984.337	759.583
115.206	17.961	983.909	759.229
116.220	18.037	983.037	758.828
117.235	17.955	982.115	757.684
118.249	18.019	980.956	757.006
119.264	17.974	979.981	755.986
120.279	17.906	979.563	755.298
121.293	17.847	978.379	754.055
122.308	17.651	978.024	752.853
123.322	17.673	976.840	751.970
124.337	17.523	975.847	750.477
125.352	17.651	974.566	749.990
126.366	17.616	973.703	749.106
127.381	17.769	972.415	748.720
128.395	17.628	971.888	747.630
129.410	17.759	970.486	747.059
130.424	17.727	969.745	746.282
131.439	17.827	968.922	746.021
132.454	17.864	968.423	745.730
133.468	17.855	967.726	745.091
134.483	17.969	967.194	745.111
135.497	17.896	966.615	744.280
136.512	17.825	965.992	743.425
137.527	17.911	965.253	743.165
138.541	18.126	963.717	742.852
139.556	18.036	963.412	742.161
140.570	18.060	962.848	741.763
141.585	18.182	961.959	741.545
142.600	18.343	961.369	741.722
143.614	18.434	960.941	741.717
144.629	18.353	960.307	740.813
145.643	18.417	959.633	740.506
146.658	18.604	958.082	740.048
147.673	18.526	957.363	739.092
148.687	18.203	956.493	736.961
149.702	18.283	955.385	736.386
150.716	17.947	954.692	734.345
151.731	17.876	954.111	733.525
152.746	17.981	952.701	732.830
153.760	18.084	952.140	732.773
154.775	18.255	951.193	732.713
155.789	18.305	950.204	732.101
156.804	18.190	950.269	731.593
157.819	18.306	948.815	730.906
158.833	18.242	948.809	730.562
159.848	18.413	948.097	730.677
160.862	18.523	947.447	730.580
161.877	18.466	946.824	729.795
162.892	18.307	945.517	728.047
163.906	17.939	944.719	725.805
164.921	17.976	943.321	724.821
165.935	17.887	942.740	723.933
166.950	18.046	941.644	723.702
167.964	18.143	940.790	723.393
168.979	18.101	939.755	722.355
169.994	18.106	938.570	721.400
171.008	18.180	937.515	720.838
172.023	18.110	937.047	720.118
173.037	18.296	936.468	720.394
174.052	18.473	935.993	720.710
175.067	18.242	935.380	719.204
176.081	18.214	933.925	717.903
177.096	18.074	932.869	716.440
178.110	18.056	932.279	715.851
179.125	18.166	931.384	715.556
180.140	18.162	930.547	714.834
181.154	18.087	930.299	714.267
182.169	18.382	929.329	714.690
183.183	18.464	929.022	714.733
184.198	18.562	928.500	714.678
185.213	18.427	927.910	713.599
186.227	18.515	927.167	713.330
187.242	18.580	926.967	713.382
188.256	18.471	926.375	712.410
189.271	18.673	925.384	712.427
190.286	18.772	924.426	712.034
191.300	18.484	923.835	710.325
192.315	18.024	922.594	707.400
193.329	17.839	921.947	706.076
194.344	17.947	920.690	705.500
195.359	18.104	920.467	705.913
196.373	18.214	920.358	706.222
197.388	18.391	919.600	706.306
198.402	18.635	919.288	707.009
199.417	18.733	918.909	707.062
200.432	18.802	918.463	706.940
201.446	18.901	918.031	706.953
202.461	19.054	917.959	707.462
203.475	19.031	917.091	706.635
204.490	19.140	916.229	706.355
205.504	18.826	915.681	704.583
206.519	18.695	914.481	703.061
207.534	18.609	913.749	702.083
208.548	18.628	913.061	701.572
209.563	18.648	912.716	701.328
210.577	18.818	911.437	700.976
211.592	18.765	911.271	700.569
212.607	18.804	910.894	700.376
213.621	19.002	910.180	700.573
214.636	18.882	909.885	699.795
215.650	18.810	909.280	698.975
216.665	18.941	908.436	698.797
217.680	18.943	908.033	698.432
218.694	19.097	907.625	698.684
219.709	19.145	907.316	698.576
220.723	19.107	906.597	697.810
221.738	19.006	905.941	696.831
222.753	18.980	905.199	696.096
223.767	18.916	904.381	695.147
224.782	19.043	903.462	694.890
225.796	19.119	902.496	694.393
226.811	19.135	902.339	694.276
227.826	19.167	901.314	693.554
228.840	19.110	900.325	692.501
229.855	18.858	899.931	691.124
230.869	18.873	899.567	690.844
231.884	18.940	898.736	690.415
232.899	18.876	898.186	689.672
233.913	18.706	897.298	688.247
234.928	18.841	896.333	687.986
235.942	18.632	895.827	686.703
236.957	18.612	895.188	686.073
237.972	18.758	894.147	685.798
238.986	18.772	893.647	685.408
240.001	18.812	892.956	684.975
241.015	18.815	892.709	684.737
242.030	18.867	892.132	684.444
243.045	18.901	891.463	684.004
244.059	18.831	891.214	683.473
245.074	19.191	889.993	683.906
246.088	18.988	889.731	682.838
247.103	19.055	889.160	682.608
248.117	19.237	888.804	682.995
249.132	19.343	888.244	682.926
250.147	19.394	887.897	682.796
251.161	19.711	887.408	683.617
252.176	19.844	886.605	683.464
253.190	19.808	886.025	682.811
254.205	19.938	885.649	682.975
255.220	19.857	885.434	682.428
256.234	19.959	884.008	681.670
257.249	19.971	883.565	681.318
258.263	19.794	882.689	679.886
259.278	19.869	882.332	679.845
260.293	19.617	881.963	678.511
261.307	19.829	881.036	678.570
262.322	19.864	880.927	678.561
263.336	19.985	880.160	678.386
264.351	19.886	879.141	677.154
265.366	20.108	878.752	677.662
266.380	20.026	877.924	676.641
267.395	19.924	877.756	676.055
268.409	19.974	876.784	675.440
269.424	19.772	876.053	674.031
270.439	19.942	874.866	673.720
271.453	19.887	874.330	673.032
272.468	19.755	873.814	672.066
273.482	19.670	873.038	671.080
274.497	19.713	872.531	670.797
275.512	19.720	871.869	670.256
276.526	19.629	871.257	669.371
277.541	19.759	870.236	669.029
278.555	19.758	870.202	668.941
279.570	19.792	869.868	668.757
280.585	20.118	869.275	669.503
281.599	20.221	868.226	669.031
282.614	20.118	867.721	668.185
283.628	20.025	867.135	667.319
284.643	19.884	866.368	666.125
285.657	19.903	865.982	665.842
286.672	19.753	865.600	664.915
287.687	19.894	865.231	665.115
288.701	20.073	864.396	665.099
289.716	20.024	863.932	664.496
290.730	19.815	863.301	663.150
291.745	20.005	862.743	663.393
292.760	20.049	861.906	662.856
293.774	20.129	861.340	662.670
294.789	20.170	861.000	662.506
295.803	20.343	860.356	662.613
296.818	20.065	859.709	660.995
297.833	20.034	859.171	660.403
298.847	19.854	858.208	658.923
299.862	20.000	857.863	659.152
300.876	20.107	857.122	658.933
301.891	20.112	856.676	658.550
302.906	20.090	856.285	658.108
303.920	20.437	855.370	658.663
304.935	20.481	854.602	658.177
305.949	20.532	854.357	658.124
306.964	20.351	853.524	656.740
307.979	20.194	853.580	656.130
308.993	20.394	852.524	656.017
310.008	20.457	851.858	655.686
311.022	20.429	851.415	655.179
312.037	20.357	850.880	654.439
313.052	20.378	850.374	654.073
314.066	20.192	849.436	652.591
315.081	20.110	848.606	651.589
316.095	20.097	848.315	651.260
317.110	20.212	847.772	651.215
318.125	20.208	846.900	650.472
319.139	20.108	846.909	650.048
320.154	20.188	846.192	649.740
321.168	20.052	845.810	648.879
322.183	20.231	845.147	648.983
323.197	20.269	845.047	648.993
324.212	20.247	844.340	648.310
325.227	20.235	843.608	647.642
326.241	20.396	843.034	647.748
327.256	20.250	842.846	647.002
328.270	20.247	842.093	646.352
329.285	20.204	841.424	645.623
330.300	20.260	840.590	645.134
331.314	20.263	840.209	644.798
332.329	20.236	839.870	644.380
333.343	20.487	838.918	644.522
334.358	20.432	839.048	644.361
335.373	20.471	837.976	643.627
336.387	20.526	837.376	643.312
337.402	20.603	837.165	643.376
338.416	20.520	836.876	642.791
339.431	20.693	836.089	642.768
340.446	20.947	835.527	643.216
341.460	20.970	835.225	643.012
342.475	20.972	834.669	642.534
343.489	20.855	834.547	641.955
344.504	20.950	833.767	641.645
345.519	21.018	832.807	641.101
346.533	21.183	832.761	641.616
347.548	21.145	832.201	640.988
348.562	20.967	831.328	639.606
349.577	20.766	830.889	638.474
350.592	20.824	829.972	637.925
351.606	20.551	829.526	636.526
352.621	20.482	829.219	635.982
353.635	20.491	828.877	635.695
354.650	20.794	828.187	636.219
355.665	20.778	828.172	636.092
356.679	20.710	827.630	635.373
357.694	20.967	826.999	635.766
358.708	20.935	826.276	635.038
359.723	20.877	826.041	634.590
360.738	20.900	825.386	634.114
361.752	20.886	824.640	633.437
362.767	20.895	824.722	633.477
363.781	20.944	824.167	633.169
364.796	21.221	823.600	633.683
365.810	21.364	823.383	633.981
366.825	21.431	823.220	634.042
367.840	21.332	823.262	633.658
368.854	21.547	821.859	633.300
369.869	21.310	821.948	632.455
370.883	21.328	820.810	631.590
371.898	21.192	820.543	630.836
372.913	21.279	819.854	630.563
373.927	21.412	819.217	630.497
374.942	21.394	818.590	629.896
375.956	21.221	818.121	628.856
376.971	21.337	817.480	628.725
377.986	21.420	817.212	628.761
379.000	21.461	816.438	628.256
380.015	21.532	816.245	628.308
381.029	21.681	815.457	628.182
382.044	21.493	815.064	627.147
383.059	21.542	814.595	626.908
384.073	21.694	813.589	626.624
385.088	21.662	813.091	626.068
386.102	21.389	812.598	624.659
387.117	21.337	811.728	623.750
388.132	21.273	810.943	622.863
389.146	21.169	811.103	622.560
390.161	21.230	810.643	622.366
391.175	21.356	810.539	622.681
392.190	21.658	809.849	623.170
393.205	21.490	809.585	622.315
394.219	21.337	809.231	621.443
395.234	21.225	808.556	620.475
396.248	21.269	807.990	620.141
397.263	21.180	807.152	619.127
398.278	21.266	806.475	618.858
399.292	21.279	806.112	618.570
400.307	21.122	805.775	617.701
401.321	21.176	805.714	617.790
402.336	21.150	805.333	617.352
403.350	21.326	804.844	617.542
404.365	21.303	804.318	617.004
405.380	21.495	804.016	617.396
406.394	21.623	803.647	617.508
407.409	21.724	803.259	617.513
408.423	21.807	802.937	617.502
409.438	21.845	802.482	617.231
410.453	21.721	802.143	616.480
411.467	21.906	801.556	616.626
412.482	21.980	801.000	616.403
413.496	22.212	800.617	616.868
414.511	22.102	800.323	616.201
415.526	22.122	799.636	615.688
416.540	21.759	799.809	614.495
417.555	21.824	799.370	614.331
418.569	21.946	798.701	614.189
419.584	22.149	798.002	614.307
420.599	21.883	798.051	613.360
421.613	157.830	1368.085	1787.181
422.628	136.883	1451.169	1787.271
