DTS Sentinel unit serial number:	SN413079Multiplexer serial number:	ORYXHardware model number:	OX4-SRSoftware version number:	ORYX F/W v4.00 Oryx Data Collector v3.7.2.0data status	okinstallation	princeton_trtdifferential loss correction	single-endedforward channel	channel 3reverse channel	N/Adate	2019/09/17time	03:52:34forward acquisition time	60.00reverse acquisition time	0.00gamma	496.2192k internal	0.2323k external	0.2323temperature offset calibration	0.9942default loss term (dB/km)	0.3790temperature slope calibration	1.0000multiplexer offset coefficient	1.0000multiplexer slope coefficient	1.0000fibre end	0.00T internal ref (°C)	29.94T ext. ref 1 (°C)	0.14T ext. ref 2 (°C)	24.45length (m)	temperature (°C)	Stokes	anti-Stokes-747.200	-184.227	-0.268	-0.004
-746.185	654.856	0.037	-0.095
-745.171	138.419	0.209	-0.276
-744.156	208.727	-0.187	-0.296
-743.142	180.807	0.056	0.083
-742.127	-200.000	-0.049	0.281
-741.112	31.967	-0.135	0.117
-740.098	198.005	-0.225	0.347
-739.083	-200.000	0.063	0.383
-738.069	308.203	-0.164	-0.310
-737.054	-200.000	0.036	-0.227
-736.039	-200.000	0.000	-0.246
-735.025	-31.021	-0.165	-0.094
-734.010	-200.000	0.013	0.114
-732.996	-141.258	-0.309	0.032
-731.981	-15.812	-0.474	-0.305
-730.966	24.085	0.158	0.132
-729.952	389.279	0.164	0.344
-728.937	800.000	0.058	0.253
-727.923	151.454	-0.167	0.229
-726.908	81.320	0.057	-0.062
-725.894	-200.000	0.029	0.365
-724.879	-7.612	-0.198	0.135
-723.864	-15.128	-0.405	0.261
-722.850	258.656	0.162	0.282
-721.835	-200.000	-0.003	0.225
-720.821	-51.808	-0.177	0.083
-719.806	-200.000	-0.014	-0.075
-718.791	15.242	-0.291	0.230
-717.777	781.027	0.083	-0.230
-716.762	79.239	-0.137	0.148
-715.748	-200.000	-0.020	0.187
-714.733	-200.000	0.056	0.281
-713.718	-27.834	-0.248	-0.145
-712.704	800.000	-0.144	-0.510
-711.689	29.212	-0.201	-0.172
-710.675	-1.506	-0.364	-0.259
-709.660	-200.000	0.017	-0.136
-708.645	345.521	0.086	-0.171
-707.631	332.359	-0.155	0.302
-706.616	-30.014	0.032	0.019
-705.602	-65.966	0.294	0.118
-704.587	552.535	0.020	-0.048
-703.572	19.573	0.365	-0.296
-702.558	-200.000	-0.003	0.273
-701.543	-105.363	0.424	-0.097
-700.529	-200.000	0.001	-0.049
-699.514	-83.887	0.136	0.044
-698.499	98.257	0.241	-0.279
-697.485	154.985	0.240	0.332
-696.470	-200.000	0.042	-0.205
-695.456	-119.361	0.067	0.012
-694.441	43.841	0.171	0.158
-693.426	-141.796	-0.248	-0.025
-692.412	297.024	0.031	0.057
-691.397	112.746	-0.182	-0.222
-690.383	-113.295	0.102	-0.020
-689.368	-65.688	0.337	0.136
-688.354	-200.000	0.031	-0.347
-687.339	-96.336	0.088	-0.023
-686.324	17.173	-0.270	-0.216
-685.310	12.830	-0.297	-0.231
-684.295	-200.000	-0.036	-0.251
-683.281	-87.381	0.218	-0.067
-682.266	800.000	0.047	-0.189
-681.251	-200.000	0.038	-0.339
-680.237	-200.000	-0.016	-0.094
-679.222	-168.643	0.104	-0.004
-678.208	788.344	-0.028	-0.078
-677.193	-193.566	0.533	0.005
-676.178	-168.426	-0.143	-0.006
-675.164	242.156	-0.072	-0.121
-674.149	383.923	0.060	0.125
-673.135	-29.442	0.130	0.075
-672.120	24.528	-0.142	0.118
-671.105	-200.000	0.080	0.377
-670.091	-21.075	-0.095	0.059
-669.076	-150.521	-0.457	-0.035
-668.062	-156.954	-0.483	0.030
-667.047	68.003	-0.229	-0.236
-666.032	-84.735	-0.210	-0.067
-665.018	-13.279	0.388	-0.254
-664.003	269.363	-0.115	-0.203
-662.989	800.000	0.018	0.060
-661.974	741.358	0.073	0.196
-660.959	-200.000	0.018	-0.089
-659.945	23.943	-0.142	0.118
-658.930	-124.585	0.214	0.033
-657.916	649.462	0.085	-0.220
-656.901	800.000	-0.098	0.317
-655.886	-61.575	-0.315	0.133
-654.872	-68.155	0.126	-0.049
-653.857	800.000	0.046	0.137
-652.843	61.999	-0.137	0.137
-651.828	-120.590	-0.157	-0.027
-650.814	-65.376	-0.283	0.114
-649.799	-200.000	0.018	-0.254
-648.784	-54.941	0.110	0.050
-647.770	36.832	-0.229	-0.203
-646.755	305.486	-0.156	-0.291
-645.741	-51.503	0.219	-0.103
-644.726	-44.427	0.473	-0.238
-643.711	178.730	0.119	-0.175
-642.697	-129.262	-0.323	0.045
-641.682	-19.224	0.095	-0.059
-640.668	-99.327	0.299	0.076
-639.653	508.457	-0.058	0.136
-638.638	357.049	-0.077	-0.153
-637.624	33.262	-0.189	-0.165
-636.609	193.866	0.188	0.286
-635.595	152.095	-0.187	-0.256
-634.580	800.000	-0.055	-0.225
-633.565	-108.397	-0.070	0.015
-632.551	-109.920	0.502	0.106
-631.536	157.227	-0.149	0.207
-630.522	-200.000	0.006	-0.089
-629.507	-84.995	0.298	0.094
-628.492	48.041	-0.190	-0.179
-627.478	492.325	-0.065	0.150
-626.463	-24.026	-0.115	0.069
-625.449	-129.489	-0.191	-0.027
-624.434	-141.569	-0.402	0.041
-623.419	-50.904	0.305	0.144
-622.405	800.000	-0.027	0.087
-621.390	800.000	0.032	-0.100
-620.376	249.431	0.019	-0.032
-619.361	48.987	0.243	-0.230
-618.346	-160.037	0.076	-0.004
-617.332	-200.000	0.002	0.158
-616.317	-200.000	-0.002	-0.089
-615.303	144.667	0.110	-0.147
-614.288	-64.262	-0.341	-0.140
-613.273	-109.331	-0.239	0.051
-612.259	-50.829	-0.149	-0.070
-611.244	-24.133	-0.168	-0.101
-610.230	-111.647	-0.402	0.082
-609.215	-30.417	-0.089	-0.051
-608.201	-148.505	0.098	0.008
-607.186	-71.865	0.350	0.131
-606.171	-90.250	0.323	0.094
-605.157	-200.000	-0.007	-0.099
-604.142	89.737	-0.106	-0.119
-603.128	39.316	0.055	-0.049
-602.113	102.927	-0.120	0.141
-601.098	-25.942	-0.153	-0.090
-600.084	-98.688	0.423	-0.108
-599.069	-148.764	-0.211	0.017
-598.055	197.250	-0.053	0.081
-597.040	152.386	-0.057	-0.078
-596.025	-131.226	-0.407	-0.054
-595.011	222.314	0.186	-0.301
-593.996	-200.000	-0.015	0.278
-592.982	800.000	0.055	-0.178
-591.967	-200.000	0.006	0.368
-590.952	145.443	-0.054	-0.073
-589.938	235.747	0.079	-0.131
-588.923	-73.516	-0.135	-0.049
-587.909	-200.000	-0.050	-0.372
-586.894	-33.470	0.156	0.086
-585.879	800.000	-0.042	-0.149
-584.865	-200.000	0.010	0.345
-583.850	-149.170	-0.303	-0.024
-582.836	495.380	0.144	-0.333
-581.821	-74.058	-0.213	0.078
-580.806	347.773	0.097	-0.191
-579.792	504.536	-0.132	0.306
-578.777	-137.098	0.328	-0.038
-577.763	-47.892	-0.157	-0.077
-576.748	-106.570	-0.261	-0.058
-575.733	-90.841	-0.323	-0.093
-574.719	-200.000	0.010	-0.166
-573.704	-160.042	0.204	0.011
-572.690	-200.000	-0.001	-0.027
-571.675	-64.741	0.416	0.169
-570.661	430.211	-0.049	-0.105
-569.646	-132.534	-0.133	0.017
-568.631	-32.887	-0.306	0.170
-567.617	-22.522	-0.267	0.162
-566.602	20.231	0.155	0.125
-565.588	197.164	0.025	-0.038
-564.573	26.335	-0.164	-0.137
-563.558	568.614	0.045	-0.109
-562.544	-138.901	-0.338	0.037
-561.529	-200.000	-0.058	-0.288
-560.515	153.674	-0.171	-0.235
-559.500	-52.339	0.323	-0.150
-558.485	-200.000	0.042	-0.224
-557.471	31.494	0.135	0.116
-556.456	339.450	0.106	-0.207
-555.442	-23.164	-0.239	-0.144
-554.427	-200.000	-0.021	-0.327
-553.412	31.697	0.096	0.083
-552.398	800.000	-0.056	0.242
-551.383	7.805	-0.148	0.111
-550.369	122.015	-0.205	-0.257
-549.354	-200.000	0.065	0.297
-548.339	212.766	0.023	0.036
-547.325	-1.991	-0.179	0.126
-546.310	14.671	-0.237	0.186
-545.296	595.006	0.061	-0.152
-544.281	800.000	0.069	0.202
-543.266	-186.531	-0.124	-0.002
-542.252	-12.950	0.140	0.092
-541.237	-159.481	0.075	0.004
-540.223	-200.000	0.005	0.072
-539.208	-27.050	0.179	-0.105
-538.193	-39.681	0.130	0.068
-537.179	477.835	0.093	-0.210
-536.164	350.944	0.191	0.379
-535.150	800.000	0.036	-0.101
-534.135	-109.623	0.220	-0.046
-533.121	800.000	0.096	-0.275
-532.106	185.844	0.192	-0.286
-531.091	426.335	-0.065	-0.141
-530.077	343.557	0.116	0.227
-529.062	800.000	-0.181	0.534
-528.048	-102.099	0.307	-0.074
-527.033	-7.341	0.143	0.097
-526.018	97.968	-0.118	0.136
-525.004	-5.603	0.135	-0.093
-523.989	-19.588	-0.435	-0.270
-522.975	-200.000	0.040	-0.294
-521.960	83.091	0.173	0.188
-520.945	23.785	-0.131	-0.108
-519.931	107.864	-0.171	-0.204
-518.916	-200.000	-0.012	0.075
-517.902	-200.000	0.068	0.389
-516.887	-89.895	0.476	-0.139
-515.872	-79.032	-0.196	0.067
-514.858	144.084	-0.041	-0.055
-513.843	-142.171	0.187	-0.019
-512.829	-200.000	-0.043	-0.229
-511.814	583.873	-0.015	-0.037
-510.799	-61.897	0.260	-0.109
-509.785	-58.576	-0.151	0.066
-508.770	112.860	-0.126	0.152
-507.756	-160.429	0.524	0.028
-506.741	-32.882	0.350	-0.195
-505.726	22.662	-0.262	0.214
-504.712	-78.402	-0.055	-0.019
-503.697	800.000	-0.039	0.129
-502.683	-200.000	0.024	0.348
-501.668	10.238	-0.215	-0.164
-500.653	-200.000	0.153	0.001
-499.639	-200.000	0.001	-0.104
-498.624	16.788	-0.112	-0.089
-497.610	800.000	0.050	0.169
-496.595	118.582	-0.020	0.024
-495.581	8.898	0.111	-0.084
-494.566	800.000	0.031	0.114
-493.551	-135.595	0.208	0.025
-492.537	800.000	0.081	0.252
-491.522	800.000	0.095	-0.362
-490.508	-73.466	0.158	-0.058
-489.493	-200.000	-0.008	-0.131
-488.478	-144.316	0.231	-0.021
-487.464	-98.128	-0.221	-0.057
-486.449	-48.181	0.489	-0.236
-485.435	-200.000	-0.013	0.141
-484.420	181.030	0.087	-0.127
-483.405	-21.470	0.125	0.076
-482.391	39.933	0.112	-0.100
-481.376	-89.614	0.186	0.055
-480.362	-82.342	0.272	-0.089
-479.347	-48.156	0.068	0.033
-478.332	694.296	0.077	-0.202
-477.318	252.999	-0.222	-0.379
-476.303	-44.516	-0.094	-0.047
-475.289	45.201	0.142	-0.131
-474.274	-65.726	-0.307	-0.123
-473.259	374.978	-0.096	0.196
-472.245	242.463	0.191	-0.319
-471.230	800.000	-0.128	-0.359
-470.216	-92.079	-0.099	0.028
-469.201	-200.000	-0.012	0.082
-468.186	344.986	0.035	-0.068
-467.172	-42.981	0.138	-0.070
-466.157	-200.000	0.003	0.031
-465.143	184.425	0.136	0.201
-464.128	93.441	0.187	-0.212
-463.113	2.184	-0.359	0.259
-462.099	-200.000	0.034	0.167
-461.084	-200.000	0.051	-0.322
-460.070	-34.704	0.223	-0.122
-459.055	-46.040	0.114	0.056
-458.040	38.531	0.188	-0.168
-457.026	41.599	0.127	0.115
-456.011	-200.000	0.033	0.265
-454.997	-1.123	-0.141	-0.100
-453.982	185.697	-0.115	0.170
-452.968	319.426	-0.049	0.094
-451.953	-128.718	-0.309	-0.044
-450.938	3.249	-0.226	0.164
-449.924	-161.222	0.112	0.006
-448.909	-109.231	0.125	-0.027
-447.895	-50.233	-0.214	-0.101
-446.880	791.660	-0.136	0.374
-445.865	800.000	-0.077	-0.246
-444.851	-59.046	-0.349	0.150
-443.836	-74.428	-0.135	0.049
-442.822	800.000	-0.047	0.160
-441.807	-24.871	-0.178	0.106
-440.792	-186.791	0.210	0.003
-439.778	-1.767	-0.184	0.130
-438.763	-2.430	-0.135	0.094
-437.749	800.000	-0.067	-0.258
-436.734	-92.370	-0.128	0.036
-435.719	-200.000	0.032	0.452
-434.705	161.955	0.077	-0.107
-433.690	-97.589	0.074	-0.019
-432.676	800.000	0.053	-0.150
-431.661	181.690	-0.104	-0.153
-430.646	42.152	-0.148	0.134
-429.632	-200.000	0.008	0.227
-428.617	-56.225	0.180	0.080
-427.603	226.501	0.257	-0.416
-426.588	-200.000	0.034	0.198
-425.573	-161.584	0.139	-0.007
-424.559	-200.000	-0.013	0.193
-423.544	-2.435	0.354	0.247
-422.530	-114.354	-0.152	-0.029
-421.515	-89.291	-0.098	0.029
-420.500	-200.000	-0.028	0.149
-419.486	-4.515	-0.293	-0.202
-418.471	-67.649	0.468	0.183
-417.457	-200.000	0.022	-0.308
-416.442	232.221	-0.037	0.061
-415.428	-166.877	-0.535	-0.022
-414.413	-68.268	0.207	0.080
-413.398	-107.541	0.342	0.075
-412.384	-200.000	-0.004	-0.024
-411.369	-47.995	-0.116	0.056
-410.355	-200.000	0.037	0.459
-409.340	425.510	-0.055	-0.119
-408.325	-200.000	0.002	-0.068
-407.311	-148.119	-0.252	0.021
-406.296	-155.984	0.275	-0.017
-405.282	-24.443	0.144	0.085
-404.267	15.756	-0.137	0.107
-403.252	104.561	0.191	-0.224
-402.238	-3.118	-0.151	0.105
-401.223	-35.592	0.490	-0.265
-400.209	-96.322	0.080	0.021
-399.194	-121.811	-0.143	0.024
-398.179	-93.421	0.328	0.091
-397.165	14.354	0.087	-0.068
-396.150	77.346	0.172	0.183
-395.136	-16.462	-0.551	-0.348
-394.121	-200.000	-0.013	0.086
-393.106	360.564	-0.034	-0.069
-392.092	94.468	0.285	0.323
-391.077	-99.989	-0.175	0.044
-390.063	114.658	0.094	0.114
-389.048	407.415	-0.054	0.113
-388.033	-107.148	0.125	0.027
-387.019	-104.455	-0.238	0.055
-386.004	-127.432	0.192	0.028
-384.990	308.714	-0.045	-0.083
-383.975	-167.566	0.150	-0.006
-382.960	174.528	-0.188	0.270
-381.946	101.069	-0.023	0.026
-380.931	10.910	-0.107	-0.082
-379.917	-47.907	0.287	0.138
-378.902	131.778	-0.136	0.174
-377.888	-122.800	0.138	0.022
-376.873	-102.623	0.225	0.053
-375.858	-24.395	0.322	0.191
-374.844	152.760	-0.171	0.232
-373.829	-13.957	0.380	0.244
-372.815	204.594	-0.144	0.222
-371.800	-40.217	-0.130	-0.067
-370.785	-130.238	-0.189	-0.026
-369.771	-200.000	0.027	0.203
-368.756	314.816	-0.167	0.312
-367.742	-200.000	-0.030	0.217
-366.727	-200.000	0.091	-0.432
-365.712	-200.000	0.009	0.412
-364.698	304.036	0.194	-0.358
-363.683	3.717	-0.115	0.084
-362.669	326.682	-0.105	-0.200
-361.654	800.000	-0.084	-0.265
-360.639	-114.014	0.144	0.028
-359.625	-200.000	-0.026	-0.189
-358.610	154.817	0.036	-0.050
-357.596	-53.104	0.062	0.028
-356.581	-140.410	0.300	-0.031
-355.566	501.246	-0.060	0.138
-354.552	-75.385	0.243	0.086
-353.537	-200.000	0.023	-0.130
-352.523	-70.640	-0.198	0.075
-351.508	-200.000	-0.049	-0.368
-350.493	-95.666	0.211	-0.056
-349.479	-200.000	0.068	-0.325
-348.464	90.651	-0.074	-0.082
-347.450	362.516	0.158	0.315
-346.435	-56.396	0.202	-0.089
-345.420	-62.620	0.223	-0.092
-344.406	178.129	0.153	-0.221
-343.391	-61.569	-0.088	0.037
-342.377	49.452	0.078	0.073
-341.362	680.935	0.076	0.196
-340.348	451.306	0.127	-0.279
-339.333	-53.257	-0.271	-0.123
-338.318	-66.091	0.074	0.029
-337.304	800.000	0.063	-0.226
-336.289	-138.350	0.292	0.032
-335.275	-91.685	-0.287	-0.081
-334.260	212.869	0.111	0.174
-333.245	44.962	-0.061	0.056
-332.231	-80.503	-0.199	0.066
-331.216	31.598	-0.301	0.257
-330.202	-70.607	0.085	0.032
-329.187	800.000	-0.053	0.202
-328.172	-51.680	-0.194	0.090
-327.158	-70.187	0.253	0.096
-326.143	-31.894	-0.324	0.181
-325.129	-200.000	0.008	0.133
-324.114	-94.868	-0.254	-0.069
-323.099	31.546	-0.209	-0.178
-322.085	21.742	-0.249	-0.201
-321.070	-200.000	0.075	0.347
-320.056	800.000	0.096	0.378
-319.041	47.992	-0.090	-0.083
-318.026	-180.871	0.213	-0.004
-317.012	435.543	0.081	-0.176
-315.997	-200.000	0.041	0.380
-314.983	-109.909	-0.452	-0.094
-313.968	650.730	-0.094	0.239
-312.953	-9.124	0.222	-0.148
-311.939	-63.166	-0.097	0.040
-310.924	43.999	-0.167	-0.152
-309.910	231.583	0.115	-0.187
-308.895	800.000	-0.079	0.258
-307.880	-55.345	-0.225	-0.100
-306.866	800.000	-0.050	-0.142
-305.851	0.632	-0.311	0.221
-304.837	64.983	-0.142	-0.142
-303.822	16.929	-0.194	0.153
-302.807	429.611	0.028	-0.059
-301.793	800.000	-0.051	-0.183
-300.778	110.340	0.034	-0.040
-299.764	800.000	-0.085	-0.333
-298.749	-93.044	-0.285	0.079
-297.735	-200.000	0.044	-0.371
-296.720	-200.000	-0.004	0.105
-295.705	6.946	-0.138	0.102
-294.691	-35.332	-0.239	0.129
-293.676	800.000	0.075	0.286
-292.662	800.000	-0.034	-0.097
-291.647	-116.248	-0.346	0.064
-290.632	131.489	-0.085	-0.109
-289.618	-52.584	0.274	-0.126
-288.603	-200.000	0.018	0.133
-287.589	140.339	-0.003	-0.004
-286.574	54.004	0.227	0.216
-285.559	-76.758	-0.111	-0.039
-284.545	-200.000	-0.023	0.207
-283.530	-87.651	-0.259	-0.078
-282.516	105.455	0.122	-0.143
-281.501	-125.716	0.121	-0.018
-280.486	800.000	-0.098	0.325
-279.472	-45.329	-0.113	0.056
-278.457	269.359	-0.144	-0.250
-277.443	-134.414	-0.377	0.046
-276.428	-23.446	0.226	-0.135
-275.413	317.778	-0.210	0.394
-274.399	336.096	0.108	0.207
-273.384	81.767	0.113	0.122
-272.370	-111.826	-0.026	0.005
-271.355	49.372	0.039	0.037
-270.340	800.000	-0.007	0.030
-269.326	156.028	-0.142	-0.194
-268.311	800.000	-0.112	-0.372
-267.297	800.000	-0.067	0.219
-266.282	-113.295	-0.696	0.136
-265.267	40.355	0.045	0.040
-264.253	156.383	-0.195	-0.267
-263.238	-155.465	0.136	-0.009
-262.224	26.096	0.235	-0.194
-261.209	800.000	0.051	-0.147
-260.195	117.096	-0.133	-0.162
-259.180	-48.692	0.380	0.181
-258.165	-74.990	-0.308	-0.109
-257.151	152.835	0.170	-0.230
-256.136	-34.559	0.169	-0.092
-255.122	272.038	0.133	0.232
-254.107	14.516	0.251	-0.194
-253.092	788.979	0.060	0.165
-252.078	292.852	0.159	0.287
-251.063	800.000	-0.076	0.299
-250.049	248.383	-0.074	-0.124
-249.034	23.308	0.194	0.158
-248.019	-200.000	-0.004	-0.257
-247.005	28.076	0.278	-0.233
-245.990	-200.000	0.041	-0.179
-244.976	-69.355	0.300	-0.114
-243.961	201.581	-0.168	-0.256
-242.946	4.616	0.125	-0.091
-241.932	-16.466	-0.100	-0.063
-240.917	89.856	0.065	0.071
-239.903	-41.973	0.208	0.105
-238.888	140.382	0.217	-0.284
-237.873	-4.371	-0.384	0.263
-236.859	242.701	-0.134	-0.222
-235.844	283.973	-0.293	-0.522
-234.830	49.680	-0.135	0.125
-233.815	800.000	-0.018	0.061
-232.800	800.000	-0.083	0.358
-231.786	23.411	0.044	0.035
-230.771	144.907	-0.153	0.202
-229.757	339.551	-0.082	-0.159
-228.742	66.858	0.153	0.154
-227.727	182.144	0.185	0.269
-226.713	-78.844	-0.137	0.046
-225.698	-30.691	-0.118	0.066
-224.684	148.075	-0.162	0.216
-223.669	26.217	0.210	-0.174
-222.655	479.054	-0.031	-0.069
-221.640	-200.000	0.047	-0.228
-220.625	-200.000	0.034	-0.180
-219.611	-90.386	0.187	-0.054
-218.596	-200.000	0.018	-0.103
-217.582	-92.686	-0.284	0.079
-216.567	-131.734	0.135	-0.017
-215.552	800.000	-0.055	-0.228
-214.538	800.000	-0.045	0.147
-213.523	-200.000	0.050	-0.291
-212.509	-4.258	0.130	0.089
-211.494	-111.278	0.204	-0.041
-210.479	-169.301	0.167	-0.006
-209.465	-40.645	-0.252	-0.129
-208.450	100.099	0.047	-0.054
-207.436	-128.660	-0.239	0.033
-206.421	-44.949	-0.159	0.078
-205.406	265.647	0.091	0.156
-204.392	30.253	-0.077	-0.065
-203.377	285.401	-0.037	-0.067
-202.363	-158.253	-0.239	0.014
-201.348	-200.000	-0.011	0.134
-200.333	800.000	0.063	0.212
-199.319	-200.000	0.004	0.118
-198.304	313.158	0.152	0.282
-197.290	323.958	-0.109	-0.206
-196.275	-76.751	-0.294	-0.102
-195.260	-180.448	0.269	-0.006
-194.246	10.789	0.251	0.190
-193.231	800.000	-0.088	0.290
-192.217	166.414	0.228	-0.319
-191.202	142.868	0.130	-0.171
-190.187	64.435	-0.213	0.213
-189.173	93.325	0.116	-0.130
-188.158	-47.688	0.040	-0.019
-187.144	800.000	-0.069	-0.205
-186.129	800.000	0.060	0.211
-185.114	-157.517	-0.162	0.010
-184.100	-27.828	0.149	0.085
-183.085	-107.840	0.167	0.036
-182.071	-200.000	0.017	0.134
-181.056	-168.840	0.284	-0.011
-180.042	675.354	-0.117	0.301
-179.027	800.000	-0.069	-0.282
-178.012	-34.881	0.130	-0.070
-176.998	10.220	-0.249	-0.187
-175.983	800.000	0.048	-0.190
-174.969	-200.000	0.054	0.420
-173.954	-195.438	-0.083	0.001
-172.939	4.926	0.084	0.061
-171.925	-200.000	0.248	0.001
-170.910	741.773	-0.017	-0.044
-169.896	-126.403	-0.141	0.021
-168.881	-70.838	0.111	0.041
-167.866	800.000	0.097	0.280
-166.852	-195.029	0.181	-0.001
-165.837	354.137	-0.143	0.280
-164.823	-200.000	0.021	-0.220
-163.808	-75.270	0.210	-0.074
-162.793	-68.666	-0.158	-0.060
-161.779	283.427	0.096	0.171
-160.764	-92.390	0.039	-0.011
-159.750	800.000	-0.073	-0.250
-158.735	321.933	-0.041	0.077
-157.720	114.799	-0.092	-0.110
-156.706	60.918	-0.227	0.223
-155.691	586.139	0.154	0.375
-154.677	-200.000	-0.095	0.419
-153.662	-58.569	-0.149	0.064
-152.647	-9.286	0.271	0.179
-151.633	-14.036	-0.363	-0.231
-150.618	-110.423	0.185	-0.038
-149.604	-200.000	0.028	0.261
-148.589	-112.911	0.184	0.036
-147.574	3.238	0.062	-0.044
-146.560	128.044	-0.079	-0.099
-145.545	800.000	0.106	0.401
-144.531	-120.448	-0.151	0.025
-143.516	-66.408	0.278	-0.109
-142.502	172.535	-0.261	0.370
-141.487	-18.215	-0.208	0.128
-140.472	-71.408	0.148	0.055
-139.458	512.930	0.105	-0.242
-138.443	-98.416	-0.046	-0.012
-137.429	-67.633	0.153	-0.059
-136.414	-200.000	0.012	0.187
-135.399	800.000	0.055	0.153
-134.385	-200.000	0.017	-0.179
-133.370	-121.566	-0.438	-0.072
-132.356	-200.000	-0.052	0.300
-131.341	-141.029	-0.225	0.023
-130.326	-67.321	0.225	-0.087
-129.312	-68.628	0.075	-0.029
-128.297	-116.387	0.280	0.051
-127.283	800.000	-0.019	-0.071
-126.268	263.693	-0.086	0.147
-125.253	125.245	-0.032	0.040
-124.239	-94.810	-0.205	0.055
-123.224	448.868	0.085	0.185
-122.210	-180.535	0.137	0.003
-121.195	263.485	-0.040	0.069
-120.180	-200.000	0.007	0.072
-119.166	-99.144	0.283	0.070
-118.151	-200.000	0.011	0.179
-117.137	39.986	0.149	0.132
-116.122	42.193	-0.145	0.130
-115.107	-200.000	-0.019	0.435
-114.093	-146.277	0.398	-0.034
-113.078	453.226	0.061	-0.133
-112.064	339.897	0.049	-0.093
-111.049	-34.428	-0.150	0.081
-110.034	-139.478	0.291	0.031
-109.020	-200.000	0.048	0.300
-108.005	-34.157	0.431	0.233
-106.991	-49.123	-0.183	-0.086
-105.976	-103.595	-0.084	0.019
-104.962	-200.000	-0.006	0.200
-103.947	-200.000	0.008	0.107
-102.932	33.007	-0.142	-0.121
-101.918	-114.231	-0.161	0.031
-100.903	12.436	-0.240	-0.183
-99.889	-132.102	-0.261	0.033
-98.874	-58.131	0.049	-0.021
-97.859	161.313	-0.148	0.204
-96.845	14.401	0.082	0.063
-95.830	-63.549	-0.161	-0.065
-94.816	-200.000	0.025	-0.382
-93.801	36.084	-0.115	-0.100
-92.786	59.428	-0.220	0.213
-91.772	-200.000	-0.026	-0.144
-90.757	-200.000	-0.019	0.138
-89.743	-7.099	-0.248	0.166
-88.728	314.498	0.047	-0.087
-87.713	-107.321	-0.330	-0.071
-86.699	88.029	0.128	0.140
-85.684	800.000	-0.037	0.123
-84.670	-200.000	-0.002	0.065
-83.655	-160.632	0.136	-0.007
-82.640	800.000	0.050	-0.157
-81.626	-130.253	-0.090	-0.012
-80.611	800.000	0.054	0.165
-79.597	-45.737	-0.122	-0.059
-78.582	-64.823	0.098	0.039
-77.567	-47.071	0.220	0.106
-76.553	-25.353	0.195	-0.114
-75.538	51.556	0.148	0.138
-74.524	112.182	-0.123	0.146
-73.509	-52.387	0.217	0.099
-72.494	20.310	0.253	-0.201
-71.480	759.927	-0.118	0.315
-70.465	-200.000	0.033	-0.215
-69.451	-38.701	0.136	0.071
-68.436	199.322	0.115	0.174
-67.422	-128.764	-0.122	-0.017
-66.407	-200.000	0.009	0.298
-65.392	-0.794	-0.188	0.131
-64.378	-66.702	-0.296	-0.115
-63.363	242.110	-0.079	-0.129
-62.349	147.504	0.202	0.267
-61.334	-6.624	-1.007	-0.674
-60.319	348.398	0.515	0.998
-59.305	440.969	-0.542	-1.165
-58.290	205.878	0.660	1.009
-57.276	288.513	0.725	1.292
-56.261	-200.000	107.228	583.014
-55.246	454.590	1463.899	3188.992
-54.232	148.766	2645.898	3516.005
-53.217	106.165	2178.844	2536.999
-52.203	40.263	1709.141	1511.434
-51.188	33.055	1521.579	1296.292
-50.173	30.749	1494.472	1257.589
-49.159	50.754	1548.335	1441.109
-48.144	51.384	1565.769	1461.615
-47.130	33.120	1523.348	1298.039
-46.115	30.202	1508.052	1265.086
-45.100	30.061	1504.810	1261.357
-44.086	29.965	1502.549	1258.755
-43.071	29.952	1500.448	1256.857
-42.057	29.863	1498.777	1254.807
-41.042	29.832	1497.624	1253.582
-40.027	29.868	1495.864	1252.303
-39.013	29.907	1494.053	1251.000
-37.998	29.929	1492.892	1250.123
-36.984	29.884	1491.798	1248.856
-35.969	29.952	1490.263	1247.978
-34.954	29.971	1488.743	1246.783
-33.940	29.929	1487.504	1245.415
-32.925	29.898	1486.786	1244.555
-31.911	30.035	1484.843	1243.801
-30.896	29.941	1484.137	1242.532
-29.881	29.933	1482.799	1241.306
-28.867	30.064	1480.931	1240.568
-27.852	29.971	1479.883	1239.024
-26.838	30.022	1478.282	1237.976
-25.823	30.020	1476.842	1236.705
-24.809	30.059	1474.714	1235.130
-23.794	29.974	1473.750	1233.708
-22.779	29.988	1472.551	1232.753
-21.765	29.990	1472.052	1232.297
-20.750	29.912	1471.212	1231.026
-19.736	29.940	1469.424	1229.668
-18.721	29.948	1468.343	1228.770
-17.706	29.911	1467.357	1227.647
-16.692	30.006	1466.007	1227.099
-15.677	29.912	1465.131	1225.695
-14.663	29.954	1464.239	1225.177
-13.648	29.837	1463.233	1223.513
-12.633	29.891	1462.445	1223.165
-11.619	29.889	1461.435	1222.257
-10.604	29.893	1460.415	1221.381
-9.590	29.986	1459.290	1221.006
-8.575	29.918	1458.903	1220.187
-7.560	29.866	1458.332	1219.320
-6.546	29.848	1457.180	1218.188
-5.531	29.922	1455.855	1217.520
-4.517	29.906	1455.089	1216.725
-3.502	29.907	1454.189	1215.926
-2.487	29.918	1453.186	1215.113
-1.473	29.796	1452.605	1213.776
-0.458	29.845	1450.873	1212.604
0.556	28.041	1440.893	1201.274
1.571	25.084	1414.946	1160.424
2.586	21.647	1353.968	1088.990
3.600	19.895	1271.898	1012.644
4.615	18.852	1227.161	971.049
5.629	16.429	1170.993	913.444
6.644	8.223	1086.243	805.957
7.659	1.366	1045.487	742.222
8.673	0.391	1039.158	732.923
9.688	0.184	1036.372	729.891
10.702	-0.067	1035.328	727.879
11.717	0.053	1033.279	726.951
12.731	2.662	1036.001	741.430
13.746	10.920	1046.633	789.190
14.761	17.051	1054.358	824.828
15.775	17.491	1053.748	826.416
16.790	16.535	1051.322	819.809
17.804	15.355	1049.237	812.399
18.819	14.528	1047.626	807.077
19.834	14.048	1046.371	803.720
20.848	13.823	1045.282	801.724
21.863	13.644	1044.109	799.889
22.877	13.317	1043.919	798.095
23.892	13.205	1042.586	796.465
24.907	13.006	1042.407	795.299
25.921	12.969	1041.728	794.534
26.936	13.075	1040.603	794.117
27.950	12.954	1040.020	793.021
28.965	13.111	1039.531	793.331
29.980	13.265	1038.389	793.126
30.994	13.271	1037.310	792.262
32.009	13.376	1036.666	792.202
33.023	13.324	1036.018	791.389
34.038	13.354	1035.000	790.682
35.053	13.258	1034.464	789.746
36.067	13.389	1032.935	789.135
37.082	13.292	1032.245	788.073
38.096	13.296	1032.186	787.978
39.111	13.428	1030.949	787.594
40.126	13.392	1030.213	786.791
41.140	13.303	1028.930	785.317
42.155	13.157	1028.175	783.979
43.169	13.099	1027.292	782.959
44.184	13.021	1026.291	781.759
45.199	13.136	1025.241	781.436
46.213	13.029	1024.415	780.230
47.228	13.141	1023.178	779.746
48.242	13.133	1022.388	779.038
49.257	13.099	1021.703	778.288
50.271	13.180	1020.527	777.704
51.286	13.226	1019.507	777.076
52.301	13.283	1018.638	776.614
53.315	13.326	1017.832	776.128
54.330	13.153	1017.504	774.999
55.344	13.093	1016.694	774.031
56.359	13.063	1015.513	772.927
57.374	13.299	1014.019	772.821
58.388	13.089	1013.568	771.430
59.403	13.094	1012.920	770.891
60.417	13.169	1011.887	770.389
61.432	13.113	1011.505	769.768
62.447	13.111	1010.628	769.023
63.461	13.079	1009.863	768.222
64.476	13.143	1008.500	767.417
65.490	13.094	1007.739	766.541
66.505	12.955	1007.384	765.560
67.520	13.013	1006.708	765.247
68.534	12.983	1006.002	764.500
69.549	13.088	1004.801	764.009
70.563	13.200	1004.034	763.873
71.578	12.995	1003.843	762.713
72.593	12.959	1002.946	761.798
73.607	13.043	1001.676	761.155
74.622	13.098	1000.724	760.615
75.636	12.943	1000.130	759.385
76.651	13.005	999.364	759.022
77.666	12.993	998.545	758.276
78.680	12.965	997.784	757.501
79.695	12.988	997.431	757.275
80.709	13.129	996.516	757.157
81.724	13.191	995.480	756.586
82.739	13.144	994.779	755.774
83.753	13.030	994.454	754.937
84.768	13.263	993.578	755.271
85.782	13.297	992.746	754.728
86.797	13.345	991.938	754.263
87.812	13.320	991.126	753.467
88.826	13.096	990.601	751.981
89.841	13.212	989.839	751.865
90.855	13.280	988.906	751.397
91.870	13.285	988.296	750.892
92.884	13.246	987.532	750.067
93.899	13.248	986.988	749.595
94.914	13.322	985.358	748.628
95.928	13.336	985.181	748.491
96.943	13.359	984.616	748.098
97.957	13.436	983.794	747.754
98.972	13.298	982.960	746.432
99.987	13.234	982.253	745.540
101.001	13.200	981.800	744.978
102.016	13.359	980.845	744.904
103.030	13.316	979.488	743.612
104.045	13.284	978.821	742.900
105.060	13.360	977.764	742.368
106.074	13.312	976.985	741.500
107.089	13.280	976.441	740.877
108.103	13.190	975.773	739.899
109.118	13.153	974.469	738.679
110.133	13.096	973.745	737.811
111.147	13.117	972.460	736.868
112.162	13.174	971.897	736.627
113.176	13.071	971.659	735.924
114.191	13.337	970.253	735.977
115.206	13.228	969.327	734.725
116.220	13.278	968.320	734.118
117.235	13.255	967.692	733.478
118.249	13.140	966.790	732.217
119.264	13.280	965.955	732.140
120.279	13.170	965.327	731.116
121.293	13.199	964.727	730.724
122.308	13.235	963.659	730.007
123.322	13.072	962.846	728.610
124.337	13.168	961.839	728.205
125.352	13.184	960.888	727.494
126.366	13.077	959.978	726.269
127.381	13.149	958.547	725.435
128.395	13.176	957.872	724.981
129.410	13.164	956.929	724.149
130.424	13.201	955.800	723.394
131.439	13.287	954.790	722.942
132.454	13.124	954.305	721.798
133.468	13.202	953.797	721.690
134.483	13.089	953.435	720.860
135.497	13.229	952.355	720.590
136.512	13.224	951.744	720.041
137.527	13.293	950.751	719.529
138.541	13.263	949.914	718.698
139.556	13.216	949.526	718.140
140.570	13.290	948.640	717.727
141.585	13.347	947.998	717.422
142.600	13.376	946.908	716.661
143.614	13.370	946.456	716.227
144.629	13.475	945.447	715.855
145.643	13.391	944.858	714.983
146.658	13.331	944.038	714.044
147.673	13.376	943.186	713.529
148.687	13.372	942.093	712.619
149.702	13.308	941.162	711.577
150.716	13.225	940.741	710.841
151.731	13.318	939.215	710.024
152.746	13.397	938.847	710.021
153.760	13.248	938.560	709.102
154.775	13.329	937.213	708.367
155.789	13.401	936.549	708.113
156.804	13.481	935.582	707.659
157.819	13.315	935.237	706.630
158.833	13.390	934.320	706.193
159.848	13.572	933.749	706.476
160.862	13.547	933.043	705.769
161.877	13.533	932.232	705.037
162.892	13.411	931.561	703.947
163.906	13.368	930.561	702.949
164.921	13.444	929.647	702.514
165.935	13.472	929.044	702.118
166.950	13.307	928.173	700.697
167.964	13.532	927.207	700.858
168.979	13.535	926.244	700.082
169.994	13.435	925.424	698.978
171.008	13.497	924.239	698.284
172.023	13.618	923.622	698.263
173.037	13.532	923.331	697.619
174.052	13.628	922.321	697.201
175.067	13.615	921.995	696.836
176.081	13.553	920.823	695.630
177.096	13.420	920.093	694.459
178.110	13.523	919.269	694.204
179.125	13.417	918.850	693.386
180.140	13.557	917.872	693.169
181.154	13.539	916.934	692.327
182.169	13.540	916.764	692.140
183.183	13.652	915.672	691.720
184.198	13.607	915.114	691.053
185.213	13.721	914.233	690.801
186.227	13.696	913.904	690.388
187.242	13.671	913.538	689.946
188.256	13.683	912.894	689.447
189.271	13.852	912.128	689.508
190.286	13.749	911.199	688.319
191.300	13.710	910.555	687.611
192.315	13.585	909.687	686.376
193.329	13.542	909.230	685.793
194.344	13.564	908.697	685.419
195.359	13.658	908.371	685.504
196.373	13.692	907.559	684.971
197.388	13.710	907.144	684.671
198.402	13.703	906.602	684.171
199.417	13.831	905.991	684.177
200.432	13.690	905.901	683.469
201.446	13.997	905.335	684.247
202.461	13.922	904.580	683.304
203.475	14.112	903.977	683.571
204.490	14.152	903.527	683.334
205.504	14.100	902.050	681.942
206.519	14.088	901.725	681.589
207.534	13.996	901.119	680.693
208.548	13.955	900.376	679.901
209.563	14.141	899.444	679.900
210.577	13.981	899.091	678.920
211.592	13.949	898.334	678.157
212.607	13.847	898.465	677.779
213.621	14.227	897.411	678.472
214.636	14.193	896.543	677.617
215.650	14.047	896.003	676.556
216.665	14.084	895.873	676.549
217.680	14.124	894.964	675.964
218.694	14.095	894.920	675.753
219.709	14.219	894.082	675.565
220.723	14.227	893.405	675.027
221.738	14.143	893.004	674.323
222.753	14.300	891.708	673.919
223.767	14.207	891.164	673.072
224.782	14.285	890.289	672.668
225.796	14.327	889.540	672.212
226.811	14.402	889.038	672.077
227.826	14.504	888.244	671.825
228.840	14.320	887.893	670.763
229.855	14.336	887.021	670.109
230.869	14.163	886.918	669.276
231.884	14.255	886.183	669.031
232.899	14.367	884.871	668.430
233.913	14.367	884.560	668.135
234.928	14.101	884.281	666.797
235.942	14.186	883.153	666.229
236.957	14.385	881.989	666.088
237.972	14.327	881.612	665.514
238.986	14.287	881.533	665.234
240.001	14.360	880.356	664.577
241.015	14.413	879.629	664.185
242.030	14.318	879.396	663.569
243.045	14.472	878.538	663.477
244.059	14.438	877.880	662.786
245.074	14.470	877.541	662.597
246.088	14.526	876.892	662.272
247.103	14.514	876.324	661.735
248.117	14.586	875.695	661.488
249.132	14.663	875.190	661.352
250.147	14.660	874.907	661.070
251.161	14.668	873.915	660.293
252.176	14.760	873.374	660.191
253.190	14.762	872.799	659.703
254.205	14.832	872.294	659.543
255.220	14.877	871.729	659.234
256.234	14.735	871.173	658.192
257.249	14.856	870.330	657.977
258.263	14.858	869.921	657.615
259.278	14.666	869.310	656.339
260.293	14.869	868.454	656.436
261.307	14.887	868.056	656.146
262.322	14.947	867.353	655.793
263.336	14.924	867.125	655.472
264.351	15.007	866.203	655.043
265.366	14.987	865.653	654.488
266.380	15.083	865.155	654.428
267.395	15.043	864.375	653.627
268.409	14.942	863.774	652.720
269.424	15.060	862.946	652.494
270.439	15.120	862.150	652.068
271.453	15.096	861.124	651.142
272.468	14.899	860.644	649.957
273.482	15.007	860.301	650.060
274.497	15.000	859.883	649.659
275.512	14.986	858.933	648.829
276.526	15.037	858.090	648.333
277.541	15.090	857.509	648.040
278.555	15.094	857.044	647.649
279.570	15.213	856.201	647.414
280.585	15.264	855.848	647.287
281.599	15.152	855.804	646.765
282.614	15.309	854.480	646.309
283.628	15.151	854.172	645.411
284.643	15.185	853.790	645.197
285.657	15.243	853.083	644.828
286.672	15.278	852.505	644.468
287.687	15.242	852.172	644.023
288.701	15.181	851.941	643.557
289.716	15.246	851.178	643.172
290.730	15.234	850.462	642.527
291.745	15.317	850.190	642.586
292.760	15.437	849.056	642.131
293.774	15.251	848.775	641.150
294.789	15.349	848.077	640.941
295.803	15.382	847.584	640.634
296.818	15.352	847.247	640.210
297.833	15.314	846.019	639.080
298.847	15.432	845.649	639.194
299.862	15.480	844.869	638.731
300.876	15.355	844.118	637.630
301.891	15.473	843.278	637.387
302.906	15.636	842.620	637.454
303.920	15.497	842.374	636.683
304.935	15.494	842.072	636.389
305.949	15.544	841.085	635.776
306.964	15.614	840.243	635.346
307.979	15.698	839.873	635.327
308.993	15.709	839.340	634.911
310.008	15.671	839.080	634.514
311.022	15.598	838.557	633.788
312.037	15.665	838.143	633.671
313.052	15.698	837.350	633.138
314.066	15.487	836.930	631.972
315.081	15.588	836.327	631.838
316.095	15.671	835.506	631.475
317.110	15.656	835.030	631.004
318.125	15.721	834.390	630.707
319.139	15.623	834.274	630.197
320.154	15.681	833.524	629.790
321.168	15.783	832.866	629.619
322.183	15.648	832.364	628.681
323.197	15.816	832.205	629.132
324.212	15.648	831.258	627.732
325.227	15.822	830.935	628.083
326.241	15.667	830.249	626.933
327.256	15.868	829.553	627.099
328.270	15.658	829.136	625.947
329.285	15.809	828.682	626.110
330.300	15.863	827.639	625.469
331.314	15.727	827.343	624.685
332.329	15.898	826.629	624.722
333.343	15.772	826.403	624.031
334.358	15.862	825.662	623.750
335.373	15.958	824.949	623.512
336.387	15.981	824.737	623.379
337.402	15.945	824.254	622.826
338.416	15.974	823.618	622.398
339.431	16.074	822.679	622.001
340.446	16.102	821.970	621.514
341.460	16.096	821.699	621.232
342.475	16.079	821.061	620.635
343.489	16.248	820.364	620.673
344.504	16.272	819.958	620.398
345.519	16.176	819.619	619.735
346.533	16.309	819.240	619.883
347.548	16.165	818.926	619.062
348.562	16.179	818.098	618.431
349.577	16.136	817.276	617.599
350.592	16.072	817.042	617.131
351.606	16.114	816.563	616.870
352.621	16.153	815.629	616.253
353.635	16.072	816.219	616.347
354.650	16.137	815.414	615.921
355.665	16.081	814.954	615.316
356.679	16.144	814.466	615.122
357.694	16.237	813.985	615.042
358.708	16.329	813.269	614.784
359.723	16.168	812.945	613.900
360.738	16.326	812.423	614.025
361.752	16.338	811.857	613.585
362.767	16.401	811.397	613.411
363.781	16.299	811.024	612.705
364.796	16.602	810.436	613.307
365.810	16.452	810.037	612.408
366.825	16.560	809.734	612.514
367.840	16.519	809.350	612.020
368.854	16.552	808.943	611.781
369.869	16.506	808.276	611.054
370.883	16.627	807.727	611.022
371.898	16.542	806.997	610.110
372.913	16.742	806.415	610.337
373.927	16.610	806.238	609.671
374.942	16.585	805.654	609.086
375.956	16.543	805.190	608.530
376.971	16.748	804.119	608.404
377.986	16.627	804.084	607.890
379.000	16.623	803.335	607.255
380.015	16.874	803.069	607.901
381.029	16.663	802.648	606.772
382.044	16.890	801.613	606.749
383.059	16.845	801.056	606.110
384.073	16.723	800.891	605.497
385.088	16.739	800.381	605.115
386.102	16.871	799.492	604.859
387.117	16.715	799.122	603.969
388.132	16.713	798.651	603.552
389.146	16.765	797.885	603.106
390.161	16.799	797.963	603.235
391.175	16.847	797.069	602.674
392.190	16.859	797.257	602.807
393.205	16.769	796.735	602.039
394.219	16.766	796.237	601.599
395.234	16.752	795.873	601.222
396.248	16.834	794.738	600.599
397.263	16.857	794.686	600.591
398.278	16.722	794.413	599.853
399.292	16.823	793.754	599.658
400.307	16.907	793.210	599.490
401.321	16.961	792.809	599.326
402.336	16.810	792.630	598.602
403.350	16.944	792.215	598.710
404.365	16.922	791.995	598.413
405.380	16.787	791.661	597.634
406.394	17.012	790.934	597.823
407.409	17.105	790.465	597.743
408.423	17.033	789.966	597.060
409.438	17.070	789.542	596.818
410.453	17.064	788.884	596.247
411.467	17.227	788.818	596.717
412.482	17.185	788.246	596.081
413.496	17.221	787.641	595.698
414.511	17.254	787.367	595.554
415.526	17.333	787.052	595.540
416.540	17.297	786.612	595.029
417.555	17.384	786.146	594.928
418.569	17.159	786.067	594.028
419.584	17.313	785.313	593.943
420.599	17.325	784.674	593.450
421.613	108.725	1289.808	1468.092
422.628	93.136	1363.381	1468.212
