DTS Sentinel unit serial number:	SN413079Multiplexer serial number:	ORYXHardware model number:	OX4-SRSoftware version number:	ORYX F/W v4.00 Oryx Data Collector v3.7.2.0data status	okinstallation	princeton_trtdifferential loss correction	single-endedforward channel	channel 3reverse channel	N/Adate	2019/09/17time	08:56:35forward acquisition time	60.00reverse acquisition time	0.00gamma	496.2192k internal	0.2329k external	0.2329temperature offset calibration	0.9939default loss term (dB/km)	0.3790temperature slope calibration	1.0000multiplexer offset coefficient	1.0000multiplexer slope coefficient	1.0000fibre end	0.00T internal ref (°C)	27.94T ext. ref 1 (°C)	0.12T ext. ref 2 (°C)	23.86length (m)	temperature (°C)	Stokes	anti-Stokes-747.200	-2.222	0.117	-0.083
-746.185	-3.387	-0.390	0.273
-745.171	-87.239	0.153	0.047
-744.156	-20.926	-0.391	0.241
-743.142	-98.272	-0.320	0.083
-742.127	800.000	-0.086	0.309
-741.112	81.320	0.105	0.114
-740.098	302.958	-0.254	0.473
-739.083	-200.000	-0.009	0.102
-738.069	-36.747	-0.306	0.166
-737.054	-163.272	0.350	0.017
-736.039	273.960	-0.131	0.233
-735.025	194.913	0.142	0.217
-734.010	243.865	-0.105	-0.178
-732.996	-48.144	0.288	0.140
-731.981	364.348	0.096	-0.195
-730.966	-63.750	-0.126	-0.052
-729.952	-112.565	-0.265	0.053
-728.937	-18.390	-0.266	0.167
-727.923	215.904	0.091	-0.145
-726.908	163.819	-0.074	-0.105
-725.894	-200.000	0.004	-0.244
-724.879	-176.384	-0.180	0.005
-723.864	455.611	-0.098	-0.219
-722.850	166.379	0.212	0.302
-721.835	142.273	-0.130	-0.174
-720.821	-183.216	-0.396	-0.007
-719.806	-200.000	-0.014	0.140
-718.791	178.427	-0.154	0.227
-717.777	-24.412	0.125	-0.075
-716.762	-117.923	-0.286	0.052
-715.748	11.622	-0.118	0.091
-714.733	-101.131	-0.298	0.074
-713.718	-69.687	0.217	0.084
-712.704	-139.765	-0.272	0.029
-711.689	-200.000	0.011	-0.144
-710.675	800.000	-0.072	0.280
-709.660	103.164	0.124	0.147
-708.645	-54.921	0.306	-0.139
-707.631	-200.000	0.012	-0.245
-706.616	137.721	0.107	0.141
-705.602	24.437	0.369	-0.307
-704.587	170.547	0.051	-0.073
-703.572	-64.806	0.032	-0.013
-702.558	-95.274	0.229	0.062
-701.543	-200.000	0.020	-0.119
-700.529	110.981	0.224	0.272
-699.514	538.788	0.086	-0.205
-698.499	-163.186	-0.125	0.006
-697.485	-52.954	0.174	0.081
-696.470	-58.341	0.278	-0.122
-695.456	118.695	-0.329	-0.408
-694.441	-12.361	0.158	0.104
-693.426	639.001	0.077	-0.197
-692.412	-200.000	0.001	0.037
-691.397	800.000	0.042	0.137
-690.383	-200.000	0.007	0.188
-689.368	-18.303	-0.209	0.131
-688.354	291.446	-0.024	-0.043
-687.339	800.000	-0.081	0.289
-686.324	61.410	-0.184	0.184
-685.310	-153.210	0.316	-0.022
-684.295	29.808	-0.031	0.027
-683.281	-200.000	0.057	-0.274
-682.266	279.856	0.095	-0.171
-681.251	-200.000	-0.030	-0.385
-680.237	-200.000	-0.035	-0.171
-679.222	-34.992	0.123	-0.067
-678.208	-68.584	0.410	0.160
-677.193	-66.549	0.109	-0.044
-676.178	-9.606	-0.249	-0.166
-675.164	-200.000	0.047	0.265
-674.149	-200.000	-0.027	0.182
-673.135	118.133	-0.216	0.268
-672.120	-200.000	0.005	0.154
-671.105	116.059	-0.231	-0.284
-670.091	-178.494	0.088	0.002
-669.076	-125.730	-0.094	-0.014
-668.062	781.892	-0.013	0.035
-667.047	-140.813	0.207	-0.021
-666.032	-200.000	-0.035	-0.188
-665.018	-92.880	-0.121	-0.034
-664.003	183.232	0.131	-0.195
-662.989	-57.055	0.246	0.109
-661.974	-21.462	0.161	-0.099
-660.959	-5.221	-0.138	-0.095
-659.945	-74.936	-0.181	-0.065
-658.930	-134.219	0.075	-0.009
-657.916	800.000	-0.078	0.313
-656.901	66.022	-0.171	-0.174
-655.886	-106.843	0.159	-0.035
-654.872	-86.284	0.357	-0.110
-653.857	121.833	-0.035	-0.044
-652.843	130.927	0.109	-0.140
-651.828	-46.521	0.500	0.246
-650.814	174.257	0.089	0.128
-649.799	88.522	0.190	-0.212
-648.784	-25.940	-0.474	0.280
-647.770	-47.449	0.211	-0.103
-646.755	423.083	0.084	0.180
-645.741	23.838	-0.091	0.075
-644.726	42.023	0.151	0.137
-643.711	800.000	0.081	0.315
-642.697	100.913	-0.094	-0.109
-641.682	56.348	-0.275	-0.268
-640.668	195.996	-0.117	-0.178
-639.653	736.835	-0.082	-0.221
-638.638	253.490	-0.175	0.299
-637.624	98.064	0.074	-0.085
-636.609	-200.000	-0.051	-0.256
-635.595	-53.293	0.321	0.148
-634.580	75.224	0.064	0.068
-633.565	-47.751	0.132	0.064
-632.551	-200.000	0.004	-0.045
-631.536	-24.774	0.259	0.154
-630.522	-114.741	0.346	-0.066
-629.507	-31.107	-0.120	-0.068
-628.492	800.000	0.046	0.169
-627.478	-200.000	0.019	0.130
-626.463	81.447	-0.190	0.206
-625.449	576.012	-0.073	-0.179
-624.434	82.504	0.238	-0.259
-623.419	33.687	-0.028	0.024
-622.405	198.588	0.120	-0.184
-621.390	-200.000	0.015	-0.106
-620.376	123.622	-0.047	-0.059
-619.361	134.499	-0.179	-0.233
-618.346	-110.286	-0.127	0.027
-617.332	631.020	-0.025	0.063
-616.317	713.037	-0.062	0.164
-615.303	66.387	0.021	0.021
-614.288	-200.000	-0.017	0.362
-613.273	-200.000	0.009	0.187
-612.259	800.000	-0.097	0.407
-611.244	37.687	0.127	-0.113
-610.230	344.452	-0.097	0.191
-609.215	-200.000	0.042	-0.410
-608.201	237.820	0.072	0.119
-607.186	66.908	0.038	-0.038
-606.171	800.000	-0.028	0.112
-605.157	-95.332	0.500	0.135
-604.142	-141.318	-0.274	0.028
-603.128	-4.327	-0.111	-0.077
-602.113	316.623	-0.043	0.082
-601.098	7.146	0.032	-0.024
-600.084	215.467	0.032	-0.051
-599.069	113.570	0.031	0.037
-598.055	-153.803	0.192	-0.013
-597.040	377.494	-0.058	0.118
-596.025	312.330	0.149	-0.280
-595.011	318.447	-0.155	0.293
-593.996	-19.939	0.357	0.220
-592.982	-46.160	-0.212	-0.105
-591.967	81.634	0.226	0.245
-590.952	-107.776	0.179	-0.039
-589.938	800.000	-0.049	-0.202
-588.923	-200.000	-0.008	0.127
-587.909	-60.581	0.250	0.106
-586.894	75.857	-0.160	0.169
-585.879	-200.000	-0.004	-0.063
-584.865	-200.000	0.017	-0.404
-583.850	467.845	-0.053	0.119
-582.836	-151.199	0.388	-0.029
-581.821	800.000	-0.023	-0.100
-580.806	-34.374	-0.136	-0.075
-579.792	-158.698	0.274	0.016
-578.777	-67.508	0.265	-0.104
-577.763	-200.000	0.016	-0.110
-576.748	-200.000	0.048	-0.261
-575.733	266.066	0.031	0.054
-574.719	-200.000	-0.015	0.105
-573.704	-20.603	0.126	-0.077
-572.690	16.990	0.134	-0.106
-571.675	38.204	0.158	-0.140
-570.661	435.002	-0.084	0.183
-569.646	-75.121	-0.216	0.077
-568.631	291.846	-0.243	-0.443
-567.617	-8.241	0.082	0.055
-566.602	140.162	0.103	0.136
-565.588	130.427	-0.215	0.276
-564.573	-59.888	-0.041	-0.018
-563.558	-65.644	0.143	-0.058
-562.544	800.000	0.017	0.048
-561.529	-97.993	0.311	0.080
-560.515	-72.190	-0.137	-0.051
-559.500	-200.000	0.026	0.321
-558.485	-200.000	-0.054	-0.255
-557.471	484.353	-0.130	-0.296
-556.456	153.316	0.123	-0.168
-555.442	-200.000	0.076	0.395
-554.427	800.000	0.074	0.294
-553.412	-37.402	-0.136	-0.072
-552.398	223.429	-0.092	-0.148
-551.383	-200.000	-0.029	-0.164
-550.369	-91.754	-0.391	0.111
-549.354	482.417	-0.027	-0.061
-548.339	-81.041	-0.231	0.076
-547.325	-200.000	-0.056	0.275
-546.310	-129.717	-0.221	-0.030
-545.296	-76.817	-0.232	0.081
-544.281	-88.046	0.194	0.058
-543.266	486.099	-0.023	-0.053
-542.252	-93.116	-0.478	-0.133
-541.237	-200.000	-0.012	-0.092
-540.223	-7.191	0.102	-0.069
-539.208	-40.876	-0.314	-0.163
-538.193	58.283	0.195	-0.191
-537.179	-5.262	0.069	-0.048
-536.164	22.241	-0.152	0.124
-535.150	68.458	-0.241	-0.246
-534.135	-133.447	-0.309	0.039
-533.121	800.000	-0.061	-0.249
-532.106	-200.000	-0.063	-0.286
-531.091	490.824	-0.074	-0.169
-530.077	164.180	-0.129	0.181
-529.062	-200.000	-0.018	0.091
-528.048	470.083	0.110	0.247
-527.033	-200.000	0.003	0.265
-526.018	-85.686	0.139	-0.043
-525.004	10.492	-0.091	0.069
-523.989	-37.073	-0.108	-0.058
-522.975	-4.784	-0.255	-0.175
-521.960	95.287	0.216	0.246
-520.945	-116.204	-0.255	-0.047
-519.931	174.600	0.101	-0.146
-518.916	51.543	-0.104	-0.099
-517.902	-78.308	0.282	0.097
-516.887	-15.253	-0.229	-0.146
-515.872	800.000	-0.039	-0.152
-514.858	257.953	-0.197	-0.339
-513.843	-200.000	0.002	0.200
-512.829	339.876	-0.112	0.218
-511.814	-200.000	-0.017	0.393
-510.799	21.564	0.060	-0.049
-509.785	-66.812	-0.243	0.096
-508.770	-130.290	-0.188	0.026
-507.756	-55.420	-0.278	-0.124
-506.741	119.384	-0.136	-0.168
-505.726	800.000	-0.051	0.178
-504.712	707.409	0.019	-0.051
-503.697	422.280	0.023	0.050
-502.683	102.643	-0.187	-0.218
-501.668	126.985	0.265	0.335
-500.653	182.368	-0.053	0.078
-499.639	337.374	-0.114	0.222
-498.624	800.000	0.082	-0.246
-497.610	-200.000	-0.021	-0.110
-496.595	4.344	-0.039	-0.029
-495.581	-162.311	-0.122	0.006
-494.566	-9.475	0.173	0.115
-493.551	-15.153	0.093	0.060
-492.537	-200.000	0.028	0.172
-491.522	712.937	0.046	0.121
-490.508	64.624	-0.383	0.385
-489.493	800.000	-0.145	-0.441
-488.478	-115.661	-0.101	0.019
-487.464	-22.018	0.109	-0.066
-486.449	-56.235	-0.146	-0.065
-485.435	-151.930	0.174	-0.013
-484.420	-51.665	-0.230	-0.107
-483.405	661.671	-0.056	-0.144
-482.391	-84.706	-0.181	0.057
-481.376	408.434	0.053	-0.112
-480.362	800.000	-0.047	-0.145
-479.347	526.945	0.082	0.193
-478.332	-60.156	0.341	-0.145
-477.318	-111.364	0.246	0.050
-476.303	-200.000	0.010	0.058
-475.289	-78.769	0.215	0.073
-474.274	-200.000	-0.029	0.179
-473.259	-122.603	-0.051	-0.008
-472.245	800.000	-0.039	0.153
-471.230	12.452	0.284	0.219
-470.216	37.385	0.336	-0.297
-469.201	-119.723	0.248	0.043
-468.186	240.595	0.217	-0.361
-467.172	141.413	0.187	-0.247
-466.157	-129.484	0.063	-0.009
-465.143	172.023	-0.054	-0.078
-464.128	115.332	0.073	0.089
-463.113	800.000	0.044	-0.132
-462.099	331.549	0.133	-0.255
-461.084	-109.327	0.049	-0.010
-460.070	-27.043	0.351	0.204
-459.055	-35.610	0.150	0.081
-458.040	800.000	-0.060	-0.247
-457.026	-133.053	-0.355	0.045
-456.011	-200.000	0.012	-0.068
-454.997	-137.971	-0.178	-0.020
-453.982	800.000	-0.038	0.134
-452.968	122.898	-0.208	0.259
-451.953	-140.305	-0.477	-0.050
-450.938	-130.683	0.115	-0.015
-449.924	-68.674	-0.205	0.079
-448.909	-62.678	0.155	-0.064
-447.895	-110.014	0.174	0.036
-446.880	-25.435	0.074	0.044
-445.865	-24.914	-0.040	-0.024
-444.851	412.311	0.147	-0.311
-443.836	800.000	0.021	0.059
-442.822	-10.516	-0.317	0.209
-441.807	74.880	0.206	-0.215
-440.792	27.440	-0.137	-0.115
-439.778	-200.000	-0.070	-0.317
-438.763	48.721	-0.119	-0.111
-437.749	43.402	0.183	0.167
-436.734	-80.489	-0.121	0.040
-435.719	-200.000	0.038	0.242
-434.705	5.044	0.228	-0.167
-433.690	186.876	-0.102	0.151
-432.676	12.146	0.133	-0.102
-431.661	239.094	-0.051	-0.085
-430.646	-200.000	-0.029	-0.177
-429.632	-200.000	-0.016	0.074
-428.617	191.116	-0.192	0.288
-427.603	-200.000	-0.049	-0.284
-426.588	-146.205	0.113	0.010
-425.573	328.838	-0.201	0.385
-424.559	175.864	-0.107	-0.155
-423.544	-128.175	0.428	0.061
-422.530	-116.568	-0.283	0.052
-421.515	800.000	0.038	-0.120
-420.500	178.814	-0.085	-0.123
-419.486	-84.081	-0.221	-0.070
-418.471	28.380	-0.113	-0.095
-417.457	290.623	0.039	0.070
-416.442	-200.000	0.218	-0.001
-415.428	0.850	-0.362	0.258
-414.413	-23.743	-0.036	-0.022
-413.398	800.000	0.187	-0.539
-412.384	-200.000	-0.012	-0.379
-411.369	189.959	-0.189	-0.282
-410.355	-103.457	-0.133	-0.031
-409.340	28.292	0.139	-0.117
-408.325	197.575	0.154	-0.234
-407.311	785.888	-0.119	-0.325
-406.296	-127.237	-0.143	-0.021
-405.282	187.016	0.077	0.114
-404.267	9.249	0.320	-0.241
-403.252	-89.596	-0.245	0.071
-402.238	-200.000	-0.031	0.200
-401.223	800.000	-0.134	0.400
-400.209	-200.000	0.040	0.432
-399.194	270.775	-0.180	-0.315
-398.179	-119.740	-0.476	-0.082
-397.165	-5.132	0.030	0.020
-396.150	-112.387	0.178	0.035
-395.136	800.000	0.050	0.150
-394.121	-99.446	0.243	0.061
-393.106	0.766	-0.161	-0.114
-392.092	49.244	0.048	0.045
-391.077	-200.000	-0.025	0.388
-390.063	-119.129	0.209	-0.036
-389.048	800.000	-0.072	-0.199
-388.033	-200.000	0.030	-0.236
-387.019	-200.000	-0.032	0.156
-386.004	-101.336	0.228	0.055
-384.990	528.163	-0.070	0.163
-383.975	-47.206	0.146	-0.071
-382.960	800.000	0.070	-0.234
-381.946	-24.617	0.217	-0.128
-380.931	-200.000	0.050	-0.275
-379.917	-147.225	-0.235	-0.020
-378.902	228.842	0.038	0.061
-377.888	-200.000	-0.012	0.097
-376.873	-200.000	-0.024	-0.118
-375.858	-200.000	-0.002	0.177
-374.844	454.763	0.049	-0.108
-373.829	-96.816	0.244	-0.064
-372.815	-127.074	0.237	-0.035
-371.800	-23.625	-0.191	-0.114
-370.785	-25.398	0.193	-0.113
-369.771	-123.664	-0.323	0.051
-368.756	-61.212	0.221	-0.093
-367.742	800.000	-0.066	-0.258
-366.727	-200.000	0.022	0.323
-365.712	-134.602	-0.121	0.015
-364.698	337.576	0.112	0.216
-363.683	11.206	-0.161	0.123
-362.669	-138.038	0.147	-0.016
-361.654	332.880	0.050	-0.096
-360.639	-200.000	-0.010	0.172
-359.625	-114.173	-0.284	-0.054
-358.610	800.000	-0.059	-0.213
-357.596	-200.000	0.047	0.439
-356.581	-71.159	0.358	0.133
-355.566	6.060	-0.122	-0.090
-354.552	-36.073	-0.371	0.199
-353.537	617.353	0.072	0.180
-352.523	43.077	-0.380	-0.344
-351.508	68.014	0.156	0.158
-350.493	800.000	-0.033	0.112
-349.479	110.894	-0.227	0.270
-348.464	-200.000	-0.030	-0.163
-347.450	-113.159	-0.105	0.021
-346.435	279.830	0.202	0.357
-345.420	-96.389	-0.323	0.085
-344.406	800.000	-0.041	-0.167
-343.391	-118.866	0.439	-0.077
-342.377	90.940	0.139	0.155
-341.362	-30.496	0.159	0.090
-340.348	-200.000	0.024	0.164
-339.333	-125.754	-0.326	0.049
-338.318	-85.314	-0.290	-0.090
-337.304	-20.271	0.157	0.096
-336.289	-178.648	0.175	-0.004
-335.275	-64.567	-0.236	-0.095
-334.260	29.586	-0.093	0.079
-333.245	-200.000	0.007	-0.156
-332.231	-20.961	-0.008	-0.005
-331.216	-143.898	0.150	0.014
-330.202	-123.886	-0.080	-0.013
-329.187	-122.865	0.154	-0.025
-328.172	-88.084	0.252	0.075
-327.158	151.963	-0.213	0.288
-326.143	220.511	0.047	-0.074
-325.129	33.175	0.444	0.381
-324.114	-175.569	0.181	-0.005
-323.099	266.550	0.152	-0.262
-322.085	-200.000	-0.022	-0.195
-321.070	-200.000	-0.079	0.425
-320.056	93.287	0.164	0.183
-319.041	654.658	-0.186	-0.473
-318.026	-200.000	-0.022	-0.236
-317.012	-158.305	0.226	0.013
-315.997	800.000	-0.194	-0.539
-314.983	-14.574	0.330	0.210
-313.968	-51.005	-0.131	-0.061
-312.953	-200.000	0.032	0.178
-311.939	24.438	-0.073	0.060
-310.924	459.173	-0.035	-0.078
-309.910	800.000	0.051	0.145
-308.895	-71.158	-0.190	0.071
-307.880	151.441	-0.187	-0.252
-306.866	216.727	-0.035	-0.056
-305.851	-107.283	0.163	0.035
-304.837	244.023	0.228	0.379
-303.822	137.336	0.097	0.126
-302.807	-200.000	0.004	0.360
-301.793	800.000	-0.052	-0.203
-300.778	-200.000	0.032	-0.251
-299.764	-103.387	0.404	-0.094
-298.749	7.941	0.201	0.149
-297.735	-200.000	-0.065	-0.343
-296.720	10.094	-0.255	-0.191
-295.705	459.702	0.117	0.257
-294.691	-101.056	-0.164	0.040
-293.676	-37.479	-0.176	0.093
-292.662	274.385	0.123	0.216
-291.647	4.749	0.096	-0.070
-290.632	34.914	0.256	0.222
-289.618	-18.859	-0.258	-0.159
-288.603	-200.000	0.005	0.038
-287.589	-24.612	-0.043	-0.025
-286.574	233.821	0.088	-0.143
-285.559	-77.423	0.113	-0.039
-284.545	-33.714	0.095	-0.052
-283.530	800.000	0.058	0.235
-282.516	-109.593	-0.282	-0.059
-281.501	154.252	0.200	-0.271
-280.486	-200.000	0.048	0.295
-279.472	273.523	0.175	0.305
-278.457	-200.000	-0.016	0.097
-277.443	-136.024	0.166	0.019
-276.428	-188.113	-0.132	-0.002
-275.413	800.000	0.055	-0.229
-274.399	-51.133	-0.123	-0.057
-273.384	456.920	-0.078	-0.170
-272.370	-34.620	-0.148	-0.080
-271.355	439.014	-0.071	0.153
-270.340	43.175	-0.170	0.154
-269.326	800.000	0.048	0.202
-268.311	-13.223	-0.162	-0.104
-267.297	-147.433	0.110	-0.009
-266.282	800.000	0.053	0.198
-265.267	789.800	0.047	-0.129
-264.253	-200.000	-0.006	-0.121
-263.238	-200.000	0.006	-0.098
-262.224	-110.744	0.314	-0.064
-261.209	-126.503	0.072	-0.011
-260.195	125.896	-0.118	-0.148
-259.180	-200.000	0.013	-0.171
-258.165	-160.529	0.182	0.010
-257.151	-126.574	0.152	0.022
-256.136	154.010	-0.095	-0.128
-255.122	632.293	0.152	-0.381
-254.107	800.000	0.087	-0.321
-253.092	317.578	-0.101	0.189
-252.078	360.881	-0.117	-0.231
-251.063	18.044	0.236	0.186
-250.049	16.600	0.019	0.014
-249.034	-71.405	-0.229	-0.085
-248.019	-200.000	-0.015	0.239
-247.005	53.918	-0.247	0.235
-245.990	-128.509	0.185	-0.026
-244.976	800.000	-0.037	0.150
-243.961	257.114	0.033	0.055
-242.946	-153.549	-0.193	-0.013
-241.932	-200.000	-0.064	0.284
-240.917	-103.365	0.185	-0.043
-239.903	115.592	-0.075	-0.090
-238.888	-200.000	-0.004	-0.301
-237.873	-200.000	-0.059	-0.356
-236.859	800.000	0.098	-0.321
-235.844	800.000	0.086	0.362
-234.830	296.953	0.052	-0.094
-233.815	177.389	0.234	-0.337
-232.800	46.291	-0.145	-0.132
-231.786	749.091	0.122	-0.325
-230.771	800.000	-0.071	-0.235
-229.757	14.797	-0.094	0.072
-228.742	302.065	0.062	0.113
-227.727	67.442	-0.038	0.038
-226.713	483.352	-0.108	-0.243
-225.698	-200.000	0.007	0.046
-224.684	147.462	0.108	0.144
-223.669	-74.814	0.070	-0.025
-222.655	-200.000	-0.014	0.243
-221.640	135.698	-0.067	-0.087
-220.625	800.000	0.050	0.206
-219.611	800.000	0.051	-0.162
-218.596	-129.686	-0.033	0.004
-217.582	539.747	-0.035	0.082
-216.567	-200.000	0.001	0.311
-215.552	39.498	0.064	-0.056
-214.538	-102.574	0.072	-0.017
-213.523	98.519	-0.145	-0.165
-212.509	325.875	0.059	-0.111
-211.494	-53.235	-0.246	0.111
-210.479	-107.697	0.297	-0.064
-209.465	549.939	0.050	0.119
-208.450	-74.094	-0.311	-0.111
-207.436	-114.224	-0.204	0.039
-206.421	-162.189	0.183	-0.009
-205.406	-200.000	0.021	-0.152
-204.392	24.168	-0.322	-0.262
-203.377	126.218	0.104	0.129
-202.363	174.806	0.088	-0.126
-201.348	-152.658	0.206	0.014
-200.333	83.293	0.263	0.283
-199.319	-200.000	0.024	-0.141
-198.304	800.000	-0.048	-0.204
-197.290	-200.000	0.027	0.185
-196.275	465.268	0.190	0.419
-195.260	387.723	-0.039	0.079
-194.246	380.003	-0.157	0.317
-193.231	70.799	-0.129	0.132
-192.217	-179.022	0.554	-0.012
-191.202	187.051	-0.115	0.169
-190.187	208.113	-0.156	0.240
-189.173	-9.551	0.148	0.097
-188.158	178.345	-0.143	0.205
-187.144	-36.668	-0.239	-0.127
-186.129	31.045	0.184	0.155
-185.114	205.672	-0.061	-0.093
-184.100	800.000	-0.091	0.365
-183.085	-54.565	-0.429	0.191
-182.071	-20.907	0.202	0.122
-181.056	-153.606	-0.188	-0.013
-180.042	-126.478	-0.095	0.014
-179.027	463.889	-0.039	-0.085
-178.012	456.274	0.060	-0.131
-176.998	578.745	0.127	-0.306
-175.983	-155.912	-0.350	-0.022
-174.969	121.236	0.078	0.096
-173.954	-162.761	0.295	-0.014
-172.939	-36.948	0.181	-0.096
-171.925	-42.680	-0.235	0.118
-170.910	243.283	0.047	-0.077
-169.896	10.458	-0.154	0.116
-168.881	-86.555	0.061	-0.018
-167.866	259.681	-0.181	-0.308
-166.852	-200.000	-0.045	-0.201
-165.837	-129.796	0.225	-0.031
-164.823	-134.438	0.224	0.027
-163.808	92.505	0.170	-0.189
-162.793	800.000	-0.089	0.294
-161.779	-117.459	0.302	0.054
-160.764	471.349	-0.028	-0.062
-159.750	-40.804	0.224	0.114
-158.735	193.398	-0.154	0.230
-157.720	145.753	-0.356	0.470
-156.706	-30.547	-0.070	0.039
-155.691	70.824	-0.088	0.090
-154.677	241.645	-0.183	-0.302
-153.662	17.118	0.195	-0.152
-152.647	636.951	0.086	0.215
-151.633	17.758	0.104	-0.081
-150.618	163.529	0.120	0.165
-149.604	168.231	0.050	0.070
-148.589	404.935	-0.136	-0.281
-147.574	-200.000	-0.006	-0.173
-146.560	165.787	0.137	0.191
-145.545	-195.304	-0.407	0.003
-144.531	-200.000	-0.024	-0.346
-143.516	493.036	0.056	-0.126
-142.502	-36.792	0.162	-0.085
-141.487	53.749	-0.184	0.174
-140.472	255.795	-0.117	-0.198
-139.458	-46.635	0.111	0.053
-138.443	-200.000	-0.001	-0.209
-137.429	-35.523	-0.113	0.060
-136.414	213.296	0.135	0.210
-135.399	-32.779	0.165	0.090
-134.385	800.000	0.027	-0.096
-133.370	31.357	0.134	-0.113
-132.356	120.574	-0.167	0.204
-131.341	2.381	0.075	0.053
-130.326	-64.761	-0.175	-0.070
-129.312	73.641	-0.273	0.281
-128.297	134.395	-0.050	-0.064
-127.283	-200.000	0.038	-0.189
-126.268	-200.000	0.010	0.143
-125.253	-148.547	0.208	-0.017
-124.239	-200.000	-0.095	0.522
-123.224	-200.000	-0.000	0.249
-122.210	-86.943	0.202	-0.061
-121.195	-71.919	0.145	0.053
-120.180	-65.708	0.415	-0.163
-119.166	-200.000	-0.048	-0.383
-118.151	225.803	0.125	-0.198
-117.137	-200.000	0.030	0.245
-116.122	601.234	0.095	0.232
-115.107	244.399	-0.075	0.124
-114.093	-3.981	0.102	-0.070
-113.078	-200.000	-0.013	0.113
-112.064	355.802	-0.018	-0.036
-111.049	484.643	0.059	0.131
-110.034	139.394	-0.134	0.173
-109.020	-18.266	0.442	-0.272
-108.005	-21.725	0.065	-0.039
-106.991	-91.480	0.372	-0.104
-105.976	-87.627	-0.188	0.056
-104.962	-25.813	0.137	-0.079
-103.947	-123.558	0.359	-0.056
-102.932	-116.225	0.203	-0.037
-101.918	-98.835	0.324	-0.081
-100.903	497.101	-0.092	0.207
-99.889	-16.149	0.243	0.152
-98.874	-60.927	-0.104	-0.043
-97.859	178.460	-0.254	-0.364
-96.845	150.834	-0.263	-0.351
-95.830	120.740	0.088	-0.108
-94.816	-50.008	-0.043	-0.020
-93.801	-89.743	0.150	0.043
-92.786	3.486	0.069	0.049
-91.772	-200.000	0.016	-0.148
-90.757	54.716	0.263	0.249
-89.743	-200.000	-0.054	0.240
-88.728	124.134	0.249	-0.308
-87.713	171.997	0.065	0.091
-86.699	207.736	-0.059	0.091
-85.684	-200.000	0.032	0.312
-84.670	-200.000	0.005	0.152
-83.655	77.080	0.189	0.197
-82.640	-200.000	-0.026	0.331
-81.626	159.318	0.061	-0.083
-80.611	70.774	0.018	0.019
-79.597	518.196	0.084	0.192
-78.582	-15.311	0.307	0.192
-77.567	-200.000	0.024	0.144
-76.553	431.043	-0.144	0.307
-75.538	245.192	-0.300	0.494
-74.524	118.672	0.348	0.421
-73.509	-66.887	-0.239	0.093
-72.494	800.000	0.077	0.314
-71.480	-200.000	0.026	-0.192
-70.465	800.000	0.162	0.493
-69.451	800.000	0.098	0.366
-68.436	-200.000	-0.020	-0.186
-67.422	-175.148	0.233	0.006
-66.407	-116.431	0.223	0.040
-65.392	577.798	-0.050	0.119
-64.378	-44.094	0.309	-0.152
-63.363	-200.000	-0.042	-0.452
-62.349	34.585	0.217	0.186
-61.334	528.969	-0.565	-1.308
-60.319	668.308	0.133	0.338
-59.305	-200.000	-0.214	-1.074
-58.290	163.696	0.832	1.147
-57.276	212.096	0.916	1.416
-56.261	-200.000	111.431	618.926
-55.246	453.028	1507.893	3270.632
-54.232	146.498	2677.177	3524.922
-53.217	103.550	2180.719	2509.029
-52.203	38.321	1709.868	1492.944
-51.188	31.152	1526.927	1284.048
-50.173	28.798	1502.556	1247.544
-49.159	50.751	1559.334	1447.172
-48.144	50.644	1575.605	1461.474
-47.130	31.205	1532.239	1288.675
-46.115	28.221	1517.481	1255.774
-45.100	28.087	1513.916	1251.859
-44.086	28.022	1512.161	1249.912
-43.071	27.962	1510.335	1247.944
-42.057	27.970	1508.734	1246.630
-41.042	27.942	1507.257	1245.165
-40.027	27.881	1506.122	1243.762
-39.013	27.892	1504.184	1242.191
-37.998	27.787	1503.491	1240.855
-36.984	27.924	1501.804	1240.347
-35.969	28.022	1500.062	1239.518
-34.954	27.908	1499.034	1237.849
-33.940	27.754	1497.958	1235.870
-32.925	27.917	1495.979	1235.286
-31.911	27.863	1495.087	1234.135
-30.896	28.023	1493.123	1233.544
-29.881	27.999	1492.160	1232.542
-28.867	27.994	1490.814	1231.345
-27.852	27.956	1489.599	1230.041
-26.838	28.026	1488.300	1229.390
-25.823	28.079	1486.229	1227.981
-24.809	27.984	1485.201	1226.448
-23.794	27.991	1483.816	1225.304
-22.779	27.878	1482.956	1223.790
-21.765	27.968	1481.639	1223.256
-20.750	28.010	1480.908	1222.882
-19.736	27.991	1479.524	1221.567
-18.721	27.912	1478.508	1220.148
-17.706	27.965	1477.472	1219.598
-16.692	27.986	1475.948	1218.432
-15.677	28.008	1475.065	1217.802
-14.663	28.012	1473.964	1216.871
-13.648	28.019	1472.993	1216.067
-12.633	28.044	1472.097	1215.447
-11.619	27.889	1471.704	1214.043
-10.604	27.842	1470.887	1213.010
-9.590	27.852	1470.079	1212.360
-8.575	27.918	1468.415	1211.378
-7.560	27.853	1468.312	1210.816
-6.546	27.860	1466.941	1209.685
-5.531	27.975	1466.069	1209.680
-4.517	27.877	1465.153	1208.226
-3.502	27.854	1464.076	1207.136
-2.487	27.884	1463.105	1206.486
-1.473	27.891	1462.047	1205.615
-0.458	28.011	1460.196	1204.829
0.556	26.126	1451.535	1194.368
1.571	23.455	1426.683	1156.420
2.586	20.244	1364.407	1085.777
3.600	18.607	1279.742	1008.693
4.615	17.317	1234.765	965.834
5.629	15.007	1178.250	909.014
6.644	7.432	1093.525	805.254
7.659	1.239	1053.800	745.569
8.673	0.227	1048.628	736.894
9.688	0.089	1045.252	733.786
10.702	0.174	1043.214	732.703
11.717	0.010	1041.688	730.766
12.731	2.523	1043.528	744.215
13.746	10.141	1054.641	789.375
14.761	16.288	1061.589	824.617
15.775	17.292	1061.561	829.427
16.790	16.376	1060.336	823.929
17.804	15.516	1057.489	817.459
18.819	14.585	1056.204	811.864
19.834	14.073	1055.148	808.492
20.848	13.808	1053.860	806.147
21.863	13.582	1052.750	804.130
22.877	13.302	1052.154	802.246
23.892	13.116	1051.383	800.685
24.907	13.033	1050.776	799.747
25.921	13.005	1050.045	798.986
26.936	12.987	1049.382	798.324
27.950	13.028	1048.979	798.145
28.965	13.171	1048.001	798.019
29.980	13.178	1047.103	797.298
30.994	13.237	1046.068	796.726
32.009	13.222	1045.346	796.036
33.023	13.406	1044.493	796.200
34.038	13.305	1044.045	795.303
35.053	13.330	1042.731	794.350
36.067	13.258	1041.638	793.100
37.082	13.285	1040.798	792.522
38.096	13.130	1040.805	791.714
39.111	13.308	1039.735	791.681
40.126	13.178	1038.890	790.346
41.140	13.185	1037.802	789.485
42.155	13.172	1036.649	788.473
43.169	13.108	1035.835	787.481
44.184	12.985	1034.684	785.949
45.199	13.014	1033.583	785.180
46.213	13.029	1032.920	784.681
47.228	13.119	1031.662	784.081
48.242	13.122	1030.793	783.365
49.257	13.201	1029.596	782.760
50.271	13.109	1028.695	781.571
51.286	13.071	1027.800	780.641
52.301	13.209	1026.668	780.365
53.315	13.219	1026.245	780.023
54.330	13.220	1025.266	779.211
55.344	13.131	1024.485	778.132
56.359	13.122	1023.044	776.927
57.374	13.107	1022.814	776.611
58.388	12.994	1022.260	775.591
59.403	13.060	1021.351	775.143
60.417	12.894	1020.893	773.950
61.432	13.073	1019.869	773.944
62.447	12.953	1019.333	772.904
63.461	13.069	1018.363	772.645
64.476	13.022	1017.389	771.620
65.490	12.901	1016.684	770.451
66.505	13.013	1015.920	770.323
67.520	13.090	1014.838	769.793
68.534	13.065	1014.308	769.208
69.549	13.173	1013.006	768.655
70.563	12.983	1012.942	767.655
71.578	13.086	1011.971	767.330
72.593	13.146	1010.741	766.609
73.607	12.905	1010.103	764.939
74.622	13.061	1009.167	764.882
75.636	12.949	1008.717	763.957
76.651	12.831	1008.150	762.915
77.666	12.952	1006.873	762.439
78.680	12.949	1005.907	761.627
79.695	12.998	1005.478	761.459
80.709	13.009	1005.090	761.149
81.724	13.018	1004.355	760.568
82.739	13.139	1003.580	760.472
83.753	13.151	1002.733	759.815
84.768	13.107	1002.030	759.016
85.782	13.157	1001.049	758.433
86.797	13.265	1000.342	758.326
87.812	13.239	999.583	757.563
88.826	13.190	998.798	756.681
89.841	13.195	997.963	756.001
90.855	13.206	997.192	755.402
91.870	13.174	996.676	754.798
92.884	13.220	995.810	754.286
93.899	13.253	995.086	753.819
94.914	13.190	994.262	752.841
95.928	13.404	993.520	753.188
96.943	13.362	992.915	752.471
97.957	13.396	991.889	751.782
98.972	13.247	991.150	750.480
99.987	13.395	990.663	750.714
101.001	13.368	989.746	749.832
102.016	13.189	989.083	748.453
103.030	13.256	987.811	747.725
104.045	13.351	986.776	747.304
105.060	13.265	986.478	746.628
106.074	13.210	985.316	745.431
107.089	13.136	984.779	744.626
108.103	13.148	983.930	743.972
109.118	13.066	983.091	742.906
110.133	13.156	982.054	742.458
111.147	13.089	981.273	741.500
112.162	13.122	980.228	740.793
113.176	13.167	979.225	740.172
114.191	13.230	978.571	739.897
115.206	13.283	977.317	739.119
116.220	13.170	977.066	738.357
117.235	13.145	976.264	737.573
118.249	13.173	975.117	736.767
119.264	13.209	974.310	736.251
120.279	13.102	974.004	735.480
121.293	13.111	972.795	734.543
122.308	13.076	972.314	733.958
123.322	13.227	970.914	733.506
124.337	13.117	970.127	732.362
125.352	13.220	969.084	731.962
126.366	13.140	968.403	731.030
127.381	12.926	967.482	729.326
128.395	13.140	966.013	729.098
129.410	13.232	965.222	728.840
130.424	13.117	964.454	727.691
131.439	13.145	963.217	726.816
132.454	13.267	962.624	726.840
133.468	13.209	961.962	726.023
134.483	13.251	960.962	725.389
135.497	13.208	960.587	724.853
136.512	13.287	959.730	724.486
137.527	13.254	959.107	723.808
138.541	13.311	958.033	723.183
139.556	13.186	957.646	722.279
140.570	13.225	956.724	721.689
141.585	13.206	956.129	721.097
142.600	13.249	955.531	720.768
143.614	13.295	954.567	720.179
144.629	13.264	954.132	719.649
145.643	13.382	953.265	719.448
146.658	13.357	952.451	718.661
147.673	13.249	951.607	717.492
148.687	13.228	951.091	716.946
149.702	13.159	949.477	715.369
150.716	13.260	948.795	715.227
151.731	13.254	948.066	714.589
152.746	13.359	947.144	714.286
153.760	13.323	946.778	713.792
154.775	13.333	946.165	713.309
155.789	13.262	945.277	712.270
156.804	13.424	944.566	712.367
157.819	13.283	943.841	711.153
158.833	13.383	942.920	710.822
159.848	13.434	942.385	710.577
160.862	13.416	941.792	709.991
161.877	13.454	940.662	709.236
162.892	13.475	940.049	708.802
163.906	13.309	938.975	707.222
164.921	13.198	938.764	706.526
165.935	13.296	937.608	706.009
166.950	13.403	936.318	705.433
167.964	13.387	935.519	704.702
168.979	13.550	934.467	704.538
169.994	13.326	933.644	702.906
171.008	13.441	932.821	702.711
172.023	13.530	932.051	702.445
173.037	13.559	931.324	701.960
174.052	13.627	930.074	701.243
175.067	13.624	929.663	700.857
176.081	13.448	929.462	699.899
177.096	13.472	928.460	699.185
178.110	13.512	927.695	698.714
179.125	13.427	926.957	697.741
180.140	13.477	926.065	697.217
181.154	13.547	925.422	696.967
182.169	13.470	924.939	696.216
183.183	13.527	924.387	695.979
184.198	13.650	923.512	695.774
185.213	13.613	922.709	694.953
186.227	13.645	922.269	694.696
187.242	13.688	921.437	694.189
188.256	13.768	920.812	693.991
189.271	13.870	919.787	693.582
190.286	13.890	919.197	693.158
191.300	13.623	918.867	691.734
192.315	13.623	917.932	690.970
193.329	13.518	917.136	689.873
194.344	13.530	916.725	689.552
195.359	13.616	915.796	689.150
196.373	13.752	915.312	689.289
197.388	13.628	915.015	688.489
198.402	13.862	914.143	688.743
199.417	13.838	913.887	688.389
200.432	13.865	913.564	688.199
201.446	13.959	913.216	688.263
202.461	13.943	912.618	687.687
203.475	13.924	911.664	686.828
204.490	13.958	911.478	686.767
205.504	13.882	910.363	685.555
206.519	13.916	909.972	685.340
207.534	13.855	908.805	684.145
208.548	13.928	908.092	683.851
209.563	13.912	907.574	683.335
210.577	13.863	906.996	682.639
211.592	13.968	906.441	682.589
212.607	14.132	905.611	682.578
213.621	14.179	905.063	682.297
214.636	14.172	904.297	681.631
215.650	14.072	903.822	680.802
216.665	14.178	903.410	680.864
217.680	14.149	902.830	680.248
218.694	14.210	902.217	679.975
219.709	14.194	901.804	679.542
220.723	14.219	900.492	678.593
221.738	14.110	900.261	677.916
222.753	14.152	899.767	677.653
223.767	14.175	898.824	676.976
224.782	14.191	897.918	676.302
225.796	14.260	897.250	676.018
226.811	14.294	896.704	675.687
227.826	14.308	895.875	675.056
228.840	14.267	894.649	673.906
229.855	14.228	894.579	673.638
230.869	14.225	894.041	673.161
231.884	14.291	893.193	672.728
232.899	14.188	892.572	671.788
233.913	14.286	891.732	671.489
234.928	14.159	891.462	670.715
235.942	14.056	890.841	669.772
236.957	14.079	889.966	669.148
237.972	14.070	889.684	668.842
238.986	14.257	888.422	668.586
240.001	14.220	888.024	668.079
241.015	14.318	887.302	667.868
242.030	14.161	886.612	666.660
243.045	14.384	885.758	666.851
244.059	14.355	885.456	666.449
245.074	14.513	884.633	666.402
246.088	14.553	883.722	665.816
247.103	14.578	883.264	665.513
248.117	14.541	882.885	665.020
249.132	14.559	882.618	664.831
250.147	14.477	882.103	664.059
251.161	14.607	880.920	663.627
252.176	14.684	880.457	663.526
253.190	14.750	879.264	662.829
254.205	14.635	879.278	662.325
255.220	14.890	878.400	662.617
256.234	14.775	877.789	661.642
257.249	14.738	877.416	661.156
258.263	14.974	876.616	661.427
259.278	14.880	876.068	660.583
260.293	14.889	875.859	660.402
261.307	14.802	875.620	659.820
262.322	14.965	874.327	659.430
263.336	14.977	873.971	659.149
264.351	14.894	873.197	658.181
265.366	15.015	872.488	658.065
266.380	15.067	872.124	657.938
267.395	15.079	871.331	657.328
268.409	15.008	870.862	656.636
269.424	15.006	870.155	656.036
270.439	14.911	869.325	654.982
271.453	15.074	868.451	654.903
272.468	15.119	867.862	654.576
273.482	15.071	867.046	653.717
274.497	14.978	866.713	653.046
275.512	14.929	865.941	652.216
276.526	14.947	865.592	651.965
277.541	15.032	864.778	651.626
278.555	15.004	864.125	650.966
279.570	15.164	863.353	650.946
280.585	15.143	863.044	650.574
281.599	15.262	862.253	650.383
282.614	15.211	861.564	649.610
283.628	15.111	861.238	648.919
284.643	15.216	860.933	649.037
285.657	15.159	860.278	648.267
286.672	15.215	859.682	647.974
287.687	15.314	859.038	647.817
288.701	15.256	858.721	647.294
289.716	15.243	858.197	646.793
290.730	15.316	857.463	646.462
291.745	15.283	856.583	645.616
292.760	15.300	856.243	645.367
293.774	15.433	855.302	645.113
294.789	15.268	855.448	644.533
295.803	15.435	854.433	644.351
296.818	15.303	853.763	643.281
297.833	15.349	853.112	642.911
298.847	15.251	852.859	642.288
299.862	15.293	851.821	641.611
300.876	15.363	851.094	641.273
301.891	15.502	850.169	641.052
302.906	15.451	849.979	640.658
303.920	15.553	849.442	640.585
304.935	15.544	848.899	640.083
305.949	15.650	847.990	639.743
306.964	15.664	847.105	639.073
307.979	15.562	846.864	638.446
308.993	15.557	846.634	638.199
310.008	15.484	846.461	637.734
311.022	15.665	845.478	637.625
312.037	15.554	844.792	636.628
313.052	15.674	844.600	636.883
314.066	15.657	843.435	635.882
315.081	15.621	842.796	635.209
316.095	15.490	842.675	634.569
317.110	15.601	842.044	634.457
318.125	15.535	841.698	633.889
319.139	15.677	841.138	633.947
320.154	15.612	840.597	633.237
321.168	15.801	839.685	633.205
322.183	15.662	839.255	632.303
323.197	15.757	839.013	632.422
324.212	15.779	838.134	631.785
325.227	15.801	837.589	631.401
326.241	15.770	837.038	630.813
327.256	15.810	836.651	630.619
328.270	15.698	836.313	629.885
329.285	15.708	835.837	629.511
330.300	15.532	835.445	628.502
331.314	15.779	833.948	628.241
332.329	15.797	833.881	628.201
333.343	15.706	833.205	627.297
334.358	15.759	832.771	627.115
335.373	15.961	832.067	627.280
336.387	15.985	831.460	626.858
337.402	15.965	830.834	626.256
338.416	15.926	830.435	625.753
339.431	15.841	830.196	625.204
340.446	16.068	829.184	625.225
341.460	16.127	828.522	624.892
342.475	16.214	827.952	624.728
343.489	16.070	827.934	624.125
344.504	16.072	827.532	623.773
345.519	16.261	826.477	623.624
346.533	16.316	825.871	623.315
347.548	16.251	825.853	623.003
348.562	16.209	824.986	622.142
349.577	16.046	824.725	621.287
350.592	15.982	824.172	620.582
351.606	15.919	823.863	620.060
352.621	16.215	822.911	620.377
353.635	16.298	822.309	620.173
354.650	16.139	821.933	619.252
355.665	16.199	821.707	619.247
356.679	16.213	821.152	618.826
357.694	16.255	820.735	618.611
358.708	16.199	820.233	617.974
359.723	16.239	819.714	617.672
360.738	16.174	818.954	616.809
361.752	16.343	818.424	616.973
362.767	16.183	818.398	616.314
363.781	16.243	818.130	616.277
364.796	16.347	817.124	615.841
365.810	16.458	816.594	615.792
366.825	16.337	817.084	615.669
367.840	16.621	816.217	615.995
368.854	16.555	815.707	615.313
369.869	16.489	815.418	614.801
370.883	16.412	814.848	614.039
371.898	16.568	814.258	614.106
372.913	16.530	813.476	613.324
373.927	16.641	813.011	613.320
374.942	16.519	812.452	612.401
375.956	16.771	811.652	612.656
376.971	16.528	811.275	611.441
377.986	16.704	810.563	611.485
379.000	16.728	810.205	611.248
380.015	16.723	809.771	610.847
381.029	16.733	809.164	610.371
382.044	16.754	808.203	609.668
383.059	16.730	808.217	609.540
384.073	16.868	807.393	609.361
385.088	16.790	807.118	608.818
386.102	16.721	806.334	607.926
387.117	16.687	805.766	607.322
388.132	16.609	805.495	606.781
389.146	16.826	805.045	607.169
390.161	16.858	804.275	606.650
391.175	16.762	804.644	606.529
392.190	16.910	803.780	606.354
393.205	16.837	803.343	605.708
394.219	16.854	803.108	605.539
395.234	16.743	802.318	604.492
396.248	16.820	801.783	604.313
397.263	16.884	801.283	604.110
398.278	16.745	800.796	603.194
399.292	16.838	800.494	603.242
400.307	16.772	800.274	602.789
401.321	16.780	799.777	602.390
402.336	16.734	799.542	601.998
403.350	16.880	799.118	602.143
404.365	16.983	798.614	602.077
405.380	16.956	797.930	601.410
406.394	16.969	797.504	601.082
407.409	17.026	797.079	600.911
408.423	16.860	796.984	600.198
409.438	17.140	796.334	600.646
410.453	17.064	795.713	599.856
411.467	17.195	795.329	599.975
412.482	17.197	794.778	599.515
413.496	17.118	794.541	599.004
414.511	17.358	793.953	599.355
415.526	17.388	793.731	599.239
416.540	17.218	793.651	598.525
417.555	17.395	792.660	598.350
418.569	17.269	792.512	597.740
419.584	17.192	791.951	596.995
420.599	17.379	791.201	597.032
421.613	110.653	1292.679	1477.176
422.628	95.044	1365.728	1477.284
