DTS Sentinel unit serial number:	SN413079Multiplexer serial number:	ORYXHardware model number:	OX4-SRSoftware version number:	ORYX F/W v4.00 Oryx Data Collector v3.7.2.0data status	okinstallation	princeton_trtdifferential loss correction	single-endedforward channel	channel 3reverse channel	N/Adate	2019/09/13time	16:56:35forward acquisition time	60.00reverse acquisition time	0.00gamma	496.2192k internal	0.2305k external	0.2305temperature offset calibration	1.0133default loss term (dB/km)	0.3790temperature slope calibration	1.0000multiplexer offset coefficient	1.0000multiplexer slope coefficient	1.0000fibre end	0.00T internal ref (°C)	34.87T ext. ref 1 (°C)	4.83T ext. ref 2 (°C)	30.81length (m)	temperature (°C)	Stokes	anti-Stokes-747.200	-47.145	0.065	-0.032
-746.185	622.467	0.058	0.148
-745.171	800.000	-0.038	0.136
-744.156	129.886	-0.104	0.135
-743.142	85.975	0.136	-0.153
-742.127	-97.981	-0.147	0.039
-741.112	-71.661	0.284	-0.108
-740.098	-165.044	0.185	-0.008
-739.083	-200.000	-0.022	-0.305
-738.069	470.753	0.076	0.174
-737.054	118.472	-0.123	0.154
-736.039	-61.946	0.095	0.040
-735.025	31.044	-0.170	0.148
-734.010	181.950	-0.223	-0.335
-732.996	153.202	-0.131	-0.183
-731.981	398.940	0.095	-0.203
-730.966	-9.497	0.194	0.132
-729.952	581.405	-0.144	0.360
-728.937	74.384	0.074	-0.079
-727.923	-127.263	-0.206	0.031
-726.908	800.000	0.029	0.094
-725.894	-200.000	0.075	-0.380
-724.879	62.578	-0.276	0.281
-723.864	1.366	0.143	0.105
-722.850	-184.097	0.170	0.003
-721.835	122.288	-0.173	-0.220
-720.821	-200.000	0.033	-0.250
-719.806	86.759	-0.030	0.033
-718.791	307.697	0.045	0.085
-717.777	63.652	-0.093	-0.095
-716.762	-68.491	-0.307	-0.121
-715.748	-200.000	0.000	0.030
-714.733	-160.637	-0.188	0.010
-713.718	217.668	0.109	-0.177
-712.704	-71.262	0.194	-0.074
-711.689	-2.862	0.236	-0.168
-710.675	-4.147	0.153	-0.108
-709.660	-200.000	0.018	0.169
-708.645	-200.000	-0.007	0.069
-707.631	-93.018	0.210	-0.059
-706.616	-5.075	-0.113	0.079
-705.602	-200.000	-0.019	-0.106
-704.587	-200.000	0.032	0.169
-703.572	-130.138	-0.063	0.009
-702.558	432.749	0.059	0.131
-701.543	30.246	-0.182	0.158
-700.529	174.372	0.084	-0.123
-699.514	800.000	0.042	0.133
-698.499	273.642	0.034	0.062
-697.485	800.000	0.113	-0.365
-696.470	596.756	-0.175	-0.440
-695.456	337.913	-0.241	0.477
-694.441	-113.041	0.202	-0.041
-693.426	-108.013	-0.362	-0.080
-692.412	-200.000	-0.017	-0.169
-691.397	59.298	-0.376	-0.376
-690.383	-65.243	-0.125	-0.051
-689.368	78.044	-0.129	-0.139
-688.354	-45.582	0.287	-0.144
-687.339	-21.087	0.086	-0.053
-686.324	800.000	-0.063	-0.194
-685.310	126.384	-0.253	-0.325
-684.295	-75.527	-0.229	0.083
-683.281	238.714	0.143	-0.242
-682.266	800.000	-0.074	-0.260
-681.251	-135.117	0.066	-0.008
-680.237	121.792	-0.073	0.092
-679.222	2.413	0.068	0.050
-678.208	-38.975	-0.132	-0.071
-677.193	-200.000	-0.017	-0.226
-676.178	-39.238	0.118	-0.063
-675.164	126.034	0.062	-0.079
-674.149	461.573	-0.150	0.339
-673.135	-59.010	0.220	-0.097
-672.120	191.256	-0.083	-0.127
-671.105	123.550	0.190	-0.242
-670.091	-200.000	-0.019	-0.104
-669.076	-87.785	-0.372	-0.114
-668.062	-200.000	0.040	-0.208
-667.047	-6.551	-0.045	0.031
-666.032	-75.444	-0.169	-0.061
-665.018	435.611	-0.012	-0.027
-664.003	-105.124	-0.368	0.085
-662.989	325.984	-0.117	0.227
-661.974	60.502	-0.118	0.118
-660.959	-88.122	0.182	0.055
-659.945	1.445	0.240	-0.175
-658.930	288.764	-0.156	0.288
-657.916	154.743	0.279	0.389
-656.901	800.000	-0.094	0.344
-655.886	-51.429	-0.217	0.103
-654.872	-199.383	-0.269	0.001
-653.857	205.655	0.157	0.247
-652.843	-84.021	0.301	0.097
-651.828	103.992	-0.191	0.227
-650.814	-200.000	-0.088	0.493
-649.799	83.614	0.115	-0.128
-648.784	471.519	0.088	-0.200
-647.770	143.758	-0.162	-0.219
-646.755	-146.960	0.115	0.010
-645.741	-84.613	-0.162	-0.052
-644.726	16.159	-0.498	0.398
-643.711	800.000	-0.059	0.175
-642.697	-159.925	0.215	-0.012
-641.682	1.927	-0.193	-0.141
-640.668	35.117	0.069	0.062
-639.653	-135.501	-0.063	0.008
-638.638	80.315	-0.170	-0.185
-637.624	-2.925	0.219	0.155
-636.609	-141.707	-0.147	0.015
-635.595	287.220	0.057	-0.105
-634.580	-200.000	-0.002	0.043
-633.565	-112.660	-0.342	0.069
-632.551	487.818	-0.094	0.218
-631.536	800.000	-0.048	0.170
-630.522	335.123	0.054	0.105
-629.507	169.826	0.084	0.121
-628.492	11.971	0.219	-0.170
-627.478	-200.000	0.007	-0.148
-626.463	682.546	-0.057	-0.151
-625.449	-200.000	-0.028	0.143
-624.434	-105.494	-0.051	0.012
-623.419	-120.514	0.137	-0.024
-622.405	297.594	0.044	0.081
-621.390	-200.000	-0.005	-0.182
-620.376	-63.791	-0.213	-0.088
-619.361	-200.000	0.019	0.188
-618.346	-59.470	-0.360	-0.157
-617.332	14.667	0.154	-0.122
-616.317	17.015	-0.142	-0.114
-615.303	-99.016	-0.239	-0.061
-614.288	-18.415	0.148	-0.093
-613.273	800.000	0.021	0.090
-612.259	-200.000	0.004	-0.235
-611.244	25.555	-0.252	-0.212
-610.230	250.261	0.130	-0.223
-609.215	-132.752	-0.217	-0.028
-608.201	-139.098	-0.143	-0.016
-607.186	285.362	-0.157	-0.287
-606.171	-78.916	0.317	0.109
-605.157	223.512	-0.117	0.192
-604.142	-36.116	-0.083	-0.046
-603.128	-38.901	0.169	-0.090
-602.113	17.897	0.113	0.091
-601.098	-200.000	0.009	-0.433
-600.084	499.552	0.043	-0.100
-599.069	-116.551	-0.354	0.066
-598.055	389.361	0.116	0.244
-597.040	-200.000	0.074	-0.410
-596.025	-200.000	0.035	-0.300
-595.011	800.000	0.062	-0.272
-593.996	-86.580	0.094	0.029
-592.982	281.616	-0.087	0.158
-591.967	26.302	0.146	0.124
-590.952	147.968	0.079	0.108
-589.938	106.556	-0.063	-0.076
-588.923	-200.000	-0.015	-0.074
-587.909	315.403	-0.122	0.232
-586.894	120.817	0.196	0.247
-585.879	-200.000	-0.007	-0.369
-584.865	6.668	-0.131	0.099
-583.850	176.838	-0.198	-0.292
-582.836	-200.000	-0.023	-0.143
-581.821	-95.279	-0.282	-0.077
-580.806	800.000	0.086	-0.278
-579.792	-137.694	0.032	0.004
-578.777	-200.000	-0.027	0.126
-577.763	-200.000	-0.022	0.165
-576.748	-55.904	-0.176	-0.079
-575.733	-46.921	0.282	-0.139
-574.719	-47.399	-0.086	-0.043
-573.704	-143.564	0.061	-0.006
-572.690	-200.000	-0.000	0.001
-571.675	-24.484	-0.204	-0.123
-570.661	98.768	0.220	0.257
-569.646	10.642	-0.171	0.132
-568.631	-131.943	0.202	0.027
-567.617	435.331	0.049	0.107
-566.602	-22.639	0.237	0.145
-565.588	9.398	0.264	-0.202
-564.573	8.482	0.158	0.120
-563.558	-200.000	-0.065	-0.352
-562.544	12.909	-0.183	-0.143
-561.529	159.749	-0.149	0.210
-560.515	362.849	0.094	0.192
-559.500	-99.941	-0.086	0.022
-558.485	-200.000	-0.009	-0.082
-557.471	-92.912	-0.124	0.035
-556.456	-72.605	0.085	0.032
-555.442	228.500	0.150	-0.246
-554.427	800.000	-0.139	0.416
-553.412	-200.000	0.014	-0.103
-552.398	-200.000	-0.015	-0.178
-551.383	-163.578	-0.141	-0.007
-550.369	-41.111	-0.257	-0.134
-549.354	-200.000	0.037	-0.449
-548.339	42.223	-0.148	-0.136
-547.325	-71.809	-0.204	-0.077
-546.310	109.881	-0.041	0.050
-545.296	-100.912	-0.153	0.038
-544.281	-200.000	-0.023	-0.162
-543.266	-148.444	0.197	0.016
-542.252	-124.069	0.510	-0.081
-541.237	-9.915	0.139	-0.094
-540.223	-200.000	-0.016	-0.172
-539.208	-200.000	-0.039	0.348
-538.193	-103.390	-0.095	0.023
-537.179	38.314	-0.192	0.173
-536.164	4.972	0.177	-0.131
-535.150	-145.597	0.323	0.029
-534.135	800.000	0.043	0.185
-533.121	25.744	0.120	0.101
-532.106	-154.629	0.463	-0.031
-531.091	-46.553	0.174	0.086
-530.077	134.777	-0.073	-0.096
-529.062	22.958	0.108	0.089
-528.048	-9.506	-0.161	0.109
-527.033	-47.999	-0.177	-0.086
-526.018	-6.615	0.039	-0.027
-525.004	488.386	-0.121	0.280
-523.989	152.968	-0.019	0.026
-522.975	-36.535	-0.240	0.130
-521.960	-103.261	-0.136	0.032
-520.945	233.431	0.130	-0.216
-519.931	-200.000	-0.000	-0.065
-518.916	-83.525	0.236	-0.076
-517.902	-12.879	0.500	-0.329
-516.887	316.167	0.125	-0.238
-515.872	-139.947	-0.421	-0.045
-514.858	800.000	0.039	-0.134
-513.843	-40.812	-0.207	0.108
-512.829	3.153	0.154	-0.113
-511.814	52.427	0.142	-0.137
-510.799	387.599	0.019	0.040
-509.785	-66.812	0.278	-0.111
-508.770	-200.000	-0.020	-0.141
-507.756	-30.479	-0.063	0.036
-506.741	49.612	0.199	0.189
-505.726	423.214	-0.164	0.355
-504.712	-12.264	0.150	0.099
-503.697	-40.297	-0.203	0.107
-502.683	171.239	-0.075	0.108
-501.668	241.164	-0.031	-0.052
-500.653	-179.527	0.413	-0.009
-499.639	800.000	0.029	-0.129
-498.624	800.000	-0.067	-0.293
-497.610	124.789	-0.092	0.117
-496.595	-169.495	-0.244	0.009
-495.581	-200.000	0.032	-0.334
-494.566	-55.930	-0.138	-0.062
-493.551	83.797	-0.129	0.142
-492.537	12.474	0.437	0.340
-491.522	0.745	-0.252	0.182
-490.508	111.482	-0.104	0.127
-489.493	-18.304	0.193	0.121
-488.478	-67.795	-0.063	-0.025
-487.464	80.411	0.190	0.207
-486.449	-192.516	-0.263	0.002
-485.435	7.984	0.099	-0.075
-484.420	-200.000	0.000	0.179
-483.405	75.137	-0.059	0.063
-482.391	46.089	-0.302	0.282
-481.376	111.520	-0.201	-0.245
-480.362	-100.899	-0.119	-0.030
-479.347	-149.838	-0.249	0.020
-478.332	-4.418	0.123	0.086
-477.318	-200.000	-0.009	0.073
-476.303	-200.000	-0.092	0.449
-475.289	535.015	0.128	0.306
-474.274	-29.036	0.312	-0.180
-473.259	-200.000	0.025	-0.253
-472.245	-183.520	-0.244	0.004
-471.230	-91.360	-0.396	-0.114
-470.216	7.841	-0.225	0.170
-469.201	-57.141	0.059	-0.026
-468.186	139.934	0.223	0.297
-467.172	223.114	0.195	-0.316
-466.157	-200.000	-0.017	-0.082
-465.143	-101.627	0.274	-0.067
-464.128	-96.759	-0.381	0.101
-463.113	-200.000	0.033	-0.256
-462.099	-200.000	0.095	0.574
-461.084	74.307	0.333	0.352
-460.070	-32.019	0.313	-0.176
-459.055	113.008	0.244	-0.298
-458.040	-185.222	-0.443	0.007
-457.026	747.869	-0.010	0.026
-456.011	110.263	0.223	-0.270
-454.997	-134.129	0.332	-0.041
-453.982	562.553	0.016	0.039
-452.968	800.000	0.121	-0.383
-451.953	-200.000	-0.019	0.088
-450.938	-42.643	-0.228	-0.117
-449.924	94.005	-0.299	0.341
-448.909	47.221	0.288	-0.270
-447.895	-39.742	-0.156	-0.082
-446.880	-164.731	-0.306	0.014
-445.865	-108.366	0.423	0.092
-444.851	124.065	0.205	0.259
-443.836	-200.000	-0.008	0.088
-442.822	-200.000	0.000	-0.021
-441.807	784.934	-0.059	0.162
-440.792	62.953	-0.084	-0.085
-439.778	800.000	0.029	0.085
-438.763	248.397	0.108	-0.184
-437.749	-114.453	-0.255	0.049
-436.734	-63.919	-0.173	0.071
-435.719	180.018	0.087	0.128
-434.705	800.000	-0.031	0.098
-433.690	-100.388	-0.237	-0.059
-432.676	-29.874	-0.253	-0.145
-431.661	-115.765	-0.232	0.044
-430.646	-115.899	0.134	0.025
-429.632	56.957	-0.131	-0.128
-428.617	800.000	-0.026	0.095
-427.603	665.691	-0.108	-0.281
-426.588	85.289	0.178	-0.197
-425.573	-126.440	-0.264	-0.040
-424.559	-200.000	-0.065	0.322
-423.544	-126.855	0.166	-0.025
-422.530	-164.429	-0.413	-0.019
-421.515	-68.536	-0.176	-0.068
-420.500	86.845	0.290	0.321
-419.486	92.190	-0.127	0.144
-418.471	-84.516	0.352	-0.112
-417.457	84.628	-0.104	-0.114
-416.442	-200.000	-0.003	-0.257
-415.428	173.234	0.061	0.089
-414.413	-128.190	0.133	0.019
-413.398	-50.377	0.139	0.066
-412.384	-21.163	0.302	-0.186
-411.369	800.000	0.042	0.119
-410.355	-12.070	0.039	-0.026
-409.340	45.422	-0.085	-0.079
-408.325	-151.119	-0.255	-0.019
-407.311	495.438	-0.146	-0.337
-406.296	-125.027	-0.269	-0.041
-405.282	3.484	-0.149	0.109
-404.267	68.712	-0.125	-0.129
-403.252	6.750	-0.131	0.098
-402.238	-200.000	0.037	-0.165
-401.223	-71.914	0.398	0.149
-400.209	-200.000	0.023	0.272
-399.194	326.569	-0.167	-0.322
-398.179	58.256	-0.184	0.181
-397.165	-21.597	0.106	0.065
-396.150	516.969	0.132	0.310
-395.136	-200.000	0.071	0.328
-394.121	-165.956	-0.236	0.010
-393.106	-93.942	-0.091	0.025
-392.092	610.432	-0.081	0.202
-391.077	800.000	0.084	-0.316
-390.063	465.035	0.093	0.210
-389.048	-85.732	-0.141	0.044
-388.033	32.301	-0.037	-0.032
-387.019	180.646	-0.152	0.224
-386.004	119.795	0.099	0.123
-384.990	-76.633	0.238	-0.084
-383.975	68.196	0.098	-0.100
-382.960	-200.000	-0.002	0.262
-381.946	-98.357	0.129	-0.033
-380.931	22.378	0.362	0.297
-379.917	57.540	-0.299	0.294
-378.902	207.852	-0.084	0.131
-377.888	-124.039	-0.235	-0.037
-376.873	590.580	-0.085	0.210
-375.858	-119.506	-0.128	-0.022
-374.844	33.497	0.269	-0.234
-373.829	58.295	0.125	-0.123
-372.815	-200.000	-0.042	0.193
-371.800	-150.259	-0.290	-0.022
-370.785	110.316	0.083	0.100
-369.771	-6.812	-0.154	0.105
-368.756	-87.726	0.433	-0.131
-367.742	-112.301	0.264	0.053
-366.727	146.793	-0.114	0.154
-365.712	198.532	0.161	-0.247
-364.698	117.806	-0.090	-0.111
-363.683	-112.209	-0.144	-0.029
-362.669	768.146	-0.057	-0.155
-361.654	184.079	0.084	-0.125
-360.639	72.193	-0.216	-0.225
-359.625	144.378	-0.123	-0.164
-358.610	-119.553	-0.039	-0.007
-357.596	-200.000	0.037	0.206
-356.581	-8.581	-0.208	-0.140
-355.566	-39.527	-0.127	0.067
-354.552	80.273	0.182	0.197
-353.537	-127.030	0.235	-0.035
-352.523	-182.100	-0.099	0.002
-351.508	-128.063	-0.333	-0.048
-350.493	800.000	-0.032	-0.137
-349.479	429.771	-0.035	0.077
-348.464	108.424	-0.113	-0.135
-347.450	-200.000	-0.002	-0.358
-346.435	-47.948	-0.041	-0.020
-345.420	-200.000	0.058	-0.305
-344.406	309.952	-0.152	-0.284
-343.391	-118.304	-0.327	0.058
-342.377	-200.000	0.052	-0.315
-341.362	-21.424	0.212	0.130
-340.348	138.114	-0.137	-0.180
-339.333	-200.000	-0.009	0.053
-338.318	102.643	0.167	0.196
-337.304	-56.376	0.150	0.067
-336.289	-164.274	-0.230	-0.011
-335.275	42.961	-0.185	-0.169
-334.260	-152.298	0.146	-0.011
-333.245	427.807	0.067	0.146
-332.231	-200.000	-0.052	0.256
-331.216	-200.000	-0.047	0.246
-330.202	-200.000	0.057	-0.478
-329.187	-200.000	-0.001	-0.041
-328.172	202.623	-0.109	-0.169
-327.158	268.820	-0.132	-0.232
-326.143	159.289	-0.238	0.332
-325.129	451.772	-0.041	0.091
-324.114	-200.000	-0.026	0.279
-323.099	-129.980	0.200	0.027
-322.085	-24.134	0.225	-0.135
-321.070	800.000	0.039	0.134
-320.056	29.852	0.188	0.160
-319.041	168.772	-0.168	-0.239
-318.026	-131.480	-0.198	0.026
-317.012	-140.782	0.234	-0.024
-315.997	-103.635	-0.124	-0.029
-314.983	12.655	-0.095	-0.074
-313.968	800.000	-0.050	-0.141
-312.953	800.000	0.018	0.058
-311.939	-75.560	-0.169	-0.060
-310.924	103.931	-0.206	-0.242
-309.910	-124.690	-0.170	-0.026
-308.895	117.119	-0.149	-0.183
-307.880	800.000	-0.044	-0.190
-306.866	-29.040	0.147	0.085
-305.851	-200.000	0.038	-0.366
-304.837	-200.000	-0.375	-0.000
-303.822	78.269	0.066	-0.071
-302.807	-67.054	-0.085	-0.033
-301.793	-85.489	-0.087	0.027
-300.778	800.000	-0.037	-0.123
-299.764	10.997	0.077	-0.059
-298.749	102.140	-0.046	-0.054
-297.735	-151.938	-0.338	-0.025
-296.720	85.229	0.206	-0.226
-295.705	-78.999	0.073	0.025
-294.691	741.477	-0.098	0.265
-293.676	319.896	-0.136	0.259
-292.662	800.000	0.055	-0.214
-291.647	57.487	-0.153	-0.150
-290.632	-12.050	-0.151	-0.099
-289.618	87.450	0.214	0.237
-288.603	78.165	-0.204	-0.217
-287.589	-73.563	0.135	0.049
-286.574	-200.000	-0.023	-0.150
-285.559	-189.710	-0.112	0.001
-284.545	161.482	0.198	0.278
-283.530	-95.638	0.248	0.066
-282.516	-73.138	0.292	-0.107
-281.501	108.804	-0.160	0.192
-280.486	-200.000	0.001	-0.129
-279.472	312.296	-0.102	0.191
-278.457	800.000	-0.073	0.254
-277.443	-64.925	0.220	-0.089
-276.428	-200.000	0.020	0.368
-275.413	-200.000	-0.002	0.091
-274.399	-174.514	0.210	0.006
-273.384	-98.516	0.406	-0.104
-272.370	-40.867	-0.066	0.034
-271.355	-23.812	0.182	-0.109
-270.340	-200.000	-0.047	0.296
-269.326	658.101	0.077	0.197
-268.311	-44.548	-0.223	-0.111
-267.297	-76.659	0.531	-0.186
-266.282	800.000	-0.075	-0.249
-265.267	800.000	0.056	-0.217
-264.253	-60.019	0.281	-0.120
-263.238	-139.220	0.168	0.018
-262.224	374.782	0.131	0.266
-261.209	-116.352	-0.135	0.025
-260.195	-18.845	0.197	0.123
-259.180	125.875	0.013	0.017
-258.165	-200.000	-0.023	0.271
-257.151	77.079	0.140	-0.148
-256.136	-46.691	-0.160	-0.078
-255.122	-14.373	0.125	-0.080
-254.107	-99.256	0.238	-0.060
-253.092	-82.337	0.166	-0.054
-252.078	291.970	0.214	0.389
-251.063	-81.348	0.057	-0.019
-250.049	46.085	0.171	0.158
-249.034	800.000	0.074	-0.233
-248.019	-105.394	0.076	-0.017
-247.005	800.000	0.054	0.160
-245.990	-123.735	0.207	0.033
-244.976	448.923	-0.112	0.247
-243.961	231.626	0.053	0.087
-242.946	-31.545	0.210	0.118
-241.932	126.860	-0.155	-0.196
-240.917	-48.258	-0.139	0.067
-239.903	10.536	0.234	-0.178
-238.888	-166.472	-0.187	0.008
-237.873	111.715	0.120	-0.144
-236.859	-200.000	-0.055	-0.349
-235.844	-46.009	0.042	0.021
-234.830	-5.484	0.279	-0.191
-233.815	286.599	0.091	0.165
-232.800	112.167	0.212	0.256
-231.786	-151.540	-0.095	0.007
-230.771	-22.918	0.298	-0.179
-229.757	-200.000	0.001	-0.057
-228.742	-173.275	-0.057	0.002
-227.727	80.263	0.103	0.111
-226.713	-185.199	-0.341	0.005
-225.698	-200.000	0.017	-0.124
-224.684	-97.182	0.376	-0.098
-223.669	-200.000	0.027	0.199
-222.655	-134.050	-0.412	-0.051
-221.640	24.738	0.242	-0.200
-220.625	39.068	-0.190	-0.170
-219.611	145.677	0.117	0.157
-218.596	-56.741	0.116	-0.051
-217.582	28.491	0.207	-0.175
-216.567	506.360	0.043	0.100
-215.552	-100.566	0.330	-0.081
-214.538	685.318	0.115	0.300
-213.523	673.462	0.076	-0.197
-212.509	-43.828	0.139	0.070
-211.494	-200.000	-0.019	-0.109
-210.479	-200.000	0.038	0.290
-209.465	-200.000	0.030	0.375
-208.450	-166.264	0.146	-0.006
-207.436	-84.920	-0.339	0.106
-206.421	-106.613	-0.283	0.063
-205.406	-200.000	-0.010	0.075
-204.392	800.000	-0.097	0.308
-203.377	-119.158	-0.076	0.013
-202.363	800.000	-0.029	0.093
-201.348	-200.000	0.021	-0.134
-200.333	800.000	-0.095	-0.415
-199.319	-23.947	-0.098	-0.059
-198.304	-86.055	0.356	-0.109
-197.290	180.211	-0.098	0.143
-196.275	-93.176	-0.063	-0.018
-195.260	523.176	-0.173	0.406
-194.246	-65.039	0.255	-0.103
-193.231	308.568	-0.071	-0.132
-192.217	-38.512	0.055	-0.029
-191.202	-24.840	-0.273	0.162
-190.187	-33.194	-0.057	0.032
-189.173	800.000	0.054	0.177
-188.158	20.831	0.220	-0.178
-187.144	-132.327	-0.227	-0.029
-186.129	213.970	-0.349	0.550
-185.114	-96.065	-0.522	-0.138
-184.100	30.088	0.076	0.065
-183.085	-143.908	-0.175	0.016
-182.071	-146.956	0.240	-0.021
-181.056	342.360	-0.135	0.262
-180.042	-70.260	0.406	-0.154
-179.027	-200.000	0.080	0.491
-178.012	-132.480	0.106	-0.014
-176.998	164.388	-0.119	-0.167
-175.983	-200.000	-0.050	0.240
-174.969	222.321	-0.037	0.059
-173.954	-104.609	-0.127	-0.029
-172.939	800.000	0.075	0.209
-171.925	-99.293	0.229	-0.058
-170.910	69.361	0.148	-0.152
-169.896	-112.912	-0.484	-0.095
-168.881	-162.445	0.131	0.006
-167.866	422.286	-0.193	-0.412
-166.852	-7.692	0.208	0.140
-165.837	-200.000	0.023	0.337
-164.823	-140.546	-0.272	0.028
-163.808	-200.000	-0.011	0.211
-162.793	-93.905	0.484	0.132
-161.779	76.130	-0.208	-0.219
-160.764	187.101	0.190	0.282
-159.750	74.000	-0.146	-0.153
-158.735	113.269	-0.295	0.356
-157.720	-200.000	0.023	0.223
-156.706	-101.446	0.410	0.099
-155.691	-18.696	0.127	0.079
-154.677	489.823	-0.056	0.127
-153.662	800.000	0.037	-0.161
-152.647	645.052	0.090	-0.227
-151.633	-30.794	0.230	-0.130
-150.618	-200.000	-0.032	0.200
-149.604	92.783	0.021	0.024
-148.589	46.192	-0.204	0.188
-147.574	72.587	0.153	-0.159
-146.560	35.640	-0.252	-0.220
-145.545	-200.000	0.021	-0.183
-144.531	800.000	-0.118	0.422
-143.516	44.441	0.117	0.107
-142.502	800.000	0.049	-0.168
-141.487	-62.173	-0.114	0.047
-140.472	800.000	-0.064	-0.233
-139.458	62.128	-0.189	-0.187
-138.443	148.221	0.033	-0.044
-137.429	800.000	-0.084	-0.325
-136.414	-180.811	-0.218	-0.004
-135.399	-200.000	-0.006	0.422
-134.385	0.217	-0.141	-0.100
-133.370	102.590	0.013	0.015
-132.356	-200.000	-0.012	-0.067
-131.341	-200.000	0.028	-0.161
-130.326	-139.265	-0.137	-0.015
-129.312	-145.898	-0.105	-0.009
-128.297	85.097	-0.119	-0.130
-127.283	-29.748	0.134	0.076
-126.268	-40.134	0.129	0.067
-125.253	23.067	-0.140	-0.114
-124.239	-200.000	0.006	-0.428
-123.224	-53.912	-0.092	0.042
-122.210	-84.957	-0.212	-0.066
-121.195	-68.812	0.051	-0.020
-120.180	-9.543	0.377	0.250
-119.166	800.000	-0.015	-0.041
-118.151	-114.389	0.158	-0.030
-117.137	-200.000	-0.019	-0.347
-116.122	-99.133	-0.194	0.049
-115.107	156.268	-0.196	0.269
-114.093	-21.494	-0.160	-0.097
-113.078	-162.424	0.195	0.010
-112.064	-32.190	0.351	-0.195
-111.049	75.908	0.080	0.084
-110.034	-61.017	-0.230	0.097
-109.020	-110.468	0.245	0.050
-108.005	800.000	-0.047	-0.196
-106.991	184.254	0.067	-0.098
-105.976	-103.955	0.250	-0.058
-104.962	43.035	-0.221	-0.200
-103.947	230.217	0.134	0.218
-102.932	571.836	0.072	0.174
-101.918	-97.496	0.103	-0.027
-100.903	-34.852	-0.132	-0.071
-99.889	18.477	-0.065	-0.051
-98.874	-200.000	0.015	-0.079
-97.859	-1.633	-0.219	-0.153
-96.845	-53.839	0.358	0.162
-95.830	-200.000	-0.003	0.031
-94.816	37.828	-0.081	0.071
-93.801	-122.698	0.176	-0.028
-92.786	209.153	0.050	-0.077
-91.772	800.000	-0.039	0.111
-90.757	124.904	-0.237	-0.296
-89.743	201.589	0.265	0.405
-88.728	-54.142	0.112	-0.051
-87.713	-200.000	0.043	-0.270
-86.699	-88.165	0.198	0.059
-85.684	51.002	0.395	-0.372
-84.670	-7.567	-0.158	0.106
-83.655	571.889	-0.089	-0.216
-82.640	-43.239	-0.201	-0.101
-81.626	-130.247	-0.074	0.010
-80.611	135.863	0.105	-0.136
-79.597	-134.805	0.289	0.035
-78.582	-90.570	0.306	-0.088
-77.567	21.460	0.120	0.097
-76.553	800.000	0.061	0.226
-75.538	-200.000	0.023	-0.194
-74.524	800.000	-0.072	0.257
-73.509	-77.313	0.108	0.037
-72.494	800.000	-0.088	0.317
-71.480	141.473	0.095	-0.124
-70.465	-160.523	0.037	-0.002
-69.451	800.000	0.069	0.222
-68.436	-63.130	0.127	0.052
-67.422	81.808	0.163	-0.174
-66.407	107.614	0.043	-0.051
-65.392	121.079	-0.173	-0.214
-64.378	-138.122	-0.119	0.013
-63.363	29.054	0.106	0.089
-62.349	-200.000	0.035	-0.160
-61.334	-21.633	-0.845	-0.510
-60.319	-200.000	0.077	0.671
-59.305	800.000	-0.314	-0.897
-58.290	246.064	0.727	1.214
-57.276	443.589	0.773	1.678
-56.261	-200.000	96.397	572.896
-55.246	645.475	1383.116	3498.599
-54.232	186.952	2598.774	3837.038
-53.217	121.972	2200.811	2721.225
-52.203	45.399	1735.821	1586.945
-51.188	37.997	1546.350	1362.245
-50.173	35.581	1518.261	1320.857
-49.159	54.230	1568.837	1495.659
-48.144	58.083	1588.103	1540.895
-47.130	38.327	1543.446	1361.765
-46.115	35.171	1527.543	1325.886
-45.100	34.945	1524.516	1321.641
-44.086	34.915	1522.927	1320.004
-43.071	34.866	1520.842	1317.810
-42.057	34.869	1519.090	1316.259
-41.042	34.800	1518.144	1314.913
-40.027	34.954	1515.988	1314.049
-39.013	34.869	1514.846	1312.423
-37.998	34.749	1513.952	1310.775
-36.984	34.805	1512.813	1310.119
-35.969	34.949	1511.103	1309.572
-34.954	34.747	1510.275	1307.422
-33.940	34.851	1508.328	1306.393
-32.925	34.877	1506.858	1305.250
-31.911	34.864	1505.940	1304.312
-30.896	35.026	1503.974	1303.663
-29.881	34.960	1503.144	1302.439
-28.867	35.032	1500.803	1300.853
-27.852	34.951	1499.965	1299.520
-26.838	34.928	1498.559	1298.095
-25.823	35.054	1496.515	1297.126
-24.809	34.927	1495.361	1295.218
-23.794	34.896	1493.946	1293.726
-22.779	34.909	1492.837	1292.805
-21.765	34.920	1491.960	1292.071
-20.750	34.926	1491.129	1291.335
-19.736	34.941	1489.917	1290.339
-18.721	34.895	1488.729	1288.949
-17.706	34.867	1487.428	1287.585
-16.692	34.778	1486.570	1286.190
-15.677	34.916	1485.263	1285.938
-14.663	34.937	1483.882	1284.827
-13.648	34.872	1483.360	1283.889
-12.633	34.930	1482.059	1283.103
-11.619	34.842	1481.766	1282.205
-10.604	34.787	1481.047	1281.163
-9.590	34.732	1480.167	1279.986
-8.575	34.714	1479.005	1278.809
-7.560	34.868	1478.359	1279.228
-6.546	34.856	1477.367	1278.239
-5.531	34.825	1476.628	1277.346
-4.517	34.902	1475.348	1276.703
-3.502	34.869	1474.807	1275.958
-2.487	34.868	1473.960	1275.171
-1.473	34.812	1472.498	1273.483
-0.458	34.873	1471.009	1272.551
0.556	36.802	1461.890	1262.488
1.571	33.848	1434.619	1219.889
2.586	29.838	1371.621	1141.530
3.600	27.526	1287.630	1058.126
4.615	25.123	1239.241	1004.820
5.629	21.126	1182.062	936.965
6.644	12.843	1097.640	828.504
7.659	6.253	1055.759	764.871
8.673	5.039	1050.191	754.893
9.688	4.833	1046.835	751.420
10.702	4.551	1045.173	748.806
11.717	4.908	1043.914	749.554
12.731	8.102	1047.043	767.123
13.746	16.121	1058.315	814.178
14.761	21.583	1064.784	845.537
15.775	21.865	1063.956	846.168
16.790	21.086	1062.063	840.834
17.804	20.017	1060.123	834.076
18.819	19.134	1058.328	828.344
19.834	18.782	1056.923	825.480
20.848	18.455	1056.314	823.362
21.863	18.356	1055.589	822.250
22.877	18.218	1054.756	820.862
23.892	18.101	1053.792	819.480
24.907	18.054	1052.904	818.494
25.921	18.010	1052.318	817.753
26.936	18.002	1051.683	817.148
27.950	18.034	1050.587	816.378
28.965	18.019	1049.561	815.436
29.980	18.063	1048.414	814.685
30.994	18.200	1047.378	814.461
32.009	18.352	1046.491	814.423
33.023	18.454	1045.847	814.334
34.038	18.349	1045.193	813.251
35.053	18.210	1044.169	811.724
36.067	18.148	1042.935	810.401
37.082	18.109	1042.193	809.564
38.096	18.148	1041.546	809.176
39.111	18.212	1040.770	808.802
40.126	18.419	1039.723	808.898
41.140	18.195	1038.611	806.902
42.155	18.115	1036.881	805.110
43.169	17.803	1036.200	803.041
44.184	17.716	1034.818	801.492
45.199	17.721	1034.172	800.944
46.213	17.717	1033.200	800.102
47.228	17.765	1032.212	799.492
48.242	18.025	1031.259	799.902
49.257	18.091	1030.649	799.665
50.271	18.210	1029.603	799.340
51.286	18.079	1028.462	797.770
52.301	18.224	1027.899	797.940
53.315	18.222	1027.135	797.265
54.330	18.060	1026.665	796.076
55.344	17.934	1025.428	794.460
56.359	17.990	1024.158	793.664
57.374	17.905	1023.310	792.547
58.388	17.920	1022.417	791.852
59.403	17.774	1021.751	790.590
60.417	17.640	1021.239	789.503
61.432	17.812	1019.858	789.163
62.447	17.674	1019.509	788.184
63.461	17.545	1018.837	786.996
64.476	17.656	1017.674	786.541
65.490	17.414	1017.050	784.874
66.505	17.568	1015.863	784.599
67.520	17.598	1014.611	783.699
68.534	17.561	1014.339	783.252
69.549	17.593	1013.354	782.565
70.563	17.567	1012.959	782.072
71.578	17.357	1012.389	780.602
72.593	17.421	1011.165	779.881
73.607	17.367	1010.219	778.835
74.622	17.322	1009.373	777.910
75.636	17.338	1008.862	777.518
76.651	17.332	1007.900	776.683
77.666	17.404	1006.785	776.083
78.680	17.423	1006.586	775.944
79.695	17.437	1005.953	775.452
80.709	17.466	1005.032	774.808
81.724	17.540	1004.502	774.664
82.739	17.715	1003.395	774.537
83.753	17.721	1002.727	773.984
84.768	17.991	1001.935	774.528
85.782	18.106	1001.579	774.706
86.797	18.308	1001.379	775.395
87.812	18.420	999.884	774.677
88.826	18.115	999.310	772.787
89.841	18.009	998.315	771.470
90.855	18.212	997.413	771.620
91.870	18.147	996.893	770.855
92.884	18.327	996.189	771.053
93.899	18.384	995.243	770.510
94.914	18.309	994.523	769.547
95.928	18.345	993.625	768.943
96.943	18.413	992.965	768.672
97.957	18.359	992.248	767.807
98.972	18.298	990.900	766.421
99.987	18.215	990.114	765.374
101.001	18.237	989.760	765.133
102.016	18.323	988.861	764.755
103.030	18.183	987.951	763.359
104.045	18.215	987.296	762.926
105.060	18.289	986.260	762.387
106.074	18.229	984.745	760.881
107.089	17.986	984.077	759.220
108.103	17.679	983.343	757.221
109.118	17.664	982.290	756.278
110.133	17.597	981.158	755.041
111.147	17.667	980.013	754.404
112.162	17.487	979.755	753.344
113.176	17.663	978.962	753.443
114.191	17.725	977.915	752.846
115.206	17.835	977.462	752.915
116.220	17.840	976.484	752.118
117.235	17.683	975.226	750.392
118.249	17.719	975.076	750.366
119.264	17.799	973.632	749.541
120.279	17.647	972.977	748.306
121.293	17.529	972.276	747.181
122.308	17.464	971.266	746.052
123.322	17.497	970.673	745.678
124.337	17.530	969.295	744.695
125.352	17.442	968.479	743.619
126.366	17.425	967.317	742.589
127.381	17.407	966.176	741.569
128.395	17.345	965.262	740.528
129.410	17.581	964.114	740.612
130.424	17.474	963.793	739.834
131.439	17.598	962.502	739.313
132.454	17.669	961.466	738.760
133.468	17.829	961.465	739.388
134.483	17.738	960.925	738.515
135.497	17.742	960.214	737.921
136.512	17.710	959.726	737.339
137.527	17.748	958.803	736.728
138.541	17.796	958.042	736.288
139.556	17.895	957.137	735.956
140.570	17.800	956.362	734.882
141.585	17.956	956.007	735.216
142.600	18.058	955.448	735.160
143.614	18.148	954.585	734.818
144.629	18.182	953.967	734.426
145.643	18.280	953.599	734.496
146.658	18.289	952.265	733.442
147.673	18.175	951.253	732.112
148.687	17.968	950.420	730.517
149.702	17.815	949.804	729.328
150.716	17.705	949.130	728.277
151.731	17.858	947.657	727.731
152.746	17.853	946.817	727.004
153.760	17.912	946.268	726.768
154.775	17.777	945.561	725.585
155.789	18.037	944.578	725.871
156.804	18.161	943.944	725.845
157.819	17.973	943.254	724.453
158.833	18.007	942.811	724.192
159.848	18.175	942.182	724.357
160.862	18.274	941.717	724.358
161.877	18.305	940.702	723.640
162.892	17.980	939.760	721.479
163.906	17.810	938.664	719.857
164.921	17.788	937.549	718.847
165.935	17.880	936.578	718.428
166.950	17.954	935.637	717.953
167.964	18.053	934.763	717.632
168.979	17.933	934.023	716.498
169.994	17.876	933.419	715.735
171.008	17.837	931.822	714.284
172.023	17.978	930.967	714.151
173.037	18.133	930.405	714.305
174.052	18.210	930.016	714.264
175.067	18.268	928.972	713.644
176.081	18.034	928.154	711.975
177.096	17.866	927.136	710.433
178.110	17.891	926.408	709.917
179.125	17.796	925.952	709.111
180.140	18.051	924.877	709.282
181.154	17.915	924.523	708.384
182.169	18.065	924.020	708.559
183.183	18.172	923.365	708.438
184.198	18.278	922.954	708.498
185.213	18.262	922.086	707.700
186.227	18.291	921.463	707.281
187.242	18.200	921.279	706.701
188.256	18.345	920.209	706.417
189.271	18.493	919.762	706.619
190.286	18.483	919.272	706.139
191.300	18.338	918.323	704.751
192.315	17.993	916.765	702.076
193.329	17.727	916.225	700.508
194.344	17.730	915.809	700.139
195.359	17.828	915.562	700.289
196.373	18.076	914.776	700.644
197.388	18.150	913.935	700.240
198.402	18.291	913.933	700.755
199.417	18.310	913.455	700.405
200.432	18.512	913.208	700.980
201.446	18.678	912.831	701.308
202.461	18.730	912.409	701.133
203.475	18.830	911.834	701.036
204.490	18.838	911.078	700.426
205.504	18.582	909.982	698.478
206.519	18.396	909.377	697.198
207.534	18.468	908.797	696.981
208.548	18.387	908.152	696.098
209.563	18.406	907.374	695.514
210.577	18.512	906.495	695.210
211.592	18.604	905.730	694.934
212.607	18.530	905.822	694.645
213.621	18.705	905.577	695.105
214.636	18.733	904.525	694.349
215.650	18.700	904.060	693.799
216.665	18.795	903.215	693.472
217.680	18.553	903.422	692.590
218.694	18.797	902.873	693.093
219.709	18.995	901.931	693.107
220.723	18.733	901.737	691.842
221.738	18.788	900.726	691.224
222.753	18.641	900.061	690.061
223.767	18.645	899.799	689.819
224.782	18.939	898.124	689.652
225.796	18.906	897.768	689.186
226.811	18.905	897.506	688.917
227.826	18.937	896.302	688.061
228.840	18.874	895.461	687.102
229.855	18.875	894.838	686.569
230.869	18.881	894.304	686.123
231.884	18.539	893.836	684.338
232.899	18.701	892.889	684.196
233.913	18.587	892.487	683.374
234.928	18.595	891.350	682.475
235.942	18.559	890.686	681.763
236.957	18.518	889.900	680.937
237.972	18.494	889.425	680.419
238.986	18.603	888.563	680.131
240.001	18.503	888.394	679.545
241.015	18.590	887.573	679.202
242.030	18.596	886.843	678.607
243.045	18.742	886.414	678.798
244.059	18.746	885.812	678.289
245.074	18.821	885.273	678.113
246.088	18.855	884.244	677.401
247.103	18.928	884.187	677.585
248.117	19.007	883.468	677.286
249.132	19.147	882.836	677.289
250.147	19.272	882.958	677.815
251.161	19.300	882.521	677.530
252.176	19.457	881.777	677.515
253.190	19.512	881.450	677.420
254.205	19.672	880.323	677.122
255.220	19.734	879.985	677.044
256.234	19.722	878.980	676.164
257.249	19.617	878.268	675.145
258.263	19.746	878.207	675.543
259.278	19.624	877.387	674.378
260.293	19.437	877.229	673.467
261.307	19.564	876.831	673.597
262.322	19.695	875.914	673.343
263.336	19.726	875.349	672.971
264.351	19.746	875.038	672.749
265.366	19.851	873.842	672.179
266.380	19.849	873.464	671.819
267.395	19.836	872.636	671.073
268.409	19.752	872.009	670.206
269.424	19.691	871.199	669.289
270.439	19.676	870.572	668.690
271.453	19.659	869.565	667.790
272.468	19.577	869.136	667.086
273.482	19.477	868.342	666.030
274.497	19.606	867.405	665.749
275.512	19.475	867.347	665.141
276.526	19.495	866.316	664.369
277.541	19.509	865.845	664.002
278.555	19.570	865.730	664.089
279.570	19.680	865.067	663.946
280.585	19.820	864.786	664.211
281.599	19.862	864.151	663.824
282.614	19.823	863.275	662.944
283.628	19.716	862.655	661.997
284.643	19.648	862.033	661.202
285.657	19.667	861.770	661.015
286.672	19.629	861.255	660.415
287.687	19.664	860.635	660.017
288.701	19.782	859.892	659.837
289.716	19.734	859.494	659.291
290.730	19.745	859.094	658.970
291.745	19.850	858.327	658.722
292.760	19.863	857.750	658.271
293.774	19.808	857.155	657.546
294.789	19.901	856.841	657.599
295.803	20.084	855.734	657.388
296.818	19.821	855.380	656.060
297.833	19.854	854.632	655.552
298.847	19.840	853.901	654.880
299.862	19.768	853.042	653.891
300.876	19.928	852.443	653.979
301.891	19.875	851.905	653.309
302.906	20.080	851.418	653.650
303.920	20.151	851.310	653.779
304.935	20.228	850.587	653.455
305.949	20.337	849.792	653.196
306.964	20.251	849.575	652.648
307.979	20.196	848.355	651.448
308.993	20.202	847.844	651.020
310.008	20.160	847.401	650.462
311.022	20.275	846.956	650.496
312.037	20.244	846.467	649.948
313.052	20.059	846.073	648.893
314.066	20.013	845.036	647.870
315.081	20.029	844.335	647.335
316.095	20.059	843.611	646.834
317.110	19.956	843.550	646.345
318.125	19.982	842.799	645.810
319.139	19.860	842.495	645.064
320.154	19.734	842.013	644.169
321.168	19.876	841.566	644.300
322.183	19.958	841.156	644.231
323.197	20.058	840.638	644.152
324.212	20.092	839.814	643.587
325.227	20.203	839.125	643.415
326.241	19.984	839.045	642.486
327.256	20.020	838.116	641.849
328.270	19.964	837.693	641.263
329.285	20.026	837.027	640.924
330.300	20.097	835.849	640.230
331.314	19.902	835.774	639.394
332.329	20.007	835.401	639.439
333.343	20.047	834.885	639.137
334.358	20.196	834.304	639.183
335.373	20.314	833.620	639.039
336.387	20.361	832.966	638.653
337.402	20.343	832.667	638.302
338.416	20.307	832.702	638.137
339.431	20.376	832.078	637.856
340.446	20.793	831.176	638.640
341.460	20.692	830.979	638.062
342.475	20.732	830.380	637.691
343.489	20.672	829.789	636.961
344.504	20.858	829.245	637.168
345.519	20.839	828.679	636.606
346.533	21.047	828.201	636.943
347.548	20.973	827.486	636.065
348.562	20.840	826.837	635.029
349.577	20.519	826.615	633.629
350.592	20.553	825.644	632.953
351.606	20.484	825.144	632.263
352.621	20.342	824.588	631.266
353.635	20.340	824.416	631.069
354.650	20.492	824.157	631.370
355.665	20.584	823.725	631.318
356.679	20.558	823.306	630.843
357.694	20.655	822.814	630.763
358.708	20.656	822.023	630.104
359.723	20.778	821.480	630.076
360.738	20.676	820.981	629.266
361.752	20.622	820.421	628.587
362.767	20.732	820.202	628.762
363.781	20.866	819.993	629.028
364.796	20.893	819.485	628.679
365.810	21.158	818.779	629.039
366.825	21.240	818.741	629.248
367.840	21.053	819.154	628.838
368.854	21.076	817.798	627.823
369.869	21.077	817.249	627.351
370.883	21.009	816.778	626.688
371.898	20.933	816.276	625.974
372.913	21.091	815.512	625.900
373.927	21.159	815.111	625.780
374.942	21.063	814.740	625.097
375.956	21.059	813.513	624.086
376.971	21.175	813.213	624.213
377.986	21.204	812.974	624.079
379.000	21.393	812.348	624.220
380.015	21.328	811.969	623.642
381.029	21.347	811.333	623.166
382.044	21.363	810.570	622.580
383.059	21.234	809.937	621.580
384.073	21.327	809.470	621.498
385.088	21.234	808.982	620.739
386.102	21.181	808.387	620.040
387.117	21.114	807.599	619.142
388.132	21.076	807.164	618.617
389.146	21.008	806.828	618.064
390.161	21.076	806.450	617.961
391.175	21.160	806.236	618.041
392.190	21.337	805.872	618.332
393.205	21.299	805.603	617.937
394.219	20.996	805.308	616.583
395.234	21.079	804.393	616.123
396.248	21.055	803.634	615.404
397.263	20.901	802.805	614.172
398.278	20.971	802.544	614.161
399.292	20.929	802.146	613.656
400.307	20.952	801.557	613.230
401.321	20.996	801.277	613.116
402.336	20.953	801.426	613.026
403.350	21.045	801.045	613.003
404.365	21.151	800.095	612.596
405.380	21.180	800.056	612.612
406.394	21.341	799.564	612.746
407.409	21.476	799.174	612.867
408.423	21.581	798.822	612.910
409.438	21.549	798.158	612.233
410.453	21.538	797.833	611.891
411.467	21.820	797.176	612.318
412.482	21.925	796.825	612.362
413.496	21.764	796.816	611.739
414.511	21.790	796.194	611.298
415.526	21.934	795.879	611.504
416.540	21.824	795.773	610.983
417.555	21.828	794.918	610.289
418.569	21.873	794.186	609.829
419.584	21.814	793.830	609.296
420.599	21.847	793.302	608.951
421.613	158.679	1368.131	1789.431
422.628	137.493	1451.906	1789.534
