DTS Sentinel unit serial number:	SN413079Multiplexer serial number:	ORYXHardware model number:	OX4-SRSoftware version number:	ORYX F/W v4.00 Oryx Data Collector v3.7.2.0data status	okinstallation	princeton_trtdifferential loss correction	single-endedforward channel	channel 3reverse channel	N/Adate	2019/09/13time	14:12:35forward acquisition time	60.00reverse acquisition time	0.00gamma	496.2192k internal	0.2302k external	0.2302temperature offset calibration	1.0144default loss term (dB/km)	0.3790temperature slope calibration	1.0000multiplexer offset coefficient	1.0000multiplexer slope coefficient	1.0000fibre end	0.00T internal ref (°C)	35.25T ext. ref 1 (°C)	4.61T ext. ref 2 (°C)	30.43length (m)	temperature (°C)	Stokes	anti-Stokes-747.200	-200.000	-0.019	0.250
-746.185	-131.996	0.227	0.030
-745.171	599.474	-0.068	-0.172
-744.156	164.707	-0.120	-0.173
-743.142	-112.056	0.106	0.022
-742.127	-92.968	-0.247	0.070
-741.112	-35.889	0.108	0.060
-740.098	800.000	0.118	0.360
-739.083	-36.924	-0.161	-0.088
-738.069	-109.655	-0.069	-0.015
-737.054	83.637	-0.067	-0.074
-736.039	213.844	0.050	-0.080
-735.025	-108.192	-0.044	0.010
-734.010	-75.038	-0.288	-0.105
-732.996	4.678	-0.062	0.046
-731.981	266.073	-0.106	0.188
-730.966	81.787	0.303	-0.335
-729.952	-200.000	0.021	-0.105
-728.937	-98.486	-0.257	-0.067
-727.923	34.161	-0.132	0.117
-726.908	-41.594	-0.180	-0.094
-725.894	183.505	0.007	-0.010
-724.879	344.126	0.044	-0.088
-723.864	-200.000	-0.018	-0.221
-722.850	-200.000	-0.030	-0.211
-721.835	-96.301	-0.244	0.066
-720.821	124.850	-0.162	-0.208
-719.806	-25.776	0.225	-0.135
-718.791	-200.000	-0.034	0.181
-717.777	-200.000	-0.071	0.401
-716.762	3.628	-0.302	0.224
-715.748	-200.000	0.001	-0.020
-714.733	9.094	-0.042	-0.033
-713.718	103.409	-0.100	0.119
-712.704	800.000	-0.020	-0.074
-711.689	-67.663	-0.055	-0.022
-710.675	800.000	-0.006	0.025
-709.660	73.797	0.143	0.153
-708.645	-200.000	-0.051	-0.283
-707.631	23.490	-0.038	-0.032
-706.616	-27.293	-0.369	-0.219
-705.602	-144.404	0.331	-0.031
-704.587	-69.444	0.127	-0.050
-703.572	-34.402	0.172	-0.096
-702.558	-200.000	-0.021	-0.197
-701.543	-40.534	0.269	0.142
-700.529	-200.000	0.016	0.093
-699.514	800.000	0.033	0.119
-698.499	-200.000	0.005	-0.185
-697.485	-113.853	-0.122	0.024
-696.470	335.574	-0.028	0.055
-695.456	800.000	-0.073	-0.310
-694.441	-200.000	0.056	-0.282
-693.426	-173.536	-0.242	-0.007
-692.412	772.868	0.149	0.413
-691.397	-172.286	-0.142	0.005
-690.383	75.782	-0.129	-0.138
-689.368	800.000	0.096	0.328
-688.354	-155.590	0.209	0.014
-687.339	498.384	0.090	-0.211
-686.324	-200.000	-0.274	-0.000
-685.310	-44.124	0.167	-0.085
-684.295	-96.055	-0.295	0.080
-683.281	-67.745	-0.141	-0.056
-682.266	-15.425	0.280	-0.182
-681.251	-166.131	-0.152	0.007
-680.237	-78.198	-0.224	-0.078
-679.222	-200.000	-0.022	-0.174
-678.208	-114.915	0.123	0.024
-677.193	-88.060	-0.262	-0.080
-676.178	432.254	-0.066	-0.146
-675.164	-89.653	0.168	0.050
-674.149	-200.000	-0.006	-0.107
-673.135	-144.910	0.097	-0.009
-672.120	-20.821	-0.126	-0.079
-671.105	189.910	-0.135	-0.206
-670.091	189.047	-0.068	0.103
-669.076	172.098	-0.103	0.150
-668.062	-70.849	-0.110	0.042
-667.047	15.862	0.102	0.081
-666.032	800.000	-0.129	0.397
-665.018	-147.588	-0.260	0.022
-664.003	270.468	0.042	0.076
-662.989	-12.319	-0.202	-0.134
-661.974	-200.000	-0.003	-0.209
-660.959	372.289	-0.138	0.285
-659.945	800.000	-0.073	0.238
-658.930	-200.000	0.035	-0.339
-657.916	24.649	-0.217	-0.183
-656.901	52.628	-0.082	0.080
-655.886	219.762	0.168	-0.273
-654.872	162.468	-0.163	-0.232
-653.857	800.000	0.044	0.151
-652.843	674.502	-0.082	0.215
-651.828	109.768	-0.299	0.364
-650.814	99.710	0.081	0.095
-649.799	-93.179	-0.182	0.051
-648.784	-200.000	-0.041	0.453
-647.770	42.101	-0.215	-0.198
-646.755	-78.766	-0.245	0.085
-645.741	-35.074	-0.140	-0.078
-644.726	800.000	0.037	0.117
-643.711	36.328	0.143	-0.128
-642.697	760.153	0.118	-0.324
-641.682	-150.282	0.193	-0.015
-640.668	800.000	-0.093	0.262
-639.653	201.875	-0.039	-0.060
-638.638	800.000	0.069	0.243
-637.624	-10.530	0.176	0.118
-636.609	307.252	-0.086	-0.163
-635.595	-33.619	0.269	-0.151
-634.580	-60.903	-0.207	0.089
-633.565	210.525	-0.130	0.208
-632.551	-154.635	0.281	0.019
-631.536	125.604	-0.140	-0.179
-630.522	43.621	0.117	-0.108
-629.507	44.114	0.087	-0.081
-628.492	66.399	-0.040	-0.041
-627.478	-10.767	-0.220	0.147
-626.463	147.995	0.070	-0.095
-625.449	-6.013	-0.031	-0.021
-624.434	97.667	-0.232	0.271
-623.419	475.625	0.091	0.208
-622.405	-115.731	-0.279	-0.053
-621.390	-104.695	-0.090	0.021
-620.376	-12.516	-0.449	0.297
-619.361	800.000	0.051	-0.146
-618.346	28.010	0.399	-0.342
-617.332	-200.000	0.027	-0.317
-616.317	-88.097	-0.214	0.065
-615.303	-33.788	0.128	-0.072
-614.288	27.190	-0.354	0.301
-613.273	-74.491	-0.238	-0.087
-612.259	354.843	0.244	-0.493
-611.244	-162.002	0.119	-0.006
-610.230	-42.599	0.241	0.124
-609.215	800.000	-0.083	0.285
-608.201	-49.873	-0.061	0.029
-607.186	-200.000	0.041	0.249
-606.171	-106.220	0.111	0.025
-605.157	8.734	-0.242	0.185
-604.142	206.493	-0.120	0.189
-603.128	205.378	0.034	-0.054
-602.113	-26.394	-0.425	-0.253
-601.098	128.263	-0.185	0.238
-600.084	248.362	0.138	0.237
-599.069	800.000	-0.046	0.148
-598.055	-99.853	-0.172	0.044
-597.040	-200.000	0.047	0.241
-596.025	-18.468	0.149	0.094
-595.011	-66.819	0.120	-0.048
-593.996	-164.227	-0.150	0.007
-592.982	-2.533	-0.247	0.175
-591.967	-0.911	0.245	-0.176
-590.952	3.170	0.325	-0.240
-589.938	-123.682	0.236	-0.038
-588.923	-42.177	-0.195	-0.101
-587.909	-12.356	0.182	-0.120
-586.894	256.954	0.251	0.437
-585.879	-200.000	-0.031	-0.201
-584.865	-200.000	-0.051	0.325
-583.850	-193.693	-0.291	-0.003
-582.836	76.739	0.080	-0.086
-581.821	366.647	0.211	-0.431
-580.806	-200.000	0.044	0.221
-579.792	-124.230	-0.226	-0.036
-578.777	800.000	-0.066	-0.202
-577.763	144.960	-0.147	0.198
-576.748	-72.858	0.145	-0.054
-575.733	299.317	0.069	-0.128
-574.719	-62.717	-0.504	-0.212
-573.704	185.857	-0.065	-0.098
-572.690	-100.835	0.223	0.056
-571.675	-60.197	-0.286	0.123
-570.661	250.823	-0.106	0.182
-569.646	-110.194	0.408	0.086
-568.631	-200.000	0.018	0.188
-567.617	-200.000	0.027	-0.167
-566.602	4.264	0.132	-0.098
-565.588	-22.439	-0.325	-0.199
-564.573	270.322	0.198	-0.352
-563.558	-200.000	0.026	-0.283
-562.544	-20.123	0.140	-0.087
-561.529	58.886	-0.103	-0.102
-560.515	617.312	-0.069	-0.174
-559.500	415.138	-0.088	-0.190
-558.485	309.746	-0.068	-0.128
-557.471	-108.258	-0.172	0.038
-556.456	-200.000	0.017	-0.143
-555.442	-6.287	0.108	-0.075
-554.427	-2.246	-0.197	-0.140
-553.412	-145.780	-0.123	-0.011
-552.398	-200.000	-0.001	-0.492
-551.383	469.911	-0.040	-0.091
-550.369	-44.789	0.267	0.135
-549.354	800.000	-0.056	0.212
-548.339	800.000	0.014	0.062
-547.325	-200.000	-0.016	0.106
-546.310	-74.903	-0.417	0.151
-545.296	110.859	0.094	0.115
-544.281	-151.164	-0.057	0.004
-543.266	-200.000	0.034	-0.247
-542.252	131.484	-0.076	-0.098
-541.237	-57.967	0.122	0.054
-540.223	9.243	-0.452	0.345
-539.208	-152.670	0.158	-0.011
-538.193	52.645	-0.091	0.088
-537.179	-98.398	0.130	-0.034
-536.164	80.944	0.218	0.238
-535.150	148.197	-0.149	-0.203
-534.135	-128.746	-0.287	-0.041
-533.121	106.066	-0.203	-0.243
-532.106	154.930	0.135	0.187
-531.091	-200.000	-0.029	0.378
-530.077	239.191	0.049	-0.083
-529.062	27.868	0.052	-0.044
-528.048	-10.080	0.209	-0.140
-527.033	-200.000	0.011	0.000
-526.018	-200.000	0.007	0.167
-525.004	-114.461	0.252	-0.049
-523.989	-183.513	0.179	0.003
-522.975	-200.000	-0.012	-0.085
-521.960	47.557	0.136	-0.128
-520.945	228.376	0.138	-0.227
-519.931	-45.135	0.073	0.037
-518.916	-53.727	0.312	0.144
-517.902	-73.592	0.194	-0.072
-516.887	-10.107	0.067	-0.045
-515.872	800.000	-0.064	-0.237
-514.858	-61.466	-0.180	-0.076
-513.843	125.655	-0.123	0.157
-512.829	-80.416	0.037	0.012
-511.814	4.968	-0.131	-0.097
-510.799	-114.748	-0.461	-0.089
-509.785	-132.849	-0.189	-0.024
-508.770	-150.110	-0.325	-0.026
-507.756	-200.000	-0.015	0.169
-506.741	205.311	-0.196	-0.307
-505.726	800.000	0.007	-0.020
-504.712	71.196	0.292	0.306
-503.697	-146.088	-0.413	0.037
-502.683	248.088	0.023	0.040
-501.668	-153.005	-0.154	0.011
-500.653	-115.891	-0.209	0.039
-499.639	-200.000	0.029	0.183
-498.624	-115.890	0.150	0.028
-497.610	134.473	0.210	-0.275
-496.595	-140.165	0.253	-0.027
-495.581	800.000	-0.052	0.218
-494.566	356.790	0.156	-0.314
-493.551	-130.875	0.032	0.004
-492.537	-55.837	0.155	0.070
-491.522	-110.615	-0.210	0.044
-490.508	-53.989	-0.180	0.083
-489.493	-200.000	-0.042	0.194
-488.478	-32.695	0.021	0.012
-487.464	-200.000	-0.015	-0.119
-486.449	-200.000	0.014	-0.077
-485.435	11.564	0.130	-0.101
-484.420	215.407	0.072	0.115
-483.405	495.516	0.127	0.295
-482.391	-200.000	-0.051	-0.260
-481.376	-80.451	0.231	-0.078
-480.362	-44.832	0.112	-0.056
-479.347	174.971	-0.180	-0.263
-478.332	-45.752	-0.212	0.106
-477.318	159.411	0.145	-0.203
-476.303	-200.000	-0.028	-0.221
-475.289	-70.049	-0.250	0.096
-474.274	317.418	-0.043	-0.083
-473.259	-85.851	-0.111	0.035
-472.245	-200.000	-0.039	-0.387
-471.230	324.968	-0.053	-0.103
-470.216	-95.647	0.230	-0.062
-469.201	-200.000	-0.026	0.204
-468.186	-200.000	0.047	-0.335
-467.172	-200.000	-0.016	0.263
-466.157	53.513	-0.201	-0.194
-465.143	-200.000	0.024	-0.360
-464.128	-90.060	0.292	-0.086
-463.113	3.912	-0.206	0.151
-462.099	800.000	0.020	0.056
-461.084	-200.000	0.034	0.218
-460.070	800.000	0.070	0.214
-459.055	47.307	0.085	-0.079
-458.040	228.549	0.069	0.113
-457.026	12.773	0.049	0.038
-456.011	800.000	0.093	0.265
-454.997	-127.013	0.362	-0.054
-453.982	-135.575	0.047	-0.006
-452.968	48.465	0.137	0.129
-451.953	464.206	0.022	0.051
-450.938	-200.000	0.004	-0.099
-449.924	-200.000	-0.004	0.017
-448.909	-195.813	0.145	0.001
-447.895	329.199	0.170	0.330
-446.880	73.191	0.145	-0.153
-445.865	-162.851	0.326	-0.016
-444.851	-54.483	0.164	0.075
-443.836	-102.508	0.126	-0.030
-442.822	-200.000	-0.009	0.375
-441.807	42.603	-0.129	-0.119
-440.792	146.172	-0.103	-0.139
-439.778	-59.638	0.041	0.018
-438.763	-23.701	-0.157	0.095
-437.749	-41.384	0.135	0.070
-436.734	75.371	-0.211	-0.224
-435.719	18.703	-0.161	0.130
-434.705	249.367	0.054	-0.091
-433.690	-70.708	-0.101	-0.039
-432.676	-200.000	0.051	-0.421
-431.661	-200.000	-0.030	0.222
-430.646	656.486	0.014	0.037
-429.632	-200.000	-0.036	0.235
-428.617	314.943	-0.107	0.202
-427.603	-109.725	-0.268	0.057
-426.588	-40.295	-0.031	-0.016
-425.573	80.815	0.077	-0.084
-424.559	-45.430	0.199	0.099
-423.544	-53.886	0.177	-0.081
-422.530	-159.995	-0.227	-0.012
-421.515	-37.080	-0.252	-0.136
-420.500	47.359	-0.269	-0.252
-419.486	800.000	-0.042	0.137
-418.471	-59.894	-0.140	-0.060
-417.457	-182.040	-0.102	0.002
-416.442	98.252	-0.216	-0.250
-415.428	-51.433	0.091	-0.043
-414.413	136.924	-0.280	0.368
-413.398	-4.595	-0.264	0.183
-412.384	-101.182	0.157	0.039
-411.369	-103.292	-0.289	0.069
-410.355	-37.336	-0.230	-0.123
-409.340	-63.578	-0.127	0.053
-408.325	-200.000	-0.071	0.338
-407.311	-35.323	-0.233	0.127
-406.296	-200.000	0.008	0.270
-405.282	-29.168	0.194	-0.112
-404.267	-200.000	0.001	0.270
-403.252	723.034	0.067	0.180
-402.238	64.923	-0.270	-0.274
-401.223	-200.000	0.087	0.404
-400.209	243.410	0.164	0.277
-399.194	279.844	0.083	-0.149
-398.179	-86.190	0.085	-0.026
-397.165	81.811	0.187	-0.203
-396.150	-38.709	0.321	-0.170
-395.136	-67.545	0.048	-0.019
-394.121	-200.000	-0.020	-0.268
-393.106	26.169	0.139	0.116
-392.092	-200.000	-0.021	0.223
-391.077	84.908	0.192	-0.212
-390.063	165.371	0.037	-0.053
-389.048	-40.544	-0.208	0.109
-388.033	112.779	0.148	-0.180
-387.019	-181.161	0.134	0.003
-386.004	-65.885	0.090	0.036
-384.990	216.689	0.077	0.123
-383.975	-60.150	-0.243	-0.104
-382.960	-200.000	-0.021	-0.464
-381.946	8.421	-0.150	0.113
-380.931	-139.095	-0.097	-0.011
-379.917	-130.742	0.218	0.029
-378.902	39.367	-0.329	0.296
-377.888	800.000	-0.079	-0.285
-376.873	-200.000	0.024	-0.185
-375.858	-127.663	-0.200	0.029
-374.844	-50.440	0.071	-0.034
-373.829	80.954	0.266	0.288
-372.815	-61.663	-0.383	-0.161
-371.800	-6.592	0.411	-0.281
-370.785	-154.056	0.052	-0.004
-369.771	-200.000	-0.043	0.286
-368.756	291.455	0.162	-0.296
-367.742	448.525	-0.072	-0.159
-366.727	70.495	0.079	-0.082
-365.712	91.078	-0.249	0.280
-364.698	800.000	-0.036	0.118
-363.683	-151.946	-0.164	0.012
-362.669	-200.000	-0.005	0.163
-361.654	-200.000	0.021	0.324
-360.639	147.604	0.014	0.019
-359.625	469.540	0.020	-0.045
-358.610	283.944	0.057	0.103
-357.596	-7.626	0.078	-0.053
-356.581	33.003	-0.192	0.167
-355.566	800.000	-0.109	-0.346
-354.552	-30.638	0.098	-0.056
-353.537	28.360	0.195	0.166
-352.523	-200.000	-0.006	0.185
-351.508	-200.000	0.003	-0.022
-350.493	-31.658	-0.248	0.140
-349.479	-69.799	-0.180	-0.069
-348.464	-200.000	0.023	0.188
-347.450	238.492	-0.082	-0.136
-346.435	-145.016	0.185	0.017
-345.420	50.816	0.352	-0.335
-344.406	800.000	0.050	-0.158
-343.391	-125.687	-0.431	0.065
-342.377	50.138	0.046	0.043
-341.362	-109.049	0.192	0.041
-340.348	-65.812	0.244	-0.098
-339.333	-200.000	-0.014	-0.077
-338.318	-97.376	-0.298	0.078
-337.304	543.893	-0.075	-0.179
-336.289	-174.144	0.182	-0.005
-335.275	-68.616	-0.042	-0.016
-334.260	119.241	0.270	-0.335
-333.245	-200.000	-0.005	0.146
-332.231	-62.918	0.066	-0.027
-331.216	14.827	0.354	-0.277
-330.202	-79.259	-0.273	-0.093
-329.187	-97.449	-0.341	0.089
-328.172	-200.000	0.346	-0.001
-327.158	331.010	0.059	0.113
-326.143	-83.049	0.424	0.137
-325.129	135.005	0.055	0.072
-324.114	105.190	0.064	0.076
-323.099	-129.041	0.235	0.033
-322.085	-162.455	0.117	0.006
-321.070	-105.874	0.337	0.076
-320.056	-142.541	0.190	0.019
-319.041	-58.070	-0.210	-0.092
-318.026	-200.000	-0.044	-0.346
-317.012	-90.880	0.130	0.038
-315.997	329.285	-0.132	-0.255
-314.983	-83.078	-0.089	-0.029
-313.968	800.000	-0.046	0.156
-312.953	-200.000	0.000	0.201
-311.939	29.756	-0.084	0.072
-310.924	199.318	-0.127	-0.196
-309.910	-132.466	0.514	0.066
-308.895	-58.652	0.216	-0.094
-307.880	-49.759	-0.104	0.049
-306.866	69.139	-0.074	0.076
-305.851	51.494	0.297	0.283
-304.837	-84.860	0.246	0.077
-303.822	14.504	-0.169	0.132
-302.807	5.037	0.208	-0.153
-301.793	-200.000	0.013	-0.269
-300.778	147.615	-0.045	0.061
-299.764	-200.000	0.011	-0.076
-298.749	426.212	0.043	0.093
-297.735	-122.964	-0.145	0.023
-296.720	-200.000	0.014	-0.292
-295.705	-75.844	0.528	-0.187
-294.691	-153.132	0.082	0.006
-293.676	-125.517	-0.412	0.063
-292.662	261.554	0.041	0.070
-291.647	208.236	0.118	0.184
-290.632	-200.000	-0.012	0.141
-289.618	800.000	-0.086	0.246
-288.603	-155.302	-0.164	0.011
-287.589	42.627	-0.135	0.123
-286.574	-70.797	-0.234	-0.088
-285.559	-117.023	-0.213	-0.039
-284.545	800.000	0.044	0.164
-283.530	-109.410	0.317	0.067
-282.516	-51.280	0.138	0.065
-281.501	423.222	-0.180	0.388
-280.486	-124.366	-0.180	-0.028
-279.472	-162.707	-0.293	-0.014
-278.457	-86.003	0.253	0.078
-277.443	49.701	0.105	-0.099
-276.428	800.000	-0.072	0.218
-275.413	1.913	0.235	-0.170
-274.399	208.704	-0.047	-0.074
-273.384	-74.760	0.171	-0.062
-272.370	79.741	0.022	0.024
-271.355	75.375	0.156	-0.165
-270.340	157.746	0.195	0.270
-269.326	800.000	-0.104	0.428
-268.311	74.181	0.109	-0.115
-267.297	30.547	-0.094	-0.080
-266.282	106.939	0.247	-0.294
-265.267	691.597	0.023	-0.061
-264.253	337.351	-0.048	0.093
-263.238	800.000	-0.105	0.332
-262.224	-158.736	-0.199	-0.011
-261.209	-118.946	0.175	0.031
-260.195	800.000	0.035	-0.097
-259.180	-13.239	0.191	-0.124
-258.165	-76.011	0.331	0.117
-257.151	217.558	0.033	-0.052
-256.136	761.361	0.023	0.062
-255.122	-200.000	0.022	0.153
-254.107	-7.722	-0.151	0.102
-253.092	800.000	0.024	0.098
-252.078	168.049	0.172	0.244
-251.063	-200.000	0.004	0.292
-250.049	-32.579	-0.099	-0.055
-249.034	-200.000	0.019	-0.181
-248.019	-200.000	0.006	-0.051
-247.005	167.606	-0.059	-0.083
-245.990	-87.772	0.268	-0.081
-244.976	-146.412	-0.289	0.025
-243.961	-200.000	-0.013	-0.215
-242.946	-39.198	0.186	0.098
-241.932	-59.162	-0.214	0.092
-240.917	-47.115	-0.140	-0.068
-239.903	800.000	-0.074	-0.216
-238.888	43.295	0.277	-0.253
-237.873	169.452	-0.099	0.142
-236.859	390.566	0.045	0.094
-235.844	-57.842	-0.080	0.035
-234.830	170.427	-0.043	0.061
-233.815	-54.813	-0.200	-0.090
-232.800	-37.558	0.059	0.031
-231.786	68.470	-0.277	-0.284
-230.771	169.689	0.277	-0.395
-229.757	-51.118	0.217	0.102
-228.742	-32.492	-0.336	0.187
-227.727	190.524	-0.168	-0.252
-226.713	-23.143	-0.304	-0.183
-225.698	15.050	0.126	-0.099
-224.684	463.348	0.169	-0.376
-223.669	68.980	0.052	0.054
-222.655	-172.326	-0.061	0.002
-221.640	162.421	0.109	0.153
-220.625	-145.641	-0.298	0.027
-219.611	16.811	0.152	0.120
-218.596	-200.000	-0.007	0.237
-217.582	250.209	-0.029	0.050
-216.567	-200.000	0.012	0.138
-215.552	283.790	0.185	0.332
-214.538	-19.318	-0.079	-0.049
-213.523	-50.894	0.276	-0.129
-212.509	-200.000	-0.012	0.137
-211.494	-51.939	0.446	0.207
-210.479	-23.898	0.063	-0.038
-209.465	105.326	-0.137	-0.161
-208.450	75.517	0.248	0.262
-207.436	-129.136	-0.300	0.042
-206.421	-12.671	0.298	-0.194
-205.406	704.114	-0.062	0.164
-204.392	309.229	-0.133	-0.248
-203.377	409.036	0.061	-0.129
-202.363	-200.000	0.030	0.169
-201.348	-26.952	-0.209	0.122
-200.333	-101.835	-0.288	0.070
-199.319	63.833	-0.111	-0.111
-198.304	98.412	0.078	0.090
-197.290	-48.427	-0.129	0.062
-196.275	-128.937	-0.231	0.032
-195.260	36.596	0.289	-0.255
-194.246	59.888	-0.429	0.422
-193.231	-200.000	-0.098	0.570
-192.217	-200.000	-0.011	-0.072
-191.202	-102.378	0.231	-0.055
-190.187	-30.073	-0.182	-0.103
-189.173	126.346	0.043	0.054
-188.158	-22.626	0.191	0.115
-187.144	-106.895	-0.022	0.005
-186.129	-37.049	-0.458	-0.244
-185.114	208.412	0.106	-0.165
-184.100	194.726	0.164	0.248
-183.085	66.698	0.176	-0.179
-182.071	199.965	0.110	0.168
-181.056	-97.491	-0.219	-0.057
-180.042	31.204	0.100	0.085
-179.027	-66.002	0.300	-0.120
-178.012	-95.459	-0.422	0.113
-176.998	800.000	0.097	0.275
-175.983	55.499	-0.124	0.120
-174.969	-200.000	0.085	-0.532
-173.954	-116.819	0.210	-0.038
-172.939	800.000	0.060	0.230
-171.925	28.455	0.063	0.053
-170.910	800.000	-0.150	0.466
-169.896	64.305	-0.059	-0.059
-168.881	248.423	-0.077	-0.130
-167.866	-200.000	-0.041	-0.356
-166.852	433.206	-0.062	-0.134
-165.837	-162.129	-0.362	-0.018
-164.823	-103.401	-0.133	0.031
-163.808	-98.761	0.529	0.134
-162.793	-200.000	-0.112	0.000
-161.779	-118.190	0.310	0.055
-160.764	335.205	0.083	-0.160
-159.750	49.509	-0.118	-0.111
-158.735	125.465	0.203	-0.256
-157.720	-70.050	0.107	-0.041
-156.706	-200.000	-0.014	-0.484
-155.691	-200.000	-0.014	-0.096
-154.677	-91.434	-0.293	-0.083
-153.662	-200.000	0.036	0.168
-152.647	-91.420	0.105	0.030
-151.633	-200.000	-0.031	-0.305
-150.618	-200.000	-0.034	-0.193
-149.604	-176.485	0.185	0.005
-148.589	-150.742	0.090	-0.007
-147.574	-126.655	0.144	0.021
-146.560	-30.700	0.254	-0.143
-145.545	-109.930	-0.224	-0.047
-144.531	174.871	-0.164	0.236
-143.516	-36.614	-0.192	-0.103
-142.502	-113.787	-0.434	0.084
-141.487	800.000	0.067	-0.190
-140.472	-131.639	0.314	-0.041
-139.458	134.231	0.172	-0.222
-138.443	91.148	-0.197	0.220
-137.429	-168.096	0.039	0.001
-136.414	-75.765	0.222	0.078
-135.399	-135.570	0.339	0.040
-134.385	-86.299	0.165	-0.050
-133.370	-200.000	0.007	0.103
-132.356	-6.650	0.190	-0.129
-131.341	213.421	0.261	-0.411
-130.326	-200.000	0.023	-0.156
-129.312	800.000	0.057	-0.194
-128.297	800.000	-0.072	-0.245
-127.283	-200.000	0.014	0.342
-126.268	800.000	-0.095	0.287
-125.253	-24.253	-0.075	-0.044
-124.239	-7.035	-0.177	0.120
-123.224	84.760	0.029	0.032
-122.210	15.154	0.198	0.155
-121.195	133.442	0.207	0.267
-120.180	28.525	-0.222	-0.186
-119.166	276.978	-0.170	0.300
-118.151	169.948	0.144	0.205
-117.137	211.743	0.268	0.419
-116.122	18.914	-0.164	0.131
-115.107	-200.000	0.016	0.104
-114.093	78.530	-0.223	-0.236
-113.078	258.016	-0.113	-0.194
-112.064	-200.000	-0.004	-0.264
-111.049	-200.000	-0.028	-0.246
-110.034	-165.172	0.260	0.011
-109.020	-101.911	-0.298	-0.072
-108.005	-200.000	-0.001	-0.043
-106.991	184.279	-0.054	0.080
-105.976	99.675	0.176	-0.203
-104.962	-31.115	0.101	0.057
-103.947	-200.000	0.004	-0.291
-102.932	-44.749	-0.098	0.049
-101.918	-120.303	-0.372	-0.063
-100.903	175.790	-0.098	-0.141
-99.889	38.312	0.042	0.038
-98.874	-54.192	-0.202	0.091
-97.859	704.388	-0.144	0.376
-96.845	-106.338	0.266	-0.059
-95.830	800.000	-0.127	-0.463
-94.816	55.893	-0.096	-0.093
-93.801	108.662	-0.207	0.246
-92.786	-146.405	0.188	0.016
-91.772	185.774	-0.126	0.186
-90.757	-35.044	0.117	0.064
-89.743	108.429	-0.113	-0.134
-88.728	-49.489	-0.247	-0.117
-87.713	-106.265	0.207	0.046
-86.699	21.918	0.226	0.183
-85.684	447.499	-0.081	0.178
-84.670	106.189	0.024	0.028
-83.655	8.972	-0.146	0.110
-82.640	-94.400	-0.186	-0.050
-81.626	277.996	-0.090	0.159
-80.611	-140.057	-0.220	-0.023
-79.597	59.033	-0.129	-0.126
-78.582	-87.916	0.220	0.066
-77.567	311.901	0.123	-0.229
-76.553	-200.000	0.028	-0.202
-75.538	800.000	-0.082	0.349
-74.524	6.557	0.113	0.084
-73.509	349.516	-0.151	-0.296
-72.494	104.930	0.040	0.046
-71.480	-4.336	0.261	0.179
-70.465	269.540	-0.060	-0.104
-69.451	27.443	0.248	-0.207
-68.436	-98.805	-0.223	-0.056
-67.422	-200.000	0.011	0.126
-66.407	-109.585	0.131	-0.027
-65.392	-81.060	-0.090	0.030
-64.378	-69.285	-0.378	0.144
-63.363	-200.000	-0.041	0.264
-62.349	-169.108	0.230	0.008
-61.334	131.264	-0.668	-0.851
-60.319	-163.054	0.356	-0.017
-59.305	-200.000	-0.304	-1.430
-58.290	800.000	0.208	0.759
-57.276	456.020	0.749	1.649
-56.261	-200.000	95.146	563.724
-55.246	632.814	1384.519	3479.906
-54.232	185.650	2602.886	3835.884
-53.217	121.515	2215.877	2739.101
-52.203	45.880	1747.818	1603.560
-51.188	38.299	1557.191	1375.531
-50.173	35.904	1529.670	1334.593
-49.159	53.904	1579.485	1505.312
-48.144	57.512	1598.887	1549.179
-47.130	38.668	1554.971	1375.948
-46.115	35.443	1538.905	1339.217
-45.100	35.385	1535.132	1335.480
-44.086	35.310	1533.796	1333.743
-43.071	35.264	1531.611	1331.469
-42.057	35.187	1530.125	1329.590
-41.042	35.189	1529.122	1328.676
-40.027	35.298	1526.747	1327.317
-39.013	35.286	1525.577	1326.164
-37.998	35.254	1524.427	1324.890
-36.984	35.288	1523.262	1324.062
-35.969	35.254	1521.834	1322.530
-34.954	35.198	1520.568	1320.994
-33.940	35.206	1519.143	1319.756
-32.925	35.284	1517.400	1318.725
-31.911	35.296	1516.576	1318.044
-30.896	35.222	1515.365	1316.431
-29.881	35.365	1513.263	1315.529
-28.867	35.325	1512.133	1314.224
-27.852	35.309	1510.731	1312.842
-26.838	35.276	1509.168	1311.208
-25.823	35.391	1507.408	1310.408
-24.809	35.307	1505.646	1308.255
-23.794	35.279	1504.669	1307.159
-22.779	35.221	1503.620	1305.806
-21.765	35.287	1502.585	1305.302
-20.750	35.375	1501.215	1304.656
-19.736	35.400	1499.748	1303.505
-18.721	35.298	1499.041	1302.146
-17.706	35.208	1498.081	1300.650
-16.692	35.169	1497.155	1299.524
-15.677	35.176	1496.168	1298.667
-14.663	35.232	1494.808	1297.813
-13.648	35.202	1493.966	1296.826
-12.633	35.219	1493.140	1296.171
-11.619	35.139	1492.277	1294.836
-10.604	35.184	1491.261	1294.203
-9.590	35.230	1490.157	1293.508
-8.575	35.232	1489.018	1292.480
-7.560	35.170	1488.770	1291.795
-6.546	35.214	1488.025	1291.389
-5.531	35.253	1486.720	1290.470
-4.517	35.162	1486.027	1289.204
-3.502	35.214	1484.778	1288.420
-2.487	35.220	1483.654	1287.435
-1.473	35.108	1483.204	1286.242
-0.458	35.170	1481.776	1285.368
0.556	37.269	1471.654	1274.110
1.571	33.822	1443.655	1227.526
2.586	29.559	1378.877	1145.955
3.600	27.176	1294.331	1061.693
4.615	24.945	1246.313	1009.655
5.629	21.085	1189.402	942.651
6.644	12.754	1102.988	832.172
7.659	5.934	1061.033	767.209
8.673	4.873	1055.153	757.730
9.688	4.589	1052.260	754.209
10.702	4.430	1050.184	751.880
11.717	4.559	1049.099	751.661
12.731	7.748	1052.855	769.747
13.746	16.171	1064.318	819.118
14.761	21.898	1071.181	852.233
15.775	22.099	1070.681	852.732
16.790	21.347	1068.972	847.651
17.804	20.450	1066.366	841.169
18.819	19.538	1064.759	835.417
19.834	18.971	1063.468	831.590
20.848	18.962	1062.661	830.839
21.863	18.882	1061.714	829.640
22.877	18.514	1061.582	827.690
23.892	18.424	1060.551	826.377
24.907	18.418	1059.544	825.492
25.921	18.283	1059.099	824.420
26.936	18.282	1058.100	823.563
27.950	18.376	1057.232	823.265
28.965	18.286	1056.399	822.113
29.980	18.401	1054.904	821.431
30.994	18.534	1053.495	820.896
32.009	18.625	1053.229	821.050
33.023	18.724	1051.961	820.464
34.038	18.672	1051.450	819.746
35.053	18.547	1050.872	818.623
36.067	18.447	1049.405	816.931
37.082	18.430	1048.384	815.986
38.096	18.361	1048.222	815.460
39.111	18.516	1047.462	815.534
40.126	18.673	1046.262	815.269
41.140	18.516	1045.313	813.713
42.155	18.411	1043.764	811.937
43.169	18.015	1042.840	809.274
44.184	18.052	1041.687	808.482
45.199	17.946	1040.598	807.065
46.213	18.092	1039.585	806.895
47.228	18.106	1038.770	806.261
48.242	18.264	1038.264	806.538
49.257	18.361	1037.701	806.489
50.271	18.434	1035.896	805.356
51.286	18.410	1035.442	804.817
52.301	18.491	1034.639	804.503
53.315	18.529	1033.894	804.031
54.330	18.307	1032.781	802.057
55.344	18.225	1032.079	801.055
56.359	18.069	1030.844	799.295
57.374	18.153	1030.179	799.103
58.388	18.129	1029.256	798.206
59.403	18.013	1028.555	797.049
60.417	17.974	1027.551	796.018
61.432	18.043	1026.399	795.374
62.447	17.948	1026.071	794.610
63.461	17.996	1025.173	794.066
64.476	17.789	1024.449	792.475
65.490	17.847	1023.015	791.565
66.505	17.702	1022.615	790.511
67.520	17.866	1021.432	790.286
68.534	17.904	1021.041	790.091
69.549	17.945	1020.229	789.583
70.563	17.886	1019.184	788.431
71.578	17.908	1018.523	787.953
72.593	17.789	1017.280	786.372
73.607	17.719	1016.610	785.462
74.622	17.493	1015.972	783.859
75.636	17.652	1014.635	783.488
76.651	17.796	1013.824	783.454
77.666	17.821	1012.781	782.696
78.680	17.821	1012.810	782.647
79.695	17.878	1011.957	782.179
80.709	17.847	1011.285	781.451
81.724	17.877	1010.423	780.853
82.739	18.025	1010.007	781.138
83.753	18.085	1009.512	780.961
84.768	18.318	1008.543	781.206
85.782	18.582	1008.377	782.211
86.797	18.672	1007.676	782.009
87.812	18.787	1006.660	781.676
88.826	18.705	1005.603	780.409
89.841	18.373	1005.208	778.527
90.855	18.592	1004.407	778.833
91.870	18.692	1003.610	778.598
92.884	18.565	1002.903	777.404
93.899	18.656	1002.001	777.049
94.914	18.652	1001.095	776.260
95.928	18.583	1000.647	775.534
96.943	18.886	999.717	776.113
97.957	18.725	998.887	774.672
98.972	18.497	998.119	772.981
99.987	18.542	997.340	772.511
101.001	18.543	996.887	772.098
102.016	18.458	996.322	771.209
103.030	18.513	995.285	770.585
104.045	18.470	994.088	769.398
105.060	18.745	992.694	769.484
106.074	18.595	991.885	768.113
107.089	18.249	990.894	765.731
108.103	18.031	990.124	764.092
109.118	17.934	989.145	762.837
110.133	17.967	988.073	762.088
111.147	17.891	987.380	761.149
112.162	17.910	986.008	760.109
113.176	18.006	985.392	759.995
114.191	18.002	984.762	759.426
115.206	18.340	983.403	759.807
116.220	18.211	983.256	759.057
117.235	17.920	982.587	757.180
118.249	17.918	981.633	756.371
119.264	17.984	980.587	755.788
120.279	17.975	979.630	754.943
121.293	17.950	978.721	754.070
122.308	17.831	978.230	753.096
123.322	17.713	977.257	751.762
124.337	17.695	976.385	750.943
125.352	17.629	974.969	749.499
126.366	17.594	974.172	748.668
127.381	17.712	972.929	748.164
128.395	17.739	971.995	747.496
129.410	17.701	971.193	746.648
130.424	17.765	970.579	746.388
131.439	17.941	969.460	746.230
132.454	17.946	969.075	745.891
133.468	18.067	968.168	745.654
134.483	18.076	968.164	745.625
135.497	18.070	967.116	744.726
136.512	18.161	966.168	744.326
137.527	18.053	965.515	743.287
138.541	18.186	964.374	742.923
139.556	18.328	963.791	743.024
140.570	18.207	963.373	742.111
141.585	18.395	962.254	741.996
142.600	18.458	961.961	741.978
143.614	18.483	960.869	741.179
144.629	18.579	960.245	741.044
145.643	18.822	959.473	741.436
146.658	18.645	959.124	740.335
147.673	18.504	957.828	738.659
148.687	18.377	956.783	737.246
149.702	18.307	955.808	736.125
150.716	18.020	955.680	734.730
151.731	18.173	954.062	734.076
152.746	18.148	953.368	733.369
153.760	18.150	952.951	732.993
154.775	18.179	952.028	732.344
155.789	18.369	951.158	732.420
156.804	18.391	950.468	731.919
157.819	18.444	949.656	731.455
158.833	18.374	949.081	730.650
159.848	18.504	948.916	731.011
160.862	18.616	948.096	730.793
161.877	18.733	946.944	730.337
162.892	18.458	945.593	728.062
163.906	18.191	944.827	726.274
164.921	18.001	944.442	725.107
165.935	18.170	942.822	724.516
166.950	18.264	942.356	724.491
167.964	18.304	941.537	723.966
168.979	18.267	940.590	723.018
169.994	18.158	939.553	721.698
171.008	18.221	938.547	721.127
172.023	18.384	937.913	721.263
173.037	18.414	937.256	720.821
174.052	18.564	936.484	720.794
175.067	18.492	936.300	720.285
176.081	18.342	935.019	718.605
177.096	18.015	933.960	716.358
178.110	18.096	933.182	716.036
179.125	18.150	932.398	715.598
180.140	18.253	931.850	715.546
181.154	18.260	930.981	714.842
182.169	18.260	930.574	714.469
183.183	18.450	930.176	714.893
184.198	18.600	929.514	714.943
185.213	18.511	929.037	714.143
186.227	18.667	927.842	713.810
187.242	18.639	927.465	713.342
188.256	18.661	927.014	713.025
189.271	18.690	926.543	712.716
190.286	18.953	925.331	712.814
191.300	18.624	924.548	710.783
192.315	18.167	923.275	707.852
193.329	17.862	922.563	705.980
194.344	17.952	921.852	705.745
195.359	18.236	921.423	706.531
196.373	18.528	920.513	706.972
197.388	18.462	920.609	706.713
198.402	18.762	919.987	707.409
199.417	18.810	919.682	707.307
200.432	18.955	919.450	707.663
201.446	18.987	919.323	707.635
202.461	18.972	918.955	707.227
203.475	19.020	918.509	707.020
204.490	19.114	917.621	706.660
205.504	18.927	916.600	705.042
206.519	18.694	915.774	703.392
207.534	18.554	914.985	702.148
208.548	18.547	914.347	701.567
209.563	18.728	913.390	701.511
210.577	18.728	912.485	700.754
211.592	18.664	912.114	700.146
212.607	18.817	911.807	700.474
213.621	18.958	911.400	700.674
214.636	18.989	910.798	700.276
215.650	18.891	909.905	699.130
216.665	18.955	909.504	699.019
217.680	18.977	908.982	698.645
218.694	19.158	908.678	699.083
219.709	19.099	908.300	698.492
220.723	19.198	907.280	698.047
221.738	18.986	907.093	696.982
222.753	19.048	905.906	696.261
223.767	19.051	905.195	695.665
224.782	19.162	904.201	695.288
225.796	19.135	903.842	694.839
226.811	19.276	903.269	694.908
227.826	19.430	902.235	694.671
228.840	19.010	901.765	692.556
229.855	19.072	900.567	691.822
230.869	19.146	899.876	691.527
231.884	19.040	899.274	690.579
232.899	18.946	899.016	689.941
233.913	18.788	898.047	688.505
234.928	18.804	897.404	688.017
235.942	18.843	896.526	687.435
236.957	18.755	895.787	686.458
237.972	18.710	895.385	685.909
238.986	18.950	894.380	686.037
240.001	18.820	894.000	685.166
241.015	18.770	893.433	684.473
242.030	18.952	892.849	684.687
243.045	19.071	892.165	684.578
244.059	19.002	891.892	684.032
245.074	19.035	891.169	683.548
246.088	19.257	890.161	683.596
247.103	19.276	889.742	683.290
248.117	19.293	889.252	682.919
249.132	19.453	888.704	683.070
250.147	19.577	888.647	683.459
251.161	19.794	888.290	683.980
252.176	19.849	887.497	683.527
253.190	19.915	886.700	683.113
254.205	19.985	886.360	683.067
255.220	20.020	885.795	682.710
256.234	19.927	885.230	681.846
257.249	19.939	884.459	681.239
258.263	19.931	883.882	680.704
259.278	20.035	882.949	680.336
260.293	19.874	882.725	679.470
261.307	19.803	882.774	679.169
262.322	20.035	882.100	679.500
263.336	20.077	880.945	678.713
264.351	20.081	880.571	678.380
265.366	20.245	879.833	678.394
266.380	20.098	879.197	677.269
267.395	20.251	878.074	676.943
268.409	19.979	877.897	675.686
269.424	19.986	876.776	674.788
270.439	20.022	876.202	674.426
271.453	19.948	875.688	673.686
272.468	19.858	874.408	672.289
273.482	19.819	874.010	671.773
274.497	19.799	873.632	671.345
275.512	19.782	873.036	670.763
276.526	19.750	872.280	669.997
277.541	19.786	871.781	669.695
278.555	19.970	870.929	669.693
279.570	19.923	870.907	669.435
280.585	20.238	870.442	670.236
281.599	20.234	869.480	669.419
282.614	20.168	868.646	668.465
283.628	19.870	868.455	667.109
284.643	19.892	867.422	666.341
285.657	19.938	867.095	666.210
286.672	19.772	866.841	665.315
287.687	19.861	866.202	665.110
288.701	20.078	865.530	665.365
289.716	19.931	865.075	664.396
290.730	20.070	864.526	664.445
291.745	20.061	863.781	663.782
292.760	20.240	863.022	663.824
293.774	20.071	862.520	662.734
294.789	20.202	862.398	663.080
295.803	20.484	861.502	663.411
296.818	20.215	860.492	661.547
297.833	20.182	860.018	660.999
298.847	20.077	859.593	660.214
299.862	20.083	859.174	659.855
300.876	20.182	858.215	659.437
301.891	20.256	857.692	659.260
302.906	20.314	857.164	659.017
303.920	20.495	856.099	658.825
304.935	20.643	856.037	659.279
305.949	20.707	855.540	659.080
306.964	20.664	854.611	658.146
307.979	20.630	853.754	657.297
308.993	20.608	853.326	656.828
310.008	20.676	852.690	656.534
311.022	20.712	852.507	656.471
312.037	20.614	851.837	655.531
313.052	20.361	852.128	654.742
314.066	20.388	850.494	653.530
315.081	20.208	849.724	652.203
316.095	20.083	849.316	651.361
317.110	20.127	848.906	651.157
318.125	20.269	848.232	651.114
319.139	20.337	847.333	650.623
320.154	20.221	847.332	650.128
321.168	20.096	846.895	649.267
322.183	20.164	846.535	649.190
323.197	20.292	845.734	648.995
324.212	20.416	845.104	648.917
325.227	20.330	844.683	648.217
326.241	20.459	844.178	648.254
327.256	20.277	843.672	647.127
328.270	20.199	842.850	646.148
329.285	20.200	842.647	645.939
330.300	20.193	842.104	645.439
331.314	20.378	840.975	645.205
332.329	20.352	840.439	644.640
333.343	20.591	839.857	645.025
334.358	20.675	839.556	645.047
335.373	20.598	838.853	644.164
336.387	20.598	838.808	644.073
337.402	20.566	838.274	643.489
338.416	20.641	837.901	643.423
339.431	20.750	837.351	643.345
340.446	20.963	836.492	643.414
341.460	20.925	836.468	643.201
342.475	21.114	835.367	642.992
343.489	20.939	835.494	642.388
344.504	21.020	834.649	641.978
345.519	21.071	834.142	641.719
346.533	21.353	833.684	642.349
347.548	21.331	832.655	641.417
348.562	21.061	832.221	640.035
349.577	20.855	831.295	638.513
350.592	20.651	831.317	637.725
351.606	20.731	830.318	637.194
352.621	20.557	830.241	636.442
353.635	20.544	829.565	635.822
354.650	20.655	829.312	635.978
355.665	20.738	829.070	636.040
356.679	20.881	828.186	635.824
357.694	21.017	827.870	636.023
358.708	20.999	827.468	635.592
359.723	20.860	826.863	634.566
360.738	21.052	826.050	634.583
361.752	20.894	825.911	633.844
362.767	21.010	825.175	633.645
363.781	21.247	825.086	634.382
364.796	21.230	824.936	634.151
365.810	21.143	824.690	633.587
366.825	21.477	823.973	634.192
367.840	21.595	823.818	634.444
368.854	21.681	823.138	634.177
369.869	21.296	823.033	632.646
370.883	21.315	822.053	631.904
371.898	21.185	821.552	630.995
372.913	21.293	821.036	630.932
373.927	21.447	820.578	631.080
374.942	21.427	819.645	630.236
375.956	21.424	819.098	629.747
376.971	21.692	818.188	629.955
377.986	21.574	818.117	629.420
379.000	21.823	817.466	629.759
380.015	21.698	817.045	628.931
381.029	21.548	816.715	628.081
382.044	21.645	816.162	627.948
383.059	21.634	815.520	627.359
384.073	21.801	814.865	627.399
385.088	21.759	814.190	626.673
386.102	21.575	813.376	625.335
387.117	21.237	813.140	623.890
388.132	21.206	812.893	623.536
389.146	21.343	812.054	623.324
390.161	21.248	812.207	623.049
391.175	21.541	811.693	623.641
392.190	21.647	811.202	623.588
393.205	21.443	810.751	622.458
394.219	21.471	810.019	621.943
395.234	21.475	809.305	621.355
396.248	21.292	809.147	620.527
397.263	21.249	808.093	619.512
398.278	21.258	807.676	619.169
399.292	21.138	807.561	618.602
400.307	21.169	806.848	618.108
401.321	21.253	806.791	618.307
402.336	21.265	806.719	618.241
403.350	21.264	806.129	617.730
404.365	21.386	805.394	617.544
405.380	21.520	805.086	617.727
406.394	21.849	804.297	618.226
407.409	21.787	804.162	617.848
408.423	21.899	803.929	618.008
409.438	21.881	803.398	617.484
410.453	21.918	803.263	617.457
411.467	21.984	802.905	617.356
412.482	21.974	802.261	616.772
413.496	22.194	801.383	616.816
414.511	22.197	801.353	616.746
415.526	22.120	801.375	616.439
416.540	22.033	801.057	615.835
417.555	22.024	800.218	615.104
418.569	22.065	799.508	614.649
419.584	22.144	798.961	614.450
420.599	21.989	798.709	613.660
421.613	158.280	1368.502	1788.191
422.628	137.309	1451.553	1788.306
