DTS Sentinel unit serial number:	SN413079Multiplexer serial number:	ORYXHardware model number:	OX4-SRSoftware version number:	ORYX F/W v4.00 Oryx Data Collector v3.7.2.0data status	okinstallation	princeton_trtdifferential loss correction	single-endedforward channel	channel 3reverse channel	N/Adate	2019/09/15time	19:52:35forward acquisition time	60.00reverse acquisition time	0.00gamma	496.2192k internal	0.2311k external	0.2311temperature offset calibration	0.9935default loss term (dB/km)	0.3790temperature slope calibration	1.0000multiplexer offset coefficient	1.0000multiplexer slope coefficient	1.0000fibre end	0.00T internal ref (°C)	36.41T ext. ref 1 (°C)	7.48T ext. ref 2 (°C)	26.91length (m)	temperature (°C)	Stokes	anti-Stokes-747.200	-169.445	-0.226	-0.008
-746.185	35.323	-0.224	0.199
-745.171	166.117	0.040	0.057
-744.156	91.789	-0.336	0.384
-743.142	141.640	-0.108	0.146
-742.127	17.081	-0.113	-0.091
-741.112	225.191	-0.011	-0.019
-740.098	414.695	-0.231	0.499
-739.083	-36.280	0.070	-0.038
-738.069	-58.999	-0.131	-0.057
-737.054	-200.000	0.060	-0.330
-736.039	-30.663	0.118	0.068
-735.025	317.107	0.133	0.256
-734.010	276.403	-0.090	-0.162
-732.996	633.577	0.030	-0.078
-731.981	409.448	0.030	-0.064
-730.966	137.409	-0.082	-0.109
-729.952	800.000	-0.059	-0.202
-728.937	373.747	-0.050	0.103
-727.923	-26.950	0.083	-0.049
-726.908	666.404	-0.043	0.112
-725.894	-86.984	-0.116	0.036
-724.879	499.844	-0.152	-0.355
-723.864	342.418	0.242	-0.479
-722.850	-1.530	-0.178	0.127
-721.835	-200.000	-0.309	-0.001
-720.821	185.772	0.091	-0.137
-719.806	-120.346	-0.209	-0.036
-718.791	550.540	-0.021	0.052
-717.777	-142.564	0.152	-0.015
-716.762	342.831	-0.085	0.169
-715.748	-25.167	0.276	0.166
-714.733	-120.268	0.367	0.064
-713.718	-191.133	0.332	0.003
-712.704	-2.084	-0.239	0.170
-711.689	-32.441	-0.353	0.200
-710.675	-159.179	-0.152	-0.009
-709.660	350.099	0.040	-0.079
-708.645	-142.403	0.143	0.014
-707.631	-166.371	0.396	-0.017
-706.616	40.032	0.176	-0.160
-705.602	577.122	0.135	-0.334
-704.587	60.422	-0.043	0.043
-703.572	90.555	-0.206	-0.234
-702.558	-174.754	-0.458	0.013
-701.543	63.950	-0.128	0.131
-700.529	-103.653	0.168	-0.040
-699.514	-25.610	-0.035	0.021
-698.499	71.558	-0.162	-0.171
-697.485	-114.911	-0.253	-0.049
-696.470	800.000	-0.087	0.321
-695.456	-88.472	-0.107	-0.032
-694.441	134.057	0.099	0.130
-693.426	-94.877	0.131	0.036
-692.412	62.831	-0.101	-0.102
-691.397	22.822	-0.166	-0.138
-690.383	56.049	-0.097	0.095
-689.368	22.447	-0.121	0.100
-688.354	-34.925	-0.122	-0.067
-687.339	21.406	0.204	0.168
-686.324	228.122	-0.059	0.097
-685.310	2.783	-0.483	0.355
-684.295	106.508	-0.207	-0.249
-683.281	62.969	-0.111	0.113
-682.266	191.035	0.075	-0.114
-681.251	330.216	0.035	-0.069
-680.237	-100.834	-0.207	-0.052
-679.222	-200.000	0.066	-0.492
-678.208	175.453	-0.069	-0.101
-677.193	161.247	0.071	-0.101
-676.178	-120.633	-0.020	0.003
-675.164	-140.113	-0.218	-0.023
-674.149	-200.000	0.049	-0.279
-673.135	-200.000	0.065	-0.501
-672.120	-117.756	-0.105	0.019
-671.105	-62.104	0.239	0.101
-670.091	2.822	0.098	0.072
-669.076	-94.529	0.363	0.100
-668.062	-3.316	-0.185	0.130
-667.047	-9.459	-0.207	-0.140
-666.032	-200.000	-0.032	-0.191
-665.018	-69.423	-0.313	-0.121
-664.003	-86.979	-0.246	-0.076
-662.989	-142.085	-0.161	0.016
-661.974	-154.575	0.320	-0.022
-660.959	-200.000	0.048	-0.236
-659.945	-128.178	0.075	0.011
-658.930	265.721	0.104	0.183
-657.916	-200.000	-0.063	0.465
-656.901	236.862	0.084	-0.140
-655.886	-200.000	-0.042	0.346
-654.872	-14.837	0.223	0.145
-653.857	-200.000	-0.037	0.202
-652.843	-200.000	-0.022	0.187
-651.828	-147.269	-0.144	0.012
-650.814	570.446	0.198	-0.488
-649.799	-200.000	-0.009	0.197
-648.784	800.000	0.122	0.348
-647.770	368.930	-0.102	0.209
-646.755	-200.000	-0.036	0.215
-645.741	-48.754	-0.188	-0.091
-644.726	-200.000	-0.057	0.273
-643.711	-200.000	-0.048	-0.280
-642.697	51.036	-0.135	-0.129
-641.682	-200.000	-0.030	0.213
-640.668	-200.000	-0.037	0.211
-639.653	87.862	0.145	-0.163
-638.638	130.989	-0.132	-0.171
-637.624	174.009	0.260	-0.380
-636.609	-18.203	-0.275	0.174
-635.595	-73.397	0.260	-0.096
-634.580	-113.007	0.219	0.044
-633.565	-56.315	-0.133	-0.060
-632.551	800.000	-0.031	-0.125
-631.536	86.381	0.051	0.056
-630.522	-3.783	0.146	0.103
-629.507	-200.000	-0.064	-0.370
-628.492	-84.310	-0.115	-0.037
-627.478	-131.500	0.044	0.006
-626.463	800.000	0.027	-0.106
-625.449	-22.988	-0.153	0.093
-624.434	-200.000	-0.026	0.210
-623.419	800.000	0.068	-0.190
-622.405	-25.600	-0.312	-0.186
-621.390	-167.289	-0.118	0.005
-620.376	-90.620	0.211	0.062
-619.361	-200.000	0.001	-0.514
-618.346	-116.066	-0.400	-0.075
-617.332	-103.308	0.121	-0.029
-616.317	-64.936	0.238	-0.097
-615.303	363.706	0.065	0.133
-614.288	152.629	-0.185	0.255
-613.273	536.123	0.106	-0.255
-612.259	-105.948	-0.265	-0.060
-611.244	-120.528	-0.381	0.065
-610.230	-200.000	-0.020	0.336
-609.215	727.132	-0.068	0.184
-608.201	-13.993	0.087	-0.057
-607.186	-200.000	-0.024	0.192
-606.171	800.000	0.013	0.042
-605.157	12.079	-0.246	0.191
-604.142	-3.581	-0.253	-0.178
-603.128	-140.095	-0.294	0.031
-602.113	-73.703	-0.377	0.139
-601.098	550.000	-0.039	0.094
-600.084	552.034	-0.096	-0.233
-599.069	156.155	-0.056	-0.079
-598.055	-94.521	-0.392	0.108
-597.040	-170.867	0.040	0.001
-596.025	-200.000	-0.064	-0.284
-595.011	8.402	0.054	0.041
-593.996	373.953	-0.203	-0.416
-592.982	-23.673	-0.256	0.155
-591.967	218.659	0.201	0.324
-590.952	-29.673	-0.391	-0.225
-589.938	85.003	0.187	0.207
-588.923	-200.000	-0.019	-0.250
-587.909	800.000	-0.071	-0.215
-586.894	34.706	0.329	-0.290
-585.879	234.084	-0.031	-0.051
-584.865	199.506	0.034	-0.053
-583.850	-54.533	0.288	0.131
-582.836	-45.650	-0.235	-0.117
-581.821	-25.724	0.050	-0.029
-580.806	800.000	-0.067	-0.193
-579.792	-200.000	-0.027	-0.281
-578.777	250.083	0.083	-0.141
-577.763	800.000	0.047	-0.182
-576.748	22.551	-0.241	0.199
-575.733	-7.170	-0.269	0.184
-574.719	537.082	0.131	0.313
-573.704	29.667	0.154	0.132
-572.690	-8.588	0.256	-0.173
-571.675	-200.000	-0.039	-0.214
-570.661	-68.797	-0.022	-0.009
-569.646	88.341	-0.128	-0.144
-568.631	28.997	0.087	0.074
-567.617	72.967	0.371	-0.390
-566.602	800.000	-0.026	0.077
-565.588	40.445	-0.205	0.186
-564.573	-48.431	-0.165	0.080
-563.558	-30.811	-0.143	-0.082
-562.544	-26.760	-0.126	0.075
-561.529	-86.203	0.105	-0.033
-560.515	-200.000	0.030	0.151
-559.500	-200.000	0.029	0.233
-558.485	681.035	-0.066	-0.173
-557.471	275.151	-0.035	-0.063
-556.456	-177.068	0.126	0.003
-555.442	-31.607	-0.207	-0.117
-554.427	-66.876	0.186	0.074
-553.412	-200.000	0.027	-0.156
-552.398	-83.173	0.293	-0.095
-551.383	-120.799	0.200	-0.034
-550.369	270.418	0.048	0.085
-549.354	300.033	-0.161	-0.298
-548.339	-60.360	-0.197	-0.085
-547.325	5.734	0.200	-0.149
-546.310	-72.784	-0.340	0.126
-545.296	135.462	0.109	0.143
-544.281	800.000	0.025	0.072
-543.266	-133.800	0.085	-0.011
-542.252	93.339	-0.356	-0.405
-541.237	88.928	-0.195	-0.218
-540.223	154.975	0.099	0.137
-539.208	77.489	0.275	-0.295
-538.193	17.614	-0.144	0.116
-537.179	-29.251	-0.073	0.042
-536.164	12.820	-0.179	-0.139
-535.150	800.000	-0.066	0.212
-534.135	89.176	-0.021	0.023
-533.121	154.335	0.079	0.109
-532.106	-132.763	0.454	-0.058
-531.091	-101.595	-0.384	-0.094
-530.077	303.422	0.223	-0.415
-529.062	-200.000	-0.004	-0.201
-528.048	230.702	0.116	-0.191
-527.033	307.696	0.129	0.242
-526.018	-113.839	-0.108	0.021
-525.004	-36.249	-0.105	0.057
-523.989	-200.000	-0.008	-0.160
-522.975	10.061	0.022	-0.017
-521.960	-179.354	-0.103	0.002
-520.945	331.719	-0.133	0.258
-519.931	-19.671	-0.110	0.069
-518.916	-200.000	-0.027	0.299
-517.902	-200.000	0.061	-0.294
-516.887	83.037	0.321	-0.352
-515.872	-200.000	-0.056	-0.245
-514.858	84.660	0.127	-0.140
-513.843	-157.003	0.088	-0.005
-512.829	-59.217	0.225	0.097
-511.814	356.315	0.055	0.110
-510.799	800.000	0.041	0.118
-509.785	-200.000	0.007	-0.367
-508.770	-94.981	0.141	0.038
-507.756	29.364	-0.144	0.123
-506.741	-200.000	0.019	0.095
-505.726	-47.242	0.325	-0.159
-504.712	-200.000	0.022	-0.153
-503.697	-61.993	-0.418	0.176
-502.683	-56.839	-0.288	0.128
-501.668	63.833	0.116	-0.117
-500.653	-200.000	0.029	0.132
-499.639	289.041	-0.104	-0.189
-498.624	-15.456	-0.084	-0.054
-497.610	147.140	0.278	0.375
-496.595	800.000	-0.099	0.280
-495.581	-200.000	-0.001	0.250
-494.566	800.000	0.136	0.479
-493.551	-14.318	-0.211	0.137
-492.537	9.176	-0.275	0.209
-491.522	740.344	-0.095	0.255
-490.508	-86.435	0.119	-0.037
-489.493	-200.000	0.020	0.143
-488.478	-27.204	0.130	-0.076
-487.464	-200.000	0.029	-0.214
-486.449	-10.042	0.175	-0.117
-485.435	-150.837	0.053	0.004
-484.420	-166.535	-0.132	0.006
-483.405	-128.343	0.207	-0.030
-482.391	-98.079	0.165	-0.043
-481.376	-49.431	-0.084	0.040
-480.362	-200.000	0.022	-0.171
-479.347	406.713	0.037	-0.079
-478.332	-53.096	0.365	0.168
-477.318	-162.355	0.171	-0.009
-476.303	800.000	-0.072	-0.254
-475.289	745.557	-0.068	-0.184
-474.274	52.265	0.124	0.119
-473.259	-167.291	0.137	0.006
-472.245	170.613	0.156	0.224
-471.230	-59.870	-0.509	-0.219
-470.216	-139.148	-0.192	-0.021
-469.201	-48.027	0.295	0.143
-468.186	337.543	0.063	0.123
-467.172	-19.799	0.107	-0.067
-466.157	44.742	0.127	-0.117
-465.143	-69.555	0.210	-0.081
-464.128	800.000	-0.023	0.088
-463.113	-115.992	-0.219	-0.041
-462.099	800.000	-0.061	0.184
-461.084	-118.336	0.199	-0.036
-460.070	-92.979	0.336	0.094
-459.055	800.000	0.095	0.358
-458.040	315.945	-0.051	-0.098
-457.026	151.078	0.147	0.201
-456.011	556.905	0.112	-0.272
-454.997	-200.000	0.060	0.298
-453.982	157.117	0.136	-0.188
-452.968	-60.709	0.170	0.072
-451.953	152.627	0.312	0.428
-450.938	800.000	-0.171	-0.516
-449.924	-38.812	-0.281	-0.149
-448.909	25.019	-0.068	-0.057
-447.895	-200.000	0.089	-0.428
-446.880	44.787	-0.247	0.228
-445.865	-200.000	-0.008	0.374
-444.851	56.797	0.162	0.158
-443.836	-111.149	-0.054	0.011
-442.822	533.603	-0.110	-0.260
-441.807	75.554	-0.111	-0.118
-440.792	800.000	0.041	0.127
-439.778	313.710	-0.074	0.141
-438.763	-200.000	-0.006	-0.061
-437.749	-200.000	0.074	0.449
-436.734	-65.953	0.134	-0.054
-435.719	-200.000	0.020	0.150
-434.705	800.000	0.085	0.294
-433.690	243.363	-0.200	0.337
-432.676	508.594	-0.026	-0.061
-431.661	-189.901	0.282	-0.003
-430.646	9.425	-0.060	0.045
-429.632	-200.000	-0.209	-0.001
-428.617	800.000	0.042	0.144
-427.603	-32.753	0.091	-0.051
-426.588	332.401	0.082	0.159
-425.573	-111.093	-0.338	0.069
-424.559	800.000	-0.068	-0.211
-423.544	-67.918	-0.143	-0.056
-422.530	-94.009	-0.308	-0.085
-421.515	117.575	-0.082	0.101
-420.500	-20.856	-0.040	0.025
-419.486	-31.607	0.119	0.067
-418.471	440.688	-0.114	-0.249
-417.457	192.581	-0.027	-0.040
-416.442	-200.000	0.035	0.185
-415.428	149.182	0.178	-0.241
-414.413	89.274	0.021	0.024
-413.398	800.000	-0.036	-0.124
-412.384	-111.415	-0.175	-0.036
-411.369	-200.000	-0.001	0.028
-410.355	454.042	-0.094	0.208
-409.340	-65.503	0.143	-0.057
-408.325	183.115	0.157	0.233
-407.311	-42.670	0.130	0.066
-406.296	-99.406	-0.112	0.028
-405.282	-71.070	0.034	0.013
-404.267	19.332	0.033	-0.026
-403.252	-200.000	-0.035	0.212
-402.238	-112.066	0.123	-0.025
-401.223	60.227	-0.274	-0.271
-400.209	800.000	0.027	0.094
-399.194	-48.416	-0.193	-0.093
-398.179	443.371	-0.061	-0.133
-397.165	122.641	-0.184	-0.231
-396.150	125.771	-0.044	0.055
-395.136	-200.000	0.069	0.479
-394.121	-17.591	0.109	0.068
-393.106	-73.470	0.221	0.081
-392.092	144.791	-0.066	0.088
-391.077	52.557	-0.147	-0.140
-390.063	-11.160	-0.116	0.077
-389.048	-200.000	-0.030	-0.140
-388.033	-200.000	0.002	-0.019
-387.019	94.415	0.152	0.173
-386.004	-200.000	-0.019	0.271
-384.990	-110.541	-0.096	-0.020
-383.975	190.534	-0.141	0.212
-382.960	-158.474	0.337	0.019
-381.946	-101.625	0.279	0.068
-380.931	-163.359	-0.299	0.014
-379.917	-200.000	0.049	-0.524
-378.902	134.419	0.201	0.260
-377.888	70.383	0.083	-0.086
-376.873	800.000	-0.014	0.058
-375.858	14.878	0.296	-0.232
-374.844	425.499	-0.111	0.240
-373.829	-200.000	-0.013	0.074
-372.815	739.572	0.044	0.118
-371.800	4.480	-0.198	-0.145
-370.785	-136.060	0.209	0.025
-369.771	47.779	-0.065	-0.060
-368.756	-164.126	0.262	-0.012
-367.742	-26.104	-0.523	0.307
-366.727	-154.531	-0.279	-0.019
-365.712	261.915	-0.089	0.154
-364.698	9.547	0.221	0.167
-363.683	-79.426	0.134	-0.045
-362.669	36.942	-0.283	-0.250
-361.654	-144.760	0.325	0.030
-360.639	-200.000	-0.027	-0.361
-359.625	-111.577	-0.157	-0.032
-358.610	-182.544	0.489	0.009
-357.596	271.400	0.183	0.322
-356.581	-143.128	-0.241	-0.023
-355.566	262.414	-0.107	0.186
-354.552	-28.670	0.146	-0.084
-353.537	73.471	-0.124	0.130
-352.523	-121.281	-0.138	-0.023
-351.508	235.306	0.179	-0.295
-350.493	-200.000	0.006	-0.261
-349.479	279.413	-0.139	0.248
-348.464	115.108	0.321	0.391
-347.450	224.393	0.019	0.030
-346.435	-1.944	-0.154	0.108
-345.420	-145.179	0.164	0.015
-344.406	-88.064	-0.360	-0.108
-343.391	-190.443	-0.227	-0.002
-342.377	-200.000	0.032	0.380
-341.362	44.505	0.337	0.309
-340.348	9.777	0.261	-0.198
-339.333	228.644	0.214	-0.349
-338.318	780.089	-0.013	0.035
-337.304	26.414	0.048	0.040
-336.289	25.029	0.135	-0.111
-335.275	-200.000	0.005	0.043
-334.260	800.000	-0.158	0.491
-333.245	113.029	0.222	0.268
-332.231	-108.192	-0.195	0.042
-331.216	42.107	0.193	0.175
-330.202	-200.000	-0.013	0.211
-329.187	66.503	-0.226	-0.229
-328.172	-26.522	-0.092	0.054
-327.158	-22.738	0.099	-0.060
-326.143	-71.263	-0.129	-0.048
-325.129	329.876	-0.023	-0.045
-324.114	-94.774	0.131	0.036
-323.099	524.085	-0.031	0.073
-322.085	162.620	-0.307	-0.430
-321.070	800.000	0.051	0.164
-320.056	-125.454	0.130	-0.020
-319.041	1.756	0.240	-0.173
-318.026	138.558	0.130	0.170
-317.012	-200.000	0.037	-0.263
-315.997	-79.665	-0.272	-0.091
-314.983	-200.000	-0.008	-0.165
-313.968	800.000	-0.041	-0.139
-312.953	8.393	0.226	-0.169
-311.939	163.441	-0.133	-0.187
-310.924	800.000	0.086	0.301
-309.910	800.000	-0.053	-0.169
-308.895	-181.529	-0.163	0.003
-307.880	-162.349	0.202	0.010
-306.866	-29.012	-0.301	-0.172
-305.851	101.624	0.149	0.173
-304.837	202.564	0.242	-0.373
-303.822	66.361	-0.156	0.158
-302.807	-200.000	0.002	0.321
-301.793	-200.000	-0.028	0.124
-300.778	-200.000	0.025	-0.272
-299.764	58.309	0.131	-0.128
-298.749	151.575	-0.158	0.215
-297.735	-64.542	0.193	0.078
-296.720	450.259	-0.034	-0.076
-295.705	-166.729	0.229	-0.009
-294.691	-164.842	-0.303	0.014
-293.676	-73.933	-0.226	0.082
-292.662	704.780	-0.011	-0.028
-291.647	123.006	-0.198	-0.247
-290.632	18.972	-0.338	-0.270
-289.618	-200.000	0.012	-0.142
-288.603	-19.752	0.157	0.097
-287.589	-200.000	-0.018	-0.482
-286.574	-123.813	0.197	0.031
-285.559	395.115	-0.068	0.141
-284.545	96.821	-0.041	0.046
-283.530	129.966	-0.150	0.191
-282.516	-200.000	-0.018	-0.080
-281.501	-142.543	0.077	0.007
-280.486	-94.834	-0.088	-0.024
-279.472	793.969	-0.098	0.268
-278.457	40.773	-0.082	0.074
-277.443	162.762	0.167	-0.233
-276.428	57.951	0.117	0.114
-275.413	-200.000	0.019	0.328
-274.399	800.000	0.120	-0.395
-273.384	128.302	-0.052	0.066
-272.370	-57.083	0.157	-0.069
-271.355	-12.081	0.323	0.211
-270.340	-18.841	-0.359	0.223
-269.326	-200.000	0.035	0.270
-268.311	800.000	0.049	-0.187
-267.297	-145.487	0.152	-0.014
-266.282	75.283	0.041	-0.043
-265.267	-87.503	0.201	0.060
-264.253	-71.119	0.153	0.057
-263.238	-71.365	0.329	-0.123
-262.224	102.649	0.251	0.293
-261.209	275.653	0.112	0.197
-260.195	-182.889	0.144	0.003
-259.180	-200.000	-0.010	0.126
-258.165	4.234	0.108	-0.079
-257.151	1.981	-0.270	-0.194
-256.136	269.983	0.181	0.316
-255.122	800.000	-0.045	-0.175
-254.107	222.368	-0.262	0.420
-253.092	703.511	-0.079	-0.206
-252.078	30.806	-0.149	0.127
-251.063	217.984	0.119	-0.189
-250.049	-200.000	-0.027	0.177
-249.034	-10.806	0.202	0.133
-248.019	-200.000	-0.021	-0.111
-247.005	-96.762	-0.045	-0.012
-245.990	29.719	-0.127	-0.108
-244.976	-200.000	0.033	-0.215
-243.961	-29.575	0.106	-0.060
-242.946	13.868	0.069	-0.053
-241.932	-89.538	0.347	-0.101
-240.917	-4.314	0.240	-0.165
-239.903	-139.981	-0.143	0.015
-238.888	43.241	-0.077	0.070
-237.873	29.374	-0.134	0.113
-236.859	465.929	-0.151	-0.337
-235.844	-200.000	0.001	-0.010
-234.830	-200.000	-0.051	0.238
-233.815	4.535	0.277	0.202
-232.800	128.749	-0.233	-0.296
-231.786	-12.820	-0.383	0.249
-230.771	-68.170	0.060	-0.023
-229.757	453.962	0.032	0.070
-228.742	-200.000	0.025	-0.270
-227.727	43.660	-0.082	-0.075
-226.713	-200.000	0.016	0.117
-225.698	-27.496	0.347	0.200
-224.684	-135.772	0.180	-0.021
-223.669	-79.109	0.107	0.036
-222.655	-86.753	-0.096	0.029
-221.640	-200.000	-0.019	-0.246
-220.625	-75.587	0.320	0.113
-219.611	-153.445	0.092	-0.006
-218.596	-33.643	-0.024	0.013
-217.582	163.939	-0.120	0.168
-216.567	459.985	0.141	-0.311
-215.552	149.472	-0.185	-0.249
-214.538	-200.000	0.007	-0.368
-213.523	316.524	-0.147	0.277
-212.509	22.524	0.300	-0.244
-211.494	800.000	0.048	0.204
-210.479	-39.199	-0.040	-0.021
-209.465	-200.000	-0.025	-0.184
-208.450	107.038	-0.048	-0.057
-207.436	516.653	-0.042	-0.097
-206.421	33.823	-0.116	-0.100
-205.406	800.000	0.075	-0.323
-204.392	-41.383	-0.126	-0.064
-203.377	425.392	0.273	0.584
-202.363	800.000	0.055	0.219
-201.348	123.868	-0.120	-0.150
-200.333	-29.353	0.309	0.176
-199.319	-51.152	0.280	0.131
-198.304	104.230	-0.026	-0.030
-197.290	-109.996	-0.189	0.039
-196.275	371.917	-0.159	-0.321
-195.260	-200.000	0.022	-0.108
-194.246	351.527	-0.053	-0.103
-193.231	-11.165	-0.214	-0.140
-192.217	-200.000	-0.061	-0.293
-191.202	-141.717	-0.224	-0.022
-190.187	6.870	-0.162	0.120
-189.173	22.439	0.181	-0.147
-188.158	-94.987	0.286	-0.077
-187.144	-110.402	-0.159	-0.033
-186.129	-146.299	0.098	0.009
-185.114	-17.442	-0.308	-0.192
-184.100	-47.419	-0.157	-0.076
-183.085	-200.000	0.127	-0.001
-182.071	151.594	0.210	0.284
-181.056	800.000	0.116	0.321
-180.042	-117.556	-0.584	-0.105
-179.027	75.353	0.209	0.219
-178.012	-171.570	0.151	0.005
-176.998	71.302	-0.120	-0.123
-175.983	-73.948	-0.035	0.013
-174.969	161.696	-0.054	-0.075
-173.954	-200.000	-0.006	-0.098
-172.939	39.726	0.289	0.257
-171.925	124.979	0.189	0.237
-170.910	-200.000	-0.033	-0.150
-169.896	-25.963	-0.219	0.128
-168.881	509.141	-0.076	0.175
-167.866	107.881	0.052	0.061
-166.852	-200.000	0.026	-0.139
-165.837	-60.537	-0.181	-0.076
-164.823	-16.826	0.170	0.106
-163.808	800.000	-0.051	0.178
-162.793	2.784	0.127	0.091
-161.779	-130.777	0.096	-0.013
-160.764	800.000	-0.033	0.094
-159.750	-27.664	-0.160	-0.092
-158.735	306.985	0.059	-0.109
-157.720	-31.556	0.145	0.081
-156.706	-200.000	0.092	0.000
-155.691	-167.843	-0.169	-0.007
-154.677	-200.000	0.057	-0.262
-153.662	800.000	-0.069	-0.224
-152.647	-132.730	-0.214	-0.027
-151.633	-200.000	0.022	-0.154
-150.618	-66.064	-0.157	-0.062
-149.604	14.264	0.186	-0.144
-148.589	229.917	0.122	0.198
-147.574	21.284	-0.176	-0.142
-146.560	-7.832	0.068	-0.045
-145.545	654.403	0.156	0.398
-144.531	63.612	0.101	0.100
-143.516	100.190	0.148	-0.170
-142.502	-60.938	-0.355	-0.149
-141.487	62.859	-0.179	0.178
-140.472	800.000	0.039	-0.125
-139.458	800.000	0.030	0.084
-138.443	191.031	0.100	0.149
-137.429	578.631	-0.205	0.497
-136.414	-49.091	0.054	0.026
-135.399	-29.194	0.208	0.118
-134.385	-61.156	-0.124	0.052
-133.370	191.357	-0.059	-0.088
-132.356	-106.983	0.457	0.100
-131.341	800.000	0.029	-0.128
-130.326	542.783	0.099	-0.233
-129.312	-81.760	0.396	-0.129
-128.297	-4.474	-0.183	-0.125
-127.283	132.304	0.129	-0.165
-126.268	43.161	0.328	-0.297
-125.253	-200.000	-0.015	-0.155
-124.239	642.840	0.093	-0.234
-123.224	81.706	0.156	-0.167
-122.210	-80.751	0.183	0.060
-121.195	94.812	0.102	0.115
-120.180	-54.635	0.196	0.088
-119.166	785.812	0.031	-0.084
-118.151	-200.000	-0.050	-0.236
-117.137	800.000	0.089	-0.287
-116.122	103.789	-0.278	-0.323
-115.107	800.000	0.041	-0.157
-114.093	75.298	-0.183	0.191
-113.078	-200.000	0.039	-0.275
-112.064	-200.000	-0.013	-0.112
-111.049	191.105	0.166	0.247
-110.034	-32.029	0.102	0.056
-109.020	336.832	-0.102	-0.196
-108.005	-150.081	-0.242	-0.019
-106.991	-200.000	0.016	-0.160
-105.976	-66.458	0.167	0.065
-104.962	-126.987	0.098	0.014
-103.947	314.130	0.060	-0.112
-102.932	-17.563	0.255	-0.159
-101.918	-94.804	0.006	-0.002
-100.903	-46.755	0.347	-0.168
-99.889	-49.327	-0.119	-0.056
-98.874	360.848	-0.134	-0.265
-97.859	680.999	0.048	-0.124
-96.845	-161.984	0.358	-0.018
-95.830	-92.991	-0.130	-0.036
-94.816	28.967	-0.301	-0.252
-93.801	-200.000	0.059	-0.389
-92.786	234.263	0.228	0.372
-91.772	-200.000	0.019	0.321
-90.757	800.000	-0.088	-0.253
-89.743	-200.000	-0.031	0.342
-88.728	56.520	0.080	0.077
-87.713	406.567	0.014	0.029
-86.699	682.932	0.079	0.204
-85.684	758.676	0.100	0.267
-84.670	121.763	0.187	0.231
-83.655	28.720	-0.163	-0.137
-82.640	302.842	-0.092	-0.168
-81.626	-200.000	0.022	0.270
-80.611	489.825	-0.026	-0.058
-79.597	221.043	-0.102	0.162
-78.582	-83.181	0.130	0.041
-77.567	70.774	0.168	0.172
-76.553	96.240	-0.147	-0.166
-75.538	-62.759	0.254	0.104
-74.524	-200.000	-0.037	0.206
-73.509	-92.100	0.353	0.099
-72.494	38.884	-0.044	0.039
-71.480	-47.202	-0.107	-0.052
-70.465	151.220	0.284	0.382
-69.451	-2.831	0.224	-0.155
-68.436	36.744	-0.440	-0.384
-67.422	781.839	-0.110	0.298
-66.407	-73.033	0.207	0.075
-65.392	110.845	-0.264	0.314
-64.378	177.661	0.241	-0.347
-63.363	800.000	0.091	-0.275
-62.349	-200.000	0.035	0.161
-61.334	59.620	-0.956	-0.932
-60.319	-12.016	0.436	0.282
-59.305	392.624	-0.438	-0.899
-58.290	412.372	0.421	0.883
-57.276	678.289	0.512	1.316
-56.261	-200.000	94.559	567.548
-55.246	551.524	1376.558	3264.868
-54.232	154.566	2566.490	3482.278
-53.217	116.048	2183.527	2641.197
-52.203	46.927	1721.019	1580.647
-51.188	39.532	1530.550	1355.051
-50.173	36.922	1503.849	1313.690
-49.159	55.485	1553.458	1485.357
-48.144	59.579	1573.154	1532.332
-47.130	39.802	1528.572	1354.938
-46.115	36.617	1512.604	1319.048
-45.100	36.424	1509.466	1314.950
-44.086	36.340	1507.917	1312.976
-43.071	36.390	1505.996	1311.593
-42.057	36.250	1504.427	1309.221
-41.042	36.348	1502.681	1308.316
-40.027	36.331	1501.339	1306.981
-39.013	36.311	1500.044	1305.667
-37.998	36.422	1498.503	1305.018
-36.984	36.370	1497.461	1303.708
-35.969	36.374	1495.802	1302.244
-34.954	36.368	1494.498	1301.018
-33.940	36.339	1492.962	1299.432
-32.925	36.394	1491.490	1298.465
-31.911	36.443	1490.253	1297.672
-30.896	36.487	1488.967	1296.792
-29.881	36.449	1488.471	1296.057
-28.867	36.516	1486.581	1294.807
-27.852	36.480	1484.873	1293.030
-26.838	36.533	1483.189	1291.860
-25.823	36.552	1481.752	1290.686
-24.809	36.457	1480.446	1288.865
-23.794	36.424	1479.118	1287.435
-22.779	36.339	1478.419	1286.212
-21.765	36.476	1477.002	1285.842
-20.750	36.488	1475.900	1284.906
-19.736	36.421	1474.831	1283.478
-18.721	36.474	1473.166	1282.331
-17.706	36.418	1471.862	1280.774
-16.692	36.359	1471.389	1279.922
-15.677	36.361	1470.333	1278.967
-14.663	36.388	1469.099	1278.020
-13.648	36.363	1468.417	1277.212
-12.633	36.329	1467.683	1276.300
-11.619	36.428	1466.292	1275.693
-10.604	36.418	1465.319	1274.725
-9.590	36.294	1464.968	1273.558
-8.575	36.320	1464.274	1273.075
-7.560	36.431	1463.254	1272.867
-6.546	36.452	1462.072	1271.925
-5.531	36.378	1461.524	1270.913
-4.517	36.449	1460.341	1270.297
-3.502	36.317	1459.793	1268.906
-2.487	36.414	1458.085	1268.009
-1.473	36.419	1457.116	1267.147
-0.458	36.396	1455.472	1265.513
0.556	33.944	1445.056	1250.410
1.571	29.268	1416.368	1195.239
2.586	23.981	1350.943	1107.128
3.600	21.304	1266.594	1022.270
4.615	19.686	1219.716	975.225
5.629	17.798	1166.798	922.629
6.644	12.711	1088.119	834.619
7.659	8.389	1048.568	783.062
8.673	7.567	1043.493	775.194
9.688	7.484	1040.340	772.380
10.702	7.423	1038.714	770.809
11.717	7.455	1036.425	769.198
12.731	9.281	1038.023	779.173
13.746	14.119	1044.673	807.640
14.761	17.525	1048.489	827.093
15.775	17.614	1047.721	826.847
16.790	16.700	1045.819	820.840
17.804	15.503	1043.840	813.418
18.819	14.747	1041.540	807.901
19.834	14.285	1039.831	804.274
20.848	13.966	1039.097	802.093
21.863	13.656	1038.851	800.338
22.877	13.487	1037.778	798.626
23.892	13.214	1036.725	796.429
24.907	13.120	1035.795	795.192
25.921	13.243	1035.521	795.503
26.936	13.254	1034.642	794.809
27.950	13.203	1033.715	793.783
28.965	13.239	1032.277	792.781
29.980	13.288	1031.211	792.127
30.994	13.346	1030.778	792.002
32.009	13.343	1029.277	790.765
33.023	13.411	1028.913	790.740
34.038	13.572	1027.668	790.478
35.053	13.481	1026.602	789.156
36.067	13.490	1025.654	788.398
37.082	13.379	1025.043	787.332
38.096	13.324	1024.715	786.752
39.111	13.438	1023.647	786.399
40.126	13.464	1022.503	785.574
41.140	13.243	1021.728	783.865
42.155	13.218	1020.474	782.712
43.169	13.163	1020.025	782.039
44.184	13.186	1018.521	780.927
45.199	13.195	1016.994	779.731
46.213	13.096	1016.671	778.947
47.228	13.106	1016.111	778.495
48.242	13.318	1014.615	778.276
49.257	13.377	1013.722	777.802
50.271	13.477	1012.525	777.282
51.286	13.302	1012.185	776.131
52.301	13.373	1010.761	775.306
53.315	13.301	1010.651	774.813
54.330	13.347	1009.890	774.377
55.344	13.237	1008.683	772.869
56.359	13.287	1007.724	772.299
57.374	13.292	1006.848	771.583
58.388	13.235	1006.171	770.729
59.403	13.026	1005.870	769.455
60.417	13.102	1004.689	768.841
61.432	13.112	1004.112	768.378
62.447	13.176	1003.171	767.887
63.461	13.050	1002.520	766.732
64.476	12.957	1001.698	765.607
65.490	13.141	1000.449	765.439
66.505	13.036	999.810	764.394
67.520	13.181	998.750	764.186
68.534	13.053	998.720	763.505
69.549	13.202	997.243	762.997
70.563	13.156	996.798	762.376
71.578	13.129	996.055	761.613
72.593	12.994	995.188	760.264
73.607	12.986	994.099	759.328
74.622	12.937	993.401	758.502
75.636	12.902	992.352	757.472
76.651	13.056	991.485	757.448
77.666	13.075	990.596	756.791
78.680	13.023	989.777	755.858
79.695	13.015	989.672	755.674
80.709	12.920	989.651	755.159
81.724	13.120	988.133	754.846
82.739	13.140	987.786	754.607
83.753	13.275	986.878	754.461
84.768	13.245	986.307	753.823
85.782	13.343	985.503	753.590
86.797	13.456	984.604	753.347
87.812	13.531	983.598	752.852
88.826	13.382	982.799	751.498
89.841	13.338	982.107	750.701
90.855	13.306	981.615	750.115
91.870	13.343	980.934	749.697
92.884	13.294	980.117	748.782
93.899	13.321	979.575	748.424
94.914	13.528	978.284	748.307
95.928	13.457	977.935	747.653
96.943	13.492	977.095	747.106
97.957	13.434	976.433	746.269
98.972	13.347	975.555	745.142
99.987	13.415	974.967	744.932
101.001	13.518	973.982	744.577
102.016	13.439	973.085	743.471
103.030	13.346	972.362	742.435
104.045	13.372	971.642	741.936
105.060	13.339	970.870	741.134
106.074	13.339	969.714	740.187
107.089	13.310	968.581	739.123
108.103	13.272	967.531	738.089
109.118	13.083	967.031	736.797
110.133	13.050	966.270	736.005
111.147	13.016	965.588	735.268
112.162	13.155	964.300	734.841
113.176	13.111	963.600	734.048
114.191	13.266	962.613	733.920
115.206	13.261	961.858	733.258
116.220	13.243	961.420	732.779
117.235	13.119	960.238	731.263
118.249	13.252	959.691	731.371
119.264	13.336	958.596	730.846
120.279	13.258	957.611	729.685
121.293	13.123	957.361	728.832
122.308	13.082	956.418	727.869
123.322	13.123	955.500	727.286
124.337	13.100	954.487	726.349
125.352	13.135	953.458	725.657
126.366	12.967	952.526	724.148
127.381	13.224	950.893	723.966
128.395	13.084	950.351	722.879
129.410	13.220	949.161	722.501
130.424	13.161	948.526	721.696
131.439	13.185	947.633	721.058
132.454	13.262	947.082	720.911
133.468	13.214	945.886	719.727
134.483	13.245	945.755	719.700
135.497	13.265	944.881	719.057
136.512	13.194	944.205	718.170
137.527	13.248	943.548	717.843
138.541	13.242	942.640	717.061
139.556	13.252	941.848	716.439
140.570	13.385	940.697	716.075
141.585	13.237	940.379	715.133
142.600	13.555	939.607	715.854
143.614	13.466	938.874	714.849
144.629	13.509	938.007	714.312
145.643	13.321	937.730	713.225
146.658	13.522	936.468	713.068
147.673	13.536	935.311	712.185
148.687	13.420	934.593	711.077
149.702	13.258	933.911	709.800
150.716	13.369	932.819	709.384
151.731	13.281	932.029	708.341
152.746	13.351	931.166	707.925
153.760	13.379	930.494	707.469
154.775	13.237	930.116	706.514
155.789	13.430	929.088	706.491
156.804	13.431	928.464	705.959
157.819	13.380	927.731	705.121
158.833	13.338	927.270	704.533
159.848	13.582	926.372	704.825
160.862	13.524	926.087	704.299
161.877	13.469	925.268	703.381
162.892	13.440	924.290	702.452
163.906	13.309	923.644	701.345
164.921	13.422	922.574	700.947
165.935	13.386	921.475	699.896
166.950	13.497	920.278	699.397
167.964	13.479	919.791	698.885
168.979	13.576	918.526	698.272
169.994	13.429	917.477	696.798
171.008	13.418	917.065	696.373
172.023	13.518	916.367	696.204
173.037	13.563	915.608	695.756
174.052	13.518	915.347	695.306
175.067	13.627	914.012	694.687
176.081	13.626	913.064	693.901
177.096	13.363	912.813	692.547
178.110	13.433	911.807	692.017
179.125	13.505	911.358	691.916
180.140	13.500	910.176	690.934
181.154	13.484	909.543	690.328
182.169	13.406	909.060	689.575
183.183	13.526	908.621	689.680
184.198	13.658	907.746	689.503
185.213	13.633	907.060	688.819
186.227	13.798	906.152	688.751
187.242	13.617	906.415	688.138
188.256	13.723	905.088	687.511
189.271	13.820	904.396	687.325
190.286	13.738	904.089	686.694
191.300	13.741	902.943	685.773
192.315	13.545	902.067	684.238
193.329	13.514	901.831	683.868
194.344	13.430	901.039	682.864
195.359	13.572	900.467	682.956
196.373	13.782	900.119	683.496
197.388	13.738	899.155	682.520
198.402	13.774	899.039	682.521
199.417	13.975	898.478	682.860
200.432	14.006	897.958	682.531
201.446	13.991	897.765	682.264
202.461	14.082	896.840	681.876
203.475	14.165	896.788	682.114
204.490	14.048	895.962	680.948
205.504	13.945	895.605	680.195
206.519	13.951	894.507	679.324
207.534	13.943	893.900	678.768
208.548	14.013	892.951	678.274
209.563	13.872	892.449	677.256
210.577	13.897	891.818	676.823
211.592	14.011	891.050	676.643
212.607	14.127	890.379	676.546
213.621	14.113	889.807	675.993
214.636	14.089	889.466	675.579
215.650	14.204	888.631	675.352
216.665	14.120	888.253	674.664
217.680	14.131	887.728	674.250
218.694	14.211	887.016	673.971
219.709	14.212	886.795	673.749
220.723	14.257	885.914	673.201
221.738	14.276	885.148	672.635
222.753	14.033	884.838	671.360
223.767	14.253	883.676	671.306
224.782	14.267	883.075	670.846
225.796	14.204	882.530	670.120
226.811	14.318	882.081	670.180
227.826	14.391	881.068	669.645
228.840	14.363	880.376	668.946
229.855	14.335	879.610	668.193
230.869	14.401	878.848	667.820
231.884	14.287	878.560	667.085
232.899	14.217	877.880	666.229
233.913	14.143	877.507	665.588
234.928	14.099	877.005	664.974
235.942	14.206	875.810	664.438
236.957	14.161	875.063	663.631
237.972	14.115	874.456	662.931
238.986	14.274	873.564	662.828
240.001	14.246	873.368	662.510
241.015	14.306	872.578	662.091
242.030	14.332	871.909	661.625
243.045	14.256	871.402	660.882
244.059	14.359	870.778	660.759
245.074	14.438	869.986	660.414
246.088	14.568	869.270	660.326
247.103	14.486	869.175	659.868
248.117	14.402	868.349	658.851
249.132	14.563	867.798	659.012
250.147	14.726	867.206	659.146
251.161	14.711	867.063	658.919
252.176	14.685	866.124	658.049
253.190	14.892	865.114	658.035
254.205	14.767	865.209	657.558
255.220	14.958	864.301	657.562
256.234	14.828	863.584	656.447
257.249	14.765	862.879	655.606
258.263	14.784	862.616	655.421
259.278	15.054	861.373	655.477
260.293	14.936	861.404	654.981
261.307	14.991	860.577	654.509
262.322	14.917	860.361	653.995
263.336	14.923	859.920	653.626
264.351	14.960	858.803	652.866
265.366	15.109	858.231	652.953
266.380	14.988	857.799	652.095
267.395	15.119	856.911	651.874
268.409	15.046	856.585	651.284
269.424	15.033	855.595	650.421
270.439	15.030	854.986	649.891
271.453	15.041	854.290	649.346
272.468	15.093	853.872	649.173
273.482	15.126	852.904	648.506
274.497	15.074	852.429	647.888
275.512	15.101	851.787	647.447
276.526	15.010	851.320	646.681
277.541	15.029	850.687	646.219
278.555	15.014	849.947	645.542
279.570	15.112	849.441	645.476
280.585	15.138	849.406	645.494
281.599	15.218	848.146	644.788
282.614	15.363	847.357	644.687
283.628	15.196	846.982	643.703
284.643	15.348	846.311	643.720
285.657	15.279	845.880	643.070
286.672	15.201	845.797	642.649
287.687	15.017	845.510	641.672
288.701	15.206	844.644	641.679
289.716	15.340	843.978	641.632
290.730	15.217	843.142	640.467
291.745	15.341	842.654	640.514
292.760	15.410	841.730	640.017
293.774	15.340	841.647	639.633
294.789	15.400	841.309	639.545
295.803	15.558	840.039	639.127
296.818	15.380	839.924	638.303
297.833	15.347	839.220	637.587
298.847	15.406	838.203	636.984
299.862	15.452	837.403	636.494
300.876	15.433	837.009	636.063
301.891	15.517	836.497	635.937
302.906	15.567	835.809	635.549
303.920	15.509	835.445	634.995
304.935	15.580	834.745	634.677
305.949	15.721	833.858	634.476
306.964	15.726	833.130	633.886
307.979	15.628	832.867	633.259
308.993	15.716	832.398	633.178
310.008	15.630	831.820	632.358
311.022	15.728	831.266	632.250
312.037	15.642	830.944	631.628
313.052	15.675	830.660	631.480
314.066	15.673	829.678	630.669
315.081	15.507	829.346	629.738
316.095	15.529	828.720	629.292
317.110	15.493	828.430	628.878
318.125	15.530	827.847	628.519
319.139	15.646	827.105	628.333
320.154	15.671	826.599	627.986
321.168	15.525	826.078	626.990
322.183	15.589	825.874	627.019
323.197	15.626	825.142	626.546
324.212	15.898	824.423	626.960
325.227	15.693	824.037	625.845
326.241	15.738	823.352	625.439
327.256	15.780	822.848	625.154
328.270	15.846	822.138	624.807
329.285	15.744	821.623	623.982
330.300	15.751	820.781	623.311
331.314	15.681	820.490	622.778
332.329	15.798	819.991	622.777
333.343	15.631	819.429	621.676
334.358	15.958	818.817	622.364
335.373	15.949	817.992	621.651
336.387	15.976	817.932	621.648
337.402	15.959	817.375	621.109
338.416	16.098	816.392	620.816
339.431	16.127	816.176	620.705
340.446	16.185	815.478	620.332
341.460	16.109	814.782	619.471
342.475	16.119	814.685	619.378
343.489	16.038	814.048	618.542
344.504	16.178	813.551	618.622
345.519	16.187	813.157	618.303
346.533	16.311	812.379	618.107
347.548	16.210	812.091	617.466
348.562	16.229	811.522	617.046
349.577	16.131	810.719	616.026
350.592	16.165	810.410	615.858
351.606	16.113	810.108	615.384
352.621	16.089	809.166	614.526
353.635	16.185	809.134	614.800
354.650	16.207	808.552	614.383
355.665	16.182	808.272	614.025
356.679	16.302	807.518	613.833
357.694	16.205	807.192	613.179
358.708	16.292	806.767	613.119
359.723	16.164	806.604	612.474
360.738	16.281	805.407	611.934
361.752	16.357	804.957	611.814
362.767	16.363	804.447	611.395
363.781	16.354	804.592	611.417
364.796	16.275	804.096	610.703
365.810	16.367	803.741	610.710
366.825	16.354	803.512	610.436
367.840	16.594	803.026	610.880
368.854	16.564	802.426	610.262
369.869	16.602	801.825	609.886
370.883	16.575	800.835	608.984
371.898	16.466	800.554	608.324
372.913	16.532	800.144	608.196
373.927	16.691	799.637	608.328
374.942	16.655	798.629	607.379
375.956	16.660	798.183	607.002
376.971	16.703	797.743	606.769
377.986	16.662	797.375	606.287
379.000	16.875	796.681	606.467
380.015	16.773	796.435	605.863
381.029	16.663	795.974	605.063
382.044	16.764	795.021	604.648
383.059	16.846	794.974	604.852
384.073	16.900	794.214	604.414
385.088	16.763	793.612	603.412
386.102	16.859	793.050	603.272
387.117	16.777	792.225	602.300
388.132	16.745	792.179	602.098
389.146	16.640	791.998	601.534
390.161	16.773	791.418	601.513
391.175	16.775	791.265	601.349
392.190	16.808	790.808	601.068
393.205	16.827	790.270	600.673
394.219	16.848	789.952	600.451
395.234	16.712	789.290	599.414
396.248	16.648	788.941	598.868
397.263	16.745	788.373	598.727
398.278	16.610	787.782	597.749
399.292	16.759	787.270	597.834
400.307	16.777	786.574	597.317
401.321	16.718	786.701	597.153
402.336	16.731	786.281	596.826
403.350	16.917	785.652	596.949
404.365	16.816	785.440	596.382
405.380	16.894	785.155	596.387
406.394	16.878	784.649	595.892
407.409	17.052	784.123	596.053
408.423	16.977	783.503	595.266
409.438	17.128	783.071	595.415
410.453	17.050	782.817	594.895
411.467	17.144	782.201	594.703
412.482	17.080	781.918	594.210
413.496	17.256	781.301	594.305
414.511	17.190	781.060	593.840
415.526	17.334	780.674	593.996
416.540	17.148	780.314	593.020
417.555	17.172	780.019	592.825
418.569	17.261	779.755	592.885
419.584	17.406	778.688	592.527
420.599	17.347	778.344	592.005
421.613	102.576	1280.035	1434.229
422.628	87.455	1353.143	1434.334
