DTS Sentinel unit serial number:	SN413079Multiplexer serial number:	ORYXHardware model number:	OX4-SRSoftware version number:	ORYX F/W v4.00 Oryx Data Collector v3.7.2.0data status	okinstallation	princeton_trtdifferential loss correction	single-endedforward channel	channel 3reverse channel	N/Adate	2019/09/17time	10:56:35forward acquisition time	60.00reverse acquisition time	0.00gamma	496.2192k internal	0.2322k external	0.2322temperature offset calibration	0.9945default loss term (dB/km)	0.3790temperature slope calibration	1.0000multiplexer offset coefficient	1.0000multiplexer slope coefficient	1.0000fibre end	0.00T internal ref (°C)	30.27T ext. ref 1 (°C)	0.18T ext. ref 2 (°C)	25.83length (m)	temperature (°C)	Stokes	anti-Stokes-747.200	27.061	0.094	0.080
-746.185	34.904	-0.315	0.278
-745.171	-200.000	-0.043	0.256
-744.156	240.764	0.175	0.294
-743.142	28.578	0.135	0.116
-742.127	-200.000	-0.008	-0.193
-741.112	-35.033	0.111	-0.061
-740.098	-200.000	0.018	0.231
-739.083	-200.000	0.005	-0.377
-738.069	-51.377	0.074	-0.035
-737.054	31.884	-0.036	0.032
-736.039	-39.116	-0.109	0.058
-735.025	368.471	0.139	0.284
-734.010	32.296	-0.180	-0.157
-732.996	-154.063	0.127	0.009
-731.981	-158.149	0.082	0.005
-730.966	-98.286	0.128	-0.033
-729.952	-123.397	-0.247	0.040
-728.937	-43.929	-0.053	-0.027
-727.923	129.139	-0.104	0.134
-726.908	-113.713	-0.225	-0.044
-725.894	800.000	0.093	-0.288
-724.879	-44.077	-0.411	-0.209
-723.864	-30.172	-0.332	-0.190
-722.850	428.382	-0.066	-0.145
-721.835	22.931	0.055	0.045
-720.821	-37.582	-0.379	-0.204
-719.806	38.610	-0.150	-0.135
-718.791	-200.000	0.064	-0.303
-717.777	800.000	-0.032	-0.107
-716.762	-120.774	-0.203	-0.035
-715.748	387.880	-0.137	-0.285
-714.733	-31.303	0.079	-0.045
-713.718	124.724	0.216	0.274
-712.704	399.375	-0.096	0.202
-711.689	-90.562	0.310	0.090
-710.675	107.996	-0.124	-0.149
-709.660	209.860	-0.168	0.266
-708.645	-34.076	-0.214	-0.119
-707.631	-54.354	-0.249	0.114
-706.616	661.108	0.099	0.256
-705.602	800.000	-0.018	0.070
-704.587	-200.000	0.023	0.134
-703.572	235.990	-0.133	-0.222
-702.558	-137.366	0.101	-0.012
-701.543	78.875	-0.195	0.210
-700.529	-40.941	0.257	0.134
-699.514	-200.000	-0.001	0.039
-698.499	-100.371	0.281	-0.070
-697.485	101.093	0.090	0.106
-696.470	-85.013	-0.227	0.072
-695.456	-31.080	-0.238	-0.136
-694.441	36.261	0.127	-0.113
-693.426	-119.399	-0.049	-0.009
-692.412	-200.000	0.015	-0.129
-691.397	241.582	0.131	0.220
-690.383	243.328	-0.146	0.247
-689.368	-84.339	-0.291	0.093
-688.354	800.000	0.018	-0.069
-687.339	285.386	-0.153	-0.277
-686.324	-164.427	-0.242	-0.011
-685.310	-98.197	-0.165	-0.043
-684.295	109.669	0.311	-0.376
-683.281	495.581	0.097	0.225
-682.266	127.007	-0.151	0.192
-681.251	-200.000	0.046	0.274
-680.237	800.000	0.022	-0.074
-679.222	-107.126	-0.585	-0.130
-678.208	-28.221	0.116	0.067
-677.193	158.946	-0.089	0.125
-676.178	800.000	0.036	0.115
-675.164	2.122	-0.199	0.145
-674.149	-200.000	-0.009	-0.228
-673.135	49.382	0.032	-0.030
-672.120	187.037	0.116	-0.174
-671.105	-200.000	-0.017	-0.274
-670.091	-78.461	0.503	-0.173
-669.076	-95.736	-0.143	-0.038
-668.062	-200.000	0.045	-0.201
-667.047	-103.361	-0.109	0.026
-666.032	-76.674	0.364	0.128
-665.018	61.092	-0.201	-0.201
-664.003	-200.000	0.021	0.255
-662.989	-187.562	-0.173	0.002
-661.974	504.448	0.093	-0.217
-660.959	-74.585	0.033	-0.012
-659.945	-200.000	0.100	-0.446
-658.930	100.123	-0.217	-0.253
-657.916	-200.000	0.262	-0.001
-656.901	298.905	-0.067	0.124
-655.886	-131.237	0.166	0.022
-654.872	800.000	0.067	-0.210
-653.857	363.567	-0.030	-0.061
-652.843	95.531	0.155	0.178
-651.828	-55.772	0.269	-0.121
-650.814	249.397	-0.150	-0.256
-649.799	-200.000	0.008	0.116
-648.784	-142.261	0.117	-0.012
-647.770	-200.000	0.013	0.139
-646.755	-157.188	-0.215	0.013
-645.741	-61.789	0.095	-0.040
-644.726	234.379	0.133	0.221
-643.711	533.335	0.086	0.205
-642.697	179.409	0.017	0.025
-641.682	-200.000	-0.053	-0.364
-640.668	60.334	-0.139	-0.138
-639.653	-5.537	0.230	-0.159
-638.638	137.330	-0.157	-0.206
-637.624	745.466	0.040	0.107
-636.609	-151.632	0.294	-0.022
-635.595	127.169	0.118	-0.151
-634.580	-200.000	0.057	0.361
-633.565	361.017	-0.122	-0.247
-632.551	-44.392	-0.302	0.152
-631.536	132.279	-0.047	0.060
-630.522	-200.000	0.033	-0.318
-629.507	-200.000	-0.008	-0.203
-628.492	277.748	-0.145	-0.259
-627.478	19.473	0.078	0.063
-626.463	-200.000	-0.059	-0.271
-625.449	272.152	0.224	0.398
-624.434	643.307	-0.134	-0.344
-623.419	-200.000	0.040	0.321
-622.405	-200.000	0.002	0.254
-621.390	-68.835	-0.140	0.054
-620.376	-162.709	0.173	-0.009
-619.361	-163.642	-0.251	-0.012
-618.346	77.811	0.342	0.366
-617.332	368.961	-0.209	0.425
-616.317	-116.769	-0.146	-0.027
-615.303	580.350	-0.117	-0.289
-614.288	165.819	-0.096	-0.136
-613.273	-98.248	0.088	0.023
-612.259	-118.834	-0.170	0.030
-611.244	800.000	0.029	-0.089
-610.230	-136.157	-0.156	-0.018
-609.215	-200.000	-0.002	-0.038
-608.201	-76.363	0.387	0.137
-607.186	-19.765	-0.222	-0.138
-606.171	148.599	-0.090	0.122
-605.157	-44.963	-0.326	-0.163
-604.142	-200.000	0.013	-0.142
-603.128	-52.453	-0.117	-0.054
-602.113	-61.064	-0.345	-0.146
-601.098	106.970	0.190	-0.227
-600.084	800.000	-0.130	-0.382
-599.069	-57.137	-0.337	0.149
-598.055	800.000	-0.071	-0.200
-597.040	-200.000	0.011	-0.238
-596.025	8.410	-0.041	0.031
-595.011	-200.000	0.003	-0.218
-593.996	-50.884	0.147	-0.070
-592.982	110.172	0.196	0.237
-591.967	-63.164	0.304	0.126
-590.952	-24.009	-0.219	0.132
-589.938	800.000	0.073	0.225
-588.923	-200.000	-0.021	0.268
-587.909	451.034	0.068	-0.150
-586.894	800.000	-0.031	-0.093
-585.879	-200.000	-0.025	0.281
-584.865	52.428	0.082	-0.079
-583.850	-107.234	-0.477	0.106
-582.836	-186.425	0.259	-0.004
-581.821	-15.272	-0.057	0.036
-580.806	-13.399	0.042	-0.027
-579.792	-52.859	-0.314	0.145
-578.777	-44.877	0.297	-0.148
-577.763	20.852	-0.150	0.122
-576.748	-104.742	0.193	0.044
-575.733	800.000	0.059	0.204
-574.719	-200.000	0.021	-0.224
-573.704	-200.000	-0.026	0.198
-572.690	234.391	0.042	0.070
-571.675	800.000	0.098	-0.282
-570.661	127.860	0.083	-0.106
-569.646	-200.000	-0.037	0.207
-568.631	800.000	0.071	-0.204
-567.617	233.880	0.076	0.126
-566.602	192.902	-0.132	-0.200
-565.588	-200.000	0.017	-0.414
-564.573	-115.235	0.162	-0.031
-563.558	-200.000	-0.026	0.202
-562.544	334.609	0.079	-0.153
-561.529	800.000	-0.129	-0.392
-560.515	-115.269	0.286	-0.054
-559.500	-151.809	0.253	-0.019
-558.485	-76.603	-0.284	-0.100
-557.471	203.521	-0.137	-0.212
-556.456	-200.000	0.027	0.147
-555.442	-147.178	-0.119	-0.010
-554.427	4.541	-0.135	0.099
-553.412	295.616	0.037	0.069
-552.398	413.420	0.142	-0.302
-551.383	800.000	-0.028	-0.080
-550.369	776.642	0.126	-0.344
-549.354	-200.000	0.026	-0.273
-548.339	-14.155	-0.232	-0.150
-547.325	-200.000	0.001	-0.223
-546.310	-200.000	-0.006	0.257
-545.296	-5.448	0.053	0.036
-544.281	-200.000	-0.042	-0.296
-543.266	-52.216	-0.138	-0.064
-542.252	62.324	0.157	0.157
-541.237	-200.000	-0.004	-0.030
-540.223	-200.000	-0.020	-0.109
-539.208	405.166	-0.111	0.235
-538.193	-167.273	0.194	0.008
-537.179	-38.665	-0.188	0.100
-536.164	-200.000	-0.026	-0.274
-535.150	-52.007	-0.228	-0.106
-534.135	-43.389	0.384	0.195
-533.121	-128.131	0.050	-0.007
-532.106	-200.000	-0.032	0.216
-531.091	704.869	-0.040	-0.104
-530.077	-86.205	-0.188	-0.058
-529.062	-89.444	0.017	0.005
-528.048	-200.000	-0.022	-0.115
-527.033	-53.151	-0.008	0.004
-526.018	11.612	0.353	-0.271
-525.004	-21.485	0.188	0.115
-523.989	-200.000	0.007	0.188
-522.975	59.389	-0.337	0.332
-521.960	-33.347	-0.274	0.152
-520.945	510.479	0.106	-0.247
-519.931	520.960	-0.090	-0.211
-518.916	-200.000	0.008	-0.150
-517.902	-200.000	0.045	0.462
-516.887	40.100	-0.299	0.269
-515.872	174.126	0.135	0.195
-514.858	398.137	-0.151	0.317
-513.843	800.000	-0.026	0.098
-512.829	-200.000	-0.015	0.321
-511.814	76.581	-0.111	0.118
-510.799	798.042	-0.063	-0.173
-509.785	-100.542	0.188	-0.047
-508.770	-15.521	0.120	0.077
-507.756	-200.000	-0.005	0.126
-506.741	-109.186	-0.149	0.032
-505.726	110.345	0.097	-0.117
-504.712	138.781	-0.223	-0.293
-503.697	59.638	0.178	0.176
-502.683	-58.274	-0.125	-0.054
-501.668	81.331	0.138	0.149
-500.653	48.303	0.182	0.170
-499.639	800.000	-0.060	-0.191
-498.624	-126.775	-0.263	-0.039
-497.610	124.458	0.031	-0.039
-496.595	800.000	-0.046	-0.180
-495.581	-200.000	-0.030	0.219
-494.566	-108.477	0.212	0.046
-493.551	-195.723	0.147	-0.001
-492.537	31.467	-0.273	0.234
-491.522	25.291	0.058	0.048
-490.508	107.048	-0.188	0.223
-489.493	0.676	-0.294	-0.211
-488.478	364.175	0.160	0.321
-487.464	-131.636	-0.167	-0.022
-486.449	-23.929	0.010	-0.006
-485.435	-118.352	0.109	-0.019
-484.420	729.686	0.075	-0.199
-483.405	-200.000	0.061	-0.418
-482.391	300.918	-0.111	-0.205
-481.376	-200.000	-0.051	0.235
-480.362	304.885	-0.107	-0.199
-479.347	447.414	0.119	0.263
-478.332	70.033	0.131	0.135
-477.318	-69.997	-0.299	0.114
-476.303	-104.985	0.268	-0.061
-475.289	-200.000	-0.072	-0.432
-474.274	-87.898	-0.026	-0.008
-473.259	-86.998	-0.231	-0.070
-472.245	132.155	-0.180	0.232
-471.230	168.810	0.129	0.183
-470.216	-132.088	0.432	-0.056
-469.201	-61.596	-0.413	-0.173
-468.186	31.326	0.300	-0.258
-467.172	47.976	-0.143	0.134
-466.157	208.669	-0.131	-0.205
-465.143	800.000	-0.112	-0.483
-464.128	76.819	0.174	-0.184
-463.113	11.104	0.147	-0.112
-462.099	-124.851	-0.291	0.045
-461.084	139.697	0.176	-0.232
-460.070	161.787	-0.036	0.051
-459.055	-129.129	-0.173	0.024
-458.040	-51.935	-0.168	0.078
-457.026	-200.000	-0.069	0.314
-456.011	311.249	0.153	0.286
-454.997	-200.000	-0.048	0.310
-453.982	116.251	0.161	0.197
-452.968	86.924	-0.127	-0.140
-451.953	-200.000	-0.008	-0.146
-450.938	-5.784	-0.063	0.043
-449.924	-105.394	-0.101	0.023
-448.909	-171.656	-0.172	-0.006
-447.895	-35.255	0.240	0.131
-446.880	-5.125	-0.107	-0.073
-445.865	-200.000	0.029	-0.159
-444.851	-86.714	0.202	-0.062
-443.836	-147.464	0.187	-0.016
-442.822	800.000	-0.020	-0.070
-441.807	800.000	0.031	-0.105
-440.792	-111.243	-0.267	-0.054
-439.778	-200.000	-0.080	-0.356
-438.763	-106.142	0.375	0.084
-437.749	800.000	0.010	0.032
-436.734	-92.900	0.100	-0.028
-435.719	-95.450	-0.177	0.048
-434.705	-200.000	-0.007	0.234
-433.690	-22.400	0.078	0.047
-432.676	-51.131	0.318	-0.149
-431.661	-63.397	0.180	-0.074
-430.646	477.329	0.061	-0.139
-429.632	-96.662	0.339	-0.089
-428.617	-9.449	-0.219	-0.146
-427.603	-200.000	-0.038	0.190
-426.588	88.243	-0.082	-0.091
-425.573	-12.815	-0.377	-0.245
-424.559	193.068	-0.099	0.149
-423.544	146.547	0.082	-0.110
-422.530	158.762	-0.236	0.327
-421.515	126.883	0.332	-0.419
-420.500	800.000	-0.036	0.146
-419.486	57.971	0.512	0.500
-418.471	-110.675	-0.221	0.046
-417.457	-42.179	0.070	-0.036
-416.442	-71.595	-0.157	-0.058
-415.428	-121.054	0.344	0.058
-414.413	-65.175	0.075	-0.030
-413.398	65.693	0.027	-0.028
-412.384	-200.000	-0.019	-0.174
-411.369	-32.888	0.019	0.010
-410.355	-142.239	0.252	0.025
-409.340	100.524	0.073	-0.085
-408.325	-200.000	0.044	0.612
-407.311	-75.469	-0.232	0.082
-406.296	278.292	-0.136	-0.242
-405.282	310.028	0.099	-0.184
-404.267	800.000	0.043	-0.169
-403.252	-92.243	-0.133	-0.037
-402.238	134.591	-0.107	-0.138
-401.223	-200.000	0.013	-0.187
-400.209	-120.184	0.512	-0.087
-399.194	-140.815	-0.069	0.007
-398.179	110.897	0.151	-0.182
-397.165	-67.109	0.128	0.050
-396.150	77.544	0.102	-0.108
-395.136	800.000	-0.145	-0.404
-394.121	188.801	-0.168	0.250
-393.106	284.713	-0.158	-0.283
-392.092	48.280	0.110	-0.103
-391.077	-161.257	-0.188	0.010
-390.063	-46.811	-0.141	0.069
-389.048	95.947	0.253	0.288
-388.033	15.907	0.140	-0.110
-387.019	-50.913	-0.221	0.103
-386.004	50.153	-0.144	0.136
-384.990	-61.024	-0.166	0.070
-383.975	800.000	-0.080	0.255
-382.960	-0.266	0.194	0.137
-381.946	-148.000	0.288	0.024
-380.931	-157.982	-0.146	0.009
-379.917	101.050	0.132	0.153
-378.902	-200.000	-0.021	0.147
-377.888	490.047	-0.063	-0.144
-376.873	-57.260	-0.226	0.099
-375.858	-200.000	0.003	0.036
-374.844	31.928	-0.135	0.116
-373.829	800.000	-0.027	-0.090
-372.815	117.664	0.250	-0.306
-371.800	71.292	-0.110	-0.114
-370.785	800.000	0.153	0.435
-369.771	241.488	0.040	0.067
-368.756	722.824	-0.067	0.179
-367.742	-200.000	-0.093	0.410
-366.727	-30.059	0.275	-0.156
-365.712	-200.000	-0.004	-0.047
-364.698	217.938	-0.059	-0.093
-363.683	60.946	-0.162	-0.160
-362.669	-80.711	-0.171	-0.057
-361.654	185.913	0.116	0.172
-360.639	-58.399	-0.326	-0.141
-359.625	-96.753	-0.135	0.035
-358.610	-200.000	0.037	0.249
-357.596	21.189	-0.059	0.047
-356.581	194.919	-0.156	0.236
-355.566	44.512	0.215	0.197
-354.552	-82.661	-0.012	0.004
-353.537	331.768	0.040	0.077
-352.523	800.000	0.081	0.253
-351.508	-89.597	0.113	-0.033
-350.493	-200.000	0.011	-0.119
-349.479	82.223	0.312	-0.337
-348.464	-200.000	0.016	-0.322
-347.450	-200.000	0.008	0.166
-346.435	239.148	-0.211	-0.349
-345.420	-83.112	0.227	0.073
-344.406	469.783	0.096	0.214
-343.391	-69.064	0.046	0.018
-342.377	49.992	0.046	-0.043
-341.362	-129.968	0.248	-0.034
-340.348	134.211	-0.144	0.186
-339.333	-89.774	0.299	-0.087
-338.318	-200.000	0.039	0.220
-337.304	62.505	-0.086	0.085
-336.289	-200.000	0.014	-0.089
-335.275	-48.357	-0.092	0.044
-334.260	-200.000	-0.011	-0.206
-333.245	180.774	0.025	-0.037
-332.231	-200.000	-0.005	0.025
-331.216	800.000	-0.073	-0.292
-330.202	19.851	-0.039	0.032
-329.187	-200.000	0.034	0.161
-328.172	-200.000	0.087	0.417
-327.158	102.930	0.163	0.190
-326.143	463.903	-0.157	0.348
-325.129	-144.548	-0.235	0.022
-324.114	-76.244	0.091	0.032
-323.099	-180.863	-0.227	0.005
-322.085	123.677	-0.213	-0.265
-321.070	-200.000	0.014	-0.141
-320.056	-138.849	-0.238	-0.026
-319.041	-1.563	-0.263	0.184
-318.026	-120.859	0.144	0.024
-317.012	-200.000	-0.000	-0.044
-315.997	-200.000	-0.003	-0.063
-314.983	800.000	-0.036	0.121
-313.968	800.000	0.039	0.158
-312.953	-54.102	-0.261	0.118
-311.939	-82.219	-0.267	0.087
-310.924	-107.661	-0.374	0.081
-309.910	-200.000	-0.046	0.272
-308.895	95.016	-0.124	-0.140
-307.880	285.024	-0.102	-0.183
-306.866	54.597	-0.097	0.093
-305.851	-131.010	0.486	-0.064
-304.837	800.000	0.080	0.243
-303.822	-30.102	0.289	-0.163
-302.807	-193.472	0.032	0.000
-301.793	396.097	-0.064	-0.133
-300.778	-200.000	-0.028	0.135
-299.764	-26.041	0.114	0.066
-298.749	99.957	0.074	-0.085
-297.735	739.133	0.057	-0.153
-296.720	-192.712	0.507	-0.005
-295.705	-64.445	0.102	0.041
-294.691	139.113	-0.166	0.216
-293.676	-200.000	-0.015	-0.087
-292.662	-200.000	-0.025	-0.297
-291.647	171.582	-0.086	0.123
-290.632	-200.000	-0.002	-0.061
-289.618	-138.633	0.275	-0.030
-288.603	-9.957	-0.214	-0.141
-287.589	-22.396	0.073	-0.044
-286.574	51.661	0.288	0.272
-285.559	800.000	-0.029	-0.103
-284.545	12.043	-0.122	-0.093
-283.530	-27.055	0.060	-0.034
-282.516	-200.000	0.094	-0.483
-281.501	160.534	0.058	-0.081
-280.486	151.271	0.173	-0.234
-279.472	-48.136	-0.233	-0.112
-278.457	-105.898	0.210	-0.047
-277.443	-66.580	-0.294	-0.116
-276.428	-78.169	0.218	-0.074
-275.413	223.697	-0.064	-0.103
-274.399	-92.477	-0.154	0.043
-273.384	13.089	0.218	-0.168
-272.370	476.585	-0.122	-0.273
-271.355	303.568	0.129	0.236
-270.340	-56.276	0.305	-0.134
-269.326	-200.000	-0.016	-0.282
-268.311	-111.058	-0.327	-0.066
-267.297	-42.443	-0.056	-0.028
-266.282	225.891	0.095	-0.153
-265.267	800.000	-0.088	-0.318
-264.253	-56.251	0.303	0.134
-263.238	-200.000	-0.025	-0.114
-262.224	-200.000	0.031	0.381
-261.209	272.188	-0.129	0.226
-260.195	-200.000	-0.029	0.283
-259.180	15.313	0.144	0.112
-258.165	-113.565	-0.250	-0.048
-257.151	-44.434	0.183	-0.091
-256.136	8.293	0.017	0.013
-255.122	-61.152	0.163	0.068
-254.107	1.243	0.383	-0.273
-253.092	557.087	-0.089	-0.213
-252.078	-70.975	0.102	-0.038
-251.063	282.662	-0.070	-0.124
-250.049	188.901	0.090	0.133
-249.034	800.000	-0.040	0.164
-248.019	800.000	0.041	-0.158
-247.005	190.161	-0.118	-0.175
-245.990	-92.580	0.151	-0.042
-244.976	-107.494	-0.105	-0.023
-243.961	128.770	0.072	0.091
-242.946	440.989	0.158	0.343
-241.932	298.213	-0.101	0.184
-240.917	108.787	-0.126	0.149
-239.903	160.026	-0.253	0.349
-238.888	89.678	0.162	0.179
-237.873	200.855	-0.083	-0.126
-236.859	-135.687	0.202	0.024
-235.844	800.000	-0.058	0.161
-234.830	-200.000	0.011	-0.196
-233.815	-200.000	-0.012	-0.074
-232.800	275.749	0.033	-0.057
-231.786	441.921	-0.148	-0.322
-230.771	800.000	0.077	0.263
-229.757	199.030	0.097	0.147
-228.742	175.789	-0.170	-0.244
-227.727	-147.676	-0.371	-0.031
-226.713	-156.741	0.154	-0.009
-225.698	167.236	-0.147	0.207
-224.684	800.000	0.074	0.234
-223.669	-5.056	-0.068	0.046
-222.655	800.000	0.054	-0.147
-221.640	-200.000	-0.032	0.170
-220.625	-122.625	-0.135	0.022
-219.611	-134.819	0.161	-0.019
-218.596	-59.684	-0.310	-0.131
-217.582	-116.192	-0.274	0.050
-216.567	144.338	0.153	0.201
-215.552	-71.512	0.293	-0.109
-214.538	724.860	0.069	0.181
-213.523	-200.000	-0.003	-0.045
-212.509	800.000	0.090	0.281
-211.494	-200.000	0.037	-0.279
-210.479	71.473	0.179	-0.184
-209.465	-200.000	0.005	-0.198
-208.450	-167.594	-0.145	-0.006
-207.436	-200.000	-0.028	0.182
-206.421	381.184	-0.008	0.016
-205.406	253.441	0.112	-0.190
-204.392	392.007	-0.004	-0.007
-203.377	-66.366	0.296	0.117
-202.363	-30.515	-0.091	-0.051
-201.348	638.909	-0.099	0.249
-200.333	-152.817	-0.048	0.003
-199.319	-12.573	-0.222	-0.143
-198.304	-200.000	-0.020	-0.095
-197.290	-38.415	-0.358	0.187
-196.275	800.000	-0.044	0.129
-195.260	-200.000	-0.010	0.209
-194.246	-200.000	-0.057	0.413
-193.231	74.365	0.426	0.442
-192.217	-200.000	0.009	0.156
-191.202	-42.542	-0.253	-0.128
-190.187	-166.730	0.434	0.018
-189.173	535.737	-0.085	0.199
-188.158	-200.000	0.001	-0.061
-187.144	81.968	-0.126	0.135
-186.129	87.227	-0.038	0.042
-185.114	-14.636	0.148	0.094
-184.100	-147.134	0.412	0.035
-183.085	164.538	-0.160	-0.223
-182.071	800.000	0.045	0.134
-181.056	191.987	-0.006	-0.010
-180.042	-7.067	-0.131	0.088
-179.027	-196.624	0.244	0.002
-178.012	92.094	0.136	0.151
-176.998	-32.948	-0.152	-0.083
-175.983	-200.000	0.007	-0.336
-174.969	-22.848	0.096	-0.057
-173.954	-105.349	0.318	0.072
-172.939	225.833	0.283	0.454
-171.925	-160.441	0.354	-0.019
-170.910	208.333	-0.136	-0.210
-169.896	-200.000	-0.053	-0.517
-168.881	158.447	-0.293	0.401
-167.866	-100.146	-0.213	0.052
-166.852	152.418	0.258	-0.348
-165.837	-180.196	0.217	-0.005
-164.823	-123.377	-0.116	-0.018
-163.808	-92.072	-0.170	-0.047
-162.793	87.506	-0.276	0.302
-161.779	91.625	0.089	0.099
-160.764	-200.000	-0.004	0.087
-159.750	-200.000	-0.017	0.253
-158.735	94.407	-0.018	0.021
-157.720	-200.000	0.057	-0.258
-156.706	-82.481	-0.128	-0.041
-155.691	239.095	-0.091	0.150
-154.677	144.170	-0.078	-0.103
-153.662	-200.000	0.003	0.117
-152.647	-200.000	-0.069	-0.421
-151.633	240.255	0.068	0.112
-150.618	-67.671	0.047	0.018
-149.604	-29.498	0.262	0.148
-148.589	-88.935	-0.137	0.040
-147.574	229.966	0.054	0.087
-146.560	-161.009	-0.167	-0.009
-145.545	-124.550	-0.293	-0.045
-144.531	-127.023	0.265	-0.038
-143.516	-135.764	0.053	0.006
-142.502	4.082	0.357	-0.258
-141.487	-21.105	0.232	0.140
-140.472	-128.838	-0.093	0.013
-139.458	-200.000	-0.027	0.173
-138.443	96.757	0.210	-0.238
-137.429	-90.358	-0.125	0.036
-136.414	-62.727	0.250	0.102
-135.399	338.917	0.076	0.146
-134.385	-132.785	-0.412	0.052
-133.370	213.458	-0.112	0.174
-132.356	-104.368	-0.176	-0.040
-131.341	749.163	-0.050	-0.132
-130.326	87.304	-0.175	-0.191
-129.312	-34.738	-0.315	-0.170
-128.297	167.696	-0.203	-0.284
-127.283	41.544	0.228	-0.204
-126.268	-125.727	0.317	0.047
-125.253	-116.369	0.126	-0.023
-124.239	800.000	0.096	-0.313
-123.224	184.984	-0.207	-0.303
-122.210	187.899	0.214	0.315
-121.195	-16.297	-0.144	0.090
-120.180	-200.000	0.018	-0.389
-119.166	-56.583	-0.179	-0.078
-118.151	247.478	0.172	0.286
-117.137	459.062	-0.024	0.053
-116.122	-128.628	0.130	0.018
-115.107	-29.712	0.152	-0.086
-114.093	-54.433	0.131	-0.058
-113.078	-37.783	-0.143	-0.075
-112.064	-58.390	0.235	-0.101
-111.049	73.934	-0.325	-0.336
-110.034	-148.431	0.121	0.010
-109.020	11.834	-0.138	0.105
-108.005	-36.491	0.151	-0.080
-106.991	-47.747	0.642	0.307
-105.976	-66.255	-0.439	0.172
-104.962	-139.649	-0.320	0.034
-103.947	167.019	0.157	-0.220
-102.932	61.950	-0.287	-0.282
-101.918	-148.580	0.325	-0.026
-100.903	80.344	-0.067	0.071
-99.889	800.000	-0.074	-0.253
-98.874	-200.000	-0.032	0.261
-97.859	-17.382	-0.186	0.115
-96.845	-200.000	0.008	-0.082
-95.830	-52.145	0.072	0.033
-94.816	-18.216	0.254	-0.157
-93.801	-79.579	-0.234	-0.078
-92.786	-99.294	-0.181	0.045
-91.772	104.898	-0.095	0.110
-90.757	-200.000	-0.014	0.237
-89.743	-118.506	-0.230	0.040
-88.728	-111.570	-0.244	0.049
-87.713	-20.822	-0.305	0.184
-86.699	-44.511	0.120	0.059
-85.684	-86.748	-0.056	-0.017
-84.670	-40.201	-0.185	-0.095
-83.655	-200.000	-0.029	-0.221
-82.640	-57.827	0.240	0.103
-81.626	800.000	0.090	-0.378
-80.611	-22.978	-0.129	-0.076
-79.597	82.054	0.069	-0.073
-78.582	-93.798	0.095	-0.026
-77.567	-111.555	-0.451	0.090
-76.553	-134.692	0.090	-0.011
-75.538	800.000	-0.049	-0.178
-74.524	800.000	0.069	-0.193
-73.509	693.063	-0.025	0.065
-72.494	800.000	-0.031	-0.126
-71.480	-200.000	0.128	-0.000
-70.465	-103.068	-0.129	-0.030
-69.451	-51.808	0.186	-0.085
-68.436	-131.266	0.340	0.044
-67.422	-200.000	-0.020	-0.190
-66.407	287.134	0.112	0.199
-65.392	-200.000	-0.008	0.134
-64.378	440.757	-0.145	0.312
-63.363	96.705	-0.254	0.286
-62.349	800.000	0.072	-0.222
-61.334	54.939	-1.132	-1.075
-60.319	41.891	0.700	0.625
-59.305	428.019	-0.379	-0.805
-58.290	183.632	0.772	1.123
-57.276	-200.000	0.296	1.759
-56.261	-200.000	102.335	572.614
-55.246	469.055	1447.777	3196.641
-54.232	149.877	2635.923	3514.229
-53.217	108.302	2185.872	2564.367
-52.203	40.844	1709.230	1516.228
-51.188	33.262	1518.218	1295.084
-50.173	31.028	1490.545	1256.395
-49.159	51.809	1542.704	1443.285
-48.144	52.429	1560.884	1464.490
-47.130	33.664	1518.766	1298.094
-46.115	30.611	1503.443	1264.228
-45.100	30.328	1500.132	1259.476
-44.086	30.387	1497.911	1257.958
-43.071	30.278	1496.229	1255.759
-42.057	30.245	1493.986	1253.604
-41.042	30.290	1492.981	1253.012
-40.027	30.277	1491.855	1251.933
-39.013	30.190	1490.108	1249.830
-37.998	30.306	1488.616	1249.313
-36.984	30.223	1487.568	1247.819
-35.969	30.280	1486.147	1246.963
-34.954	30.306	1484.383	1245.606
-33.940	30.133	1483.620	1243.761
-32.925	30.167	1482.412	1242.923
-31.911	30.334	1480.376	1242.289
-30.896	30.268	1479.255	1240.856
-29.881	30.317	1478.153	1240.209
-28.867	30.289	1477.314	1239.270
-27.852	30.340	1475.163	1237.753
-26.838	30.366	1473.963	1236.871
-25.823	30.306	1473.129	1235.725
-24.809	30.350	1470.891	1234.089
-23.794	30.333	1469.347	1232.635
-22.779	30.258	1468.563	1231.428
-21.765	30.276	1468.218	1231.209
-20.750	30.317	1466.162	1229.711
-19.736	30.250	1464.957	1228.208
-18.721	30.191	1464.383	1227.282
-17.706	30.264	1463.073	1226.619
-16.692	30.285	1462.076	1225.874
-15.677	30.240	1460.890	1224.536
-14.663	30.372	1459.243	1223.976
-13.648	30.204	1459.256	1222.830
-12.633	30.297	1457.817	1222.190
-11.619	30.272	1457.144	1221.414
-10.604	30.263	1456.251	1220.556
-9.590	30.272	1455.078	1219.580
-8.575	30.205	1454.973	1219.005
-7.560	30.335	1453.789	1218.817
-6.546	30.225	1452.577	1217.032
-5.531	30.237	1451.530	1216.185
-4.517	30.161	1450.973	1215.171
-3.502	30.134	1449.618	1213.814
-2.487	30.247	1448.771	1213.794
-1.473	30.226	1447.568	1212.599
-0.458	30.165	1446.621	1211.360
0.556	28.511	1437.553	1201.392
1.571	25.750	1412.280	1162.366
2.586	22.394	1350.793	1090.900
3.600	20.600	1269.276	1014.524
4.615	19.419	1225.449	972.748
5.629	16.896	1169.577	914.719
6.644	8.558	1083.435	805.439
7.659	1.412	1042.718	740.370
8.673	0.420	1037.035	731.456
9.688	0.085	1033.920	727.577
10.702	0.120	1032.405	726.617
11.717	0.085	1030.846	725.286
12.731	2.846	1033.426	740.364
13.746	11.108	1045.062	788.794
14.761	17.289	1051.519	823.639
15.775	17.269	1051.513	823.463
16.790	16.466	1048.844	817.417
17.804	15.527	1045.990	810.591
18.819	14.572	1044.933	805.091
19.834	14.255	1043.658	802.513
20.848	13.849	1042.680	799.735
21.863	13.656	1041.564	797.877
22.877	13.320	1040.799	795.603
23.892	13.164	1040.526	794.575
24.907	13.091	1039.375	793.276
25.921	13.087	1038.742	792.701
26.936	13.196	1038.173	792.721
27.950	13.144	1037.489	791.880
28.965	13.224	1036.469	791.416
29.980	13.292	1035.654	791.046
30.994	13.298	1034.751	790.319
32.009	13.364	1033.796	789.832
33.023	13.368	1033.219	789.343
34.038	13.345	1032.571	788.668
35.053	13.354	1031.188	787.582
36.067	13.308	1030.656	786.890
37.082	13.224	1029.988	785.910
38.096	13.241	1029.121	785.258
39.111	13.251	1028.656	784.880
40.126	13.303	1027.728	784.351
41.140	13.232	1026.277	782.840
42.155	13.073	1025.562	781.471
43.169	13.078	1025.098	781.071
44.184	13.151	1023.585	780.195
45.199	13.060	1022.542	778.900
46.213	13.034	1021.498	777.917
47.228	13.182	1020.463	777.752
48.242	13.067	1020.257	776.990
49.257	13.361	1018.603	777.040
50.271	13.216	1017.736	775.627
51.286	13.216	1016.737	774.800
52.301	13.231	1016.270	774.444
53.315	13.224	1015.631	773.860
54.330	13.340	1014.500	773.469
55.344	13.114	1014.183	772.104
56.359	13.140	1012.825	771.124
57.374	13.222	1011.768	770.631
58.388	13.118	1011.121	769.585
59.403	13.142	1010.609	769.239
60.417	13.039	1009.591	767.920
61.432	13.080	1008.900	767.516
62.447	13.007	1008.553	766.842
63.461	12.940	1007.303	765.516
64.476	12.940	1006.603	764.916
65.490	12.950	1005.804	764.287
66.505	12.985	1005.078	763.828
67.520	12.999	1004.077	763.068
68.534	12.983	1003.508	762.492
69.549	13.056	1002.844	762.255
70.563	13.114	1001.942	761.774
71.578	13.082	1001.348	761.105
72.593	13.051	999.801	759.720
73.607	12.856	999.664	758.652
74.622	12.891	998.568	757.913
75.636	12.984	997.452	757.426
76.651	12.967	996.962	756.909
77.666	12.960	996.361	756.353
78.680	13.007	995.186	755.609
79.695	12.900	994.957	754.881
80.709	13.015	994.232	754.786
81.724	13.198	993.093	754.691
82.739	13.104	992.702	753.899
83.753	13.148	991.851	753.385
84.768	13.167	991.230	752.934
85.782	13.340	990.190	752.864
86.797	13.172	989.855	751.781
87.812	13.317	988.488	751.334
88.826	13.175	988.074	750.308
89.841	13.216	987.446	749.953
90.855	13.178	986.565	749.044
91.870	13.168	985.737	748.303
92.884	13.426	984.532	748.489
93.899	13.362	983.963	747.702
94.914	13.311	983.747	747.239
95.928	13.345	982.874	746.666
96.943	13.376	982.060	746.119
97.957	13.255	981.712	745.243
98.972	13.306	980.268	744.312
99.987	13.331	979.794	743.999
101.001	13.339	978.825	743.232
102.016	13.378	978.344	742.975
103.030	13.253	977.621	741.799
104.045	13.347	976.518	741.319
105.060	13.250	975.723	740.215
106.074	13.394	974.487	739.859
107.089	13.163	973.852	738.276
108.103	13.199	972.791	737.568
109.118	13.041	972.145	736.307
110.133	13.075	971.587	735.973
111.147	13.193	970.172	735.361
112.162	13.134	969.342	734.405
113.176	13.134	968.691	733.844
114.191	13.205	967.297	733.041
115.206	13.264	966.742	732.816
116.220	13.346	965.818	732.414
117.235	13.272	965.226	731.573
118.249	13.262	964.701	731.065
119.264	13.195	963.619	729.885
120.279	13.101	962.970	728.914
121.293	13.165	962.029	728.418
122.308	13.255	961.246	728.160
123.322	13.294	960.244	727.505
124.337	13.148	959.432	726.186
125.352	13.040	958.390	724.861
126.366	13.175	957.147	724.447
127.381	13.085	956.273	723.327
128.395	13.133	955.470	722.864
129.410	13.097	954.658	722.030
130.424	13.122	953.708	721.354
131.439	13.212	952.541	720.801
132.454	13.297	951.521	720.337
133.468	13.248	950.878	719.572
134.483	13.213	950.293	718.913
135.497	13.209	949.920	718.550
136.512	13.397	948.515	718.241
137.527	13.212	948.044	717.019
138.541	13.319	947.122	716.723
139.556	13.217	946.676	715.880
140.570	13.225	946.181	715.473
141.585	13.270	945.120	714.806
142.600	13.379	944.558	714.788
143.614	13.397	943.902	714.303
144.629	13.408	943.186	713.747
145.643	13.476	942.470	713.438
146.658	13.435	941.651	712.575
147.673	13.324	940.756	711.358
148.687	13.363	939.881	710.802
149.702	13.261	939.236	709.813
150.716	13.186	938.280	708.705
151.731	13.395	937.146	708.682
152.746	13.369	936.656	708.138
153.760	13.311	935.703	707.106
154.775	13.388	935.096	706.914
155.789	13.357	934.331	706.141
156.804	13.399	933.831	705.880
157.819	13.335	933.067	704.969
158.833	13.468	931.704	704.441
159.848	13.623	931.361	704.780
160.862	13.381	930.921	703.354
161.877	13.448	930.145	702.988
162.892	13.480	929.308	702.432
163.906	13.364	928.683	701.406
164.921	13.466	927.425	700.826
165.935	13.456	926.067	699.695
166.950	13.382	925.736	699.067
167.964	13.421	924.727	698.410
168.979	13.360	923.696	697.311
169.994	13.422	922.810	696.843
171.008	13.485	922.140	696.541
172.023	13.454	921.280	695.698
173.037	13.512	920.260	695.110
174.052	13.630	919.462	694.942
175.067	13.593	919.010	694.382
176.081	13.606	918.336	693.865
177.096	13.529	917.242	692.656
178.110	13.464	916.690	691.908
179.125	13.652	915.930	692.057
180.140	13.578	915.138	691.090
181.154	13.553	914.695	690.590
182.169	13.594	914.033	690.201
183.183	13.625	913.523	689.881
184.198	13.691	912.588	689.390
185.213	13.590	912.157	688.583
186.227	13.629	911.721	688.354
187.242	13.672	911.324	688.171
188.256	13.871	910.022	687.954
189.271	13.763	909.291	686.895
190.286	13.829	908.563	686.554
191.300	13.722	908.307	685.859
192.315	13.708	907.185	684.893
193.329	13.570	906.742	683.930
194.344	13.612	906.001	683.483
195.359	13.663	905.369	683.156
196.373	13.707	905.031	683.022
197.388	13.659	904.455	682.329
198.402	13.679	904.023	682.021
199.417	13.956	903.363	682.603
200.432	13.965	902.871	682.208
201.446	13.914	902.532	681.683
202.461	13.964	902.172	681.556
203.475	13.990	901.362	680.989
204.490	14.109	900.824	681.012
205.504	14.019	900.073	680.015
206.519	14.074	899.407	679.678
207.534	13.980	898.574	678.603
208.548	13.943	898.133	678.059
209.563	14.083	897.231	677.886
210.577	14.017	896.648	677.117
211.592	14.118	896.129	677.079
212.607	14.079	895.427	676.328
213.621	14.109	895.069	676.121
214.636	14.123	894.184	675.449
215.650	14.082	893.996	675.080
216.665	14.086	892.718	674.073
217.680	14.221	892.372	674.297
218.694	14.259	891.849	673.997
219.709	14.169	891.581	673.370
220.723	14.377	890.638	673.439
221.738	14.252	890.119	672.483
222.753	14.217	889.286	671.652
223.767	14.203	888.539	670.973
224.782	14.202	888.001	670.504
225.796	14.248	887.054	669.916
226.811	14.387	886.316	669.857
227.826	14.386	885.658	669.298
228.840	14.229	885.106	668.188
229.855	14.235	884.699	667.847
230.869	14.390	883.964	667.854
231.884	14.250	883.256	666.700
232.899	14.260	882.702	666.262
233.913	14.265	882.068	665.746
234.928	14.249	881.279	665.026
235.942	14.201	880.870	664.469
236.957	14.242	879.810	663.772
237.972	14.336	879.379	663.763
238.986	14.206	878.948	662.861
240.001	14.324	878.378	662.844
241.015	14.449	877.229	662.413
242.030	14.313	876.981	661.628
243.045	14.357	876.395	661.303
244.059	14.511	875.508	661.183
245.074	14.425	874.804	660.253
246.088	14.508	874.394	660.216
247.103	14.331	874.109	659.241
248.117	14.515	872.926	659.016
249.132	14.460	872.988	658.789
250.147	14.658	871.985	658.756
251.161	14.739	871.603	658.727
252.176	14.676	870.859	657.859
253.190	14.676	870.126	657.245
254.205	14.837	869.703	657.503
255.220	14.720	868.854	656.341
256.234	14.794	868.343	656.189
257.249	14.910	867.217	655.734
258.263	14.837	867.093	655.299
259.278	14.955	866.286	655.092
260.293	14.920	865.737	654.482
261.307	14.820	865.353	653.743
262.322	15.065	864.630	654.094
263.336	15.016	863.966	653.344
264.351	14.959	863.601	652.786
265.366	15.009	862.643	652.202
266.380	15.112	862.442	652.392
267.395	14.963	861.695	651.190
268.409	15.081	860.838	650.941
269.424	15.077	859.949	650.198
270.439	14.877	859.210	648.804
271.453	15.074	858.671	649.106
272.468	14.997	857.928	648.187
273.482	15.020	857.189	647.659
274.497	15.045	856.992	647.551
275.512	14.979	856.280	646.701
276.526	15.007	855.705	646.318
277.541	15.141	854.628	645.962
278.555	15.038	854.413	645.347
279.570	15.077	853.684	644.888
280.585	15.238	852.713	644.718
281.599	15.137	852.504	644.115
282.614	15.245	851.947	644.053
283.628	15.111	851.451	643.105
284.643	15.233	850.740	642.980
285.657	15.144	850.499	642.400
286.672	15.377	849.876	642.762
287.687	15.322	849.462	642.184
288.701	15.162	848.872	641.069
289.716	15.212	848.394	640.841
290.730	15.284	847.860	640.657
291.745	15.249	846.966	639.792
292.760	15.382	846.441	639.844
293.774	15.303	845.791	638.996
294.789	15.429	845.093	638.891
295.803	15.419	844.802	638.578
296.818	15.286	844.133	637.508
297.833	15.382	843.484	637.327
298.847	15.511	842.533	637.044
299.862	15.433	841.901	636.211
300.876	15.349	841.335	635.412
301.891	15.359	840.657	634.880
302.906	15.499	840.192	635.003
303.920	15.541	839.224	634.371
304.935	15.649	838.637	634.281
305.949	15.697	838.170	634.052
306.964	15.647	837.549	633.338
307.979	15.491	837.435	632.609
308.993	15.630	836.858	632.641
310.008	15.649	836.033	632.030
311.022	15.656	835.469	631.575
312.037	15.676	835.218	631.404
313.052	15.801	834.102	630.975
314.066	15.637	833.612	629.932
315.081	15.624	833.522	629.762
316.095	15.563	832.919	629.019
317.110	15.666	832.052	628.696
318.125	15.718	831.521	628.431
319.139	15.774	831.035	628.221
320.154	15.661	830.559	627.384
321.168	15.743	829.803	627.063
322.183	15.646	829.443	626.374
323.197	15.563	829.282	625.888
324.212	15.667	828.806	625.858
325.227	15.784	827.719	625.419
326.241	15.841	827.410	625.342
327.256	15.646	827.201	624.404
328.270	15.765	826.363	624.155
329.285	15.822	825.180	623.418
330.300	15.770	825.480	623.400
331.314	15.873	824.565	623.031
332.329	15.852	823.762	622.292
333.343	15.905	823.349	622.121
334.358	15.808	823.042	621.476
335.373	15.944	822.102	621.214
336.387	16.047	821.658	621.204
337.402	15.929	820.888	620.132
338.416	15.968	820.425	619.871
339.431	15.964	820.259	619.674
340.446	16.059	819.464	619.369
341.460	16.116	818.930	619.119
342.475	16.157	818.113	618.598
343.489	16.221	817.899	618.614
344.504	16.035	817.765	617.779
345.519	15.972	816.992	616.908
346.533	16.274	816.489	617.579
347.548	16.333	815.876	617.275
348.562	16.177	815.659	616.486
349.577	16.253	814.579	615.893
350.592	16.152	814.363	615.306
351.606	16.060	813.983	614.633
352.621	16.176	813.504	614.639
353.635	16.063	813.051	613.829
354.650	16.142	812.521	613.663
355.665	16.290	812.294	613.976
356.679	16.176	811.886	613.198
357.694	16.289	811.240	613.067
358.708	16.217	810.533	612.216
359.723	16.391	810.079	612.449
360.738	16.417	809.033	611.700
361.752	16.345	809.065	611.409
362.767	16.325	808.770	611.061
363.781	16.248	808.553	610.561
364.796	16.271	807.930	610.120
365.810	16.350	807.314	609.889
366.825	16.530	806.878	610.153
367.840	16.625	806.693	610.302
368.854	16.540	805.981	609.402
369.869	16.460	805.758	608.893
370.883	16.466	805.044	608.320
371.898	16.517	804.734	608.218
372.913	16.538	804.072	607.738
373.927	16.506	803.648	607.249
374.942	16.498	802.886	606.590
375.956	16.681	801.820	606.388
376.971	16.642	801.372	605.854
377.986	16.762	801.330	606.198
379.000	16.753	800.538	605.513
380.015	16.919	800.002	605.648
381.029	16.813	799.500	604.838
382.044	16.725	799.146	604.202
383.059	16.778	798.633	603.949
384.073	16.899	797.798	603.696
385.088	16.805	797.590	603.148
386.102	16.784	796.896	602.496
387.117	16.682	796.485	601.770
388.132	16.798	795.926	601.705
389.146	16.837	795.548	601.507
390.161	16.774	795.024	600.832
391.175	16.837	794.739	600.786
392.190	16.965	794.319	600.868
393.205	16.942	794.104	600.571
394.219	16.797	793.816	599.789
395.234	16.898	793.145	599.585
396.248	16.861	792.486	598.905
397.263	16.712	792.623	598.426
398.278	16.775	791.798	597.975
399.292	16.801	791.364	597.686
400.307	16.814	790.958	597.373
401.321	16.698	790.767	596.765
402.336	16.606	790.752	596.376
403.350	16.840	789.627	596.298
404.365	16.910	789.355	596.288
405.380	16.975	788.810	596.049
406.394	17.056	788.316	595.910
407.409	17.076	788.047	595.725
408.423	17.255	787.410	595.819
409.438	17.161	786.829	594.994
410.453	17.224	786.670	595.043
411.467	17.150	786.209	594.384
412.482	17.131	785.598	593.803
413.496	17.360	785.018	594.109
414.511	17.305	784.928	593.797
415.526	17.218	784.586	593.184
416.540	17.205	784.248	592.829
417.555	17.227	783.705	592.445
418.569	17.447	782.789	592.466
419.584	17.354	782.470	591.847
420.599	17.401	781.959	591.570
421.613	108.692	1288.520	1466.242
422.628	93.050	1362.304	1466.364
