DTS Sentinel unit serial number:	SN413079Multiplexer serial number:	ORYXHardware model number:	OX4-SRSoftware version number:	ORYX F/W v4.00 Oryx Data Collector v3.7.2.0data status	okinstallation	princeton_trtdifferential loss correction	single-endedforward channel	channel 3reverse channel	N/Adate	2019/09/19time	01:52:35forward acquisition time	60.00reverse acquisition time	0.00gamma	496.2192k internal	0.2348k external	0.2348temperature offset calibration	0.9989default loss term (dB/km)	0.3790temperature slope calibration	1.0000multiplexer offset coefficient	1.0000multiplexer slope coefficient	1.0000fibre end	0.00T internal ref (°C)	21.31T ext. ref 1 (°C)	0.68T ext. ref 2 (°C)	14.81length (m)	temperature (°C)	Stokes	anti-Stokes-747.200	19.573	-0.145	0.116
-746.185	-99.364	-0.046	-0.012
-745.171	124.000	0.141	0.177
-744.156	-4.102	-0.535	0.370
-743.142	108.302	0.118	0.140
-742.127	-200.000	0.082	0.363
-741.112	728.536	-0.082	0.219
-740.098	-200.000	0.037	0.279
-739.083	-105.501	0.314	0.071
-738.069	800.000	0.115	0.316
-737.054	19.710	0.040	-0.032
-736.039	342.478	-0.185	0.361
-735.025	103.745	-0.122	0.143
-734.010	800.000	-0.108	-0.455
-732.996	-172.990	-0.457	-0.014
-731.981	-136.901	0.092	-0.011
-730.966	263.711	0.036	0.062
-729.952	-68.544	-0.244	0.094
-728.937	-200.000	0.060	-0.262
-727.923	-52.980	-0.211	-0.097
-726.908	-200.000	-0.025	0.147
-725.894	-135.688	-0.203	-0.024
-724.879	786.610	-0.126	-0.346
-723.864	-200.000	-0.011	-0.130
-722.850	-200.000	0.033	0.168
-721.835	-94.958	0.053	-0.014
-720.821	531.591	-0.120	-0.283
-719.806	394.250	0.050	0.103
-718.791	2.414	0.152	0.110
-717.777	800.000	-0.016	-0.045
-716.762	800.000	-0.114	-0.335
-715.748	399.629	0.080	-0.167
-714.733	-26.064	-0.080	-0.047
-713.718	800.000	-0.106	-0.455
-712.704	-200.000	0.046	-0.344
-711.689	-79.734	0.147	0.049
-710.675	178.820	0.185	0.269
-709.660	210.389	-0.122	-0.191
-708.645	1.990	0.042	-0.030
-707.631	-99.847	0.034	0.008
-706.616	800.000	0.076	0.216
-705.602	800.000	-0.050	-0.175
-704.587	577.566	-0.015	0.036
-703.572	41.143	0.147	-0.132
-702.558	316.264	-0.094	-0.177
-701.543	-200.000	0.035	0.310
-700.529	-200.000	0.000	-0.030
-699.514	-200.000	-0.042	-0.228
-698.499	75.177	0.102	0.107
-697.485	800.000	0.053	0.226
-696.470	-78.283	-0.212	0.073
-695.456	800.000	-0.034	0.102
-694.441	-54.461	0.515	0.233
-693.426	-200.000	0.006	-0.030
-692.412	-93.470	-0.115	-0.032
-691.397	-8.010	0.041	-0.028
-690.383	-200.000	-0.072	0.392
-689.368	84.473	0.024	-0.026
-688.354	-200.000	0.026	0.225
-687.339	-157.218	0.217	0.013
-686.324	-63.809	-0.142	-0.058
-685.310	266.598	-0.165	0.288
-684.295	52.597	0.285	-0.271
-683.281	9.655	0.081	0.061
-682.266	110.226	0.073	0.088
-681.251	209.637	-0.178	0.279
-680.237	800.000	-0.064	0.192
-679.222	389.011	-0.117	-0.241
-678.208	-120.526	-0.297	-0.050
-677.193	302.759	0.056	0.103
-676.178	-68.813	-0.052	0.020
-675.164	85.466	0.152	0.167
-674.149	-149.894	0.413	-0.032
-673.135	-141.425	0.181	-0.018
-672.120	-47.827	0.377	-0.182
-671.105	-146.823	-0.315	0.027
-670.091	-85.746	-0.319	0.098
-669.076	743.985	-0.078	0.209
-668.062	-8.412	0.276	0.185
-667.047	-139.860	0.077	-0.008
-666.032	-200.000	-0.061	-0.329
-665.018	800.000	0.037	-0.146
-664.003	133.009	0.131	0.169
-662.989	60.795	0.114	-0.113
-661.974	-200.000	-0.022	0.108
-660.959	800.000	0.100	-0.276
-659.945	-103.412	-0.167	-0.039
-658.930	-123.727	0.398	-0.063
-657.916	-200.000	-0.077	-0.411
-656.901	201.179	-0.064	0.098
-655.886	176.769	0.039	0.056
-654.872	396.050	0.072	-0.150
-653.857	172.600	-0.107	0.154
-652.843	-174.097	0.101	-0.003
-651.828	52.363	0.165	0.157
-650.814	-73.696	-0.183	-0.066
-649.799	79.311	-0.174	-0.185
-648.784	-78.836	-0.388	0.132
-647.770	-51.701	0.315	-0.146
-646.755	197.561	0.010	-0.015
-645.741	-157.658	0.165	0.010
-644.726	458.859	-0.106	0.235
-643.711	13.394	0.086	-0.066
-642.697	22.192	0.176	-0.143
-641.682	-2.447	-0.273	-0.190
-640.668	-200.000	0.040	0.483
-639.653	800.000	-0.072	0.263
-638.638	800.000	0.058	0.233
-637.624	37.003	-0.103	-0.091
-636.609	233.817	-0.164	-0.269
-635.595	-61.905	0.101	0.042
-634.580	-200.000	-0.039	-0.377
-633.565	-106.010	-0.048	-0.011
-632.551	77.386	-0.125	-0.132
-631.536	-200.000	-0.002	0.099
-630.522	-200.000	0.013	0.115
-629.507	-37.493	0.240	-0.127
-628.492	107.233	0.076	-0.090
-627.478	101.089	-0.239	-0.277
-626.463	135.243	0.156	-0.201
-625.449	553.032	0.147	-0.352
-624.434	-200.000	-0.029	-0.267
-623.419	800.000	0.080	-0.224
-622.405	-75.091	0.383	0.136
-621.390	-23.501	0.215	-0.128
-620.376	800.000	-0.030	-0.111
-619.361	151.732	-0.053	0.072
-618.346	-163.135	-0.350	-0.017
-617.332	-200.000	0.005	-0.321
-616.317	-19.714	-0.196	0.120
-615.303	70.601	-0.150	-0.154
-614.288	-44.244	0.133	-0.066
-613.273	-153.833	0.362	-0.025
-612.259	-13.801	-0.145	0.093
-611.244	-123.596	-0.420	0.066
-610.230	517.822	-0.021	0.049
-609.215	1.456	-0.194	-0.139
-608.201	800.000	-0.021	-0.059
-607.186	-17.674	-0.193	-0.120
-606.171	-200.000	0.016	-0.204
-605.157	239.563	-0.052	0.086
-604.142	-200.000	-0.016	0.278
-603.128	-49.988	-0.289	0.136
-602.113	6.788	-0.115	-0.085
-601.098	-200.000	-0.027	-0.244
-600.084	-104.869	-0.088	0.020
-599.069	-200.000	0.009	-0.059
-598.055	24.894	-0.069	0.057
-597.040	364.414	-0.071	-0.142
-596.025	150.069	0.198	-0.266
-595.011	-92.485	0.091	-0.026
-593.996	-200.000	-0.022	-0.219
-592.982	768.140	-0.050	0.136
-591.967	37.693	-0.138	-0.122
-590.952	-200.000	-0.001	-0.076
-589.938	628.733	0.014	0.035
-588.923	800.000	-0.045	0.151
-587.909	-28.037	-0.095	-0.055
-586.894	206.066	0.138	-0.213
-585.879	-36.501	-0.161	-0.086
-584.865	-200.000	-0.064	0.339
-583.850	-7.096	-0.236	0.159
-582.836	-134.045	0.267	0.033
-581.821	-74.814	-0.094	0.034
-580.806	-114.338	-0.422	-0.081
-579.792	121.051	0.162	0.200
-578.777	271.133	0.095	0.165
-577.763	-57.852	-0.212	-0.092
-576.748	-39.438	0.142	-0.074
-575.733	36.920	0.168	0.147
-574.719	-190.233	-0.379	-0.004
-573.704	-110.711	-0.162	-0.033
-572.690	298.474	-0.252	-0.461
-571.675	-50.687	-0.167	0.078
-570.661	192.021	0.150	0.225
-569.646	337.153	0.054	-0.103
-568.631	-200.000	0.011	-0.102
-567.617	-43.088	0.130	-0.065
-566.602	58.013	0.199	-0.193
-565.588	384.654	0.150	-0.306
-564.573	-53.661	0.084	-0.038
-563.558	-103.497	0.210	0.049
-562.544	-93.235	0.252	-0.069
-561.529	188.517	-0.072	0.107
-560.515	25.000	-0.275	-0.227
-559.500	-97.397	0.279	-0.072
-558.485	289.348	-0.048	0.087
-557.471	800.000	0.088	-0.280
-556.456	-51.917	0.286	-0.132
-555.442	-200.000	0.017	0.167
-554.427	245.122	-0.145	-0.242
-553.412	-151.295	-0.090	-0.007
-552.398	223.963	-0.110	0.176
-551.383	144.875	-0.205	0.272
-550.369	800.000	-0.028	-0.099
-549.354	-69.080	-0.423	-0.161
-548.339	199.414	0.051	0.077
-547.325	136.486	0.394	0.509
-546.310	800.000	-0.029	-0.098
-545.296	800.000	-0.059	0.250
-544.281	109.763	-0.116	0.138
-543.266	-200.000	-0.045	0.252
-542.252	-200.000	0.026	-0.322
-541.237	88.275	0.166	-0.183
-540.223	767.248	0.039	0.106
-539.208	-200.000	0.013	0.158
-538.193	-45.897	0.204	0.100
-537.179	438.510	0.135	0.292
-536.164	-108.015	-0.089	-0.019
-535.150	-74.999	0.119	-0.042
-534.135	-64.726	-0.174	-0.070
-533.121	18.508	-0.344	-0.273
-532.106	2.382	0.304	-0.218
-531.091	-65.372	0.364	-0.145
-530.077	-172.358	0.051	-0.002
-529.062	-48.005	-0.225	0.108
-528.048	135.200	0.122	-0.158
-527.033	146.823	0.019	0.025
-526.018	-200.000	-0.047	0.217
-525.004	28.616	0.104	-0.087
-523.989	-137.599	0.526	0.059
-522.975	-180.021	-0.150	0.003
-521.960	5.700	-0.403	0.295
-520.945	-25.472	0.051	-0.030
-519.931	800.000	0.047	-0.179
-518.916	-92.444	-0.221	0.062
-517.902	64.736	0.126	0.126
-516.887	-200.000	-0.016	-0.092
-515.872	-36.429	0.134	-0.071
-514.858	-112.983	-0.077	-0.015
-513.843	27.015	-0.210	-0.174
-512.829	-92.447	0.354	0.099
-511.814	-200.000	-0.072	-0.333
-510.799	-200.000	-0.034	-0.176
-509.785	66.796	0.177	0.179
-508.770	-36.799	0.253	0.134
-507.756	800.000	-0.032	-0.118
-506.741	-200.000	-0.002	-0.196
-505.726	-46.902	0.380	0.184
-504.712	-64.923	-0.261	0.104
-503.697	31.014	-0.233	-0.198
-502.683	442.568	-0.122	0.264
-501.668	202.234	-0.173	-0.265
-500.653	-200.000	-0.028	-0.273
-499.639	239.030	-0.100	0.164
-498.624	-57.148	0.146	0.064
-497.610	82.016	-0.063	-0.068
-496.595	-101.082	0.105	0.026
-495.581	-200.000	0.013	0.143
-494.566	99.564	-0.197	0.226
-493.551	79.859	-0.402	0.428
-492.537	60.512	-0.161	-0.158
-491.522	-54.998	0.308	-0.137
-490.508	76.360	-0.124	-0.130
-489.493	-1.346	-0.114	-0.080
-488.478	-156.881	0.210	-0.013
-487.464	-200.000	0.017	-0.147
-486.449	-182.276	0.578	-0.011
-485.435	83.423	-0.340	0.366
-484.420	76.438	0.052	0.055
-483.405	-200.000	-0.051	0.259
-482.391	-200.000	0.041	0.231
-481.376	-200.000	0.001	-0.020
-480.362	-24.158	0.089	-0.052
-479.347	176.686	0.162	0.232
-478.332	272.705	-0.128	-0.224
-477.318	537.561	0.027	0.064
-476.303	-97.316	-0.223	0.057
-475.289	116.928	0.135	-0.163
-474.274	-50.442	-0.163	-0.076
-473.259	5.604	0.190	0.139
-472.245	97.991	-0.193	0.219
-471.230	-77.310	0.092	0.032
-470.216	-103.263	0.229	0.053
-469.201	628.532	-0.081	0.202
-468.186	-10.332	-0.240	0.157
-467.172	-101.259	-0.237	-0.057
-466.157	-85.511	0.353	-0.109
-465.143	-200.000	0.098	-0.597
-464.128	23.270	-0.058	-0.047
-463.113	-39.956	-0.109	0.056
-462.099	39.608	0.113	-0.100
-461.084	215.142	-0.173	-0.272
-460.070	-105.082	0.148	0.033
-459.055	-15.501	-0.215	-0.135
-458.040	800.000	-0.103	0.286
-457.026	123.453	-0.127	0.157
-456.011	-168.455	0.032	0.001
-454.997	231.178	0.138	-0.224
-453.982	-183.218	0.104	0.002
-452.968	-47.507	-0.023	0.011
-451.953	17.511	-0.105	0.082
-450.938	-152.033	-0.161	0.012
-449.924	202.653	0.081	-0.124
-448.909	152.190	0.107	0.144
-447.895	-105.184	-0.216	-0.049
-446.880	-82.670	-0.276	-0.088
-445.865	123.532	-0.064	-0.079
-444.851	636.929	0.149	-0.373
-443.836	200.117	-0.074	-0.113
-442.822	-8.918	-0.148	0.098
-441.807	-200.000	-0.024	-0.205
-440.792	-82.743	-0.154	-0.049
-439.778	-200.000	0.016	0.193
-438.763	-35.778	0.260	-0.139
-437.749	-120.818	0.090	-0.015
-436.734	37.566	-0.132	0.116
-435.719	-138.110	0.587	0.064
-434.705	-200.000	0.030	0.270
-433.690	-9.629	-0.113	0.074
-432.676	800.000	-0.079	-0.271
-431.661	-90.066	-0.098	-0.028
-430.646	474.871	-0.166	-0.370
-429.632	432.890	0.065	-0.140
-428.617	517.291	0.072	-0.167
-427.603	800.000	0.070	-0.226
-426.588	251.749	0.169	-0.284
-425.573	-21.475	-0.190	-0.114
-424.559	800.000	0.056	-0.158
-423.544	61.844	0.423	-0.416
-422.530	800.000	0.005	0.018
-421.515	-117.957	0.179	-0.032
-420.500	4.717	0.209	-0.151
-419.486	800.000	0.027	0.084
-418.471	-42.300	-0.097	0.049
-417.457	-200.000	-0.047	0.337
-416.442	-159.425	0.329	-0.018
-415.428	-37.500	0.168	-0.088
-414.413	-200.000	0.023	0.195
-413.398	-85.110	0.117	-0.036
-412.384	-200.000	-0.008	0.269
-411.369	-93.938	0.144	-0.039
-410.355	-148.747	0.078	-0.006
-409.340	-85.738	-0.194	0.059
-408.325	-200.000	-0.048	0.282
-407.311	-200.000	0.022	-0.107
-406.296	102.484	-0.120	-0.138
-405.282	-16.753	0.086	0.054
-404.267	256.359	-0.110	-0.187
-403.252	-16.044	0.295	-0.185
-402.238	-165.345	0.107	0.005
-401.223	358.180	0.159	-0.313
-400.209	-148.046	0.341	0.028
-399.194	750.172	-0.085	0.226
-398.179	-200.000	-0.017	0.306
-397.165	-124.050	-0.268	0.041
-396.150	-81.728	-0.258	-0.083
-395.136	-200.000	-0.029	0.361
-394.121	146.475	-0.096	0.127
-393.106	-93.166	-0.339	-0.093
-392.092	-179.666	-0.423	-0.009
-391.077	269.074	0.123	-0.213
-390.063	-179.646	0.021	0.000
-389.048	-200.000	0.014	0.106
-388.033	800.000	0.089	0.368
-387.019	-200.000	-0.277	-0.001
-386.004	-1.827	0.215	0.149
-384.990	604.802	-0.052	0.128
-383.975	38.544	-0.170	-0.150
-382.960	214.550	-0.146	0.228
-381.946	104.563	-0.106	0.123
-380.931	43.303	0.208	0.187
-379.917	-70.574	-0.057	-0.021
-378.902	-145.977	0.283	0.025
-377.888	800.000	-0.071	0.198
-376.873	-200.000	-0.038	0.175
-375.858	-55.298	-0.219	0.097
-374.844	-68.107	0.371	0.142
-373.829	800.000	-0.066	-0.197
-372.815	800.000	0.080	-0.234
-371.800	25.334	0.133	-0.109
-370.785	87.945	-0.079	-0.087
-369.771	-200.000	0.045	-0.520
-368.756	-200.000	-0.001	0.051
-367.742	-15.817	0.113	0.071
-366.727	-124.673	0.156	-0.024
-365.712	-59.507	-0.141	0.059
-364.698	367.295	0.083	-0.164
-363.683	286.969	-0.091	-0.162
-362.669	77.717	0.252	-0.264
-361.654	-96.862	-0.143	-0.037
-360.639	-109.736	-0.056	-0.012
-359.625	800.000	0.080	-0.273
-358.610	110.604	0.052	0.061
-357.596	-18.183	0.294	0.181
-356.581	800.000	0.023	0.098
-355.566	-200.000	0.011	0.144
-354.552	64.878	0.193	-0.192
-353.537	-114.942	-0.125	-0.023
-352.523	-11.895	-0.190	-0.123
-351.508	-127.200	0.260	0.037
-350.493	384.465	-0.057	-0.115
-349.479	276.731	-0.075	-0.131
-348.464	-200.000	0.028	0.365
-347.450	103.379	-0.112	0.129
-346.435	143.162	0.200	-0.261
-345.420	-120.556	0.125	-0.021
-344.406	800.000	0.038	-0.164
-343.391	199.679	0.095	-0.143
-342.377	156.705	0.104	0.142
-341.362	-200.000	-0.092	0.454
-340.348	-119.613	-0.296	0.050
-339.333	-84.125	-0.183	-0.057
-338.318	-34.529	-0.098	-0.053
-337.304	329.932	0.057	0.108
-336.289	-200.000	0.069	-0.369
-335.275	41.776	-0.259	-0.231
-334.260	-106.870	0.044	0.010
-333.245	-200.000	-0.059	0.444
-332.231	-84.210	-0.155	0.048
-331.216	-166.445	0.310	-0.013
-330.202	-38.212	0.309	0.161
-329.187	-36.059	-0.151	-0.080
-328.172	-105.927	-0.109	0.024
-327.158	391.652	-0.077	0.156
-326.143	261.158	0.047	0.080
-325.129	-75.247	-0.086	-0.030
-324.114	-80.141	0.426	0.140
-323.099	8.819	0.012	0.009
-322.085	675.582	0.088	0.223
-321.070	597.354	-0.018	-0.043
-320.056	95.770	0.044	-0.050
-319.041	357.645	0.100	0.196
-318.026	-200.000	-0.009	-0.193
-317.012	-200.000	0.067	-0.342
-315.997	297.118	-0.031	-0.055
-314.983	-200.000	-0.033	0.212
-313.968	-200.000	0.022	-0.206
-312.953	22.784	0.058	-0.046
-311.939	-200.000	0.012	-0.092
-310.924	373.735	0.062	0.124
-309.910	309.256	0.057	-0.105
-308.895	-119.555	-0.108	0.018
-307.880	65.477	-0.177	-0.176
-306.866	60.031	0.105	-0.102
-305.851	-30.228	-0.023	-0.013
-304.837	0.842	-0.453	0.319
-303.822	-200.000	0.064	-0.310
-302.807	-174.685	0.287	-0.008
-301.793	170.740	0.046	-0.064
-300.778	800.000	0.026	0.085
-299.764	-198.265	-0.162	0.001
-298.749	-200.000	-0.003	0.319
-297.735	107.512	-0.085	-0.099
-296.720	-109.533	0.141	0.029
-295.705	-200.000	-0.508	0.001
-294.691	-7.559	0.170	-0.113
-293.676	10.745	0.197	-0.148
-292.662	-200.000	-0.020	0.135
-291.647	800.000	0.087	0.261
-290.632	262.479	0.108	0.184
-289.618	294.947	0.129	-0.232
-288.603	-192.678	-0.100	0.001
-287.589	-165.861	-0.313	-0.013
-286.574	-87.829	0.276	0.082
-285.559	-86.325	-0.372	-0.112
-284.545	800.000	-0.011	-0.047
-283.530	-171.391	0.307	-0.010
-282.516	-32.305	-0.218	-0.120
-281.501	211.763	0.144	-0.222
-280.486	-23.203	0.165	0.098
-279.472	31.631	-0.371	-0.313
-278.457	-153.305	0.115	0.008
-277.443	-35.645	-0.138	0.074
-276.428	59.456	-0.041	0.040
-275.413	29.928	-0.108	-0.090
-274.399	-169.334	0.185	0.007
-273.384	-200.000	-0.002	0.012
-272.370	359.693	0.076	0.150
-271.355	-200.000	-0.053	0.286
-270.340	-128.903	0.089	-0.012
-269.326	-36.134	-0.415	-0.220
-268.311	390.160	0.186	-0.378
-267.297	34.368	-0.062	-0.053
-266.282	-200.000	-0.026	0.118
-265.267	-200.000	0.031	-0.242
-264.253	650.774	0.158	-0.398
-263.238	-200.000	0.013	0.085
-262.224	9.882	0.030	-0.022
-261.209	-137.421	0.198	-0.022
-260.195	-127.614	-0.293	-0.042
-259.180	-174.149	0.105	0.003
-258.165	-200.000	-0.028	0.210
-257.151	-33.340	0.182	0.099
-256.136	800.000	-0.087	-0.249
-255.122	267.881	0.129	0.222
-254.107	-83.132	0.195	0.061
-253.092	-62.335	0.102	0.041
-252.078	-93.612	0.114	0.031
-251.063	-69.424	-0.163	-0.061
-250.049	-120.558	0.272	-0.045
-249.034	-200.000	-0.065	0.501
-248.019	-200.000	-0.035	0.340
-247.005	-53.057	-0.303	-0.137
-245.990	10.915	-0.122	-0.092
-244.976	-58.134	-0.138	0.059
-243.961	800.000	-0.015	0.042
-242.946	51.522	-0.227	0.212
-241.932	792.885	0.050	0.136
-240.917	800.000	0.063	-0.205
-239.903	-3.016	0.181	0.124
-238.888	54.884	-0.167	-0.158
-237.873	-8.592	0.063	0.042
-236.859	-102.851	0.349	0.081
-235.844	-200.000	0.037	-0.237
-234.830	-147.357	-0.066	-0.005
-233.815	-200.000	-0.007	-0.032
-232.800	-55.486	0.289	0.127
-231.786	-146.168	-0.267	0.023
-230.771	34.994	0.052	0.045
-229.757	-101.502	0.199	-0.048
-228.742	110.845	0.119	-0.140
-227.727	800.000	-0.062	0.231
-226.713	392.470	-0.068	-0.138
-225.698	-142.300	0.333	-0.032
-224.684	-66.396	-0.324	0.126
-223.669	94.288	0.127	-0.141
-222.655	202.220	-0.103	0.155
-221.640	710.865	0.135	0.351
-220.625	-24.204	0.013	-0.008
-219.611	-42.362	-0.243	-0.122
-218.596	-2.232	-0.129	-0.089
-217.582	-76.764	-0.197	-0.068
-216.567	-131.681	-0.319	-0.041
-215.552	-19.967	-0.084	0.051
-214.538	-122.105	-0.340	0.055
-213.523	800.000	0.085	0.232
-212.509	-77.301	-0.245	-0.083
-211.494	17.866	0.117	-0.091
-210.479	380.997	0.095	-0.191
-209.465	-200.000	-0.078	0.339
-208.450	-200.000	-0.054	0.275
-207.436	255.941	0.128	-0.214
-206.421	-121.265	0.013	-0.002
-205.406	-50.411	-0.360	-0.166
-204.392	320.870	-0.067	0.124
-203.377	-126.198	0.379	-0.056
-202.363	-31.181	-0.192	-0.106
-201.348	-85.922	0.467	0.141
-200.333	101.173	0.175	0.199
-199.319	53.790	0.051	0.048
-198.304	-58.114	-0.144	-0.062
-197.290	116.017	0.151	0.181
-196.275	6.780	-0.129	0.094
-195.260	-85.975	-0.301	0.091
-194.246	-64.791	-0.026	-0.010
-193.231	-161.307	0.176	0.009
-192.217	201.752	0.122	0.183
-191.202	-200.000	0.004	-0.165
-190.187	101.772	0.266	-0.303
-189.173	46.594	-0.171	0.155
-188.158	-45.398	0.171	0.083
-187.144	-79.548	0.148	0.049
-186.129	800.000	0.101	0.300
-185.114	-200.000	-0.037	-0.160
-184.100	176.042	0.281	0.399
-183.085	48.684	0.309	0.283
-182.071	-200.000	-0.003	0.178
-181.056	800.000	-0.067	-0.246
-180.042	624.948	-0.113	0.280
-179.027	-65.238	-0.217	0.086
-178.012	-200.000	-0.023	0.350
-176.998	-84.981	-0.251	0.077
-175.983	-200.000	-0.036	0.394
-174.969	-200.000	-0.060	0.560
-173.954	64.706	0.078	-0.077
-172.939	3.588	-0.211	0.150
-171.925	800.000	-0.093	-0.271
-170.910	242.557	-0.040	0.065
-169.896	-130.482	0.241	0.032
-168.881	260.987	0.124	-0.209
-167.866	-22.357	-0.331	0.196
-166.852	800.000	0.176	0.556
-165.837	-135.526	0.346	-0.040
-164.823	-44.758	-0.085	-0.041
-163.808	400.357	-0.032	-0.065
-162.793	-200.000	0.001	-0.049
-161.779	134.921	0.127	0.161
-160.764	800.000	-0.137	0.373
-159.750	-200.000	-0.004	-0.031
-158.735	-20.486	-0.138	0.083
-157.720	-65.440	-0.120	-0.047
-156.706	-171.144	-0.162	-0.005
-155.691	135.828	0.046	-0.058
-154.677	-95.765	0.200	0.052
-153.662	-200.000	0.027	-0.139
-152.647	800.000	-0.072	0.236
-151.633	-53.696	0.146	-0.065
-150.618	-54.050	0.268	0.119
-149.604	-200.000	-0.001	0.029
-148.589	800.000	0.097	0.280
-147.574	112.236	-0.038	-0.045
-146.560	-55.174	-0.081	-0.035
-145.545	165.585	0.204	0.281
-144.531	-200.000	0.074	0.509
-143.516	-200.000	-0.054	0.409
-142.502	-54.798	-0.075	0.033
-141.487	256.619	-0.154	-0.258
-140.472	290.789	0.031	0.055
-139.458	295.798	-0.119	0.213
-138.443	-0.528	0.276	0.191
-137.429	98.494	-0.085	0.096
-136.414	-65.934	-0.297	0.116
-135.399	27.621	0.395	-0.324
-134.385	-200.000	-0.015	-0.086
-133.370	-99.065	0.176	0.043
-132.356	-127.253	-0.156	0.022
-131.341	142.330	0.164	0.212
-130.326	-200.000	0.021	0.096
-129.312	-200.000	0.018	-0.405
-128.297	-127.808	0.298	0.042
-127.283	-200.000	0.005	-0.132
-126.268	-200.000	0.038	-0.165
-125.253	-92.616	0.123	-0.034
-124.239	259.501	-0.052	-0.088
-123.224	-113.586	-0.180	-0.034
-122.210	-96.158	0.083	-0.022
-121.195	83.514	-0.163	-0.173
-120.180	587.010	0.073	0.175
-119.166	-101.102	0.124	-0.030
-118.151	-8.338	0.347	0.228
-117.137	99.421	-0.166	0.187
-116.122	-200.000	-0.036	-0.211
-115.107	107.471	-0.122	0.142
-114.093	-128.083	0.339	-0.047
-113.078	481.949	-0.088	-0.194
-112.064	281.740	0.115	-0.200
-111.049	75.642	-0.176	-0.181
-110.034	85.491	0.160	-0.172
-109.020	800.000	-0.081	-0.341
-108.005	-200.000	0.024	-0.227
-106.991	108.131	0.041	-0.047
-105.976	-80.479	-0.277	-0.090
-104.962	-126.844	-0.220	-0.032
-103.947	248.268	-0.053	-0.087
-102.932	91.139	0.327	0.358
-101.918	-110.630	-0.100	0.020
-100.903	114.404	0.166	-0.197
-99.889	800.000	-0.125	-0.339
-98.874	208.150	-0.205	0.313
-97.859	34.887	0.193	0.165
-96.845	370.170	-0.075	0.147
-95.830	148.469	0.037	-0.049
-94.816	123.534	-0.173	0.212
-93.801	-75.018	0.347	0.121
-92.786	25.646	0.127	-0.103
-91.772	-188.356	-0.011	-0.000
-90.757	296.133	0.167	0.299
-89.743	183.432	-0.022	-0.031
-88.728	-67.512	-0.379	0.145
-87.713	-115.824	0.060	0.011
-86.699	-113.412	-0.187	-0.036
-85.684	-200.000	0.040	-0.204
-84.670	800.000	0.116	0.332
-83.655	800.000	-0.074	-0.268
-82.640	-200.000	0.018	-0.127
-81.626	-121.306	0.055	0.009
-80.611	225.554	-0.088	0.139
-79.597	-200.000	-0.061	0.337
-78.582	238.252	-0.123	0.199
-77.567	86.630	0.304	0.326
-76.553	161.492	0.113	-0.154
-75.538	-14.128	0.354	-0.222
-74.524	19.064	-0.206	0.161
-73.509	-46.619	0.106	0.050
-72.494	-200.000	-0.036	-0.167
-71.480	286.681	-0.077	0.135
-70.465	67.726	0.084	0.084
-69.451	-21.445	-0.313	0.186
-68.436	800.000	0.057	0.187
-67.422	-90.362	0.266	0.075
-66.407	-129.708	-0.214	-0.029
-65.392	-158.597	0.284	0.016
-64.378	60.380	-0.108	-0.104
-63.363	79.881	0.240	0.251
-62.349	-65.740	-0.131	-0.051
-61.334	95.615	-1.001	-1.111
-60.319	25.133	0.920	0.743
-59.305	387.832	-0.565	-1.136
-58.290	335.498	0.749	1.413
-57.276	-200.000	0.164	1.192
-56.261	-200.000	134.235	684.179
-55.246	342.736	1675.277	3189.793
-54.232	134.269	2804.729	3535.962
-53.217	88.374	2194.218	2369.898
-52.203	31.439	1709.682	1428.636
-51.188	24.302	1532.266	1231.254
-50.173	22.647	1509.580	1201.710
-49.159	47.102	1585.163	1434.279
-48.144	43.598	1595.866	1419.367
-47.130	24.411	1544.639	1241.761
-46.115	21.578	1528.388	1209.110
-45.100	21.381	1525.014	1205.036
-44.086	21.424	1522.901	1203.609
-43.071	21.310	1521.266	1201.487
-42.057	21.279	1519.504	1199.835
-41.042	21.221	1518.383	1198.502
-40.027	21.293	1516.572	1197.521
-39.013	21.170	1515.458	1195.750
-37.998	21.186	1514.500	1195.059
-36.984	21.302	1512.821	1194.480
-35.969	21.263	1511.289	1192.953
-34.954	21.291	1510.017	1192.095
-33.940	21.253	1508.640	1190.698
-32.925	21.264	1507.651	1189.947
-31.911	21.222	1505.772	1188.135
-30.896	21.298	1504.984	1187.981
-29.881	21.376	1503.666	1187.424
-28.867	21.421	1501.831	1186.232
-27.852	21.352	1500.835	1184.928
-26.838	21.360	1498.938	1183.437
-25.823	21.318	1498.055	1182.407
-24.809	21.429	1495.687	1181.243
-23.794	21.366	1494.780	1180.055
-22.779	21.382	1493.977	1179.487
-21.765	21.355	1492.773	1178.306
-20.750	21.378	1491.511	1177.418
-19.736	21.356	1491.028	1176.837
-18.721	21.279	1490.275	1175.681
-17.706	21.291	1488.611	1174.404
-16.692	21.354	1487.751	1174.103
-15.677	21.458	1485.965	1173.340
-14.663	21.304	1485.626	1171.995
-13.648	21.305	1484.823	1171.324
-12.633	21.264	1483.463	1169.929
-11.619	21.299	1482.697	1169.508
-10.604	21.332	1481.351	1168.625
-9.590	21.345	1480.754	1168.193
-8.575	21.294	1479.770	1167.030
-7.560	21.321	1479.033	1166.579
-6.546	21.328	1478.577	1166.224
-5.531	21.325	1477.532	1165.335
-4.517	21.316	1476.370	1164.307
-3.502	21.340	1475.095	1163.418
-2.487	21.303	1474.262	1162.467
-1.473	21.336	1473.195	1161.801
-0.458	21.234	1472.176	1160.273
0.556	20.209	1461.984	1148.493
1.571	16.986	1437.690	1108.289
2.586	13.467	1375.745	1038.411
3.600	11.955	1291.310	965.682
4.615	11.042	1247.349	927.527
5.629	9.877	1190.973	879.185
6.644	5.067	1110.067	794.921
7.659	1.300	1075.586	751.535
8.673	0.685	1070.745	745.055
9.688	0.713	1067.124	742.610
10.702	0.657	1065.440	741.095
11.717	0.675	1063.424	739.716
12.731	2.207	1063.692	747.333
13.746	7.772	1070.827	779.620
14.761	14.005	1079.389	816.497
15.775	17.080	1082.864	834.191
16.790	16.903	1081.801	832.426
17.804	15.953	1079.585	825.993
18.819	15.214	1077.580	820.768
19.834	14.637	1076.539	817.075
20.848	14.416	1075.789	815.357
21.863	14.241	1074.774	813.660
22.877	13.906	1073.713	811.146
23.892	13.858	1073.034	810.328
24.907	13.628	1072.460	808.700
25.921	13.595	1071.435	807.693
26.936	13.717	1070.808	807.745
27.950	13.708	1070.306	807.250
28.965	13.753	1069.459	806.761
29.980	13.859	1067.934	806.053
30.994	13.867	1067.076	805.371
32.009	13.762	1066.811	804.591
33.023	13.965	1065.767	804.715
34.038	13.822	1065.181	803.512
35.053	13.662	1064.460	802.119
36.067	13.954	1063.027	802.380
37.082	13.809	1062.274	801.042
38.096	13.763	1061.465	800.141
39.111	13.904	1060.498	800.021
40.126	13.802	1059.731	798.878
41.140	13.838	1058.181	797.812
42.155	13.743	1057.596	796.843
43.169	13.617	1057.094	795.789
44.184	13.798	1055.270	795.216
45.199	13.718	1054.465	794.153
46.213	13.625	1053.656	793.032
47.228	13.740	1052.208	792.419
48.242	13.707	1051.552	791.696
49.257	13.682	1050.556	790.760
50.271	13.733	1049.862	790.408
51.286	13.654	1049.267	789.517
52.301	13.810	1048.207	789.392
53.315	13.733	1047.387	788.337
54.330	13.890	1046.127	788.066
55.344	13.725	1045.911	787.051
56.359	13.722	1044.788	786.121
57.374	13.687	1044.134	785.392
58.388	13.759	1042.818	784.676
59.403	13.752	1042.111	784.041
60.417	13.752	1040.916	783.070
61.432	13.691	1040.599	782.476
62.447	13.782	1039.362	781.905
63.461	13.584	1039.090	780.696
64.476	13.655	1037.927	780.090
65.490	13.632	1037.250	779.401
66.505	13.646	1036.338	778.713
67.520	13.725	1035.456	778.353
68.534	13.715	1034.497	777.518
69.549	13.648	1034.065	776.812
70.563	13.751	1033.248	776.608
71.578	13.697	1032.577	775.781
72.593	13.613	1031.919	774.827
73.607	13.633	1031.292	774.384
74.622	13.674	1029.708	773.317
75.636	13.623	1028.739	772.283
76.651	13.664	1028.155	771.967
77.666	13.618	1027.456	771.159
78.680	13.738	1026.581	770.992
79.695	13.564	1026.355	769.945
80.709	13.649	1025.524	769.648
81.724	13.722	1024.972	769.505
82.739	13.653	1024.225	768.558
83.753	13.721	1023.126	767.978
84.768	13.811	1022.472	767.834
85.782	13.754	1021.360	766.667
86.797	13.833	1020.445	766.280
87.812	13.941	1019.935	766.327
88.826	13.805	1019.300	765.157
89.841	13.773	1018.489	764.331
90.855	13.883	1017.469	764.006
91.870	13.818	1016.978	763.269
92.884	13.869	1016.480	763.063
93.899	13.880	1015.458	762.276
94.914	13.977	1014.636	762.039
95.928	14.092	1013.457	761.611
96.943	13.964	1013.196	760.763
97.957	13.935	1012.349	759.924
98.972	13.883	1011.526	759.002
99.987	13.974	1010.580	758.640
101.001	13.894	1010.037	757.801
102.016	13.849	1009.067	756.800
103.030	13.804	1008.010	755.736
104.045	13.891	1007.131	755.405
105.060	14.019	1006.020	755.089
106.074	13.977	1005.132	754.166
107.089	13.760	1004.872	752.919
108.103	13.792	1003.973	752.321
109.118	13.855	1002.516	751.452
110.133	13.795	1002.144	750.836
111.147	13.847	1001.077	750.204
112.162	13.784	999.908	748.975
113.176	13.808	999.299	748.562
114.191	13.825	998.531	747.998
115.206	13.828	997.737	747.351
116.220	13.825	996.567	746.395
117.235	13.878	995.431	745.713
118.249	13.889	995.061	745.421
119.264	13.951	993.925	744.781
120.279	14.013	993.217	744.463
121.293	13.889	992.610	743.388
122.308	13.783	991.869	742.291
123.322	13.776	991.123	741.635
124.337	13.667	990.169	740.369
125.352	13.772	988.748	739.711
126.366	13.787	987.239	738.585
127.381	13.842	986.184	737.972
128.395	13.723	985.683	737.006
129.410	13.672	984.301	735.679
130.424	13.730	983.848	735.535
131.439	13.805	982.725	734.962
132.454	13.778	981.768	734.061
133.468	13.894	981.201	734.085
134.483	13.878	980.309	733.283
135.497	13.816	979.613	732.421
136.512	13.846	978.824	731.901
137.527	13.691	978.536	730.936
138.541	13.754	977.541	730.406
139.556	13.719	977.004	729.785
140.570	13.833	976.152	729.585
141.585	13.930	974.764	728.912
142.600	14.016	974.301	728.875
143.614	13.929	973.740	728.012
144.629	13.878	973.017	727.183
145.643	13.934	972.056	726.645
146.658	13.939	971.161	725.933
147.673	14.059	969.957	725.496
148.687	13.945	969.480	724.573
149.702	13.917	968.532	723.682
150.716	13.970	967.479	723.060
151.731	14.066	966.509	722.691
152.746	13.892	966.232	721.663
153.760	13.993	965.191	721.259
154.775	14.107	964.288	721.016
155.789	14.032	963.884	720.323
156.804	14.217	962.739	720.205
157.819	14.129	961.943	719.167
158.833	14.070	961.517	718.530
159.848	14.199	960.713	718.420
160.862	14.286	959.802	718.050
161.877	14.180	959.449	717.266
162.892	14.163	958.650	716.534
163.906	14.044	957.961	715.441
164.921	14.073	956.875	714.691
165.935	14.118	956.279	714.375
166.950	14.097	955.156	713.383
167.964	14.148	953.909	712.611
168.979	14.233	952.480	711.843
169.994	14.134	952.248	711.181
171.008	14.131	951.174	710.306
172.023	14.238	950.297	710.042
173.037	14.290	949.544	709.641
174.052	14.230	948.988	708.907
175.067	14.175	948.220	708.034
176.081	14.286	947.326	707.778
177.096	14.189	946.300	706.535
178.110	14.231	945.844	706.311
179.125	14.384	944.603	705.972
180.140	14.179	944.211	704.748
181.154	14.256	943.396	704.400
182.169	14.298	942.590	703.915
183.183	14.232	942.582	703.569
184.198	14.325	941.412	703.027
185.213	14.449	940.359	702.698
186.227	14.367	940.282	702.232
187.242	14.408	939.950	702.096
188.256	14.523	938.547	701.469
189.271	14.440	938.520	701.038
190.286	14.404	937.576	700.119
191.300	14.425	936.493	699.338
192.315	14.279	936.279	698.505
193.329	14.259	935.292	697.620
194.344	14.464	934.329	697.699
195.359	14.278	934.093	696.685
196.373	14.429	933.862	697.081
197.388	14.508	932.916	696.645
198.402	14.362	932.521	695.677
199.417	14.569	932.054	696.130
200.432	14.803	931.378	696.541
201.446	14.734	930.751	695.723
202.461	14.647	930.594	695.183
203.475	14.625	930.227	694.755
204.490	14.619	928.890	693.667
205.504	14.631	928.568	693.415
206.519	14.670	927.188	692.485
207.534	14.674	927.223	692.468
208.548	14.572	926.489	691.435
209.563	14.642	925.937	691.254
210.577	14.866	924.650	691.156
211.592	14.606	924.388	689.828
212.607	14.993	923.116	690.412
213.621	14.803	923.016	689.493
214.636	14.921	922.235	689.336
215.650	14.852	921.587	688.505
216.665	14.725	921.190	687.624
217.680	14.854	920.530	687.604
218.694	14.913	920.012	687.398
219.709	14.880	919.438	686.769
220.723	14.910	918.371	686.036
221.738	14.810	918.108	685.372
222.753	14.954	917.088	685.137
223.767	14.893	916.558	684.431
224.782	14.810	915.959	683.584
225.796	15.006	914.545	683.266
226.811	15.045	913.796	682.809
227.826	15.037	913.137	682.220
228.840	14.896	912.914	681.419
229.855	14.872	912.241	680.760
230.869	15.018	911.236	680.544
231.884	15.091	910.912	680.536
232.899	14.894	910.196	679.144
233.913	14.911	909.316	678.497
234.928	14.933	908.845	678.174
235.942	15.043	907.885	677.843
236.957	15.015	907.231	677.182
237.972	14.924	906.688	676.347
238.986	14.971	906.375	676.242
240.001	15.022	905.433	675.688
241.015	14.987	904.764	674.986
242.030	15.067	904.198	674.826
243.045	15.151	903.448	674.546
244.059	15.112	902.898	673.918
245.074	15.149	902.129	673.435
246.088	15.163	901.552	672.999
247.103	15.109	901.273	672.515
248.117	15.278	900.169	672.310
249.132	15.380	899.634	672.260
250.147	15.448	898.678	671.757
251.161	15.380	898.409	671.224
252.176	15.339	898.041	670.726
253.190	15.421	897.106	670.295
254.205	15.435	896.721	670.008
255.220	15.447	895.618	669.169
256.234	15.473	895.029	668.775
257.249	15.519	894.171	668.259
258.263	15.682	893.304	668.200
259.278	15.571	893.047	667.504
260.293	15.464	893.080	667.047
261.307	15.599	892.294	666.938
262.322	15.563	891.689	666.282
263.336	15.625	891.103	666.030
264.351	15.706	890.186	665.605
265.366	15.668	889.612	664.968
266.380	15.727	889.124	664.778
267.395	15.648	888.386	663.855
268.409	15.738	887.274	663.323
269.424	15.716	887.223	663.136
270.439	15.715	886.374	662.442
271.453	15.755	885.534	661.912
272.468	15.905	884.174	661.427
273.482	15.789	883.957	660.747
274.497	15.795	883.554	660.412
275.512	15.742	882.724	659.525
276.526	15.745	881.726	658.736
277.541	15.582	881.555	657.908
278.555	15.887	880.526	658.276
279.570	15.906	880.100	657.974
280.585	15.998	879.606	657.906
281.599	15.896	879.374	657.277
282.614	15.915	878.229	656.435
283.628	15.996	877.567	656.199
284.643	15.935	877.392	655.774
285.657	15.996	876.698	655.431
286.672	16.152	875.915	655.395
287.687	16.027	875.678	654.673
288.701	15.903	875.568	654.055
289.716	15.949	874.481	653.359
290.730	16.079	873.850	653.337
291.745	16.057	873.325	652.799
292.760	15.965	872.680	651.905
293.774	16.057	872.329	651.941
294.789	16.117	871.502	651.497
295.803	16.172	870.820	651.140
296.818	16.111	870.318	650.474
297.833	16.158	869.789	650.200
298.847	16.082	868.926	649.207
299.862	16.337	867.662	649.184
300.876	16.241	867.465	648.609
301.891	16.142	866.901	647.751
302.906	16.021	866.439	646.884
303.920	16.319	865.053	646.933
304.935	16.319	864.791	646.679
305.949	16.318	864.103	646.104
306.964	16.253	863.549	645.384
307.979	16.437	862.782	645.458
308.993	16.395	862.151	644.769
310.008	16.452	861.923	644.757
311.022	16.430	861.451	644.264
312.037	16.495	860.945	644.075
313.052	16.438	860.828	643.716
314.066	16.268	859.955	642.360
315.081	16.339	859.220	642.023
316.095	16.365	858.953	641.865
317.110	16.348	858.175	641.163
318.125	16.454	857.471	640.983
319.139	16.530	857.089	640.929
320.154	16.288	856.686	639.651
321.168	16.494	855.915	639.799
322.183	16.426	855.258	638.996
323.197	16.635	854.718	639.327
324.212	16.486	854.167	638.295
325.227	16.607	853.485	638.182
326.241	16.609	853.068	637.823
327.256	16.510	852.738	637.148
328.270	16.558	852.172	636.849
329.285	16.493	851.370	635.948
330.300	16.526	851.153	635.855
331.314	16.498	850.666	635.330
332.329	16.653	849.274	634.815
333.343	16.601	849.410	634.664
334.358	16.576	848.620	633.923
335.373	16.629	847.854	633.493
336.387	16.830	847.203	633.703
337.402	16.650	846.732	632.623
338.416	16.787	846.373	632.810
339.431	16.803	845.452	632.127
340.446	16.620	845.554	631.462
341.460	16.768	844.624	631.264
342.475	16.800	844.101	630.935
343.489	16.872	843.592	630.770
344.504	16.890	843.294	630.557
345.519	16.919	842.592	630.083
346.533	16.956	841.774	629.552
347.548	16.967	841.394	629.254
348.562	16.908	841.001	628.686
349.577	16.855	840.756	628.251
350.592	16.876	839.865	627.609
351.606	17.009	839.175	627.527
352.621	16.867	838.747	626.629
353.635	16.903	838.292	626.364
354.650	16.995	837.679	626.191
355.665	16.950	837.516	625.850
356.679	17.073	836.933	625.811
357.694	17.170	836.166	625.541
358.708	17.000	835.869	624.637
359.723	16.932	835.819	624.291
360.738	16.932	834.930	623.574
361.752	17.046	834.672	623.746
362.767	17.129	833.918	623.431
363.781	17.160	833.373	623.083
364.796	17.229	833.077	623.059
365.810	17.273	832.341	622.616
366.825	17.169	832.146	622.032
367.840	17.413	831.910	622.694
368.854	17.259	831.423	621.709
369.869	17.135	831.345	621.145
370.883	17.197	830.560	620.728
371.898	17.351	830.003	620.820
372.913	17.336	829.161	620.082
373.927	17.480	828.485	620.045
374.942	17.532	827.905	619.747
375.956	17.416	827.317	618.829
376.971	17.405	827.028	618.516
377.986	17.465	826.278	618.120
379.000	17.425	825.736	617.514
380.015	17.598	825.255	617.726
381.029	17.588	824.971	617.424
382.044	17.699	824.080	617.104
383.059	17.590	823.730	616.394
384.073	17.596	823.183	615.952
385.088	17.626	822.099	615.192
386.102	17.473	822.178	614.644
387.117	17.481	821.554	614.152
388.132	17.649	820.856	614.181
389.146	17.484	820.518	613.280
390.161	17.450	820.195	612.863
391.175	17.615	820.077	613.313
392.190	17.628	819.366	612.776
393.205	17.611	818.933	612.336
394.219	17.571	818.409	611.748
395.234	17.581	818.111	611.506
396.248	17.659	816.986	610.891
397.263	17.608	817.074	610.720
398.278	17.640	816.600	610.424
399.292	17.611	816.316	610.057
400.307	17.708	815.275	609.571
401.321	17.643	815.066	609.128
402.336	17.738	814.876	609.272
403.350	17.673	814.732	608.876
404.365	17.773	813.948	608.594
405.380	17.713	813.563	608.039
406.394	17.785	813.069	607.874
407.409	17.915	812.598	607.930
408.423	17.867	812.210	607.415
409.438	17.862	811.660	606.930
410.453	17.787	811.477	606.476
411.467	18.038	810.600	606.656
412.482	18.015	810.171	606.202
413.496	17.945	809.757	605.589
414.511	18.117	809.375	605.858
415.526	18.024	809.325	605.438
416.540	17.962	808.954	604.889
417.555	17.962	808.332	604.369
418.569	18.197	807.563	604.570
419.584	18.041	807.403	603.848
420.599	18.125	806.569	603.466
421.613	115.428	1299.800	1489.770
422.628	99.764	1371.606	1489.832
