DTS Sentinel unit serial number:	SN413079Multiplexer serial number:	ORYXHardware model number:	OX4-SRSoftware version number:	ORYX F/W v4.00 Oryx Data Collector v3.7.2.0data status	okinstallation	princeton_trtdifferential loss correction	single-endedforward channel	channel 3reverse channel	N/Adate	2019/09/13time	22:52:35forward acquisition time	60.00reverse acquisition time	0.00gamma	496.2192k internal	0.2338k external	0.2338temperature offset calibration	1.0064default loss term (dB/km)	0.3790temperature slope calibration	1.0000multiplexer offset coefficient	1.0000multiplexer slope coefficient	1.0000fibre end	0.00T internal ref (°C)	27.47T ext. ref 1 (°C)	3.21T ext. ref 2 (°C)	21.55length (m)	temperature (°C)	Stokes	anti-Stokes-747.200	-118.572	0.349	0.062
-746.185	-82.013	-0.589	0.193
-745.171	-200.000	0.025	-0.306
-744.156	-83.198	-0.450	0.145
-743.142	588.851	0.187	-0.462
-742.127	-70.454	-0.336	-0.128
-741.112	174.402	-0.127	-0.184
-740.098	154.641	-0.228	0.314
-739.083	98.561	0.090	-0.104
-738.069	141.033	-0.159	0.211
-737.054	239.892	0.209	-0.349
-736.039	-95.546	0.023	0.006
-735.025	-20.540	0.372	0.229
-734.010	-200.000	-0.066	-0.414
-732.996	163.284	0.313	-0.441
-731.981	-113.225	-0.267	0.053
-730.966	25.042	0.266	-0.221
-729.952	-66.102	-0.240	-0.096
-728.937	23.877	-0.144	0.119
-727.923	800.000	-0.066	0.285
-726.908	-27.244	-0.169	-0.099
-725.894	510.418	-0.134	0.312
-724.879	800.000	-0.041	0.129
-723.864	-5.313	-0.303	-0.209
-722.850	-45.101	-0.017	0.008
-721.835	-27.815	-0.365	-0.212
-720.821	352.537	0.147	-0.293
-719.806	-200.000	0.019	-0.402
-718.791	442.892	-0.074	-0.162
-717.777	-56.266	0.345	-0.154
-716.762	-35.711	-0.124	0.067
-715.748	800.000	-0.066	-0.224
-714.733	-26.147	-0.082	0.048
-713.718	-19.035	-0.357	-0.222
-712.704	38.695	0.291	-0.260
-711.689	-200.000	-0.015	0.213
-710.675	-44.689	0.049	-0.025
-709.660	613.942	0.164	0.412
-708.645	269.945	0.111	-0.195
-707.631	-125.974	0.073	-0.011
-706.616	14.771	0.163	-0.128
-705.602	113.938	-0.213	-0.260
-704.587	-52.455	-0.174	-0.081
-703.572	-94.923	-0.421	0.114
-702.558	703.865	-0.098	-0.258
-701.543	428.007	-0.082	-0.178
-700.529	-200.000	0.043	0.313
-699.514	-7.521	0.175	-0.119
-698.499	635.036	0.045	-0.115
-697.485	-28.085	0.199	0.115
-696.470	-168.147	-0.156	-0.006
-695.456	800.000	0.076	0.229
-694.441	475.504	-0.088	-0.198
-693.426	402.838	0.137	0.288
-692.412	103.549	0.214	-0.252
-691.397	-53.498	-0.071	-0.032
-690.383	126.649	0.216	-0.274
-689.368	-57.721	0.121	0.053
-688.354	-70.224	-0.267	0.102
-687.339	800.000	0.205	0.634
-686.324	-103.075	0.313	0.074
-685.310	-0.764	-0.172	-0.122
-684.295	-183.611	0.277	0.005
-683.281	154.760	0.043	-0.059
-682.266	120.018	0.093	-0.116
-681.251	800.000	-0.051	-0.203
-680.237	-150.860	0.348	-0.026
-679.222	-95.248	0.047	-0.013
-678.208	-170.709	-0.254	0.009
-677.193	-200.000	0.031	0.197
-676.178	66.114	-0.031	-0.032
-675.164	-88.699	-0.245	0.073
-674.149	800.000	-0.089	-0.276
-673.135	-193.592	0.343	0.003
-672.120	-200.000	0.056	0.267
-671.105	457.934	-0.068	0.151
-670.091	-200.000	-0.019	0.224
-669.076	334.817	-0.155	-0.300
-668.062	297.607	-0.086	-0.158
-667.047	-166.122	0.238	-0.010
-666.032	687.214	-0.074	0.193
-665.018	19.280	-0.265	-0.213
-664.003	-177.839	-0.209	-0.005
-662.989	-63.673	0.160	0.066
-661.974	481.897	-0.121	-0.275
-660.959	-200.000	-0.015	0.140
-659.945	36.141	0.170	-0.150
-658.930	-24.680	-0.224	-0.133
-657.916	-71.156	-0.244	0.092
-656.901	-124.500	-0.306	-0.048
-655.886	-21.892	-0.186	0.113
-654.872	-200.000	0.024	0.134
-653.857	-65.279	-0.217	0.087
-652.843	-112.942	0.330	-0.065
-651.828	-52.613	-0.142	0.066
-650.814	-88.862	-0.327	0.097
-649.799	-125.449	0.175	-0.027
-648.784	-79.754	0.067	-0.023
-647.770	-200.000	-0.010	-0.308
-646.755	-65.421	-0.186	0.075
-645.741	800.000	0.094	-0.392
-644.726	-20.416	-0.133	0.082
-643.711	178.748	0.164	-0.240
-642.697	-158.965	-0.182	0.010
-641.682	71.972	-0.220	-0.229
-640.668	-171.458	-0.250	-0.008
-639.653	-200.000	-0.026	0.177
-638.638	-164.333	0.012	0.001
-637.624	54.132	0.283	-0.272
-636.609	57.575	0.183	-0.179
-635.595	-200.000	0.006	0.041
-634.580	-160.911	0.194	0.010
-633.565	726.706	-0.188	0.502
-632.551	42.013	0.130	-0.118
-631.536	-6.077	0.212	-0.145
-630.522	220.517	0.038	-0.061
-629.507	-25.784	0.246	0.145
-628.492	-200.000	0.142	0.000
-627.478	-200.000	-0.037	0.297
-626.463	-200.000	-0.036	0.316
-625.449	390.072	0.096	0.199
-624.434	-200.000	-0.225	-0.000
-623.419	75.045	-0.119	-0.126
-622.405	-144.338	0.193	-0.018
-621.390	-116.785	-0.133	-0.024
-620.376	-200.000	-0.026	-0.416
-619.361	-200.000	-0.022	-0.146
-618.346	-49.501	-0.092	-0.044
-617.332	-137.086	0.520	0.059
-616.317	0.460	0.121	0.086
-615.303	-101.207	0.273	-0.067
-614.288	-0.034	-0.131	-0.093
-613.273	-189.434	0.037	-0.000
-612.259	-200.000	0.008	-0.181
-611.244	800.000	-0.079	0.229
-610.230	274.241	0.055	0.098
-609.215	-69.381	-0.101	-0.039
-608.201	800.000	-0.047	-0.146
-607.186	-46.565	-0.261	-0.128
-606.171	-132.044	-0.339	0.044
-605.157	800.000	-0.054	0.152
-604.142	80.896	0.205	-0.221
-603.128	-151.542	-0.121	0.009
-602.113	-167.169	-0.131	0.005
-601.098	-44.952	-0.247	-0.123
-600.084	202.202	0.101	-0.155
-599.069	-200.000	0.006	-0.107
-598.055	79.419	-0.130	0.139
-597.040	83.375	0.032	0.035
-596.025	-200.000	0.011	-0.424
-595.011	-193.001	-0.267	0.002
-593.996	61.319	-0.194	-0.193
-592.982	26.716	-0.139	-0.117
-591.967	82.907	0.203	0.220
-590.952	-86.716	-0.192	-0.059
-589.938	25.047	-0.034	-0.028
-588.923	-200.000	-0.056	0.247
-587.909	800.000	-0.096	0.355
-586.894	367.329	0.087	0.175
-585.879	-200.000	-0.006	0.155
-584.865	800.000	0.090	0.392
-583.850	185.662	0.127	-0.188
-582.836	-200.000	0.029	-0.383
-581.821	-42.065	0.318	-0.162
-580.806	800.000	-0.031	0.099
-579.792	-51.143	-0.175	-0.082
-578.777	414.248	-0.092	0.195
-577.763	-200.000	0.036	-0.206
-576.748	-23.874	-0.373	0.223
-575.733	-83.200	-0.095	0.030
-574.719	800.000	-0.106	0.378
-573.704	282.863	-0.038	-0.068
-572.690	-200.000	-0.003	0.142
-571.675	800.000	-0.046	0.201
-570.661	38.160	0.275	0.244
-569.646	-48.737	-0.169	-0.081
-568.631	800.000	0.048	-0.181
-567.617	-120.113	-0.336	-0.057
-566.602	-200.000	-0.011	-0.146
-565.588	-123.769	0.269	0.042
-564.573	-200.000	0.028	0.135
-563.558	26.637	-0.117	-0.098
-562.544	-34.120	-0.176	-0.096
-561.529	-200.000	-0.016	-0.114
-560.515	137.093	-0.166	0.217
-559.500	-200.000	-0.043	-0.198
-558.485	-82.484	0.239	-0.077
-557.471	100.345	0.126	-0.145
-556.456	190.177	-0.304	-0.455
-555.442	-200.000	-0.035	-0.181
-554.427	-102.304	-0.153	0.037
-553.412	-91.959	-0.171	-0.048
-552.398	-157.741	0.118	0.007
-551.383	-52.821	-0.167	0.077
-550.369	219.666	0.103	0.164
-549.354	800.000	0.074	-0.302
-548.339	800.000	0.049	-0.211
-547.325	-104.102	0.212	-0.049
-546.310	-200.000	-0.001	0.036
-545.296	-200.000	0.051	0.268
-544.281	14.180	-0.060	-0.047
-543.266	-200.000	0.010	0.233
-542.252	-64.028	-0.094	-0.038
-541.237	-16.727	0.312	-0.196
-540.223	-146.322	0.051	0.004
-539.208	219.342	-0.147	0.235
-538.193	23.084	-0.098	0.080
-537.179	84.789	0.261	0.284
-536.164	206.386	-0.162	-0.252
-535.150	-193.697	-0.067	0.001
-534.135	-116.605	-0.364	0.067
-533.121	100.548	-0.183	-0.211
-532.106	-160.185	-0.119	0.006
-531.091	-68.061	-0.198	0.077
-530.077	-116.858	0.164	0.030
-529.062	-85.138	-0.231	0.072
-528.048	236.612	-0.049	-0.080
-527.033	43.129	0.060	0.054
-526.018	465.928	-0.077	-0.171
-525.004	789.893	0.052	-0.142
-523.989	591.059	-0.070	-0.171
-522.975	-28.133	0.151	-0.087
-521.960	-200.000	-0.040	-0.363
-520.945	161.600	0.097	-0.134
-519.931	-12.998	-0.067	-0.043
-518.916	800.000	0.053	-0.171
-517.902	400.973	0.078	0.163
-516.887	800.000	-0.113	0.335
-515.872	-200.000	-0.011	0.128
-514.858	-49.302	0.185	-0.088
-513.843	555.223	-0.055	0.132
-512.829	35.326	-0.053	-0.047
-511.814	-145.336	-0.381	-0.034
-510.799	800.000	-0.066	-0.234
-509.785	-71.885	0.285	0.106
-508.770	763.620	-0.102	0.274
-507.756	-117.656	0.277	0.050
-506.741	-80.197	0.153	-0.051
-505.726	169.073	-0.174	-0.246
-504.712	96.979	-0.111	-0.127
-503.697	-73.475	-0.232	0.084
-502.683	-200.000	-0.036	0.182
-501.668	-200.000	0.013	0.077
-500.653	255.462	0.208	-0.355
-499.639	61.058	0.296	0.292
-498.624	-200.000	0.004	-0.028
-497.610	-62.701	-0.160	-0.066
-496.595	134.112	0.093	0.120
-495.581	-72.936	0.336	-0.123
-494.566	590.785	-0.138	0.337
-493.551	-200.000	-0.026	0.157
-492.537	-39.881	0.304	-0.158
-491.522	-112.056	-0.042	0.008
-490.508	-34.352	0.150	-0.082
-489.493	6.032	-0.150	0.111
-488.478	-120.939	0.383	-0.064
-487.464	160.665	0.096	-0.133
-486.449	-45.966	-0.267	-0.131
-485.435	61.379	0.112	0.111
-484.420	3.084	-0.200	-0.144
-483.405	800.000	0.102	0.362
-482.391	-113.904	-0.254	-0.049
-481.376	29.548	0.166	0.140
-480.362	36.533	0.257	-0.225
-479.347	-101.231	0.138	0.034
-478.332	21.201	0.334	-0.270
-477.318	-10.077	0.151	0.099
-476.303	68.531	0.139	-0.142
-475.289	-200.000	-0.025	-0.207
-474.274	-1.642	-0.340	0.238
-473.259	-22.834	0.260	0.156
-472.245	-66.708	-0.178	-0.070
-471.230	800.000	0.062	-0.246
-470.216	-85.621	-0.287	-0.089
-469.201	540.233	-0.104	-0.246
-468.186	-200.000	-0.013	-0.199
-467.172	-82.211	-0.190	-0.062
-466.157	623.758	0.020	0.049
-465.143	-200.000	-0.063	0.309
-464.128	62.353	-0.133	-0.132
-463.113	-200.000	-0.021	-0.216
-462.099	-185.858	0.340	0.005
-461.084	178.980	-0.146	-0.212
-460.070	65.337	-0.301	-0.302
-459.055	291.449	-0.130	-0.235
-458.040	-95.550	-0.107	0.028
-457.026	289.479	-0.182	0.327
-456.011	-76.587	-0.226	-0.079
-454.997	292.411	0.052	0.095
-453.982	138.788	-0.219	-0.286
-452.968	-179.753	0.318	-0.007
-451.953	-200.000	-0.011	-0.254
-450.938	259.299	-0.058	-0.099
-449.924	-32.233	0.098	-0.054
-448.909	205.323	-0.072	0.110
-447.895	-136.400	-0.250	0.029
-446.880	800.000	-0.074	-0.211
-445.865	-16.261	0.336	-0.212
-444.851	233.925	0.300	0.490
-443.836	800.000	-0.119	0.335
-442.822	-200.000	-0.006	-0.356
-441.807	-155.846	-0.284	-0.018
-440.792	-75.107	0.271	-0.096
-439.778	-42.545	0.138	0.070
-438.763	724.690	0.048	-0.126
-437.749	185.117	0.146	-0.215
-436.734	-200.000	-0.014	-0.503
-435.719	-68.052	0.418	0.162
-434.705	-200.000	0.022	0.130
-433.690	9.115	0.244	-0.183
-432.676	140.622	0.108	-0.141
-431.661	-19.998	-0.418	-0.256
-430.646	15.596	0.202	0.157
-429.632	29.556	0.270	0.227
-428.617	-200.000	-0.011	-0.056
-427.603	250.305	-0.005	0.009
-426.588	-104.636	-0.221	-0.051
-425.573	559.175	0.016	0.039
-424.559	173.685	0.039	-0.056
-423.544	12.363	0.148	0.113
-422.530	-122.460	-0.169	0.027
-421.515	25.884	-0.061	0.050
-420.500	800.000	-0.049	0.149
-419.486	-52.584	-0.145	0.066
-418.471	-80.933	-0.193	-0.063
-417.457	-200.000	-0.019	0.085
-416.442	1.244	-0.374	0.266
-415.428	-69.843	0.295	-0.112
-414.413	-200.000	0.064	0.328
-413.398	-171.445	0.140	-0.005
-412.384	800.000	-0.047	-0.147
-411.369	344.697	-0.046	0.090
-410.355	301.265	-0.109	0.199
-409.340	169.553	-0.066	0.093
-408.325	800.000	0.026	0.109
-407.311	-117.921	0.288	0.051
-406.296	800.000	-0.079	-0.301
-405.282	-84.965	0.195	0.060
-404.267	181.951	-0.153	-0.224
-403.252	800.000	0.078	-0.215
-402.238	-200.000	-0.011	-0.069
-401.223	689.957	0.071	-0.184
-400.209	57.952	0.350	0.340
-399.194	-130.974	0.116	0.015
-398.179	-50.547	-0.222	0.104
-397.165	-0.200	-0.040	-0.028
-396.150	-26.811	0.358	0.207
-395.136	178.713	0.094	0.136
-394.121	58.696	-0.052	-0.051
-393.106	233.570	0.100	-0.163
-392.092	159.260	0.128	-0.177
-391.077	100.577	0.177	0.204
-390.063	800.000	0.137	-0.392
-389.048	21.130	-0.210	-0.169
-388.033	-72.094	0.244	0.090
-387.019	619.132	-0.047	-0.117
-386.004	-8.611	0.170	0.113
-384.990	800.000	-0.084	-0.247
-383.975	800.000	0.107	-0.297
-382.960	292.563	0.213	0.384
-381.946	-34.749	0.234	0.126
-380.931	401.845	0.095	0.197
-379.917	769.072	-0.064	-0.173
-378.902	-141.345	0.318	-0.032
-377.888	-5.189	0.182	0.124
-376.873	-120.575	-0.190	0.032
-375.858	342.809	-0.117	0.227
-374.844	18.280	-0.132	-0.104
-373.829	654.100	0.141	-0.358
-372.815	382.896	-0.077	-0.157
-371.800	310.335	0.106	-0.196
-370.785	-200.000	-0.029	0.253
-369.771	16.317	0.128	0.100
-368.756	800.000	-0.105	-0.290
-367.742	-80.730	-0.074	-0.024
-366.727	800.000	-0.077	-0.254
-365.712	-200.000	-0.057	-0.299
-364.698	-200.000	0.014	0.301
-363.683	634.678	-0.045	-0.114
-362.669	256.438	0.105	-0.178
-361.654	51.645	-0.261	0.246
-360.639	148.498	0.075	-0.101
-359.625	49.700	-0.152	0.142
-358.610	95.106	-0.093	-0.105
-357.596	-133.474	-0.175	0.022
-356.581	763.050	-0.049	0.131
-355.566	-200.000	0.004	0.190
-354.552	148.036	-0.099	0.132
-353.537	-149.680	0.265	0.021
-352.523	305.999	0.172	0.317
-351.508	-200.000	-0.007	-0.037
-350.493	108.793	-0.060	-0.071
-349.479	800.000	0.118	-0.413
-348.464	172.829	0.097	0.139
-347.450	800.000	0.076	-0.290
-346.435	-13.733	0.263	-0.168
-345.420	315.850	-0.306	0.571
-344.406	-108.361	-0.319	0.068
-343.391	113.609	-0.093	-0.111
-342.377	95.663	-0.184	0.207
-341.362	-200.000	0.049	-0.370
-340.348	120.212	-0.152	0.186
-339.333	68.502	-0.122	0.123
-338.318	105.811	-0.039	-0.045
-337.304	480.318	-0.118	-0.265
-336.289	510.092	0.109	-0.251
-335.275	-56.295	-0.129	-0.056
-334.260	280.205	0.047	0.083
-333.245	738.316	-0.098	0.260
-332.231	-74.179	-0.213	-0.076
-331.216	-47.351	0.115	0.055
-330.202	-200.000	0.028	-0.321
-329.187	-49.713	-0.125	0.059
-328.172	-113.787	-0.164	0.032
-327.158	-44.010	0.246	-0.122
-326.143	-56.015	-0.085	-0.038
-325.129	579.553	-0.167	0.403
-324.114	-104.043	-0.166	-0.038
-323.099	800.000	-0.071	-0.252
-322.085	59.533	0.215	-0.209
-321.070	-138.666	-0.213	-0.023
-320.056	32.418	-0.036	-0.031
-319.041	-80.429	-0.088	-0.029
-318.026	353.209	0.121	0.237
-317.012	-101.579	0.149	0.036
-315.997	-161.542	-0.413	-0.021
-314.983	800.000	0.077	0.301
-313.968	800.000	-0.090	0.345
-312.953	-105.689	-0.303	-0.068
-311.939	800.000	-0.017	-0.060
-310.924	88.433	0.185	0.202
-309.910	-200.000	-0.022	0.209
-308.895	-81.408	0.503	-0.164
-307.880	-200.000	0.069	-0.392
-306.866	517.411	-0.120	0.278
-305.851	387.181	-0.064	-0.131
-304.837	-200.000	-0.006	-0.316
-303.822	-200.000	0.037	0.298
-302.807	649.587	0.064	0.161
-301.793	-45.311	0.068	-0.033
-300.778	-200.000	-0.016	-0.145
-299.764	177.327	0.091	-0.131
-298.749	-21.982	0.154	0.092
-297.735	385.514	-0.081	-0.165
-296.720	-36.783	0.071	-0.038
-295.705	-7.204	0.090	-0.060
-294.691	-172.952	0.268	0.008
-293.676	597.189	0.015	0.037
-292.662	387.199	0.090	-0.183
-291.647	800.000	-0.025	0.102
-290.632	-84.044	0.192	0.060
-289.618	800.000	0.059	0.166
-288.603	-200.000	0.033	-0.171
-287.589	-98.535	-0.292	0.074
-286.574	-143.150	0.066	0.006
-285.559	76.348	0.090	0.094
-284.545	34.543	0.241	0.208
-283.530	137.491	0.125	0.162
-282.516	-59.660	-0.300	-0.127
-281.501	-126.641	0.290	-0.042
-280.486	-200.000	-0.038	0.303
-279.472	-127.908	0.115	0.016
-278.457	800.000	-0.074	-0.241
-277.443	101.420	0.136	0.156
-276.428	81.824	-0.096	0.103
-275.413	163.151	0.227	-0.314
-274.399	-13.823	0.062	-0.040
-273.384	-14.894	0.147	-0.093
-272.370	-159.599	-0.353	0.019
-271.355	800.000	-0.056	0.222
-270.340	-94.808	-0.276	-0.074
-269.326	-121.794	0.110	0.018
-268.311	-88.966	0.143	0.042
-267.297	44.389	-0.219	-0.198
-266.282	-22.122	-0.240	-0.143
-265.267	40.633	-0.152	-0.135
-264.253	-200.000	0.020	-0.207
-263.238	421.438	-0.100	0.211
-262.224	800.000	-0.020	-0.072
-261.209	387.624	-0.186	0.378
-260.195	350.029	-0.162	0.316
-259.180	-60.180	0.100	-0.042
-258.165	-123.818	-0.069	-0.011
-257.151	-200.000	-0.002	0.098
-256.136	-200.000	0.017	0.197
-255.122	-24.127	-0.138	0.081
-254.107	20.099	0.064	0.051
-253.092	45.274	0.064	0.059
-252.078	-53.249	0.339	0.153
-251.063	94.749	-0.204	0.229
-250.049	-67.304	0.257	0.100
-249.034	490.929	-0.076	0.171
-248.019	-31.445	-0.032	-0.018
-247.005	-200.000	0.056	0.402
-245.990	-51.127	-0.168	0.077
-244.976	107.265	0.144	0.168
-243.961	-49.679	-0.177	0.083
-242.946	-174.078	0.104	-0.003
-241.932	233.201	0.039	0.063
-240.917	-45.655	-0.089	-0.043
-239.903	257.768	-0.135	0.228
-238.888	-200.000	-0.013	-0.089
-237.873	241.334	0.112	0.184
-236.859	-200.000	0.016	0.138
-235.844	259.808	0.147	-0.250
-234.830	-46.900	-0.355	0.171
-233.815	800.000	0.013	0.041
-232.800	59.580	-0.225	0.218
-231.786	73.697	-0.157	0.162
-230.771	-200.000	0.073	0.332
-229.757	509.266	-0.129	-0.295
-228.742	800.000	0.023	-0.071
-227.727	-136.848	-0.156	0.018
-226.713	-200.000	-0.000	0.359
-225.698	-74.472	0.323	0.115
-224.684	-200.000	-0.020	0.137
-223.669	40.903	0.138	-0.122
-222.655	800.000	-0.082	-0.240
-221.640	-141.530	0.306	0.030
-220.625	-134.997	0.197	0.023
-219.611	-36.132	0.186	0.099
-218.596	426.845	-0.067	0.142
-217.582	116.866	-0.078	0.094
-216.567	-157.300	-0.316	0.019
-215.552	-200.000	-0.016	0.298
-214.538	-200.000	0.012	0.088
-213.523	208.907	-0.148	-0.228
-212.509	62.580	-0.101	-0.099
-211.494	272.652	0.131	0.227
-210.479	210.217	0.127	0.196
-209.465	-200.000	0.058	-0.297
-208.450	-97.440	0.260	0.066
-207.436	-21.374	-0.137	0.082
-206.421	-200.000	0.020	-0.114
-205.406	532.901	0.035	0.081
-204.392	-94.369	0.050	0.013
-203.377	-23.743	-0.183	-0.108
-202.363	101.322	0.140	0.160
-201.348	164.112	0.047	0.066
-200.333	-74.417	-0.123	0.043
-199.319	-104.369	0.192	0.044
-198.304	-18.632	-0.151	-0.092
-197.290	800.000	-0.065	-0.178
-196.275	-80.140	-0.254	-0.084
-195.260	-53.731	0.407	-0.182
-194.246	-163.602	0.335	0.016
-193.231	-105.388	0.366	0.082
-192.217	-140.342	-0.133	0.014
-191.202	-22.864	-0.117	0.069
-190.187	6.637	-0.172	-0.125
-189.173	7.425	-0.176	0.129
-188.158	-200.000	-0.062	0.266
-187.144	-200.000	-0.001	-0.213
-186.129	606.446	0.074	0.182
-185.114	-64.909	-0.295	0.117
-184.100	36.289	-0.160	0.139
-183.085	-98.205	-0.131	0.033
-182.071	130.572	-0.024	0.031
-181.056	58.565	-0.104	0.100
-180.042	-135.021	0.157	-0.019
-179.027	188.041	-0.074	0.109
-178.012	-73.197	0.272	-0.098
-176.998	157.579	-0.179	-0.244
-175.983	155.241	0.184	0.249
-174.969	-79.894	-0.376	-0.124
-173.954	-68.876	0.423	0.160
-172.939	4.187	0.144	-0.103
-171.925	-200.000	0.014	0.266
-170.910	-17.938	-0.173	-0.106
-169.896	-84.175	0.121	0.038
-168.881	-36.642	0.273	-0.144
-167.866	49.397	0.085	0.078
-166.852	-106.504	0.237	-0.052
-165.837	-200.000	-0.020	-0.087
-164.823	128.804	-0.197	-0.246
-163.808	490.518	-0.076	0.171
-162.793	-200.000	0.026	0.122
-161.779	-200.000	-0.023	0.165
-160.764	-60.059	0.290	-0.121
-159.750	-65.671	-0.159	-0.062
-158.735	771.879	-0.054	-0.145
-157.720	-4.633	-0.114	0.078
-156.706	800.000	-0.096	0.343
-155.691	57.851	-0.155	-0.148
-154.677	196.733	0.114	0.170
-153.662	-200.000	0.016	-0.370
-152.647	171.273	0.027	-0.038
-151.633	-67.802	0.300	0.115
-150.618	-120.747	0.285	-0.047
-149.604	-82.959	-0.144	-0.045
-148.589	-118.079	0.191	0.033
-147.574	-200.000	0.010	0.235
-146.560	-162.230	-0.118	0.006
-145.545	-200.000	-0.067	0.320
-144.531	-200.000	-0.012	-0.065
-143.516	-200.000	-0.012	-0.227
-142.502	-62.195	-0.154	-0.063
-141.487	586.264	0.072	0.174
-140.472	211.143	-0.200	-0.308
-139.458	-33.455	0.191	-0.103
-138.443	800.000	0.017	-0.059
-137.429	-20.455	0.130	0.078
-136.414	-200.000	0.058	-0.302
-135.399	-200.000	-0.007	-0.373
-134.385	-15.267	0.146	-0.091
-133.370	-65.705	0.199	0.078
-132.356	-200.000	-0.002	0.027
-131.341	800.000	0.070	-0.297
-130.326	751.682	-0.147	0.388
-129.312	199.879	-0.064	0.096
-128.297	-85.052	0.257	0.079
-127.283	-52.430	0.348	0.158
-126.268	84.099	0.111	-0.118
-125.253	93.456	0.022	-0.025
-124.239	800.000	-0.039	0.157
-123.224	-200.000	0.070	-0.369
-122.210	-200.000	-0.024	0.105
-121.195	-200.000	-0.045	-0.206
-120.180	-85.784	0.362	0.110
-119.166	-80.143	-0.196	-0.064
-118.151	-128.704	0.125	-0.017
-117.137	-32.139	-0.230	-0.126
-116.122	-59.013	0.274	0.116
-115.107	298.696	-0.237	0.426
-114.093	-82.432	0.295	0.094
-113.078	436.996	0.089	0.190
-112.064	53.075	0.034	-0.032
-111.049	84.963	-0.024	-0.026
-110.034	-20.872	0.118	0.071
-109.020	689.813	-0.138	0.354
-108.005	-200.000	0.040	-0.383
-106.991	-65.683	-0.325	0.127
-105.976	3.401	0.204	-0.146
-104.962	-129.315	-0.200	0.027
-103.947	-86.281	0.206	0.062
-102.932	-6.356	0.091	0.060
-101.918	165.170	0.163	0.225
-100.903	150.853	0.260	0.346
-99.889	-200.000	0.041	0.289
-98.874	-94.566	-0.214	-0.057
-97.859	-1.491	0.155	0.107
-96.845	116.359	-0.073	0.088
-95.830	-10.118	-0.392	-0.255
-94.816	800.000	-0.040	0.135
-93.801	-200.000	-0.055	0.238
-92.786	-200.000	0.006	-0.132
-91.772	-200.000	-0.002	0.387
-90.757	-200.000	0.004	0.048
-89.743	188.956	-0.089	0.130
-88.728	186.345	-0.052	-0.076
-87.713	20.840	0.052	0.042
-86.699	-140.085	0.192	-0.020
-85.684	-118.307	0.189	0.033
-84.670	-178.690	-0.153	-0.003
-83.655	-45.007	0.052	0.025
-82.640	800.000	-0.035	0.101
-81.626	-200.000	-0.018	0.106
-80.611	53.537	-0.151	-0.142
-79.597	336.719	0.075	0.142
-78.582	2.978	-0.143	0.102
-77.567	-150.993	0.207	0.015
-76.553	-27.430	0.201	0.114
-75.538	301.624	-0.203	-0.366
-74.524	-200.000	0.034	-0.199
-73.509	-117.874	-0.406	-0.071
-72.494	-162.777	-0.195	0.009
-71.480	-9.863	0.136	0.089
-70.465	-61.876	-0.316	0.129
-69.451	800.000	-0.070	0.275
-68.436	51.832	-0.075	0.070
-67.422	-200.000	-0.031	-0.148
-66.407	729.426	0.081	0.212
-65.392	-174.756	-0.087	0.002
-64.378	800.000	-0.046	-0.169
-63.363	-200.000	0.016	0.229
-62.349	24.233	-0.106	0.086
-61.334	53.298	-1.181	-1.106
-60.319	253.523	0.351	0.586
-59.305	230.447	-0.638	-1.019
-58.290	185.788	0.645	0.936
-57.276	379.266	0.718	1.437
-56.261	-200.000	115.581	673.290
-55.246	550.153	1521.737	3565.219
-54.232	179.815	2684.661	3842.461
-53.217	109.850	2167.271	2539.246
-52.203	38.220	1693.995	1473.142
-51.188	30.564	1512.160	1263.182
-50.173	28.269	1488.054	1227.628
-49.159	52.576	1546.925	1442.956
-48.144	51.126	1561.567	1446.672
-47.130	30.801	1517.831	1269.332
-46.115	27.673	1503.128	1235.832
-45.100	27.482	1499.574	1231.564
-44.086	27.495	1497.444	1229.859
-43.071	27.486	1495.537	1228.182
-42.057	27.434	1493.851	1226.396
-41.042	27.395	1492.734	1225.167
-40.027	27.429	1491.801	1224.582
-39.013	27.495	1489.321	1222.945
-37.998	27.469	1487.850	1221.511
-36.984	27.372	1487.476	1220.507
-35.969	27.402	1485.960	1219.417
-34.954	27.403	1484.627	1218.279
-33.940	27.404	1483.182	1217.053
-32.925	27.366	1481.788	1215.606
-31.911	27.517	1480.264	1215.316
-30.896	27.551	1478.969	1214.431
-29.881	27.631	1477.947	1214.072
-28.867	27.606	1476.643	1212.790
-27.852	27.524	1475.699	1211.422
-26.838	27.537	1474.415	1210.402
-25.823	27.538	1472.219	1208.559
-24.809	27.553	1471.080	1207.680
-23.794	27.585	1469.314	1206.392
-22.779	27.440	1468.959	1205.090
-21.765	27.451	1467.531	1203.946
-20.750	27.555	1466.267	1203.546
-19.736	27.519	1465.277	1202.450
-18.721	27.461	1464.076	1201.037
-17.706	27.454	1463.233	1200.246
-16.692	27.499	1461.910	1199.411
-15.677	27.485	1461.187	1198.677
-14.663	27.521	1459.987	1197.886
-13.648	27.353	1459.670	1196.473
-12.633	27.396	1458.920	1196.091
-11.619	27.450	1457.625	1195.336
-10.604	27.398	1456.902	1194.355
-9.590	27.507	1455.795	1194.116
-8.575	27.441	1455.591	1193.466
-7.560	27.432	1454.110	1192.146
-6.546	27.458	1453.197	1191.520
-5.531	27.394	1452.742	1190.683
-4.517	27.427	1451.371	1189.730
-3.502	27.449	1450.360	1188.994
-2.487	27.473	1449.306	1188.240
-1.473	27.429	1448.264	1187.053
-0.458	27.435	1447.042	1186.045
0.556	27.767	1436.758	1173.960
1.571	24.447	1411.321	1132.058
2.586	20.649	1349.756	1059.494
3.600	18.994	1266.544	984.622
4.615	17.806	1222.898	944.033
5.629	15.468	1166.600	888.139
6.644	8.960	1085.422	794.135
7.659	4.002	1048.851	743.542
8.673	3.347	1043.969	736.885
9.688	3.153	1041.225	733.956
10.702	3.166	1039.421	732.680
11.717	3.194	1037.411	731.334
12.731	5.022	1038.699	740.869
13.746	11.690	1047.617	779.025
14.761	18.017	1055.829	815.348
15.775	19.930	1057.810	825.943
16.790	19.603	1055.676	822.646
17.804	18.464	1053.749	815.657
18.819	17.509	1051.967	809.663
19.834	17.189	1050.672	807.077
20.848	16.996	1049.694	805.335
21.863	16.923	1049.423	804.709
22.877	16.815	1048.667	803.551
23.892	16.504	1048.138	801.596
24.907	16.423	1047.151	800.389
25.921	16.457	1046.072	799.654
26.936	16.531	1045.207	799.271
27.950	16.389	1044.358	797.879
28.965	16.472	1043.161	797.286
29.980	16.654	1041.741	796.987
30.994	16.718	1041.034	796.679
32.009	16.912	1040.232	796.906
33.023	16.838	1039.514	795.936
34.038	16.757	1039.003	795.095
35.053	16.808	1037.998	794.496
36.067	16.766	1037.014	793.476
37.082	16.601	1035.944	791.812
38.096	16.655	1035.300	791.503
39.111	16.636	1035.208	791.275
40.126	16.802	1033.889	790.974
41.140	16.709	1032.592	789.476
42.155	16.458	1031.792	787.623
43.169	16.281	1030.349	785.633
44.184	16.326	1029.079	784.801
45.199	16.251	1027.732	783.359
46.213	16.257	1027.178	782.893
47.228	16.333	1026.483	782.646
48.242	16.444	1025.666	782.470
49.257	16.585	1024.606	782.242
50.271	16.587	1023.726	781.509
51.286	16.673	1022.523	780.921
52.301	16.575	1022.669	780.512
53.315	16.629	1021.561	779.842
54.330	16.532	1020.715	778.685
55.344	16.453	1019.582	777.387
56.359	16.409	1018.221	776.078
57.374	16.477	1017.822	776.018
58.388	16.403	1016.704	774.757
59.403	16.227	1015.745	773.151
60.417	16.294	1015.612	773.290
61.432	16.324	1014.463	772.483
62.447	16.226	1013.910	771.545
63.461	16.120	1013.226	770.470
64.476	16.163	1012.112	769.754
65.490	16.158	1011.113	768.904
66.505	16.090	1010.547	768.096
67.520	16.198	1009.588	767.790
68.534	16.154	1009.133	767.175
69.549	16.213	1008.156	766.634
70.563	16.235	1007.694	766.313
71.578	16.023	1007.101	764.834
72.593	16.125	1005.743	764.194
73.607	16.082	1004.729	763.165
74.622	16.026	1003.823	762.153
75.636	15.983	1002.914	761.201
76.651	16.070	1002.137	760.939
77.666	15.969	1001.633	760.029
78.680	16.089	1000.806	759.879
79.695	16.021	1000.600	759.348
80.709	16.093	999.872	759.050
81.724	16.084	999.548	758.700
82.739	16.243	998.586	758.615
83.753	16.399	997.826	758.672
84.768	16.553	996.975	758.649
85.782	16.740	996.421	759.001
86.797	16.907	995.849	759.241
87.812	16.905	994.535	758.167
88.826	16.740	994.114	757.040
89.841	16.782	993.048	756.347
90.855	16.654	992.540	755.325
91.870	16.801	991.790	755.341
92.884	17.016	990.800	755.478
93.899	16.801	990.414	754.159
94.914	16.736	989.965	753.464
95.928	16.708	989.384	752.828
96.943	16.962	988.360	753.110
97.957	16.808	987.500	751.708
98.972	16.799	987.091	751.290
99.987	16.843	986.089	750.656
101.001	16.740	985.579	749.742
102.016	16.558	985.143	748.540
103.030	16.710	983.645	748.006
104.045	16.793	982.834	747.690
105.060	16.834	981.628	746.890
106.074	16.660	980.797	745.424
107.089	16.471	979.528	743.561
108.103	16.393	978.793	742.593
109.118	16.276	977.860	741.309
110.133	16.192	976.788	740.062
111.147	16.202	975.459	739.031
112.162	16.179	975.086	738.585
113.176	16.317	974.114	738.387
114.191	16.200	973.495	737.339
115.206	16.448	972.779	737.817
116.220	16.406	972.193	737.124
117.235	16.458	970.648	736.113
118.249	16.316	970.544	735.351
119.264	16.369	969.367	734.622
120.279	16.212	969.071	733.652
121.293	16.232	967.993	732.857
122.308	16.115	967.297	731.756
123.322	16.116	965.983	730.704
124.337	16.086	964.789	729.604
125.352	16.093	963.692	728.744
126.366	16.091	962.908	728.078
127.381	16.076	961.772	727.087
128.395	15.933	961.207	725.981
129.410	16.147	959.802	725.774
130.424	16.115	959.094	725.039
131.439	16.187	958.196	724.607
132.454	16.144	957.655	723.948
133.468	16.330	957.163	724.311
134.483	16.237	956.414	723.280
135.497	16.195	955.778	722.553
136.512	16.263	955.122	722.287
137.527	16.258	954.648	721.842
138.541	16.405	953.585	721.600
139.556	16.337	952.975	720.786
140.570	16.367	952.158	720.233
141.585	16.385	951.233	719.544
142.600	16.711	950.704	720.468
143.614	16.573	950.506	719.671
144.629	16.680	949.474	719.278
145.643	16.806	948.895	719.310
146.658	16.719	948.129	718.297
147.673	16.564	946.669	716.470
148.687	16.608	945.681	715.845
149.702	16.605	944.755	715.069
150.716	16.499	943.808	713.842
151.731	16.386	943.156	712.808
152.746	16.398	942.441	712.255
153.760	16.338	942.015	711.617
154.775	16.564	941.071	711.792
155.789	16.624	940.405	711.479
156.804	16.685	939.913	711.302
157.819	16.687	938.842	710.435
158.833	16.703	938.317	710.043
159.848	16.712	938.211	709.938
160.862	16.872	937.573	710.060
161.877	16.942	936.107	709.181
162.892	16.585	935.515	707.178
163.906	16.479	934.223	705.697
164.921	16.424	933.319	704.722
165.935	16.476	932.416	704.193
166.950	16.512	931.397	703.510
167.964	16.554	930.640	703.054
168.979	16.678	929.384	702.557
169.994	16.584	928.775	701.642
171.008	16.676	927.274	700.827
172.023	16.674	926.923	700.492
173.037	16.749	926.367	700.323
174.052	16.800	925.984	700.182
175.067	16.771	925.083	699.319
176.081	16.685	923.970	698.058
177.096	16.559	923.128	696.844
178.110	16.519	922.387	696.058
179.125	16.538	921.960	695.752
180.140	16.616	921.252	695.477
181.154	16.659	920.277	694.855
182.169	16.724	920.002	694.854
183.183	16.888	919.789	695.304
184.198	16.928	918.878	694.717
185.213	16.890	917.923	693.776
186.227	16.946	917.521	693.642
187.242	16.941	917.223	693.334
188.256	17.015	916.404	692.958
189.271	17.003	915.821	692.404
190.286	17.112	915.205	692.324
191.300	16.800	914.400	690.380
192.315	16.492	912.835	687.885
193.329	16.419	912.146	687.011
194.344	16.397	911.665	686.496
195.359	16.593	910.951	686.695
196.373	16.651	910.686	686.669
197.388	16.766	910.662	687.057
198.402	17.025	910.088	687.610
199.417	16.934	909.945	687.074
200.432	17.226	909.164	687.604
201.446	17.247	908.702	687.278
202.461	17.339	908.458	687.406
203.475	17.378	907.842	687.037
204.490	17.397	907.310	686.651
205.504	17.261	906.180	685.187
206.519	17.046	905.222	683.536
207.534	17.094	904.624	683.215
208.548	17.075	903.779	682.440
209.563	16.975	903.353	681.657
210.577	17.032	902.352	681.070
211.592	16.953	902.074	680.482
212.607	17.190	901.775	681.149
213.621	17.303	900.926	680.899
214.636	17.285	900.201	680.218
215.650	17.349	899.332	679.758
216.665	17.484	898.983	679.973
217.680	17.246	898.902	678.900
218.694	17.429	898.238	679.070
219.709	17.538	897.528	678.908
220.723	17.427	896.930	677.955
221.738	17.427	896.300	677.419
222.753	17.448	895.293	676.680
223.767	17.357	894.596	675.730
224.782	17.420	893.988	675.464
225.796	17.383	893.907	675.196
226.811	17.573	892.793	675.045
227.826	17.663	891.891	674.662
228.840	17.389	891.182	672.982
229.855	17.195	890.980	672.001
230.869	17.345	890.286	672.011
231.884	17.406	889.148	671.336
232.899	17.334	888.333	670.374
233.913	17.268	887.919	669.742
234.928	17.202	887.332	668.982
235.942	17.297	886.440	668.625
236.957	17.174	885.839	667.627
237.972	17.208	885.102	667.147
238.986	17.174	884.794	666.722
240.001	17.201	883.721	665.961
241.015	17.256	882.965	665.548
242.030	17.387	882.246	665.459
243.045	17.388	882.001	665.218
244.059	17.362	882.035	665.085
245.074	17.486	880.797	664.577
246.088	17.474	880.395	664.167
247.103	17.622	879.793	664.232
248.117	17.648	878.886	663.588
249.132	17.678	878.646	663.465
250.147	17.898	878.715	664.317
251.161	18.077	877.961	664.383
252.176	18.059	877.491	663.898
253.190	18.253	876.213	663.624
254.205	18.219	875.991	663.267
255.220	18.392	875.302	663.354
256.234	18.304	874.717	662.513
257.249	18.196	874.523	661.890
258.263	18.216	873.590	661.203
259.278	18.206	873.307	660.891
260.293	18.275	872.356	660.380
261.307	18.279	871.879	659.974
262.322	18.131	871.745	659.243
263.336	18.399	871.192	659.799
264.351	18.384	870.212	658.941
265.366	18.388	869.770	658.566
266.380	18.472	868.821	658.111
267.395	18.485	868.081	657.541
268.409	18.381	867.395	656.566
269.424	18.177	866.861	655.321
270.439	18.257	866.212	655.079
271.453	18.250	865.474	654.437
272.468	18.179	864.472	653.348
273.482	18.303	863.890	653.323
274.497	18.222	863.687	652.805
275.512	18.228	862.673	652.003
276.526	18.128	862.189	651.199
277.541	18.123	861.376	650.508
278.555	18.283	860.999	650.775
279.570	18.394	860.444	650.721
280.585	18.482	860.142	650.769
281.599	18.613	859.091	650.412
282.614	18.419	858.462	649.144
283.628	18.272	857.924	648.120
284.643	18.329	857.393	647.880
285.657	18.232	857.474	647.517
286.672	18.237	856.377	646.649
287.687	18.394	855.952	646.865
288.701	18.358	855.505	646.332
289.716	18.494	854.806	646.260
290.730	18.544	854.263	645.979
291.745	18.401	854.147	645.299
292.760	18.444	852.857	644.426
293.774	18.470	852.482	644.185
294.789	18.597	852.269	644.445
295.803	18.696	851.111	643.881
296.818	18.583	850.746	643.124
297.833	18.446	850.184	642.133
298.847	18.531	849.210	641.656
299.862	18.629	848.348	641.313
300.876	18.566	848.245	640.943
301.891	18.562	847.483	640.298
302.906	18.659	846.970	640.215
303.920	18.756	846.442	640.122
304.935	18.872	845.395	639.703
305.949	18.917	845.471	639.871
306.964	18.890	844.805	639.211
307.979	18.686	843.830	637.659
308.993	18.694	843.760	637.581
310.008	18.851	843.034	637.556
311.022	19.151	842.060	637.878
312.037	18.827	841.841	636.454
313.052	18.787	841.510	636.000
314.066	18.623	840.783	634.785
315.081	18.507	840.215	633.872
316.095	18.513	839.589	633.368
317.110	18.446	839.111	632.701
318.125	18.533	838.504	632.511
319.139	18.626	837.759	632.233
320.154	18.741	837.322	632.273
321.168	18.694	836.511	631.430
322.183	18.694	836.200	631.140
323.197	18.659	836.105	630.884
324.212	18.723	835.018	630.244
325.227	18.826	834.686	630.313
326.241	18.677	834.153	629.311
327.256	18.630	833.898	628.888
328.270	18.590	833.407	628.316
329.285	18.706	832.374	627.906
330.300	18.768	831.766	627.619
331.314	18.682	831.213	626.831
332.329	18.652	830.316	625.992
333.343	18.836	830.044	626.400
334.358	18.894	829.649	626.261
335.373	18.919	829.202	625.959
336.387	18.992	828.199	625.411
337.402	19.018	828.441	625.634
338.416	19.027	827.596	624.972
339.431	19.192	827.213	625.226
340.446	19.199	826.927	624.980
341.460	19.210	826.545	624.675
342.475	19.473	825.480	624.770
343.489	19.509	825.035	624.507
344.504	19.404	824.800	623.895
345.519	19.491	824.408	623.855
346.533	19.637	823.383	623.553
347.548	19.500	823.291	622.932
348.562	19.401	822.311	621.779
349.577	19.198	821.723	620.550
350.592	19.188	821.133	620.014
351.606	19.060	820.802	619.247
352.621	18.990	820.506	618.717
353.635	19.100	820.120	618.766
354.650	19.158	819.289	618.293
355.665	19.327	819.048	618.661
356.679	19.279	818.551	618.060
357.694	19.421	818.220	618.265
358.708	19.259	817.823	617.329
359.723	19.461	816.508	617.004
360.738	19.291	816.231	616.136
361.752	19.513	815.377	616.226
362.767	19.232	815.952	615.601
363.781	19.476	815.082	615.765
364.796	19.574	814.538	615.649
365.810	19.663	814.612	615.965
366.825	19.636	814.470	615.709
367.840	19.831	813.949	615.954
368.854	19.804	813.514	615.474
369.869	19.830	812.497	614.744
370.883	19.691	811.953	613.785
371.898	19.616	811.396	613.041
372.913	19.727	811.129	613.181
373.927	19.900	810.113	612.968
374.942	19.816	809.562	612.200
375.956	19.770	809.194	611.707
376.971	19.762	808.669	611.226
377.986	19.793	808.483	611.140
379.000	19.857	808.148	611.062
380.015	19.981	807.701	611.105
381.029	20.002	806.346	610.101
382.044	19.973	806.028	609.704
383.059	19.961	805.455	609.174
384.073	19.976	804.828	608.700
385.088	19.961	804.300	608.195
386.102	19.910	803.704	607.510
387.117	19.846	802.946	606.660
388.132	19.672	802.784	605.874
389.146	19.701	802.574	605.761
390.161	19.802	801.841	605.508
391.175	19.877	801.735	605.638
392.190	19.942	801.467	605.609
393.205	20.005	800.498	605.042
394.219	19.772	800.745	604.362
395.234	19.823	799.283	603.382
396.248	19.521	799.511	602.449
397.263	19.632	798.572	602.074
398.278	19.662	797.970	601.671
399.292	19.612	797.845	601.349
400.307	19.729	796.751	600.878
401.321	19.583	797.022	600.521
402.336	19.650	796.701	600.460
403.350	19.876	795.852	600.553
404.365	19.703	796.072	600.062
405.380	19.721	795.710	599.801
406.394	19.923	795.107	599.994
407.409	20.115	794.645	600.258
408.423	20.244	793.983	600.150
409.438	20.286	793.617	599.967
410.453	20.340	793.216	599.796
411.467	20.219	793.122	599.253
412.482	20.402	792.286	599.200
413.496	20.394	791.955	598.869
414.511	20.490	791.839	599.058
415.526	20.426	791.278	598.363
416.540	20.409	791.037	598.068
417.555	20.406	790.592	597.667
418.569	20.304	790.201	596.967
419.584	20.359	789.322	596.441
420.599	20.358	789.020	596.158
421.613	162.159	1370.689	1796.181
422.628	140.454	1455.405	1796.290
