DTS Sentinel unit serial number:	SN413079Multiplexer serial number:	ORYXHardware model number:	OX4-SRSoftware version number:	ORYX F/W v4.00 Oryx Data Collector v3.7.2.0data status	okinstallation	princeton_trtdifferential loss correction	single-endedforward channel	channel 3reverse channel	N/Adate	2019/09/15time	10:20:35forward acquisition time	60.00reverse acquisition time	0.00gamma	496.2192k internal	0.2307k external	0.2307temperature offset calibration	0.9975default loss term (dB/km)	0.3790temperature slope calibration	1.0000multiplexer offset coefficient	1.0000multiplexer slope coefficient	1.0000fibre end	0.00T internal ref (°C)	34.25T ext. ref 1 (°C)	5.03T ext. ref 2 (°C)	29.31length (m)	temperature (°C)	Stokes	anti-Stokes-747.200	-53.642	0.171	0.080
-746.185	800.000	-0.074	0.245
-745.171	800.000	0.088	0.252
-744.156	-200.000	-0.002	0.027
-743.142	-52.172	0.131	-0.062
-742.127	-25.595	0.290	0.174
-741.112	201.810	-0.210	0.328
-740.098	-54.535	0.288	-0.132
-739.083	-110.219	0.206	-0.044
-738.069	800.000	0.098	0.431
-737.054	-120.594	0.159	-0.027
-736.039	-32.228	-0.091	-0.051
-735.025	24.021	-0.230	0.193
-734.010	-140.789	-0.280	0.029
-732.996	224.395	-0.073	0.119
-731.981	22.320	0.185	-0.154
-730.966	-200.000	0.018	0.343
-729.952	-129.836	-0.072	0.010
-728.937	-32.511	-0.170	-0.097
-727.923	5.545	-0.150	0.113
-726.908	-72.137	-0.145	0.055
-725.894	32.568	-0.081	-0.071
-724.879	-120.203	-0.374	0.065
-723.864	106.529	-0.170	-0.204
-722.850	-200.000	0.060	-0.474
-721.835	-200.000	-0.031	-0.199
-720.821	188.934	-0.189	-0.287
-719.806	-103.856	-0.384	-0.091
-718.791	-106.965	0.054	0.012
-717.777	-86.940	0.083	0.026
-716.762	-164.221	-0.222	0.010
-715.748	-200.000	0.032	0.216
-714.733	10.795	-0.151	0.117
-713.718	-112.958	-0.311	0.063
-712.704	-132.596	-0.370	0.048
-711.689	-131.662	0.033	0.004
-710.675	-61.631	-0.246	-0.105
-709.660	12.138	0.202	-0.158
-708.645	-200.000	0.027	-0.167
-707.631	428.959	-0.141	-0.310
-706.616	800.000	0.042	-0.145
-705.602	-200.000	0.016	0.263
-704.587	-9.194	-0.084	0.057
-703.572	-200.000	0.001	-0.135
-702.558	105.410	-0.147	0.176
-701.543	-66.992	0.241	-0.097
-700.529	-107.297	0.163	0.036
-699.514	206.397	0.159	-0.252
-698.499	34.873	-0.163	-0.145
-697.485	281.522	-0.086	-0.155
-696.470	1.981	-0.170	-0.125
-695.456	-200.000	0.027	-0.263
-694.441	800.000	0.068	-0.203
-693.426	-200.000	-0.031	-0.423
-692.412	-122.427	-0.286	-0.047
-691.397	-200.000	-0.021	0.413
-690.383	-168.017	0.184	-0.007
-689.368	-66.200	0.258	-0.104
-688.354	451.600	-0.077	0.173
-687.339	800.000	-0.049	-0.192
-686.324	-200.000	0.082	-0.372
-685.310	570.969	-0.022	-0.053
-684.295	-32.997	-0.396	-0.223
-683.281	-200.000	-0.000	-0.327
-682.266	800.000	-0.039	-0.140
-681.251	-63.320	0.392	-0.164
-680.237	216.868	0.088	0.143
-679.222	-40.500	-0.033	-0.017
-678.208	632.048	-0.092	0.236
-677.193	-200.000	-0.014	0.087
-676.178	106.084	0.148	0.177
-675.164	800.000	0.072	-0.297
-674.149	-42.720	-0.086	-0.045
-673.135	786.940	-0.068	-0.188
-672.120	-94.994	-0.307	0.084
-671.105	2.321	-0.159	0.116
-670.091	-43.626	0.106	-0.054
-669.076	-54.573	0.220	-0.101
-668.062	124.621	-0.138	0.176
-667.047	109.020	0.117	-0.142
-666.032	-11.312	-0.185	0.123
-665.018	800.000	-0.029	-0.113
-664.003	205.667	0.101	0.160
-662.989	-200.000	-0.033	-0.238
-661.974	42.599	-0.238	0.220
-660.959	73.444	0.126	0.133
-659.945	-63.885	0.132	0.055
-658.930	-181.975	-0.120	-0.002
-657.916	-122.257	-0.148	-0.025
-656.901	800.000	0.076	-0.229
-655.886	-5.928	-0.062	0.043
-654.872	-80.132	-0.337	-0.115
-653.857	-200.000	0.031	0.253
-652.843	430.794	-0.076	-0.166
-651.828	-200.000	-0.050	0.334
-650.814	228.749	-0.028	-0.046
-649.799	-127.610	-0.202	-0.030
-648.784	229.602	0.160	-0.265
-647.770	128.413	-0.178	0.229
-646.755	-60.045	-0.248	-0.107
-645.741	348.108	0.199	-0.398
-644.726	-65.348	-0.104	-0.042
-643.711	80.868	0.084	0.092
-642.697	-136.314	-0.368	0.043
-641.682	-200.000	-0.005	0.075
-640.668	326.272	-0.051	-0.099
-639.653	224.058	-0.136	0.223
-638.638	61.490	-0.313	-0.316
-637.624	-200.000	0.010	-0.154
-636.609	406.327	0.029	0.062
-635.595	-113.296	0.351	-0.070
-634.580	-200.000	0.024	-0.320
-633.565	401.652	-0.024	-0.051
-632.551	26.800	0.163	0.138
-631.536	10.765	0.219	-0.169
-630.522	-67.280	0.075	0.030
-629.507	1.380	-0.325	-0.237
-628.492	-178.508	-0.415	0.010
-627.478	506.784	-0.042	0.099
-626.463	-157.421	0.143	-0.009
-625.449	-200.000	0.078	0.443
-624.434	-107.914	0.027	0.006
-623.419	-200.000	-0.005	-0.253
-622.405	567.507	0.096	-0.237
-621.390	242.901	-0.166	0.282
-620.376	609.282	0.052	-0.132
-619.361	-165.899	-0.208	0.009
-618.346	-86.922	-0.420	0.130
-617.332	123.870	-0.074	0.094
-616.317	0.014	-0.131	0.094
-615.303	-200.000	0.077	0.453
-614.288	-66.457	0.280	0.112
-613.273	164.490	0.166	-0.236
-612.259	-42.917	-0.184	0.094
-611.244	-80.034	0.402	0.136
-610.230	-200.000	0.070	0.343
-609.215	-104.960	-0.042	0.010
-608.201	800.000	-0.016	-0.059
-607.186	-185.272	0.324	-0.005
-606.171	145.477	0.103	0.139
-605.157	765.405	0.055	-0.151
-604.142	-125.189	0.199	-0.031
-603.128	-32.445	-0.185	-0.104
-602.113	-123.265	-0.299	-0.048
-601.098	800.000	0.034	-0.110
-600.084	60.128	-0.331	0.331
-599.069	-200.000	-0.040	-0.207
-598.055	-138.174	0.095	-0.011
-597.040	15.120	0.089	0.070
-596.025	154.763	0.083	-0.116
-595.011	-64.335	0.190	-0.078
-593.996	-13.881	-0.178	-0.116
-592.982	555.775	-0.136	-0.331
-591.967	-93.348	0.263	-0.074
-590.952	-45.615	0.446	0.223
-589.938	-148.524	-0.254	0.021
-588.923	-200.000	0.017	0.263
-587.909	132.058	0.090	0.117
-586.894	247.207	-0.108	-0.184
-585.879	-157.591	0.092	0.006
-584.865	-128.759	0.176	0.025
-583.850	-68.889	0.363	0.142
-582.836	280.810	0.133	0.241
-581.821	26.841	0.116	-0.098
-580.806	-29.905	0.277	-0.159
-579.792	800.000	-0.061	0.186
-578.777	26.452	-0.072	-0.060
-577.763	-200.000	-0.017	0.207
-576.748	14.931	0.141	0.112
-575.733	145.889	0.122	0.165
-574.719	86.998	0.163	-0.181
-573.704	-68.044	-0.283	-0.112
-572.690	220.688	0.199	-0.323
-571.675	-200.000	0.048	-0.231
-570.661	800.000	0.109	-0.458
-569.646	2.501	0.057	-0.041
-568.631	-157.810	-0.163	0.010
-567.617	-200.000	-0.001	0.069
-566.602	-2.780	-0.101	-0.072
-565.588	47.602	0.126	-0.119
-564.573	-189.265	-0.276	-0.003
-563.558	-114.491	0.258	-0.050
-562.544	800.000	-0.150	0.532
-561.529	-200.000	0.008	0.160
-560.515	724.254	0.052	0.141
-559.500	800.000	0.041	0.138
-558.485	-37.523	0.191	-0.103
-557.471	200.915	0.034	0.053
-556.456	800.000	-0.079	-0.303
-555.442	415.149	-0.172	0.370
-554.427	347.136	-0.129	0.256
-553.412	248.863	-0.227	0.389
-552.398	553.152	0.044	-0.107
-551.383	14.790	0.112	-0.089
-550.369	-98.624	-0.255	-0.066
-549.354	-200.000	0.000	-0.225
-548.339	800.000	0.044	-0.150
-547.325	-95.668	-0.186	-0.050
-546.310	478.718	0.028	-0.064
-545.296	-200.000	0.006	0.073
-544.281	-200.000	-0.000	0.134
-543.266	-200.000	-0.008	-0.275
-542.252	15.447	-0.200	0.158
-541.237	-200.000	-0.021	-0.263
-540.223	-15.179	-0.133	0.086
-539.208	800.000	-0.137	0.467
-538.193	106.600	0.128	-0.154
-537.179	-151.949	0.404	-0.030
-536.164	17.397	-0.210	0.168
-535.150	-102.578	-0.193	-0.047
-534.135	800.000	0.035	-0.114
-533.121	-148.643	-0.335	-0.028
-532.106	800.000	-0.090	-0.285
-531.091	-200.000	-0.002	0.158
-530.077	-200.000	-0.019	0.109
-529.062	-200.000	0.024	0.139
-528.048	352.932	-0.098	0.196
-527.033	-130.675	-0.197	-0.027
-526.018	-5.914	-0.206	-0.142
-525.004	205.230	0.135	-0.211
-523.989	-200.000	-0.023	0.145
-522.975	-11.513	0.030	0.020
-521.960	208.765	-0.074	-0.117
-520.945	-200.000	0.104	-0.000
-519.931	24.026	0.170	0.141
-518.916	-125.768	-0.126	-0.019
-517.902	-136.100	-0.211	0.025
-516.887	-42.474	-0.117	0.060
-515.872	-102.582	0.212	0.051
-514.858	-106.097	0.107	0.024
-513.843	800.000	0.054	0.231
-512.829	-65.854	0.039	-0.016
-511.814	-200.000	-0.037	-0.225
-510.799	649.132	0.087	0.225
-509.785	162.603	0.354	0.500
-508.770	-109.539	-0.166	0.035
-507.756	800.000	-0.051	0.161
-506.741	612.224	0.021	0.053
-505.726	96.479	-0.162	-0.187
-504.712	41.395	0.212	0.193
-503.697	266.872	-0.048	-0.085
-502.683	114.725	0.110	0.136
-501.668	508.756	0.172	0.402
-500.653	-183.929	0.224	-0.004
-499.639	85.240	0.080	-0.089
-498.624	800.000	-0.035	-0.148
-497.610	-200.000	0.045	-0.402
-496.595	-130.788	0.231	0.031
-495.581	-30.604	-0.135	-0.077
-494.566	100.622	-0.090	0.106
-493.551	-78.544	-0.447	-0.154
-492.537	-34.450	-0.257	0.142
-491.522	638.566	-0.075	-0.192
-490.508	286.456	0.117	0.213
-489.493	101.329	0.305	0.358
-488.478	-127.758	-0.340	-0.049
-487.464	-79.943	-0.261	-0.088
-486.449	-27.551	-0.072	-0.042
-485.435	2.846	-0.175	-0.128
-484.420	800.000	0.145	0.489
-483.405	709.372	0.213	0.567
-482.391	-118.423	0.199	-0.036
-481.376	-59.018	-0.107	0.046
-480.362	500.460	-0.158	0.366
-479.347	-50.416	-0.184	-0.088
-478.332	-116.984	-0.104	-0.019
-477.318	800.000	-0.061	-0.209
-476.303	-143.250	0.229	0.022
-475.289	50.683	-0.071	-0.068
-474.274	-16.938	0.112	-0.071
-473.259	-190.543	-0.271	0.003
-472.245	-9.483	0.301	0.202
-471.230	800.000	0.086	0.275
-470.216	178.658	0.228	0.336
-469.201	383.404	0.070	-0.144
-468.186	124.699	0.159	-0.201
-467.172	308.266	-0.067	-0.126
-466.157	-112.517	0.102	0.020
-465.143	20.260	-0.093	0.076
-464.128	414.034	0.016	-0.034
-463.113	90.967	-0.308	-0.347
-462.099	-89.589	0.200	0.059
-461.084	239.038	-0.110	-0.185
-460.070	-119.553	-0.240	-0.042
-459.055	-134.944	-0.314	0.038
-458.040	235.338	-0.059	-0.098
-457.026	343.998	0.175	0.346
-456.011	800.000	0.115	-0.366
-454.997	-139.307	-0.305	0.033
-453.982	178.831	0.155	0.228
-452.968	-41.852	-0.141	-0.072
-451.953	-200.000	0.012	-0.267
-450.938	-21.718	0.392	0.240
-449.924	-10.185	0.383	-0.255
-448.909	-115.580	0.247	-0.047
-447.895	-27.246	0.130	-0.076
-446.880	-155.134	0.262	0.017
-445.865	-177.240	0.461	0.011
-444.851	800.000	-0.076	-0.267
-443.836	-77.521	-0.278	-0.097
-442.822	-87.489	0.152	-0.046
-441.807	800.000	-0.035	-0.153
-440.792	-101.331	-0.195	-0.048
-439.778	93.333	-0.072	0.082
-438.763	-156.028	0.411	-0.026
-437.749	-87.856	0.180	-0.054
-436.734	-200.000	-0.024	-0.221
-435.719	-120.493	-0.295	-0.050
-434.705	-25.088	0.277	-0.165
-433.690	60.871	-0.154	-0.153
-432.676	-200.000	-0.002	-0.203
-431.661	52.119	-0.121	0.116
-430.646	-62.848	0.231	-0.096
-429.632	-200.000	0.030	0.138
-428.617	-172.034	-0.282	0.009
-427.603	-82.631	0.008	-0.002
-426.588	-200.000	0.077	-0.344
-425.573	-157.514	-0.245	0.015
-424.559	267.500	-0.091	-0.160
-423.544	-89.887	0.477	-0.140
-422.530	324.144	0.109	-0.210
-421.515	3.013	-0.170	-0.124
-420.500	43.970	-0.366	-0.337
-419.486	-137.166	-0.464	0.053
-418.471	756.192	-0.080	0.216
-417.457	-152.521	-0.242	0.017
-416.442	-200.000	-0.053	0.397
-415.428	103.353	0.108	-0.128
-414.413	205.075	-0.160	0.249
-413.398	109.270	0.258	0.310
-412.384	-200.000	0.006	-0.034
-411.369	-200.000	0.339	0.001
-410.355	-80.248	0.128	-0.043
-409.340	-99.362	-0.411	0.104
-408.325	-171.736	-0.233	0.008
-407.311	-51.973	-0.253	0.118
-406.296	800.000	0.053	0.225
-405.282	-83.572	0.121	-0.039
-404.267	405.177	0.128	0.270
-403.252	800.000	-0.054	0.156
-402.238	-22.164	0.148	0.090
-401.223	463.136	-0.068	0.152
-400.209	121.232	-0.188	-0.235
-399.194	-200.000	0.033	0.152
-398.179	-102.791	-0.211	0.050
-397.165	203.306	0.152	0.236
-396.150	-200.000	0.047	0.227
-395.136	499.660	0.126	-0.291
-394.121	-200.000	-0.022	-0.209
-393.106	46.668	-0.201	0.187
-392.092	2.652	0.040	0.029
-391.077	285.060	-0.018	-0.033
-390.063	-200.000	-0.016	-0.196
-389.048	12.169	-0.233	-0.180
-388.033	-149.542	0.143	-0.011
-387.019	-168.894	-0.191	0.007
-386.004	-64.902	0.016	0.007
-384.990	-112.626	0.372	-0.074
-383.975	-97.450	0.377	-0.098
-382.960	-143.942	-0.229	0.022
-381.946	-40.378	-0.220	0.115
-380.931	42.889	0.028	0.026
-379.917	-200.000	0.023	-0.211
-378.902	-200.000	0.047	-0.215
-377.888	-84.030	-0.199	0.063
-376.873	-200.000	0.003	-0.303
-375.858	36.774	-0.205	-0.182
-374.844	697.962	-0.126	0.331
-373.829	176.548	0.170	-0.248
-372.815	-12.423	0.200	0.131
-371.800	12.132	-0.103	-0.079
-370.785	218.977	0.117	-0.187
-369.771	185.933	-0.154	0.229
-368.756	-108.320	0.234	0.051
-367.742	800.000	0.034	0.145
-366.727	70.479	0.122	-0.127
-365.712	-14.809	0.086	-0.055
-364.698	592.407	-0.110	-0.273
-363.683	-170.189	0.273	-0.010
-362.669	-162.302	-0.376	0.019
-361.654	15.719	0.127	0.100
-360.639	177.713	-0.102	-0.149
-359.625	27.621	-0.098	0.082
-358.610	-200.000	0.002	0.227
-357.596	-200.000	-0.076	-0.380
-356.581	184.795	0.057	0.085
-355.566	-200.000	0.074	-0.448
-354.552	-90.911	0.189	0.055
-353.537	157.038	0.120	-0.166
-352.523	800.000	-0.035	-0.134
-351.508	-48.230	-0.235	0.114
-350.493	-4.643	-0.061	-0.042
-349.479	546.837	-0.030	0.073
-348.464	-11.475	0.290	-0.191
-347.450	-17.441	-0.063	0.039
-346.435	800.000	-0.134	-0.427
-345.420	281.253	-0.095	-0.170
-344.406	-13.863	-0.240	0.156
-343.391	52.800	-0.239	0.229
-342.377	-141.938	0.238	0.024
-341.362	-200.000	-0.027	0.184
-340.348	-79.886	-0.081	0.027
-339.333	-9.045	-0.323	0.217
-338.318	-74.985	0.064	0.023
-337.304	-194.379	-0.114	-0.001
-336.289	-85.701	-0.222	-0.069
-335.275	-150.492	-0.111	-0.008
-334.260	800.000	0.057	0.226
-333.245	-144.245	-0.088	-0.008
-332.231	-144.304	0.167	-0.016
-331.216	-200.000	-0.020	-0.247
-330.202	-200.000	-0.016	0.234
-329.187	87.802	0.143	0.159
-328.172	676.211	0.060	0.155
-327.158	8.840	-0.400	0.302
-326.143	52.050	0.188	0.179
-325.129	-175.251	0.168	-0.005
-324.114	55.805	-0.057	-0.055
-323.099	-59.927	-0.244	0.104
-322.085	-109.795	-0.182	0.038
-321.070	-200.000	-0.017	0.218
-320.056	-95.808	-0.356	-0.095
-319.041	323.418	-0.064	0.122
-318.026	75.899	0.216	-0.229
-317.012	-79.440	-0.281	-0.095
-315.997	-108.547	-0.181	0.039
-314.983	-154.311	0.318	-0.021
-313.968	-95.680	-0.318	0.085
-312.953	518.291	0.095	-0.222
-311.939	795.996	-0.027	-0.075
-310.924	-81.978	0.148	0.049
-309.910	201.774	-0.197	0.303
-308.895	-22.818	0.081	-0.049
-307.880	376.282	0.121	0.247
-306.866	47.086	0.105	0.097
-305.851	-28.842	0.196	-0.113
-304.837	800.000	0.058	-0.253
-303.822	797.590	-0.075	0.207
-302.807	-200.000	0.015	-0.155
-301.793	-152.765	-0.266	0.019
-300.778	-200.000	0.071	-0.501
-299.764	37.392	-0.046	0.041
-298.749	52.482	0.339	-0.323
-297.735	300.240	-0.099	-0.183
-296.720	57.563	-0.308	-0.301
-295.705	575.916	0.155	-0.378
-294.691	-142.109	-0.089	0.009
-293.676	-200.000	-0.003	0.172
-292.662	-124.852	0.294	-0.045
-291.647	-48.174	-0.408	-0.197
-290.632	-200.000	0.025	0.143
-289.618	83.043	0.073	0.079
-288.603	10.868	0.125	0.095
-287.589	-94.337	-0.139	0.038
-286.574	10.291	-0.155	-0.118
-285.559	-200.000	-0.031	-0.181
-284.545	78.960	-0.208	0.222
-283.530	-200.000	-0.004	0.442
-282.516	-101.262	0.433	-0.106
-281.501	-87.602	0.240	-0.072
-280.486	-111.050	0.046	-0.010
-279.472	290.269	0.084	-0.152
-278.457	109.481	0.348	-0.416
-277.443	115.568	-0.225	-0.275
-276.428	108.445	-0.172	0.206
-275.413	-200.000	-0.029	-0.219
-274.399	111.488	0.091	0.109
-273.384	158.212	0.091	-0.126
-272.370	63.301	0.176	-0.176
-271.355	385.566	0.165	-0.339
-270.340	141.331	0.105	-0.139
-269.326	-200.000	0.048	-0.224
-268.311	800.000	0.105	-0.311
-267.297	800.000	-0.100	-0.278
-266.282	449.232	-0.132	0.290
-265.267	-200.000	-0.018	0.137
-264.253	-46.045	-0.115	-0.056
-263.238	-27.742	0.146	-0.085
-262.224	-115.533	-0.265	0.050
-261.209	-37.580	0.172	-0.092
-260.195	-38.109	0.337	0.178
-259.180	800.000	-0.077	0.280
-258.165	50.478	0.145	0.137
-257.151	-146.414	0.210	0.018
-256.136	-83.716	-0.224	0.071
-255.122	143.422	0.028	0.038
-254.107	800.000	-0.139	0.433
-253.092	-155.056	-0.303	-0.020
-252.078	-75.322	0.267	0.095
-251.063	800.000	0.068	0.212
-250.049	-200.000	-0.008	-0.052
-249.034	-130.827	-0.227	-0.030
-248.019	-3.203	-0.186	0.129
-247.005	-200.000	-0.026	-0.212
-245.990	128.521	0.062	-0.079
-244.976	-110.777	0.352	0.072
-243.961	-24.347	0.347	-0.206
-242.946	78.869	0.150	-0.160
-241.932	-143.938	-0.152	0.014
-240.917	-152.916	0.125	0.009
-239.903	667.905	-0.060	0.154
-238.888	-45.555	0.162	-0.080
-237.873	-76.122	-0.402	0.141
-236.859	71.802	-0.249	0.258
-235.844	-81.107	-0.223	0.074
-234.830	-17.276	0.096	-0.060
-233.815	-36.184	-0.252	-0.136
-232.800	-200.000	-0.075	-0.374
-231.786	28.695	0.145	0.122
-230.771	-65.795	0.092	0.037
-229.757	169.963	-0.176	-0.250
-228.742	51.999	-0.017	-0.016
-227.727	28.482	0.128	0.108
-226.713	109.879	0.055	0.066
-225.698	35.449	0.289	0.253
-224.684	-37.475	-0.248	-0.132
-223.669	46.215	0.161	0.149
-222.655	-19.654	-0.088	0.054
-221.640	-90.545	0.103	0.030
-220.625	-107.993	-0.510	0.110
-219.611	103.976	0.018	-0.021
-218.596	800.000	0.034	0.115
-217.582	80.653	-0.167	0.179
-216.567	603.647	0.059	-0.145
-215.552	800.000	0.078	0.274
-214.538	800.000	0.011	-0.043
-213.523	156.995	-0.125	0.172
-212.509	436.385	0.226	0.490
-211.494	-131.181	-0.385	0.051
-210.479	-123.479	-0.088	-0.014
-209.465	216.741	0.157	-0.249
-208.450	89.028	0.054	0.060
-207.436	569.949	0.102	0.247
-206.421	108.525	-0.098	-0.116
-205.406	-37.694	0.134	0.071
-204.392	-22.225	0.014	0.009
-203.377	146.000	0.150	-0.200
-202.363	-200.000	0.025	-0.318
-201.348	470.990	-0.151	0.338
-200.333	-118.386	0.375	0.066
-199.319	-161.642	-0.169	-0.009
-198.304	-200.000	-0.001	0.006
-197.290	409.615	0.130	-0.274
-196.275	-117.081	-0.244	-0.044
-195.260	800.000	0.064	0.229
-194.246	-200.000	-0.037	-0.165
-193.231	-167.941	0.152	0.006
-192.217	-116.228	-0.163	-0.030
-191.202	558.550	0.076	0.182
-190.187	800.000	0.079	0.218
-189.173	426.207	0.160	0.343
-188.158	78.433	0.207	-0.220
-187.144	105.996	-0.115	0.136
-186.129	-117.947	0.145	-0.026
-185.114	-74.066	-0.156	-0.056
-184.100	-144.242	-0.282	0.026
-183.085	144.249	-0.053	0.070
-182.071	-62.142	0.162	-0.067
-181.056	7.542	0.379	0.282
-180.042	-14.415	0.123	0.079
-179.027	124.145	0.142	0.177
-178.012	91.647	0.075	-0.084
-176.998	59.533	-0.161	0.158
-175.983	-45.347	0.271	0.134
-174.969	-200.000	-0.047	-0.211
-173.954	-200.000	-0.030	0.129
-172.939	415.318	-0.031	0.066
-171.925	-56.866	0.185	0.081
-170.910	334.037	0.178	-0.343
-169.896	150.609	0.337	-0.455
-168.881	-200.000	-0.020	-0.173
-167.866	-134.079	0.080	0.010
-166.852	-57.161	0.457	-0.200
-165.837	-200.000	-0.004	0.234
-164.823	56.812	0.126	-0.122
-163.808	-200.000	-0.027	-0.288
-162.793	-200.000	0.039	-0.323
-161.779	800.000	-0.034	-0.141
-160.764	-200.000	0.044	0.677
-159.750	175.885	-0.043	-0.062
-158.735	-56.176	-0.196	-0.087
-157.720	-200.000	-0.010	-0.176
-156.706	81.413	0.090	-0.097
-155.691	-39.124	-0.171	0.089
-154.677	16.544	-0.115	0.091
-153.662	-98.669	0.366	-0.093
-152.647	153.689	-0.141	0.192
-151.633	43.282	-0.306	0.277
-150.618	-35.652	-0.210	0.113
-149.604	466.840	0.090	0.201
-148.589	800.000	0.107	0.373
-147.574	800.000	0.042	0.177
-146.560	-60.554	-0.192	-0.081
-145.545	-152.419	-0.344	-0.025
-144.531	5.033	-0.129	-0.094
-143.516	-72.971	0.125	-0.046
-142.502	800.000	0.086	-0.327
-141.487	45.935	-0.078	0.072
-140.472	-68.202	0.304	0.117
-139.458	0.570	0.218	0.155
-138.443	-40.818	-0.360	-0.185
-137.429	54.414	0.083	0.080
-136.414	36.804	-0.211	-0.185
-135.399	-104.407	-0.133	-0.031
-134.385	-38.272	0.129	-0.068
-133.370	-41.610	0.398	0.203
-132.356	-115.337	-0.041	-0.008
-131.341	-194.376	-0.233	-0.002
-130.326	-200.000	-0.029	-0.169
-129.312	99.780	0.068	-0.078
-128.297	-200.000	0.010	0.138
-127.283	89.942	0.141	-0.157
-126.268	40.999	-0.225	0.201
-125.253	-200.000	0.002	-0.191
-124.239	241.330	-0.061	0.101
-123.224	800.000	-0.031	-0.115
-122.210	-87.061	-0.147	0.044
-121.195	119.819	0.190	-0.234
-120.180	-200.000	-0.003	-0.034
-119.166	-30.393	0.145	0.082
-118.151	-166.097	0.295	0.012
-117.137	196.967	0.065	0.098
-116.122	350.046	0.168	0.330
-115.107	-200.000	0.038	-0.227
-114.093	-71.003	-0.118	-0.044
-113.078	-75.181	-0.408	-0.145
-112.064	32.213	0.277	-0.237
-111.049	574.638	-0.019	0.045
-110.034	89.080	-0.105	-0.116
-109.020	-29.148	0.159	0.090
-108.005	-130.622	0.176	0.024
-106.991	-134.099	0.185	-0.023
-105.976	800.000	0.053	0.160
-104.962	730.957	0.029	0.078
-103.947	53.520	-0.162	0.154
-102.932	-200.000	0.002	0.019
-101.918	130.953	0.086	0.110
-100.903	36.787	0.323	-0.283
-99.889	-108.999	0.410	-0.087
-98.874	332.780	0.245	0.469
-97.859	276.606	-0.114	0.201
-96.845	197.672	-0.277	0.420
-95.830	-200.000	0.044	0.326
-94.816	205.046	0.102	-0.157
-93.801	118.561	0.046	0.056
-92.786	-200.000	0.006	0.145
-91.772	-26.967	-0.316	0.183
-90.757	4.933	0.094	0.068
-89.743	-107.496	0.288	0.063
-88.728	-200.000	-0.000	-0.075
-87.713	447.621	0.123	-0.269
-86.699	238.352	0.126	-0.207
-85.684	-200.000	0.053	0.281
-84.670	155.185	0.103	-0.140
-83.655	15.200	-0.207	-0.161
-82.640	-152.628	-0.207	-0.015
-81.626	10.628	-0.112	0.084
-80.611	-110.357	0.275	0.057
-79.597	422.579	-0.091	0.193
-78.582	90.551	-0.150	0.166
-77.567	794.614	0.031	-0.083
-76.553	512.105	-0.084	0.194
-75.538	-35.819	-0.303	0.163
-74.524	-37.291	0.066	0.035
-73.509	-142.363	0.297	-0.029
-72.494	-118.941	0.102	-0.018
-71.480	-200.000	-0.040	0.288
-70.465	-54.445	0.235	0.105
-69.451	303.201	0.130	0.239
-68.436	-200.000	0.271	0.001
-67.422	257.779	0.122	-0.209
-66.407	-182.089	-0.457	0.009
-65.392	56.758	0.204	0.197
-64.378	36.723	0.140	-0.123
-63.363	-200.000	0.072	0.331
-62.349	201.122	0.104	-0.159
-61.334	44.706	-0.999	-0.910
-60.319	-44.240	0.602	0.299
-59.305	800.000	-0.343	-0.997
-58.290	800.000	0.233	0.802
-57.276	678.485	0.597	1.537
-56.261	-200.000	97.271	572.232
-55.246	625.175	1402.482	3501.240
-54.232	185.648	2610.002	3838.197
-53.217	119.628	2205.628	2704.264
-52.203	44.695	1737.454	1581.475
-51.188	37.256	1549.155	1358.246
-50.173	35.011	1521.228	1318.264
-49.159	53.549	1571.886	1492.431
-48.144	57.009	1590.624	1534.392
-47.130	37.809	1546.716	1359.751
-46.115	34.534	1530.839	1323.076
-45.100	34.361	1527.744	1319.150
-44.086	34.230	1526.368	1317.005
-43.071	34.266	1523.752	1314.941
-42.057	34.121	1522.777	1313.051
-41.042	34.265	1520.988	1312.444
-40.027	34.297	1519.382	1311.232
-39.013	34.337	1517.712	1310.008
-37.998	34.262	1516.517	1308.413
-36.984	34.315	1515.148	1307.545
-35.969	34.307	1513.573	1306.079
-34.954	34.299	1512.639	1305.166
-33.940	34.169	1511.559	1303.291
-32.925	34.197	1510.384	1302.415
-31.911	34.250	1509.037	1301.565
-30.896	34.299	1507.981	1300.939
-29.881	34.323	1506.296	1299.593
-28.867	34.157	1505.069	1297.352
-27.852	34.242	1503.891	1296.869
-26.838	34.312	1501.802	1295.489
-25.823	34.313	1500.650	1294.449
-24.809	34.266	1498.903	1292.573
-23.794	34.252	1497.534	1291.248
-22.779	34.295	1496.679	1290.754
-21.765	34.353	1494.787	1289.457
-20.750	34.261	1494.349	1288.406
-19.736	34.272	1493.111	1287.366
-18.721	34.219	1491.981	1285.980
-17.706	34.181	1491.209	1285.010
-16.692	34.284	1489.770	1284.411
-15.677	34.229	1488.846	1283.190
-14.663	34.213	1488.126	1282.411
-13.648	34.209	1487.416	1281.722
-12.633	34.319	1485.774	1280.998
-11.619	34.234	1485.063	1279.761
-10.604	34.264	1483.956	1278.958
-9.590	34.244	1483.183	1278.109
-8.575	34.265	1482.088	1277.257
-7.560	34.241	1481.431	1276.476
-6.546	34.188	1480.868	1275.587
-5.531	34.179	1479.958	1274.693
-4.517	34.095	1479.080	1273.325
-3.502	34.224	1477.817	1273.046
-2.487	34.044	1477.347	1271.391
-1.473	34.125	1476.338	1271.013
-0.458	34.120	1474.834	1269.630
0.556	33.140	1464.915	1259.658
1.571	30.001	1438.171	1215.985
2.586	26.291	1375.187	1139.287
3.600	24.245	1292.010	1058.150
4.615	22.846	1245.028	1011.571
5.629	20.045	1188.503	950.222
6.644	12.252	1103.539	842.369
7.659	6.083	1062.742	780.590
8.673	5.252	1056.818	772.062
9.688	5.013	1053.793	768.610
10.702	4.919	1052.278	766.973
11.717	4.937	1050.574	765.749
12.731	7.532	1053.031	780.238
13.746	14.846	1063.556	824.156
14.761	19.341	1068.798	850.365
15.775	18.658	1066.524	845.118
16.790	17.560	1064.251	837.843
17.804	16.410	1061.894	830.267
18.819	15.508	1060.183	824.428
19.834	15.112	1058.435	821.055
20.848	14.675	1057.804	818.349
21.863	14.367	1057.330	816.401
22.877	14.250	1056.263	814.931
23.892	14.055	1055.842	813.584
24.907	13.980	1054.380	812.019
25.921	14.031	1053.966	811.874
26.936	14.155	1053.079	811.727
27.950	14.135	1052.164	810.852
28.965	14.125	1050.725	809.623
29.980	14.152	1049.912	809.054
30.994	14.188	1048.883	808.364
32.009	14.282	1047.976	808.051
33.023	14.332	1047.009	807.477
34.038	14.459	1045.934	807.188
35.053	14.260	1045.295	805.665
36.067	14.277	1044.185	804.821
37.082	14.088	1043.464	803.277
38.096	14.141	1042.676	802.856
39.111	14.227	1041.775	802.507
40.126	14.263	1041.008	802.017
41.140	14.258	1039.721	800.933
42.155	14.067	1038.720	799.171
43.169	13.866	1037.968	797.559
44.184	13.964	1036.770	797.036
45.199	13.901	1035.635	795.791
46.213	13.951	1034.688	795.232
47.228	13.975	1033.790	794.587
48.242	14.101	1032.660	794.248
49.257	14.156	1031.463	793.521
50.271	14.065	1031.033	792.684
51.286	14.208	1029.633	792.220
52.301	14.264	1029.068	791.982
53.315	14.188	1028.096	790.803
54.330	14.109	1027.210	789.675
55.344	14.144	1026.472	789.207
56.359	14.038	1025.079	787.563
57.374	13.934	1024.859	786.832
58.388	14.038	1023.983	786.582
59.403	13.867	1023.216	785.113
60.417	13.889	1022.500	784.596
61.432	13.927	1021.570	783.993
62.447	13.926	1020.777	783.312
63.461	13.847	1020.181	782.413
64.476	13.817	1019.088	781.366
65.490	13.865	1018.180	780.822
66.505	13.870	1017.162	779.997
67.520	13.764	1016.724	779.096
68.534	13.805	1015.898	778.585
69.549	13.876	1015.030	778.187
70.563	13.816	1014.251	777.237
71.578	13.773	1013.703	776.548
72.593	13.907	1012.592	776.253
73.607	13.738	1011.686	774.702
74.622	13.801	1010.726	774.191
75.636	13.731	1010.026	773.262
76.651	13.743	1009.326	772.715
77.666	13.770	1008.574	772.197
78.680	13.698	1007.656	771.090
79.695	13.784	1007.231	771.096
80.709	13.885	1006.177	770.688
81.724	13.888	1005.897	770.420
82.739	13.920	1004.964	769.788
83.753	14.089	1003.856	769.650
84.768	14.125	1003.451	769.439
85.782	14.090	1002.866	768.760
86.797	14.225	1002.273	768.862
87.812	14.281	1001.301	768.304
88.826	14.190	1000.289	767.040
89.841	14.174	999.387	766.211
90.855	14.152	998.969	765.718
91.870	14.258	997.848	765.279
92.884	14.332	996.982	764.889
93.899	14.260	996.655	764.241
94.914	14.243	995.755	763.402
95.928	14.207	995.440	762.929
96.943	14.445	994.486	763.219
97.957	14.288	993.462	761.647
98.972	14.129	992.947	760.461
99.987	14.172	992.156	759.981
101.001	14.101	991.541	759.120
102.016	14.234	990.450	758.826
103.030	14.175	989.607	757.842
104.045	14.316	988.393	757.487
105.060	14.285	987.055	756.256
106.074	14.249	986.488	755.587
107.089	14.093	985.726	754.233
108.103	13.988	984.983	753.118
109.118	13.946	983.580	751.792
110.133	13.836	983.247	750.970
111.147	14.061	981.913	750.905
112.162	14.020	980.962	749.926
113.176	13.996	980.158	749.136
114.191	14.022	979.382	748.593
115.206	14.157	978.852	748.730
116.220	14.028	977.915	747.367
117.235	13.991	977.491	746.810
118.249	13.928	976.910	746.015
119.264	14.095	975.014	745.253
120.279	13.980	974.534	744.306
121.293	13.940	973.769	743.474
122.308	14.023	972.777	743.022
123.322	13.957	972.184	742.207
124.337	13.855	971.585	741.231
125.352	13.928	970.015	740.291
126.366	13.831	969.035	739.048
127.381	13.891	967.810	738.313
128.395	13.941	967.099	737.930
129.410	13.896	966.209	736.983
130.424	14.013	964.979	736.502
131.439	14.039	964.105	735.884
132.454	14.088	963.219	735.357
133.468	14.064	962.537	734.665
134.483	14.074	962.149	734.351
135.497	14.106	961.298	733.778
136.512	13.982	960.962	732.907
137.527	14.189	959.799	732.867
138.541	14.151	959.343	732.286
139.556	14.049	958.541	731.160
140.570	14.096	957.735	730.688
141.585	14.274	956.600	730.538
142.600	14.227	956.275	730.021
143.614	14.261	955.471	729.493
144.629	14.260	954.629	728.780
145.643	14.353	954.085	728.706
146.658	14.342	953.026	727.787
147.673	14.222	952.356	726.683
148.687	14.282	951.080	725.907
149.702	14.020	950.896	724.564
150.716	14.197	949.248	724.012
151.731	14.099	948.528	722.975
152.746	14.081	947.884	722.341
153.760	14.220	947.029	722.226
154.775	14.097	946.630	721.326
155.789	14.194	946.072	721.259
156.804	14.257	945.025	720.667
157.819	14.378	944.119	720.437
158.833	14.417	943.685	720.210
159.848	14.513	942.826	719.906
160.862	14.283	942.817	718.842
161.877	14.392	941.718	718.411
162.892	14.283	940.550	716.987
163.906	14.187	939.936	716.042
164.921	14.272	938.857	715.523
165.935	14.096	938.384	714.342
166.950	14.194	937.268	713.850
167.964	14.342	936.688	713.980
168.979	14.247	935.222	712.391
169.994	14.319	934.422	712.029
171.008	14.161	934.039	710.996
172.023	14.316	933.187	710.946
173.037	14.353	932.339	710.397
174.052	14.427	931.518	710.025
175.067	14.357	931.083	709.332
176.081	14.343	930.290	708.604
177.096	14.210	929.732	707.553
178.110	14.282	928.471	706.834
179.125	14.351	927.451	706.288
180.140	14.396	926.683	705.833
181.154	14.323	926.759	705.517
182.169	14.404	925.691	704.985
183.183	14.489	924.978	704.739
184.198	14.730	923.861	704.843
185.213	14.652	923.491	704.168
186.227	14.600	923.082	703.575
187.242	14.579	922.624	703.078
188.256	14.580	921.925	702.487
189.271	14.708	921.112	702.341
190.286	14.770	920.383	701.986
191.300	14.633	919.598	700.750
192.315	14.404	918.577	698.947
193.329	14.270	917.893	697.807
194.344	14.323	917.560	697.713
195.359	14.307	917.205	697.313
196.373	14.458	916.050	697.006
197.388	14.509	915.750	696.928
198.402	14.542	915.731	696.988
199.417	14.817	915.182	697.661
200.432	14.810	914.557	697.092
201.446	14.858	913.554	696.467
202.461	14.939	913.548	696.738
203.475	14.920	913.159	696.297
204.490	15.031	912.541	696.227
205.504	14.774	911.675	694.439
206.519	14.772	910.652	693.589
207.534	14.850	910.135	693.459
208.548	14.690	909.392	692.166
209.563	14.768	908.560	691.793
210.577	14.796	907.609	691.123
211.592	14.858	907.297	691.084
212.607	14.842	906.975	690.712
213.621	14.891	906.392	690.408
214.636	14.961	905.864	690.233
215.650	15.003	904.845	689.569
216.665	14.973	903.979	688.725
217.680	14.928	904.030	688.519
218.694	15.062	903.463	688.576
219.709	15.042	902.909	688.009
220.723	15.048	902.160	687.404
221.738	14.954	901.491	686.446
222.753	15.035	900.712	686.123
223.767	15.018	900.127	685.547
224.782	15.043	899.279	684.946
225.796	15.166	898.596	684.866
226.811	15.302	898.108	684.991
227.826	15.150	897.230	683.641
228.840	15.108	896.650	682.967
229.855	15.078	895.815	682.146
230.869	15.141	895.130	681.820
231.884	15.120	894.644	681.306
232.899	15.006	893.902	680.218
233.913	15.041	893.023	679.631
234.928	15.036	892.778	679.362
235.942	14.962	891.686	678.170
236.957	15.183	890.831	678.357
237.972	15.058	890.278	677.371
238.986	15.063	889.493	676.733
240.001	15.130	889.094	676.639
241.015	15.076	888.435	675.859
242.030	15.090	887.978	675.508
243.045	15.126	887.291	675.072
244.059	15.271	886.720	675.162
245.074	15.181	886.316	674.433
246.088	15.206	885.077	673.531
247.103	15.297	884.817	673.636
248.117	15.217	884.628	673.113
249.132	15.347	883.852	672.986
250.147	15.419	883.619	673.037
251.161	15.617	882.418	672.857
252.176	15.644	881.667	672.331
253.190	15.578	881.823	672.125
254.205	15.546	881.037	671.341
255.220	15.729	880.442	671.558
256.234	15.739	879.456	670.786
257.249	15.644	878.666	669.745
258.263	15.826	878.204	670.062
259.278	15.684	877.800	669.129
260.293	15.661	877.315	668.608
261.307	15.730	876.760	668.399
262.322	15.833	876.176	668.302
263.336	15.788	875.328	667.421
264.351	15.833	875.211	667.450
265.366	15.907	873.985	666.747
266.380	15.838	873.365	665.944
267.395	15.935	872.835	665.865
268.409	15.828	871.767	664.567
269.424	15.822	871.440	664.236
270.439	15.901	870.670	663.903
271.453	15.912	869.827	663.245
272.468	15.941	868.911	662.599
273.482	15.868	868.515	661.952
274.497	15.898	868.035	661.647
275.512	15.849	867.380	660.896
276.526	15.813	866.581	660.088
277.541	15.915	865.791	659.826
278.555	15.960	865.172	659.474
279.570	15.968	864.868	659.215
280.585	16.036	864.460	659.112
281.599	16.156	863.750	658.982
282.614	16.101	863.158	658.256
283.628	16.004	862.447	657.278
284.643	16.000	861.814	656.720
285.657	15.947	861.569	656.271
286.672	16.098	860.854	656.253
287.687	15.992	860.702	655.668
288.701	16.015	859.974	655.144
289.716	16.044	859.780	655.050
290.730	16.099	858.716	654.396
291.745	16.053	858.029	653.638
292.760	16.086	857.464	653.276
293.774	16.138	856.617	652.774
294.789	16.292	856.102	652.920
295.803	16.252	855.797	652.474
296.818	16.138	855.046	651.405
297.833	16.147	854.187	650.726
298.847	16.173	853.567	650.297
299.862	16.071	852.982	649.402
300.876	16.172	852.245	649.172
301.891	16.216	851.619	648.808
302.906	16.346	850.532	648.421
303.920	16.251	850.186	647.735
304.935	16.461	849.825	648.209
305.949	16.532	848.828	647.660
306.964	16.519	848.448	647.264
307.979	16.477	847.785	646.541
308.993	16.349	847.688	645.920
310.008	16.544	846.706	645.860
311.022	16.628	846.288	645.805
312.037	16.527	845.826	645.009
313.052	16.513	844.703	644.042
314.066	16.506	844.613	643.890
315.081	16.344	844.241	642.933
316.095	16.357	843.311	642.216
317.110	16.490	842.863	642.325
318.125	16.387	842.103	641.299
319.139	16.346	841.697	640.775
320.154	16.406	841.614	640.883
321.168	16.323	841.177	640.180
322.183	16.542	840.300	640.285
323.197	16.381	839.774	639.219
324.212	16.616	839.013	639.469
325.227	16.603	838.422	638.914
326.241	16.544	838.143	638.421
327.256	16.387	837.727	637.458
328.270	16.457	837.078	637.169
329.285	16.406	836.535	636.508
330.300	16.425	836.127	636.215
331.314	16.522	835.354	635.934
332.329	16.618	834.548	635.624
333.343	16.547	833.920	634.825
334.358	16.623	833.689	634.878
335.373	16.692	832.776	634.383
336.387	16.770	832.331	634.281
337.402	16.713	832.201	633.911
338.416	16.721	831.491	633.345
339.431	16.848	830.998	633.390
340.446	16.811	830.499	632.815
341.460	16.929	829.961	632.789
342.475	16.946	829.011	632.073
343.489	16.903	828.924	631.790
344.504	16.891	828.321	631.228
345.519	16.997	827.719	631.109
346.533	17.067	827.283	630.979
347.548	17.130	826.668	630.688
348.562	17.026	826.051	629.778
349.577	16.950	825.525	629.038
350.592	16.985	824.618	628.421
351.606	16.872	824.488	627.847
352.621	16.868	823.828	627.277
353.635	16.934	823.444	627.170
354.650	17.000	823.331	627.274
355.665	16.960	822.764	626.639
356.679	17.052	821.950	626.301
357.694	16.948	821.923	625.844
358.708	17.081	821.051	625.612
359.723	17.035	820.842	625.229
360.738	17.065	820.297	624.868
361.752	17.090	819.497	624.296
362.767	17.124	819.427	624.313
363.781	17.261	818.667	624.183
364.796	17.341	818.443	624.249
365.810	17.282	818.041	623.673
366.825	17.519	817.353	623.959
367.840	17.384	817.194	623.290
368.854	17.379	816.832	622.942
369.869	17.306	816.192	622.131
370.883	17.397	815.622	621.971
371.898	17.293	814.955	621.029
372.913	17.295	814.491	620.627
373.927	17.340	814.028	620.384
374.942	17.451	812.769	619.773
375.956	17.463	812.603	619.637
376.971	17.344	812.441	619.024
377.986	17.524	811.956	619.255
379.000	17.615	811.166	618.930
380.015	17.571	810.700	618.360
381.029	17.643	810.017	618.045
382.044	17.534	809.583	617.262
383.059	17.658	808.899	617.135
384.073	17.672	808.349	616.712
385.088	17.446	808.482	615.941
386.102	17.539	807.482	615.461
387.117	17.538	807.104	615.116
388.132	17.542	806.275	614.441
389.146	17.505	806.111	614.131
390.161	17.586	805.638	614.007
391.175	17.436	805.446	613.265
392.190	17.787	804.804	613.986
393.205	17.629	804.455	613.098
394.219	17.513	804.398	612.582
395.234	17.564	803.332	611.900
396.248	17.600	802.682	611.480
397.263	17.546	802.275	610.922
398.278	17.585	801.871	610.701
399.292	17.552	801.345	610.126
400.307	17.455	801.263	609.665
401.321	17.651	800.581	609.792
402.336	17.591	800.169	609.210
403.350	17.676	799.954	609.296
404.365	17.514	799.525	608.336
405.380	17.736	798.725	608.468
406.394	17.713	798.647	608.271
407.409	17.877	797.826	608.177
408.423	17.984	797.929	608.584
409.438	17.940	797.346	607.928
410.453	17.858	796.962	607.289
411.467	18.164	796.343	607.850
412.482	18.032	795.993	607.062
413.496	17.952	795.831	606.600
414.511	18.080	795.208	606.525
415.526	18.226	794.549	606.486
416.540	18.100	794.401	605.874
417.555	18.100	793.688	605.276
418.569	18.057	793.300	604.775
419.584	18.061	793.260	604.706
420.599	18.057	792.813	604.296
421.613	153.265	1368.823	1790.776
422.628	132.563	1452.768	1790.867
