DTS Sentinel unit serial number:	SN413079Multiplexer serial number:	ORYXHardware model number:	OX4-SRSoftware version number:	ORYX F/W v4.00 Oryx Data Collector v3.7.2.0data status	okinstallation	princeton_trtdifferential loss correction	single-endedforward channel	channel 3reverse channel	N/Adate	2019/09/19time	04:08:35forward acquisition time	60.00reverse acquisition time	0.00gamma	496.2192k internal	0.2347k external	0.2347temperature offset calibration	0.9989default loss term (dB/km)	0.3790temperature slope calibration	1.0000multiplexer offset coefficient	1.0000multiplexer slope coefficient	1.0000fibre end	0.00T internal ref (°C)	20.37T ext. ref 1 (°C)	0.63T ext. ref 2 (°C)	13.90length (m)	temperature (°C)	Stokes	anti-Stokes-747.200	-44.523	0.351	0.175
-746.185	-200.000	-0.032	0.316
-745.171	-200.000	0.037	0.248
-744.156	-117.993	-0.232	0.041
-743.142	-60.836	0.178	-0.075
-742.127	-180.965	-0.321	-0.006
-741.112	12.017	0.113	0.087
-740.098	-200.000	-0.004	0.109
-739.083	-200.000	0.009	0.146
-738.069	24.215	-0.177	0.146
-737.054	-200.000	0.009	-0.111
-736.039	-17.280	0.109	-0.069
-735.025	344.202	0.058	0.115
-734.010	-80.592	0.130	-0.043
-732.996	190.850	-0.161	-0.243
-731.981	242.432	-0.084	-0.140
-730.966	85.435	-0.315	-0.346
-729.952	-33.791	0.309	-0.170
-728.937	130.743	-0.043	-0.055
-727.923	560.493	-0.079	0.190
-726.908	41.543	0.096	-0.087
-725.894	-43.244	0.087	0.044
-724.879	-34.062	-0.053	0.029
-723.864	800.000	0.063	-0.204
-722.850	800.000	-0.035	-0.121
-721.835	-200.000	-0.003	0.185
-720.821	161.291	0.053	-0.074
-719.806	-93.464	-0.179	-0.049
-718.791	71.115	-0.114	-0.118
-717.777	71.254	0.254	0.263
-716.762	-200.000	0.005	0.183
-715.748	-18.995	-0.108	-0.067
-714.733	0.258	0.245	-0.175
-713.718	522.781	0.159	-0.373
-712.704	-67.675	-0.184	-0.072
-711.689	261.372	0.115	0.200
-710.675	-10.170	-0.204	-0.136
-709.660	-18.336	-0.132	-0.082
-708.645	-83.177	0.272	-0.087
-707.631	-6.394	-0.052	-0.035
-706.616	343.236	-0.174	-0.341
-705.602	-200.000	0.050	0.311
-704.587	-200.000	-0.028	-0.278
-703.572	-14.709	-0.135	-0.087
-702.558	800.000	0.054	0.208
-701.543	-139.543	-0.140	-0.015
-700.529	800.000	-0.046	0.179
-699.514	800.000	-0.047	0.194
-698.499	-200.000	0.011	0.488
-697.485	-200.000	0.013	-0.156
-696.470	528.312	0.031	-0.072
-695.456	281.015	0.075	0.134
-694.441	100.996	-0.290	-0.336
-693.426	-66.795	0.219	0.086
-692.412	113.203	-0.193	-0.233
-691.397	800.000	-0.078	-0.270
-690.383	-200.000	0.010	-0.154
-689.368	-62.009	-0.238	-0.099
-688.354	23.775	0.025	-0.021
-687.339	160.313	-0.078	-0.108
-686.324	101.696	0.047	0.055
-685.310	-114.010	-0.112	0.022
-684.295	43.014	-0.052	-0.048
-683.281	-200.000	0.003	0.181
-682.266	347.156	-0.104	-0.205
-681.251	143.281	0.131	0.174
-680.237	-200.000	0.026	-0.257
-679.222	-102.757	0.294	0.070
-678.208	800.000	0.140	0.404
-677.193	-145.256	-0.234	-0.021
-676.178	-200.000	-0.012	-0.230
-675.164	-53.889	-0.120	0.054
-674.149	396.899	0.126	-0.262
-673.135	-200.000	0.074	-0.430
-672.120	110.135	0.097	0.117
-671.105	-26.290	0.129	0.075
-670.091	-103.077	-0.224	0.053
-669.076	-2.948	-0.246	-0.171
-668.062	-64.794	0.322	-0.130
-667.047	-200.000	0.001	-0.368
-666.032	-85.400	-0.265	0.082
-665.018	-77.411	0.344	0.119
-664.003	-46.857	-0.105	-0.051
-662.989	-36.976	0.207	-0.110
-661.974	648.485	-0.139	0.354
-660.959	-95.917	0.084	-0.022
-659.945	-200.000	-0.021	-0.287
-658.930	25.466	0.164	-0.136
-657.916	81.375	-0.132	-0.142
-656.901	-25.135	-0.229	-0.135
-655.886	800.000	-0.110	-0.447
-654.872	-16.791	-0.236	0.149
-653.857	-88.447	0.101	0.030
-652.843	-84.028	-0.351	-0.111
-651.828	108.131	-0.109	-0.130
-650.814	-119.056	-0.353	0.062
-649.799	234.215	0.074	0.121
-648.784	-138.614	0.326	-0.036
-647.770	120.950	0.099	-0.123
-646.755	-200.000	-0.053	-0.236
-645.741	29.434	-0.401	-0.340
-644.726	120.700	-0.067	-0.083
-643.711	301.926	-0.047	-0.087
-642.697	-144.273	0.132	0.012
-641.682	-53.425	-0.097	0.044
-640.668	464.231	0.056	-0.124
-639.653	647.262	0.059	0.151
-638.638	5.606	-0.231	-0.170
-637.624	394.415	-0.139	0.289
-636.609	65.831	0.135	0.136
-635.595	-2.974	0.140	-0.097
-634.580	533.971	-0.099	0.234
-633.565	18.077	-0.100	0.080
-632.551	-77.664	0.153	-0.053
-631.536	263.693	-0.108	-0.186
-630.522	-6.858	0.311	-0.210
-629.507	28.115	-0.152	0.128
-628.492	-200.000	0.039	-0.188
-627.478	-111.964	0.027	0.005
-626.463	-51.288	-0.025	-0.012
-625.449	134.231	0.316	-0.408
-624.434	-120.448	-0.276	-0.047
-623.419	45.951	-0.043	-0.040
-622.405	103.380	-0.221	0.258
-621.390	234.329	0.102	0.168
-620.376	610.661	-0.046	-0.113
-619.361	-77.638	0.106	-0.036
-618.346	-41.883	-0.156	-0.079
-617.332	-140.538	0.209	-0.022
-616.317	-133.961	0.128	-0.016
-615.303	98.448	-0.084	0.097
-614.288	-116.182	-0.496	0.092
-613.273	-52.865	0.098	0.045
-612.259	-200.000	-0.008	0.051
-611.244	104.946	0.152	0.178
-610.230	29.974	-0.025	0.022
-609.215	800.000	0.097	-0.365
-608.201	-103.174	-0.428	-0.101
-607.186	268.455	-0.065	-0.112
-606.171	-200.000	-0.014	0.139
-605.157	49.993	0.313	-0.293
-604.142	-136.676	-0.298	-0.034
-603.128	161.296	-0.218	-0.303
-602.113	92.750	-0.221	-0.248
-601.098	-4.315	-0.164	0.113
-600.084	-200.000	-0.067	-0.300
-599.069	-200.000	-0.003	0.240
-598.055	34.929	0.194	-0.169
-597.040	178.057	-0.151	0.219
-596.025	6.944	-0.143	0.106
-595.011	-200.000	0.040	0.288
-593.996	-116.727	0.281	0.051
-592.982	222.254	0.094	0.150
-591.967	-137.856	0.178	0.020
-590.952	-18.688	-0.403	-0.249
-589.938	191.166	-0.068	-0.102
-588.923	259.396	-0.173	-0.297
-587.909	800.000	0.010	-0.030
-586.894	-200.000	-0.041	-0.289
-585.879	-96.688	0.185	0.048
-584.865	-103.903	0.239	-0.055
-583.850	800.000	-0.072	-0.250
-582.836	306.360	-0.051	-0.094
-581.821	247.307	0.011	0.018
-580.806	-200.000	-0.032	-0.367
-579.792	324.484	0.055	0.104
-578.777	144.892	0.170	0.225
-577.763	564.562	0.059	-0.142
-576.748	800.000	0.050	-0.196
-575.733	800.000	-0.153	-0.481
-574.719	-117.684	-0.303	-0.054
-573.704	-25.392	0.208	0.122
-572.690	258.928	0.028	-0.048
-571.675	-99.211	-0.447	-0.112
-570.661	-200.000	0.011	0.201
-569.646	-200.000	0.026	0.255
-568.631	217.899	-0.210	-0.333
-567.617	33.483	-0.172	-0.148
-566.602	-150.064	-0.513	0.040
-565.588	-200.000	-0.054	0.241
-564.573	-17.439	-0.391	-0.244
-563.558	-2.562	0.208	0.145
-562.544	-49.430	-0.411	0.194
-561.529	44.510	0.221	-0.202
-560.515	-120.435	0.125	-0.021
-559.500	-168.871	0.069	0.003
-558.485	88.977	0.179	0.198
-557.471	800.000	0.081	0.308
-556.456	800.000	0.054	-0.225
-555.442	-125.617	0.544	0.082
-554.427	96.459	-0.111	0.126
-553.412	800.000	-0.080	-0.274
-552.398	347.763	0.029	0.057
-551.383	89.385	-0.151	0.167
-550.369	708.341	-0.131	0.344
-549.354	196.302	-0.250	0.377
-548.339	41.257	-0.149	-0.134
-547.325	-123.500	0.130	-0.021
-546.310	375.759	-0.178	0.361
-545.296	-200.000	0.017	-0.439
-544.281	535.399	0.135	0.317
-543.266	-152.150	-0.238	-0.017
-542.252	-98.848	0.203	0.051
-541.237	800.000	-0.127	0.428
-540.223	-62.472	0.283	0.117
-539.208	39.710	0.174	-0.155
-538.193	105.977	-0.172	0.202
-537.179	-49.891	0.147	0.069
-536.164	-200.000	-0.004	-0.188
-535.150	-200.000	-0.033	0.461
-534.135	60.771	-0.196	0.193
-533.121	-107.923	-0.369	-0.080
-532.106	-126.540	0.236	-0.035
-531.091	-200.000	0.026	-0.214
-530.077	-200.000	0.069	-0.371
-529.062	-70.169	0.045	0.017
-528.048	299.670	-0.023	0.042
-527.033	-200.000	0.015	-0.081
-526.018	800.000	0.036	-0.123
-525.004	-30.939	0.125	-0.070
-523.989	27.914	0.154	-0.129
-522.975	147.232	-0.133	-0.178
-521.960	-95.367	0.187	0.050
-520.945	-52.740	0.200	-0.091
-519.931	273.520	-0.139	0.243
-518.916	-200.000	-0.026	0.169
-517.902	305.190	0.176	0.325
-516.887	-108.202	-0.187	-0.040
-515.872	-170.045	-0.207	0.007
-514.858	-117.235	-0.174	0.031
-513.843	49.864	-0.191	-0.178
-512.829	-49.017	-0.407	0.193
-511.814	1.900	-0.382	-0.273
-510.799	-19.855	0.069	-0.042
-509.785	-105.140	0.104	-0.024
-508.770	-200.000	0.059	0.318
-507.756	-49.022	0.205	0.097
-506.741	137.523	0.055	0.071
-505.726	-66.535	-0.366	-0.144
-504.712	-62.692	0.534	0.219
-503.697	800.000	0.023	0.095
-502.683	-44.301	-0.333	-0.165
-501.668	340.642	0.121	0.234
-500.653	800.000	-0.097	-0.366
-499.639	-11.066	-0.183	-0.119
-498.624	-200.000	0.051	-0.272
-497.610	-166.233	-0.071	0.003
-496.595	448.651	-0.126	-0.274
-495.581	-200.000	-0.013	-0.253
-494.566	148.770	0.154	0.206
-493.551	445.170	-0.087	0.190
-492.537	-200.000	-0.089	0.395
-491.522	-200.000	-0.007	0.141
-490.508	-131.185	-0.317	-0.042
-489.493	206.009	0.136	0.210
-488.478	82.695	-0.180	-0.193
-487.464	-177.790	0.335	-0.008
-486.449	-200.000	-0.045	-0.288
-485.435	-114.526	0.130	-0.025
-484.420	-112.458	-0.043	0.009
-483.405	800.000	0.167	-0.467
-482.391	25.096	0.276	0.227
-481.376	-114.756	0.280	0.053
-480.362	-200.000	-0.010	0.070
-479.347	-200.000	-0.038	-0.261
-478.332	-134.665	-0.190	-0.023
-477.318	-99.795	0.298	0.074
-476.303	66.418	0.123	-0.123
-475.289	-120.577	-0.278	0.047
-474.274	-10.295	0.081	0.053
-473.259	-93.399	-0.235	0.064
-472.245	-200.000	-0.011	0.190
-471.230	-99.278	-0.144	-0.036
-470.216	-27.701	0.140	-0.081
-469.201	-84.356	-0.422	0.132
-468.186	139.069	-0.107	-0.139
-467.172	57.564	0.044	-0.043
-466.157	-90.501	-0.146	-0.042
-465.143	-130.066	-0.249	-0.034
-464.128	-153.536	-0.270	0.018
-463.113	-142.897	-0.280	-0.027
-462.099	274.395	-0.106	0.185
-461.084	-167.426	-0.199	0.008
-460.070	91.905	0.040	0.044
-459.055	-99.758	-0.128	-0.032
-458.040	-125.180	0.289	0.044
-457.026	336.562	0.031	-0.060
-456.011	-200.000	-0.012	0.134
-454.997	47.580	-0.063	-0.058
-453.982	0.466	-0.198	-0.140
-452.968	-200.000	-0.021	-0.308
-451.953	10.772	-0.156	0.118
-450.938	-141.850	0.129	0.013
-449.924	54.081	-0.211	-0.201
-448.909	374.796	0.068	-0.137
-447.895	240.607	0.166	0.274
-446.880	-200.000	-0.031	0.241
-445.865	520.641	0.040	0.092
-444.851	1.091	0.233	0.165
-443.836	70.813	-0.182	0.186
-442.822	-50.406	0.348	0.162
-441.807	-96.652	-0.284	-0.074
-440.792	434.215	-0.116	0.249
-439.778	285.707	0.036	0.064
-438.763	-17.258	-0.254	-0.158
-437.749	800.000	0.086	0.289
-436.734	-95.167	-0.101	0.027
-435.719	-13.729	-0.067	0.043
-434.705	-12.386	-0.142	0.091
-433.690	-99.595	-0.079	-0.020
-432.676	800.000	-0.044	0.165
-431.661	257.878	-0.069	0.117
-430.646	439.078	0.147	0.317
-429.632	499.831	-0.069	-0.157
-428.617	134.713	-0.151	0.194
-427.603	66.974	0.162	0.163
-426.588	-43.243	0.053	-0.027
-425.573	-61.468	0.156	0.065
-424.559	-162.427	-0.357	-0.017
-423.544	285.688	-0.044	-0.079
-422.530	61.686	-0.051	-0.050
-421.515	57.383	0.134	-0.129
-420.500	318.972	0.118	-0.221
-419.486	800.000	0.088	-0.345
-418.471	109.193	0.266	-0.315
-417.457	685.517	0.041	0.104
-416.442	-200.000	0.000	0.017
-415.428	800.000	-0.020	-0.082
-414.413	208.341	0.132	-0.204
-413.398	-91.841	0.066	0.018
-412.384	7.219	-0.240	-0.177
-411.369	239.062	0.126	-0.206
-410.355	-28.605	-0.114	-0.065
-409.340	-200.000	0.005	0.302
-408.325	-200.000	-0.028	0.130
-407.311	-4.394	-0.126	0.086
-406.296	-200.000	-0.017	0.210
-405.282	151.067	0.082	0.110
-404.267	-136.209	0.079	0.009
-403.252	-94.140	0.239	0.065
-402.238	94.272	0.191	-0.214
-401.223	128.227	0.158	-0.199
-400.209	149.775	0.065	0.087
-399.194	26.701	0.153	0.126
-398.179	-185.335	-0.275	0.004
-397.165	-200.000	0.029	-0.464
-396.150	89.320	0.015	0.017
-395.136	98.792	0.129	0.147
-394.121	142.037	-0.107	0.140
-393.106	-24.810	-0.365	0.214
-392.092	351.897	-0.040	0.078
-391.077	-83.256	0.159	-0.050
-390.063	-48.676	-0.325	-0.154
-389.048	-106.089	0.044	0.010
-388.033	-127.159	0.287	-0.041
-387.019	-200.000	-0.006	0.083
-386.004	-160.764	0.284	-0.015
-384.990	142.058	0.138	-0.181
-383.975	800.000	-0.052	0.184
-382.960	352.494	-0.104	0.204
-381.946	340.583	-0.106	0.204
-380.931	-109.355	-0.168	-0.035
-379.917	-15.647	0.111	0.070
-378.902	-200.000	-0.067	-0.293
-377.888	-8.043	0.204	-0.135
-376.873	-159.418	0.279	-0.015
-375.858	800.000	0.022	-0.070
-374.844	122.747	0.230	0.284
-373.829	-200.000	-0.013	-0.219
-372.815	-95.311	0.281	-0.075
-371.800	498.508	-0.145	-0.328
-370.785	35.829	0.063	-0.055
-369.771	473.663	0.123	-0.273
-368.756	-87.380	-0.142	0.042
-367.742	164.754	0.058	0.081
-366.727	-92.806	0.358	0.099
-365.712	800.000	0.155	0.424
-364.698	407.028	-0.182	-0.379
-363.683	83.979	0.162	0.174
-362.669	-132.018	0.244	-0.031
-361.654	-200.000	0.025	0.168
-360.639	47.325	-0.170	0.156
-359.625	81.593	-0.162	0.173
-358.610	-91.024	-0.164	0.046
-357.596	442.708	-0.053	0.115
-356.581	-200.000	-0.018	0.133
-355.566	-24.946	0.295	0.172
-354.552	29.968	-0.214	0.180
-353.537	-56.133	-0.093	-0.041
-352.523	168.293	-0.105	-0.147
-351.508	-117.456	-0.288	0.051
-350.493	-67.075	-0.219	0.085
-349.479	-76.186	0.420	-0.146
-348.464	793.503	-0.037	0.099
-347.450	800.000	0.042	0.121
-346.435	-98.738	-0.188	0.047
-345.420	33.716	-0.377	-0.323
-344.406	128.745	0.073	-0.092
-343.391	29.980	-0.248	-0.208
-342.377	-34.047	-0.125	0.068
-341.362	20.639	0.343	0.273
-340.348	800.000	0.083	-0.256
-339.333	473.182	-0.140	-0.311
-338.318	-31.308	-0.094	-0.052
-337.304	-200.000	-0.004	0.194
-336.289	229.114	-0.250	-0.401
-335.275	-131.048	0.303	-0.040
-334.260	-140.040	-0.085	0.009
-333.245	274.237	0.153	-0.266
-332.231	-59.467	0.291	0.123
-331.216	800.000	0.044	0.185
-330.202	-28.535	0.267	-0.151
-329.187	50.852	-0.134	0.125
-328.172	520.447	0.044	0.100
-327.158	4.352	0.147	-0.106
-326.143	-45.026	-0.350	-0.171
-325.129	94.493	-0.034	-0.038
-324.114	-141.168	0.225	0.023
-323.099	-166.875	0.133	0.005
-322.085	-200.000	-0.069	-0.305
-321.070	-66.744	-0.214	0.083
-320.056	-36.493	0.116	-0.062
-319.041	15.697	0.192	0.149
-318.026	-87.907	-0.339	0.100
-317.012	-200.000	0.041	0.283
-315.997	50.252	0.317	-0.294
-314.983	-23.496	0.237	-0.140
-313.968	206.216	-0.218	-0.334
-312.953	12.069	-0.192	-0.145
-311.939	800.000	-0.034	0.099
-310.924	83.948	-0.094	0.101
-309.910	293.709	-0.139	0.250
-308.895	86.318	0.289	0.313
-307.880	145.936	-0.091	0.119
-306.866	-151.613	-0.090	0.007
-305.851	314.713	0.139	-0.258
-304.837	48.969	-0.201	-0.185
-303.822	-7.218	0.125	0.083
-302.807	-200.000	0.033	-0.316
-301.793	15.662	0.192	0.148
-300.778	-11.323	-0.341	-0.221
-299.764	-188.135	-0.348	0.004
-298.749	-200.000	-0.019	0.220
-297.735	800.000	-0.067	0.224
-296.720	-200.000	0.008	0.064
-295.705	-41.681	-0.312	0.157
-294.691	205.717	0.122	-0.186
-293.676	-200.000	0.058	0.360
-292.662	-85.880	0.336	-0.102
-291.647	-35.787	0.169	-0.090
-290.632	-52.539	-0.358	-0.162
-289.618	130.800	0.299	0.377
-288.603	-200.000	-0.022	0.161
-287.589	800.000	-0.079	-0.238
-286.574	-104.153	0.008	-0.002
-285.559	800.000	0.066	-0.202
-284.545	152.031	0.129	0.172
-283.530	624.360	-0.074	-0.184
-282.516	143.662	0.075	0.098
-281.501	-200.000	-0.009	-0.209
-280.486	-200.000	-0.007	-0.138
-279.472	-36.186	0.223	0.118
-278.457	154.740	0.266	0.359
-277.443	-28.322	-0.105	0.060
-276.428	-100.256	-0.145	0.035
-275.413	-78.983	0.291	0.097
-274.399	-34.596	0.110	0.059
-273.384	100.362	-0.314	0.358
-272.370	228.892	-0.031	0.049
-271.355	-200.000	0.001	0.029
-270.340	48.679	0.153	0.141
-269.326	349.412	-0.124	0.241
-268.311	-200.000	0.004	-0.064
-267.297	163.665	-0.087	0.119
-266.282	-200.000	-0.009	0.191
-265.267	118.014	0.122	0.148
-264.253	-200.000	0.002	-0.121
-263.238	-148.807	-0.415	-0.033
-262.224	-95.266	0.204	-0.054
-261.209	800.000	-0.047	0.148
-260.195	-36.099	0.422	0.224
-259.180	431.958	0.041	0.087
-258.165	234.898	0.110	0.178
-257.151	800.000	0.059	-0.243
-256.136	-110.009	-0.382	0.078
-255.122	-200.000	0.037	-0.406
-254.107	170.522	0.186	-0.261
-253.092	-80.571	0.159	-0.052
-252.078	-119.237	0.259	0.044
-251.063	72.318	0.369	-0.376
-250.049	432.900	-0.151	-0.320
-249.034	-200.000	-0.031	0.276
-248.019	-38.778	0.036	0.019
-247.005	-138.179	0.043	-0.005
-245.990	68.060	0.041	-0.041
-244.976	-200.000	0.014	-0.196
-243.961	52.199	0.176	-0.165
-242.946	-34.938	0.213	-0.114
-241.932	-43.849	-0.465	0.229
-240.917	-92.978	-0.271	-0.074
-239.903	-156.403	0.072	-0.004
-238.888	243.439	-0.042	-0.069
-237.873	3.479	-0.154	-0.110
-236.859	-200.000	0.023	0.541
-235.844	-74.815	-0.187	0.066
-234.830	132.856	0.191	0.241
-233.815	-61.494	0.095	-0.039
-232.800	-200.000	-0.005	0.163
-231.786	-96.145	0.170	-0.044
-230.771	89.486	0.085	-0.093
-229.757	48.205	0.368	0.337
-228.742	46.972	0.203	0.185
-227.727	297.139	0.086	0.155
-226.713	119.988	-0.156	0.190
-225.698	25.262	0.073	0.059
-224.684	40.852	0.142	-0.126
-223.669	-200.000	-0.081	0.430
-222.655	-80.761	-0.136	-0.044
-221.640	413.873	0.023	-0.047
-220.625	-72.668	0.196	0.071
-219.611	-130.872	-0.241	0.032
-218.596	-86.486	0.248	-0.075
-217.582	-200.000	0.008	0.062
-216.567	-79.783	-0.208	-0.068
-215.552	189.334	0.205	-0.301
-214.538	60.139	0.344	-0.333
-213.523	306.134	0.096	-0.174
-212.509	304.248	-0.083	-0.150
-211.494	91.113	0.104	0.115
-210.479	-200.000	-0.002	0.062
-209.465	-145.103	-0.100	-0.009
-208.450	800.000	0.026	-0.094
-207.436	-200.000	0.039	-0.232
-206.421	-200.000	-0.008	-0.296
-205.406	800.000	-0.025	0.094
-204.392	-144.978	-0.308	0.027
-203.377	443.726	0.049	-0.104
-202.363	-146.973	0.216	-0.018
-201.348	-55.845	-0.281	-0.123
-200.333	-60.357	-0.382	0.159
-199.319	532.228	-0.040	-0.094
-198.304	103.380	0.085	0.098
-197.290	-200.000	0.014	-0.210
-196.275	-57.999	0.472	0.201
-195.260	157.887	0.056	0.076
-194.246	-143.558	0.194	-0.018
-193.231	117.606	-0.128	0.154
-192.217	-48.497	0.155	-0.073
-191.202	-46.263	-0.229	0.110
-190.187	3.525	0.315	0.224
-189.173	530.640	-0.081	-0.186
-188.158	-70.428	0.237	0.088
-187.144	-28.393	0.059	-0.033
-186.129	232.498	0.025	0.040
-185.114	800.000	-0.021	0.069
-184.100	-107.731	-0.278	-0.059
-183.085	-13.170	0.383	0.243
-182.071	87.304	-0.071	0.077
-181.056	-100.319	-0.158	-0.038
-180.042	254.961	0.169	-0.283
-179.027	-52.664	0.405	-0.183
-178.012	133.208	0.072	-0.091
-176.998	-14.211	0.146	-0.092
-175.983	39.438	-0.326	0.285
-174.969	261.581	-0.102	-0.173
-173.954	800.000	-0.032	0.121
-172.939	-61.148	-0.059	-0.024
-171.925	-200.000	0.058	0.290
-170.910	-170.080	-0.213	-0.007
-169.896	-4.501	0.069	-0.047
-168.881	193.490	0.203	-0.301
-167.866	8.112	0.166	-0.122
-166.852	-30.689	0.228	0.126
-165.837	-200.000	0.068	0.340
-164.823	-200.000	-0.011	-0.307
-163.808	-2.256	0.097	-0.067
-162.793	-136.626	-0.267	0.030
-161.779	332.817	0.177	0.334
-160.764	-82.979	0.173	-0.055
-159.750	-200.000	0.044	-0.393
-158.735	-152.639	0.370	-0.026
-157.720	800.000	0.030	-0.084
-156.706	226.423	0.143	0.227
-155.691	-18.167	-0.160	0.097
-154.677	101.772	-0.123	0.140
-153.662	-181.506	-0.261	-0.005
-152.647	764.485	0.104	0.275
-151.633	457.881	0.090	-0.196
-150.618	-200.000	0.022	0.435
-149.604	-200.000	0.023	0.270
-148.589	800.000	-0.077	0.210
-147.574	-69.701	-0.212	-0.079
-146.560	-28.441	-0.185	0.104
-145.545	-174.542	0.225	0.006
-144.531	-200.000	0.033	0.328
-143.516	-39.371	0.273	0.140
-142.502	711.910	-0.050	0.128
-141.487	230.580	0.054	-0.087
-140.472	-193.823	0.251	-0.002
-139.458	66.644	-0.273	0.271
-138.443	800.000	0.103	0.394
-137.429	-52.819	0.296	0.133
-136.414	-200.000	0.001	-0.271
-135.399	259.689	0.170	-0.286
-134.385	-200.000	-0.070	0.465
-133.370	-114.097	0.200	0.038
-132.356	-200.000	-0.033	0.315
-131.341	161.175	-0.262	0.357
-130.326	208.013	-0.042	-0.065
-129.312	2.462	-0.259	-0.183
-128.297	284.704	-0.052	-0.091
-127.283	-113.086	0.053	0.010
-126.268	197.302	0.074	-0.111
-125.253	-77.339	-0.170	0.058
-124.239	-123.071	0.427	0.067
-123.224	410.147	-0.064	0.133
-122.210	183.515	-0.028	-0.041
-121.195	-200.000	-0.028	-0.315
-120.180	-46.045	0.216	-0.104
-119.166	57.818	-0.294	-0.281
-118.151	800.000	-0.030	0.106
-117.137	17.802	0.278	0.216
-116.122	-51.931	0.155	-0.070
-115.107	-11.616	0.338	0.217
-114.093	-37.155	-0.042	0.022
-113.078	6.425	0.062	0.045
-112.064	421.240	0.085	0.178
-111.049	-104.310	0.349	-0.079
-110.034	86.475	0.194	-0.208
-109.020	-200.000	0.044	-0.189
-108.005	5.830	0.318	0.229
-106.991	-200.000	0.075	-0.325
-105.976	-97.167	-0.219	-0.056
-104.962	-200.000	0.012	-0.061
-103.947	-200.000	-0.075	0.459
-102.932	238.706	0.169	0.274
-101.918	800.000	0.082	0.275
-100.903	800.000	0.140	0.382
-99.889	246.942	0.205	-0.338
-98.874	153.686	0.113	-0.151
-97.859	-200.000	0.002	-0.194
-96.845	-139.638	-0.389	-0.040
-95.830	-110.743	0.123	0.025
-94.816	-16.400	0.396	0.244
-93.801	173.808	-0.210	-0.296
-92.786	-200.000	-0.013	-0.139
-91.772	-117.843	-0.280	0.049
-90.757	-43.179	-0.210	0.103
-89.743	13.432	0.049	0.037
-88.728	-167.393	0.229	0.009
-87.713	-85.841	0.234	0.071
-86.699	800.000	0.076	0.236
-85.684	-82.198	0.128	-0.041
-84.670	-200.000	0.031	0.224
-83.655	93.440	-0.174	0.192
-82.640	800.000	0.102	-0.298
-81.626	-42.781	0.333	-0.165
-80.611	-178.518	-0.115	0.003
-79.597	264.360	-0.067	0.114
-78.582	64.883	0.244	0.239
-77.567	335.047	0.160	-0.302
-76.553	293.543	-0.080	0.142
-75.538	-111.024	0.161	-0.032
-74.524	-94.469	0.087	0.023
-73.509	56.746	0.165	0.156
-72.494	143.049	0.192	-0.248
-71.480	87.651	0.197	-0.213
-70.465	92.385	-0.170	-0.187
-69.451	-64.343	0.065	0.026
-68.436	201.500	-0.061	-0.091
-67.422	383.465	-0.099	-0.198
-66.407	-44.959	-0.086	0.042
-65.392	102.050	0.069	0.078
-64.378	-146.585	-0.196	-0.017
-63.363	-61.812	0.216	-0.088
-62.349	173.930	-0.152	0.213
-61.334	20.822	-1.154	-0.910
-60.319	113.570	0.783	0.925
-59.305	197.610	-0.861	-1.280
-58.290	281.641	0.885	1.543
-57.276	186.216	0.906	1.312
-56.261	-200.000	137.054	656.374
-55.246	335.519	1669.189	3148.579
-54.232	135.344	2796.446	3537.504
-53.217	84.250	2192.799	2331.589
-52.203	30.217	1710.447	1420.200
-51.188	23.166	1535.114	1225.909
-50.173	21.735	1513.508	1198.829
-49.159	45.319	1590.489	1426.939
-48.144	41.898	1599.432	1410.832
-47.130	23.277	1548.873	1237.479
-46.115	20.674	1533.146	1206.830
-45.100	20.464	1529.509	1202.468
-44.086	20.341	1527.584	1200.058
-43.071	20.347	1525.744	1198.604
-42.057	20.312	1524.693	1197.494
-41.042	20.344	1523.166	1196.464
-40.027	20.292	1521.781	1194.970
-39.013	20.320	1519.862	1193.607
-37.998	20.307	1518.730	1192.586
-36.984	20.301	1517.341	1191.402
-35.969	20.368	1515.811	1190.618
-34.954	20.292	1514.736	1189.201
-33.940	20.312	1513.254	1188.128
-32.925	20.308	1512.271	1187.280
-31.911	20.261	1510.948	1185.876
-30.896	20.375	1509.639	1185.583
-29.881	20.454	1508.345	1185.054
-28.867	20.449	1506.761	1183.730
-27.852	20.418	1505.363	1182.375
-26.838	20.414	1503.750	1181.030
-25.823	20.425	1502.445	1180.034
-24.809	20.436	1500.655	1178.658
-23.794	20.438	1499.642	1177.827
-22.779	20.326	1498.653	1176.243
-21.765	20.461	1497.101	1175.892
-20.750	20.472	1495.925	1174.996
-19.736	20.442	1495.268	1174.233
-18.721	20.349	1494.420	1172.892
-17.706	20.396	1493.285	1172.275
-16.692	20.442	1492.290	1171.755
-15.677	20.350	1490.990	1170.069
-14.663	20.442	1489.839	1169.734
-13.648	20.381	1488.921	1168.563
-12.633	20.393	1487.691	1167.626
-11.619	20.523	1486.645	1167.636
-10.604	20.395	1485.927	1166.166
-9.590	20.273	1485.780	1165.187
-8.575	20.345	1484.308	1164.465
-7.560	20.454	1483.419	1164.453
-6.546	20.310	1482.879	1163.022
-5.531	20.351	1481.812	1162.411
-4.517	20.378	1480.513	1161.526
-3.502	20.356	1479.760	1160.740
-2.487	20.430	1478.263	1160.016
-1.473	20.321	1477.717	1158.816
-0.458	20.314	1475.955	1157.337
0.556	19.321	1466.227	1146.106
1.571	16.071	1441.731	1105.576
2.586	12.444	1379.256	1034.781
3.600	11.019	1293.032	961.592
4.615	10.051	1249.184	923.373
5.629	9.008	1192.948	876.033
6.644	4.666	1113.268	795.288
7.659	1.150	1079.493	753.635
8.673	0.671	1074.531	747.734
9.688	0.563	1070.793	744.534
10.702	0.633	1069.459	743.890
11.717	0.663	1066.823	742.138
12.731	2.024	1067.024	748.890
13.746	7.172	1073.730	778.903
14.761	13.707	1082.214	817.292
15.775	16.962	1086.188	836.295
16.790	17.006	1085.175	835.658
17.804	15.972	1083.292	829.048
18.819	15.000	1081.664	822.951
19.834	14.727	1079.849	820.157
20.848	14.486	1079.280	818.467
21.863	14.229	1078.069	816.219
22.877	14.116	1077.540	815.194
23.892	13.760	1076.654	812.705
24.907	13.620	1076.030	811.478
25.921	13.542	1075.298	810.473
26.936	13.720	1074.700	810.820
27.950	13.655	1073.489	809.518
28.965	13.784	1072.501	809.329
29.980	13.771	1072.106	808.897
30.994	13.928	1070.801	808.605
32.009	13.844	1070.173	807.648
33.023	14.008	1069.486	807.858
34.038	13.904	1069.012	806.921
35.053	13.828	1067.906	805.649
36.067	13.770	1067.283	804.825
37.082	13.821	1066.365	804.310
38.096	13.815	1065.550	803.596
39.111	13.902	1064.744	803.337
40.126	13.850	1063.249	801.886
41.140	13.760	1062.531	800.839
42.155	13.900	1060.787	800.130
43.169	13.750	1060.900	799.418
44.184	13.595	1060.147	798.036
45.199	13.669	1058.562	797.126
46.213	13.736	1057.732	796.755
47.228	13.715	1056.201	795.431
48.242	13.695	1055.540	794.765
49.257	13.865	1054.656	794.844
50.271	13.749	1053.638	793.452
51.286	13.789	1052.680	792.852
52.301	13.853	1051.684	792.335
53.315	13.749	1051.437	791.582
54.330	13.755	1049.915	790.398
55.344	13.833	1049.118	790.098
56.359	13.721	1048.355	788.920
57.374	13.705	1047.316	787.993
58.388	13.770	1046.632	787.716
59.403	13.722	1045.966	786.918
60.417	13.763	1045.014	786.324
61.432	13.731	1043.967	785.318
62.447	13.724	1043.530	784.886
63.461	13.637	1042.999	784.008
64.476	13.619	1041.653	782.841
65.490	13.697	1040.589	782.339
66.505	13.564	1040.078	781.259
67.520	13.701	1039.467	781.377
68.534	13.765	1037.909	780.437
69.549	13.732	1037.512	779.915
70.563	13.733	1036.833	779.338
71.578	13.711	1036.040	778.571
72.593	13.724	1035.171	777.911
73.607	13.721	1033.955	776.913
74.622	13.649	1033.278	775.997
75.636	13.662	1032.349	775.296
76.651	13.517	1032.191	774.429
77.666	13.639	1030.926	773.978
78.680	13.630	1030.494	773.548
79.695	13.706	1029.992	773.456
80.709	13.612	1029.403	772.505
81.724	13.646	1028.603	771.997
82.739	13.654	1027.770	771.337
83.753	13.811	1026.745	771.231
84.768	13.733	1026.320	770.479
85.782	13.749	1025.015	769.508
86.797	13.876	1024.149	769.379
87.812	13.987	1023.365	769.236
88.826	13.798	1022.367	767.543
89.841	13.764	1021.689	766.808
90.855	13.842	1020.646	766.320
91.870	13.784	1020.359	765.768
92.884	13.740	1019.500	764.851
93.899	13.885	1018.790	764.920
94.914	13.878	1017.922	764.167
95.928	13.971	1017.108	763.917
96.943	13.976	1016.427	763.361
97.957	14.025	1015.195	762.594
98.972	13.989	1014.542	761.872
99.987	14.031	1014.102	761.664
101.001	13.879	1013.173	760.201
102.016	13.784	1012.508	759.203
103.030	13.859	1011.614	758.809
104.045	13.832	1010.386	757.697
105.060	13.888	1009.366	757.119
106.074	13.815	1008.450	756.035
107.089	13.979	1007.812	756.233
108.103	13.858	1007.128	755.106
109.118	13.706	1006.153	753.617
110.133	13.733	1005.705	753.334
111.147	13.779	1004.454	752.541
112.162	13.812	1003.558	751.953
113.176	13.876	1002.694	751.528
114.191	13.889	1001.764	750.822
115.206	13.831	1000.960	749.891
116.220	13.709	1000.399	748.856
117.235	13.839	999.264	748.526
118.249	13.829	998.498	747.841
119.264	13.807	997.702	747.078
120.279	13.925	996.625	746.735
121.293	13.855	996.046	745.922
122.308	13.816	995.190	745.041
123.322	13.702	994.487	743.937
124.337	13.836	993.444	743.691
125.352	13.754	992.465	742.524
126.366	13.852	991.146	741.913
127.381	13.709	990.317	740.587
128.395	13.701	988.803	739.351
129.410	13.736	987.797	738.689
130.424	13.736	987.080	738.092
131.439	13.794	985.889	737.392
132.454	13.857	985.298	737.164
133.468	13.757	984.887	736.349
134.483	13.823	984.159	736.031
135.497	13.847	983.077	735.263
136.512	13.898	982.619	735.082
137.527	13.841	982.149	734.411
138.541	13.901	980.985	733.743
139.556	13.857	980.613	733.205
140.570	13.930	979.665	732.754
141.585	13.884	979.000	731.989
142.600	13.944	978.547	731.849
143.614	13.944	977.500	731.000
144.629	14.070	976.517	730.757
145.643	14.032	975.875	730.045
146.658	14.076	975.099	729.592
147.673	14.086	973.867	728.647
148.687	14.048	973.364	728.043
149.702	13.865	972.271	726.360
150.716	13.943	971.378	725.967
151.731	13.914	970.699	725.270
152.746	13.900	969.969	724.599
153.760	14.000	969.397	724.546
154.775	14.042	968.262	723.812
155.789	13.963	967.832	723.083
156.804	13.982	966.909	722.414
157.819	13.977	965.879	721.560
158.833	14.130	964.929	721.451
159.848	14.148	964.613	721.229
160.862	14.242	963.852	721.000
161.877	14.090	963.512	720.024
162.892	14.084	962.484	719.169
163.906	14.039	961.603	718.252
164.921	14.186	960.794	718.217
165.935	14.141	959.435	716.946
166.950	14.126	958.735	716.293
167.964	14.180	957.664	715.663
168.979	14.139	956.392	714.471
169.994	14.140	955.913	714.057
171.008	14.174	955.034	713.480
172.023	14.201	954.051	712.799
173.037	14.214	953.442	712.335
174.052	14.293	952.653	712.024
175.067	14.289	952.058	711.500
176.081	14.264	951.275	710.743
177.096	14.179	950.575	709.796
178.110	14.166	949.645	708.981
179.125	14.311	948.557	708.724
180.140	14.077	948.117	707.339
181.154	14.236	947.212	707.274
182.169	14.390	946.312	707.192
183.183	14.325	945.894	706.545
184.198	14.381	945.157	706.169
185.213	14.409	944.450	705.695
186.227	14.401	943.727	705.061
187.242	14.421	943.806	705.141
188.256	14.375	942.788	704.125
189.271	14.575	941.504	703.945
190.286	14.534	940.809	703.191
191.300	14.473	940.088	702.332
192.315	14.351	939.166	701.069
193.329	14.317	938.435	700.317
194.344	14.371	938.377	700.440
195.359	14.448	937.520	700.063
196.373	14.408	937.097	699.518
197.388	14.508	936.435	699.379
198.402	14.397	935.939	698.479
199.417	14.632	935.425	699.022
200.432	14.478	934.959	697.966
201.446	14.655	934.633	698.400
202.461	14.666	934.143	698.019
203.475	14.726	933.460	697.696
204.490	14.715	932.723	697.040
205.504	14.557	932.274	695.981
206.519	14.639	930.925	695.255
207.534	14.694	929.835	694.610
208.548	14.629	929.729	694.197
209.563	14.699	928.717	693.669
210.577	14.615	928.521	693.115
211.592	14.718	927.710	692.875
212.607	14.773	926.966	692.487
213.621	14.720	926.688	691.999
214.636	14.838	925.475	691.521
215.650	14.763	925.027	690.813
216.665	14.833	924.230	690.447
217.680	14.987	923.538	690.504
218.694	14.835	923.787	690.001
219.709	14.862	923.075	689.518
220.723	14.959	922.210	689.213
221.738	14.939	921.475	688.521
222.753	14.950	920.346	687.662
223.767	15.002	919.598	687.253
224.782	14.889	919.154	686.400
225.796	14.989	918.221	686.051
226.811	14.955	917.944	685.643
227.826	14.886	917.186	684.733
228.840	14.878	916.381	684.040
229.855	14.957	915.581	683.706
230.869	14.961	915.273	683.428
231.884	15.158	914.107	683.303
232.899	14.951	913.812	682.178
233.913	15.013	913.022	681.779
234.928	15.007	912.360	681.203
235.942	15.048	911.683	680.802
236.957	15.051	910.882	680.156
237.972	15.032	910.072	679.414
238.986	14.975	909.653	678.811
240.001	14.993	909.024	678.353
241.015	15.048	908.108	677.835
242.030	15.125	907.367	677.531
243.045	15.041	907.260	677.052
244.059	15.119	906.402	676.668
245.074	15.130	905.685	676.117
246.088	15.229	904.909	675.875
247.103	15.373	904.421	676.034
248.117	15.293	903.930	675.282
249.132	15.320	903.107	674.716
250.147	15.268	902.495	673.990
251.161	15.382	901.578	673.704
252.176	15.332	901.518	673.401
253.190	15.449	900.512	673.056
254.205	15.374	900.177	672.448
255.220	15.539	899.239	672.346
256.234	15.366	898.648	671.153
257.249	15.483	897.930	671.027
258.263	15.502	897.533	670.744
259.278	15.461	897.096	670.196
260.293	15.608	896.521	670.292
261.307	15.622	895.695	669.674
262.322	15.622	895.324	669.336
263.336	15.656	894.709	668.953
264.351	15.574	894.209	668.195
265.366	15.759	892.897	667.887
266.380	15.652	892.770	667.311
267.395	15.676	892.163	666.891
268.409	15.591	891.711	666.158
269.424	15.571	890.754	665.306
270.439	15.681	889.914	665.054
271.453	15.798	889.171	664.902
272.468	15.700	888.371	663.857
273.482	15.655	887.854	663.236
274.497	15.733	886.979	662.830
275.512	15.881	886.050	662.661
276.526	15.788	885.438	661.777
277.541	15.777	885.220	661.513
278.555	15.863	884.198	661.030
279.570	15.917	883.717	660.822
280.585	15.919	883.052	660.275
281.599	15.846	882.804	659.745
282.614	15.814	882.165	659.085
283.628	15.929	881.513	658.987
284.643	15.928	880.782	658.380
285.657	15.932	880.425	658.069
286.672	15.989	880.013	657.925
287.687	15.964	879.252	657.202
288.701	16.007	878.457	656.718
289.716	15.999	878.146	656.394
290.730	15.937	877.463	655.585
291.745	16.065	876.924	655.622
292.760	16.085	876.053	654.992
293.774	16.077	875.292	654.335
294.789	16.052	875.239	654.140
295.803	16.288	874.374	654.348
296.818	16.090	874.035	653.269
297.833	16.083	873.127	652.507
298.847	16.041	872.731	651.992
299.862	16.114	871.618	651.385
300.876	16.180	870.780	650.953
301.891	16.148	870.607	650.644
302.906	16.203	870.029	650.366
303.920	16.163	869.284	649.599
304.935	16.342	868.399	649.567
305.949	16.280	867.908	648.905
306.964	16.395	867.126	648.704
307.979	16.431	866.026	647.961
308.993	16.368	866.296	647.866
310.008	16.351	865.538	647.177
311.022	16.483	865.123	647.313
312.037	16.377	864.467	646.359
313.052	16.583	863.626	646.462
314.066	16.525	863.071	645.768
315.081	16.455	862.509	645.022
316.095	16.414	862.134	644.526
317.110	16.486	861.370	644.173
318.125	16.401	861.031	643.538
319.139	16.387	860.005	642.665
320.154	16.540	859.925	643.130
321.168	16.414	859.274	642.105
322.183	16.259	858.931	641.202
323.197	16.505	858.333	641.632
324.212	16.621	857.175	641.151
325.227	16.479	857.122	640.519
326.241	16.516	856.871	640.414
327.256	16.462	856.109	639.581
328.270	16.498	855.664	639.331
329.285	16.592	854.948	639.093
330.300	16.541	854.506	638.515
331.314	16.517	853.720	637.778
332.329	16.558	853.114	637.426
333.343	16.654	852.398	637.196
334.358	16.546	852.012	636.443
335.373	16.675	850.942	636.073
336.387	16.816	850.690	636.358
337.402	16.710	849.992	635.382
338.416	16.687	849.737	635.047
339.431	16.756	848.950	634.664
340.446	16.732	848.377	634.089
341.460	16.798	847.549	633.659
342.475	16.799	847.180	633.330
343.489	16.787	846.741	632.903
344.504	16.848	845.926	632.466
345.519	17.005	845.407	632.606
346.533	16.847	845.191	631.798
347.548	17.077	844.505	632.086
348.562	16.871	844.030	630.909
349.577	16.742	843.835	630.227
350.592	16.808	843.025	629.813
351.606	16.944	842.646	629.978
352.621	17.058	841.981	629.851
353.635	16.891	841.939	629.141
354.650	16.996	841.034	628.800
355.665	16.990	840.831	628.571
356.679	16.968	840.187	627.953
357.694	17.038	840.061	628.062
358.708	16.939	839.444	627.179
359.723	17.056	838.446	626.808
360.738	16.997	838.071	626.255
361.752	17.134	837.382	626.192
362.767	17.007	837.253	625.572
363.781	17.245	837.001	626.205
364.796	17.040	836.821	625.260
365.810	17.178	835.586	624.789
366.825	17.227	835.397	624.771
367.840	17.172	835.103	624.295
368.854	17.341	834.434	624.359
369.869	17.228	834.010	623.573
370.883	17.208	833.587	623.128
371.898	17.174	832.706	622.289
372.913	17.283	832.296	622.326
373.927	17.221	831.827	621.694
374.942	17.375	831.099	621.659
375.956	17.271	830.765	620.974
376.971	17.326	830.135	620.649
377.986	17.468	829.265	620.462
379.000	17.343	828.791	619.596
380.015	17.551	828.178	619.840
381.029	17.438	827.775	619.071
382.044	17.340	827.318	618.319
383.059	17.472	826.368	618.033
384.073	17.577	826.076	618.143
385.088	17.514	825.629	617.523
386.102	17.543	825.208	617.260
387.117	17.563	824.589	616.816
388.132	17.539	824.031	616.256
389.146	17.495	823.604	615.721
390.161	17.551	823.276	615.625
391.175	17.740	822.813	615.907
392.190	17.586	822.594	615.134
393.205	17.725	821.744	614.943
394.219	17.655	821.479	614.441
395.234	17.698	820.622	613.898
396.248	17.571	820.655	613.412
397.263	17.437	820.178	612.517
398.278	17.628	819.494	612.639
399.292	17.559	819.145	612.075
400.307	17.632	818.730	611.975
401.321	17.640	818.168	611.530
402.336	17.781	817.740	611.661
403.350	17.521	817.610	610.576
404.365	17.699	817.049	610.740
405.380	17.927	816.289	610.936
406.394	17.770	816.049	610.140
407.409	17.822	815.491	609.856
408.423	17.720	815.498	609.442
409.438	17.859	814.713	609.297
410.453	17.865	814.482	609.093
411.467	18.003	813.598	608.870
412.482	18.082	813.158	608.767
413.496	17.997	812.671	608.047
414.511	18.053	812.165	607.814
415.526	18.106	811.812	607.683
416.540	18.041	811.701	607.316
417.555	18.132	811.067	607.112
418.569	18.071	810.477	606.399
419.584	18.058	810.473	606.298
420.599	18.098	809.765	605.853
421.613	115.787	1300.591	1492.663
422.628	100.178	1372.053	1492.747
