DTS Sentinel unit serial number:	SN413079Multiplexer serial number:	ORYXHardware model number:	OX4-SRSoftware version number:	ORYX F/W v4.00 Oryx Data Collector v3.7.2.0data status	okinstallation	princeton_trtdifferential loss correction	single-endedforward channel	channel 3reverse channel	N/Adate	2019/09/19time	05:24:35forward acquisition time	60.00reverse acquisition time	0.00gamma	496.2192k internal	0.2348k external	0.2348temperature offset calibration	0.9991default loss term (dB/km)	0.3790temperature slope calibration	1.0000multiplexer offset coefficient	1.0000multiplexer slope coefficient	1.0000fibre end	0.00T internal ref (°C)	19.42T ext. ref 1 (°C)	0.60T ext. ref 2 (°C)	13.02length (m)	temperature (°C)	Stokes	anti-Stokes-747.200	-90.287	0.054	0.016
-746.185	143.308	-0.234	0.311
-745.171	-193.083	0.430	0.004
-744.156	-200.000	0.015	0.121
-743.142	233.304	0.156	-0.256
-742.127	-31.168	0.127	0.072
-741.112	-200.000	0.004	-0.191
-740.098	55.091	-0.330	-0.319
-739.083	-79.809	0.321	-0.108
-738.069	-30.846	-0.214	0.121
-737.054	-3.682	-0.227	0.158
-736.039	-138.499	-0.268	0.029
-735.025	-200.000	0.001	0.060
-734.010	16.224	0.070	-0.055
-732.996	-130.393	-0.251	-0.034
-731.981	175.343	-0.109	0.157
-730.966	-165.542	-0.105	0.005
-729.952	64.422	-0.042	0.042
-728.937	94.672	0.080	-0.090
-727.923	208.011	0.069	-0.108
-726.908	42.363	-0.183	-0.166
-725.894	-61.941	-0.363	0.152
-724.879	-189.808	0.055	-0.001
-723.864	-52.440	-0.065	0.030
-722.850	-200.000	-0.264	0.001
-721.835	-200.000	-0.032	-0.261
-720.821	-44.176	0.082	-0.041
-719.806	-140.019	0.191	0.020
-718.791	-200.000	-0.058	-0.315
-717.777	-58.075	-0.044	-0.019
-716.762	-200.000	-0.024	0.138
-715.748	-19.380	0.137	0.085
-714.733	20.168	-0.188	-0.152
-713.718	120.687	-0.171	0.213
-712.704	-64.926	0.307	0.124
-711.689	-131.230	0.079	0.010
-710.675	-124.216	0.114	-0.018
-709.660	351.485	-0.283	0.558
-708.645	-200.000	-0.012	0.073
-707.631	360.227	0.118	0.235
-706.616	-31.132	0.068	0.038
-705.602	-55.577	-0.121	0.054
-704.587	800.000	-0.034	-0.120
-703.572	148.030	-0.174	-0.234
-702.558	233.296	0.069	0.113
-701.543	-153.376	0.048	0.003
-700.529	-200.000	0.041	0.355
-699.514	-124.141	0.269	-0.042
-698.499	-92.150	0.140	0.039
-697.485	-121.348	0.558	0.093
-696.470	-87.221	-0.591	-0.179
-695.456	-6.462	-0.305	-0.207
-694.441	-7.464	0.242	0.163
-693.426	800.000	-0.053	-0.223
-692.412	59.876	0.042	-0.041
-691.397	-48.136	0.043	0.021
-690.383	-200.000	-0.029	-0.407
-689.368	622.232	0.058	-0.145
-688.354	-112.591	-0.270	-0.054
-687.339	-200.000	-0.007	-0.190
-686.324	-200.000	0.036	0.364
-685.310	-142.511	-0.402	-0.039
-684.295	8.157	0.122	0.091
-683.281	-33.382	-0.205	-0.113
-682.266	403.178	0.160	-0.335
-681.251	120.394	-0.131	0.162
-680.237	-39.089	-0.176	0.092
-679.222	-27.535	-0.152	0.088
-678.208	138.870	0.051	0.067
-677.193	-126.625	0.248	0.037
-676.178	-200.000	-0.011	-0.265
-675.164	-200.000	0.431	0.001
-674.149	142.238	-0.176	0.232
-673.135	-97.222	-0.264	-0.069
-672.120	-12.623	-0.133	-0.086
-671.105	800.000	-0.015	-0.049
-670.091	76.877	-0.226	-0.239
-669.076	-85.109	0.190	-0.059
-668.062	385.503	0.030	-0.062
-667.047	-5.842	0.113	0.077
-666.032	-200.000	-0.044	-0.444
-665.018	23.886	-0.037	-0.030
-664.003	800.000	-0.067	0.241
-662.989	-200.000	0.043	0.362
-661.974	-127.837	-0.237	-0.034
-660.959	232.682	0.097	0.159
-659.945	800.000	-0.055	0.197
-658.930	-146.512	-0.292	0.025
-657.916	101.992	-0.179	0.209
-656.901	-200.000	-0.005	-0.048
-655.886	236.595	-0.097	0.160
-654.872	-81.058	-0.304	-0.100
-653.857	316.101	-0.174	0.328
-652.843	210.284	0.061	-0.095
-651.828	-71.595	0.390	-0.145
-650.814	-101.444	0.242	0.059
-649.799	55.724	-0.160	-0.154
-648.784	-3.765	0.128	0.089
-647.770	-27.928	-0.189	0.109
-646.755	-200.000	-0.028	-0.234
-645.741	-94.388	0.109	0.030
-644.726	-89.480	0.166	-0.049
-643.711	139.445	0.190	0.249
-642.697	-120.844	0.124	-0.021
-641.682	-200.000	-0.045	-0.200
-640.668	-200.000	0.006	-0.392
-639.653	-53.979	-0.384	-0.174
-638.638	800.000	0.100	-0.361
-637.624	81.063	-0.209	0.225
-636.609	-60.845	0.114	-0.048
-635.595	-64.943	-0.143	-0.058
-634.580	-105.566	-0.168	0.038
-633.565	-193.313	-0.099	0.001
-632.551	-200.000	-0.044	0.196
-631.536	16.835	0.243	0.191
-630.522	-53.698	-0.241	0.109
-629.507	471.628	0.068	0.153
-628.492	800.000	0.083	0.321
-627.478	-170.951	-0.136	-0.005
-626.463	800.000	0.086	-0.267
-625.449	514.192	-0.099	0.230
-624.434	66.835	0.248	0.251
-623.419	779.102	-0.067	0.183
-622.405	-135.544	0.239	-0.028
-621.390	-120.784	-0.230	0.039
-620.376	229.538	0.031	-0.050
-619.361	-33.612	0.112	-0.062
-618.346	-200.000	0.041	0.389
-617.332	-30.650	-0.106	0.060
-616.317	171.554	-0.152	0.217
-615.303	377.469	-0.086	-0.175
-614.288	-200.000	0.009	-0.165
-613.273	-200.000	-0.029	-0.138
-612.259	516.121	-0.021	0.049
-611.244	-32.227	-0.166	-0.092
-610.230	800.000	0.040	0.166
-609.215	-200.000	-0.018	-0.196
-608.201	430.217	-0.151	0.324
-607.186	150.738	-0.059	0.080
-606.171	-200.000	-0.002	0.400
-605.157	386.669	-0.205	-0.421
-604.142	-49.770	-0.379	-0.179
-603.128	-38.957	0.269	-0.141
-602.113	6.804	-0.037	-0.027
-601.098	-200.000	0.059	-0.298
-600.084	-103.462	-0.391	0.091
-599.069	278.482	-0.200	0.353
-598.055	800.000	0.036	0.122
-597.040	800.000	-0.029	0.090
-596.025	16.038	-0.132	-0.103
-595.011	-200.000	0.001	-0.313
-593.996	-200.000	-0.008	0.064
-592.982	136.487	0.229	-0.297
-591.967	77.253	-0.083	-0.088
-590.952	-119.007	0.112	0.020
-589.938	-57.942	-0.109	0.047
-588.923	800.000	0.011	-0.030
-587.909	-190.752	-0.301	-0.003
-586.894	770.126	-0.139	0.377
-585.879	210.707	-0.020	0.032
-584.865	800.000	0.016	-0.062
-583.850	-200.000	-0.008	0.139
-582.836	-9.192	0.043	-0.028
-581.821	207.662	0.175	0.271
-580.806	-200.000	0.005	0.098
-579.792	-9.843	0.182	0.120
-578.777	800.000	-0.203	0.593
-577.763	800.000	0.066	-0.184
-576.748	-129.964	0.259	0.035
-575.733	27.650	-0.071	0.060
-574.719	800.000	-0.020	-0.082
-573.704	-83.439	-0.081	0.026
-572.690	57.833	0.134	-0.131
-571.675	-4.692	0.093	-0.064
-570.661	-33.565	0.110	0.060
-569.646	-106.933	0.444	0.098
-568.631	-117.264	0.184	-0.033
-567.617	800.000	-0.029	0.110
-566.602	800.000	0.083	0.281
-565.588	-83.847	0.171	-0.054
-564.573	-40.492	0.279	-0.144
-563.558	108.155	-0.128	0.151
-562.544	-170.235	-0.186	0.006
-561.529	-120.389	-0.137	0.023
-560.515	-200.000	-0.083	0.000
-559.500	-200.000	0.032	0.379
-558.485	-200.000	0.011	0.177
-557.471	800.000	0.097	-0.354
-556.456	-200.000	0.040	0.227
-555.442	292.680	-0.182	-0.328
-554.427	249.984	-0.056	-0.094
-553.412	-12.907	0.336	0.217
-552.398	177.335	-0.102	0.147
-551.383	319.186	0.197	0.370
-550.369	-75.693	0.204	0.072
-549.354	-131.295	0.106	-0.014
-548.339	-40.217	-0.170	-0.088
-547.325	-181.776	-0.106	0.002
-546.310	-200.000	0.024	-0.332
-545.296	80.193	0.215	-0.229
-544.281	138.185	-0.113	-0.146
-543.266	-200.000	0.050	-0.216
-542.252	29.662	-0.194	-0.163
-541.237	-200.000	0.101	-0.496
-540.223	-52.585	0.027	-0.012
-539.208	-110.168	0.163	0.034
-538.193	329.648	-0.057	-0.108
-537.179	-76.818	0.080	0.028
-536.164	677.948	0.027	0.069
-535.150	-120.768	0.273	0.046
-534.135	-94.493	-0.210	-0.057
-533.121	90.596	0.055	0.061
-532.106	-127.095	-0.319	-0.046
-531.091	169.519	0.027	-0.038
-530.077	-92.248	-0.075	0.021
-529.062	-107.088	-0.532	0.116
-528.048	199.429	-0.118	-0.179
-527.033	-22.757	-0.210	0.126
-526.018	9.802	-0.301	-0.226
-525.004	-121.741	-0.141	-0.023
-523.989	-17.468	0.194	-0.121
-522.975	92.653	0.217	-0.243
-521.960	800.000	-0.108	0.336
-520.945	118.203	-0.054	0.066
-519.931	-200.000	-0.056	0.489
-518.916	-146.612	-0.215	-0.018
-517.902	58.774	0.119	0.116
-516.887	350.832	-0.119	0.234
-515.872	91.675	0.151	-0.168
-514.858	12.066	-0.140	-0.106
-513.843	-96.732	-0.066	0.017
-512.829	-76.703	-0.156	0.054
-511.814	72.353	0.106	-0.110
-510.799	161.279	-0.334	-0.462
-509.785	-130.495	0.119	0.016
-508.770	-164.722	0.277	-0.012
-507.756	-128.241	0.211	0.030
-506.741	573.822	0.066	0.160
-505.726	-84.566	0.311	0.097
-504.712	-200.000	-0.011	0.062
-503.697	-140.319	-0.123	0.013
-502.683	490.549	0.177	-0.401
-501.668	800.000	0.052	-0.150
-500.653	223.074	-0.106	-0.169
-499.639	-136.971	0.201	0.023
-498.624	-93.651	0.079	0.022
-497.610	288.027	-0.026	0.046
-496.595	364.024	0.180	0.358
-495.581	-200.000	-0.164	0.000
-494.566	110.553	-0.158	-0.189
-493.551	-36.306	-0.202	-0.108
-492.537	-60.359	0.120	-0.051
-491.522	202.675	-0.142	-0.218
-490.508	-116.693	0.215	-0.039
-489.493	174.726	-0.032	0.046
-488.478	-83.539	0.187	-0.059
-487.464	-42.172	0.498	-0.252
-486.449	-200.000	-0.044	0.298
-485.435	-79.521	-0.132	0.044
-484.420	-102.841	0.229	0.054
-483.405	-200.000	0.055	-0.245
-482.391	800.000	0.145	-0.436
-481.376	171.937	-0.218	-0.310
-480.362	-200.000	-0.033	-0.348
-479.347	-28.157	-0.263	0.150
-478.332	-30.596	0.347	-0.194
-477.318	800.000	0.103	0.311
-476.303	52.556	0.028	-0.027
-475.289	174.379	0.164	-0.234
-474.274	-42.929	-0.380	0.191
-473.259	136.992	0.118	-0.153
-472.245	85.953	-0.074	-0.080
-471.230	-200.000	0.008	-0.107
-470.216	-121.080	-0.297	0.049
-469.201	43.689	0.269	0.244
-468.186	54.767	0.091	-0.087
-467.172	-87.495	-0.130	-0.039
-466.157	800.000	0.061	0.184
-465.143	223.521	0.158	-0.252
-464.128	-97.257	0.279	-0.072
-463.113	45.351	0.180	-0.164
-462.099	73.366	0.094	0.097
-461.084	-170.564	0.276	0.009
-460.070	-30.092	0.087	0.049
-459.055	-200.000	-0.007	-0.146
-458.040	-162.429	-0.480	-0.023
-457.026	800.000	-0.114	0.471
-456.011	125.003	0.186	-0.232
-454.997	-85.669	-0.179	0.055
-453.982	-200.000	0.005	-0.156
-452.968	-79.551	-0.269	0.090
-451.953	-47.570	-0.203	0.097
-450.938	-75.923	-0.198	0.069
-449.924	-134.091	0.281	-0.034
-448.909	52.647	-0.061	-0.058
-447.895	16.675	0.163	0.128
-446.880	-46.322	-0.112	-0.054
-445.865	-116.234	0.195	-0.036
-444.851	-77.160	0.203	0.070
-443.836	386.278	0.160	0.326
-442.822	-155.038	-0.281	0.018
-441.807	-200.000	0.004	-0.032
-440.792	238.029	0.081	-0.133
-439.778	-18.943	-0.386	0.237
-438.763	121.427	0.101	-0.124
-437.749	-110.644	-0.304	0.062
-436.734	800.000	-0.053	-0.216
-435.719	-138.057	-0.252	-0.028
-434.705	800.000	0.092	-0.369
-433.690	-40.450	0.253	0.130
-432.676	800.000	-0.041	-0.112
-431.661	-200.000	0.016	0.264
-430.646	-2.946	-0.049	0.034
-429.632	-9.642	-0.270	0.178
-428.617	-27.459	0.066	-0.038
-427.603	-82.798	-0.315	-0.100
-426.588	800.000	0.057	-0.155
-425.573	328.994	0.028	0.053
-424.559	-167.336	0.236	-0.009
-423.544	97.703	-0.099	-0.112
-422.530	38.946	0.229	-0.202
-421.515	111.788	0.086	0.102
-420.500	-200.000	0.038	0.437
-419.486	49.643	0.195	0.182
-418.471	16.013	0.224	-0.174
-417.457	-137.079	0.327	-0.037
-416.442	-79.957	-0.352	-0.117
-415.428	800.000	0.033	-0.094
-414.413	306.023	-0.059	0.109
-413.398	-200.000	0.074	0.326
-412.384	555.270	0.232	0.551
-411.369	-126.704	0.123	-0.018
-410.355	-119.288	-0.067	-0.011
-409.340	-44.906	0.317	-0.156
-408.325	-37.328	-0.230	0.121
-407.311	115.616	0.183	0.221
-406.296	-7.386	-0.224	-0.150
-405.282	165.083	0.146	-0.203
-404.267	364.183	-0.096	0.191
-403.252	604.278	0.144	0.353
-402.238	-128.811	0.469	-0.065
-401.223	537.742	0.047	0.110
-400.209	800.000	0.060	-0.227
-399.194	606.035	-0.119	-0.293
-398.179	-89.395	0.103	-0.030
-397.165	661.592	-0.142	-0.362
-396.150	-105.480	0.386	-0.086
-395.136	263.001	0.144	-0.246
-394.121	559.506	0.101	-0.240
-393.106	-101.693	-0.213	0.051
-392.092	-18.530	0.185	0.114
-391.077	297.328	-0.139	-0.252
-390.063	-200.000	0.030	-0.379
-389.048	-17.533	0.282	0.174
-388.033	-63.969	-0.068	-0.027
-387.019	480.272	0.126	-0.282
-386.004	97.143	0.175	0.197
-384.990	475.929	-0.060	-0.134
-383.975	-24.488	0.305	-0.179
-382.960	-200.000	-0.029	0.159
-381.946	-83.201	-0.183	-0.058
-380.931	44.670	0.171	-0.155
-379.917	800.000	-0.083	0.228
-378.902	-200.000	-0.001	-0.135
-377.888	226.301	0.278	-0.445
-376.873	487.473	0.094	0.211
-375.858	-200.000	-0.070	0.337
-374.844	-49.040	0.059	0.028
-373.829	800.000	-0.058	0.162
-372.815	800.000	-0.130	0.455
-371.800	120.223	-0.125	-0.152
-370.785	171.765	0.154	-0.218
-369.771	-26.501	0.202	0.117
-368.756	-200.000	0.006	-0.084
-367.742	-200.000	-0.008	0.148
-366.727	642.049	0.106	-0.267
-365.712	-134.426	-0.210	0.025
-364.698	-59.231	0.249	0.105
-363.683	70.171	-0.058	0.059
-362.669	-121.648	0.247	0.040
-361.654	-58.298	-0.184	-0.079
-360.639	-200.000	0.009	-0.049
-359.625	-141.778	0.141	0.014
-358.610	308.249	-0.125	-0.229
-357.596	-177.091	0.234	0.006
-356.581	-68.430	-0.079	-0.030
-355.566	-61.038	-0.149	0.062
-354.552	116.117	-0.115	-0.139
-353.537	85.620	-0.110	0.119
-352.523	-151.072	-0.129	-0.010
-351.508	-35.209	0.104	0.056
-350.493	-28.132	0.037	-0.021
-349.479	-29.644	0.227	0.128
-348.464	-28.028	0.241	-0.137
-347.450	800.000	0.037	0.109
-346.435	-157.914	-0.203	0.012
-345.420	629.866	-0.131	-0.326
-344.406	-113.404	0.280	0.054
-343.391	312.193	-0.111	0.205
-342.377	-13.984	-0.219	-0.139
-341.362	-138.270	0.105	-0.011
-340.348	119.317	0.093	0.113
-339.333	119.814	-0.204	0.249
-338.318	327.919	0.130	-0.245
-337.304	183.432	0.127	-0.184
-336.289	78.414	0.188	0.197
-335.275	-146.483	0.221	0.019
-334.260	92.347	0.092	-0.102
-333.245	-31.862	0.220	-0.121
-332.231	83.372	0.104	0.111
-331.216	247.086	0.022	0.037
-330.202	-172.941	0.256	0.008
-329.187	-130.280	-0.358	0.048
-328.172	54.389	-0.454	0.430
-327.158	-200.000	0.016	0.333
-326.143	800.000	0.115	0.398
-325.129	800.000	-0.062	0.198
-324.114	-166.055	0.161	-0.007
-323.099	-6.905	0.194	0.129
-322.085	-44.104	-0.398	0.196
-321.070	16.508	0.067	-0.052
-320.056	-200.000	-0.009	0.077
-319.041	-200.000	-0.060	0.345
-318.026	48.385	-0.147	-0.135
-317.012	247.332	0.087	-0.144
-315.997	254.452	-0.030	-0.050
-314.983	-200.000	-0.059	0.372
-313.968	-87.989	0.285	-0.084
-312.953	-9.936	-0.109	-0.071
-311.939	78.815	-0.103	-0.108
-310.924	-73.648	-0.032	0.012
-309.910	33.604	-0.263	-0.225
-308.895	15.553	-0.144	-0.111
-307.880	800.000	-0.068	0.188
-306.866	-6.293	-0.119	0.079
-305.851	-83.692	-0.399	-0.125
-304.837	-200.000	-0.006	-0.083
-303.822	171.057	-0.182	0.256
-302.807	800.000	0.035	-0.140
-301.793	800.000	-0.013	-0.038
-300.778	729.693	0.069	-0.180
-299.764	141.208	-0.149	-0.193
-298.749	12.098	-0.072	-0.055
-297.735	-200.000	0.006	0.169
-296.720	-56.524	0.154	-0.067
-295.705	37.919	-0.240	-0.210
-294.691	-163.950	-0.314	0.014
-293.676	-28.242	-0.275	-0.156
-292.662	800.000	-0.053	-0.220
-291.647	98.026	-0.095	-0.108
-290.632	355.991	-0.165	0.323
-289.618	-185.610	-0.296	0.004
-288.603	800.000	-0.018	-0.077
-287.589	-200.000	-0.049	0.297
-286.574	-200.000	0.539	0.001
-285.559	-73.559	-0.148	-0.053
-284.545	111.752	-0.053	-0.063
-283.530	83.171	-0.246	0.262
-282.516	449.158	-0.037	-0.079
-281.501	510.028	-0.084	0.192
-280.486	-33.457	0.100	0.054
-279.472	-114.025	-0.111	-0.021
-278.457	-29.196	0.126	-0.071
-277.443	72.082	-0.174	0.178
-276.428	-200.000	0.010	0.186
-275.413	-200.000	0.007	-0.095
-274.399	-146.102	-0.089	-0.008
-273.384	158.262	0.045	-0.062
-272.370	35.626	-0.134	-0.116
-271.355	590.409	-0.112	-0.272
-270.340	-109.389	0.233	0.048
-269.326	-48.851	-0.138	-0.065
-268.311	104.395	0.162	0.187
-267.297	800.000	-0.043	0.135
-266.282	36.379	-0.095	-0.082
-265.267	-7.731	-0.244	0.162
-264.253	-101.723	-0.241	0.057
-263.238	-56.844	0.088	-0.038
-262.224	282.397	-0.262	0.461
-261.209	-57.554	0.374	-0.161
-260.195	-91.887	0.096	-0.027
-259.180	266.286	0.204	0.349
-258.165	353.441	0.104	0.202
-257.151	131.321	-0.247	-0.311
-256.136	-39.599	0.203	-0.104
-255.122	188.688	-0.114	0.167
-254.107	-41.805	-0.322	-0.162
-253.092	442.265	-0.098	-0.210
-252.078	525.130	-0.112	0.259
-251.063	85.904	-0.029	-0.032
-250.049	-55.249	0.115	-0.050
-249.034	-200.000	0.010	-0.090
-248.019	800.000	-0.098	0.265
-247.005	88.223	0.308	0.335
-245.990	-200.000	-0.029	-0.258
-244.976	800.000	-0.007	-0.031
-243.961	23.089	0.059	0.047
-242.946	-45.427	0.035	0.017
-241.932	69.417	-0.120	-0.121
-240.917	800.000	0.023	-0.067
-239.903	-69.627	-0.229	-0.086
-238.888	140.668	0.353	-0.457
-237.873	187.231	-0.212	-0.310
-236.859	800.000	-0.061	0.248
-235.844	-200.000	0.091	-0.400
-234.830	-126.640	0.316	0.046
-233.815	-200.000	0.010	0.261
-232.800	-200.000	0.007	-0.103
-231.786	161.862	-0.091	0.125
-230.771	-148.061	-0.149	0.012
-229.757	-142.014	0.733	-0.071
-228.742	800.000	0.043	0.123
-227.727	-200.000	0.045	-0.411
-226.713	285.588	-0.117	-0.206
-225.698	-176.331	-0.077	-0.002
-224.684	73.884	-0.093	0.096
-223.669	800.000	0.118	-0.456
-222.655	437.350	0.106	-0.226
-221.640	228.169	-0.206	0.329
-220.625	-61.124	0.139	-0.057
-219.611	-49.796	-0.172	-0.080
-218.596	95.105	0.082	-0.091
-217.582	208.505	-0.107	-0.164
-216.567	97.217	0.079	-0.088
-215.552	7.669	0.131	-0.096
-214.538	119.667	-0.204	0.248
-213.523	83.522	0.382	0.407
-212.509	-44.546	-0.361	0.177
-211.494	3.382	-0.159	0.113
-210.479	249.250	-0.274	-0.455
-209.465	-105.370	0.207	-0.046
-208.450	101.804	-0.077	0.088
-207.436	-73.713	0.248	0.088
-206.421	100.076	0.129	0.146
-205.406	94.698	0.317	0.353
-204.392	-200.000	-0.019	-0.219
-203.377	-200.000	-0.067	-0.329
-202.363	-125.092	0.200	-0.030
-201.348	456.505	-0.113	-0.245
-200.333	-200.000	-0.005	-0.038
-199.319	-25.280	0.012	-0.007
-198.304	30.933	-0.152	-0.128
-197.290	96.133	-0.099	0.110
-196.275	-45.213	0.340	-0.165
-195.260	22.006	-0.249	0.198
-194.246	35.962	-0.070	0.061
-193.231	331.856	-0.108	-0.204
-192.217	-95.029	-0.093	-0.025
-191.202	143.901	0.066	0.086
-190.187	-49.890	-0.131	0.061
-189.173	15.207	0.039	-0.030
-188.158	-145.510	0.193	-0.017
-187.144	-113.816	-0.428	0.081
-186.129	598.281	-0.034	-0.082
-185.114	-57.266	0.298	0.128
-184.100	102.156	-0.190	0.217
-183.085	226.446	0.143	0.227
-182.071	-200.000	-0.050	0.251
-181.056	-86.070	0.136	0.041
-180.042	-200.000	0.032	-0.303
-179.027	-97.429	-0.038	-0.010
-178.012	800.000	-0.118	-0.410
-176.998	202.369	0.206	0.311
-175.983	-200.000	0.018	0.285
-174.969	217.207	-0.163	0.253
-173.954	800.000	0.077	0.297
-172.939	-200.000	0.001	-0.144
-171.925	7.090	0.242	-0.176
-170.910	-200.000	0.007	-0.077
-169.896	72.364	0.178	0.181
-168.881	89.273	-0.194	-0.211
-167.866	89.926	-0.142	-0.155
-166.852	-121.461	-0.136	-0.022
-165.837	259.026	-0.136	-0.228
-164.823	-148.609	-0.119	0.009
-163.808	-200.000	0.036	0.153
-162.793	-200.000	-0.014	0.118
-161.779	436.098	-0.040	0.085
-160.764	-39.941	-0.125	0.064
-159.750	435.244	-0.164	0.349
-158.735	-105.186	-0.210	0.047
-157.720	800.000	-0.093	0.362
-156.706	29.014	0.192	-0.159
-155.691	-115.114	0.358	-0.066
-154.677	50.482	-0.088	0.081
-153.662	-200.000	0.010	-0.461
-152.647	-71.200	0.194	0.071
-151.633	-114.042	-0.065	-0.012
-150.618	354.964	-0.040	-0.077
-149.604	-200.000	-0.044	0.475
-148.589	-200.000	0.046	-0.287
-147.574	0.758	0.122	-0.085
-146.560	800.000	-0.034	0.095
-145.545	-1.756	-0.199	0.137
-144.531	-200.000	0.075	-0.440
-143.516	297.761	-0.071	0.127
-142.502	248.996	0.144	-0.239
-141.487	-83.919	-0.330	0.102
-140.472	800.000	-0.115	0.360
-139.458	83.105	-0.203	0.216
-138.443	-10.715	-0.172	0.111
-137.429	-84.243	0.298	-0.092
-136.414	16.545	-0.154	-0.118
-135.399	-63.370	0.165	-0.066
-134.385	-200.000	0.317	0.000
-133.370	463.266	0.156	0.341
-132.356	-71.387	-0.247	-0.090
-131.341	800.000	0.079	-0.254
-130.326	-86.743	-0.258	0.077
-129.312	242.195	0.186	0.304
-128.297	350.910	-0.111	-0.214
-127.283	20.336	0.271	0.213
-126.268	-200.000	0.014	-0.169
-125.253	-160.539	0.246	0.013
-124.239	-200.000	0.042	0.181
-123.224	800.000	0.109	0.370
-122.210	-200.000	-0.017	0.348
-121.195	345.490	-0.041	0.078
-120.180	301.874	-0.089	0.160
-119.166	-3.804	0.334	0.226
-118.151	-22.024	0.217	-0.129
-117.137	-200.000	0.025	-0.351
-116.122	-116.738	0.150	-0.027
-115.107	180.288	0.111	-0.159
-114.093	4.692	0.022	-0.015
-113.078	82.198	0.056	0.059
-112.064	122.329	-0.153	0.186
-111.049	-52.219	0.187	-0.084
-110.034	-70.324	0.195	0.072
-109.020	-135.852	-0.217	0.025
-108.005	100.336	0.200	0.226
-106.991	132.066	0.095	0.119
-105.976	-200.000	0.018	0.105
-104.962	308.512	-0.217	0.395
-103.947	800.000	0.070	0.246
-102.932	-74.642	-0.104	-0.037
-101.918	-200.000	-0.077	0.460
-100.903	-44.621	-0.241	-0.117
-99.889	-40.830	-0.209	-0.105
-98.874	-136.797	0.150	-0.017
-97.859	-6.717	0.274	-0.181
-96.845	800.000	-0.105	0.290
-95.830	-82.222	0.080	-0.025
-94.816	800.000	-0.070	0.270
-93.801	800.000	-0.096	-0.311
-92.786	-87.205	0.306	-0.091
-91.772	152.116	0.038	0.051
-90.757	419.256	-0.100	0.209
-89.743	-200.000	-0.114	-0.618
-88.728	800.000	-0.080	-0.294
-87.713	-111.889	-0.260	0.051
-86.699	338.933	-0.032	0.060
-85.684	47.234	0.262	-0.238
-84.670	113.286	0.354	0.418
-83.655	-200.000	0.023	0.330
-82.640	329.384	0.061	-0.114
-81.626	-96.590	-0.235	-0.060
-80.611	-78.920	-0.418	0.139
-79.597	62.308	-0.210	-0.204
-78.582	800.000	-0.083	-0.294
-77.567	-77.171	0.174	-0.059
-76.553	128.062	0.058	0.072
-75.538	110.897	-0.197	0.230
-74.524	-200.000	0.025	0.301
-73.509	-200.000	0.056	0.275
-72.494	-200.000	0.090	0.601
-71.480	-72.916	-0.085	-0.031
-70.465	-200.000	-0.085	0.458
-69.451	-89.832	0.300	0.085
-68.436	-132.106	-0.092	0.012
-67.422	150.169	-0.118	0.156
-66.407	-40.210	0.065	-0.033
-65.392	-200.000	0.043	0.201
-64.378	800.000	0.015	0.052
-63.363	-11.674	0.368	0.235
-62.349	-32.650	0.079	0.043
-61.334	119.219	-0.936	-1.127
-60.319	128.191	0.923	1.143
-59.305	315.521	-0.733	-1.344
-58.290	336.138	0.926	1.748
-57.276	461.821	0.693	1.502
-56.261	-200.000	135.894	628.529
-55.246	344.182	1639.348	3126.661
-54.232	138.080	2773.013	3534.962
-53.217	81.499	2177.690	2289.837
-52.203	29.025	1698.379	1400.569
-51.188	22.223	1524.009	1210.087
-50.173	20.772	1503.518	1183.908
-49.159	44.420	1579.594	1410.382
-48.144	40.311	1589.869	1390.720
-47.130	22.307	1538.901	1222.300
-46.115	19.685	1523.449	1191.916
-45.100	19.575	1519.850	1188.295
-44.086	19.481	1518.287	1186.381
-43.071	19.314	1516.562	1183.840
-42.057	19.397	1514.922	1183.086
-41.042	19.429	1513.243	1181.944
-40.027	19.473	1511.618	1180.928
-39.013	19.416	1510.036	1179.255
-37.998	19.232	1509.797	1177.767
-36.984	19.321	1507.951	1176.884
-35.969	19.369	1506.720	1176.209
-34.954	19.355	1505.314	1174.970
-33.940	19.388	1503.891	1174.034
-32.925	19.387	1502.558	1172.940
-31.911	19.378	1501.436	1171.956
-30.896	19.432	1499.851	1171.042
-29.881	19.499	1498.306	1170.241
-28.867	19.431	1497.381	1169.010
-27.852	19.585	1495.899	1168.851
-26.838	19.504	1494.565	1167.211
-25.823	19.592	1492.958	1166.507
-24.809	19.445	1491.975	1164.700
-23.794	19.476	1490.355	1163.600
-22.779	19.397	1489.635	1162.455
-21.765	19.491	1488.261	1161.972
-20.750	19.501	1486.485	1160.609
-19.736	19.437	1485.805	1159.599
-18.721	19.514	1484.737	1159.239
-17.706	19.385	1483.585	1157.423
-16.692	19.397	1482.608	1156.699
-15.677	19.472	1481.095	1155.974
-14.663	19.501	1480.302	1155.504
-13.648	19.383	1479.625	1154.142
-12.633	19.321	1479.107	1153.278
-11.619	19.402	1477.806	1152.757
-10.604	19.416	1476.547	1151.822
-9.590	19.443	1476.156	1151.650
-8.575	19.467	1475.247	1151.058
-7.560	19.473	1474.184	1150.219
-6.546	19.340	1473.679	1148.895
-5.531	19.410	1472.346	1148.278
-4.517	19.396	1471.235	1147.275
-3.502	19.423	1470.417	1146.769
-2.487	19.428	1469.557	1146.086
-1.473	19.426	1468.635	1145.310
-0.458	19.463	1467.028	1144.255
0.556	18.411	1456.902	1132.086
1.571	15.159	1433.053	1092.287
2.586	11.614	1371.402	1023.044
3.600	10.038	1286.200	950.139
4.615	9.309	1242.868	913.906
5.629	8.342	1187.154	867.613
6.644	4.414	1108.174	789.864
7.659	0.985	1075.455	749.526
8.673	0.631	1070.424	744.210
9.688	0.608	1066.827	741.530
10.702	0.573	1065.242	740.192
11.717	0.588	1062.695	738.433
12.731	1.971	1062.887	745.260
13.746	6.882	1069.352	773.817
14.761	13.315	1077.721	811.464
15.775	16.696	1082.361	831.519
16.790	16.945	1080.978	831.600
17.804	15.946	1078.777	824.944
18.819	15.034	1076.717	818.836
19.834	14.645	1075.708	816.096
20.848	14.361	1074.948	814.060
21.863	14.172	1074.225	812.518
22.877	13.914	1073.584	810.702
23.892	13.718	1072.486	808.845
24.907	13.570	1071.570	807.362
25.921	13.612	1070.969	807.038
26.936	13.571	1070.602	806.493
27.950	13.651	1070.174	806.488
28.965	13.738	1068.984	805.942
29.980	13.833	1067.869	805.493
30.994	13.761	1067.284	804.631
32.009	13.870	1066.242	804.302
33.023	13.820	1065.808	803.660
34.038	13.835	1064.702	802.830
35.053	13.815	1064.205	802.285
36.067	13.790	1063.197	801.337
37.082	13.767	1062.186	800.391
38.096	13.698	1061.304	799.324
39.111	13.772	1060.675	799.135
40.126	13.980	1058.980	798.787
41.140	13.781	1058.378	797.304
42.155	13.761	1057.245	796.288
43.169	13.641	1056.402	795.003
44.184	13.749	1055.481	794.758
45.199	13.650	1054.317	793.340
46.213	13.742	1053.413	793.030
47.228	13.816	1052.620	792.713
48.242	13.820	1051.447	791.781
49.257	13.810	1049.958	790.541
50.271	13.832	1049.162	789.976
51.286	13.778	1048.350	789.038
52.301	13.780	1047.867	788.617
53.315	13.770	1046.817	787.706
54.330	13.821	1045.629	786.985
55.344	13.757	1045.274	786.344
56.359	13.780	1043.577	785.111
57.374	13.689	1043.347	784.436
58.388	13.676	1042.238	783.473
59.403	13.734	1040.999	782.744
60.417	13.799	1040.271	782.432
61.432	13.688	1039.880	781.545
62.447	13.618	1039.383	780.772
63.461	13.644	1038.321	780.031
64.476	13.548	1037.734	779.066
65.490	13.730	1036.653	779.043
66.505	13.678	1035.499	777.861
67.520	13.570	1035.504	777.289
68.534	13.671	1034.384	776.854
69.549	13.698	1033.234	776.049
70.563	13.722	1032.762	775.736
71.578	13.653	1032.061	774.820
72.593	13.651	1031.141	774.054
73.607	13.589	1030.103	772.915
74.622	13.599	1029.469	772.418
75.636	13.606	1028.342	771.536
76.651	13.561	1027.801	770.852
77.666	13.579	1026.776	770.099
78.680	13.605	1026.070	769.623
79.695	13.639	1025.754	769.473
80.709	13.563	1025.169	768.613
81.724	13.770	1023.929	768.577
82.739	13.602	1023.381	767.321
83.753	13.674	1023.048	767.333
84.768	13.799	1021.738	766.863
85.782	13.664	1021.421	765.933
86.797	13.968	1020.210	766.361
87.812	13.962	1019.303	765.585
88.826	13.806	1018.596	764.264
89.841	13.740	1017.861	763.345
90.855	13.743	1016.955	762.611
91.870	13.733	1016.201	761.931
92.884	13.800	1015.445	761.603
93.899	13.740	1015.380	761.212
94.914	13.909	1013.866	760.786
95.928	14.030	1013.281	760.830
96.943	13.895	1012.614	759.645
97.957	13.887	1011.506	758.713
98.972	13.835	1010.613	757.738
99.987	13.926	1010.357	757.893
101.001	13.732	1010.074	756.731
102.016	13.971	1008.650	756.683
103.030	13.881	1007.904	755.646
104.045	13.873	1006.987	754.858
105.060	13.923	1005.978	754.263
106.074	13.886	1004.904	753.220
107.089	13.839	1004.358	752.532
108.103	13.702	1003.763	751.398
109.118	13.758	1002.170	750.395
110.133	13.724	1001.666	749.796
111.147	13.667	1000.673	748.730
112.162	13.800	999.278	748.218
113.176	13.727	998.677	747.374
114.191	13.771	998.347	747.258
115.206	13.726	997.261	746.176
116.220	13.830	995.988	745.628
117.235	13.690	995.510	744.573
118.249	13.804	994.557	744.304
119.264	13.757	993.820	743.478
120.279	13.845	992.808	743.049
121.293	13.846	991.847	742.268
122.308	13.833	991.081	741.574
123.322	13.820	990.694	741.159
124.337	13.623	989.746	739.506
125.352	13.800	987.897	738.846
126.366	13.690	987.118	737.709
127.381	13.744	986.179	737.184
128.395	13.747	985.255	736.441
129.410	13.651	983.638	734.738
130.424	13.728	982.975	734.523
131.439	13.728	982.458	734.071
132.454	13.769	981.686	733.610
133.468	13.722	980.736	732.625
134.483	13.902	979.864	732.703
135.497	13.919	979.023	732.087
136.512	13.863	978.876	731.663
137.527	13.737	978.126	730.483
138.541	13.786	977.206	729.947
139.556	13.865	976.064	729.378
140.570	13.795	975.710	728.742
141.585	13.832	975.047	728.343
142.600	13.940	973.982	727.957
143.614	13.929	973.268	727.310
144.629	13.948	972.833	727.003
145.643	14.016	972.077	726.672
146.658	14.016	970.786	725.645
147.673	13.957	969.854	724.627
148.687	13.931	969.274	724.014
149.702	13.838	968.508	722.972
150.716	13.975	967.370	722.658
151.731	13.982	966.817	722.208
152.746	13.995	965.699	721.365
153.760	14.099	965.050	721.268
154.775	13.988	964.452	720.278
155.789	14.042	963.423	719.680
156.804	13.930	963.068	718.865
157.819	14.153	961.870	718.872
158.833	14.089	961.411	718.190
159.848	14.202	960.568	717.982
160.862	14.065	959.825	716.771
161.877	14.087	959.426	716.508
162.892	14.212	957.881	715.827
163.906	14.068	957.324	714.730
164.921	13.938	956.488	713.482
165.935	14.177	954.870	713.236
166.950	14.047	954.754	712.531
167.964	14.135	953.704	712.060
168.979	14.117	952.606	711.101
169.994	14.207	951.368	710.496
171.008	14.126	951.020	709.827
172.023	14.077	949.972	708.775
173.037	14.105	949.425	708.423
174.052	14.204	948.450	708.056
175.067	14.318	947.528	707.789
176.081	14.204	947.120	706.937
177.096	14.018	946.498	705.621
178.110	14.136	945.662	705.434
179.125	14.257	944.454	704.985
180.140	14.261	943.642	704.332
181.154	14.294	943.331	704.179
182.169	14.340	942.945	704.020
183.183	14.318	942.227	703.331
184.198	14.282	941.319	702.439
185.213	14.381	940.434	702.134
186.227	14.426	939.917	701.874
187.242	14.336	939.678	701.256
188.256	14.542	938.572	701.235
189.271	14.394	938.277	700.330
190.286	14.563	937.228	700.192
191.300	14.408	936.477	698.922
192.315	14.457	935.388	698.253
193.329	14.344	935.324	697.668
194.344	14.426	934.382	697.248
195.359	14.284	934.180	696.441
196.373	14.211	933.707	695.723
197.388	14.402	933.333	696.179
198.402	14.498	932.188	695.665
199.417	14.701	931.933	696.258
200.432	14.553	931.600	695.333
201.446	14.564	930.792	694.712
202.461	14.651	930.352	694.683
203.475	14.710	930.010	694.615
204.490	14.699	929.068	693.802
205.504	14.646	928.232	692.897
206.519	14.586	927.618	692.130
207.534	14.688	926.765	691.855
208.548	14.743	925.659	691.193
209.563	14.545	925.534	690.222
210.577	14.646	924.630	689.901
211.592	14.675	923.967	689.468
212.607	14.843	923.415	689.689
213.621	14.786	922.521	688.725
214.636	14.739	922.227	688.248
215.650	14.731	921.801	687.836
216.665	14.704	921.101	687.145
217.680	14.815	920.548	687.125
218.694	14.819	920.193	686.818
219.709	14.925	919.555	686.715
220.723	14.893	918.795	685.954
221.738	14.901	918.038	685.362
222.753	14.905	917.456	684.883
223.767	14.895	916.455	684.034
224.782	15.069	915.572	684.028
225.796	15.070	915.037	683.570
226.811	15.011	914.429	682.814
227.826	15.051	913.478	682.206
228.840	14.954	913.364	681.665
229.855	14.892	912.328	680.581
230.869	15.057	911.855	680.841
231.884	15.013	911.099	680.034
232.899	14.880	910.558	679.030
233.913	14.908	909.799	678.518
234.928	14.952	909.017	678.055
235.942	14.841	908.511	677.168
236.957	14.929	907.705	676.864
237.972	15.017	906.577	676.316
238.986	14.948	906.193	675.691
240.001	15.025	905.504	675.430
241.015	15.008	904.828	674.796
242.030	15.032	904.306	674.447
243.045	15.095	903.782	674.247
244.059	15.120	902.659	673.449
245.074	15.165	902.282	673.291
246.088	15.173	901.478	672.663
247.103	15.115	901.182	672.151
248.117	15.256	900.152	671.890
249.132	15.299	899.636	671.614
250.147	15.201	899.280	670.900
251.161	15.338	898.549	670.842
252.176	15.333	897.966	670.328
253.190	15.411	897.188	669.998
254.205	15.368	896.579	669.313
255.220	15.309	896.345	668.845
256.234	15.530	895.270	668.861
257.249	15.523	894.677	668.332
258.263	15.482	893.986	667.593
259.278	15.436	893.730	667.159
260.293	15.563	892.683	666.823
261.307	15.630	892.217	666.684
262.322	15.614	891.547	666.061
263.336	15.628	891.110	665.731
264.351	15.691	890.687	665.603
265.366	15.686	889.788	664.855
266.380	15.695	889.046	664.278
267.395	15.757	888.397	663.978
268.409	15.653	887.969	663.189
269.424	15.706	886.777	662.447
270.439	15.727	886.409	662.198
271.453	15.709	885.509	661.398
272.468	15.702	884.937	660.882
273.482	15.610	884.626	660.230
274.497	15.728	883.896	660.091
275.512	15.812	883.074	659.749
276.526	15.761	882.241	658.868
277.541	15.643	881.842	658.048
278.555	15.794	881.024	657.970
279.570	15.771	880.766	657.628
280.585	15.845	880.379	657.573
281.599	15.883	879.446	656.966
282.614	16.032	878.411	656.713
283.628	15.856	878.322	655.902
284.643	15.946	877.753	655.771
285.657	16.014	876.839	655.297
286.672	15.747	876.817	654.181
287.687	15.911	876.170	654.278
288.701	16.191	875.339	654.686
289.716	16.028	874.907	653.675
290.730	16.097	874.208	653.362
291.745	15.972	873.494	652.286
292.760	16.076	872.979	652.247
293.774	16.044	872.246	651.516
294.789	16.030	871.673	650.978
295.803	16.142	871.169	650.975
296.818	16.055	870.951	650.420
297.833	15.980	870.013	649.372
298.847	16.042	869.133	648.898
299.862	16.128	868.473	648.679
300.876	16.189	867.808	648.356
301.891	16.058	867.114	647.278
302.906	16.119	866.458	646.965
303.920	16.200	865.880	646.788
304.935	16.307	865.317	646.720
305.949	16.330	864.455	646.108
306.964	16.277	864.296	645.728
307.979	16.240	863.443	644.890
308.993	16.189	863.140	644.415
310.008	16.408	862.368	644.616
311.022	16.406	862.104	644.353
312.037	16.288	861.638	643.500
313.052	16.492	860.683	643.506
314.066	16.321	860.079	642.345
315.081	16.251	859.650	641.701
316.095	16.341	858.990	641.493
317.110	16.361	858.642	641.255
318.125	16.345	857.896	640.580
319.139	16.449	857.466	640.594
320.154	16.324	857.238	639.896
321.168	16.345	856.300	639.218
322.183	16.499	855.667	639.272
323.197	16.448	855.511	638.906
324.212	16.396	854.532	637.921
325.227	16.457	854.137	637.802
326.241	16.522	853.978	637.872
327.256	16.490	853.146	637.072
328.270	16.444	852.669	636.485
329.285	16.503	851.684	635.918
330.300	16.484	851.090	635.348
331.314	16.513	850.680	635.091
332.329	16.522	850.133	634.663
333.343	16.544	849.586	634.279
334.358	16.722	848.660	634.198
335.373	16.681	848.329	633.740
336.387	16.510	847.914	632.738
337.402	16.626	847.349	632.693
338.416	16.688	846.405	632.161
339.431	16.738	845.858	631.886
340.446	16.770	845.359	631.574
341.460	16.777	844.792	631.123
342.475	16.755	844.098	630.466
343.489	16.962	843.456	630.701
344.504	16.854	843.213	630.062
345.519	16.900	842.660	629.764
346.533	16.879	842.349	629.396
347.548	16.960	841.631	629.104
348.562	16.946	841.062	628.571
349.577	16.948	840.276	627.937
350.592	16.910	839.946	627.495
351.606	16.835	839.557	626.872
352.621	16.798	839.438	626.588
353.635	16.753	839.022	626.056
354.650	16.876	838.362	625.963
355.665	17.056	837.741	626.109
356.679	16.884	837.596	625.308
357.694	16.914	836.930	624.869
358.708	17.049	836.216	624.776
359.723	17.043	835.128	623.887
360.738	17.132	835.077	624.122
361.752	17.188	834.416	623.775
362.767	17.118	834.217	623.317
363.781	17.068	833.949	622.879
364.796	17.082	833.095	622.235
365.810	17.264	832.682	622.538
366.825	17.210	832.063	621.822
367.840	17.173	832.081	621.647
368.854	17.199	831.610	621.332
369.869	17.362	830.846	621.305
370.883	17.126	830.907	620.432
371.898	17.244	830.108	620.213
372.913	17.201	829.362	619.444
373.927	17.278	828.627	619.118
374.942	17.252	828.165	618.626
375.956	17.312	827.254	618.108
376.971	17.355	826.693	617.791
377.986	17.504	826.288	617.972
379.000	17.505	826.063	617.753
380.015	17.472	825.719	617.324
381.029	17.442	825.062	616.666
382.044	17.512	824.363	616.344
383.059	17.548	823.746	615.959
384.073	17.583	823.218	615.636
385.088	17.556	822.729	615.119
386.102	17.519	822.086	614.448
387.117	17.526	821.666	614.105
388.132	17.524	821.094	613.618
389.146	17.282	821.127	612.716
390.161	17.479	820.434	612.852
391.175	17.532	819.932	612.615
392.190	17.584	819.419	612.364
393.205	17.600	819.164	612.176
394.219	17.683	818.510	611.932
395.234	17.665	818.206	611.588
396.248	17.583	817.478	610.693
397.263	17.485	817.228	610.103
398.278	17.699	816.399	610.194
399.292	17.721	815.971	609.901
400.307	17.540	816.029	609.244
401.321	17.668	815.160	608.996
402.336	17.609	814.984	608.601
403.350	17.620	814.490	608.219
404.365	17.704	813.961	608.067
405.380	17.829	813.644	608.223
406.394	17.842	812.975	607.715
407.409	17.844	812.584	607.378
408.423	17.928	811.923	607.129
409.438	17.942	811.922	607.122
410.453	17.876	811.205	606.299
411.467	17.864	811.099	606.123
412.482	18.076	810.325	606.242
413.496	17.999	809.805	605.526
414.511	17.918	809.597	605.030
415.526	18.004	808.848	604.722
416.540	18.219	808.488	605.161
417.555	17.941	808.517	604.144
418.569	17.941	808.001	603.707
419.584	17.940	807.442	603.231
420.599	18.036	806.882	603.099
421.613	115.829	1300.589	1491.924
422.628	100.128	1372.490	1492.015
