DTS Sentinel unit serial number:	SN413079Multiplexer serial number:	ORYXHardware model number:	OX4-SRSoftware version number:	ORYX F/W v4.00 Oryx Data Collector v3.7.2.0data status	okinstallation	princeton_trtdifferential loss correction	single-endedforward channel	channel 3reverse channel	N/Adate	2019/09/19time	05:56:35forward acquisition time	60.00reverse acquisition time	0.00gamma	496.2192k internal	0.2348k external	0.2348temperature offset calibration	0.9990default loss term (dB/km)	0.3790temperature slope calibration	1.0000multiplexer offset coefficient	1.0000multiplexer slope coefficient	1.0000fibre end	0.00T internal ref (°C)	19.19T ext. ref 1 (°C)	0.58T ext. ref 2 (°C)	12.81length (m)	temperature (°C)	Stokes	anti-Stokes-747.200	-131.097	0.331	0.044
-746.185	-58.257	-0.306	0.133
-745.171	-83.261	0.122	0.039
-744.156	269.755	-0.072	0.126
-743.142	-9.238	0.151	0.101
-742.127	21.082	-0.178	0.145
-741.112	-9.819	0.134	0.089
-740.098	-200.000	0.047	0.431
-739.083	161.908	0.218	0.304
-738.069	-181.893	-0.152	-0.003
-737.054	19.900	0.345	0.277
-736.039	-21.843	-0.114	-0.069
-735.025	69.686	-0.117	0.121
-734.010	-200.000	-0.005	-0.089
-732.996	32.381	-0.047	0.041
-731.981	-76.524	-0.226	0.079
-730.966	-92.349	0.338	-0.095
-729.952	-48.370	0.363	0.175
-728.937	-200.000	-0.014	0.242
-727.923	-28.349	0.074	0.043
-726.908	-200.000	-0.048	-0.499
-725.894	81.974	-0.175	-0.189
-724.879	-45.257	-0.320	-0.158
-723.864	-114.265	0.057	-0.011
-722.850	43.582	0.123	-0.112
-721.835	800.000	0.123	-0.387
-720.821	354.933	-0.163	0.324
-719.806	-99.852	0.082	-0.021
-718.791	800.000	-0.087	-0.244
-717.777	-200.000	0.024	-0.226
-716.762	-26.859	0.271	-0.158
-715.748	-200.000	-0.027	-0.259
-714.733	800.000	0.121	-0.456
-713.718	15.376	-0.172	-0.135
-712.704	-31.335	-0.291	-0.163
-711.689	195.069	-0.126	-0.191
-710.675	45.707	-0.031	0.028
-709.660	-145.681	0.149	0.013
-708.645	-71.925	-0.079	-0.029
-707.631	52.762	-0.009	0.008
-706.616	-177.600	-0.203	-0.005
-705.602	-22.165	-0.068	0.041
-704.587	-67.138	0.189	-0.074
-703.572	-200.000	-0.019	0.176
-702.558	-40.449	0.269	0.139
-701.543	-166.433	-0.393	0.016
-700.529	346.780	0.080	-0.156
-699.514	773.741	-0.167	-0.455
-698.499	160.776	0.137	-0.191
-697.485	-200.000	0.054	0.274
-696.470	-200.000	0.058	0.449
-695.456	14.476	-0.306	-0.238
-694.441	43.038	-0.053	0.048
-693.426	86.319	-0.085	0.093
-692.412	-100.127	0.283	0.070
-691.397	-44.219	-0.318	0.159
-690.383	210.284	-0.055	0.086
-689.368	150.346	-0.143	0.193
-688.354	-66.174	0.239	-0.095
-687.339	572.135	0.049	0.120
-686.324	566.241	0.119	-0.288
-685.310	-200.000	-0.002	0.131
-684.295	118.026	-0.111	0.136
-683.281	26.068	-0.333	0.277
-682.266	6.053	0.344	-0.254
-681.251	-95.664	-0.305	-0.081
-680.237	800.000	-0.063	0.201
-679.222	3.634	-0.146	-0.106
-678.208	-200.000	-0.036	-0.295
-677.193	-48.295	0.489	-0.235
-676.178	800.000	-0.040	-0.163
-675.164	83.462	-0.212	0.230
-674.149	800.000	0.055	-0.194
-673.135	-90.142	-0.451	0.131
-672.120	227.968	-0.116	-0.188
-671.105	-51.600	-0.317	-0.147
-670.091	60.193	-0.175	-0.172
-669.076	284.155	-0.156	0.279
-668.062	242.517	0.177	0.295
-667.047	115.445	0.280	-0.341
-666.032	-37.996	-0.224	-0.119
-665.018	132.165	-0.132	0.170
-664.003	598.382	-0.047	0.117
-662.989	231.671	-0.135	-0.221
-661.974	-11.178	-0.127	0.083
-660.959	-25.015	-0.184	-0.109
-659.945	-200.000	-0.001	0.312
-658.930	99.783	-0.075	-0.086
-657.916	-77.738	0.106	0.036
-656.901	217.813	-0.108	-0.171
-655.886	655.560	-0.083	-0.212
-654.872	-5.256	0.115	-0.079
-653.857	676.167	-0.091	-0.234
-652.843	22.085	0.129	-0.105
-651.828	-112.070	-0.183	-0.037
-650.814	-18.915	0.353	0.219
-649.799	203.968	0.083	0.128
-648.784	80.145	0.077	-0.083
-647.770	-87.703	0.210	-0.063
-646.755	-200.000	0.009	-0.340
-645.741	-200.000	-0.017	-0.456
-644.726	800.000	0.042	-0.137
-643.711	76.261	-0.037	-0.039
-642.697	229.162	-0.066	-0.108
-641.682	111.521	-0.218	-0.261
-640.668	800.000	0.048	-0.131
-639.653	-24.719	0.235	-0.139
-638.638	55.938	-0.181	0.175
-637.624	-158.261	-0.534	0.031
-636.609	507.614	0.071	0.164
-635.595	66.274	0.082	0.083
-634.580	-200.000	-0.036	-0.348
-633.565	-200.000	0.032	0.233
-632.551	10.479	-0.242	-0.184
-631.536	242.699	0.080	-0.133
-630.522	-44.911	-0.055	-0.027
-629.507	63.336	0.103	-0.103
-628.492	-5.052	0.208	0.142
-627.478	-200.000	0.016	-0.099
-626.463	800.000	0.054	-0.175
-625.449	-200.000	0.003	-0.207
-624.434	208.445	-0.050	-0.078
-623.419	-2.581	0.153	0.107
-622.405	227.282	0.092	-0.149
-621.390	-143.555	0.265	-0.025
-620.376	-57.488	-0.435	0.190
-619.361	-124.903	-0.329	-0.050
-618.346	308.354	-0.270	0.501
-617.332	-69.131	-0.066	0.025
-616.317	99.037	-0.093	-0.107
-615.303	159.821	-0.181	-0.251
-614.288	-146.672	-0.139	0.012
-613.273	-100.248	-0.231	-0.057
-612.259	-144.038	-0.174	0.016
-611.244	270.880	0.025	0.043
-610.230	800.000	0.064	0.262
-609.215	-10.642	-0.148	-0.097
-608.201	800.000	0.030	-0.100
-607.186	-67.951	-0.072	0.028
-606.171	255.079	0.261	-0.444
-605.157	9.574	-0.086	-0.065
-604.142	800.000	-0.034	0.094
-603.128	-200.000	-0.002	0.321
-602.113	-36.632	0.103	-0.055
-601.098	478.571	0.059	0.133
-600.084	-73.442	-0.095	0.034
-599.069	-65.019	-0.244	0.098
-598.055	-200.000	-0.027	-0.229
-597.040	-139.894	-0.045	0.005
-596.025	-200.000	-0.015	0.183
-595.011	800.000	0.057	-0.186
-593.996	-200.000	-0.034	-0.343
-592.982	296.754	0.086	-0.156
-591.967	24.129	-0.128	-0.105
-590.952	58.085	0.141	-0.137
-589.938	59.148	-0.221	0.216
-588.923	122.323	0.245	0.304
-587.909	414.130	-0.092	-0.194
-586.894	-104.879	0.075	0.017
-585.879	-30.037	0.011	0.006
-584.865	-84.079	-0.116	-0.037
-583.850	-128.622	0.095	0.013
-582.836	503.762	-0.104	0.239
-581.821	-200.000	-0.014	-0.118
-580.806	800.000	0.058	-0.235
-579.792	800.000	0.015	-0.063
-578.777	127.391	-0.177	-0.223
-577.763	385.623	-0.100	0.205
-576.748	-26.686	0.090	0.052
-575.733	75.727	0.228	-0.239
-574.719	-200.000	-0.043	0.207
-573.704	-122.934	-0.156	0.025
-572.690	-200.000	0.013	0.087
-571.675	-40.446	-0.076	0.039
-570.661	188.434	-0.096	0.142
-569.646	-200.000	0.044	-0.272
-568.631	-200.000	0.026	-0.224
-567.617	-170.172	0.175	-0.006
-566.602	-17.034	-0.394	0.247
-565.588	-93.560	-0.011	0.003
-564.573	-70.164	-0.254	-0.096
-563.558	374.117	0.100	-0.203
-562.544	800.000	0.097	0.315
-561.529	22.664	-0.207	0.168
-560.515	-63.264	-0.271	0.111
-559.500	-200.000	-0.009	-0.210
-558.485	73.948	-0.059	0.061
-557.471	-91.187	0.133	-0.038
-556.456	-200.000	-0.098	0.446
-555.442	-12.792	-0.271	-0.175
-554.427	-151.174	-0.514	-0.038
-553.412	800.000	-0.018	0.055
-552.398	-200.000	0.006	-0.031
-551.383	-200.000	-0.016	-0.103
-550.369	201.005	-0.146	0.223
-549.354	-91.931	0.315	-0.089
-548.339	-24.291	-0.078	0.046
-547.325	115.632	-0.105	-0.127
-546.310	800.000	-0.062	0.209
-545.296	102.142	-0.037	0.043
-544.281	800.000	0.110	0.356
-543.266	63.892	-0.187	0.186
-542.252	82.157	0.233	-0.250
-541.237	-63.656	-0.257	0.105
-540.223	-200.000	0.036	0.236
-539.208	29.383	0.356	0.300
-538.193	-200.000	0.002	0.086
-537.179	464.815	-0.064	-0.143
-536.164	800.000	-0.026	-0.081
-535.150	-200.000	-0.052	0.324
-534.135	-122.901	0.139	-0.022
-533.121	16.006	-0.369	-0.288
-532.106	53.806	-0.235	-0.224
-531.091	-81.971	-0.352	0.114
-530.077	277.448	0.131	0.231
-529.062	800.000	0.062	0.222
-528.048	-81.248	0.316	-0.103
-527.033	-51.415	0.290	0.134
-526.018	-179.311	-0.231	-0.005
-525.004	6.238	-0.111	0.081
-523.989	-104.039	0.020	-0.005
-522.975	-200.000	-0.018	0.172
-521.960	173.867	-0.141	0.201
-520.945	28.452	-0.060	-0.050
-519.931	55.278	0.201	0.192
-518.916	-121.056	-0.114	-0.019
-517.902	-36.089	-0.280	0.150
-516.887	391.546	0.163	0.336
-515.872	800.000	-0.069	-0.262
-514.858	-200.000	-0.031	0.281
-513.843	146.361	0.047	-0.062
-512.829	-200.000	0.057	0.286
-511.814	100.947	-0.121	0.139
-510.799	-71.173	-0.037	0.014
-509.785	97.259	-0.196	-0.222
-508.770	800.000	0.048	-0.167
-507.756	-76.146	-0.292	0.102
-506.741	-74.012	0.296	0.106
-505.726	-35.057	0.059	-0.032
-504.712	800.000	-0.062	-0.182
-503.697	-131.402	0.309	-0.040
-502.683	-142.377	0.237	0.023
-501.668	109.384	-0.042	0.049
-500.653	-200.000	0.012	-0.224
-499.639	-200.000	-0.006	-0.068
-498.624	800.000	0.039	0.117
-497.610	-127.493	-0.123	0.018
-496.595	128.707	0.153	0.193
-495.581	-200.000	0.004	0.158
-494.566	800.000	0.058	-0.219
-493.551	800.000	-0.137	0.381
-492.537	-54.532	0.208	-0.093
-491.522	800.000	-0.073	-0.274
-490.508	-161.370	-0.170	0.009
-489.493	-200.000	-0.033	-0.183
-488.478	-5.985	0.123	0.083
-487.464	-68.816	-0.243	-0.093
-486.449	-30.393	0.334	0.188
-485.435	-76.783	-0.060	0.021
-484.420	96.030	0.188	0.213
-483.405	-45.207	0.191	0.094
-482.391	313.049	-0.170	-0.315
-481.376	-78.025	-0.215	-0.073
-480.362	7.757	0.177	-0.131
-479.347	279.780	-0.064	0.113
-478.332	-159.984	-0.166	0.009
-477.318	-18.362	0.242	0.149
-476.303	67.299	-0.039	-0.039
-475.289	221.592	0.115	0.183
-474.274	800.000	0.038	-0.110
-473.259	-12.481	-0.019	0.012
-472.245	-91.121	-0.161	-0.046
-471.230	440.351	-0.032	0.070
-470.216	-84.647	-0.239	-0.074
-469.201	-200.000	0.003	0.220
-468.186	-200.000	0.046	-0.306
-467.172	800.000	-0.055	-0.204
-466.157	800.000	0.029	-0.104
-465.143	800.000	0.149	0.408
-464.128	184.398	0.048	-0.070
-463.113	800.000	0.125	-0.362
-462.099	-24.475	0.036	-0.021
-461.084	28.385	0.183	0.153
-460.070	-11.861	-0.037	-0.024
-459.055	-72.741	0.114	-0.041
-458.040	-200.000	-0.045	0.302
-457.026	143.713	0.090	0.118
-456.011	800.000	-0.040	0.155
-454.997	341.150	0.085	0.164
-453.982	-28.614	0.148	0.084
-452.968	-35.570	0.234	-0.125
-451.953	65.055	0.146	0.145
-450.938	682.056	-0.078	0.200
-449.924	-65.521	-0.143	0.057
-448.909	174.514	0.052	-0.074
-447.895	682.775	0.142	0.364
-446.880	-161.065	0.238	0.012
-445.865	-150.925	-0.285	0.021
-444.851	-200.000	-0.062	-0.296
-443.836	595.154	-0.095	-0.233
-442.822	145.399	-0.138	-0.182
-441.807	800.000	-0.011	0.042
-440.792	316.029	-0.103	0.192
-439.778	800.000	-0.056	-0.211
-438.763	7.623	-0.167	-0.123
-437.749	-191.802	-0.175	-0.002
-436.734	-200.000	-0.027	0.297
-435.719	-115.950	-0.216	-0.040
-434.705	268.454	0.125	0.216
-433.690	247.887	0.053	0.088
-432.676	-32.220	0.111	0.061
-431.661	-200.000	0.019	-0.361
-430.646	157.836	0.205	-0.280
-429.632	281.099	-0.098	0.173
-428.617	-200.000	0.096	-0.446
-427.603	-109.407	0.169	0.035
-426.588	800.000	-0.020	0.075
-425.573	-200.000	0.009	0.197
-424.559	338.335	0.115	-0.221
-423.544	268.961	-0.005	0.009
-422.530	-200.000	0.022	0.329
-421.515	1.440	-0.413	0.293
-420.500	187.836	-0.045	-0.066
-419.486	800.000	0.092	0.343
-418.471	800.000	-0.073	-0.232
-417.457	-130.908	-0.040	0.005
-416.442	50.396	0.180	-0.167
-415.428	563.676	0.081	0.195
-414.413	-200.000	0.022	0.107
-413.398	-200.000	-0.001	0.229
-412.384	-86.791	0.120	-0.036
-411.369	-73.104	0.094	0.034
-410.355	800.000	-0.058	-0.216
-409.340	-200.000	0.023	0.265
-408.325	56.390	-0.134	-0.129
-407.311	-66.110	-0.209	-0.082
-406.296	-200.000	-0.004	-0.295
-405.282	-16.409	0.153	-0.096
-404.267	72.380	0.147	-0.151
-403.252	194.341	0.145	-0.217
-402.238	30.174	-0.080	0.068
-401.223	-60.740	-0.158	-0.066
-400.209	-200.000	-0.025	0.240
-399.194	682.783	0.096	0.247
-398.179	-200.000	0.056	0.289
-397.165	800.000	-0.115	0.397
-396.150	800.000	-0.022	0.070
-395.136	-200.000	-0.022	-0.381
-394.121	-57.175	0.265	-0.115
-393.106	-200.000	-0.015	-0.131
-392.092	45.986	-0.226	0.206
-391.077	206.733	-0.026	0.040
-390.063	-76.038	0.214	-0.075
-389.048	-200.000	0.018	-0.302
-388.033	800.000	0.053	0.222
-387.019	-200.000	-0.003	-0.106
-386.004	-27.731	-0.158	0.090
-384.990	-88.981	0.334	0.097
-383.975	-46.111	0.232	0.113
-382.960	168.805	-0.127	0.178
-381.946	416.567	0.163	-0.343
-380.931	800.000	0.066	-0.238
-379.917	-3.876	0.119	-0.081
-378.902	115.086	-0.139	0.167
-377.888	-200.000	0.018	-0.217
-376.873	-194.363	0.214	-0.002
-375.858	6.005	-0.247	0.180
-374.844	-69.378	0.152	-0.057
-373.829	-83.195	-0.004	0.001
-372.815	-200.000	-0.071	0.372
-371.800	302.034	0.032	0.058
-370.785	-12.067	-0.117	0.076
-369.771	-79.171	-0.044	-0.015
-368.756	-128.216	-0.408	-0.057
-367.742	127.299	-0.122	-0.153
-366.727	-200.000	-0.029	0.160
-365.712	-200.000	-0.043	-0.345
-364.698	-82.043	0.421	-0.135
-363.683	357.580	0.112	0.220
-362.669	-91.941	-0.243	-0.068
-361.654	-200.000	-0.001	-0.245
-360.639	-200.000	-0.024	-0.165
-359.625	800.000	-0.058	-0.214
-358.610	428.846	-0.164	-0.349
-357.596	-200.000	-0.012	0.090
-356.581	-91.217	0.458	0.129
-355.566	6.355	-0.212	-0.155
-354.552	441.887	0.065	-0.139
-353.537	73.773	-0.176	0.181
-352.523	-103.112	0.279	-0.065
-351.508	51.127	-0.240	0.224
-350.493	-200.000	-0.083	0.517
-349.479	46.092	-0.073	0.067
-348.464	-154.002	0.363	0.024
-347.450	-41.969	-0.225	-0.113
-346.435	632.553	-0.056	-0.140
-345.420	-88.583	-0.293	0.086
-344.406	-61.789	0.104	-0.043
-343.391	315.918	-0.073	0.135
-342.377	39.544	-0.200	-0.176
-341.362	-141.071	0.335	0.034
-340.348	655.528	-0.133	0.336
-339.333	156.314	-0.030	0.040
-338.318	220.872	0.144	0.227
-337.304	44.270	0.108	-0.097
-336.289	452.486	0.042	0.091
-335.275	-83.776	-0.161	-0.050
-334.260	-86.827	0.323	0.097
-333.245	121.703	0.204	-0.250
-332.231	624.519	0.081	-0.200
-331.216	32.638	-0.249	-0.212
-330.202	441.245	-0.146	0.314
-329.187	59.823	0.327	0.317
-328.172	-1.092	0.086	0.060
-327.158	-52.459	0.176	-0.080
-326.143	371.509	-0.077	0.153
-325.129	55.313	0.129	-0.122
-324.114	-80.820	-0.048	-0.016
-323.099	-191.662	-0.423	0.004
-322.085	62.366	0.096	-0.095
-321.070	91.926	0.172	0.190
-320.056	150.479	-0.215	-0.287
-319.041	-47.791	0.244	-0.116
-318.026	120.847	0.047	0.057
-317.012	91.296	-0.124	0.137
-315.997	800.000	0.053	-0.174
-314.983	-200.000	-0.175	-0.001
-313.968	-122.687	0.189	-0.030
-312.953	-87.612	-0.090	-0.027
-311.939	-105.608	-0.180	0.040
-310.924	-29.322	0.155	0.087
-309.910	-137.789	-0.231	0.025
-308.895	7.080	-0.089	0.065
-307.880	36.424	0.090	-0.078
-306.866	-4.478	0.253	-0.172
-305.851	-159.659	0.245	0.013
-304.837	-32.950	-0.243	0.132
-303.822	-200.000	0.017	0.408
-302.807	-200.000	0.057	0.252
-301.793	-200.000	-0.025	-0.474
-300.778	800.000	0.055	-0.209
-299.764	-200.000	0.003	-0.189
-298.749	-60.076	0.454	-0.190
-297.735	458.715	-0.051	-0.111
-296.720	-92.141	-0.525	-0.146
-295.705	800.000	0.080	0.328
-294.691	77.417	0.257	0.268
-293.676	-200.000	-0.049	0.245
-292.662	39.985	0.160	-0.141
-291.647	278.924	-0.127	0.223
-290.632	0.318	0.338	0.237
-289.618	-137.816	-0.337	0.037
-288.603	290.336	-0.118	-0.210
-287.589	-200.000	0.279	0.001
-286.574	-183.426	0.254	-0.004
-285.559	345.106	0.110	-0.211
-284.545	-68.281	0.236	0.090
-283.530	-200.000	-0.013	0.067
-282.516	186.078	-0.304	0.444
-281.501	800.000	-0.028	0.100
-280.486	103.582	0.130	-0.150
-279.472	-200.000	-0.061	-0.332
-278.457	-200.000	-0.009	-0.103
-277.443	-16.182	-0.300	-0.187
-276.428	800.000	-0.082	-0.240
-275.413	-200.000	-0.049	-0.366
-274.399	-157.519	0.071	-0.004
-273.384	345.618	0.208	0.400
-272.370	-137.842	-0.092	0.010
-271.355	18.636	0.409	-0.321
-270.340	-23.952	-0.228	-0.133
-269.326	-95.537	0.102	0.027
-268.311	-72.820	0.256	0.092
-267.297	737.812	0.136	-0.358
-266.282	-24.628	-0.252	-0.147
-265.267	-200.000	-0.009	0.430
-264.253	-200.000	-0.013	0.163
-263.238	-21.972	0.228	-0.136
-262.224	-200.000	0.072	-0.451
-261.209	188.088	-0.138	-0.203
-260.195	800.000	-0.045	-0.162
-259.180	-200.000	-0.020	0.401
-258.165	-200.000	-0.006	-0.343
-257.151	-60.061	-0.319	-0.134
-256.136	-44.416	-0.325	0.160
-255.122	-41.009	-0.146	-0.074
-254.107	55.140	0.189	0.179
-253.092	-145.375	0.327	0.029
-252.078	-200.000	0.006	-0.164
-251.063	-106.442	-0.221	0.048
-250.049	-82.585	0.254	-0.081
-249.034	-10.610	0.289	-0.188
-248.019	-61.697	-0.105	-0.043
-247.005	-200.000	-0.005	0.179
-245.990	-200.000	0.004	0.137
-244.976	39.386	0.154	-0.135
-243.961	-170.231	0.038	0.001
-242.946	-31.303	0.052	-0.029
-241.932	-200.000	-0.075	-0.444
-240.917	0.080	-0.217	-0.152
-239.903	-41.609	-0.305	0.153
-238.888	-142.385	-0.144	0.014
-237.873	120.531	0.228	-0.278
-236.859	-200.000	0.034	-0.223
-235.844	-200.000	-0.026	-0.256
-234.830	-164.836	0.289	-0.013
-233.815	-200.000	-0.003	-0.284
-232.800	333.269	0.229	-0.433
-231.786	-122.042	0.301	0.048
-230.771	-31.642	0.354	-0.195
-229.757	95.099	0.232	0.259
-228.742	-5.599	0.223	0.150
-227.727	-141.749	-0.116	0.011
-226.713	91.077	0.135	-0.149
-225.698	42.194	-0.163	-0.145
-224.684	800.000	-0.122	-0.354
-223.669	203.309	-0.302	-0.458
-222.655	352.203	-0.022	0.043
-221.640	-200.000	0.013	-0.129
-220.625	-101.812	0.112	0.027
-219.611	477.741	-0.187	-0.414
-218.596	137.146	-0.086	0.110
-217.582	-51.448	0.095	-0.044
-216.567	26.070	0.234	0.191
-215.552	61.916	-0.185	0.180
-214.538	-131.329	-0.352	-0.046
-213.523	-200.000	0.084	-0.376
-212.509	201.132	0.215	0.324
-211.494	194.907	0.181	0.269
-210.479	-131.076	0.136	0.018
-209.465	109.058	-0.041	0.048
-208.450	800.000	0.042	0.143
-207.436	800.000	0.040	-0.131
-206.421	-141.461	-0.173	0.017
-205.406	334.759	-0.062	0.117
-204.392	-200.000	-0.018	0.129
-203.377	800.000	-0.052	-0.147
-202.363	-26.701	-0.218	0.125
-201.348	800.000	-0.039	-0.114
-200.333	204.765	0.259	-0.393
-199.319	-100.800	0.370	-0.089
-198.304	-110.779	-0.230	-0.046
-197.290	47.637	0.189	-0.173
-196.275	-108.372	-0.231	0.049
-195.260	-200.000	-0.009	-0.192
-194.246	-200.000	-0.000	0.291
-193.231	-22.776	0.191	0.113
-192.217	208.993	-0.268	-0.410
-191.202	275.366	0.118	0.204
-190.187	604.231	0.095	0.231
-189.173	-14.260	0.364	0.229
-188.158	-33.123	0.123	0.067
-187.144	-200.000	-0.008	0.268
-186.129	-30.756	-0.113	0.063
-185.114	-200.000	0.035	0.349
-184.100	216.835	0.297	-0.462
-183.085	186.326	-0.238	0.346
-182.071	-200.000	0.061	0.304
-181.056	145.968	-0.184	0.241
-180.042	-134.063	0.080	-0.010
-179.027	-85.117	0.244	0.075
-178.012	-200.000	0.027	-0.241
-176.998	446.478	0.043	0.092
-175.983	294.658	-0.321	0.574
-174.969	-136.951	0.282	0.032
-173.954	-77.093	-0.475	-0.162
-172.939	-54.594	0.327	0.145
-171.925	-28.787	0.232	-0.130
-170.910	-150.162	0.194	0.015
-169.896	-19.916	-0.274	0.165
-168.881	194.780	-0.030	-0.044
-167.866	84.793	-0.124	-0.132
-166.852	-200.000	-0.019	-0.141
-165.837	-200.000	0.026	0.338
-164.823	-119.412	-0.133	0.023
-163.808	208.207	-0.133	-0.204
-162.793	226.265	-0.067	0.106
-161.779	216.049	0.125	-0.194
-160.764	-133.652	0.283	0.035
-159.750	-200.000	0.013	0.133
-158.735	-127.806	-0.123	0.017
-157.720	97.145	-0.175	-0.196
-156.706	800.000	-0.033	0.094
-155.691	-200.000	0.074	0.363
-154.677	-56.249	-0.230	0.100
-153.662	-87.927	0.218	0.064
-152.647	-200.000	0.053	0.455
-151.633	192.290	0.128	0.189
-150.618	-200.000	0.046	0.196
-149.604	85.268	-0.153	-0.164
-148.589	-106.800	0.159	-0.034
-147.574	-93.521	-0.101	-0.027
-146.560	-83.438	0.318	0.099
-145.545	-61.712	-0.220	0.090
-144.531	58.249	0.058	-0.055
-143.516	-1.371	0.332	0.229
-142.502	800.000	0.045	-0.126
-141.487	-200.000	-0.001	-0.180
-140.472	230.613	-0.115	-0.184
-139.458	-101.867	-0.243	-0.057
-138.443	-63.028	0.368	0.148
-137.429	21.214	-0.406	0.322
-136.414	44.445	-0.410	0.367
-135.399	800.000	0.012	0.037
-134.385	64.966	0.350	0.345
-133.370	-110.760	0.061	-0.012
-132.356	800.000	0.092	-0.376
-131.341	800.000	0.058	-0.170
-130.326	-200.000	0.028	-0.196
-129.312	71.988	0.098	-0.100
-128.297	-200.000	-0.017	0.294
-127.283	-87.017	0.351	-0.104
-126.268	-200.000	0.010	0.130
-125.253	-200.000	0.003	-0.023
-124.239	3.963	-0.238	0.169
-123.224	0.572	0.211	-0.147
-122.210	-7.454	0.182	-0.120
-121.195	-200.000	0.044	0.274
-120.180	-200.000	0.041	-0.376
-119.166	502.865	0.064	-0.145
-118.151	-179.641	0.120	-0.003
-117.137	145.130	-0.160	0.208
-116.122	-11.863	-0.317	-0.203
-115.107	69.494	0.154	-0.155
-114.093	-135.119	-0.203	-0.024
-113.078	-150.967	-0.096	0.007
-112.064	-54.938	-0.020	0.009
-111.049	-73.639	-0.064	-0.023
-110.034	95.111	-0.216	0.240
-109.020	406.836	-0.059	-0.121
-108.005	68.150	0.059	-0.058
-106.991	-16.288	-0.272	-0.168
-105.976	243.205	0.085	-0.139
-104.962	28.978	0.091	0.075
-103.947	800.000	-0.116	0.312
-102.932	-47.745	-0.201	0.095
-101.918	682.778	-0.075	0.190
-100.903	-200.000	0.055	-0.265
-99.889	-177.422	0.210	0.005
-98.874	-35.967	-0.379	0.200
-97.859	-115.895	0.156	-0.028
-96.845	-200.000	-0.007	-0.298
-95.830	-99.908	0.300	0.073
-94.816	-153.451	0.122	-0.008
-93.801	-101.977	0.259	-0.061
-92.786	-8.841	0.164	-0.107
-91.772	-69.258	0.068	0.026
-90.757	-14.002	-0.138	0.087
-89.743	-200.000	-0.026	0.157
-88.728	-200.000	-0.057	-0.267
-87.713	-61.736	0.202	-0.083
-86.699	342.688	-0.095	-0.180
-85.684	39.147	-0.100	0.087
-84.670	11.553	-0.041	-0.031
-83.655	9.320	0.284	0.209
-82.640	-200.000	0.009	-0.123
-81.626	493.363	-0.031	0.069
-80.611	800.000	0.036	-0.138
-79.597	800.000	0.043	-0.134
-78.582	152.017	0.078	0.104
-77.567	226.859	-0.125	-0.197
-76.553	28.570	-0.159	0.131
-75.538	149.946	0.091	-0.120
-74.524	147.971	-0.048	0.063
-73.509	800.000	0.091	0.316
-72.494	-200.000	-0.027	0.370
-71.480	-200.000	0.010	0.137
-70.465	-178.842	-0.057	0.001
-69.451	31.184	0.153	0.128
-68.436	-200.000	0.008	0.207
-67.422	-200.000	0.003	-0.160
-66.407	-160.390	0.024	-0.001
-65.392	-72.257	-0.218	-0.079
-64.378	800.000	0.053	-0.152
-63.363	266.384	0.093	-0.158
-62.349	-35.248	0.218	0.116
-61.334	55.003	-1.332	-1.251
-60.319	71.276	0.809	0.816
-59.305	242.840	-0.648	-1.056
-58.290	605.105	0.551	1.334
-57.276	425.224	0.691	1.447
-56.261	-200.000	135.830	628.278
-55.246	347.548	1633.890	3129.702
-54.232	138.743	2767.477	3534.587
-53.217	81.622	2175.109	2288.114
-52.203	28.839	1696.571	1397.589
-51.188	22.075	1522.474	1207.788
-50.173	20.594	1502.034	1181.468
-49.159	43.786	1578.020	1404.505
-48.144	39.650	1588.087	1384.448
-47.130	22.033	1537.774	1219.438
-46.115	19.441	1522.152	1189.159
-45.100	19.214	1518.879	1184.991
-44.086	19.263	1516.598	1183.504
-43.071	19.063	1515.231	1181.019
-42.057	19.103	1513.882	1180.194
-41.042	19.242	1511.636	1179.345
-40.027	19.242	1510.321	1178.276
-39.013	19.208	1508.581	1176.639
-37.998	19.099	1507.889	1175.310
-36.984	19.050	1507.417	1174.560
-35.969	19.170	1505.016	1173.458
-34.954	19.177	1503.498	1172.277
-33.940	19.143	1502.879	1171.513
-32.925	19.164	1501.446	1170.494
-31.911	19.106	1500.240	1169.117
-30.896	19.278	1498.174	1168.623
-29.881	19.166	1497.502	1167.296
-28.867	19.191	1495.844	1166.122
-27.852	19.311	1494.529	1165.865
-26.838	19.295	1493.624	1165.005
-25.823	19.264	1491.785	1163.317
-24.809	19.337	1490.163	1162.498
-23.794	19.207	1489.088	1160.737
-22.779	19.156	1488.294	1159.727
-21.765	19.280	1486.936	1159.456
-20.750	19.282	1485.124	1158.014
-19.736	19.265	1484.470	1157.342
-18.721	19.234	1483.459	1156.303
-17.706	19.173	1482.757	1155.296
-16.692	19.235	1481.012	1154.305
-15.677	19.109	1480.180	1152.766
-14.663	19.078	1479.269	1151.807
-13.648	19.120	1478.599	1151.521
-12.633	19.205	1477.243	1150.985
-11.619	19.104	1476.653	1149.803
-10.604	19.235	1475.411	1149.669
-9.590	19.213	1474.907	1149.080
-8.575	19.191	1473.978	1148.168
-7.560	19.232	1473.306	1147.872
-6.546	19.173	1472.435	1146.754
-5.531	19.134	1471.593	1145.796
-4.517	19.085	1470.578	1144.630
-3.502	19.120	1469.117	1143.681
-2.487	19.108	1468.281	1142.908
-1.473	19.191	1467.136	1142.519
-0.458	19.338	1465.957	1142.529
0.556	18.207	1455.919	1130.028
1.571	14.914	1431.826	1089.804
2.586	11.513	1370.740	1021.965
3.600	9.995	1287.137	950.625
4.615	9.252	1243.580	914.146
5.629	8.057	1187.787	866.562
6.644	4.247	1108.670	789.405
7.659	1.102	1075.597	750.237
8.673	0.731	1070.314	744.661
9.688	0.529	1067.094	741.359
10.702	0.485	1066.193	740.456
11.717	0.595	1063.323	738.933
12.731	1.910	1063.082	745.130
13.746	6.760	1069.544	773.393
14.761	13.135	1078.307	811.057
15.775	16.685	1082.901	831.912
16.790	16.829	1081.921	831.794
17.804	15.943	1079.312	825.375
18.819	15.018	1077.702	819.545
19.834	14.640	1076.321	816.570
20.848	14.462	1075.201	814.782
21.863	14.254	1074.690	813.304
22.877	13.896	1074.027	810.982
23.892	13.727	1072.760	809.130
24.907	13.711	1071.914	808.343
25.921	13.648	1071.106	807.354
26.936	13.690	1070.647	807.141
27.950	13.683	1070.328	806.794
28.965	13.866	1068.949	806.574
29.980	13.736	1068.880	805.818
30.994	13.764	1067.396	804.764
32.009	13.845	1066.687	804.551
33.023	13.965	1065.890	804.459
34.038	13.817	1064.847	802.885
35.053	13.799	1064.178	802.223
36.067	13.911	1062.808	801.662
37.082	13.742	1062.852	800.809
38.096	13.798	1061.420	799.926
39.111	13.753	1061.119	799.414
40.126	13.822	1059.976	798.812
41.140	13.886	1058.787	798.153
42.155	13.736	1057.900	796.692
43.169	13.771	1057.082	796.177
44.184	13.786	1055.566	795.035
45.199	13.642	1054.915	793.784
46.213	13.632	1054.067	793.030
47.228	13.634	1053.046	792.202
48.242	13.733	1052.135	791.917
49.257	13.845	1051.242	791.710
50.271	13.739	1050.396	790.499
51.286	13.849	1049.061	789.946
52.301	13.804	1048.049	788.899
53.315	13.798	1047.304	788.241
54.330	13.735	1047.100	787.718
55.344	13.691	1046.087	786.678
56.359	13.722	1044.730	785.735
57.374	13.806	1044.009	785.521
58.388	13.749	1042.614	784.133
59.403	13.597	1042.422	783.202
60.417	13.612	1041.978	782.866
61.432	13.752	1040.655	782.468
62.447	13.679	1039.688	781.325
63.461	13.647	1039.119	780.678
64.476	13.628	1038.130	779.778
65.490	13.601	1037.394	779.026
66.505	13.719	1036.272	778.670
67.520	13.713	1035.579	778.052
68.534	13.635	1035.194	777.331
69.549	13.649	1034.177	776.562
70.563	13.626	1033.453	775.840
71.578	13.655	1032.630	775.291
72.593	13.717	1031.702	774.813
73.607	13.590	1030.715	773.412
74.622	13.520	1029.913	772.413
75.636	13.536	1028.973	771.715
76.651	13.634	1027.932	771.325
77.666	13.618	1026.960	770.451
78.680	13.582	1026.807	770.102
79.695	13.701	1025.970	769.958
80.709	13.463	1025.864	768.705
81.724	13.697	1024.653	768.815
82.739	13.599	1023.871	767.708
83.753	13.645	1023.117	767.285
84.768	13.665	1022.102	766.548
85.782	13.878	1021.130	766.736
86.797	13.929	1020.003	766.058
87.812	13.890	1019.136	765.157
88.826	13.619	1018.693	763.510
89.841	13.856	1017.404	763.569
90.855	13.701	1017.122	762.573
91.870	13.864	1016.251	762.606
92.884	13.909	1015.397	762.103
93.899	13.766	1014.913	761.016
94.914	13.755	1014.127	760.309
95.928	13.995	1013.382	760.784
96.943	13.877	1012.495	759.506
97.957	13.861	1011.800	758.844
98.972	13.761	1011.471	758.075
99.987	13.815	1010.199	757.303
101.001	13.821	1009.603	756.815
102.016	13.857	1008.428	756.031
103.030	13.906	1007.720	755.656
104.045	13.887	1006.823	754.833
105.060	13.893	1005.574	753.856
106.074	13.857	1005.056	753.236
107.089	13.875	1003.750	752.271
108.103	13.685	1003.138	750.887
109.118	13.753	1001.995	750.272
110.133	13.933	1001.164	750.396
111.147	13.822	1000.340	749.213
112.162	13.734	999.852	748.382
113.176	13.739	998.904	747.631
114.191	13.784	997.587	746.781
115.206	13.787	997.130	746.386
116.220	13.711	996.376	745.413
117.235	13.918	995.463	745.595
118.249	13.711	994.792	744.097
119.264	13.733	993.726	743.334
120.279	13.711	992.892	742.543
121.293	13.769	991.891	741.990
122.308	13.673	991.264	741.029
123.322	13.668	990.435	740.319
124.337	13.638	989.335	739.299
125.352	13.749	988.070	738.779
126.366	13.751	986.473	737.528
127.381	13.710	985.747	736.740
128.395	13.612	985.099	735.757
129.410	13.748	983.958	735.444
130.424	13.630	983.117	734.225
131.439	13.624	982.124	733.394
132.454	13.717	981.138	733.000
133.468	13.816	980.298	732.748
134.483	13.882	979.918	732.691
135.497	13.810	979.435	731.943
136.512	13.838	978.117	731.020
137.527	13.770	977.599	730.266
138.541	13.791	976.393	729.394
139.556	13.892	976.110	729.561
140.570	13.820	975.543	728.756
141.585	13.861	974.860	728.365
142.600	13.967	973.952	728.087
143.614	13.909	973.240	727.233
144.629	13.977	972.660	727.033
145.643	14.073	971.490	726.515
146.658	13.942	971.148	725.621
147.673	14.015	969.714	724.805
148.687	14.018	968.663	723.967
149.702	13.948	967.918	723.042
150.716	13.852	967.363	722.147
151.731	13.877	966.421	721.488
152.746	13.888	965.817	721.021
153.760	14.029	964.708	720.743
154.775	14.051	964.279	720.453
155.789	14.029	963.187	719.479
156.804	14.109	962.467	719.221
157.819	14.017	962.237	718.588
158.833	14.111	961.384	718.293
159.848	14.027	960.362	717.104
160.862	14.147	959.740	717.095
161.877	14.119	959.231	716.532
162.892	14.113	958.144	715.628
163.906	14.031	957.314	714.595
164.921	14.048	956.846	714.252
165.935	14.177	955.383	713.650
166.950	14.114	954.192	712.427
167.964	14.084	953.491	711.715
168.979	14.242	952.466	711.560
169.994	14.139	951.480	710.321
171.008	14.202	950.586	709.859
172.023	14.150	950.143	709.245
173.037	14.207	949.433	708.894
174.052	14.217	948.403	708.107
175.067	14.151	948.059	707.504
176.081	14.181	946.910	706.714
177.096	14.180	946.199	706.116
178.110	14.162	945.774	705.662
179.125	14.106	944.774	704.615
180.140	14.087	943.807	703.748
181.154	14.233	943.147	703.811
182.169	14.156	943.152	703.430
183.183	14.251	942.096	702.979
184.198	14.337	941.018	702.477
185.213	14.292	940.508	701.845
186.227	14.352	939.822	701.523
187.242	14.425	939.313	701.390
188.256	14.316	938.906	700.566
189.271	14.379	938.072	700.144
190.286	14.392	937.279	699.544
191.300	14.239	936.426	698.202
192.315	14.344	935.432	697.843
193.329	14.305	935.115	697.379
194.344	14.281	934.593	696.829
195.359	14.409	933.656	696.605
196.373	14.427	933.078	696.186
197.388	14.408	932.592	695.681
198.402	14.495	932.053	695.584
199.417	14.518	931.371	695.108
200.432	14.514	931.222	694.919
201.446	14.646	930.489	694.859
202.461	14.652	929.958	694.426
203.475	14.697	929.870	694.487
204.490	14.738	928.883	693.859
205.504	14.603	928.108	692.656
206.519	14.613	927.564	692.231
207.534	14.600	926.757	691.515
208.548	14.701	925.435	690.882
209.563	14.629	925.212	690.360
210.577	14.621	924.588	689.798
211.592	14.628	923.698	689.104
212.607	14.657	923.415	688.948
213.621	14.715	922.862	688.718
214.636	14.755	922.175	688.309
215.650	14.724	921.471	687.594
216.665	14.868	920.391	687.319
217.680	14.919	920.183	687.312
218.694	14.849	919.894	686.748
219.709	15.019	919.070	686.768
220.723	14.839	918.234	685.346
221.738	14.823	917.592	684.742
222.753	14.885	916.935	684.444
223.767	14.857	916.148	683.682
224.782	14.867	915.596	683.250
225.796	14.917	915.090	683.015
226.811	15.068	913.649	682.496
227.826	15.034	913.016	681.825
228.840	14.942	912.712	681.162
229.855	14.949	911.943	680.554
230.869	14.907	911.416	679.930
231.884	14.925	910.553	679.300
232.899	14.857	909.488	678.169
233.913	15.016	908.943	678.348
234.928	15.017	908.621	678.051
235.942	14.897	908.137	677.143
236.957	15.006	906.954	676.645
237.972	15.035	906.135	676.088
238.986	14.938	905.626	675.261
240.001	14.915	905.359	674.906
241.015	14.991	904.375	674.420
242.030	15.053	903.796	674.178
243.045	15.097	903.303	673.929
244.059	15.025	902.832	673.229
245.074	15.044	902.044	672.655
246.088	15.076	901.418	672.258
247.103	15.135	900.623	671.842
248.117	15.236	899.709	671.508
249.132	15.314	899.259	671.424
250.147	15.326	898.862	671.116
251.161	15.277	898.132	670.317
252.176	15.180	897.350	669.284
253.190	15.293	896.707	669.197
254.205	15.391	896.286	669.214
255.220	15.340	895.620	668.456
256.234	15.514	894.310	668.111
257.249	15.408	894.096	667.472
258.263	15.459	893.738	667.348
259.278	15.599	892.864	667.190
260.293	15.520	892.257	666.364
261.307	15.607	891.818	666.322
262.322	15.591	891.023	665.607
263.336	15.552	890.657	665.119
264.351	15.622	890.177	664.979
265.366	15.696	889.366	664.609
266.380	15.776	888.712	664.374
267.395	15.622	888.356	663.444
268.409	15.666	887.588	662.983
269.424	15.661	886.678	662.227
270.439	15.683	885.859	661.643
271.453	15.702	885.000	661.017
272.468	15.672	884.616	660.554
273.482	15.783	883.581	660.158
274.497	15.652	883.236	659.327
275.512	15.777	882.447	659.172
276.526	15.572	882.504	658.351
277.541	15.732	881.157	657.916
278.555	15.966	880.377	658.187
279.570	15.807	880.334	657.476
280.585	15.848	879.476	656.937
281.599	15.959	878.880	656.866
282.614	15.987	878.387	656.552
283.628	15.977	877.424	655.732
284.643	15.817	877.296	654.957
285.657	15.811	876.906	654.585
286.672	15.843	876.283	654.187
287.687	15.946	875.427	653.889
288.701	16.103	874.583	653.808
289.716	15.926	874.391	652.922
290.730	15.971	873.568	652.423
291.745	16.126	872.935	652.493
292.760	15.861	872.506	651.090
293.774	16.029	871.774	651.135
294.789	16.067	870.889	650.562
295.803	16.064	870.481	650.188
296.818	15.988	869.980	649.465
297.833	16.000	869.582	649.158
298.847	16.099	868.775	648.876
299.862	16.163	867.417	648.051
300.876	16.050	866.894	647.171
301.891	16.200	866.264	647.216
302.906	16.186	866.082	646.969
303.920	16.187	865.039	646.138
304.935	16.205	864.674	645.877
305.949	16.346	863.607	645.561
306.964	16.326	863.036	645.003
307.979	16.225	862.589	644.224
308.993	16.212	862.434	644.001
310.008	16.305	861.796	643.823
311.022	16.396	861.165	643.641
312.037	16.309	860.607	642.835
313.052	16.427	859.651	642.512
314.066	16.308	859.278	641.725
315.081	16.473	858.212	641.500
316.095	16.406	858.241	641.212
317.110	16.369	857.615	640.547
318.125	16.363	857.067	640.056
319.139	16.253	856.746	639.344
320.154	16.379	856.255	639.399
321.168	16.356	855.824	638.933
322.183	16.412	855.023	638.490
323.197	16.390	854.754	638.150
324.212	16.379	853.972	637.468
325.227	16.441	853.541	637.322
326.241	16.431	853.123	636.917
327.256	16.498	852.188	636.416
328.270	16.282	852.120	635.494
329.285	16.545	851.227	635.763
330.300	16.495	850.506	634.980
331.314	16.473	850.182	634.597
332.329	16.484	849.433	634.024
333.343	16.477	848.757	633.438
334.358	16.637	848.166	633.538
335.373	16.521	848.005	632.928
336.387	16.639	847.083	632.624
337.402	16.710	846.336	632.278
338.416	16.667	846.261	632.004
339.431	16.711	845.596	631.615
340.446	16.814	844.661	631.245
341.460	16.836	844.074	630.833
342.475	16.704	843.870	630.132
343.489	16.832	843.526	630.297
344.504	16.832	842.813	629.709
345.519	16.814	842.331	629.225
346.533	16.986	841.794	629.407
347.548	16.898	841.132	628.531
348.562	16.911	840.887	628.339
349.577	16.882	840.204	627.665
350.592	17.032	839.558	627.682
351.606	16.778	839.480	626.630
352.621	16.988	838.764	626.816
353.635	16.957	838.259	626.267
354.650	16.768	837.804	625.175
355.665	16.979	837.452	625.636
356.679	17.073	837.014	625.599
357.694	17.012	836.277	624.768
358.708	17.164	835.555	624.733
359.723	16.992	835.310	623.865
360.738	17.006	834.484	623.243
361.752	16.968	834.280	622.895
362.767	17.024	833.809	622.695
363.781	16.960	833.661	622.293
364.796	17.003	833.042	621.934
365.810	17.181	832.612	622.210
366.825	17.296	831.701	621.893
367.840	17.161	831.827	621.438
368.854	17.267	831.305	621.381
369.869	17.134	830.914	620.549
370.883	17.110	830.372	620.000
371.898	17.260	829.400	619.768
372.913	17.202	829.041	619.235
373.927	17.248	828.504	618.945
374.942	17.401	827.539	618.727
375.956	17.350	827.003	618.084
376.971	17.356	826.368	617.577
377.986	17.385	826.014	617.362
379.000	17.518	825.503	617.408
380.015	17.552	825.065	617.151
381.029	17.557	824.268	616.518
382.044	17.443	824.096	615.922
383.059	17.782	822.926	616.217
384.073	17.534	822.536	614.976
385.088	17.469	822.087	614.351
386.102	17.617	821.524	614.409
387.117	17.529	820.930	613.592
388.132	17.429	820.669	612.986
389.146	17.555	820.194	613.031
390.161	17.621	819.900	612.991
391.175	17.479	819.748	612.315
392.190	17.715	819.161	612.671
393.205	17.623	818.482	611.776
394.219	17.443	818.266	610.914
395.234	17.586	817.539	610.831
396.248	17.600	817.061	610.471
397.263	17.596	816.685	610.122
398.278	17.608	815.839	609.479
399.292	17.621	815.723	609.384
400.307	17.539	815.409	608.802
401.321	17.546	815.166	608.593
402.336	17.647	814.512	608.409
403.350	17.574	814.327	607.958
404.365	17.578	813.909	607.605
405.380	17.667	813.141	607.294
406.394	17.830	812.615	607.432
407.409	17.848	812.158	607.099
408.423	17.897	811.977	607.083
409.438	17.861	811.098	606.246
410.453	17.944	811.037	606.441
411.467	18.002	810.237	605.994
412.482	17.840	810.114	605.276
413.496	17.925	809.363	604.963
414.511	17.957	809.366	605.023
415.526	17.854	809.104	604.408
416.540	17.865	808.958	604.285
417.555	18.038	807.961	604.097
418.569	17.924	807.791	603.516
419.584	18.048	807.043	603.340
420.599	18.100	806.267	602.892
421.613	115.876	1300.044	1491.596
422.628	100.158	1371.956	1491.659
