DTS Sentinel unit serial number:	SN413079Multiplexer serial number:	ORYXHardware model number:	OX4-SRSoftware version number:	ORYX F/W v4.00 Oryx Data Collector v3.7.2.0data status	okinstallation	princeton_trtdifferential loss correction	single-endedforward channel	channel 3reverse channel	N/Adate	2019/09/19time	15:28:34forward acquisition time	60.00reverse acquisition time	0.00gamma	496.2192k internal	0.2311k external	0.2311temperature offset calibration	1.0007default loss term (dB/km)	0.3790temperature slope calibration	1.0000multiplexer offset coefficient	1.0000multiplexer slope coefficient	1.0000fibre end	0.00T internal ref (°C)	34.00T ext. ref 1 (°C)	1.17T ext. ref 2 (°C)	31.19length (m)	temperature (°C)	Stokes	anti-Stokes-747.200	-200.000	-0.005	0.190
-746.185	444.886	0.129	-0.288
-745.171	-200.000	0.017	-0.266
-744.156	-40.253	-0.424	0.224
-743.142	515.908	-0.028	-0.066
-742.127	-200.000	-0.039	0.412
-741.112	-82.998	0.127	-0.042
-740.098	-5.755	-0.113	-0.079
-739.083	800.000	0.028	-0.113
-738.069	162.574	-0.074	0.105
-737.054	97.870	-0.099	0.115
-736.039	800.000	0.043	0.140
-735.025	-58.313	-0.242	0.107
-734.010	32.980	0.088	-0.078
-732.996	614.944	-0.067	-0.170
-731.981	389.944	0.073	-0.154
-730.966	163.329	0.080	-0.114
-729.952	201.192	-0.033	0.051
-728.937	370.894	-0.141	-0.290
-727.923	-81.323	-0.384	-0.129
-726.908	306.181	-0.120	0.227
-725.894	-169.972	-0.111	0.004
-724.879	-17.974	-0.114	0.072
-723.864	-200.000	-0.008	0.212
-722.850	800.000	-0.066	-0.245
-721.835	235.932	-0.077	-0.130
-720.821	284.025	0.178	0.324
-719.806	129.409	-0.082	-0.107
-718.791	-45.970	0.119	-0.060
-717.777	-45.623	0.161	-0.081
-716.762	-200.000	-0.025	-0.187
-715.748	800.000	-0.053	0.180
-714.733	-90.378	0.029	0.009
-713.718	-156.340	0.252	0.016
-712.704	242.243	-0.195	-0.331
-711.689	132.001	0.166	0.216
-710.675	-200.000	0.009	-0.167
-709.660	208.038	-0.249	-0.395
-708.645	45.352	-0.183	-0.171
-707.631	720.053	0.038	-0.103
-706.616	-50.871	0.046	-0.022
-705.602	-200.000	-0.019	0.248
-704.587	29.955	0.173	-0.150
-703.572	451.575	-0.041	-0.092
-702.558	63.065	-0.374	-0.380
-701.543	80.945	0.116	0.127
-700.529	-131.508	0.251	0.034
-699.514	700.009	0.045	0.121
-698.499	-200.000	-0.056	-0.330
-697.485	-88.810	0.146	0.044
-696.470	-127.413	0.322	-0.047
-695.456	-200.000	-0.011	0.093
-694.441	-52.373	0.145	-0.068
-693.426	800.000	0.100	0.406
-692.412	-38.372	-0.152	-0.081
-691.397	-99.985	-0.273	0.069
-690.383	-200.000	0.020	0.247
-689.368	-41.732	-0.169	0.088
-688.354	39.168	-0.186	-0.169
-687.339	406.450	-0.127	-0.271
-686.324	-200.000	0.194	-0.001
-685.310	-200.000	-0.010	-0.085
-684.295	77.251	0.092	0.099
-683.281	-8.642	0.154	0.105
-682.266	119.834	-0.073	-0.092
-681.251	221.066	-0.057	0.092
-680.237	-48.643	0.298	-0.145
-679.222	-24.721	-0.192	-0.115
-678.208	-44.053	-0.225	-0.114
-677.193	-141.745	-0.126	0.013
-676.178	-18.290	-0.214	0.135
-675.164	-200.000	0.023	-0.204
-674.149	-200.000	-0.048	-0.346
-673.135	-99.973	0.167	-0.042
-672.120	-36.441	0.027	-0.015
-671.105	-87.846	0.119	0.036
-670.091	-99.588	0.138	0.035
-669.076	-108.813	-0.118	-0.026
-668.062	800.000	0.062	0.223
-667.047	-62.036	0.119	0.050
-666.032	56.541	-0.149	0.147
-665.018	-187.355	0.087	0.001
-664.003	43.412	-0.124	-0.115
-662.989	-152.592	-0.316	-0.023
-661.974	290.091	-0.025	0.045
-660.959	55.688	-0.009	-0.009
-659.945	-41.087	-0.199	0.104
-658.930	-200.000	0.070	0.375
-657.916	-158.948	-0.299	0.017
-656.901	-97.291	0.290	-0.077
-655.886	-9.102	-0.267	-0.181
-654.872	800.000	-0.057	0.169
-653.857	-1.845	0.117	0.083
-652.843	800.000	-0.118	-0.394
-651.828	457.207	-0.080	-0.179
-650.814	-9.100	-0.086	0.058
-649.799	549.212	0.062	0.149
-648.784	-55.704	0.078	-0.035
-647.770	-27.887	-0.219	-0.128
-646.755	-131.398	-0.229	-0.031
-645.741	59.564	0.084	-0.084
-644.726	-200.000	-0.021	-0.299
-643.711	-111.750	-0.198	-0.041
-642.697	-40.205	0.138	0.073
-641.682	800.000	0.161	0.599
-640.668	800.000	0.027	-0.117
-639.653	30.063	0.132	-0.114
-638.638	73.867	-0.320	0.339
-637.624	16.817	0.241	-0.193
-636.609	-6.070	0.104	0.072
-635.595	800.000	-0.032	-0.098
-634.580	-99.705	0.142	-0.036
-633.565	-110.774	0.125	0.026
-632.551	-49.654	-0.191	0.092
-631.536	-54.264	0.135	-0.062
-630.522	-200.000	0.020	0.148
-629.507	46.555	-0.102	0.095
-628.492	-16.320	-0.370	-0.237
-627.478	-74.859	-0.384	-0.139
-626.463	-200.000	0.048	-0.335
-625.449	-21.145	-0.221	0.137
-624.434	167.585	-0.230	-0.330
-623.419	433.718	0.069	-0.151
-622.405	1.518	0.167	-0.122
-621.390	-7.597	-0.232	0.159
-620.376	-187.218	0.151	0.002
-619.361	7.689	0.055	-0.041
-618.346	-163.526	-0.053	0.003
-617.332	-0.218	0.129	-0.093
-616.317	-20.571	-0.238	-0.148
-615.303	-169.560	0.375	0.014
-614.288	-200.000	-0.022	0.268
-613.273	509.777	0.150	0.351
-612.259	-200.000	0.011	-0.105
-611.244	-58.848	-0.198	-0.087
-610.230	-200.000	-0.018	0.438
-609.215	-97.390	-0.106	0.028
-608.201	-103.505	-0.367	-0.087
-607.186	249.672	0.211	-0.361
-606.171	125.231	0.215	0.273
-605.157	-155.352	-0.172	-0.011
-604.142	515.158	-0.118	-0.277
-603.128	-58.248	0.064	0.028
-602.113	-87.517	-0.108	0.033
-601.098	-180.925	0.036	-0.001
-600.084	94.703	0.042	-0.049
-599.069	-200.000	-0.022	-0.236
-598.055	103.818	-0.078	0.093
-597.040	41.296	-0.171	-0.156
-596.025	800.000	-0.019	0.058
-595.011	-8.638	-0.227	0.154
-593.996	-200.000	0.024	-0.122
-592.982	77.702	-0.098	0.105
-591.967	113.968	-0.068	-0.084
-590.952	-144.602	0.105	0.010
-589.938	800.000	0.085	-0.326
-588.923	-200.000	0.003	-0.186
-587.909	-191.200	0.072	0.001
-586.894	-140.064	0.070	0.007
-585.879	-200.000	-0.020	0.224
-584.865	-181.325	-0.306	0.006
-583.850	83.219	-0.134	-0.147
-582.836	-14.935	-0.118	0.076
-581.821	-98.703	-0.385	0.099
-580.806	17.844	0.242	-0.195
-579.792	-178.671	0.077	0.002
-578.777	-60.358	-0.122	-0.053
-577.763	-28.289	0.308	0.179
-576.748	-144.201	0.268	-0.025
-575.733	-73.011	-0.061	0.023
-574.719	800.000	0.060	0.208
-573.704	15.734	-0.210	-0.167
-572.690	-200.000	-0.015	-0.199
-571.675	-16.111	-0.055	0.035
-570.661	-156.764	0.050	-0.003
-569.646	-42.822	-0.136	-0.070
-568.631	-200.000	0.010	0.102
-567.617	-10.088	0.234	0.157
-566.602	-34.596	-0.112	0.062
-565.588	360.859	0.198	-0.400
-564.573	-19.439	-0.262	0.164
-563.558	130.893	0.150	0.194
-562.544	124.812	-0.208	0.265
-561.529	-32.139	0.074	0.042
-560.515	-60.676	-0.094	0.040
-559.500	-200.000	0.008	0.088
-558.485	-200.000	-0.031	-0.287
-557.471	7.952	-0.176	0.133
-556.456	-49.582	-0.157	-0.076
-555.442	-200.000	0.026	0.226
-554.427	381.322	0.087	0.179
-553.412	-89.999	0.213	0.063
-552.398	247.471	-0.073	-0.125
-551.383	224.263	-0.173	-0.282
-550.369	-64.928	0.220	0.090
-549.354	-200.000	0.004	-0.046
-548.339	18.776	-0.073	-0.059
-547.325	-12.149	0.218	0.144
-546.310	322.737	0.068	0.130
-545.296	672.875	0.069	-0.181
-544.281	291.975	-0.187	0.344
-543.266	-200.000	0.011	-0.050
-542.252	-47.580	0.486	0.238
-541.237	4.724	-0.261	0.193
-540.223	-200.000	-0.024	0.253
-539.208	-60.724	-0.200	0.085
-538.193	-200.000	0.193	-0.000
-537.179	52.873	-0.303	-0.292
-536.164	-200.000	-0.019	0.150
-535.150	5.649	0.234	0.174
-534.135	181.371	-0.142	0.210
-533.121	-200.000	0.048	-0.248
-532.106	800.000	0.072	0.262
-531.091	-200.000	0.039	-0.181
-530.077	4.139	-0.187	-0.138
-529.062	124.103	0.101	-0.128
-528.048	-200.000	0.017	0.411
-527.033	-53.959	0.166	0.076
-526.018	183.474	0.113	-0.168
-525.004	-47.762	-0.247	-0.120
-523.989	-200.000	0.000	0.190
-522.975	-99.710	0.356	0.090
-521.960	-133.051	-0.046	-0.006
-520.945	-4.243	-0.273	-0.190
-519.931	-192.894	-0.148	0.001
-518.916	-200.000	0.048	0.231
-517.902	98.210	-0.143	0.166
-516.887	459.435	0.074	-0.167
-515.872	-49.243	0.278	0.134
-514.858	58.010	-0.052	0.051
-513.843	800.000	-0.029	-0.092
-512.829	-34.569	0.200	-0.110
-511.814	800.000	0.031	0.112
-510.799	519.054	0.020	0.046
-509.785	-153.731	0.187	-0.013
-508.770	-200.000	0.002	-0.133
-507.756	-51.765	0.129	-0.060
-506.741	90.950	-0.096	0.108
-505.726	-200.000	0.004	0.172
-504.712	309.423	-0.050	-0.094
-503.697	-114.120	0.005	-0.001
-502.683	445.495	0.051	0.112
-501.668	-97.833	0.505	-0.131
-500.653	-44.134	0.267	0.135
-499.639	-141.466	-0.239	0.024
-498.624	105.822	-0.145	0.173
-497.610	-77.614	-0.080	-0.028
-496.595	17.218	0.069	0.055
-495.581	81.146	-0.123	-0.134
-494.566	437.358	-0.046	0.101
-493.551	6.546	0.198	-0.148
-492.537	-170.862	-0.185	-0.006
-491.522	-40.931	-0.189	0.098
-490.508	800.000	0.068	-0.263
-489.493	360.348	0.108	-0.218
-488.478	434.955	-0.049	0.106
-487.464	457.696	-0.140	0.312
-486.449	-132.406	0.105	0.014
-485.435	800.000	0.042	0.145
-484.420	113.559	0.232	0.283
-483.405	-13.279	-0.166	0.108
-482.391	-200.000	-0.038	0.200
-481.376	-200.000	-0.036	0.260
-480.362	91.644	0.064	0.073
-479.347	-89.159	0.474	0.141
-478.332	-200.000	-0.057	0.353
-477.318	-6.373	0.349	0.239
-476.303	-86.818	0.488	0.150
-475.289	-25.683	0.157	0.093
-474.274	-200.000	0.002	0.038
-473.259	-200.000	-0.024	-0.144
-472.245	-157.214	-0.219	-0.013
-471.230	-92.574	0.244	-0.069
-470.216	-48.370	0.046	-0.022
-469.201	703.249	0.075	0.200
-468.186	232.634	-0.047	-0.077
-467.172	-22.652	-0.214	-0.130
-466.157	-200.000	0.052	-0.250
-465.143	-200.000	0.038	-0.170
-464.128	-200.000	-0.011	0.079
-463.113	-23.582	0.169	0.102
-462.099	-142.851	0.366	-0.036
-461.084	-137.947	0.169	-0.019
-460.070	-200.000	-0.034	-0.275
-459.055	284.271	-0.159	-0.287
-458.040	190.636	0.225	-0.340
-457.026	119.399	0.149	-0.186
-456.011	-200.000	-0.044	-0.299
-454.997	800.000	-0.107	0.439
-453.982	-200.000	-0.007	0.049
-452.968	-200.000	0.006	0.192
-451.953	-200.000	-0.006	-0.189
-450.938	800.000	0.043	0.148
-449.924	-137.379	0.013	-0.001
-448.909	535.904	0.081	-0.193
-447.895	-86.698	0.228	-0.070
-446.880	425.116	0.124	0.268
-445.865	-102.155	0.021	0.005
-444.851	103.842	-0.182	-0.214
-443.836	-200.000	0.007	0.044
-442.822	78.350	-0.136	0.146
-441.807	152.485	-0.145	0.199
-440.792	-177.317	0.101	-0.003
-439.778	-162.321	0.110	0.005
-438.763	-80.287	0.135	0.045
-437.749	-50.332	-0.115	0.054
-436.734	-200.000	0.033	-0.273
-435.719	800.000	0.124	0.447
-434.705	648.762	-0.022	0.056
-433.690	-99.017	0.131	0.033
-432.676	38.858	0.367	-0.329
-431.661	-142.497	-0.239	0.024
-430.646	210.185	-0.135	-0.213
-429.632	800.000	0.027	0.115
-428.617	-23.391	0.073	-0.044
-427.603	419.335	-0.095	-0.204
-426.588	-44.881	-0.218	-0.109
-425.573	-144.801	-0.245	-0.023
-424.559	-49.047	-0.139	-0.067
-423.544	-11.555	-0.081	-0.053
-422.530	17.655	0.189	0.151
-421.515	-200.000	-0.005	-0.026
-420.500	800.000	0.118	-0.398
-419.486	-17.637	0.199	0.125
-418.471	234.014	-0.097	0.161
-417.457	-111.895	-0.256	0.052
-416.442	-51.741	-0.107	-0.050
-415.428	262.583	0.114	0.199
-414.413	-7.629	0.320	-0.217
-413.398	800.000	0.068	-0.194
-412.384	584.956	0.199	-0.489
-411.369	800.000	-0.149	-0.474
-410.355	464.462	0.105	-0.235
-409.340	-57.770	-0.287	-0.126
-408.325	800.000	-0.084	-0.263
-407.311	175.122	-0.057	-0.083
-406.296	-200.000	-0.006	-0.210
-405.282	0.047	-0.100	0.072
-404.267	293.566	0.123	-0.225
-403.252	595.107	-0.076	0.189
-402.238	68.230	0.031	-0.032
-401.223	50.259	0.124	-0.117
-400.209	121.283	-0.191	-0.239
-399.194	267.794	0.060	0.105
-398.179	-5.732	-0.034	-0.024
-397.165	-194.411	-0.221	-0.002
-396.150	127.250	-0.186	-0.237
-395.136	-95.998	-0.369	-0.098
-394.121	279.743	-0.028	-0.049
-393.106	120.059	-0.109	-0.135
-392.092	-200.000	-0.007	-0.039
-391.077	24.994	0.230	0.191
-390.063	-200.000	0.004	0.018
-389.048	-200.000	0.011	-0.172
-388.033	800.000	-0.042	0.134
-387.019	-142.562	-0.098	-0.010
-386.004	220.353	-0.054	-0.086
-384.990	-113.665	-0.187	0.036
-383.975	-200.000	0.010	0.143
-382.960	281.963	0.070	-0.125
-381.946	-89.808	-0.052	0.015
-380.931	-143.345	0.238	0.023
-379.917	36.406	0.101	-0.089
-378.902	-124.335	0.302	-0.047
-377.888	-11.775	-0.037	-0.025
-376.873	-200.000	0.021	-0.285
-375.858	390.908	-0.139	0.288
-374.844	-92.799	0.050	0.014
-373.829	171.017	-0.118	0.169
-372.815	83.146	-0.098	-0.107
-371.800	403.854	-0.067	0.141
-370.785	-59.698	-0.224	0.096
-369.771	-200.000	-0.061	-0.299
-368.756	743.484	0.060	0.162
-367.742	-127.407	-0.215	-0.031
-366.727	-153.671	-0.159	-0.011
-365.712	135.657	0.033	-0.043
-364.698	-143.783	-0.276	-0.026
-363.683	116.408	-0.103	-0.127
-362.669	800.000	0.029	0.119
-361.654	-104.933	-0.233	0.053
-360.639	-32.970	-0.126	0.070
-359.625	199.245	-0.133	-0.205
-358.610	74.209	-0.106	0.111
-357.596	227.605	-0.064	-0.105
-356.581	800.000	0.052	0.192
-355.566	-129.443	0.178	-0.025
-354.552	496.327	0.079	0.182
-353.537	-200.000	0.002	-0.200
-352.523	800.000	-0.112	-0.367
-351.508	146.560	-0.178	0.238
-350.493	800.000	0.065	-0.278
-349.479	800.000	-0.051	-0.186
-348.464	-14.831	-0.129	-0.083
-347.450	-156.216	0.191	0.012
-346.435	-200.000	0.003	-0.099
-345.420	-200.000	-0.050	0.447
-344.406	-200.000	0.018	0.249
-343.391	-87.644	-0.194	-0.059
-342.377	-200.000	-0.049	0.330
-341.362	-21.525	-0.241	-0.147
-340.348	-35.594	-0.033	0.018
-339.333	-194.508	-0.054	-0.000
-338.318	-59.585	-0.149	0.064
-337.304	-56.061	-0.161	-0.072
-336.289	86.768	0.137	0.151
-335.275	66.241	-0.178	0.180
-334.260	568.992	-0.077	0.186
-333.245	-103.130	0.038	-0.009
-332.231	-200.000	0.009	-0.134
-331.216	-67.776	-0.207	0.081
-330.202	159.188	-0.188	-0.262
-329.187	-14.136	0.165	-0.106
-328.172	187.681	-0.130	0.193
-327.158	336.846	-0.060	-0.117
-326.143	63.424	0.166	-0.166
-325.129	-200.000	0.019	-0.345
-324.114	18.208	-0.396	0.316
-323.099	129.148	0.014	0.018
-322.085	-200.000	0.032	0.316
-321.070	50.603	0.300	-0.284
-320.056	30.806	-0.270	0.231
-319.041	-200.000	0.030	0.188
-318.026	361.308	0.145	-0.291
-317.012	-200.000	-0.004	0.120
-315.997	56.967	0.142	0.138
-314.983	-29.127	0.189	0.108
-313.968	194.651	0.198	0.300
-312.953	72.457	0.126	-0.131
-311.939	273.688	0.071	0.126
-310.924	37.202	0.159	0.141
-309.910	155.176	0.172	0.236
-308.895	460.488	0.095	-0.211
-307.880	104.480	-0.198	0.233
-306.866	-166.844	0.119	-0.005
-305.851	-200.000	0.075	0.339
-304.837	-66.676	-0.222	-0.088
-303.822	-180.553	0.317	-0.007
-302.807	-95.697	-0.193	0.051
-301.793	58.639	-0.260	-0.255
-300.778	36.477	-0.167	0.147
-299.764	-88.679	0.169	-0.050
-298.749	63.106	0.139	-0.139
-297.735	410.325	0.074	-0.156
-296.720	-144.929	0.084	-0.008
-295.705	-20.811	0.122	-0.075
-294.691	26.768	-0.185	-0.154
-293.676	-17.181	-0.088	-0.056
-292.662	270.061	-0.153	0.269
-291.647	-156.240	-0.194	0.012
-290.632	95.310	0.196	-0.223
-289.618	-164.336	-0.159	0.007
-288.603	-66.781	-0.086	-0.034
-287.589	2.132	0.109	-0.078
-286.574	-35.879	0.311	-0.168
-285.559	-123.470	0.165	0.026
-284.545	-119.887	-0.081	-0.014
-283.530	-115.983	0.367	0.068
-282.516	800.000	0.124	0.392
-281.501	73.320	0.114	0.119
-280.486	-200.000	-0.045	0.425
-279.472	800.000	0.103	0.325
-278.457	-162.330	-0.491	0.024
-277.443	62.212	0.080	-0.079
-276.428	284.660	0.175	0.313
-275.413	-46.834	-0.162	-0.079
-274.399	-200.000	0.038	0.338
-273.384	800.000	-0.128	-0.447
-272.370	163.772	0.059	0.083
-271.355	387.564	0.157	0.324
-270.340	64.126	-0.185	0.185
-269.326	-43.080	-0.069	-0.035
-268.311	-98.639	-0.404	-0.103
-267.297	-23.962	-0.124	0.074
-266.282	-200.000	-0.005	-0.083
-265.267	447.017	0.087	-0.190
-264.253	414.602	0.166	0.352
-263.238	-69.407	0.201	0.077
-262.224	60.679	0.157	0.155
-261.209	0.252	0.292	0.208
-260.195	117.448	-0.028	0.034
-259.180	380.395	0.081	-0.165
-258.165	800.000	-0.078	-0.216
-257.151	-31.625	0.433	-0.242
-256.136	19.778	0.107	0.086
-255.122	22.216	0.207	-0.169
-254.107	-102.125	-0.288	0.069
-253.092	-200.000	-0.036	0.239
-252.078	-39.494	0.325	0.170
-251.063	98.679	0.185	0.212
-250.049	-142.261	0.149	-0.015
-249.034	800.000	0.062	-0.175
-248.019	583.973	0.045	-0.111
-247.005	-121.931	-0.200	0.033
-245.990	114.682	0.087	0.105
-244.976	-63.540	-0.392	-0.160
-243.961	-200.000	-0.002	-0.122
-242.946	227.260	0.096	0.156
-241.932	49.391	0.118	-0.111
-240.917	-120.833	-0.275	-0.046
-239.903	304.286	-0.280	0.518
-238.888	150.611	-0.178	-0.240
-237.873	135.988	-0.215	-0.279
-236.859	-134.799	-0.246	0.030
-235.844	-22.888	-0.244	0.147
-234.830	67.887	0.010	-0.010
-233.815	-127.861	-0.367	-0.053
-232.800	-169.120	-0.622	-0.023
-231.786	169.855	-0.121	-0.171
-230.771	-23.286	0.257	-0.154
-229.757	208.068	0.165	0.257
-228.742	-200.000	-0.004	0.088
-227.727	-72.189	0.081	-0.030
-226.713	-200.000	-0.025	0.117
-225.698	-155.977	-0.085	0.005
-224.684	-200.000	-0.029	0.145
-223.669	31.824	0.146	-0.125
-222.655	400.757	0.069	-0.143
-221.640	-51.065	-0.084	-0.039
-220.625	103.559	0.005	0.006
-219.611	-9.026	0.068	-0.045
-218.596	-136.341	0.152	0.018
-217.582	289.328	-0.052	-0.094
-216.567	34.916	0.080	0.070
-215.552	800.000	0.055	0.181
-214.538	-200.000	-0.112	0.538
-213.523	-30.844	0.192	-0.108
-212.509	61.162	-0.193	-0.191
-211.494	-131.547	0.075	0.010
-210.479	800.000	-0.077	0.255
-209.465	-37.835	0.479	-0.254
-208.450	-13.776	0.213	-0.137
-207.436	-178.166	0.140	0.003
-206.421	-200.000	0.025	0.142
-205.406	477.719	-0.033	-0.073
-204.392	-200.000	0.016	-0.166
-203.377	36.708	-0.105	0.092
-202.363	106.170	-0.069	-0.082
-201.348	267.265	0.280	-0.488
-200.333	-68.206	0.174	0.067
-199.319	-106.603	-0.125	-0.028
-198.304	-144.651	0.104	0.009
-197.290	-9.195	-0.168	-0.112
-196.275	423.901	0.131	-0.279
-195.260	509.193	-0.071	0.164
-194.246	14.780	0.190	-0.148
-193.231	71.439	-0.082	0.085
-192.217	-10.570	-0.069	0.045
-191.202	128.073	0.057	0.072
-190.187	413.666	0.027	0.056
-189.173	21.494	0.174	0.141
-188.158	-70.835	0.319	-0.119
-187.144	-66.014	0.160	-0.063
-186.129	-155.659	0.091	0.006
-185.114	-79.551	-0.396	0.133
-184.100	25.943	0.237	-0.196
-183.085	800.000	0.049	-0.199
-182.071	-200.000	-0.021	-0.168
-181.056	800.000	-0.067	-0.196
-180.042	-115.079	-0.274	-0.052
-179.027	-6.069	0.040	-0.027
-178.012	-136.174	0.188	0.022
-176.998	-8.574	0.190	-0.127
-175.983	-126.889	-0.173	0.025
-174.969	-189.268	-0.254	0.003
-173.954	51.615	-0.194	0.183
-172.939	-200.000	-0.029	0.250
-171.925	-200.000	0.027	0.186
-170.910	670.921	-0.099	0.254
-169.896	-66.375	-0.203	-0.080
-168.881	-4.462	0.152	-0.105
-167.866	-140.566	-0.117	0.012
-166.852	170.012	-0.154	0.219
-165.837	-35.442	0.131	0.070
-164.823	-69.619	-0.234	-0.089
-163.808	-119.511	0.435	-0.075
-162.793	-200.000	-0.065	-0.504
-161.779	542.888	-0.159	-0.376
-160.764	-64.321	-0.108	-0.044
-159.750	-200.000	-0.007	0.231
-158.735	-200.000	-0.001	-0.058
-157.720	-61.915	0.119	0.050
-156.706	26.017	0.339	-0.281
-155.691	221.430	0.034	-0.053
-154.677	214.623	0.052	0.081
-153.662	131.165	0.228	-0.290
-152.647	-67.384	0.284	0.111
-151.633	-130.373	0.071	0.009
-150.618	29.935	0.080	-0.068
-149.604	23.356	-0.199	-0.162
-148.589	-93.844	0.201	0.055
-147.574	214.345	0.156	0.246
-146.560	800.000	-0.088	0.243
-145.545	-27.673	-0.113	0.065
-144.531	98.753	0.099	0.114
-143.516	-50.029	0.064	-0.030
-142.502	-110.177	0.364	-0.075
-141.487	800.000	0.014	0.051
-140.472	-121.876	-0.415	-0.068
-139.458	230.698	0.144	-0.234
-138.443	34.558	0.243	0.211
-137.429	276.340	-0.081	0.143
-136.414	336.083	0.111	0.213
-135.399	-200.000	-0.038	0.243
-134.385	-157.993	-0.130	0.008
-133.370	-107.989	0.057	-0.012
-132.356	-200.000	-0.026	0.123
-131.341	-144.363	-0.217	0.020
-130.326	-200.000	0.002	-0.084
-129.312	-200.000	-0.069	-0.394
-128.297	-200.000	-0.024	-0.367
-127.283	547.384	-0.086	0.203
-126.268	76.925	0.223	0.235
-125.253	558.214	-0.085	-0.202
-124.239	-41.388	0.142	0.072
-123.224	286.252	0.037	-0.066
-122.210	800.000	0.025	-0.081
-121.195	-64.065	0.081	-0.033
-120.180	-6.098	-0.053	0.036
-119.166	163.665	0.240	0.335
-118.151	-143.268	0.218	0.021
-117.137	435.014	0.135	0.291
-116.122	-59.101	-0.056	-0.024
-115.107	-200.000	-0.244	0.001
-114.093	-90.020	0.145	0.042
-113.078	800.000	0.035	0.105
-112.064	342.042	-0.057	0.110
-111.049	-200.000	-0.069	0.504
-110.034	-137.985	0.257	0.028
-109.020	-200.000	-0.027	0.159
-108.005	72.874	-0.053	-0.055
-106.991	-77.733	0.093	0.032
-105.976	-19.067	0.177	-0.109
-104.962	733.859	0.101	0.269
-103.947	-200.000	0.005	0.344
-102.932	-76.347	0.098	0.034
-101.918	62.240	0.068	-0.067
-100.903	-93.483	-0.373	0.102
-99.889	55.863	-0.087	0.084
-98.874	83.429	0.040	-0.043
-97.859	83.545	0.078	0.084
-96.845	169.422	-0.167	-0.236
-95.830	-36.671	0.215	0.114
-94.816	-89.379	0.262	0.076
-93.801	-2.290	0.156	0.109
-92.786	-200.000	0.032	0.415
-91.772	-68.107	-0.213	-0.082
-90.757	-5.023	-0.140	0.096
-89.743	-9.485	0.219	-0.145
-88.728	245.158	0.123	0.204
-87.713	800.000	-0.071	0.272
-86.699	-123.466	-0.055	-0.009
-85.684	-139.083	0.295	0.032
-84.670	270.620	-0.119	0.207
-83.655	-26.061	0.136	0.079
-82.640	800.000	-0.030	0.100
-81.626	260.035	-0.135	-0.230
-80.611	170.727	-0.155	0.219
-79.597	-67.429	-0.174	-0.068
-78.582	39.703	0.164	0.146
-77.567	173.879	-0.027	-0.038
-76.553	209.257	0.199	0.308
-75.538	-110.160	-0.265	-0.055
-74.524	-70.540	-0.375	0.141
-73.509	202.707	0.116	0.177
-72.494	27.135	0.125	0.104
-71.480	111.217	0.039	0.047
-70.465	-146.035	0.129	0.011
-69.451	800.000	-0.064	0.210
-68.436	-109.522	0.294	-0.061
-67.422	108.901	-0.076	-0.090
-66.407	-69.363	0.192	0.073
-65.392	800.000	0.122	-0.374
-64.378	-200.000	-0.029	0.154
-63.363	122.575	0.184	0.228
-62.349	-159.136	-0.109	0.006
-61.334	74.449	-0.962	-1.000
-60.319	163.358	0.272	0.378
-59.305	-200.000	-0.059	-0.570
-58.290	225.891	0.775	1.242
-57.276	800.000	0.565	1.712
-56.261	-200.000	97.037	556.745
-55.246	498.101	1427.545	3248.556
-54.232	142.478	2663.197	3494.651
-53.217	109.541	2249.288	2663.193
-52.203	44.406	1771.599	1607.684
-51.188	37.067	1579.032	1380.870
-50.173	34.652	1552.288	1340.504
-49.159	52.555	1602.776	1512.293
-48.144	55.693	1621.844	1552.627
-47.130	37.503	1576.943	1381.924
-46.115	34.298	1561.073	1345.370
-45.100	34.079	1557.894	1341.033
-44.086	34.054	1556.217	1339.360
-43.071	33.987	1553.943	1336.883
-42.057	33.917	1552.387	1335.001
-41.042	34.009	1550.763	1334.196
-40.027	34.015	1549.296	1332.921
-39.013	34.093	1547.564	1331.925
-37.998	34.016	1546.613	1330.514
-36.984	33.972	1545.378	1329.089
-35.969	34.074	1543.939	1328.512
-34.954	33.948	1542.094	1325.996
-33.940	33.997	1540.704	1325.089
-32.925	34.086	1539.532	1324.648
-31.911	34.072	1538.309	1323.444
-30.896	34.069	1536.705	1321.990
-29.881	34.065	1535.706	1321.052
-28.867	34.034	1534.735	1319.946
-27.852	34.012	1532.644	1317.949
-26.838	34.041	1531.310	1316.946
-25.823	34.055	1530.143	1315.987
-24.809	33.979	1528.508	1314.005
-23.794	33.974	1527.034	1312.648
-22.779	34.064	1525.726	1312.095
-21.765	34.044	1524.519	1310.868
-20.750	34.016	1524.069	1310.233
-19.736	33.968	1522.423	1308.439
-18.721	34.104	1521.441	1308.474
-17.706	34.030	1520.249	1306.895
-16.692	33.979	1519.039	1305.449
-15.677	33.944	1518.260	1304.491
-14.663	33.956	1517.301	1303.697
-13.648	34.006	1516.148	1302.995
-12.633	34.024	1515.107	1302.174
-11.619	33.977	1514.051	1300.893
-10.604	33.991	1513.610	1300.556
-9.590	33.974	1512.382	1299.333
-8.575	33.966	1511.815	1298.743
-7.560	33.956	1511.134	1298.032
-6.546	33.883	1510.286	1296.753
-5.531	33.876	1509.135	1295.671
-4.517	33.965	1507.635	1294.935
-3.502	33.920	1507.400	1294.379
-2.487	33.903	1505.909	1292.932
-1.473	33.852	1505.324	1292.026
-0.458	33.988	1503.245	1291.120
0.556	33.628	1495.052	1282.627
1.571	31.343	1468.703	1244.706
2.586	27.554	1403.310	1165.012
3.600	24.804	1315.472	1075.488
4.615	22.544	1265.981	1021.845
5.629	18.572	1207.337	952.410
6.644	9.502	1118.056	835.056
7.659	2.352	1074.803	766.932
8.673	1.237	1069.007	757.163
9.688	1.186	1065.630	754.450
10.702	1.123	1064.343	753.161
11.717	1.125	1062.402	751.729
12.731	3.379	1064.798	764.554
13.746	10.692	1075.434	808.654
14.761	16.346	1082.004	841.780
15.775	17.526	1082.619	848.066
16.790	17.338	1081.103	845.868
17.804	16.210	1079.295	838.775
18.819	15.310	1077.444	832.790
19.834	14.860	1075.850	829.255
20.848	14.629	1074.624	827.092
21.863	14.313	1073.751	824.781
22.877	14.138	1073.316	823.509
23.892	13.888	1072.456	821.538
24.907	13.777	1071.441	820.142
25.921	13.902	1070.484	819.951
26.936	13.817	1070.031	819.113
27.950	13.771	1069.911	818.724
28.965	13.879	1068.482	818.086
29.980	13.997	1067.379	817.754
30.994	14.018	1066.684	817.251
32.009	13.995	1066.006	816.543
33.023	14.052	1065.356	816.258
34.038	14.057	1064.603	815.631
35.053	14.101	1063.192	814.695
36.067	13.978	1062.537	813.515
37.082	13.977	1061.869	812.931
38.096	13.998	1060.825	812.161
39.111	13.928	1060.301	811.348
40.126	13.985	1059.243	810.741
41.140	13.971	1058.263	809.851
42.155	13.941	1057.175	808.804
43.169	13.839	1056.145	807.447
44.184	13.888	1055.550	807.159
45.199	13.787	1054.319	805.653
46.213	13.808	1053.436	805.009
47.228	13.762	1052.921	804.322
48.242	13.851	1051.671	803.730
49.257	13.929	1050.215	802.923
50.271	13.947	1048.979	801.991
51.286	13.852	1049.036	801.509
52.301	13.937	1047.606	800.752
53.315	13.939	1047.039	800.258
54.330	13.918	1046.055	799.336
55.344	13.951	1045.208	798.777
56.359	13.962	1044.207	797.995
57.374	13.956	1043.271	797.179
58.388	13.915	1042.248	796.130
59.403	13.756	1041.787	794.945
60.417	13.840	1040.931	794.622
61.432	13.802	1040.559	794.088
62.447	13.786	1039.782	793.345
63.461	13.846	1039.027	792.989
64.476	13.789	1038.084	791.925
65.490	13.751	1036.781	790.682
66.505	13.763	1036.010	790.081
67.520	13.823	1035.328	789.777
68.534	13.804	1034.445	788.943
69.549	13.873	1033.726	788.653
70.563	13.884	1033.152	788.196
71.578	13.888	1032.087	787.334
72.593	13.814	1031.437	786.418
73.607	13.809	1030.504	785.610
74.622	13.692	1029.725	784.394
75.636	13.686	1028.878	783.652
76.651	13.700	1028.021	782.994
77.666	13.699	1027.445	782.481
78.680	13.787	1026.102	781.806
79.695	13.730	1026.171	781.522
80.709	13.772	1025.242	780.943
81.724	13.851	1024.087	780.364
82.739	13.888	1023.384	779.932
83.753	13.911	1022.487	779.287
84.768	13.846	1022.083	778.605
85.782	13.845	1021.647	778.202
86.797	14.080	1020.644	778.469
87.812	14.006	1019.426	777.126
88.826	13.848	1019.361	776.268
89.841	13.864	1017.906	775.166
90.855	13.906	1017.317	774.845
91.870	13.914	1016.360	774.082
92.884	14.058	1015.440	773.984
93.899	14.023	1015.187	773.562
94.914	14.019	1014.244	772.756
95.928	14.030	1013.514	772.183
96.943	14.073	1012.576	771.600
97.957	14.023	1011.963	770.830
98.972	14.011	1011.082	770.037
99.987	14.062	1010.295	769.604
101.001	14.008	1009.887	768.978
102.016	13.945	1009.000	767.940
103.030	13.927	1007.808	766.884
104.045	14.010	1007.143	766.693
105.060	14.000	1006.142	765.816
106.074	14.053	1004.737	764.923
107.089	13.951	1004.083	763.886
108.103	13.806	1003.712	762.871
109.118	13.906	1002.537	762.371
110.133	13.799	1001.497	761.020
111.147	13.752	1001.597	760.815
112.162	13.882	1000.175	760.263
113.176	13.770	999.165	758.915
114.191	13.884	998.759	759.064
115.206	13.991	997.502	758.528
116.220	13.793	996.849	757.063
117.235	13.977	995.913	757.122
118.249	14.002	995.087	756.542
119.264	13.928	993.969	755.287
120.279	13.922	993.463	754.809
121.293	13.848	992.583	753.738
122.308	13.881	991.773	753.204
123.322	13.983	990.791	752.853
124.337	13.997	989.846	752.133
125.352	13.956	988.871	751.138
126.366	13.920	987.401	749.795
127.381	13.925	986.184	748.827
128.395	13.946	985.483	748.322
129.410	13.882	984.604	747.299
130.424	13.952	983.725	746.884
131.439	13.970	982.739	746.148
132.454	14.044	981.786	745.693
133.468	14.007	981.173	744.996
134.483	14.177	980.466	745.151
135.497	14.039	979.773	743.943
136.512	14.019	978.683	742.957
137.527	13.923	978.170	742.077
138.541	13.966	977.223	741.482
139.556	13.958	976.645	740.945
140.570	13.983	975.879	740.408
141.585	14.133	974.640	740.071
142.600	14.128	973.946	739.456
143.614	14.099	973.381	738.832
144.629	14.165	972.668	738.517
145.643	14.084	971.787	737.424
146.658	14.186	970.953	737.178
147.673	14.221	969.690	736.311
148.687	14.003	969.430	735.081
149.702	14.063	968.082	734.261
150.716	14.023	967.659	733.699
151.731	14.109	966.388	733.048
152.746	14.188	965.830	732.907
153.760	14.034	964.932	731.487
154.775	14.103	964.404	731.322
155.789	14.180	963.209	730.691
156.804	14.091	962.283	729.532
157.819	14.164	961.943	729.531
158.833	14.132	961.169	728.737
159.848	14.047	960.817	728.036
160.862	14.229	960.053	728.187
161.877	14.169	958.981	727.047
162.892	14.011	958.892	726.228
163.906	14.121	957.408	725.517
164.921	14.054	956.801	724.702
165.935	14.051	955.966	723.994
166.950	14.069	954.866	723.175
167.964	14.185	953.781	722.791
168.979	14.135	952.417	721.480
169.994	14.263	951.341	721.154
171.008	14.254	950.685	720.554
172.023	14.243	949.640	719.648
173.037	14.376	948.927	719.619
174.052	14.244	948.530	718.684
175.067	14.241	948.137	718.311
176.081	14.288	947.158	717.710
177.096	14.294	946.020	716.808
178.110	14.331	945.267	716.332
179.125	14.317	944.833	715.881
180.140	14.318	943.664	714.939
181.154	14.331	943.144	714.535
182.169	14.286	942.897	714.093
183.183	14.274	942.298	713.522
184.198	14.348	941.477	713.154
185.213	14.504	940.470	712.997
186.227	14.480	940.140	712.580
187.242	14.465	939.663	712.093
188.256	14.468	939.008	711.545
189.271	14.551	937.837	710.948
190.286	14.466	937.393	710.188
191.300	14.406	936.723	709.362
192.315	14.451	935.838	708.819
193.329	14.338	935.411	707.955
194.344	14.444	934.550	707.688
195.359	14.423	933.867	707.021
196.373	14.472	933.242	706.693
197.388	14.451	933.023	706.374
198.402	14.487	932.524	706.087
199.417	14.546	931.894	705.796
200.432	14.588	931.392	705.531
201.446	14.730	930.890	705.689
202.461	14.725	930.525	705.329
203.475	14.772	929.941	705.021
204.490	14.837	928.939	704.474
205.504	14.725	928.087	703.297
206.519	14.610	927.418	702.240
207.534	14.679	926.780	701.988
208.548	14.689	925.712	701.159
209.563	14.794	925.199	701.146
210.577	14.785	924.272	700.344
211.592	14.911	923.686	700.367
212.607	14.746	923.314	699.331
213.621	14.881	922.770	699.425
214.636	14.807	922.121	698.561
215.650	14.803	921.295	697.856
216.665	14.981	920.529	697.958
217.680	14.910	920.412	697.511
218.694	14.837	919.564	696.503
219.709	14.958	919.104	696.596
220.723	14.987	918.767	696.398
221.738	14.849	918.145	695.292
222.753	14.858	917.157	694.521
223.767	14.992	916.549	694.556
224.782	14.994	915.550	693.746
225.796	15.149	914.545	693.564
226.811	15.152	913.842	692.981
227.826	15.138	913.187	692.365
228.840	15.073	912.799	691.741
229.855	15.136	911.868	691.232
230.869	15.235	911.045	690.958
231.884	14.966	910.662	689.497
232.899	15.066	910.000	689.348
233.913	14.914	909.600	688.356
234.928	14.917	908.585	687.539
235.942	14.950	907.990	687.165
236.957	15.056	907.432	687.117
237.972	15.060	906.449	686.326
238.986	15.061	905.721	685.718
240.001	15.125	905.015	685.389
241.015	15.040	904.821	684.830
242.030	15.012	903.685	683.799
243.045	15.119	903.179	683.790
244.059	15.242	902.270	683.544
245.074	15.275	901.438	682.988
246.088	15.087	901.502	682.208
247.103	15.188	900.646	681.913
248.117	15.431	899.379	681.879
249.132	15.252	899.105	680.883
250.147	15.334	898.627	680.794
251.161	15.417	897.792	680.441
252.176	15.404	897.117	679.815
253.190	15.426	896.338	679.253
254.205	15.641	895.662	679.551
255.220	15.487	895.437	678.696
256.234	15.574	895.155	678.774
257.249	15.485	894.739	678.041
258.263	15.468	894.059	677.396
259.278	15.525	893.484	677.129
260.293	15.628	892.611	676.823
261.307	15.539	892.026	675.961
262.322	15.702	891.350	676.045
263.336	15.621	891.189	675.538
264.351	15.615	890.615	675.018
265.366	15.705	889.462	674.448
266.380	15.626	889.197	673.867
267.395	15.747	888.128	673.485
268.409	15.776	887.332	672.937
269.424	15.804	886.212	672.141
270.439	15.668	886.360	671.650
271.453	15.864	885.349	671.605
272.468	15.806	884.450	670.633
273.482	15.739	883.905	669.894
274.497	15.770	883.307	669.504
275.512	15.830	882.579	669.132
276.526	15.855	881.878	668.642
277.541	15.818	881.034	667.792
278.555	15.713	880.601	666.991
279.570	15.841	880.254	667.175
280.585	15.915	879.802	667.069
281.599	16.069	878.794	666.852
282.614	15.897	878.369	665.791
283.628	15.927	877.506	665.197
284.643	15.914	877.284	664.919
285.657	16.045	876.499	664.782
286.672	16.082	876.203	664.643
287.687	16.013	875.598	663.856
288.701	15.929	875.257	663.209
289.716	16.052	874.638	663.162
290.730	16.105	874.205	662.985
291.745	16.020	873.372	661.958
292.760	16.058	872.599	661.465
293.774	16.136	872.055	661.302
294.789	16.042	871.691	660.596
295.803	16.197	870.560	660.289
296.818	16.136	870.353	659.834
297.833	16.203	869.758	659.588
298.847	16.209	868.934	658.925
299.862	16.107	868.526	658.163
300.876	16.357	867.078	657.978
301.891	16.287	866.805	657.442
302.906	16.277	866.144	656.842
303.920	16.386	865.441	656.674
304.935	16.292	864.884	655.828
305.949	16.493	863.932	655.830
306.964	16.381	863.577	655.070
307.979	16.417	862.776	654.542
308.993	16.459	862.513	654.445
310.008	16.485	861.727	653.894
311.022	16.289	861.671	653.036
312.037	16.521	860.629	653.083
313.052	16.394	860.590	652.504
314.066	16.453	859.662	651.974
315.081	16.458	859.161	651.551
316.095	16.405	858.666	650.916
317.110	16.596	857.919	651.026
318.125	16.427	857.395	649.922
319.139	16.498	856.878	649.747
320.154	16.391	856.589	649.056
321.168	16.493	855.933	648.893
322.183	16.490	855.421	648.438
323.197	16.525	855.121	648.288
324.212	16.512	854.329	647.579
325.227	16.448	853.678	646.785
326.241	16.565	853.228	646.833
327.256	16.619	852.663	646.554
328.270	16.490	852.200	645.651
329.285	16.567	851.535	645.384
330.300	16.548	850.736	644.651
331.314	16.546	850.277	644.239
332.329	16.603	849.686	643.952
333.343	16.581	849.044	643.324
334.358	16.485	848.523	642.505
335.373	16.669	847.900	642.676
336.387	16.652	847.445	642.212
337.402	16.785	846.670	642.071
338.416	16.727	846.384	641.579
339.431	16.752	845.690	641.088
340.446	16.964	844.676	641.066
341.460	16.910	844.187	640.434
342.475	16.895	843.742	639.984
343.489	16.927	842.932	639.433
344.504	16.884	842.726	639.056
345.519	16.985	842.323	639.074
346.533	17.168	841.127	638.801
347.548	16.895	841.220	637.786
348.562	16.956	840.727	637.586
349.577	17.046	840.009	637.322
350.592	16.781	839.899	636.187
351.606	16.869	839.280	635.992
352.621	16.950	838.687	635.790
353.635	17.033	838.147	635.638
354.650	16.811	838.177	634.773
355.665	16.994	837.329	634.758
356.679	16.970	836.821	634.226
357.694	17.186	836.276	634.566
358.708	17.118	835.518	633.679
359.723	17.024	835.270	633.086
360.738	17.167	834.534	633.004
361.752	17.165	833.757	632.350
362.767	17.047	834.120	632.131
363.781	17.185	833.177	631.874
364.796	17.123	832.918	631.393
365.810	17.274	832.386	631.491
366.825	17.236	831.924	630.946
367.840	17.200	831.864	630.711
368.854	17.293	831.215	630.506
369.869	17.256	830.501	629.772
370.883	17.330	829.916	629.546
371.898	17.310	829.532	629.126
372.913	17.387	828.731	628.747
373.927	17.396	828.353	628.440
374.942	17.499	827.514	628.126
375.956	17.460	827.023	627.555
376.971	17.367	826.356	626.649
377.986	17.424	826.035	626.560
379.000	17.422	825.445	626.051
380.015	17.416	824.952	625.600
381.029	17.516	824.665	625.696
382.044	17.614	823.740	625.298
383.059	17.577	823.549	624.959
384.073	17.614	822.702	624.398
385.088	17.547	822.040	623.594
386.102	17.650	821.775	623.716
387.117	17.570	820.971	622.757
388.132	17.570	820.782	622.558
389.146	17.562	820.363	622.159
390.161	17.560	819.716	621.605
391.175	17.544	819.538	621.356
392.190	17.712	818.773	621.332
393.205	17.625	818.222	620.543
394.219	17.605	818.202	620.400
395.234	17.736	817.579	620.348
396.248	17.666	817.171	619.730
397.263	17.567	816.632	618.907
398.278	17.688	815.908	618.743
399.292	17.766	815.720	618.828
400.307	17.631	815.454	618.082
401.321	17.639	814.908	617.642
402.336	17.684	814.386	617.358
403.350	17.809	813.948	617.423
404.365	17.753	813.557	616.866
405.380	17.759	813.436	616.742
406.394	17.701	812.899	616.070
407.409	17.821	812.332	616.020
408.423	18.012	811.644	616.134
409.438	17.955	811.000	615.385
410.453	18.137	810.369	615.505
411.467	17.934	810.322	614.687
412.482	18.038	809.632	614.483
413.496	17.929	809.112	613.643
414.511	18.042	808.931	613.857
415.526	18.190	808.510	614.011
416.540	18.048	808.614	613.529
417.555	18.150	807.927	613.320
418.569	17.955	807.592	612.310
419.584	18.002	806.788	611.814
420.599	18.095	806.520	611.890
421.613	105.871	1285.177	1446.584
422.628	91.218	1354.905	1446.723
