DTS Sentinel unit serial number:	SN413079Multiplexer serial number:	ORYXHardware model number:	OX4-SRSoftware version number:	ORYX F/W v4.00 Oryx Data Collector v3.7.2.0data status	okinstallation	princeton_trtdifferential loss correction	single-endedforward channel	channel 3reverse channel	N/Adate	2019/09/13time	11:40:35forward acquisition time	60.00reverse acquisition time	0.00gamma	496.2192k internal	0.2312k external	0.2312temperature offset calibration	1.0143default loss term (dB/km)	0.3790temperature slope calibration	1.0000multiplexer offset coefficient	1.0000multiplexer slope coefficient	1.0000fibre end	0.00T internal ref (°C)	33.03T ext. ref 1 (°C)	4.48T ext. ref 2 (°C)	30.29length (m)	temperature (°C)	Stokes	anti-Stokes-747.200	-36.733	0.176	0.096
-746.185	23.626	0.229	0.192
-745.171	-32.794	-0.117	0.066
-744.156	-34.262	0.346	0.193
-743.142	-16.292	0.157	0.101
-742.127	-137.617	-0.245	0.028
-741.112	143.393	-0.210	-0.283
-740.098	800.000	-0.035	0.106
-739.083	-58.708	-0.232	-0.102
-738.069	194.645	0.052	0.079
-737.054	-9.866	0.089	0.060
-736.039	-200.000	0.038	-0.186
-735.025	48.028	-0.114	0.108
-734.010	129.932	-0.185	-0.240
-732.996	-57.843	-0.413	0.183
-731.981	-104.063	-0.186	-0.044
-730.966	22.577	0.100	-0.083
-729.952	362.501	-0.192	0.392
-728.937	800.000	-0.073	-0.241
-727.923	439.310	-0.164	-0.364
-726.908	52.067	0.399	0.385
-725.894	-121.820	-0.104	0.017
-724.879	800.000	0.010	0.041
-723.864	-200.000	-0.006	-0.039
-722.850	-200.000	-0.005	0.160
-721.835	-200.000	-0.029	-0.211
-720.821	-13.669	-0.126	0.083
-719.806	110.925	-0.012	0.015
-718.791	-200.000	0.036	0.175
-717.777	-200.000	-0.017	-0.291
-716.762	-97.626	-0.155	-0.041
-715.748	129.762	-0.097	-0.126
-714.733	-135.911	-0.168	0.020
-713.718	-184.185	-0.283	0.005
-712.704	-96.450	-0.219	0.059
-711.689	-154.252	0.132	-0.009
-710.675	-200.000	-0.014	-0.450
-709.660	217.800	0.057	0.092
-708.645	-167.347	0.146	0.006
-707.631	-149.167	-0.386	-0.031
-706.616	-61.746	-0.114	-0.048
-705.602	750.091	-0.132	-0.362
-704.587	222.136	0.112	-0.182
-703.572	-37.380	0.125	0.068
-702.558	-200.000	-0.026	-0.184
-701.543	475.043	0.133	-0.303
-700.529	-93.984	-0.061	-0.017
-699.514	49.288	-0.142	-0.135
-698.499	254.052	-0.149	-0.258
-697.485	-84.050	-0.266	0.086
-696.470	-200.000	-0.028	0.292
-695.456	-26.113	-0.078	-0.047
-694.441	-121.159	-0.150	-0.025
-693.426	389.633	-0.131	-0.275
-692.412	16.134	-0.109	0.087
-691.397	-73.357	-0.662	0.245
-690.383	-55.669	0.204	-0.093
-689.368	197.357	0.016	0.025
-688.354	-200.000	-0.027	-0.385
-687.339	609.267	0.031	0.078
-686.324	538.328	0.035	-0.083
-685.310	68.464	0.048	-0.050
-684.295	-200.000	-0.021	-0.104
-683.281	681.798	-0.017	-0.044
-682.266	-164.415	0.067	-0.003
-681.251	50.254	-0.252	0.241
-680.237	-53.886	-0.135	-0.062
-679.222	-122.048	0.082	0.014
-678.208	-33.564	0.178	-0.100
-677.193	36.594	0.115	-0.103
-676.178	582.698	-0.047	0.117
-675.164	194.480	0.133	-0.204
-674.149	-135.105	-0.324	-0.039
-673.135	-200.000	-0.038	0.206
-672.120	800.000	-0.021	0.064
-671.105	-50.460	0.233	0.111
-670.091	41.228	0.321	0.294
-669.076	-143.472	-0.358	-0.035
-668.062	-65.568	-0.275	-0.112
-667.047	-107.575	-0.183	0.040
-666.032	-200.000	0.004	-0.217
-665.018	-175.391	0.332	-0.009
-664.003	-44.350	0.086	-0.044
-662.989	800.000	-0.103	-0.357
-661.974	-169.543	-0.112	-0.004
-660.959	-48.078	0.025	-0.012
-659.945	-200.000	0.025	-0.189
-658.930	583.866	0.151	0.374
-657.916	800.000	0.109	-0.323
-656.901	487.485	-0.150	-0.345
-655.886	-41.479	0.033	0.017
-654.872	-62.228	0.120	-0.050
-653.857	-79.844	-0.178	0.060
-652.843	-38.218	-0.169	0.090
-651.828	-78.341	-0.366	0.127
-650.814	800.000	0.046	-0.145
-649.799	423.743	0.083	-0.180
-648.784	-93.036	-0.364	-0.102
-647.770	405.496	-0.102	-0.218
-646.755	-56.693	0.256	0.115
-645.741	-200.000	0.018	-0.287
-644.726	-149.376	0.190	0.015
-643.711	-104.528	-0.179	0.042
-642.697	-189.134	-0.295	-0.004
-641.682	-200.000	-0.015	-0.167
-640.668	130.778	0.181	-0.235
-639.653	-200.000	0.019	-0.154
-638.638	800.000	0.095	-0.272
-637.624	522.374	-0.089	-0.210
-636.609	388.126	-0.148	0.309
-635.595	-3.938	-0.225	-0.158
-634.580	-58.287	-0.234	-0.103
-633.565	108.201	-0.269	-0.324
-632.551	-200.000	0.047	-0.233
-631.536	-130.502	0.237	0.032
-630.522	-200.000	-0.035	-0.462
-629.507	372.364	0.153	-0.314
-628.492	-178.411	-0.133	0.003
-627.478	-200.000	0.000	-0.057
-626.463	-35.776	0.207	0.113
-625.449	-54.511	-0.034	0.016
-624.434	166.549	-0.127	-0.182
-623.419	-102.771	-0.208	-0.050
-622.405	-200.000	-0.009	-0.297
-621.390	-71.665	-0.031	-0.012
-620.376	-0.966	0.123	-0.088
-619.361	800.000	-0.020	-0.081
-618.346	-200.000	0.066	-0.462
-617.332	-200.000	-0.039	0.422
-616.317	-169.162	-0.360	-0.013
-615.303	381.379	-0.108	0.225
-614.288	0.237	-0.089	-0.064
-613.273	-49.871	0.148	-0.071
-612.259	-127.805	0.158	-0.023
-611.244	-123.448	-0.357	0.057
-610.230	800.000	0.117	-0.507
-609.215	282.069	-0.040	-0.073
-608.201	-12.020	-0.033	0.022
-607.186	-200.000	-0.003	0.136
-606.171	-200.000	-0.006	-0.038
-605.157	203.845	-0.145	0.227
-604.142	-34.534	0.255	-0.141
-603.128	380.466	-0.169	0.349
-602.113	-112.906	-0.465	0.093
-601.098	-134.510	-0.244	-0.030
-600.084	-200.000	-0.018	0.256
-599.069	-72.424	0.090	-0.034
-598.055	156.302	0.212	-0.295
-597.040	-0.746	0.167	0.119
-596.025	800.000	-0.079	-0.324
-595.011	-42.867	-0.124	-0.064
-593.996	43.123	-0.187	-0.172
-592.982	6.856	0.133	-0.100
-591.967	-69.446	-0.199	-0.077
-590.952	-49.995	-0.280	-0.134
-589.938	363.586	0.193	-0.392
-588.923	514.379	-0.159	0.373
-587.909	-20.042	0.167	-0.104
-586.894	-200.000	0.046	0.619
-585.879	-59.640	0.240	0.104
-584.865	35.833	0.106	0.094
-583.850	-122.234	-0.173	0.028
-582.836	-153.012	-0.148	0.011
-581.821	45.935	-0.149	-0.139
-580.806	-188.184	0.230	-0.003
-579.792	-200.000	0.020	0.176
-578.777	800.000	0.055	-0.243
-577.763	-200.000	0.013	-0.227
-576.748	27.307	-0.169	0.144
-575.733	363.787	-0.102	-0.206
-574.719	-5.484	0.131	-0.091
-573.704	800.000	-0.052	-0.179
-572.690	-121.030	0.287	-0.048
-571.675	-152.269	0.189	-0.014
-570.661	-4.365	0.188	-0.131
-569.646	585.392	-0.055	-0.136
-568.631	-87.622	-0.085	0.026
-567.617	-3.437	0.042	-0.030
-566.602	63.329	0.268	-0.271
-565.588	130.234	-0.251	0.324
-564.573	-108.438	-0.048	0.010
-563.558	-15.373	-0.211	0.136
-562.544	3.002	-0.052	-0.038
-561.529	31.229	-0.096	0.083
-560.515	-37.261	-0.359	-0.193
-559.500	-26.891	0.332	0.195
-558.485	131.389	0.206	-0.266
-557.471	88.990	0.161	0.180
-556.456	-103.885	0.289	-0.068
-555.442	-112.029	-0.242	-0.049
-554.427	-51.436	0.202	0.095
-553.412	-131.445	0.258	0.034
-552.398	-145.373	0.283	0.026
-551.383	-132.581	-0.239	-0.031
-550.369	-6.133	0.222	0.153
-549.354	278.171	0.130	0.234
-548.339	-119.862	-0.188	-0.033
-547.325	-153.946	-0.276	0.019
-546.310	38.818	-0.223	0.201
-545.296	508.227	0.191	0.447
-544.281	217.823	0.162	0.260
-543.266	-200.000	-0.005	0.176
-542.252	39.329	-0.038	-0.034
-541.237	-200.000	-0.052	-0.349
-540.223	10.858	-0.102	0.079
-539.208	800.000	0.056	0.235
-538.193	183.406	-0.111	0.165
-537.179	211.291	0.173	0.274
-536.164	-133.616	0.203	0.026
-535.150	-200.000	0.053	0.414
-534.135	-147.869	0.152	0.013
-533.121	25.397	0.176	0.147
-532.106	404.262	-0.063	0.135
-531.091	110.935	-0.045	0.054
-530.077	800.000	0.149	-0.447
-529.062	347.203	0.074	-0.147
-528.048	-102.554	0.103	-0.025
-527.033	-89.387	0.384	0.114
-526.018	-200.000	0.014	-0.318
-525.004	489.007	0.067	0.154
-523.989	-79.800	0.326	-0.110
-522.975	-92.735	-0.455	-0.128
-521.960	-142.623	-0.190	-0.019
-520.945	264.201	0.181	-0.318
-519.931	264.922	-0.113	0.197
-518.916	139.692	0.213	0.282
-517.902	-156.488	0.351	0.022
-516.887	-185.251	-0.381	0.006
-515.872	800.000	-0.005	-0.015
-514.858	-174.476	-0.149	0.004
-513.843	-124.199	0.044	0.007
-512.829	117.124	0.073	-0.090
-511.814	35.821	0.132	0.117
-510.799	-200.000	-0.010	-0.124
-509.785	800.000	-0.048	0.212
-508.770	-72.084	0.091	0.034
-507.756	351.669	-0.079	0.157
-506.741	-47.131	-0.079	0.039
-505.726	176.729	-0.073	0.107
-504.712	62.439	-0.317	-0.318
-503.697	1.925	-0.286	-0.207
-502.683	-200.000	-0.071	-0.479
-501.668	-69.709	0.112	0.043
-500.653	199.957	0.233	-0.360
-499.639	85.744	0.037	0.041
-498.624	513.427	0.090	-0.210
-497.610	-46.915	-0.132	0.065
-496.595	-76.745	0.032	-0.011
-495.581	800.000	0.088	-0.253
-494.566	-96.526	0.042	-0.011
-493.551	193.496	-0.124	-0.189
-492.537	-150.694	-0.380	0.029
-491.522	-200.000	-0.057	0.335
-490.508	366.972	-0.109	0.221
-489.493	151.800	0.054	-0.074
-488.478	-152.984	-0.249	0.018
-487.464	175.803	-0.171	-0.249
-486.449	145.950	-0.132	0.178
-485.435	-200.000	0.012	0.167
-484.420	123.497	-0.163	0.205
-483.405	-200.000	0.001	-0.048
-482.391	-200.000	-0.009	0.335
-481.376	-39.506	0.049	0.026
-480.362	23.873	-0.165	0.136
-479.347	31.063	0.126	-0.109
-478.332	-198.260	0.254	-0.001
-477.318	-200.000	0.000	0.248
-476.303	578.120	0.085	0.210
-475.289	164.562	-0.160	0.227
-474.274	-200.000	0.014	0.210
-473.259	-131.883	0.416	0.055
-472.245	22.959	-0.194	0.160
-471.230	-7.329	0.253	0.172
-470.216	-87.003	-0.037	-0.011
-469.201	-31.168	-0.193	-0.109
-468.186	11.245	-0.095	-0.073
-467.172	800.000	-0.066	0.196
-466.157	-129.125	-0.168	-0.024
-465.143	-200.000	0.035	-0.308
-464.128	800.000	0.051	-0.156
-463.113	169.002	0.034	-0.049
-462.099	-42.453	0.298	-0.153
-461.084	-200.000	-0.008	-0.038
-460.070	399.737	-0.085	-0.179
-459.055	-106.294	0.147	-0.033
-458.040	-76.081	0.197	-0.070
-457.026	-71.403	-0.240	0.090
-456.011	-73.065	0.091	0.034
-454.997	-113.257	0.152	-0.030
-453.982	86.001	0.107	0.118
-452.968	-110.965	0.308	-0.064
-451.953	612.547	-0.046	-0.115
-450.938	-162.097	-0.167	-0.008
-449.924	709.765	0.074	0.195
-448.909	31.629	-0.300	-0.259
-447.895	143.404	-0.183	-0.245
-446.880	-200.000	0.020	-0.193
-445.865	-102.218	-0.426	-0.103
-444.851	-200.000	-0.002	-0.056
-443.836	150.718	-0.170	-0.231
-442.822	382.928	-0.102	0.211
-441.807	-52.147	0.147	0.068
-440.792	800.000	0.147	0.467
-439.778	381.110	0.089	0.183
-438.763	-200.000	0.011	0.087
-437.749	-49.486	0.142	0.068
-436.734	800.000	-0.059	-0.180
-435.719	646.032	-0.073	-0.187
-434.705	-144.768	-0.221	-0.020
-433.690	-76.225	0.008	-0.003
-432.676	206.479	0.164	-0.256
-431.661	5.390	0.245	0.181
-430.646	439.230	0.044	0.096
-429.632	-39.537	-0.248	-0.130
-428.617	-141.633	0.127	0.013
-427.603	800.000	-0.047	-0.136
-426.588	-200.000	0.005	0.047
-425.573	250.562	0.079	-0.135
-424.559	26.931	-0.063	-0.053
-423.544	-49.907	-0.331	0.158
-422.530	800.000	0.119	0.463
-421.515	-40.302	-0.213	0.111
-420.500	-62.704	0.348	0.144
-419.486	-138.192	-0.331	-0.037
-418.471	-150.561	-0.279	0.021
-417.457	634.067	-0.113	-0.286
-416.442	-160.591	0.127	-0.007
-415.428	-200.000	-0.013	0.076
-414.413	140.487	0.048	-0.063
-413.398	-72.537	-0.150	0.055
-412.384	800.000	-0.043	0.168
-411.369	312.413	0.112	0.211
-410.355	118.405	0.098	-0.121
-409.340	-164.108	0.272	-0.013
-408.325	-95.342	-0.412	-0.111
-407.311	177.875	-0.073	-0.107
-406.296	374.135	-0.108	-0.220
-405.282	203.827	-0.194	-0.301
-404.267	-200.000	0.005	-0.092
-403.252	-78.113	0.090	0.031
-402.238	120.927	0.030	-0.037
-401.223	-184.145	-0.205	-0.003
-400.209	58.559	0.163	0.161
-399.194	494.058	0.123	-0.284
-398.179	-79.616	-0.300	-0.101
-397.165	299.102	0.098	0.180
-396.150	-135.639	0.225	-0.027
-395.136	136.582	-0.057	0.075
-394.121	-62.381	-0.115	-0.048
-393.106	800.000	0.014	-0.044
-392.092	52.899	0.237	-0.227
-391.077	-77.851	-0.157	0.054
-390.063	-200.000	0.020	-0.296
-389.048	-121.273	-0.304	-0.051
-388.033	178.163	0.083	-0.121
-387.019	-200.000	0.024	0.145
-386.004	-89.923	-0.355	-0.104
-384.990	51.026	0.190	-0.180
-383.975	800.000	0.075	-0.244
-382.960	-200.000	0.013	-0.164
-381.946	-36.325	-0.105	-0.057
-380.931	49.522	0.175	-0.165
-379.917	186.626	-0.098	0.146
-378.902	98.737	-0.130	0.149
-377.888	-153.400	-0.309	0.022
-376.873	-124.541	-0.197	0.031
-375.858	800.000	-0.085	-0.301
-374.844	60.101	0.021	0.021
-373.829	800.000	-0.066	0.195
-372.815	218.644	-0.069	0.110
-371.800	60.547	-0.328	-0.325
-370.785	-200.000	0.001	-0.113
-369.771	-3.099	-0.258	-0.180
-368.756	-200.000	-0.045	0.277
-367.742	-126.649	-0.443	0.066
-366.727	-200.000	-0.011	0.191
-365.712	556.820	-0.152	0.366
-364.698	-19.048	-0.280	-0.174
-363.683	-200.000	0.023	-0.116
-362.669	-200.000	0.008	-0.040
-361.654	-170.703	0.159	0.006
-360.639	800.000	0.026	0.099
-359.625	147.137	0.094	0.127
-358.610	-48.496	0.054	-0.026
-357.596	-144.435	0.322	0.030
-356.581	-78.245	-0.108	0.037
-355.566	-28.281	0.155	-0.090
-354.552	21.637	-0.324	-0.263
-353.537	154.590	0.177	-0.243
-352.523	172.484	0.103	0.148
-351.508	-115.500	-0.138	-0.026
-350.493	496.524	-0.102	0.234
-349.479	4.086	-0.248	0.181
-348.464	294.221	0.082	0.150
-347.450	27.490	0.175	-0.147
-346.435	50.599	-0.093	-0.088
-345.420	5.233	0.308	-0.227
-344.406	-38.101	0.161	-0.085
-343.391	-87.280	0.069	0.021
-342.377	-42.240	-0.140	-0.072
-341.362	-3.839	0.054	0.038
-340.348	-125.248	0.167	-0.026
-339.333	-76.818	-0.250	-0.087
-338.318	-31.707	0.115	0.064
-337.304	-17.570	0.016	0.010
-336.289	800.000	0.060	0.180
-335.275	22.710	0.219	0.179
-334.260	178.285	-0.002	-0.003
-333.245	-200.000	-0.023	-0.211
-332.231	800.000	0.031	-0.087
-331.216	141.768	-0.128	0.169
-330.202	-96.868	-0.060	-0.016
-329.187	47.443	-0.342	-0.318
-328.172	800.000	-0.044	0.192
-327.158	-110.158	-0.137	0.029
-326.143	-65.827	-0.280	0.112
-325.129	89.543	-0.209	0.233
-324.114	-200.000	0.007	0.203
-323.099	800.000	-0.037	-0.130
-322.085	-200.000	0.017	0.138
-321.070	800.000	0.031	0.113
-320.056	-153.333	0.286	0.020
-319.041	190.397	0.184	0.276
-318.026	40.254	0.133	0.119
-317.012	91.294	0.171	0.192
-315.997	113.637	0.127	-0.154
-314.983	-21.516	-0.058	-0.035
-313.968	-200.000	0.010	-0.104
-312.953	126.179	0.019	0.024
-311.939	124.825	0.118	-0.148
-310.924	-142.029	-0.308	0.031
-309.910	-200.000	0.034	-0.496
-308.895	800.000	0.066	-0.218
-307.880	800.000	0.070	0.297
-306.866	-94.753	0.239	-0.065
-305.851	665.135	-0.038	0.097
-304.837	55.814	0.099	0.095
-303.822	11.295	0.082	0.063
-302.807	800.000	-0.041	-0.132
-301.793	-107.625	-0.241	0.053
-300.778	101.806	-0.151	-0.175
-299.764	-200.000	0.021	0.397
-298.749	101.651	0.145	0.169
-297.735	-19.041	0.255	0.158
-296.720	-101.010	-0.382	0.093
-295.705	130.772	0.183	0.234
-294.691	-150.211	0.319	-0.025
-293.676	-19.550	-0.261	0.161
-292.662	-18.010	0.148	0.093
-291.647	-108.104	-0.546	0.118
-290.632	279.946	-0.020	-0.036
-289.618	115.181	0.149	-0.182
-288.603	-200.000	-0.053	0.519
-287.589	-76.909	-0.252	0.088
-286.574	-133.883	-0.295	-0.036
-285.559	412.889	0.177	0.375
-284.545	528.008	-0.082	0.192
-283.530	-71.989	0.179	0.066
-282.516	-44.279	0.281	0.140
-281.501	-200.000	0.018	-0.087
-280.486	800.000	0.112	0.351
-279.472	182.284	0.222	-0.326
-278.457	-136.871	0.118	-0.013
-277.443	82.109	-0.090	0.097
-276.428	800.000	0.008	-0.029
-275.413	383.950	0.071	-0.146
-274.399	226.157	0.288	-0.466
-273.384	-62.565	0.213	0.088
-272.370	-200.000	0.040	0.185
-271.355	800.000	0.065	0.256
-270.340	272.924	-0.110	-0.193
-269.326	617.534	-0.136	-0.341
-268.311	-200.000	-0.008	-0.174
-267.297	64.903	-0.205	-0.206
-266.282	-137.899	0.268	-0.030
-265.267	-81.031	-0.208	0.069
-264.253	800.000	0.091	0.292
-263.238	-140.453	-0.186	-0.019
-262.224	800.000	-0.046	0.165
-261.209	-75.047	-0.089	0.032
-260.195	180.025	-0.117	-0.171
-259.180	-35.171	0.304	0.165
-258.165	-117.262	-0.400	-0.072
-257.151	800.000	0.040	0.155
-256.136	61.855	-0.069	0.069
-255.122	-200.000	-0.011	-0.091
-254.107	-74.726	0.037	0.013
-253.092	78.240	0.174	-0.185
-252.078	35.730	-0.294	-0.257
-251.063	-200.000	-0.001	-0.034
-250.049	-93.244	-0.075	-0.021
-249.034	800.000	-0.058	-0.169
-248.019	233.886	0.083	-0.135
-247.005	40.099	0.059	0.052
-245.990	582.902	0.119	0.292
-244.976	-200.000	-0.009	0.229
-243.961	-94.452	0.478	0.130
-242.946	-17.299	-0.151	-0.095
-241.932	-106.177	-0.447	0.100
-240.917	-200.000	0.004	-0.381
-239.903	-200.000	0.009	-0.124
-238.888	-66.932	0.191	0.075
-237.873	-76.652	0.166	0.058
-236.859	-3.551	0.294	0.203
-235.844	104.627	-0.178	-0.208
-234.830	-23.397	0.129	-0.077
-233.815	86.200	0.463	-0.507
-232.800	-79.149	-0.156	-0.053
-231.786	-200.000	-0.000	-0.136
-230.771	255.236	-0.211	0.360
-229.757	-38.144	-0.331	-0.175
-228.742	-10.248	-0.166	0.110
-227.727	-40.980	0.328	0.169
-226.713	442.690	0.087	0.190
-225.698	20.561	0.261	-0.210
-224.684	217.088	0.236	-0.373
-223.669	478.628	0.145	-0.328
-222.655	271.999	-0.021	0.038
-221.640	142.225	-0.138	0.182
-220.625	-70.039	0.302	0.114
-219.611	800.000	-0.051	0.190
-218.596	-122.862	0.286	-0.046
-217.582	-154.947	0.206	-0.013
-216.567	79.842	0.189	-0.201
-215.552	-200.000	0.040	0.189
-214.538	800.000	0.013	0.052
-213.523	297.680	0.066	-0.120
-212.509	800.000	-0.083	-0.266
-211.494	101.423	0.143	0.166
-210.479	-176.637	0.344	0.009
-209.465	114.824	0.096	-0.116
-208.450	-200.000	0.033	-0.163
-207.436	98.562	-0.217	0.248
-206.421	144.185	-0.199	-0.264
-205.406	-186.626	-0.094	-0.001
-204.392	638.472	-0.147	0.371
-203.377	34.062	0.094	0.081
-202.363	-200.000	0.021	0.299
-201.348	-85.961	0.128	0.039
-200.333	-200.000	-0.023	-0.203
-199.319	-58.720	0.103	-0.044
-198.304	286.637	-0.075	-0.135
-197.290	-0.350	0.136	-0.096
-196.275	116.590	-0.016	-0.020
-195.260	122.719	0.150	-0.187
-194.246	-200.000	-0.048	0.278
-193.231	-31.701	0.265	-0.148
-192.217	1.426	0.322	0.230
-191.202	237.559	-0.185	0.304
-190.187	157.106	0.099	0.136
-189.173	-56.903	-0.208	0.091
-188.158	-135.344	0.219	0.026
-187.144	-122.799	0.097	-0.016
-186.129	764.171	0.102	0.274
-185.114	176.334	0.086	-0.125
-184.100	-200.000	-0.002	0.258
-183.085	800.000	0.034	0.113
-182.071	184.937	0.147	0.217
-181.056	53.331	-0.259	0.246
-180.042	-29.340	-0.263	0.149
-179.027	16.361	0.249	0.195
-178.012	-200.000	-0.003	-0.227
-176.998	-76.949	-0.319	0.111
-175.983	-200.000	-0.040	0.193
-174.969	32.095	0.081	0.069
-173.954	45.162	0.232	0.213
-172.939	-200.000	0.031	0.422
-171.925	-118.974	0.215	0.037
-170.910	-200.000	-0.048	0.248
-169.896	-116.415	-0.159	-0.029
-168.881	800.000	0.101	-0.284
-167.866	-48.941	0.231	-0.110
-166.852	-200.000	0.208	0.000
-165.837	205.096	0.029	-0.045
-164.823	713.929	0.034	0.090
-163.808	-64.086	-0.135	-0.055
-162.793	228.976	-0.121	-0.196
-161.779	5.086	0.261	-0.191
-160.764	-200.000	0.062	0.287
-159.750	800.000	-0.057	-0.155
-158.735	518.114	0.071	-0.165
-157.720	-200.000	0.040	0.254
-156.706	26.908	-0.355	0.295
-155.691	-78.943	0.193	0.065
-154.677	-95.941	-0.352	0.093
-153.662	-63.767	0.244	0.099
-152.647	730.935	-0.012	-0.031
-151.633	-122.360	0.402	0.065
-150.618	-182.523	0.113	-0.002
-149.604	-29.150	0.239	-0.136
-148.589	-200.000	-0.043	0.300
-147.574	87.926	0.041	-0.045
-146.560	-132.733	0.551	-0.070
-145.545	265.437	-0.115	0.198
-144.531	151.141	0.140	0.188
-143.516	-200.000	0.056	0.380
-142.502	48.947	-0.164	-0.153
-141.487	800.000	-0.019	-0.057
-140.472	-148.872	0.019	0.001
-139.458	-200.000	-0.025	-0.497
-138.443	-66.962	0.196	0.077
-137.429	-20.875	0.118	0.071
-136.414	38.568	-0.060	0.053
-135.399	-181.519	0.138	0.003
-134.385	762.363	0.048	-0.130
-133.370	800.000	0.031	-0.119
-132.356	-200.000	0.007	0.056
-131.341	-16.388	0.145	0.091
-130.326	498.988	0.125	-0.285
-129.312	59.107	0.210	-0.205
-128.297	-109.020	0.223	0.047
-127.283	260.870	0.119	0.205
-126.268	357.286	0.104	-0.205
-125.253	-40.811	-0.143	-0.073
-124.239	-102.482	-0.223	-0.053
-123.224	0.874	0.167	0.118
-122.210	137.918	0.195	0.253
-121.195	9.119	0.264	0.198
-120.180	33.988	0.204	-0.176
-119.166	-126.260	0.212	0.031
-118.151	-122.340	-0.531	0.086
-117.137	-200.000	0.057	0.280
-116.122	-131.084	0.302	-0.040
-115.107	-133.009	-0.208	-0.026
-114.093	107.628	0.172	0.203
-113.078	434.556	0.041	-0.088
-112.064	4.880	0.178	0.130
-111.049	145.800	-0.163	0.217
-110.034	72.225	0.186	-0.192
-109.020	31.583	-0.045	0.038
-108.005	-75.506	0.056	0.020
-106.991	453.880	-0.173	0.379
-105.976	11.103	0.066	0.050
-104.962	-200.000	0.028	0.318
-103.947	-200.000	-0.000	0.293
-102.932	-43.986	-0.349	0.174
-101.918	25.898	0.351	0.289
-100.903	210.456	0.258	0.402
-99.889	-127.062	0.287	-0.042
-98.874	800.000	-0.038	-0.142
-97.859	-2.524	0.108	0.075
-96.845	-8.736	-0.225	0.149
-95.830	-139.097	0.157	0.017
-94.816	63.412	-0.198	0.197
-93.801	-129.236	0.206	0.028
-92.786	-52.790	0.069	-0.031
-91.772	-56.068	0.107	-0.047
-90.757	-46.494	0.146	-0.071
-89.743	49.595	-0.190	0.177
-88.728	391.233	0.204	0.420
-87.713	-200.000	0.046	0.309
-86.699	462.221	-0.045	-0.099
-85.684	-75.268	0.101	0.036
-84.670	-25.399	-0.066	-0.039
-83.655	-35.021	0.237	0.128
-82.640	800.000	-0.085	0.290
-81.626	-23.716	0.235	0.139
-80.611	290.840	-0.095	0.170
-79.597	-77.208	0.359	0.124
-78.582	-112.869	0.245	0.048
-77.567	-100.707	0.152	0.037
-76.553	135.787	-0.073	0.094
-75.538	112.882	0.143	0.172
-74.524	377.213	-0.086	-0.174
-73.509	-20.936	-0.164	-0.099
-72.494	800.000	0.049	-0.151
-71.480	151.184	0.124	0.167
-70.465	226.721	0.116	0.186
-69.451	-200.000	-0.004	-0.154
-68.436	800.000	0.083	0.269
-67.422	-17.684	0.085	0.053
-66.407	-11.258	-0.292	0.190
-65.392	108.832	0.047	0.055
-64.378	-200.000	0.067	-0.410
-63.363	149.221	-0.109	0.145
-62.349	109.365	-0.065	0.076
-61.334	75.629	-0.961	-1.002
-60.319	98.465	0.426	0.485
-59.305	-200.000	-0.049	-0.793
-58.290	294.259	0.444	0.802
-57.276	334.533	0.676	1.292
-56.261	-200.000	97.475	594.303
-55.246	611.980	1433.588	3541.888
-54.232	182.287	2637.313	3839.228
-53.217	117.882	2211.904	2690.891
-52.203	43.549	1741.028	1572.404
-51.188	36.085	1553.534	1350.941
-50.173	33.788	1526.081	1311.176
-49.159	53.356	1576.359	1492.106
-48.144	55.453	1594.560	1523.986
-47.130	36.459	1552.091	1352.096
-46.115	33.326	1536.362	1316.591
-45.100	33.128	1533.440	1312.659
-44.086	33.029	1531.661	1310.393
-43.071	33.061	1529.714	1308.900
-42.057	33.094	1527.808	1307.447
-41.042	33.116	1526.452	1306.383
-40.027	33.094	1524.897	1304.848
-39.013	33.049	1523.746	1303.500
-37.998	33.039	1523.100	1302.832
-36.984	33.050	1521.543	1301.521
-35.969	32.972	1520.628	1300.149
-34.954	33.047	1518.292	1298.618
-33.940	33.034	1516.979	1297.357
-32.925	33.068	1516.245	1296.909
-31.911	33.119	1514.201	1295.461
-30.896	33.076	1513.079	1294.149
-29.881	33.059	1512.284	1293.305
-28.867	33.064	1510.152	1291.466
-27.852	33.074	1509.136	1290.613
-26.838	33.175	1507.463	1289.820
-25.823	33.115	1506.287	1288.351
-24.809	33.183	1504.178	1286.963
-23.794	33.057	1502.774	1284.851
-22.779	32.997	1501.865	1283.615
-21.765	33.056	1500.584	1282.870
-20.750	32.969	1499.975	1281.708
-19.736	33.012	1498.594	1280.770
-18.721	33.056	1497.282	1279.893
-17.706	32.938	1496.823	1278.656
-16.692	32.887	1495.685	1277.288
-15.677	33.107	1493.905	1277.204
-14.663	32.992	1493.232	1275.799
-13.648	33.028	1492.579	1275.432
-12.633	33.064	1491.611	1274.798
-11.619	33.068	1490.740	1274.027
-10.604	32.936	1490.058	1272.508
-9.590	33.012	1488.828	1271.920
-8.575	32.971	1487.628	1270.569
-7.560	33.009	1487.259	1270.456
-6.546	33.003	1486.355	1269.591
-5.531	33.010	1485.198	1268.605
-4.517	32.948	1484.370	1267.429
-3.502	32.989	1483.332	1266.767
-2.487	32.959	1481.866	1265.260
-1.473	32.901	1481.346	1264.383
-0.458	33.085	1479.504	1263.989
0.556	35.164	1470.506	1254.067
1.571	32.301	1444.193	1213.082
2.586	28.544	1381.308	1136.924
3.600	26.550	1297.730	1056.414
4.615	24.263	1249.995	1004.592
5.629	20.446	1191.872	937.241
6.644	11.993	1106.077	827.196
7.659	5.638	1065.119	765.518
8.673	4.658	1059.016	756.300
9.688	4.462	1056.411	753.421
10.702	4.258	1054.605	751.083
11.717	4.543	1052.614	750.973
12.731	7.567	1056.415	768.266
13.746	16.053	1067.921	817.905
14.761	21.700	1075.610	851.242
15.775	22.197	1075.186	853.242
16.790	21.552	1073.036	848.336
17.804	20.506	1071.205	841.751
18.819	19.675	1069.626	836.415
19.834	19.276	1067.784	832.972
20.848	19.136	1066.959	831.579
21.863	19.001	1066.631	830.596
22.877	18.808	1065.702	828.871
23.892	18.655	1064.811	827.365
24.907	18.588	1064.301	826.571
25.921	18.561	1063.527	825.770
26.936	18.541	1062.524	824.821
27.950	18.582	1061.515	824.161
28.965	18.568	1060.523	823.253
29.980	18.559	1059.438	822.294
30.994	18.737	1058.561	822.391
32.009	19.027	1057.291	822.721
33.023	19.008	1056.872	822.232
34.038	19.018	1055.805	821.377
35.053	18.886	1055.174	820.181
36.067	18.666	1054.387	818.451
37.082	18.584	1053.515	817.310
38.096	18.701	1052.560	817.054
39.111	18.757	1051.846	816.693
40.126	18.875	1051.119	816.618
41.140	18.829	1049.587	815.135
42.155	18.586	1048.097	812.757
43.169	18.242	1047.602	810.671
44.184	18.247	1046.180	809.521
45.199	18.121	1045.056	807.983
46.213	18.188	1044.387	807.714
47.228	18.328	1043.354	807.500
48.242	18.558	1042.523	807.872
49.257	18.741	1041.864	808.151
50.271	18.740	1040.782	807.237
51.286	18.799	1039.631	806.550
52.301	18.753	1039.468	806.136
53.315	18.780	1038.652	805.555
54.330	18.634	1037.401	803.830
55.344	18.434	1036.981	802.496
56.359	18.356	1035.778	801.132
57.374	18.539	1034.850	801.199
58.388	18.475	1034.126	800.269
59.403	18.299	1033.260	798.704
60.417	18.192	1032.663	797.675
61.432	18.233	1031.428	796.841
62.447	18.328	1030.743	796.681
63.461	18.140	1029.858	795.055
64.476	18.187	1029.336	794.800
65.490	18.040	1028.284	793.235
66.505	18.091	1027.473	792.774
67.520	18.106	1026.882	792.320
68.534	18.055	1026.131	791.435
69.549	18.126	1025.346	791.089
70.563	18.090	1024.569	790.248
71.578	18.050	1023.604	789.251
72.593	17.860	1023.324	788.089
73.607	17.871	1021.689	786.808
74.622	17.847	1020.386	785.627
75.636	17.892	1019.597	785.158
76.651	17.930	1018.968	784.778
77.666	17.995	1018.235	784.444
78.680	17.950	1017.830	783.854
79.695	18.020	1017.183	783.606
80.709	18.097	1016.369	783.264
81.724	18.176	1016.035	783.300
82.739	18.342	1014.929	783.136
83.753	18.401	1014.416	782.940
84.768	18.488	1013.907	782.875
85.782	18.837	1013.353	783.971
86.797	18.924	1013.052	784.066
87.812	19.020	1012.007	783.625
88.826	18.821	1011.137	781.978
89.841	18.713	1010.578	780.986
90.855	18.821	1009.288	780.410
91.870	18.887	1008.669	780.160
92.884	18.960	1008.211	780.071
93.899	18.945	1007.391	779.299
94.914	18.968	1006.204	778.415
95.928	18.962	1006.372	778.449
96.943	19.126	1004.951	778.019
97.957	18.972	1003.873	776.422
98.972	18.737	1003.178	774.756
99.987	18.700	1002.856	774.274
101.001	18.822	1002.290	774.318
102.016	18.658	1001.392	772.817
103.030	18.813	1000.215	772.534
104.045	18.783	999.225	771.570
105.060	18.872	998.422	771.280
106.074	18.774	997.241	769.857
107.089	18.553	995.975	767.825
108.103	18.265	994.788	765.555
109.118	18.272	993.649	764.642
110.133	18.268	993.039	764.087
111.147	18.084	992.256	762.594
112.162	18.222	991.016	762.191
113.176	18.065	990.872	761.309
114.191	18.221	989.923	761.208
115.206	18.417	989.386	761.600
116.220	18.391	988.104	760.432
117.235	18.318	987.387	759.487
118.249	18.154	986.740	758.197
119.264	18.321	985.300	757.761
120.279	18.123	984.809	756.441
121.293	18.091	983.806	755.462
122.308	18.082	983.370	755.021
123.322	18.027	982.235	753.838
124.337	17.920	981.045	752.387
125.352	17.924	980.196	751.687
126.366	17.848	979.061	750.416
127.381	18.084	977.812	750.430
128.395	17.954	976.738	748.969
129.410	17.958	976.193	748.502
130.424	18.097	975.205	748.285
131.439	18.104	974.671	747.841
132.454	18.269	974.018	747.997
133.468	18.288	973.195	747.380
134.483	18.220	972.591	746.555
135.497	18.468	971.565	746.780
136.512	18.387	970.783	745.762
137.527	18.433	970.052	745.336
138.541	18.395	969.712	744.843
139.556	18.324	968.953	743.883
140.570	18.350	968.510	743.593
141.585	18.431	967.850	743.368
142.600	18.719	966.890	743.816
143.614	18.680	966.850	743.548
144.629	18.803	965.770	743.184
145.643	18.821	965.512	743.000
146.658	18.808	964.216	741.880
147.673	18.803	962.804	740.708
148.687	18.645	961.770	739.164
149.702	18.469	961.184	737.891
150.716	18.399	960.112	736.701
151.731	18.345	959.224	735.723
152.746	18.398	958.560	735.379
153.760	18.436	958.079	735.107
154.775	18.446	957.106	734.338
155.789	18.633	956.252	734.416
156.804	18.685	955.493	733.991
157.819	18.729	954.540	733.383
158.833	18.684	954.214	732.875
159.848	18.682	953.824	732.501
160.862	19.051	952.926	733.322
161.877	18.933	952.551	732.466
162.892	18.780	951.047	730.592
163.906	18.463	950.288	728.597
164.921	18.360	949.280	727.322
165.935	18.338	948.424	726.508
166.950	18.332	947.429	725.656
167.964	18.480	946.873	725.794
168.979	18.511	945.523	724.824
169.994	18.409	944.569	723.601
171.008	18.316	943.620	722.415
172.023	18.498	943.119	722.735
173.037	18.628	942.304	722.597
174.052	18.732	941.942	722.692
175.067	18.862	941.007	722.459
176.081	18.606	939.737	720.343
177.096	18.487	938.386	718.743
178.110	18.336	938.279	717.965
179.125	18.465	937.270	717.670
180.140	18.617	936.576	717.710
181.154	18.547	936.145	717.023
182.169	18.693	935.462	717.049
183.183	18.822	934.990	717.161
184.198	18.706	934.662	716.361
185.213	18.825	933.738	716.086
186.227	18.703	933.220	715.118
187.242	18.813	932.778	715.174
188.256	18.988	931.928	715.187
189.271	19.121	931.217	715.130
190.286	19.190	930.405	714.729
191.300	18.906	929.592	712.863
192.315	18.523	928.573	710.434
193.329	18.225	927.753	708.508
194.344	18.256	927.029	708.023
195.359	18.447	926.805	708.580
196.373	18.549	926.203	708.477
197.388	18.752	925.566	708.766
198.402	18.915	925.046	708.977
199.417	19.137	924.875	709.700
200.432	19.134	924.986	709.709
201.446	19.201	924.785	709.766
202.461	19.375	923.843	709.697
203.475	19.635	923.004	710.060
204.490	19.463	922.698	709.052
205.504	19.093	921.454	706.516
206.519	19.054	920.799	705.794
207.534	18.988	919.662	704.589
208.548	19.068	918.665	704.090
209.563	18.959	918.170	703.200
210.577	19.036	917.885	703.236
211.592	19.042	917.438	702.856
212.607	19.271	916.659	703.132
213.621	19.323	916.596	703.235
214.636	19.259	915.598	702.143
215.650	19.178	915.029	701.318
216.665	19.211	914.993	701.359
217.680	19.365	913.831	701.036
218.694	19.279	914.034	700.779
219.709	19.500	913.112	700.908
220.723	19.425	912.652	700.186
221.738	19.367	911.908	699.317
222.753	19.309	910.805	698.178
223.767	19.238	909.946	697.166
224.782	19.408	909.110	697.154
225.796	19.419	908.635	696.774
226.811	19.619	908.431	697.360
227.826	19.616	907.105	696.269
228.840	19.332	906.413	694.533
229.855	19.288	905.774	693.806
230.869	19.374	904.982	693.482
231.884	19.343	904.611	693.013
232.899	19.208	904.010	691.950
233.913	19.251	903.159	691.410
234.928	19.090	902.530	690.219
235.942	18.896	902.411	689.291
236.957	19.044	901.040	688.774
237.972	19.064	900.282	688.216
238.986	19.037	899.626	687.543
240.001	19.090	898.839	687.093
241.015	19.043	898.575	686.643
242.030	19.095	897.799	686.197
243.045	19.130	897.511	686.055
244.059	19.286	897.095	686.299
245.074	19.353	896.055	685.710
246.088	19.432	895.291	685.376
247.103	19.334	895.208	684.862
248.117	19.576	894.418	685.159
249.132	19.726	893.997	685.372
250.147	20.131	893.195	686.297
251.161	20.151	893.164	686.292
252.176	20.373	892.554	686.641
253.190	20.136	892.182	685.360
254.205	20.366	891.454	685.645
255.220	20.262	890.996	684.824
256.234	20.219	890.206	683.987
257.249	20.336	889.393	683.760
258.263	20.300	888.905	683.183
259.278	20.264	888.561	682.718
260.293	20.191	888.145	682.050
261.307	20.213	887.657	681.700
262.322	20.244	887.247	681.448
263.336	20.487	886.064	681.431
264.351	20.426	885.601	680.777
265.366	20.323	885.021	679.867
266.380	20.376	884.434	679.565
267.395	20.450	883.752	679.269
268.409	20.271	882.535	677.574
269.424	20.316	881.785	677.113
270.439	20.194	881.477	676.343
271.453	20.278	880.605	675.940
272.468	20.191	879.848	674.961
273.482	19.993	878.897	673.400
274.497	20.088	878.463	673.379
275.512	20.041	878.096	672.857
276.526	20.146	877.055	672.404
277.541	20.151	876.373	671.844
278.555	20.022	876.519	671.396
279.570	20.193	875.906	671.530
280.585	20.496	875.218	672.115
281.599	20.620	874.409	671.911
282.614	20.319	873.967	670.352
283.628	20.120	873.340	669.040
284.643	20.249	872.428	668.780
285.657	20.217	872.148	668.384
286.672	20.108	871.837	667.666
287.687	20.284	870.912	667.579
288.701	20.257	870.587	667.163
289.716	20.325	869.777	666.745
290.730	20.397	868.834	666.242
291.745	20.338	868.610	665.782
292.760	20.362	868.072	665.405
293.774	20.375	867.365	664.852
294.789	20.585	866.805	665.168
295.803	20.481	866.670	664.607
296.818	20.456	865.419	663.495
297.833	20.334	864.669	662.397
298.847	20.317	864.214	661.926
299.862	20.299	863.403	661.176
300.876	20.447	862.970	661.348
301.891	20.548	862.280	661.144
302.906	20.703	861.892	661.380
303.920	20.788	861.463	661.315
304.935	20.715	861.046	660.658
305.949	20.956	860.866	661.376
306.964	20.996	859.876	660.710
307.979	20.633	859.140	658.709
308.993	20.604	858.418	657.989
310.008	20.662	858.195	657.977
311.022	20.859	857.590	658.200
312.037	20.741	857.110	657.329
313.052	20.605	856.418	656.225
314.066	20.531	855.321	655.049
315.081	20.454	854.762	654.272
316.095	20.457	854.075	653.702
317.110	20.407	853.418	652.952
318.125	20.362	853.000	652.407
319.139	20.467	852.577	652.419
320.154	20.400	852.308	651.905
321.168	20.346	851.794	651.249
322.183	20.518	850.874	651.133
323.197	20.449	850.781	650.745
324.212	20.567	849.735	650.329
325.227	20.523	849.329	649.798
326.241	20.708	848.657	649.917
327.256	20.568	848.104	648.915
328.270	20.331	847.774	647.720
329.285	20.534	846.997	647.826
330.300	20.638	846.057	647.437
331.314	20.324	845.910	646.098
332.329	20.541	845.402	646.461
333.343	20.601	845.089	646.386
334.358	20.763	844.281	646.313
335.373	20.854	843.601	646.072
336.387	20.749	843.538	645.578
337.402	20.914	842.775	645.547
338.416	20.968	842.248	645.286
339.431	21.097	842.008	645.521
340.446	21.142	841.255	645.053
341.460	21.273	841.006	645.290
342.475	21.211	840.556	644.661
343.489	21.338	839.951	644.606
344.504	21.301	839.676	644.200
345.519	21.377	839.006	643.912
346.533	21.419	838.726	643.792
347.548	21.491	838.196	643.595
348.562	21.321	837.193	642.143
349.577	21.227	836.379	641.118
350.592	21.071	835.585	639.880
351.606	20.883	835.456	639.035
352.621	20.769	834.721	637.996
353.635	20.882	834.489	638.180
354.650	20.941	834.204	638.119
355.665	20.876	833.815	637.529
356.679	21.217	832.969	638.072
357.694	21.063	832.964	637.448
358.708	21.080	832.158	636.838
359.723	21.161	831.161	636.314
360.738	21.106	830.743	635.735
361.752	21.185	830.418	635.719
362.767	21.252	830.277	635.797
363.781	21.209	829.944	635.330
364.796	21.416	829.477	635.669
365.810	21.710	829.192	636.462
366.825	21.747	828.852	636.281
367.840	21.793	828.474	636.101
368.854	21.897	827.723	635.844
369.869	21.756	827.054	634.764
370.883	21.522	826.807	633.670
371.898	21.570	826.082	633.232
372.913	21.707	825.432	633.173
373.927	21.886	824.938	633.386
374.942	21.913	823.842	632.585
375.956	21.624	823.546	631.258
376.971	21.679	823.249	631.173
377.986	21.716	822.401	630.603
379.000	21.855	822.234	630.916
380.015	21.924	821.955	630.896
381.029	21.959	821.218	630.399
382.044	21.891	820.289	629.387
383.059	21.844	820.041	628.974
384.073	21.948	819.333	628.747
385.088	22.044	818.520	628.410
386.102	21.679	817.872	626.552
387.117	21.469	817.182	625.217
388.132	21.558	816.603	625.039
389.146	21.618	816.837	625.376
390.161	21.574	816.558	624.949
391.175	21.658	816.008	624.774
392.190	21.833	815.672	625.085
393.205	21.684	815.327	624.234
394.219	21.702	814.251	623.420
395.234	21.556	813.935	622.603
396.248	21.466	813.450	621.857
397.263	21.302	812.979	620.857
398.278	21.539	811.734	620.695
399.292	21.397	811.696	620.106
400.307	21.510	811.126	620.016
401.321	21.378	810.871	619.298
402.336	21.523	810.400	619.398
403.350	21.573	810.340	619.473
404.365	21.539	809.815	618.897
405.380	21.781	809.575	619.514
406.394	21.925	808.962	619.499
407.409	22.033	808.648	619.584
408.423	22.221	808.076	619.754
409.438	22.161	807.753	619.241
410.453	22.118	807.606	618.920
411.467	22.273	806.922	618.889
412.482	22.409	806.220	618.773
413.496	22.381	805.929	618.396
414.511	22.407	805.995	618.482
415.526	22.479	805.378	618.209
416.540	22.442	804.791	617.573
417.555	22.423	804.168	616.975
418.569	22.297	803.949	616.309
419.584	22.349	803.332	615.963
420.599	22.375	802.906	615.675
421.613	160.579	1368.805	1792.057
422.628	139.537	1451.247	1792.168
