DTS Sentinel unit serial number:	SN413079Multiplexer serial number:	ORYXHardware model number:	OX4-SRSoftware version number:	ORYX F/W v4.00 Oryx Data Collector v3.7.2.0data status	okinstallation	princeton_trtdifferential loss correction	single-endedforward channel	channel 3reverse channel	N/Adate	2019/09/13time	17:16:35forward acquisition time	60.00reverse acquisition time	0.00gamma	496.2192k internal	0.2293k external	0.2293temperature offset calibration	1.0124default loss term (dB/km)	0.3790temperature slope calibration	1.0000multiplexer offset coefficient	1.0000multiplexer slope coefficient	1.0000fibre end	0.00T internal ref (°C)	35.77T ext. ref 1 (°C)	4.78T ext. ref 2 (°C)	35.26length (m)	temperature (°C)	Stokes	anti-Stokes-747.200	-51.594	-0.074	0.035
-746.185	33.634	-0.477	0.424
-745.171	448.584	0.079	0.179
-744.156	-106.875	-0.234	0.053
-743.142	-162.235	-0.403	-0.021
-742.127	-17.615	-0.232	-0.149
-741.112	413.050	-0.093	-0.203
-740.098	-200.000	0.011	0.073
-739.083	-200.000	0.000	0.084
-738.069	94.001	-0.136	0.158
-737.054	-200.000	0.062	0.288
-736.039	-200.000	0.089	-0.000
-735.025	-14.940	0.178	0.117
-734.010	275.784	0.027	-0.048
-732.996	204.098	-0.162	-0.257
-731.981	723.351	-0.091	-0.249
-730.966	-200.000	-0.032	-0.189
-729.952	201.902	0.109	-0.171
-728.937	-31.738	-0.441	0.253
-727.923	461.127	-0.048	-0.110
-726.908	-46.043	-0.273	0.137
-725.894	-28.178	-0.283	0.167
-724.879	110.516	-0.093	0.114
-723.864	49.164	-0.116	-0.111
-722.850	183.901	-0.105	0.159
-721.835	-200.000	-0.005	-0.068
-720.821	-11.968	-0.089	-0.060
-719.806	44.566	-0.179	0.168
-718.791	549.166	0.051	0.124
-717.777	260.187	0.049	-0.087
-716.762	98.412	-0.138	-0.162
-715.748	-48.548	0.070	-0.034
-714.733	-133.510	0.110	0.014
-713.718	144.964	-0.010	0.014
-712.704	-200.000	0.024	-0.167
-711.689	-83.607	-0.161	0.053
-710.675	-94.526	0.155	-0.043
-709.660	63.615	0.059	-0.061
-708.645	-10.632	0.261	0.176
-707.631	-91.613	0.342	-0.099
-706.616	-41.280	-0.209	-0.110
-705.602	800.000	-0.117	-0.431
-704.587	-7.291	0.197	-0.137
-703.572	207.926	0.088	-0.141
-702.558	45.030	-0.110	0.103
-701.543	30.313	-0.145	-0.126
-700.529	46.940	-0.171	-0.162
-699.514	-66.441	0.211	0.086
-698.499	225.619	-0.098	0.162
-697.485	181.995	0.054	-0.081
-696.470	-98.787	-0.280	0.073
-695.456	800.000	-0.025	-0.075
-694.441	271.775	0.037	-0.067
-693.426	214.091	0.235	0.379
-692.412	-52.393	-0.444	-0.210
-691.397	-200.000	-0.036	-0.399
-690.383	-200.000	-0.013	-0.119
-689.368	-57.986	-0.103	0.046
-688.354	66.582	-0.354	-0.367
-687.339	-27.817	0.053	0.031
-686.324	418.142	-0.173	0.378
-685.310	-148.141	-0.179	-0.015
-684.295	-131.809	-0.270	-0.036
-683.281	800.000	0.035	-0.148
-682.266	800.000	0.084	-0.304
-681.251	662.577	0.119	0.313
-680.237	277.136	0.108	0.195
-679.222	513.394	-0.125	-0.297
-678.208	-200.000	-0.043	-0.310
-677.193	-200.000	-0.019	-0.205
-676.178	-137.030	0.108	0.013
-675.164	20.243	-0.265	0.218
-674.149	-200.000	0.042	-0.245
-673.135	800.000	-0.065	0.250
-672.120	245.765	-0.169	-0.290
-671.105	-200.000	0.016	-0.075
-670.091	-92.543	0.246	-0.071
-669.076	-40.541	-0.172	-0.091
-668.062	-191.365	-0.170	-0.002
-667.047	-88.014	-0.317	-0.097
-666.032	-200.000	-0.001	-0.124
-665.018	-67.195	-0.287	0.115
-664.003	-21.342	-0.147	0.092
-662.989	-156.692	-0.110	-0.007
-661.974	-145.645	-0.223	-0.020
-660.959	123.437	0.040	-0.051
-659.945	800.000	0.101	0.311
-658.930	-120.502	-0.255	0.044
-657.916	800.000	0.073	-0.268
-656.901	-200.000	-0.017	0.171
-655.886	248.326	0.242	-0.417
-654.872	370.457	-0.036	-0.073
-653.857	-200.000	-0.018	-0.163
-652.843	-33.484	0.083	-0.047
-651.828	611.852	-0.070	0.179
-650.814	-200.000	0.026	-0.120
-649.799	27.767	0.102	-0.088
-648.784	-200.000	0.011	-0.130
-647.770	-54.784	0.124	-0.057
-646.755	800.000	0.049	-0.187
-645.741	-27.157	0.294	0.175
-644.726	-107.388	-0.218	-0.049
-643.711	-184.934	-0.515	-0.008
-642.697	26.478	-0.041	0.035
-641.682	390.370	0.096	0.203
-640.668	4.236	0.202	-0.151
-639.653	-98.698	0.296	-0.077
-638.638	-200.000	0.000	0.077
-637.624	800.000	0.055	0.216
-636.609	276.131	0.259	-0.469
-635.595	49.310	0.097	-0.093
-634.580	-200.000	0.005	0.204
-633.565	472.806	0.119	0.272
-632.551	214.884	-0.201	-0.324
-631.536	364.772	-0.051	0.105
-630.522	-43.670	-0.131	0.068
-629.507	-146.571	-0.318	-0.028
-628.492	-200.000	-0.004	-0.305
-627.478	135.991	-0.093	0.123
-626.463	-200.000	-0.003	-0.226
-625.449	-112.864	-0.281	-0.057
-624.434	-108.352	0.234	-0.051
-623.419	-114.584	-0.095	-0.019
-622.405	111.145	0.050	-0.061
-621.390	-200.000	0.011	0.140
-620.376	12.685	0.277	0.218
-619.361	124.126	0.085	0.109
-618.346	-200.000	0.009	0.190
-617.332	-151.062	-0.151	0.012
-616.317	50.121	0.041	-0.039
-615.303	163.461	-0.040	0.058
-614.288	-75.752	0.112	0.041
-613.273	-138.031	-0.192	-0.022
-612.259	-200.000	-0.018	-0.317
-611.244	-151.293	-0.054	-0.004
-610.230	-95.944	0.215	-0.058
-609.215	-25.520	0.103	0.062
-608.201	800.000	0.032	0.140
-607.186	-113.544	-0.294	0.059
-606.171	136.698	-0.129	0.171
-605.157	800.000	0.107	0.307
-604.142	-200.000	-0.010	-0.055
-603.128	800.000	0.066	0.229
-602.113	7.812	-0.084	-0.064
-601.098	121.138	0.144	-0.182
-600.084	-114.543	-0.186	-0.036
-599.069	334.643	0.052	-0.103
-598.055	170.677	0.184	-0.268
-597.040	161.380	-0.132	0.187
-596.025	356.812	0.092	0.187
-595.011	-156.224	0.334	0.021
-593.996	176.490	0.061	-0.090
-592.982	-81.770	0.220	0.073
-591.967	-75.689	0.253	0.091
-590.952	320.568	0.070	0.136
-589.938	463.948	-0.053	0.120
-588.923	-200.000	0.042	-0.456
-587.909	243.302	0.090	-0.153
-586.894	-137.729	-0.277	0.032
-585.879	-155.861	-0.217	-0.014
-584.865	27.353	0.207	-0.177
-583.850	-200.000	0.017	0.154
-582.836	-49.164	-0.144	-0.070
-581.821	362.555	-0.110	0.224
-580.806	-200.000	-0.026	-0.121
-579.792	1.588	-0.100	-0.073
-578.777	180.435	0.138	-0.206
-577.763	78.445	0.175	-0.190
-576.748	798.848	-0.093	-0.261
-575.733	-200.000	0.013	0.273
-574.719	-21.342	0.110	-0.068
-573.704	-117.034	-0.093	-0.017
-572.690	63.990	0.108	0.110
-571.675	332.447	-0.121	0.238
-570.661	-1.794	-0.130	0.093
-569.646	-200.000	-0.002	-0.046
-568.631	-116.838	-0.239	-0.044
-567.617	800.000	0.104	0.307
-566.602	-41.522	0.077	-0.040
-565.588	30.681	-0.242	0.211
-564.573	57.107	0.113	0.112
-563.558	-4.894	-0.195	-0.136
-562.544	800.000	-0.107	0.380
-561.529	44.804	-0.179	-0.167
-560.515	128.309	0.165	-0.213
-559.500	61.432	-0.070	0.071
-558.485	-35.055	0.177	0.098
-557.471	213.495	-0.237	-0.381
-556.456	800.000	-0.097	0.315
-555.442	-200.000	-0.002	0.169
-554.427	-92.430	-0.361	0.103
-553.412	-166.236	-0.025	0.001
-552.398	-55.667	-0.327	-0.148
-551.383	-200.000	0.013	-0.138
-550.369	-9.203	-0.225	0.153
-549.354	-97.394	0.313	-0.083
-548.339	-107.468	0.069	-0.015
-547.325	375.662	0.044	0.092
-546.310	-49.939	0.137	0.066
-545.296	-68.724	-0.447	0.175
-544.281	-65.018	-0.226	0.093
-543.266	-72.038	0.393	-0.148
-542.252	800.000	-0.061	0.176
-541.237	536.429	-0.170	0.410
-540.223	-71.078	-0.352	0.134
-539.208	31.977	0.282	0.246
-538.193	-72.895	0.158	0.059
-537.179	-200.000	-0.073	-0.341
-536.164	95.793	0.237	-0.275
-535.150	-200.000	0.009	-0.371
-534.135	-63.832	-0.235	-0.098
-533.121	323.237	0.114	-0.221
-532.106	-65.781	-0.344	-0.140
-531.091	-200.000	-0.004	-0.169
-530.077	-24.337	-0.310	-0.188
-529.062	-200.000	0.056	-0.323
-528.048	67.438	0.133	0.138
-527.033	-104.221	-0.175	-0.041
-526.018	18.839	-0.167	0.136
-525.004	477.620	0.016	-0.037
-523.989	-88.431	-0.203	-0.061
-522.975	-21.749	0.123	0.076
-521.960	-76.860	0.391	0.139
-520.945	-50.395	0.226	0.108
-519.931	-83.998	0.138	-0.045
-518.916	-200.000	0.024	-0.158
-517.902	575.444	0.020	0.051
-516.887	-93.153	0.305	0.086
-515.872	800.000	0.012	-0.045
-514.858	-200.000	0.027	0.258
-513.843	-135.430	-0.236	-0.029
-512.829	2.306	-0.204	-0.150
-511.814	800.000	-0.020	0.085
-510.799	-38.655	-0.307	-0.164
-509.785	800.000	0.085	-0.298
-508.770	800.000	-0.044	-0.166
-507.756	-200.000	-0.006	-0.498
-506.741	-99.773	-0.283	0.072
-505.726	-66.582	0.136	0.055
-504.712	-137.752	0.133	0.015
-503.697	-200.000	-0.079	-0.360
-502.683	41.677	-0.054	-0.049
-501.668	800.000	-0.074	0.311
-500.653	-139.911	0.092	-0.010
-499.639	-174.647	0.272	-0.008
-498.624	324.398	-0.101	-0.196
-497.610	-114.647	-0.188	0.036
-496.595	-136.266	-0.243	0.029
-495.581	-57.025	0.311	-0.139
-494.566	-200.000	-0.004	-0.202
-493.551	800.000	0.042	0.182
-492.537	-62.539	-0.397	0.167
-491.522	-19.446	-0.170	0.106
-490.508	48.787	-0.105	0.100
-489.493	664.984	0.028	0.073
-488.478	-164.106	-0.183	-0.009
-487.464	800.000	0.097	-0.337
-486.449	-200.000	0.012	0.211
-485.435	-50.556	-0.585	-0.279
-484.420	103.554	0.223	-0.266
-483.405	800.000	-0.002	0.007
-482.391	800.000	-0.111	0.322
-481.376	35.986	0.281	-0.251
-480.362	-111.380	-0.181	-0.037
-479.347	-185.807	-0.423	0.006
-478.332	-21.551	0.078	0.048
-477.318	5.924	0.087	-0.065
-476.303	-113.958	0.047	0.009
-475.289	68.661	-0.084	-0.088
-474.274	626.598	-0.103	0.264
-473.259	-37.917	0.101	0.055
-472.245	-104.702	0.150	-0.035
-471.230	-14.048	0.168	0.110
-470.216	-99.713	0.112	0.028
-469.201	-130.517	-0.087	0.012
-468.186	-143.978	0.128	0.012
-467.172	94.729	-0.098	-0.113
-466.157	-34.078	0.217	-0.121
-465.143	-65.261	0.177	-0.072
-464.128	-27.232	0.256	0.151
-463.113	800.000	-0.040	-0.161
-462.099	-200.000	0.003	0.152
-461.084	-128.587	0.269	0.039
-460.070	352.662	-0.221	0.444
-459.055	163.693	-0.241	-0.342
-458.040	273.121	-0.066	-0.117
-457.026	129.884	0.122	-0.158
-456.011	-153.868	-0.373	-0.026
-454.997	-5.427	0.107	-0.074
-453.982	33.014	-0.190	-0.167
-452.968	800.000	0.019	0.072
-451.953	427.189	0.003	0.007
-450.938	75.421	0.163	0.174
-449.924	187.088	-0.154	0.232
-448.909	432.252	-0.121	0.265
-447.895	-159.361	-0.048	0.003
-446.880	322.259	-0.049	0.094
-445.865	161.308	0.110	-0.156
-444.851	176.568	-0.034	-0.050
-443.836	-200.000	-0.059	-0.306
-442.822	-160.585	0.250	0.014
-441.807	-75.463	0.152	0.055
-440.792	-101.150	0.068	0.017
-439.778	266.456	-0.077	0.136
-438.763	-120.567	0.222	0.038
-437.749	418.585	0.057	-0.122
-436.734	632.223	-0.027	-0.068
-435.719	-31.364	0.223	0.127
-434.705	-141.857	0.053	0.005
-433.690	95.648	0.053	-0.062
-432.676	-45.024	-0.279	0.140
-431.661	-200.000	0.051	0.257
-430.646	-79.117	-0.114	-0.039
-429.632	378.913	-0.177	0.367
-428.617	-87.036	0.089	0.027
-427.603	-45.191	-0.101	0.051
-426.588	530.493	-0.091	0.218
-425.573	800.000	-0.126	0.493
-424.559	443.902	0.125	0.276
-423.544	-11.272	-0.112	-0.074
-422.530	-105.834	0.229	-0.052
-421.515	-111.732	0.207	0.042
-420.500	-60.133	-0.112	0.048
-419.486	-200.000	0.011	-0.105
-418.471	73.134	0.095	0.100
-417.457	393.388	-0.055	-0.115
-416.442	-26.250	-0.224	0.133
-415.428	28.226	0.060	0.051
-414.413	-125.627	-0.120	-0.018
-413.398	-38.963	-0.210	-0.112
-412.384	-88.469	0.256	0.077
-411.369	-47.154	-0.274	0.135
-410.355	-200.000	-0.028	0.158
-409.340	188.415	0.045	-0.067
-408.325	800.000	-0.045	-0.193
-407.311	15.605	0.154	-0.122
-406.296	-140.030	-0.279	0.030
-405.282	800.000	0.068	0.290
-404.267	-124.932	0.217	-0.034
-403.252	289.100	0.237	0.434
-402.238	-97.436	-0.231	-0.061
-401.223	-9.700	0.164	0.110
-400.209	64.246	0.070	-0.072
-399.194	-18.482	0.398	0.251
-398.179	-5.484	-0.137	-0.095
-397.165	15.698	0.157	-0.125
-396.150	3.271	0.389	0.286
-395.136	-13.642	0.140	0.092
-394.121	55.136	-0.306	-0.299
-393.106	-200.000	0.032	-0.155
-392.092	-112.566	0.157	-0.032
-391.077	800.000	0.097	0.296
-390.063	800.000	-0.059	0.200
-389.048	-200.000	0.020	-0.216
-388.033	-17.953	-0.099	0.062
-387.019	99.090	-0.213	0.248
-386.004	90.634	0.213	-0.241
-384.990	162.324	-0.006	-0.008
-383.975	221.575	0.074	-0.120
-382.960	272.591	-0.063	0.112
-381.946	800.000	0.107	-0.349
-380.931	800.000	-0.081	0.311
-379.917	-200.000	-0.001	0.065
-378.902	451.758	-0.085	-0.191
-377.888	51.449	-0.321	0.308
-376.873	-38.178	0.140	0.075
-375.858	27.986	-0.222	-0.189
-374.844	-49.908	0.111	0.053
-373.829	-57.149	0.101	0.045
-372.815	495.492	-0.083	0.191
-371.800	-144.532	0.335	-0.031
-370.785	-141.110	0.027	-0.003
-369.771	-14.505	0.268	-0.174
-368.756	-20.214	0.349	-0.217
-367.742	-60.917	-0.280	0.120
-366.727	44.828	-0.044	-0.041
-365.712	-200.000	-0.045	-0.500
-364.698	627.916	-0.114	-0.289
-363.683	-200.000	0.004	0.069
-362.669	-200.000	0.044	-0.263
-361.654	800.000	0.054	0.160
-360.639	29.015	0.209	-0.179
-359.625	-4.241	0.144	0.100
-358.610	-77.386	-0.233	0.082
-357.596	-129.291	-0.145	-0.020
-356.581	-9.394	-0.053	0.036
-355.566	254.498	0.069	0.120
-354.552	-64.145	0.121	0.050
-353.537	172.471	0.070	0.101
-352.523	92.166	0.048	-0.054
-351.508	-14.516	0.108	-0.070
-350.493	-200.000	-0.005	0.027
-349.479	-38.876	0.428	0.227
-348.464	-166.394	0.150	-0.006
-347.450	-126.649	0.047	-0.007
-346.435	321.525	-0.070	0.135
-345.420	-94.792	-0.242	0.066
-344.406	-11.903	-0.188	-0.124
-343.391	-38.859	0.335	0.178
-342.377	-104.904	0.220	0.051
-341.362	-108.733	0.269	-0.058
-340.348	-76.460	0.141	-0.050
-339.333	-125.943	0.346	-0.052
-338.318	-200.000	0.030	0.185
-337.304	-8.469	0.132	0.089
-336.289	-64.209	-0.225	0.092
-335.275	52.950	-0.144	0.139
-334.260	-67.188	-0.033	-0.013
-333.245	-5.146	0.086	0.059
-332.231	-145.452	0.217	-0.020
-331.216	-29.514	-0.247	-0.142
-330.202	63.387	0.087	0.088
-329.187	-86.999	-0.160	-0.049
-328.172	78.775	-0.181	0.195
-327.158	18.728	0.088	-0.071
-326.143	292.391	-0.030	-0.056
-325.129	515.300	-0.013	0.031
-324.114	-200.000	0.073	-0.384
-323.099	-73.636	0.101	0.037
-322.085	-90.735	-0.169	0.049
-321.070	-58.602	-0.076	0.033
-320.056	-60.666	-0.172	0.073
-319.041	800.000	0.069	0.281
-318.026	-49.586	0.223	-0.107
-317.012	-59.349	0.162	-0.070
-315.997	185.725	-0.086	-0.128
-314.983	679.619	-0.039	0.103
-313.968	-200.000	0.025	-0.208
-312.953	800.000	0.078	0.258
-311.939	-105.160	0.239	-0.055
-310.924	-200.000	0.004	0.031
-309.910	94.542	0.211	-0.241
-308.895	0.553	0.155	-0.111
-307.880	23.658	-0.189	0.157
-306.866	178.794	-0.190	0.280
-305.851	75.021	0.165	-0.175
-304.837	-10.731	-0.040	0.027
-303.822	-56.196	-0.406	-0.182
-302.807	-149.396	-0.204	-0.016
-301.793	-60.675	0.134	-0.057
-300.778	-200.000	-0.107	-0.000
-299.764	-200.000	0.017	0.083
-298.749	399.914	0.107	0.226
-297.735	-83.000	0.209	-0.068
-296.720	-172.125	0.031	-0.001
-295.705	800.000	-0.084	0.266
-294.691	-29.712	0.199	0.114
-293.676	-200.000	-0.024	0.227
-292.662	-200.000	-0.003	0.299
-291.647	800.000	0.050	0.150
-290.632	-200.000	-0.011	-0.170
-289.618	-199.547	-0.194	-0.001
-288.603	-163.271	0.098	-0.005
-287.589	222.597	0.027	-0.044
-286.574	-34.914	0.063	0.034
-285.559	17.074	0.270	0.215
-284.545	-139.313	-0.095	0.010
-283.530	-200.000	-0.009	-0.192
-282.516	107.449	0.093	-0.111
-281.501	-135.778	-0.330	-0.039
-280.486	37.885	-0.259	0.231
-279.472	32.481	0.204	0.177
-278.457	78.100	-0.211	0.226
-277.443	800.000	0.049	0.144
-276.428	187.831	-0.182	-0.273
-275.413	-109.790	-0.025	0.005
-274.399	103.851	-0.243	0.287
-273.384	-50.383	-0.173	-0.082
-272.370	-200.000	-0.053	-0.248
-271.355	126.743	0.263	0.335
-270.340	-200.000	-0.014	0.206
-269.326	-200.000	0.020	0.105
-268.311	-200.000	-0.027	-0.120
-267.297	-200.000	-0.034	-0.195
-266.282	-200.000	0.028	-0.210
-265.267	-15.836	-0.132	-0.085
-264.253	327.280	0.084	-0.162
-263.238	264.580	-0.055	0.096
-262.224	-115.406	-0.232	-0.044
-261.209	-82.207	0.479	-0.157
-260.195	241.645	0.132	0.222
-259.180	-34.754	-0.134	0.073
-258.165	64.319	0.285	0.288
-257.151	507.137	-0.080	0.187
-256.136	-119.672	-0.203	-0.035
-255.122	800.000	0.081	0.338
-254.107	-39.900	0.282	0.148
-253.092	157.468	-0.078	0.108
-252.078	107.091	-0.199	-0.237
-251.063	94.761	0.238	-0.272
-250.049	-200.000	0.010	-0.152
-249.034	-66.970	0.314	0.124
-248.019	-142.564	-0.287	0.028
-247.005	-32.071	0.254	-0.143
-245.990	-131.684	-0.130	0.017
-244.976	522.981	-0.108	-0.255
-243.961	-200.000	0.023	-0.128
-242.946	145.833	-0.093	0.125
-241.932	214.736	0.132	-0.211
-240.917	531.885	0.027	-0.064
-239.903	197.408	0.109	0.167
-238.888	-194.014	0.128	0.001
-237.873	185.683	-0.090	-0.134
-236.859	542.479	-0.179	-0.427
-235.844	-136.717	0.136	0.016
-234.830	285.997	-0.054	-0.099
-233.815	800.000	0.078	-0.295
-232.800	698.009	-0.083	-0.219
-231.786	-200.000	0.008	-0.202
-230.771	-3.243	-0.136	0.095
-229.757	800.000	0.076	0.320
-228.742	800.000	0.026	0.083
-227.727	-12.008	0.248	-0.163
-226.713	418.172	-0.038	0.081
-225.698	90.188	0.125	-0.140
-224.684	-75.540	-0.232	-0.083
-223.669	184.289	-0.114	-0.169
-222.655	-200.000	-0.064	-0.361
-221.640	-59.558	0.083	-0.036
-220.625	114.531	-0.124	-0.151
-219.611	15.130	-0.201	-0.158
-218.596	120.171	0.306	0.381
-217.582	-7.341	0.293	0.199
-216.567	-86.511	0.151	0.047
-215.552	-200.000	0.052	0.334
-214.538	43.752	-0.125	-0.115
-213.523	-200.000	0.001	0.277
-212.509	-109.274	-0.202	-0.043
-211.494	-130.172	0.225	-0.031
-210.479	-45.666	-0.082	-0.041
-209.465	-57.787	-0.276	0.121
-208.450	-39.328	-0.158	0.083
-207.436	344.199	-0.232	-0.456
-206.421	22.200	-0.101	-0.082
-205.406	516.825	0.192	0.451
-204.392	800.000	-0.043	0.122
-203.377	-129.221	0.254	0.035
-202.363	800.000	0.028	-0.114
-201.348	157.278	-0.241	-0.334
-200.333	-200.000	0.010	-0.219
-199.319	251.808	-0.192	-0.327
-198.304	-139.151	0.072	0.008
-197.290	-11.640	0.083	-0.055
-196.275	800.000	0.159	-0.481
-195.260	800.000	0.096	0.404
-194.246	-66.007	-0.130	-0.052
-193.231	-75.810	-0.196	-0.070
-192.217	-51.282	-0.104	-0.049
-191.202	-200.000	-0.035	-0.183
-190.187	800.000	0.043	0.149
-189.173	-1.058	-0.255	0.180
-188.158	40.545	0.235	0.212
-187.144	-88.860	-0.204	-0.061
-186.129	53.022	-0.040	0.038
-185.114	268.207	0.071	0.125
-184.100	800.000	-0.073	0.245
-183.085	800.000	-0.094	-0.333
-182.071	-138.724	0.473	-0.052
-181.056	-200.000	-0.068	-0.606
-180.042	306.737	-0.085	-0.158
-179.027	585.669	0.147	-0.361
-178.012	-200.000	0.014	-0.186
-176.998	88.922	0.188	-0.209
-175.983	-146.482	0.082	0.007
-174.969	254.250	-0.052	-0.089
-173.954	228.376	-0.219	-0.357
-172.939	-200.000	-0.003	0.415
-171.925	55.024	-0.240	0.232
-170.910	263.267	0.211	0.366
-169.896	-157.068	-0.286	-0.017
-168.881	800.000	0.069	0.223
-167.866	-103.258	0.394	0.093
-166.852	800.000	0.021	-0.061
-165.837	72.819	-0.051	-0.054
-164.823	7.835	0.070	-0.052
-163.808	-109.192	-0.211	-0.045
-162.793	-161.406	-0.169	-0.009
-161.779	-45.827	-0.010	-0.005
-160.764	-200.000	-0.003	-0.234
-159.750	-200.000	-0.013	-0.107
-158.735	-69.054	0.070	0.027
-157.720	-200.000	-0.026	0.280
-156.706	-59.029	-0.150	-0.065
-155.691	486.527	-0.142	0.323
-154.677	-200.000	-0.012	-0.269
-153.662	346.667	-0.055	-0.107
-152.647	-19.277	0.223	-0.138
-151.633	119.371	-0.214	0.265
-150.618	-22.097	-0.112	-0.068
-149.604	-84.821	0.258	0.081
-148.589	43.295	-0.202	0.184
-147.574	178.673	0.075	0.110
-146.560	114.699	-0.203	0.248
-145.545	10.309	-0.084	-0.064
-144.531	-116.325	-0.076	-0.014
-143.516	-37.756	-0.479	-0.255
-142.502	800.000	-0.012	-0.045
-141.487	174.384	-0.204	-0.294
-140.472	121.410	-0.184	-0.229
-139.458	-200.000	-0.046	-0.237
-138.443	117.418	-0.017	-0.021
-137.429	-178.436	-0.148	0.003
-136.414	-53.936	-0.272	0.124
-135.399	289.934	0.126	0.229
-134.385	235.763	-0.055	-0.091
-133.370	800.000	0.092	0.257
-132.356	-40.910	-0.237	0.123
-131.341	800.000	0.078	0.338
-130.326	206.262	-0.076	0.118
-129.312	-132.094	0.320	-0.041
-128.297	-111.358	-0.362	0.074
-127.283	-77.311	-0.287	-0.100
-126.268	146.756	-0.128	0.171
-125.253	-67.856	-0.218	0.085
-124.239	442.387	-0.168	0.367
-123.224	66.634	-0.088	-0.090
-122.210	-74.856	-0.195	0.070
-121.195	-128.204	0.109	0.016
-120.180	20.059	0.261	0.210
-119.166	800.000	0.042	0.117
-118.151	-41.641	0.066	-0.034
-117.137	-200.000	-0.017	-0.333
-116.122	-77.931	0.311	0.107
-115.107	-193.108	0.097	-0.001
-114.093	39.055	-0.015	-0.013
-113.078	-173.338	0.332	-0.010
-112.064	-5.786	-0.038	-0.026
-111.049	-154.126	0.145	0.010
-110.034	-109.306	-0.348	0.074
-109.020	-58.863	-0.156	-0.067
-108.005	-200.000	0.006	-0.362
-106.991	-200.000	0.023	-0.244
-105.976	153.715	-0.145	-0.198
-104.962	-42.981	0.225	-0.114
-103.947	33.243	-0.043	-0.037
-102.932	56.537	-0.199	-0.193
-101.918	343.786	-0.052	0.102
-100.903	54.854	-0.121	0.117
-99.889	-200.000	-0.007	0.193
-98.874	-159.099	-0.326	-0.018
-97.859	-118.335	0.447	-0.079
-96.845	-156.780	0.203	0.012
-95.830	-200.000	0.012	0.123
-94.816	-132.558	-0.301	0.039
-93.801	-40.150	-0.192	0.100
-92.786	-125.415	-0.186	0.028
-91.772	-181.590	0.405	-0.008
-90.757	377.777	0.092	0.188
-89.743	-4.215	-0.320	0.221
-88.728	55.347	0.203	0.196
-87.713	-42.133	-0.200	-0.102
-86.699	43.576	-0.415	-0.379
-85.684	7.012	-0.066	0.049
-84.670	156.159	-0.203	0.279
-83.655	493.560	0.007	-0.016
-82.640	-200.000	-0.003	0.235
-81.626	-151.071	0.182	-0.014
-80.611	9.130	-0.474	0.357
-79.597	280.118	-0.030	-0.054
-78.582	192.271	-0.152	0.229
-77.567	800.000	-0.059	0.183
-76.553	-69.990	0.212	-0.080
-75.538	-200.000	0.049	0.259
-74.524	-117.589	0.251	-0.045
-73.509	-12.897	-0.156	0.101
-72.494	-23.179	-0.054	-0.032
-71.480	-200.000	0.018	-0.271
-70.465	-94.707	-0.315	0.085
-69.451	128.521	-0.271	0.344
-68.436	-132.639	0.270	0.034
-67.422	-158.377	-0.198	0.011
-66.407	483.238	0.152	0.345
-65.392	-43.628	0.063	0.031
-64.378	-129.428	-0.140	-0.019
-63.363	259.728	0.150	0.258
-62.349	86.237	0.346	-0.380
-61.334	-29.013	-1.053	-0.602
-60.319	111.928	0.150	0.181
-59.305	800.000	-0.194	-0.586
-58.290	611.004	0.402	1.002
-57.276	581.040	0.587	1.433
-56.261	-200.000	89.786	502.733
-55.246	508.643	1404.196	3248.090
-54.232	182.008	2612.407	3831.820
-53.217	115.590	2225.454	2709.386
-52.203	45.461	1748.858	1607.563
-51.188	38.770	1553.960	1381.426
-50.173	36.286	1526.384	1339.637
-49.159	53.421	1573.758	1502.403
-48.144	57.355	1593.131	1548.595
-47.130	39.313	1550.696	1382.121
-46.115	36.103	1534.910	1345.631
-45.100	35.892	1531.478	1341.100
-44.086	35.844	1529.798	1339.240
-43.071	35.689	1528.213	1336.717
-42.057	35.713	1526.155	1335.036
-41.042	35.768	1524.825	1334.197
-40.027	35.764	1523.333	1332.811
-39.013	35.741	1522.039	1331.472
-37.998	35.744	1520.268	1329.887
-36.984	35.780	1519.467	1329.386
-35.969	35.733	1517.900	1327.634
-34.954	35.772	1516.649	1326.759
-33.940	35.661	1515.235	1324.704
-32.925	35.828	1513.346	1324.147
-31.911	35.779	1512.583	1323.087
-30.896	35.834	1511.237	1322.240
-29.881	35.856	1509.668	1320.963
-28.867	35.860	1508.367	1319.802
-27.852	35.838	1506.881	1318.301
-26.838	35.797	1505.185	1316.480
-25.823	35.796	1503.984	1315.373
-24.809	35.835	1502.015	1313.864
-23.794	35.854	1500.661	1312.760
-22.779	35.845	1499.713	1311.813
-21.765	35.738	1499.067	1310.470
-20.750	35.745	1497.637	1309.213
-19.736	35.949	1495.666	1308.828
-18.721	35.852	1494.930	1307.472
-17.706	35.778	1494.047	1306.142
-16.692	35.713	1492.975	1304.714
-15.677	35.720	1491.745	1303.634
-14.663	35.697	1491.251	1302.991
-13.648	35.792	1489.484	1302.045
-12.633	35.718	1489.179	1301.224
-11.619	35.774	1488.177	1300.675
-10.604	35.577	1487.772	1298.938
-9.590	35.685	1486.601	1298.593
-8.575	35.671	1485.788	1297.740
-7.560	35.838	1484.459	1297.652
-6.546	35.742	1483.832	1296.403
-5.531	35.731	1482.893	1295.460
-4.517	35.661	1481.782	1293.962
-3.502	35.664	1481.079	1293.321
-2.487	35.725	1479.838	1292.592
-1.473	35.859	1478.298	1292.095
-0.458	35.651	1477.369	1289.837
0.556	37.956	1469.113	1284.071
1.571	36.054	1443.304	1249.080
2.586	32.479	1380.120	1172.084
3.600	29.814	1294.910	1084.028
4.615	26.636	1245.300	1024.466
5.629	21.749	1186.896	949.916
6.644	13.085	1100.345	836.840
7.659	6.114	1058.315	770.718
8.673	5.015	1051.966	760.668
9.688	4.719	1048.653	756.765
10.702	4.510	1047.336	754.731
11.717	4.898	1045.913	755.522
12.731	7.887	1049.164	772.326
13.746	15.777	1060.484	819.148
14.761	21.350	1067.029	851.354
15.775	21.591	1066.949	852.392
16.790	20.838	1064.659	846.828
17.804	19.829	1061.900	839.664
18.819	18.963	1060.209	834.052
19.834	18.485	1059.162	830.837
20.848	18.356	1057.716	829.003
21.863	18.290	1057.467	828.420
22.877	17.970	1056.963	826.401
23.892	17.887	1055.928	825.120
24.907	17.672	1055.435	823.623
25.921	17.763	1054.176	823.004
26.936	17.752	1053.645	822.466
27.950	17.831	1052.448	821.837
28.965	17.790	1051.308	820.677
29.980	17.806	1050.847	820.320
30.994	17.914	1049.228	819.505
32.009	18.111	1048.315	819.664
33.023	18.261	1047.337	819.543
34.038	18.191	1046.573	818.540
35.053	18.082	1045.719	817.278
36.067	17.987	1044.405	815.723
37.082	17.871	1043.939	814.733
38.096	17.880	1043.076	814.030
39.111	17.963	1042.787	814.129
40.126	18.062	1041.756	813.723
41.140	18.059	1040.424	812.597
42.155	17.750	1039.151	810.064
43.169	17.469	1038.384	808.063
44.184	17.538	1037.047	807.277
45.199	17.493	1036.113	806.263
46.213	17.531	1035.026	805.525
47.228	17.636	1034.191	805.305
48.242	17.762	1033.236	805.081
49.257	17.952	1032.401	805.259
50.271	17.803	1031.433	803.728
51.286	17.770	1031.152	803.283
52.301	17.844	1030.359	802.940
53.315	17.962	1029.402	802.678
54.330	17.826	1028.488	801.260
55.344	17.702	1027.793	800.064
56.359	17.614	1026.296	798.416
57.374	17.734	1025.526	798.305
58.388	17.648	1025.277	797.640
59.403	17.633	1023.798	796.348
60.417	17.454	1023.315	795.068
61.432	17.543	1022.646	794.891
62.447	17.360	1021.920	793.405
63.461	17.366	1020.847	792.530
64.476	17.347	1020.021	791.728
65.490	17.336	1018.984	790.804
66.505	17.258	1018.108	789.689
67.520	17.214	1017.628	789.044
68.534	17.379	1016.643	788.974
69.549	17.478	1015.824	788.728
70.563	17.420	1015.279	787.965
71.578	17.262	1014.579	786.622
72.593	17.223	1013.513	785.548
73.607	17.124	1012.631	784.339
74.622	17.109	1011.598	783.396
75.636	17.196	1010.725	783.052
76.651	17.248	1010.064	782.714
77.666	17.301	1009.050	782.099
78.680	17.292	1008.467	781.537
79.695	17.251	1008.269	781.125
80.709	17.359	1007.446	780.917
81.724	17.376	1007.047	780.614
82.739	17.392	1006.398	780.117
83.753	17.551	1005.242	779.882
84.768	17.678	1004.731	779.997
85.782	18.064	1004.213	781.288
86.797	18.107	1003.636	780.967
87.812	18.122	1002.280	779.914
88.826	17.898	1001.804	778.450
89.841	17.757	1000.891	777.030
90.855	17.921	1000.095	777.089
91.870	17.979	999.505	776.826
92.884	18.014	999.090	776.598
93.899	18.083	997.950	775.956
94.914	18.043	997.264	775.171
95.928	18.044	996.427	774.454
96.943	18.172	995.435	774.197
97.957	17.898	994.954	772.512
98.972	17.887	993.712	771.431
99.987	17.893	993.345	771.102
101.001	18.073	992.379	771.098
102.016	17.857	991.382	769.281
103.030	17.893	990.448	768.651
104.045	17.940	989.869	768.345
105.060	17.932	989.088	767.636
106.074	17.952	987.567	766.476
107.089	17.761	986.244	764.524
108.103	17.452	985.749	762.689
109.118	17.407	984.541	761.487
110.133	17.354	983.868	760.661
111.147	17.414	982.682	759.945
112.162	17.372	981.583	758.840
113.176	17.464	981.185	758.876
114.191	17.358	980.718	757.975
115.206	17.549	979.655	757.936
116.220	17.541	979.289	757.551
117.235	17.490	978.212	756.424
118.249	17.444	977.574	755.660
119.264	17.535	976.320	755.027
120.279	17.354	975.792	753.749
121.293	17.371	974.371	752.661
122.308	17.207	974.046	751.617
123.322	17.202	973.347	750.992
124.337	17.101	972.169	749.570
125.352	17.170	971.236	749.087
126.366	17.250	969.723	748.209
127.381	17.195	968.860	747.232
128.395	17.223	967.954	746.592
129.410	17.273	966.623	745.717
130.424	17.276	965.969	745.158
131.439	17.367	965.247	744.938
132.454	17.416	965.041	744.925
133.468	17.529	963.929	744.496
134.483	17.457	963.579	743.843
135.497	17.535	962.933	743.619
136.512	17.550	961.854	742.785
137.527	17.569	961.457	742.497
138.541	17.537	960.438	741.506
139.556	17.727	959.822	741.790
140.570	17.573	959.152	740.540
141.585	17.645	958.569	740.337
142.600	17.824	957.775	740.435
143.614	17.925	956.934	740.157
144.629	17.932	956.347	739.665
145.643	18.084	955.381	739.513
146.658	17.822	954.851	737.901
147.673	17.874	953.568	737.070
148.687	17.753	952.398	735.581
149.702	17.609	951.778	734.414
150.716	17.611	950.298	733.216
151.731	17.519	949.740	732.327
152.746	17.429	949.377	731.593
153.760	17.569	948.566	731.505
154.775	17.725	947.665	731.415
155.789	17.666	947.285	730.805
156.804	17.786	946.036	730.291
157.819	17.865	945.450	730.112
158.833	17.631	945.143	728.808
159.848	17.886	944.397	729.256
160.862	17.954	944.145	729.288
161.877	18.105	942.978	728.966
162.892	17.676	941.786	726.154
163.906	17.640	940.903	725.256
164.921	17.467	940.348	724.026
165.935	17.489	938.859	722.912
166.950	17.587	938.016	722.612
167.964	17.648	937.534	722.439
168.979	17.711	936.541	721.873
169.994	17.604	935.145	720.283
171.008	17.579	934.142	719.342
172.023	17.685	933.582	719.292
173.037	17.788	932.888	719.129
174.052	17.955	932.806	719.708
175.067	17.954	931.479	718.614
176.081	17.640	930.869	716.758
177.096	17.595	929.620	715.547
178.110	17.591	928.378	714.511
179.125	17.607	928.058	714.265
180.140	17.670	927.676	714.172
181.154	17.622	926.663	713.130
182.169	17.710	926.480	713.295
183.183	18.119	925.339	714.062
184.198	18.001	925.216	713.409
185.213	17.925	925.011	712.873
186.227	18.029	924.181	712.604
187.242	17.975	923.523	711.806
188.256	18.164	922.574	711.802
189.271	18.229	922.129	711.664
190.286	18.321	921.160	711.233
191.300	18.085	920.606	709.765
192.315	17.746	919.310	707.297
193.329	17.516	918.411	705.587
194.344	17.514	918.054	705.245
195.359	17.635	917.259	705.072
196.373	17.787	917.165	705.566
197.388	17.910	916.727	705.674
198.402	18.034	916.012	705.575
199.417	18.085	916.117	705.802
200.432	18.302	915.662	706.284
201.446	18.404	915.018	706.147
202.461	18.339	914.864	705.696
203.475	18.580	914.319	706.207
204.490	18.647	913.457	705.756
205.504	18.413	912.169	703.736
206.519	18.142	911.788	702.266
207.534	18.115	910.889	701.404
208.548	18.098	910.144	700.698
209.563	18.081	909.332	699.939
210.577	18.186	908.789	699.890
211.592	18.249	908.094	699.551
212.607	18.267	908.164	699.615
213.621	18.412	907.492	699.627
214.636	18.486	906.697	699.255
215.650	18.359	906.215	698.304
216.665	18.489	905.505	698.223
217.680	18.512	905.134	697.969
218.694	18.628	904.476	697.872
219.709	18.723	903.953	697.793
220.723	18.561	903.465	696.699
221.738	18.511	902.705	695.846
222.753	18.473	902.077	695.147
223.767	18.454	901.159	694.302
224.782	18.524	900.321	693.876
225.796	18.555	899.935	693.643
226.811	18.816	899.222	694.087
227.826	18.625	898.641	692.805
228.840	18.639	897.688	692.065
229.855	18.496	896.879	690.807
230.869	18.510	896.292	690.347
231.884	18.463	895.751	689.681
232.899	18.409	895.011	688.835
233.913	18.339	894.206	687.872
234.928	18.331	893.449	687.197
235.942	18.193	893.086	686.303
236.957	18.195	892.301	685.649
237.972	18.271	891.416	685.210
238.986	18.315	890.822	684.870
240.001	18.291	890.236	684.261
241.015	18.380	889.639	684.100
242.030	18.402	889.206	683.793
243.045	18.407	888.684	683.349
244.059	18.513	888.025	683.208
245.074	18.604	887.229	682.895
246.088	18.556	886.755	682.278
247.103	18.619	886.220	682.060
248.117	18.612	885.771	681.626
249.132	18.864	885.208	682.129
250.147	18.938	884.654	681.937
251.161	19.163	884.711	682.815
252.176	19.283	883.787	682.517
253.190	19.323	882.644	681.730
254.205	19.243	882.741	681.429
255.220	19.509	881.923	681.789
256.234	19.304	881.199	680.360
257.249	19.402	880.534	680.171
258.263	19.255	880.384	679.415
259.278	19.209	879.553	678.535
260.293	19.197	879.117	678.089
261.307	19.344	878.408	678.059
262.322	19.352	877.985	677.704
263.336	19.434	877.636	677.698
264.351	19.524	876.657	677.237
265.366	19.521	875.627	676.368
266.380	19.556	875.537	676.377
267.395	19.474	874.908	675.510
268.409	19.424	873.767	674.373
269.424	19.333	872.993	673.360
270.439	19.381	872.447	673.068
271.453	19.366	871.563	672.269
272.468	19.189	870.846	670.963
273.482	19.281	870.305	670.848
274.497	19.157	869.700	669.838
275.512	19.269	869.204	669.833
276.526	19.216	868.065	668.689
277.541	19.424	867.450	668.965
278.555	19.369	867.318	668.590
279.570	19.398	866.827	668.263
280.585	19.629	866.430	668.795
281.599	19.494	866.201	668.035
282.614	19.481	865.204	667.158
283.628	19.414	864.228	666.085
284.643	19.352	863.973	665.593
285.657	19.290	863.554	664.971
286.672	19.279	862.955	664.410
287.687	19.361	862.154	664.049
288.701	19.443	861.771	664.010
289.716	19.494	860.989	663.545
290.730	19.493	860.568	663.158
291.745	19.482	860.090	662.688
292.760	19.622	859.160	662.449
293.774	19.621	858.405	661.807
294.789	19.608	858.714	661.938
295.803	19.803	857.568	661.741
296.818	19.419	857.042	659.808
297.833	19.417	856.306	659.176
298.847	19.543	855.698	659.129
299.862	19.669	854.706	658.788
300.876	19.632	854.302	658.278
301.891	19.809	853.565	658.326
302.906	19.776	853.266	657.911
303.920	19.896	852.405	657.643
304.935	19.946	851.725	657.252
305.949	20.173	851.462	657.852
306.964	19.963	850.734	656.436
307.979	19.814	850.313	655.487
308.993	19.834	849.543	654.910
310.008	19.907	848.824	654.577
311.022	20.088	848.313	654.807
312.037	19.960	847.822	653.888
313.052	19.853	847.524	653.197
314.066	19.591	847.043	651.779
315.081	19.638	846.165	651.221
316.095	19.559	845.393	650.274
317.110	19.710	845.005	650.485
318.125	19.735	844.371	650.033
319.139	19.576	843.785	648.927
320.154	19.548	843.724	648.717
321.168	19.659	842.970	648.498
322.183	19.686	842.460	648.150
323.197	19.716	842.270	648.058
324.212	19.817	841.563	647.834
325.227	19.759	840.862	647.020
326.241	19.728	840.304	646.419
327.256	19.871	839.654	646.396
328.270	19.820	838.747	645.449
329.285	19.750	838.143	644.668
330.300	19.667	837.831	644.059
331.314	19.860	837.116	644.171
332.329	19.882	836.632	643.826
333.343	19.801	836.525	643.385
334.358	19.983	835.938	643.553
335.373	20.058	835.068	643.103
336.387	20.130	834.850	643.147
337.402	20.057	834.168	642.293
338.416	20.157	833.626	642.191
339.431	20.263	833.163	642.168
340.446	20.373	832.896	642.313
341.460	20.538	832.301	642.406
342.475	20.456	831.894	641.734
343.489	20.455	831.449	641.331
344.504	20.626	830.601	641.250
345.519	20.701	830.064	641.056
346.533	20.673	829.646	640.570
347.548	20.689	829.388	640.376
348.562	20.429	828.448	638.637
349.577	20.217	828.221	637.626
350.592	20.234	827.261	636.893
351.606	20.198	826.724	636.291
352.621	20.160	826.518	635.935
353.635	20.146	826.027	635.453
354.650	20.130	825.394	634.848
355.665	20.342	824.938	635.220
356.679	20.231	824.556	634.462
357.694	20.331	824.330	634.599
358.708	20.446	823.803	634.554
359.723	20.371	823.253	633.801
360.738	20.303	822.839	633.179
361.752	20.243	822.297	632.486
362.767	20.501	821.500	632.758
363.781	20.457	821.310	632.397
364.796	20.620	821.182	632.834
365.810	20.638	820.701	632.471
366.825	20.894	820.082	632.869
367.840	20.795	819.782	632.224
368.854	20.844	819.727	632.302
369.869	20.744	818.903	631.247
370.883	20.727	818.133	630.536
371.898	20.722	817.313	629.832
372.913	20.868	817.004	630.064
373.927	20.956	816.191	629.699
374.942	20.873	815.825	629.062
375.956	20.754	815.038	627.972
376.971	20.968	814.304	628.120
377.986	21.025	814.121	628.130
379.000	21.093	813.889	628.141
380.015	21.164	813.407	627.968
381.029	21.129	812.494	627.083
382.044	20.995	811.915	626.100
383.059	21.020	811.644	625.923
384.073	21.134	810.805	625.632
385.088	21.072	810.374	625.018
386.102	20.853	809.694	623.655
387.117	20.797	809.204	623.023
388.132	20.770	808.592	622.401
389.146	20.714	808.640	622.183
390.161	20.619	808.374	621.583
391.175	20.880	807.609	621.871
392.190	21.027	807.289	622.093
393.205	21.000	806.770	621.544
394.219	20.897	806.285	620.746
395.234	20.957	805.358	620.193
396.248	20.648	805.283	618.982
397.263	20.597	804.970	618.504
398.278	20.630	804.270	618.027
399.292	20.719	803.344	617.578
400.307	20.501	803.231	616.661
401.321	20.592	803.073	616.808
402.336	20.676	802.660	616.734
403.350	20.829	801.935	616.667
404.365	20.910	801.625	616.658
405.380	20.988	801.290	616.624
406.394	21.101	800.809	616.599
407.409	21.223	800.255	616.548
408.423	21.176	800.093	616.202
409.438	21.308	799.974	616.523
410.453	21.472	799.024	616.315
411.467	21.444	798.723	615.927
412.482	21.385	798.401	615.417
413.496	21.675	797.686	615.833
414.511	21.665	797.514	615.609
415.526	21.665	797.140	615.264
416.540	21.449	797.012	614.355
417.555	21.508	796.161	613.849
418.569	21.449	795.721	613.250
419.584	21.530	795.158	613.045
420.599	21.607	794.921	613.078
421.613	155.713	1367.169	1784.846
422.628	134.886	1450.564	1784.959
