DTS Sentinel unit serial number:	SN413079Multiplexer serial number:	ORYXHardware model number:	OX4-SRSoftware version number:	ORYX F/W v4.00 Oryx Data Collector v3.7.2.0data status	okinstallation	princeton_trtdifferential loss correction	single-endedforward channel	channel 3reverse channel	N/Adate	2019/09/19time	10:28:35forward acquisition time	60.00reverse acquisition time	0.00gamma	496.2192k internal	0.2343k external	0.2343temperature offset calibration	0.9982default loss term (dB/km)	0.3790temperature slope calibration	1.0000multiplexer offset coefficient	1.0000multiplexer slope coefficient	1.0000fibre end	0.00T internal ref (°C)	24.33T ext. ref 1 (°C)	0.71T ext. ref 2 (°C)	19.77length (m)	temperature (°C)	Stokes	anti-Stokes-747.200	27.927	0.332	-0.280
-746.185	800.000	0.021	-0.082
-745.171	-168.303	-0.157	0.006
-744.156	-165.877	0.313	-0.013
-743.142	80.920	0.331	-0.357
-742.127	-195.344	-0.233	-0.002
-741.112	179.309	-0.215	0.315
-740.098	-200.000	0.032	0.166
-739.083	-200.000	-0.011	-0.067
-738.069	-72.243	-0.569	-0.211
-737.054	5.353	0.099	-0.073
-736.039	39.974	-0.206	0.185
-735.025	198.909	0.308	0.473
-734.010	-130.415	-0.367	0.050
-732.996	9.552	-0.337	0.255
-731.981	-160.705	-0.306	-0.016
-730.966	-99.121	-0.184	0.047
-729.952	121.433	-0.076	0.095
-728.937	-200.000	0.026	0.114
-727.923	248.775	0.061	-0.104
-726.908	129.585	-0.205	0.263
-725.894	-95.974	0.287	0.076
-724.879	-153.039	0.338	-0.024
-723.864	-18.244	-0.287	0.180
-722.850	-84.038	-0.303	-0.096
-721.835	-33.193	-0.270	-0.150
-720.821	-200.000	-0.024	-0.216
-719.806	-200.000	-0.003	-0.209
-718.791	-48.964	-0.347	0.166
-717.777	800.000	-0.076	0.303
-716.762	-200.000	-0.024	0.150
-715.748	-149.491	-0.265	-0.021
-714.733	-104.910	0.164	0.038
-713.718	800.000	0.111	-0.366
-712.704	-114.755	0.205	0.039
-711.689	-200.000	-0.008	-0.160
-710.675	-92.768	0.142	-0.040
-709.660	478.405	0.103	0.234
-708.645	1.315	-0.262	0.188
-707.631	-200.000	0.050	0.278
-706.616	-200.000	0.030	0.371
-705.602	-92.876	-0.173	-0.048
-704.587	86.968	0.203	0.224
-703.572	-68.975	0.346	0.133
-702.558	430.596	-0.078	-0.169
-701.543	-200.000	-0.007	-0.049
-700.529	-46.840	-0.122	0.059
-699.514	29.302	-0.238	-0.202
-698.499	87.742	0.261	0.289
-697.485	76.991	-0.037	0.039
-696.470	800.000	0.008	0.026
-695.456	27.993	-0.099	0.083
-694.441	513.214	-0.067	0.156
-693.426	305.681	0.246	-0.458
-692.412	-74.977	-0.324	-0.116
-691.397	800.000	0.021	-0.060
-690.383	57.419	0.143	0.140
-689.368	-200.000	-0.006	-0.161
-688.354	16.310	0.053	-0.042
-687.339	54.416	0.140	-0.135
-686.324	-168.973	0.302	-0.011
-685.310	15.326	0.219	-0.172
-684.295	-118.895	-0.361	-0.063
-683.281	-200.000	-0.005	-0.312
-682.266	-110.282	-0.286	-0.060
-681.251	-200.000	-0.020	0.095
-680.237	-66.867	-0.234	0.092
-679.222	800.000	-0.092	0.262
-678.208	567.963	0.158	0.384
-677.193	-56.795	-0.080	0.036
-676.178	160.479	-0.132	0.183
-675.164	168.438	-0.042	-0.060
-674.149	-200.000	-0.041	-0.184
-673.135	-159.373	-0.309	0.017
-672.120	-96.708	-0.275	-0.072
-671.105	-113.683	0.215	-0.042
-670.091	-200.000	-0.004	-0.172
-669.076	-78.933	0.036	0.012
-668.062	-200.000	0.004	-0.144
-667.047	-4.411	0.188	0.130
-666.032	47.487	0.079	-0.074
-665.018	-161.132	0.198	-0.010
-664.003	-200.000	0.015	-0.105
-662.989	11.427	0.301	-0.230
-661.974	753.221	0.050	0.135
-660.959	-38.368	0.088	0.046
-659.945	-19.141	-0.384	0.238
-658.930	-8.197	-0.340	0.228
-657.916	52.416	0.143	-0.137
-656.901	-200.000	0.042	0.216
-655.886	-149.586	0.054	0.004
-654.872	39.465	-0.170	-0.152
-653.857	-200.000	0.056	-0.261
-652.843	-22.817	-0.152	-0.092
-651.828	122.198	-0.076	-0.094
-650.814	214.225	0.207	0.327
-649.799	-102.710	-0.159	-0.038
-648.784	-109.423	0.407	-0.086
-647.770	-200.000	-0.033	0.152
-646.755	-5.553	0.148	0.101
-645.741	156.663	-0.178	-0.245
-644.726	-118.182	-0.500	0.089
-643.711	-200.000	0.085	0.000
-642.697	65.510	-0.166	-0.168
-641.682	-39.137	-0.061	0.032
-640.668	-200.000	-0.055	-0.323
-639.653	-40.588	0.212	0.110
-638.638	-18.429	0.052	0.033
-637.624	-200.000	0.018	0.120
-636.609	197.690	0.091	-0.138
-635.595	-111.815	0.361	0.073
-634.580	-103.578	-0.197	-0.046
-633.565	8.013	-0.147	-0.110
-632.551	220.415	0.024	-0.039
-631.536	800.000	0.064	0.246
-630.522	6.514	-0.473	-0.351
-629.507	-150.014	0.189	0.015
-628.492	800.000	-0.067	-0.218
-627.478	53.796	0.088	0.084
-626.463	-200.000	0.002	0.106
-625.449	103.699	0.303	0.354
-624.434	14.086	0.202	-0.157
-623.419	349.367	0.060	-0.119
-622.405	147.607	0.162	-0.218
-621.390	129.517	0.276	-0.352
-620.376	800.000	-0.091	0.272
-619.361	-68.939	-0.383	-0.147
-618.346	800.000	0.041	0.122
-617.332	-200.000	-0.008	0.307
-616.317	166.665	-0.212	0.299
-615.303	81.927	-0.067	0.073
-614.288	190.750	0.058	0.087
-613.273	168.564	-0.275	0.390
-612.259	303.051	-0.168	0.310
-611.244	32.251	0.087	0.075
-610.230	761.818	0.042	-0.114
-609.215	-200.000	-0.069	0.336
-608.201	165.827	0.233	-0.328
-607.186	82.111	0.139	0.150
-606.171	663.094	-0.012	-0.030
-605.157	237.148	-0.072	0.119
-604.142	-200.000	0.034	-0.191
-603.128	-92.324	-0.239	0.067
-602.113	166.061	0.178	-0.252
-601.098	-12.822	-0.236	0.153
-600.084	800.000	-0.062	0.246
-599.069	-200.000	-0.075	0.529
-598.055	-137.905	-0.330	0.037
-597.040	-116.807	0.329	0.060
-596.025	70.949	-0.098	-0.101
-595.011	800.000	0.020	-0.080
-593.996	-56.107	0.078	-0.035
-592.982	-59.665	0.275	-0.118
-591.967	91.898	0.109	-0.123
-590.952	-131.301	-0.076	-0.010
-589.938	-14.259	-0.245	-0.157
-588.923	-200.000	0.033	-0.506
-587.909	-42.823	0.123	0.062
-586.894	466.644	-0.142	0.317
-585.879	-43.979	0.164	0.082
-584.865	81.383	-0.077	-0.083
-583.850	-19.164	-0.192	0.119
-582.836	-172.373	0.210	0.007
-581.821	245.645	0.078	0.130
-580.806	-81.555	0.219	-0.072
-579.792	691.890	-0.144	-0.376
-578.777	188.714	0.248	0.370
-577.763	728.953	-0.071	-0.188
-576.748	134.626	-0.159	-0.205
-575.733	-74.527	0.217	0.078
-574.719	-200.000	0.007	-0.225
-573.704	-100.712	-0.055	-0.014
-572.690	151.739	0.080	0.109
-571.675	257.763	0.118	-0.201
-570.661	800.000	0.080	0.273
-569.646	-91.142	0.289	-0.082
-568.631	-14.569	-0.268	0.171
-567.617	-161.583	0.155	0.008
-566.602	-200.000	0.004	-0.186
-565.588	800.000	0.044	-0.169
-564.573	556.105	-0.130	-0.312
-563.558	-52.803	0.177	-0.081
-562.544	180.441	0.260	-0.380
-561.529	-39.258	0.223	-0.116
-560.515	-99.976	-0.148	0.037
-559.500	-200.000	0.018	-0.144
-558.485	780.195	-0.082	0.223
-557.471	-67.550	0.347	-0.135
-556.456	-185.699	-0.289	-0.004
-555.442	-107.571	0.331	0.072
-554.427	-200.000	0.032	0.252
-553.412	255.405	-0.128	0.218
-552.398	-52.617	0.141	-0.065
-551.383	-107.014	0.142	-0.031
-550.369	-84.190	-0.253	0.080
-549.354	-200.000	-0.086	0.461
-548.339	-86.445	0.179	0.055
-547.325	76.788	0.135	-0.142
-546.310	-134.877	-0.147	0.018
-545.296	150.825	0.304	-0.411
-544.281	40.072	-0.156	-0.140
-543.266	-60.430	0.128	0.054
-542.252	800.000	0.143	0.422
-541.237	-67.256	-0.247	0.096
-540.223	73.938	-0.095	0.099
-539.208	-36.863	0.222	0.118
-538.193	50.829	-0.095	-0.089
-537.179	26.198	0.062	0.051
-536.164	-28.957	-0.176	0.100
-535.150	339.665	-0.075	-0.145
-534.135	104.043	0.179	0.210
-533.121	211.686	-0.055	0.085
-532.106	574.867	-0.139	0.337
-531.091	275.782	0.056	-0.098
-530.077	-200.000	-0.087	-0.403
-529.062	-181.452	-0.232	0.004
-528.048	-36.177	-0.033	0.017
-527.033	-198.826	-0.171	0.001
-526.018	35.817	-0.181	0.158
-525.004	-127.123	-0.032	-0.005
-523.989	-113.617	-0.066	0.013
-522.975	-76.084	0.322	-0.113
-521.960	313.374	0.074	0.138
-520.945	800.000	-0.044	-0.188
-519.931	-0.463	0.157	-0.111
-518.916	82.533	-0.213	-0.230
-517.902	245.528	-0.038	0.064
-516.887	-164.264	-0.352	0.016
-515.872	800.000	0.044	0.178
-514.858	-142.138	-0.128	-0.013
-513.843	-36.488	0.112	0.060
-512.829	800.000	0.039	-0.124
-511.814	-82.873	-0.181	0.058
-510.799	337.188	-0.173	0.333
-509.785	311.459	-0.092	0.172
-508.770	258.115	-0.036	-0.062
-507.756	475.049	-0.077	-0.172
-506.741	-200.000	-0.010	-0.337
-505.726	219.441	0.090	-0.143
-504.712	800.000	-0.080	0.290
-503.697	-200.000	-0.009	0.117
-502.683	-53.060	0.195	0.089
-501.668	-200.000	-0.013	0.202
-500.653	800.000	-0.037	-0.146
-499.639	800.000	0.124	-0.529
-498.624	132.896	0.137	-0.176
-497.610	-127.294	0.227	0.033
-496.595	-42.749	-0.272	0.137
-495.581	208.036	-0.050	0.077
-494.566	73.935	0.141	0.147
-493.551	800.000	0.047	-0.149
-492.537	-200.000	-0.001	0.078
-491.522	129.763	0.114	0.145
-490.508	-38.758	-0.093	0.048
-489.493	-135.503	0.290	-0.034
-488.478	38.131	-0.149	0.132
-487.464	-110.151	-0.415	0.086
-486.449	157.407	0.178	0.244
-485.435	-14.899	0.300	0.191
-484.420	-200.000	0.005	0.098
-483.405	-76.360	0.376	-0.131
-482.391	60.147	-0.204	0.200
-481.376	-26.898	0.426	0.246
-480.362	-200.000	-0.010	-0.078
-479.347	-200.000	0.055	-0.277
-478.332	392.293	0.073	-0.150
-477.318	-124.018	-0.262	0.041
-476.303	473.657	0.126	-0.283
-475.289	-200.000	-0.030	-0.274
-474.274	-80.828	-0.168	0.055
-473.259	244.010	0.280	-0.465
-472.245	171.102	0.106	-0.150
-471.230	-200.000	-0.007	0.177
-470.216	-9.793	0.093	0.061
-469.201	71.697	0.091	-0.093
-468.186	-29.926	0.198	-0.112
-467.172	112.735	0.202	0.242
-466.157	207.972	-0.166	-0.256
-465.143	270.529	0.211	-0.368
-464.128	647.081	-0.076	-0.193
-463.113	12.800	-0.189	0.145
-462.099	47.526	0.157	0.145
-461.084	544.050	0.068	0.161
-460.070	-148.627	0.240	0.019
-459.055	432.835	-0.089	0.191
-458.040	-76.703	0.094	-0.033
-457.026	27.839	0.038	0.032
-456.011	-118.315	-0.218	-0.038
-454.997	-84.994	0.111	0.035
-453.982	263.112	-0.127	-0.218
-452.968	-200.000	0.002	-0.100
-451.953	-124.547	0.269	0.041
-450.938	800.000	-0.132	0.377
-449.924	-56.904	-0.064	-0.028
-448.909	50.424	-0.187	0.175
-447.895	110.424	0.136	0.161
-446.880	-200.000	0.009	0.042
-445.865	67.068	-0.127	0.128
-444.851	-200.000	0.060	0.322
-443.836	253.062	-0.191	-0.322
-442.822	350.209	0.092	-0.179
-441.807	87.501	-0.239	0.262
-440.792	800.000	-0.065	-0.231
-439.778	30.980	-0.213	-0.181
-438.763	-200.000	-0.031	0.156
-437.749	464.400	-0.117	-0.260
-436.734	-20.096	0.215	0.131
-435.719	52.608	0.043	0.040
-434.705	800.000	0.090	-0.344
-433.690	-29.733	-0.484	0.273
-432.676	-200.000	0.002	0.057
-431.661	366.545	-0.037	-0.073
-430.646	-26.853	-0.050	-0.029
-429.632	-200.000	-0.035	0.176
-428.617	-40.857	0.117	0.060
-427.603	-66.464	-0.509	0.200
-426.588	26.017	0.068	-0.056
-425.573	-200.000	0.020	-0.413
-424.559	26.370	-0.196	0.162
-423.544	-200.000	0.000	0.137
-422.530	-200.000	-0.022	0.179
-421.515	43.411	-0.365	-0.330
-420.500	-5.374	0.049	0.033
-419.486	800.000	0.065	-0.261
-418.471	175.309	0.061	0.088
-417.457	68.479	0.046	0.047
-416.442	92.736	0.275	0.307
-415.428	800.000	0.056	0.212
-414.413	-1.965	-0.082	-0.057
-413.398	800.000	0.041	0.139
-412.384	-40.712	-0.163	0.084
-411.369	-102.013	-0.201	0.048
-410.355	-50.186	-0.362	0.169
-409.340	26.554	-0.184	-0.152
-408.325	800.000	-0.072	0.257
-407.311	39.108	0.394	-0.348
-406.296	-200.000	0.004	-0.245
-405.282	-15.882	0.154	0.097
-404.267	-67.923	-0.243	-0.094
-403.252	167.022	-0.040	-0.056
-402.238	-200.000	0.017	0.158
-401.223	-122.467	0.268	-0.043
-400.209	-31.850	-0.136	-0.075
-399.194	-115.668	-0.169	-0.031
-398.179	448.150	0.087	-0.189
-397.165	800.000	0.114	0.423
-396.150	135.976	0.050	-0.065
-395.136	-151.983	-0.073	0.005
-394.121	-138.502	-0.233	-0.025
-393.106	-135.887	-0.247	-0.029
-392.092	-115.668	-0.218	-0.040
-391.077	32.436	-0.172	-0.147
-390.063	334.852	-0.143	-0.274
-389.048	800.000	0.039	0.122
-388.033	-54.059	-0.013	-0.006
-387.019	-136.452	0.097	-0.011
-386.004	800.000	-0.089	-0.292
-384.990	800.000	0.041	-0.135
-383.975	53.773	0.021	0.020
-382.960	-85.669	-0.265	-0.081
-381.946	326.343	0.082	-0.154
-380.931	-146.108	-0.388	-0.034
-379.917	-200.000	0.018	-0.368
-378.902	-129.935	-0.470	0.064
-377.888	-200.000	-0.007	-0.098
-376.873	122.058	0.160	-0.197
-375.858	-200.000	0.041	-0.264
-374.844	800.000	0.082	-0.276
-373.829	-30.789	0.374	-0.209
-372.815	-105.345	-0.115	-0.026
-371.800	433.020	0.059	0.127
-370.785	800.000	-0.209	0.624
-369.771	634.820	0.026	0.065
-368.756	-107.853	0.173	0.037
-367.742	-74.262	0.221	-0.079
-366.727	-112.491	-0.152	-0.030
-365.712	-105.335	0.080	-0.018
-364.698	-141.930	-0.049	-0.005
-363.683	38.255	-0.016	-0.014
-362.669	-200.000	-0.017	0.353
-361.654	-61.549	0.159	-0.066
-360.639	-200.000	-0.078	-0.373
-359.625	-12.698	0.138	-0.089
-358.610	-15.565	-0.113	0.071
-357.596	800.000	-0.080	-0.309
-356.581	-81.858	0.143	0.046
-355.566	58.385	0.068	-0.066
-354.552	-43.270	-0.102	0.051
-353.537	144.727	-0.247	-0.326
-352.523	-200.000	-0.228	0.000
-351.508	-43.295	0.092	0.046
-350.493	-129.145	0.293	0.040
-349.479	-99.599	-0.207	-0.051
-348.464	-77.365	-0.118	0.040
-347.450	71.595	-0.055	0.056
-346.435	-200.000	-0.060	0.379
-345.420	-119.199	0.400	-0.069
-344.406	800.000	-0.117	0.486
-343.391	-200.000	0.050	0.246
-342.377	-137.549	0.193	-0.021
-341.362	-15.117	-0.153	0.096
-340.348	-84.100	0.325	-0.102
-339.333	363.823	0.033	-0.065
-338.318	-90.993	0.082	-0.023
-337.304	-200.000	0.003	-0.116
-336.289	-200.000	-0.010	-0.104
-335.275	-200.000	0.056	-0.400
-334.260	429.909	0.186	0.396
-333.245	-200.000	0.026	-0.153
-332.231	21.673	0.248	-0.199
-331.216	800.000	0.025	-0.083
-330.202	-16.600	0.109	-0.068
-329.187	-167.301	-0.053	-0.002
-328.172	800.000	-0.030	-0.090
-327.158	122.870	0.251	0.310
-326.143	-158.597	-0.193	-0.011
-325.129	54.311	0.109	-0.104
-324.114	-45.551	-0.392	-0.191
-323.099	-48.876	-0.102	0.048
-322.085	65.066	-0.159	-0.158
-321.070	-67.621	-0.222	-0.086
-320.056	-200.000	-0.011	0.161
-319.041	800.000	-0.117	-0.372
-318.026	-200.000	-0.047	0.266
-317.012	149.882	0.133	-0.177
-315.997	-200.000	0.005	0.142
-314.983	-200.000	-0.026	-0.257
-313.968	-200.000	-0.009	0.072
-312.953	-15.409	-0.198	-0.125
-311.939	-200.000	0.047	-0.207
-310.924	-3.712	-0.271	0.185
-309.910	-200.000	0.005	0.156
-308.895	37.152	0.077	0.067
-307.880	7.660	-0.283	0.209
-306.866	565.922	0.059	-0.141
-305.851	-92.371	-0.373	-0.103
-304.837	800.000	0.019	-0.073
-303.822	152.064	-0.077	-0.104
-302.807	404.952	-0.072	0.149
-301.793	-200.000	0.062	-0.283
-300.778	-130.236	-0.288	-0.039
-299.764	-200.000	0.045	-0.231
-298.749	-161.335	0.107	0.005
-297.735	-28.640	-0.221	0.125
-296.720	800.000	-0.064	-0.199
-295.705	-200.000	-0.002	-0.164
-294.691	-71.818	-0.191	-0.070
-293.676	-200.000	0.041	0.330
-292.662	-73.210	-0.410	0.148
-291.647	20.066	0.386	-0.306
-290.632	800.000	-0.042	-0.156
-289.618	800.000	0.091	0.376
-288.603	49.929	0.157	0.145
-287.589	-139.891	-0.263	-0.027
-286.574	29.805	0.160	0.134
-285.559	1.478	0.124	-0.087
-284.545	800.000	-0.081	0.262
-283.530	-159.748	-0.131	-0.007
-282.516	33.709	-0.205	0.175
-281.501	-52.769	0.200	-0.091
-280.486	54.291	-0.083	-0.078
-279.472	-200.000	-0.008	0.226
-278.457	-119.740	-0.249	-0.042
-277.443	166.852	-0.154	0.215
-276.428	161.231	-0.111	-0.153
-275.413	-130.426	0.197	-0.026
-274.399	0.326	-0.011	0.008
-273.384	767.786	0.068	-0.181
-272.370	-37.315	-0.161	0.084
-271.355	450.881	-0.098	0.213
-270.340	-200.000	-0.087	-0.401
-269.326	-102.840	0.319	-0.074
-268.311	-90.560	0.365	0.104
-267.297	-17.825	-0.316	-0.195
-266.282	800.000	-0.119	-0.337
-265.267	800.000	0.030	0.096
-264.253	-33.071	-0.161	0.088
-263.238	-106.651	0.158	0.035
-262.224	-89.431	-0.184	0.053
-261.209	800.000	-0.056	0.198
-260.195	59.757	0.271	0.263
-259.180	-102.112	0.207	0.049
-258.165	-200.000	0.054	-0.295
-257.151	-56.573	0.082	-0.036
-256.136	681.438	0.061	0.157
-255.122	-72.159	0.139	0.051
-254.107	-145.048	0.257	0.023
-253.092	-147.401	0.249	-0.021
-252.078	800.000	-0.044	0.179
-251.063	-19.294	0.208	-0.127
-250.049	-200.000	0.042	-0.305
-249.034	-93.930	0.191	-0.051
-248.019	-24.528	0.267	0.156
-247.005	-48.296	0.201	-0.095
-245.990	19.285	0.156	0.123
-244.976	800.000	-0.091	0.251
-243.961	-200.000	0.021	0.093
-242.946	133.226	0.113	-0.143
-241.932	302.368	0.063	0.115
-240.917	800.000	0.022	-0.061
-239.903	-200.000	-0.179	0.001
-238.888	93.900	0.151	0.168
-237.873	-30.962	-0.114	-0.063
-236.859	49.256	0.292	-0.269
-235.844	208.775	-0.095	0.145
-234.830	6.947	0.290	0.212
-233.815	-200.000	0.008	-0.163
-232.800	101.701	0.140	-0.161
-231.786	148.116	-0.088	-0.116
-230.771	-81.892	-0.354	0.114
-229.757	70.589	0.069	-0.070
-228.742	177.799	0.097	0.139
-227.727	800.000	0.090	0.247
-226.713	-78.422	0.216	-0.073
-225.698	-130.576	-0.389	-0.052
-224.684	-200.000	0.003	-0.108
-223.669	170.585	-0.121	0.170
-222.655	-200.000	-0.010	0.300
-221.640	-200.000	-0.058	-0.274
-220.625	-158.257	-0.333	0.019
-219.611	-75.789	-0.056	-0.020
-218.596	96.539	0.149	0.167
-217.582	-42.090	0.063	0.032
-216.567	-200.000	0.023	0.117
-215.552	-41.469	-0.319	-0.161
-214.538	286.385	-0.086	-0.152
-213.523	114.348	0.209	-0.249
-212.509	417.710	-0.019	0.041
-211.494	-25.805	0.151	0.087
-210.479	127.565	0.152	0.189
-209.465	4.960	0.294	-0.212
-208.450	372.546	-0.166	0.330
-207.436	7.780	-0.178	0.131
-206.421	-111.226	0.188	-0.038
-205.406	22.741	-0.147	-0.118
-204.392	580.470	0.034	0.082
-203.377	75.052	0.175	-0.181
-202.363	434.491	0.138	-0.294
-201.348	800.000	0.040	-0.152
-200.333	250.405	0.118	-0.196
-199.319	-70.782	-0.223	-0.082
-198.304	0.183	-0.182	-0.127
-197.290	-200.000	-0.074	-0.000
-196.275	-17.723	0.267	0.164
-195.260	-67.578	0.244	0.094
-194.246	-90.222	0.172	0.049
-193.231	800.000	-0.048	0.173
-192.217	-93.427	0.163	0.044
-191.202	-200.000	-0.049	0.272
-190.187	-200.000	0.086	0.378
-189.173	-131.784	-0.118	-0.015
-188.158	-106.211	0.190	-0.042
-187.144	-31.267	0.183	-0.101
-186.129	84.862	0.097	0.105
-185.114	-200.000	0.010	0.145
-184.100	173.916	0.056	0.080
-183.085	-126.827	0.153	0.022
-182.071	-200.000	0.007	0.182
-181.056	-32.961	-0.210	0.114
-180.042	-135.371	-0.202	-0.024
-179.027	-163.171	0.196	-0.009
-178.012	-145.229	-0.211	0.019
-176.998	195.452	-0.098	-0.146
-175.983	155.361	-0.147	0.198
-174.969	-200.000	0.020	-0.105
-173.954	167.967	-0.091	-0.126
-172.939	-21.863	0.218	-0.130
-171.925	-151.297	-0.332	0.024
-170.910	147.867	-0.132	-0.174
-169.896	-19.229	-0.186	0.113
-168.881	-166.772	0.232	-0.009
-167.866	79.847	0.148	-0.156
-166.852	175.201	-0.136	-0.192
-165.837	-78.456	0.167	0.056
-164.823	358.614	0.164	-0.320
-163.808	-200.000	0.098	0.564
-162.793	97.294	-0.067	0.076
-161.779	-102.223	0.231	0.054
-160.764	-200.000	-0.016	0.183
-159.750	114.566	0.191	0.227
-158.735	52.698	-0.133	0.124
-157.720	800.000	0.127	-0.369
-156.706	135.112	0.160	0.204
-155.691	51.964	-0.202	0.188
-154.677	-200.000	-0.022	0.160
-153.662	90.511	0.170	0.186
-152.647	-31.042	-0.163	0.090
-151.633	85.953	-0.310	-0.333
-150.618	-130.461	0.271	-0.036
-149.604	-200.000	0.026	-0.203
-148.589	-200.000	-0.031	-0.434
-147.574	214.398	0.257	-0.398
-146.560	-110.523	-0.074	-0.015
-145.545	800.000	0.031	0.133
-144.531	76.048	0.514	0.532
-143.516	800.000	0.045	0.170
-142.502	-200.000	0.003	0.049
-141.487	-126.482	-0.412	-0.060
-140.472	158.240	-0.062	0.084
-139.458	800.000	-0.120	-0.329
-138.443	-107.517	0.185	-0.040
-137.429	800.000	-0.164	-0.462
-136.414	800.000	-0.071	0.229
-135.399	-200.000	-0.073	0.354
-134.385	-117.307	0.346	-0.061
-133.370	23.939	0.196	0.158
-132.356	-94.634	-0.137	-0.037
-131.341	-90.751	0.035	0.010
-130.326	325.284	0.276	-0.516
-129.312	-141.100	0.043	-0.004
-128.297	-159.750	-0.609	-0.033
-127.283	31.232	0.354	0.297
-126.268	251.417	0.084	-0.139
-125.253	-200.000	0.014	0.201
-124.239	-200.000	0.033	0.403
-123.224	44.739	-0.106	-0.095
-122.210	-39.449	-0.126	0.064
-121.195	800.000	-0.035	0.104
-120.180	-195.234	-0.482	0.004
-119.166	-76.027	0.155	-0.054
-118.151	26.238	0.237	0.193
-117.137	-200.000	0.031	-0.156
-116.122	-4.014	0.182	0.123
-115.107	-87.152	-0.244	-0.073
-114.093	-200.000	0.003	-0.204
-113.078	184.749	-0.152	0.221
-112.064	334.989	0.076	-0.144
-111.049	241.083	0.111	-0.181
-110.034	-123.743	0.092	-0.014
-109.020	-200.000	0.105	0.480
-108.005	-68.550	0.470	-0.178
-106.991	-189.588	-0.391	-0.004
-105.976	-46.421	0.318	0.153
-104.962	161.336	0.207	-0.283
-103.947	-25.215	0.119	0.069
-102.932	73.218	-0.184	0.188
-101.918	-200.000	0.014	-0.099
-100.903	165.411	-0.064	-0.088
-99.889	800.000	-0.035	-0.115
-98.874	-139.293	0.330	-0.035
-97.859	-149.028	-0.206	-0.016
-96.845	-200.000	-0.037	-0.471
-95.830	-102.836	0.110	0.026
-94.816	-200.000	0.001	-0.199
-93.801	-107.344	-0.113	0.024
-92.786	-200.000	0.048	-0.231
-91.772	-1.415	0.191	-0.131
-90.757	-200.000	-0.012	0.154
-89.743	-200.000	-0.030	0.166
-88.728	-57.245	0.551	-0.237
-87.713	-56.562	0.299	-0.129
-86.699	-200.000	-0.033	0.272
-85.684	162.259	0.184	0.252
-84.670	162.781	0.102	0.140
-83.655	-200.000	0.034	-0.173
-82.640	73.026	0.251	0.256
-81.626	-73.301	0.095	0.034
-80.611	-43.422	-0.184	0.091
-79.597	-200.000	-0.023	0.160
-78.582	20.084	-0.142	-0.112
-77.567	-200.000	-0.042	0.235
-76.553	800.000	-0.117	0.354
-75.538	-200.000	-0.004	-0.045
-74.524	-86.323	0.167	0.050
-73.509	41.167	-0.125	0.110
-72.494	-200.000	0.010	-0.130
-71.480	229.748	0.162	-0.259
-70.465	-115.765	0.090	0.016
-69.451	-200.000	-0.036	-0.214
-68.436	349.534	-0.103	-0.198
-67.422	60.785	0.077	0.075
-66.407	99.945	0.072	0.082
-65.392	-200.000	-0.015	0.314
-64.378	-113.738	-0.221	0.042
-63.363	-200.000	-0.024	-0.151
-62.349	-135.006	0.373	-0.044
-61.334	100.085	-1.223	-1.382
-60.319	232.415	0.462	0.739
-59.305	-200.000	-0.259	-1.280
-58.290	275.191	0.603	1.042
-57.276	651.087	0.625	1.562
-56.261	-200.000	121.934	622.443
-55.246	386.481	1574.940	3170.161
-54.232	140.079	2748.752	3532.853
-53.217	94.883	2207.410	2448.000
-52.203	34.968	1720.228	1467.687
-51.188	27.367	1535.239	1257.522
-50.173	25.353	1511.234	1224.095
-49.159	47.765	1580.299	1437.559
-48.144	45.894	1593.930	1436.811
-47.130	27.371	1543.759	1264.329
-46.115	24.577	1527.498	1231.721
-45.100	24.412	1524.310	1227.971
-44.086	24.334	1522.558	1225.971
-43.071	24.372	1520.218	1224.301
-42.057	24.288	1518.429	1222.238
-41.042	24.263	1517.596	1221.348
-40.027	24.320	1515.798	1220.240
-39.013	24.277	1514.381	1218.755
-37.998	24.261	1513.138	1217.600
-36.984	24.288	1512.032	1216.846
-35.969	24.324	1510.073	1215.466
-34.954	24.343	1508.833	1214.551
-33.940	24.380	1507.224	1213.459
-32.925	24.306	1506.108	1212.007
-31.911	24.323	1505.088	1211.252
-30.896	24.334	1503.781	1210.232
-29.881	24.398	1502.327	1209.441
-28.867	24.335	1500.947	1207.860
-27.852	24.315	1499.355	1206.391
-26.838	24.377	1498.284	1205.904
-25.823	24.324	1496.083	1203.728
-24.809	24.432	1495.017	1203.550
-23.794	24.485	1493.284	1202.463
-22.779	24.355	1492.625	1201.012
-21.765	24.464	1491.210	1200.556
-20.750	24.380	1490.434	1199.321
-19.736	24.290	1489.696	1198.076
-18.721	24.353	1488.084	1197.154
-17.706	24.321	1486.705	1195.782
-16.692	24.351	1485.792	1195.202
-15.677	24.294	1485.185	1194.280
-14.663	24.345	1484.061	1193.675
-13.648	24.282	1483.477	1192.734
-12.633	24.299	1482.103	1191.697
-11.619	24.368	1481.429	1191.567
-10.604	24.210	1480.956	1190.083
-9.590	24.309	1479.273	1189.348
-8.575	24.291	1478.917	1188.893
-7.560	24.266	1478.022	1187.960
-6.546	24.378	1476.369	1187.331
-5.531	24.316	1475.906	1186.500
-4.517	24.301	1474.799	1185.458
-3.502	24.324	1473.952	1184.882
-2.487	24.299	1472.847	1183.785
-1.473	24.314	1471.963	1183.126
-0.458	24.313	1470.643	1182.011
0.556	23.378	1460.610	1171.660
1.571	20.524	1435.567	1132.899
2.586	17.040	1372.850	1061.550
3.600	15.452	1287.912	986.463
4.615	14.321	1244.128	946.414
5.629	12.540	1187.685	893.731
6.644	6.373	1105.114	800.260
7.659	1.509	1068.231	749.544
8.673	0.829	1063.018	742.486
9.688	0.673	1059.821	739.424
10.702	0.620	1058.822	738.402
11.717	0.728	1056.381	737.158
12.731	2.737	1057.599	747.747
13.746	8.960	1066.380	784.400
14.761	14.783	1073.968	818.517
15.775	17.165	1076.097	831.743
16.790	16.914	1074.748	829.402
17.804	15.898	1072.601	822.709
18.819	15.158	1070.844	817.676
19.834	14.603	1069.708	814.030
20.848	14.310	1068.277	811.442
21.863	14.002	1068.231	809.836
22.877	13.774	1067.076	807.775
23.892	13.613	1066.303	806.335
24.907	13.659	1064.720	805.293
25.921	13.509	1064.528	804.346
26.936	13.567	1064.065	804.208
27.950	13.619	1063.364	803.857
28.965	13.556	1062.280	802.662
29.980	13.675	1061.290	802.419
30.994	13.677	1060.357	801.654
32.009	13.721	1060.009	801.533
33.023	13.786	1058.800	800.862
34.038	13.818	1057.622	800.051
35.053	13.742	1057.022	799.162
36.067	13.692	1056.135	798.182
37.082	13.744	1055.144	797.611
38.096	13.802	1054.481	797.318
39.111	13.795	1054.124	796.945
40.126	13.781	1052.727	795.751
41.140	13.735	1051.972	794.887
42.155	13.607	1051.142	793.577
43.169	13.610	1050.017	792.673
44.184	13.664	1048.736	791.894
45.199	13.625	1047.705	790.860
46.213	13.683	1046.694	790.301
47.228	13.722	1045.623	789.609
48.242	13.713	1044.929	788.970
49.257	13.658	1043.952	787.904
50.271	13.764	1042.774	787.449
51.286	13.710	1041.618	786.248
52.301	13.663	1041.150	785.602
53.315	13.745	1040.385	785.347
54.330	13.707	1039.760	784.624
55.344	13.566	1039.202	783.469
56.359	13.707	1037.901	783.085
57.374	13.738	1036.718	782.265
58.388	13.662	1035.869	781.198
59.403	13.637	1035.314	780.594
60.417	13.667	1034.267	779.877
61.432	13.688	1033.848	779.591
62.447	13.563	1032.963	778.266
63.461	13.514	1032.317	777.482
64.476	13.452	1031.376	776.412
65.490	13.460	1030.440	775.676
66.505	13.580	1029.535	775.490
67.520	13.696	1029.089	775.628
68.534	13.599	1028.143	774.391
69.549	13.509	1027.329	773.292
70.563	13.716	1026.630	773.663
71.578	13.669	1025.784	772.735
72.593	13.512	1025.196	771.494
73.607	13.613	1023.906	770.925
74.622	13.553	1023.475	770.255
75.636	13.564	1022.074	769.182
76.651	13.590	1021.608	768.884
77.666	13.587	1021.146	768.453
78.680	13.586	1019.745	767.328
79.695	13.513	1019.649	766.850
80.709	13.624	1018.593	766.501
81.724	13.664	1018.036	766.198
82.739	13.679	1017.184	765.560
83.753	13.760	1016.237	765.151
84.768	13.691	1015.743	764.391
85.782	13.770	1014.706	763.911
86.797	13.880	1013.982	763.804
87.812	13.812	1012.929	762.627
88.826	13.656	1012.372	761.424
89.841	13.693	1011.417	760.811
90.855	13.848	1010.307	760.620
91.870	13.839	1009.762	760.098
92.884	13.818	1009.093	759.431
93.899	13.841	1008.434	758.973
94.914	13.771	1007.942	758.218
95.928	13.904	1006.656	757.790
96.943	13.854	1006.060	757.045
97.957	13.895	1005.184	756.504
98.972	13.856	1004.291	755.590
99.987	13.742	1004.083	754.848
101.001	13.747	1003.209	754.145
102.016	13.812	1002.078	753.527
103.030	13.792	1001.124	752.650
104.045	13.927	1000.256	752.541
105.060	13.742	999.896	751.367
106.074	13.851	998.384	750.658
107.089	13.622	998.029	749.290
108.103	13.715	996.735	748.672
109.118	13.668	996.279	748.049
110.133	13.716	995.229	747.411
111.147	13.662	994.545	746.589
112.162	13.730	993.790	746.263
113.176	13.708	992.943	745.460
114.191	13.841	991.593	744.980
115.206	14.012	990.417	744.797
116.220	13.912	989.649	743.705
117.235	13.805	989.113	742.757
118.249	13.880	988.166	742.315
119.264	13.730	987.752	741.268
120.279	13.749	986.560	740.394
121.293	13.811	986.005	740.187
122.308	13.725	985.276	739.190
123.322	13.665	984.315	738.140
124.337	13.697	983.237	737.405
125.352	13.696	982.220	736.572
126.366	13.697	980.835	735.474
127.381	13.716	979.524	734.511
128.395	13.725	978.605	733.798
129.410	13.858	977.582	733.555
130.424	13.756	976.744	732.407
131.439	13.762	975.790	731.655
132.454	13.689	974.853	730.566
133.468	13.733	974.596	730.502
134.483	13.766	974.006	730.143
135.497	13.899	973.010	729.913
136.512	13.690	972.367	728.450
137.527	13.852	971.197	728.220
138.541	13.816	970.938	727.803
139.556	13.743	970.015	726.728
140.570	13.879	969.068	726.547
141.585	13.857	968.452	725.927
142.600	13.867	967.906	725.497
143.614	13.834	967.107	724.690
144.629	13.939	966.357	724.519
145.643	13.968	965.378	723.851
146.658	14.019	964.226	723.145
147.673	13.888	963.942	722.297
148.687	14.007	962.666	721.793
149.702	13.936	962.021	720.937
150.716	13.770	961.713	719.922
151.731	14.027	960.148	719.801
152.746	13.887	959.608	718.725
153.760	13.889	958.814	718.076
154.775	14.104	957.933	718.284
155.789	13.951	957.256	717.050
156.804	13.885	956.940	716.467
157.819	13.991	955.591	715.851
158.833	13.969	955.495	715.620
159.848	14.139	954.261	715.363
160.862	14.050	953.792	714.565
161.877	14.059	953.148	714.060
162.892	13.959	952.459	713.049
163.906	13.994	951.281	712.253
164.921	14.004	950.936	711.977
165.935	14.042	949.596	711.074
166.950	14.003	948.760	710.218
167.964	14.149	947.344	709.715
168.979	14.158	946.821	709.302
169.994	14.147	945.696	708.350
171.008	14.067	944.561	707.096
172.023	14.173	943.754	706.880
173.037	14.146	943.394	706.434
174.052	14.099	942.904	705.802
175.067	14.145	941.712	705.044
176.081	14.112	940.830	704.181
177.096	14.087	939.956	703.361
178.110	14.051	939.380	702.713
179.125	14.193	938.393	702.514
180.140	14.185	937.640	701.852
181.154	14.168	936.980	701.225
182.169	14.022	936.808	700.421
183.183	14.142	936.013	700.269
184.198	14.243	935.035	699.901
185.213	14.306	934.404	699.631
186.227	14.359	933.484	699.101
187.242	14.274	933.214	698.481
188.256	14.431	932.569	698.594
189.271	14.380	931.714	697.680
190.286	14.449	930.708	697.154
191.300	14.357	929.980	696.161
192.315	14.294	929.535	695.504
193.329	14.179	928.778	694.395
194.344	14.373	927.715	694.349
195.359	14.186	927.480	693.332
196.373	14.282	927.256	693.504
197.388	14.417	926.295	693.284
198.402	14.440	925.899	693.019
199.417	14.547	925.259	692.924
200.432	14.644	924.588	692.763
201.446	14.702	924.304	692.729
202.461	14.680	923.944	692.310
203.475	14.608	923.472	691.597
204.490	14.755	922.756	691.606
205.504	14.543	922.279	690.308
206.519	14.509	921.306	689.379
207.534	14.617	920.301	689.013
208.548	14.421	920.019	687.931
209.563	14.608	919.098	687.953
210.577	14.668	917.874	687.224
211.592	14.672	917.714	687.062
212.607	14.814	917.101	687.124
213.621	14.760	916.768	686.592
214.636	14.712	915.875	685.667
215.650	14.712	915.421	685.266
216.665	14.732	914.487	684.585
217.680	14.696	914.086	684.077
218.694	14.767	913.786	684.086
219.709	14.724	913.135	683.360
220.723	14.749	912.480	682.912
221.738	14.837	911.541	682.510
222.753	14.806	910.694	681.689
223.767	14.770	910.030	680.984
224.782	14.835	909.091	680.486
225.796	15.024	908.557	680.795
226.811	14.926	907.896	679.842
227.826	14.869	907.394	679.172
228.840	14.958	906.407	678.734
229.855	14.917	906.171	678.333
230.869	14.890	905.477	677.641
231.884	14.924	904.992	677.357
232.899	14.935	903.899	676.522
233.913	14.859	903.394	675.778
234.928	14.927	902.533	675.349
235.942	14.902	902.138	674.895
236.957	14.959	900.974	674.194
237.972	14.894	900.515	673.529
238.986	14.999	900.226	673.673
240.001	14.944	899.535	672.876
241.015	14.918	898.675	672.068
242.030	15.014	897.936	671.844
243.045	14.971	897.343	671.167
244.059	14.979	896.926	670.829
245.074	15.123	895.840	670.532
246.088	15.119	895.488	670.193
247.103	15.140	895.142	669.961
248.117	15.032	894.408	668.920
249.132	15.188	893.676	668.935
250.147	15.116	893.358	668.352
251.161	15.294	892.284	668.199
252.176	15.368	891.134	667.571
253.190	15.405	890.731	667.357
254.205	15.394	890.237	666.888
255.220	15.162	890.076	665.784
256.234	15.535	888.616	666.111
257.249	15.372	888.285	665.159
258.263	15.354	888.095	664.886
259.278	15.345	887.512	664.356
260.293	15.608	886.620	664.669
261.307	15.569	885.994	663.986
262.322	15.510	885.634	663.426
263.336	15.662	884.655	663.234
264.351	15.666	883.761	662.523
265.366	15.594	883.760	662.176
266.380	15.588	883.037	661.552
267.395	15.594	882.340	660.996
268.409	15.806	881.162	660.887
269.424	15.591	880.606	659.567
270.439	15.597	880.053	659.118
271.453	15.576	879.293	658.410
272.468	15.622	878.728	658.108
273.482	15.673	877.629	657.426
274.497	15.760	877.106	657.315
275.512	15.717	876.765	656.836
276.526	15.794	876.161	656.624
277.541	15.729	875.027	655.464
278.555	15.755	874.545	655.147
279.570	15.827	874.276	655.169
280.585	15.894	873.663	654.910
281.599	15.914	872.593	654.128
282.614	15.731	872.278	653.121
283.628	15.832	871.527	652.895
284.643	15.802	871.108	652.409
285.657	15.846	870.820	652.304
286.672	15.842	870.532	652.015
287.687	15.677	870.150	651.031
288.701	15.883	869.209	651.069
289.716	15.949	868.402	650.660
290.730	15.962	867.862	650.248
291.745	16.052	867.191	650.036
292.760	15.890	866.677	648.966
293.774	16.030	865.723	648.734
294.789	16.001	865.203	648.176
295.803	15.898	864.950	647.535
296.818	16.021	864.206	647.391
297.833	15.915	863.967	646.749
298.847	15.983	862.609	645.937
299.862	16.111	861.403	645.465
300.876	15.917	861.513	644.748
301.891	16.082	860.611	644.645
302.906	16.129	859.771	644.139
303.920	16.124	859.302	643.714
304.935	16.269	858.777	643.815
305.949	16.384	857.975	643.596
306.964	16.283	857.236	642.598
307.979	16.344	856.784	642.438
308.993	16.356	856.152	641.952
310.008	16.208	855.944	641.174
311.022	16.264	855.464	640.974
312.037	16.218	854.972	640.371
313.052	16.269	854.376	640.063
314.066	16.285	853.838	639.665
315.081	16.307	852.955	639.029
316.095	16.313	852.284	638.491
317.110	16.272	851.636	637.795
318.125	16.285	851.808	637.918
319.139	16.293	850.909	637.219
320.154	16.232	850.525	636.643
321.168	16.294	850.285	636.643
322.183	16.238	849.955	636.127
323.197	16.461	848.988	636.186
324.212	16.342	848.414	635.250
325.227	16.342	847.943	634.842
326.241	16.336	847.431	634.382
327.256	16.346	846.817	633.902
328.270	16.321	846.079	633.200
329.285	16.313	845.786	632.895
330.300	16.457	844.832	632.664
331.314	16.441	844.258	632.118
332.329	16.593	843.559	632.106
333.343	16.496	843.254	631.460
334.358	16.628	842.099	631.034
335.373	16.564	841.975	630.646
336.387	16.501	841.657	630.117
337.402	16.591	840.740	629.709
338.416	16.650	840.361	629.589
339.431	16.830	839.408	629.489
340.446	16.650	839.201	628.608
341.460	16.770	838.362	628.370
342.475	16.757	837.884	627.906
343.489	16.740	837.392	627.421
344.504	16.817	836.984	627.346
345.519	17.021	836.283	627.519
346.533	16.960	835.487	626.641
347.548	16.842	835.542	626.188
348.562	16.834	834.636	625.425
349.577	16.781	834.389	624.988
350.592	16.805	834.027	624.750
351.606	16.887	833.121	624.321
352.621	16.786	833.020	623.816
353.635	16.725	832.696	623.293
354.650	16.852	831.868	623.087
355.665	16.888	831.687	623.027
356.679	16.850	830.944	622.278
357.694	16.885	830.801	622.242
358.708	16.976	829.935	621.874
359.723	17.070	829.454	621.802
360.738	16.867	829.014	620.675
361.752	16.899	828.961	620.698
362.767	17.078	828.124	620.669
363.781	17.006	828.046	620.294
364.796	17.117	827.406	620.163
365.810	17.239	826.834	620.125
366.825	17.090	826.383	619.188
367.840	17.213	825.953	619.260
368.854	17.224	825.535	618.930
369.869	17.227	825.065	618.536
370.883	17.150	824.476	617.759
371.898	17.189	824.070	617.542
372.913	17.236	823.069	616.910
373.927	17.274	822.712	616.723
374.942	17.435	821.390	616.261
375.956	17.345	821.584	616.027
376.971	17.392	820.759	615.521
377.986	17.246	820.633	614.844
379.000	17.379	819.738	614.603
380.015	17.549	819.196	614.754
381.029	17.451	818.722	613.991
382.044	17.512	818.135	613.718
383.059	17.488	817.721	613.264
384.073	17.345	817.284	612.368
385.088	17.442	816.902	612.376
386.102	17.567	815.951	612.059
387.117	17.503	815.454	611.401
388.132	17.440	814.977	610.765
389.146	17.508	814.672	610.726
390.161	17.461	814.291	610.217
391.175	17.643	813.826	610.469
392.190	17.600	813.553	610.054
393.205	17.533	813.171	609.475
394.219	17.473	812.912	609.013
395.234	17.444	812.523	608.562
396.248	17.567	811.914	608.492
397.263	17.540	811.414	607.968
398.278	17.500	810.795	607.307
399.292	17.473	810.473	606.916
400.307	17.459	809.954	606.423
401.321	17.521	809.758	606.445
402.336	17.631	809.176	606.345
403.350	17.553	809.132	605.980
404.365	17.480	808.490	605.186
405.380	17.698	807.817	605.404
406.394	17.645	807.284	604.762
407.409	17.682	806.657	604.371
408.423	17.883	806.426	604.858
409.438	17.688	805.862	603.690
410.453	17.677	805.672	603.455
411.467	17.859	804.876	603.449
412.482	17.902	804.272	603.094
413.496	17.911	803.917	602.808
414.511	18.065	803.529	603.008
415.526	17.963	803.600	602.646
416.540	17.995	803.053	602.295
417.555	17.990	802.536	601.839
418.569	17.965	801.956	601.261
419.584	18.126	801.577	601.490
420.599	17.936	801.127	600.429
421.613	114.464	1296.651	1485.651
422.628	98.772	1368.821	1485.742
