DTS Sentinel unit serial number:	SN413079Multiplexer serial number:	ORYXHardware model number:	OX4-SRSoftware version number:	ORYX F/W v4.00 Oryx Data Collector v3.7.2.0data status	okinstallation	princeton_trtdifferential loss correction	single-endedforward channel	channel 3reverse channel	N/Adate	2019/09/13time	16:12:34forward acquisition time	60.00reverse acquisition time	0.00gamma	496.2192k internal	0.2303k external	0.2303temperature offset calibration	1.0140default loss term (dB/km)	0.3790temperature slope calibration	1.0000multiplexer offset coefficient	1.0000multiplexer slope coefficient	1.0000fibre end	0.00T internal ref (°C)	34.81T ext. ref 1 (°C)	4.84T ext. ref 2 (°C)	31.42length (m)	temperature (°C)	Stokes	anti-Stokes-747.200	-200.000	-0.024	0.149
-746.185	-200.000	-0.007	0.085
-745.171	-166.326	0.054	0.002
-744.156	-200.000	0.004	0.179
-743.142	-200.000	-0.033	0.324
-742.127	316.466	0.068	-0.130
-741.112	-200.000	0.027	0.267
-740.098	2.317	-0.096	0.071
-739.083	420.029	0.075	0.163
-738.069	800.000	0.075	0.273
-737.054	-200.000	0.047	-0.383
-736.039	-76.365	-0.224	0.080
-735.025	351.981	0.104	0.210
-734.010	-101.607	-0.308	-0.076
-732.996	800.000	0.047	-0.200
-731.981	-168.674	-0.389	0.015
-730.966	-200.000	0.031	-0.210
-729.952	532.920	0.109	0.262
-728.937	-18.806	-0.396	-0.251
-727.923	-200.000	0.044	0.228
-726.908	-30.450	-0.177	-0.102
-725.894	800.000	0.093	-0.309
-724.879	-9.014	0.200	0.136
-723.864	3.976	-0.194	-0.144
-722.850	29.156	-0.037	0.032
-721.835	-36.634	-0.110	0.060
-720.821	-83.780	-0.203	-0.066
-719.806	270.889	-0.121	-0.217
-718.791	-148.649	-0.256	0.021
-717.777	-137.125	-0.211	0.025
-716.762	329.914	-0.111	0.217
-715.748	-200.000	0.008	0.110
-714.733	749.127	-0.095	-0.260
-713.718	-76.687	-0.267	-0.095
-712.704	-200.000	-0.036	0.175
-711.689	72.581	-0.090	-0.096
-710.675	-173.041	-0.145	0.005
-709.660	-64.139	0.314	-0.130
-708.645	-77.730	-0.051	0.018
-707.631	-24.049	0.084	0.051
-706.616	800.000	-0.115	-0.373
-705.602	444.821	0.159	-0.355
-704.587	72.584	-0.273	0.289
-703.572	-122.713	0.208	0.034
-702.558	449.490	0.067	0.151
-701.543	800.000	-0.071	0.265
-700.529	800.000	-0.102	0.296
-699.514	800.000	0.024	-0.098
-698.499	427.872	-0.205	-0.450
-697.485	-200.000	0.015	-0.088
-696.470	800.000	-0.100	-0.352
-695.456	-137.914	-0.067	0.008
-694.441	51.601	0.023	0.022
-693.426	-50.056	-0.171	-0.082
-692.412	-200.000	-0.050	0.509
-691.397	-64.591	0.304	0.125
-690.383	-47.919	-0.170	-0.083
-689.368	-78.762	0.467	-0.162
-688.354	800.000	-0.066	0.276
-687.339	-200.000	0.036	-0.342
-686.324	-200.000	-0.016	-0.177
-685.310	-105.062	0.204	0.047
-684.295	-108.664	0.125	0.027
-683.281	-1.911	-0.291	-0.208
-682.266	281.404	-0.035	0.063
-681.251	197.223	-0.057	-0.088
-680.237	-200.000	0.050	0.311
-679.222	-61.676	0.199	-0.085
-678.208	-67.670	-0.215	-0.086
-677.193	358.569	0.193	-0.393
-676.178	800.000	0.189	-0.548
-675.164	800.000	0.052	-0.193
-674.149	327.149	0.229	-0.446
-673.135	800.000	-0.010	-0.042
-672.120	8.845	-0.259	-0.198
-671.105	-200.000	0.017	-0.208
-670.091	-16.238	-0.246	-0.159
-669.076	-200.000	-0.039	0.258
-668.062	-47.526	0.083	0.041
-667.047	-133.941	0.116	0.015
-666.032	77.716	-0.140	-0.152
-665.018	82.117	-0.085	0.093
-664.003	800.000	0.103	0.399
-662.989	-59.839	-0.054	0.024
-661.974	-88.391	-0.179	0.054
-660.959	-46.322	0.131	0.065
-659.945	-127.807	-0.272	0.040
-658.930	-200.000	0.021	0.271
-657.916	-184.243	-0.077	0.001
-656.901	800.000	0.040	-0.177
-655.886	-184.930	0.293	0.005
-654.872	-200.000	0.016	0.203
-653.857	382.662	-0.098	0.206
-652.843	-200.000	0.014	-0.278
-651.828	236.082	0.208	-0.349
-650.814	-101.655	-0.364	-0.090
-649.799	-70.654	0.171	-0.066
-648.784	-148.522	0.248	-0.021
-647.770	749.308	-0.055	0.150
-646.755	149.047	-0.215	-0.296
-645.741	-129.676	-0.252	0.035
-644.726	194.384	0.069	-0.106
-643.711	-200.000	-0.033	0.181
-642.697	-34.220	-0.132	-0.074
-641.682	800.000	-0.062	0.185
-640.668	-149.590	0.214	-0.017
-639.653	800.000	-0.026	-0.090
-638.638	-200.000	0.012	-0.187
-637.624	-3.022	-0.341	0.242
-636.609	11.650	-0.042	0.033
-635.595	-200.000	0.002	0.111
-634.580	-144.694	0.304	0.028
-633.565	-39.861	-0.176	-0.093
-632.551	-143.452	0.181	0.018
-631.536	312.158	0.071	-0.136
-630.522	31.181	0.103	-0.090
-629.507	-200.000	0.038	-0.246
-628.492	800.000	0.104	0.345
-627.478	628.822	-0.038	-0.097
-626.463	-200.000	0.012	0.210
-625.449	173.587	-0.099	0.145
-624.434	261.133	0.090	-0.158
-623.419	-1.809	-0.264	0.188
-622.405	800.000	0.090	-0.311
-621.390	-32.259	0.236	0.134
-620.376	103.788	0.140	-0.167
-619.361	308.476	-0.213	-0.403
-618.346	464.098	-0.075	-0.169
-617.332	80.994	0.043	-0.047
-616.317	69.319	0.142	0.148
-615.303	26.469	-0.318	-0.269
-614.288	185.030	-0.059	0.089
-613.273	-85.826	-0.138	0.043
-612.259	82.305	0.104	-0.114
-611.244	-46.763	0.099	0.049
-610.230	-116.359	-0.182	0.034
-609.215	122.497	-0.050	0.064
-608.201	215.920	-0.065	-0.104
-607.186	800.000	-0.006	-0.026
-606.171	-102.308	0.303	0.074
-605.157	-145.026	-0.105	-0.010
-604.142	551.659	0.066	-0.160
-603.128	157.614	0.168	0.236
-602.113	-38.526	-0.176	-0.094
-601.098	61.209	-0.053	-0.053
-600.084	800.000	0.011	0.039
-599.069	-200.000	-0.037	-0.188
-598.055	42.156	-0.051	0.046
-597.040	560.133	-0.074	-0.181
-596.025	-100.246	-0.355	-0.089
-595.011	163.988	-0.130	0.185
-593.996	-94.373	0.120	0.033
-592.982	4.044	0.278	0.206
-591.967	12.424	-0.236	-0.184
-590.952	-200.000	0.023	0.253
-589.938	85.252	0.083	-0.093
-588.923	153.924	-0.161	0.224
-587.909	-67.955	-0.228	-0.090
-586.894	-121.310	-0.327	-0.055
-585.879	-100.227	0.225	-0.057
-584.865	-94.202	0.168	0.047
-583.850	800.000	0.031	-0.110
-582.836	98.219	-0.048	-0.056
-581.821	-175.679	-0.042	-0.001
-580.806	-20.299	-0.135	-0.084
-579.792	272.551	0.118	-0.210
-578.777	-23.453	-0.044	0.027
-577.763	-162.569	0.377	-0.019
-576.748	388.914	-0.255	-0.535
-575.733	800.000	-0.009	0.027
-574.719	35.850	0.080	0.071
-573.704	26.815	-0.029	-0.025
-572.690	-165.885	-0.086	-0.004
-571.675	-42.626	-0.201	-0.104
-570.661	-17.690	0.214	0.136
-569.646	800.000	0.030	-0.102
-568.631	-200.000	0.066	0.398
-567.617	800.000	0.035	0.136
-566.602	-77.378	0.039	0.014
-565.588	-138.316	0.335	-0.037
-564.573	8.841	-0.158	-0.120
-563.558	-61.381	-0.157	0.067
-562.544	-17.505	0.168	-0.107
-561.529	-105.354	-0.342	0.079
-560.515	89.782	0.182	-0.206
-559.500	99.878	-0.021	0.025
-558.485	-141.539	-0.200	0.020
-557.471	-56.326	0.326	0.146
-556.456	-128.266	0.381	0.055
-555.442	-62.271	-0.243	-0.102
-554.427	61.644	-0.111	0.112
-553.412	-162.558	0.182	0.009
-552.398	-56.994	0.388	-0.173
-551.383	93.218	0.098	0.112
-550.369	156.386	-0.044	-0.061
-549.354	-200.000	-0.018	0.433
-548.339	-45.532	0.206	-0.103
-547.325	568.542	-0.022	-0.053
-546.310	-200.000	-0.014	0.269
-545.296	-16.282	-0.318	0.204
-544.281	-200.000	-0.011	0.137
-543.266	800.000	-0.050	0.200
-542.252	800.000	0.063	-0.197
-541.237	-200.000	0.048	-0.300
-540.223	-12.668	-0.072	-0.047
-539.208	-200.000	0.030	0.269
-538.193	485.280	0.083	0.191
-537.179	14.031	-0.249	-0.196
-536.164	371.894	0.091	-0.188
-535.150	482.779	-0.145	-0.332
-534.135	-200.000	0.038	0.180
-533.121	529.594	0.050	0.119
-532.106	92.377	0.185	0.210
-531.091	-134.711	-0.281	-0.035
-530.077	-4.681	-0.232	-0.162
-529.062	-45.947	0.247	-0.123
-528.048	-200.000	0.030	-0.431
-527.033	-20.088	0.077	0.048
-526.018	-200.000	-0.070	-0.486
-525.004	-143.568	-0.094	-0.009
-523.989	800.000	-0.074	-0.253
-522.975	-12.141	-0.099	0.065
-521.960	-24.766	-0.239	0.143
-520.945	-127.988	0.169	-0.024
-519.931	-128.218	0.113	-0.016
-518.916	800.000	-0.088	0.357
-517.902	-1.277	0.104	0.074
-516.887	-31.625	-0.409	0.232
-515.872	-200.000	-0.034	0.269
-514.858	341.007	-0.151	0.298
-513.843	-43.581	-0.292	-0.149
-512.829	-196.286	-0.165	-0.001
-511.814	278.038	-0.166	0.298
-510.799	48.991	0.146	-0.139
-509.785	-200.000	0.001	-0.167
-508.770	-106.727	-0.300	0.067
-507.756	410.230	-0.102	0.218
-506.741	-48.742	0.161	0.078
-505.726	-200.000	0.010	-0.302
-504.712	458.630	-0.174	-0.391
-503.697	52.050	-0.041	-0.040
-502.683	800.000	0.056	0.160
-501.668	-165.916	0.176	-0.008
-500.653	800.000	0.147	-0.428
-499.639	0.801	-0.252	-0.182
-498.624	-90.735	-0.240	0.070
-497.610	-200.000	0.037	-0.181
-496.595	-47.680	-0.210	-0.103
-495.581	27.416	-0.188	0.159
-494.566	-200.000	-0.019	-0.213
-493.551	87.871	0.190	-0.213
-492.537	222.671	0.131	-0.214
-491.522	299.102	0.140	-0.260
-490.508	75.111	-0.216	0.230
-489.493	-200.000	-0.019	0.270
-488.478	233.481	-0.114	0.189
-487.464	-200.000	0.027	0.175
-486.449	-43.096	-0.187	-0.095
-485.435	800.000	-0.083	0.284
-484.420	-107.808	0.124	0.027
-483.405	49.592	0.239	-0.227
-482.391	66.997	0.258	0.265
-481.376	338.377	0.059	0.116
-480.362	-86.413	-0.258	0.080
-479.347	-92.420	0.228	-0.065
-478.332	800.000	-0.067	-0.223
-477.318	9.400	0.212	-0.161
-476.303	-46.713	-0.060	-0.030
-475.289	-94.871	-0.340	-0.093
-474.274	21.992	0.183	-0.150
-473.259	-175.515	-0.323	0.009
-472.245	10.228	-0.282	0.216
-471.230	-102.860	0.273	-0.065
-470.216	30.251	-0.122	-0.105
-469.201	-200.000	-0.012	-0.273
-468.186	800.000	-0.018	-0.064
-467.172	287.233	-0.043	-0.078
-466.157	-66.403	-0.162	-0.065
-465.143	12.972	0.221	0.172
-464.128	-42.491	-0.121	0.062
-463.113	-137.478	0.411	0.047
-462.099	-100.906	-0.268	-0.066
-461.084	237.308	0.159	-0.265
-460.070	800.000	-0.089	0.357
-459.055	34.492	-0.125	-0.110
-458.040	162.431	0.274	-0.387
-457.026	-95.741	-0.162	0.044
-456.011	144.913	0.118	0.159
-454.997	-200.000	0.083	0.377
-453.982	-200.000	-0.000	-0.133
-452.968	237.189	-0.143	0.239
-451.953	800.000	0.070	0.264
-450.938	-97.014	0.258	-0.068
-449.924	-93.804	0.277	0.077
-448.909	20.176	-0.096	-0.078
-447.895	-200.000	-0.004	0.187
-446.880	-0.727	0.214	-0.152
-445.865	-3.679	-0.251	-0.176
-444.851	253.561	-0.079	-0.136
-443.836	150.843	-0.156	-0.213
-442.822	545.648	-0.134	0.322
-441.807	-200.000	0.015	-0.146
-440.792	800.000	-0.078	-0.223
-439.778	109.332	0.181	0.218
-438.763	-200.000	-0.043	-0.200
-437.749	142.341	-0.053	-0.070
-436.734	321.918	-0.185	-0.355
-435.719	464.238	0.078	0.176
-434.705	-20.265	-0.435	0.270
-433.690	195.136	-0.205	-0.314
-432.676	35.072	0.146	0.129
-431.661	-123.213	0.238	-0.038
-430.646	-200.000	-0.034	0.246
-429.632	-7.834	-0.039	-0.026
-428.617	117.337	0.325	0.402
-427.603	-144.398	0.223	-0.021
-426.588	711.624	-0.078	-0.209
-425.573	-173.982	-0.182	0.005
-424.559	-200.000	-0.004	0.048
-423.544	140.491	0.131	0.174
-422.530	276.667	0.030	-0.053
-421.515	-34.884	-0.261	0.143
-420.500	49.698	-0.137	0.129
-419.486	35.846	0.202	-0.179
-418.471	386.929	-0.109	-0.226
-417.457	35.094	-0.139	0.122
-416.442	90.114	0.347	0.390
-415.428	-169.811	0.118	-0.004
-414.413	-145.217	0.159	0.014
-413.398	-51.241	0.177	0.083
-412.384	17.360	-0.085	-0.068
-411.369	-1.692	0.246	0.174
-410.355	-95.726	-0.260	-0.070
-409.340	800.000	-0.138	-0.388
-408.325	-88.325	0.045	0.013
-407.311	132.542	-0.049	0.063
-406.296	308.998	-0.075	0.140
-405.282	70.496	0.190	-0.198
-404.267	-200.000	-0.022	0.102
-403.252	9.518	-0.212	0.162
-402.238	218.094	-0.016	0.025
-401.223	425.429	-0.055	0.119
-400.209	-58.346	0.149	-0.065
-399.194	-200.000	0.053	0.344
-398.179	34.933	-0.051	0.045
-397.165	-200.000	-0.061	0.290
-396.150	109.986	0.139	0.168
-395.136	516.702	0.063	0.147
-394.121	-150.823	0.194	0.015
-393.106	-40.751	-0.130	-0.068
-392.092	800.000	0.142	0.427
-391.077	-200.000	0.021	-0.173
-390.063	-51.353	-0.117	-0.055
-389.048	-96.527	0.260	0.069
-388.033	-81.625	0.130	-0.043
-387.019	-38.080	0.231	-0.123
-386.004	800.000	0.029	-0.124
-384.990	-115.178	0.306	-0.058
-383.975	211.469	0.212	0.335
-382.960	-133.251	-0.310	0.039
-381.946	800.000	-0.076	-0.220
-380.931	-37.864	0.108	0.057
-379.917	-86.086	-0.075	-0.023
-378.902	-84.600	-0.435	0.138
-377.888	538.035	-0.027	0.064
-376.873	92.557	-0.101	0.115
-375.858	-200.000	-0.038	0.217
-374.844	698.037	0.060	0.159
-373.829	-37.399	0.158	-0.085
-372.815	186.589	0.144	0.215
-371.800	-11.880	-0.085	-0.056
-370.785	-67.920	0.348	-0.137
-369.771	102.736	0.060	-0.070
-368.756	-200.000	0.014	0.076
-367.742	-112.339	-0.456	0.092
-366.727	-200.000	0.073	0.367
-365.712	288.502	-0.088	0.160
-364.698	-185.649	0.091	0.001
-363.683	-200.000	-0.034	-0.239
-362.669	177.206	-0.056	0.081
-361.654	-200.000	-0.054	-0.321
-360.639	-200.000	0.404	-0.001
-359.625	450.007	-0.166	0.367
-358.610	800.000	-0.199	0.590
-357.596	-161.601	0.192	0.010
-356.581	374.814	-0.137	-0.280
-355.566	-185.675	0.071	-0.001
-354.552	-200.000	-0.007	-0.097
-353.537	-200.000	-0.024	-0.114
-352.523	-200.000	-0.236	-0.000
-351.508	-16.848	-0.089	0.057
-350.493	-41.369	-0.227	-0.117
-349.479	-200.000	0.007	-0.218
-348.464	334.002	-0.105	0.203
-347.450	-200.000	0.006	-0.230
-346.435	-140.307	-0.187	0.020
-345.420	-42.196	0.045	0.023
-344.406	-200.000	-0.057	-0.277
-343.391	-70.381	0.115	0.044
-342.377	-200.000	0.041	0.377
-341.362	125.192	0.211	0.266
-340.348	-151.134	-0.389	0.029
-339.333	272.497	-0.069	-0.121
-338.318	52.062	-0.155	-0.148
-337.304	-26.143	-0.171	0.101
-336.289	55.903	-0.087	0.085
-335.275	102.554	-0.131	0.153
-334.260	-69.066	-0.106	0.041
-333.245	-21.298	0.152	-0.093
-332.231	106.382	-0.072	-0.085
-331.216	-105.527	-0.576	0.131
-330.202	249.933	0.098	0.167
-329.187	-200.000	-0.003	0.122
-328.172	-195.244	0.113	-0.001
-327.158	-15.830	0.287	-0.183
-326.143	-63.355	-0.197	0.081
-325.129	-161.662	-0.179	0.009
-324.114	-127.967	0.256	0.037
-323.099	-157.827	0.363	-0.022
-322.085	-109.167	0.179	-0.038
-321.070	-115.563	0.115	0.022
-320.056	-86.067	-0.179	0.055
-319.041	759.278	-0.119	-0.322
-318.026	-200.000	0.019	-0.162
-317.012	488.065	-0.087	-0.199
-315.997	-108.560	0.228	0.049
-314.983	61.935	0.049	-0.049
-313.968	510.388	-0.046	0.108
-312.953	180.799	-0.075	0.111
-311.939	278.071	-0.026	0.046
-310.924	409.868	0.137	0.292
-309.910	-200.000	-0.009	-0.254
-308.895	-126.131	0.457	-0.069
-307.880	437.829	0.060	-0.131
-306.866	800.000	-0.098	-0.369
-305.851	39.313	0.124	0.112
-304.837	-48.720	0.144	0.069
-303.822	-133.882	-0.127	0.016
-302.807	-41.964	0.114	-0.058
-301.793	98.007	0.447	0.515
-300.778	-150.358	0.375	0.029
-299.764	-100.625	0.032	-0.008
-298.749	-76.230	0.336	-0.119
-297.735	-89.242	0.187	-0.055
-296.720	-23.526	-0.003	-0.002
-295.705	164.059	-0.216	-0.304
-294.691	-44.730	-0.210	-0.105
-293.676	-63.872	-0.114	-0.047
-292.662	-200.000	0.072	-0.369
-291.647	769.439	0.071	-0.194
-290.632	262.072	0.059	-0.102
-289.618	800.000	0.037	0.112
-288.603	16.855	-0.099	0.079
-287.589	-186.603	-0.018	-0.000
-286.574	127.215	0.130	0.165
-285.559	195.012	-0.141	0.214
-284.545	-6.954	-0.049	-0.033
-283.530	245.860	0.091	-0.154
-282.516	-200.000	-0.003	0.041
-281.501	71.470	-0.124	-0.128
-280.486	213.028	-0.112	0.176
-279.472	10.726	-0.211	0.161
-278.457	-100.334	0.095	-0.024
-277.443	211.105	0.021	0.033
-276.428	-57.198	-0.240	-0.106
-275.413	108.493	-0.094	0.112
-274.399	109.786	-0.059	0.071
-273.384	503.784	0.038	0.088
-272.370	-70.179	0.112	-0.043
-271.355	8.451	0.179	0.135
-270.340	-200.000	-0.064	0.376
-269.326	800.000	0.086	0.346
-268.311	240.176	-0.253	0.422
-267.297	800.000	0.034	0.127
-266.282	55.987	-0.349	-0.338
-265.267	12.983	0.316	-0.245
-264.253	210.129	-0.084	-0.131
-263.238	503.102	0.142	-0.328
-262.224	148.989	-0.294	-0.397
-261.209	-22.948	-0.140	0.084
-260.195	800.000	0.079	0.293
-259.180	-36.271	0.105	-0.056
-258.165	177.586	-0.194	-0.283
-257.151	145.519	-0.101	0.135
-256.136	-200.000	0.003	-0.376
-255.122	-3.433	-0.142	-0.099
-254.107	-200.000	0.042	-0.194
-253.092	194.923	0.106	0.161
-252.078	-150.236	0.090	0.007
-251.063	-200.000	0.048	-0.349
-250.049	-121.625	-0.484	0.080
-249.034	800.000	-0.060	-0.167
-248.019	187.563	0.105	-0.157
-247.005	285.149	0.142	0.256
-245.990	-89.208	0.190	0.056
-244.976	339.162	-0.099	0.193
-243.961	53.752	0.071	-0.068
-242.946	10.424	0.264	-0.200
-241.932	-107.632	0.123	0.027
-240.917	800.000	-0.094	-0.285
-239.903	-32.152	0.216	-0.121
-238.888	342.641	0.112	0.219
-237.873	-66.893	-0.228	0.090
-236.859	-77.694	0.283	0.098
-235.844	800.000	0.066	-0.190
-234.830	33.220	0.196	0.170
-233.815	290.118	0.054	-0.098
-232.800	286.041	-0.079	-0.143
-231.786	260.533	0.063	-0.108
-230.771	-71.724	-0.089	0.033
-229.757	189.950	-0.101	0.152
-228.742	46.368	0.029	-0.027
-227.727	-60.836	-0.046	-0.020
-226.713	-115.208	0.150	-0.028
-225.698	-3.557	0.247	-0.171
-224.684	-55.432	0.279	-0.125
-223.669	-156.861	-0.292	0.018
-222.655	100.132	-0.142	-0.164
-221.640	-200.000	0.081	0.442
-220.625	-118.227	-0.217	-0.039
-219.611	-143.866	-0.100	-0.009
-218.596	-200.000	0.047	-0.347
-217.582	-127.921	0.174	-0.025
-216.567	-118.309	0.169	-0.030
-215.552	15.792	0.014	-0.011
-214.538	577.017	-0.084	0.205
-213.523	49.890	-0.189	0.177
-212.509	1.334	0.134	-0.096
-211.494	-200.000	-0.003	0.160
-210.479	46.373	0.157	-0.145
-209.465	-39.039	-0.157	-0.082
-208.450	800.000	0.115	-0.434
-207.436	382.259	0.046	-0.095
-206.421	-200.000	-0.030	-0.165
-205.406	371.329	0.086	-0.174
-204.392	800.000	-0.102	0.403
-203.377	-200.000	0.005	0.123
-202.363	34.458	-0.183	-0.160
-201.348	-37.232	-0.430	-0.229
-200.333	-200.000	0.018	0.247
-199.319	800.000	0.069	0.237
-198.304	-187.980	0.307	-0.004
-197.290	-59.347	0.148	-0.064
-196.275	-141.703	-0.180	0.018
-195.260	-44.834	-0.138	-0.069
-194.246	-112.363	-0.182	-0.036
-193.231	-93.241	0.101	0.028
-192.217	-123.424	-0.243	-0.039
-191.202	-200.000	-0.017	0.159
-190.187	50.697	-0.186	-0.176
-189.173	-53.740	0.391	0.178
-188.158	739.384	-0.078	-0.208
-187.144	338.454	-0.043	0.083
-186.129	54.061	-0.275	0.264
-185.114	-43.858	-0.328	0.165
-184.100	121.448	-0.231	0.286
-183.085	267.776	-0.090	-0.158
-182.071	67.590	0.231	-0.235
-181.056	70.853	0.177	0.183
-180.042	40.976	0.150	-0.135
-179.027	105.703	0.166	0.195
-178.012	232.079	-0.070	-0.114
-176.998	-28.844	0.156	0.089
-175.983	-200.000	-0.054	-0.248
-174.969	800.000	0.151	0.476
-173.954	304.079	0.144	0.266
-172.939	-66.337	-0.173	0.069
-171.925	104.330	-0.135	-0.159
-170.910	-200.000	0.074	0.501
-169.896	96.002	0.057	0.065
-168.881	-200.000	-0.015	-0.169
-167.866	34.218	0.220	-0.191
-166.852	800.000	0.044	0.140
-165.837	565.063	-0.034	0.082
-164.823	-78.053	0.108	-0.037
-163.808	28.088	0.124	0.104
-162.793	25.461	0.092	-0.076
-161.779	145.317	0.086	-0.115
-160.764	-200.000	0.004	-0.060
-159.750	-142.875	0.069	0.007
-158.735	189.175	0.118	-0.176
-157.720	246.185	0.133	0.223
-156.706	-92.016	0.313	0.088
-155.691	-144.004	-0.203	-0.019
-154.677	800.000	0.034	-0.112
-153.662	-200.000	-0.006	0.061
-152.647	37.706	0.203	-0.180
-151.633	-54.645	0.221	-0.099
-150.618	-122.661	0.115	-0.019
-149.604	800.000	-0.022	0.092
-148.589	473.058	0.161	-0.362
-147.574	-126.022	0.059	-0.009
-146.560	-123.116	-0.086	-0.014
-145.545	-56.922	-0.071	-0.031
-144.531	-193.808	0.376	-0.003
-143.516	800.000	0.052	-0.151
-142.502	-180.481	0.132	-0.003
-141.487	-44.655	-0.072	0.036
-140.472	660.124	-0.061	-0.156
-139.458	691.081	-0.047	-0.123
-138.443	-200.000	0.045	-0.226
-137.429	263.400	0.193	-0.333
-136.414	-47.087	0.007	0.004
-135.399	-111.100	0.467	0.095
-134.385	-200.000	-0.010	0.411
-133.370	-200.000	0.035	0.233
-132.356	193.343	0.222	0.335
-131.341	178.073	0.121	-0.176
-130.326	6.082	0.166	0.122
-129.312	-200.000	0.017	0.119
-128.297	417.105	-0.233	-0.495
-127.283	-69.408	0.442	0.169
-126.268	-15.789	-0.119	0.075
-125.253	124.980	0.165	-0.206
-124.239	277.829	0.134	-0.238
-123.224	41.916	0.135	-0.122
-122.210	-61.188	-0.027	0.011
-121.195	-2.429	0.381	-0.265
-120.180	800.000	-0.014	-0.048
-119.166	-109.550	-0.152	-0.032
-118.151	-200.000	-0.011	0.288
-117.137	-180.229	0.055	-0.001
-116.122	-166.757	0.055	-0.002
-115.107	31.924	0.059	0.050
-114.093	-80.895	0.238	-0.078
-113.078	-70.186	0.163	0.062
-112.064	-35.807	-0.190	-0.102
-111.049	170.846	0.029	0.041
-110.034	765.284	0.065	0.175
-109.020	172.312	0.201	0.287
-108.005	-200.000	0.003	-0.177
-106.991	299.949	-0.113	-0.207
-105.976	-86.976	0.333	0.101
-104.962	401.581	-0.139	0.291
-103.947	138.589	0.199	-0.260
-102.932	-28.160	0.290	-0.166
-101.918	-200.000	-0.043	-0.300
-100.903	431.007	0.177	-0.381
-99.889	-21.948	0.294	-0.177
-98.874	325.625	0.207	-0.394
-97.859	-117.860	-0.119	-0.021
-96.845	-30.973	0.086	-0.048
-95.830	-200.000	-0.046	0.216
-94.816	222.792	0.181	0.290
-93.801	-83.634	0.414	0.131
-92.786	33.304	-0.105	0.091
-91.772	-32.250	-0.126	0.070
-90.757	127.606	0.141	-0.178
-89.743	-94.608	0.144	0.039
-88.728	95.426	-0.128	-0.145
-87.713	-69.463	-0.166	0.063
-86.699	507.125	-0.185	0.425
-85.684	-66.461	0.021	0.008
-84.670	47.149	-0.082	0.076
-83.655	5.618	-0.163	-0.119
-82.640	211.342	-0.120	-0.187
-81.626	-200.000	0.016	-0.132
-80.611	136.207	0.175	-0.227
-79.597	-148.600	-0.053	0.004
-78.582	116.243	0.110	-0.134
-77.567	-17.278	-0.126	0.079
-76.553	131.402	0.188	-0.239
-75.538	417.470	-0.198	-0.419
-74.524	-200.000	-0.007	0.378
-73.509	692.907	-0.074	-0.193
-72.494	-85.224	-0.460	-0.142
-71.480	-49.662	-0.018	0.008
-70.465	-200.000	0.006	-0.118
-69.451	800.000	0.087	0.310
-68.436	216.517	-0.129	-0.204
-67.422	90.117	-0.179	0.199
-66.407	-136.953	0.263	0.030
-65.392	318.728	0.125	-0.234
-64.378	84.887	0.101	-0.110
-63.363	800.000	-0.073	0.257
-62.349	-179.086	0.249	0.006
-61.334	569.197	-0.460	-1.109
-60.319	-83.463	0.315	0.100
-59.305	-200.000	-0.039	-0.832
-58.290	192.440	0.556	0.832
-57.276	260.359	0.895	1.534
-56.261	-200.000	95.602	566.130
-55.246	641.326	1380.564	3485.607
-54.232	186.468	2598.669	3834.744
-53.217	121.475	2204.803	2723.424
-52.203	45.332	1738.903	1590.160
-51.188	37.900	1549.206	1364.868
-50.173	35.436	1521.559	1323.490
-49.159	53.847	1571.396	1496.305
-48.144	57.743	1590.291	1541.540
-47.130	38.356	1546.137	1365.129
-46.115	35.085	1530.307	1328.451
-45.100	34.819	1527.071	1323.747
-44.086	34.900	1525.214	1322.645
-43.071	34.754	1523.516	1320.112
-42.057	34.771	1521.867	1318.751
-41.042	34.884	1520.414	1318.216
-40.027	34.787	1519.315	1316.542
-39.013	34.819	1517.536	1315.170
-37.998	34.814	1516.265	1313.982
-36.984	34.812	1514.967	1312.794
-35.969	34.820	1513.499	1311.525
-34.954	34.773	1512.220	1310.037
-33.940	34.704	1511.088	1308.531
-32.925	34.842	1509.100	1307.703
-31.911	34.829	1507.885	1306.509
-30.896	34.910	1506.350	1305.682
-29.881	34.914	1505.028	1304.515
-28.867	34.875	1503.821	1303.148
-27.852	34.918	1502.518	1302.262
-26.838	34.845	1501.288	1300.648
-25.823	34.864	1499.096	1298.823
-24.809	34.920	1497.685	1297.927
-23.794	34.879	1496.535	1296.605
-22.779	34.821	1495.657	1295.400
-21.765	34.861	1494.226	1294.383
-20.750	34.886	1493.004	1293.438
-19.736	34.889	1491.988	1292.527
-18.721	34.775	1491.372	1291.174
-17.706	34.806	1489.655	1289.841
-16.692	34.683	1489.237	1288.601
-15.677	34.857	1487.545	1288.256
-14.663	34.780	1486.685	1286.946
-13.648	34.755	1485.972	1286.108
-12.633	34.738	1484.951	1285.061
-11.619	34.774	1484.596	1284.943
-10.604	34.783	1483.267	1283.798
-9.590	34.836	1482.525	1283.461
-8.575	34.851	1481.552	1282.669
-7.560	34.737	1480.937	1281.322
-6.546	34.724	1480.154	1280.505
-5.531	34.762	1479.085	1279.785
-4.517	34.807	1477.899	1279.009
-3.502	34.701	1477.414	1277.832
-2.487	34.785	1475.773	1276.923
-1.473	34.741	1474.909	1275.829
-0.458	34.793	1473.733	1275.110
0.556	36.906	1465.164	1265.839
1.571	34.081	1438.088	1224.190
2.586	30.144	1374.460	1145.650
3.600	27.696	1291.110	1061.851
4.615	25.203	1243.202	1008.361
5.629	21.293	1185.180	940.221
6.644	12.792	1099.573	829.603
7.659	6.073	1057.819	765.392
8.673	5.060	1051.730	756.011
9.688	4.829	1048.551	752.546
10.702	4.577	1047.368	750.412
11.717	4.894	1045.763	750.725
12.731	7.969	1049.229	767.991
13.746	16.116	1060.486	815.724
14.761	21.580	1067.604	847.662
15.775	22.029	1066.437	848.831
16.790	21.340	1064.799	844.126
17.804	20.189	1062.680	836.819
18.819	19.294	1061.326	831.364
19.834	18.839	1059.807	827.907
20.848	18.699	1058.581	826.203
21.863	18.627	1057.945	825.285
22.877	18.339	1057.598	823.559
23.892	18.235	1056.227	821.918
24.907	18.224	1055.205	820.996
25.921	18.159	1054.677	820.205
26.936	18.023	1054.334	819.211
27.950	18.174	1053.005	818.828
28.965	18.199	1052.005	818.099
29.980	18.246	1050.842	817.349
30.994	18.375	1049.925	817.175
32.009	18.564	1048.945	817.242
33.023	18.555	1048.488	816.770
34.038	18.567	1047.365	815.882
35.053	18.399	1046.666	814.467
36.067	18.278	1045.711	813.076
37.082	18.232	1044.985	812.220
38.096	18.151	1044.217	811.170
39.111	18.366	1043.251	811.366
40.126	18.520	1042.049	811.084
41.140	18.429	1040.794	809.607
42.155	18.086	1039.997	807.295
43.169	17.851	1038.557	804.999
44.184	17.945	1037.439	804.505
45.199	17.744	1036.599	802.837
46.213	17.797	1035.728	802.337
47.228	18.035	1034.235	802.229
48.242	18.112	1033.838	802.210
49.257	18.147	1033.333	801.911
50.271	18.111	1032.666	801.158
51.286	18.237	1031.411	800.701
52.301	18.378	1030.320	800.444
53.315	18.299	1029.901	799.675
54.330	18.135	1029.429	798.475
55.344	18.089	1027.816	796.936
56.359	17.950	1026.836	795.458
57.374	17.969	1026.265	795.034
58.388	18.106	1025.119	794.712
59.403	17.882	1024.250	792.931
60.417	17.753	1023.306	791.530
61.432	17.880	1022.444	791.384
62.447	17.789	1021.988	790.538
63.461	17.702	1021.149	789.415
64.476	17.663	1020.263	788.479
65.490	17.693	1018.964	787.546
66.505	17.643	1018.551	786.924
67.520	17.743	1017.612	786.591
68.534	17.720	1016.909	785.872
69.549	17.678	1016.357	785.185
70.563	17.670	1015.509	784.424
71.578	17.698	1014.364	783.598
72.593	17.695	1013.546	782.879
73.607	17.583	1012.643	781.603
74.622	17.550	1011.571	780.551
75.636	17.532	1010.721	779.748
76.651	17.616	1010.111	779.592
77.666	17.543	1009.523	778.735
78.680	17.730	1008.270	778.552
79.695	17.632	1008.115	777.918
80.709	17.755	1007.340	777.813
81.724	17.683	1007.165	777.278
82.739	17.812	1006.171	777.029
83.753	17.893	1005.493	776.809
84.768	18.118	1004.730	777.169
85.782	18.288	1004.161	777.434
86.797	18.436	1003.673	777.658
87.812	18.456	1002.763	776.978
88.826	18.277	1001.631	775.219
89.841	18.206	1000.735	774.135
90.855	18.338	1000.030	774.122
91.870	18.371	999.740	773.975
92.884	18.498	998.670	773.654
93.899	18.375	997.981	772.496
94.914	18.457	997.333	772.294
95.928	18.479	996.695	771.829
96.943	18.571	995.758	771.451
97.957	18.451	994.541	769.902
98.972	18.249	993.782	768.339
99.987	18.434	992.974	768.474
101.001	18.472	992.014	767.837
102.016	18.424	991.717	767.324
103.030	18.353	990.550	766.033
104.045	18.394	989.661	765.460
105.060	18.338	988.891	764.551
106.074	18.291	987.480	763.181
107.089	18.038	987.121	761.706
108.103	17.908	985.307	759.661
109.118	17.808	984.651	758.645
110.133	17.681	983.775	757.339
111.147	17.786	982.316	756.616
112.162	17.722	981.718	755.802
113.176	17.800	980.876	755.435
114.191	17.901	980.353	755.410
115.206	17.820	979.526	754.346
116.220	17.941	978.610	754.111
117.235	17.884	978.243	753.509
118.249	17.836	977.063	752.321
119.264	17.737	976.227	751.174
120.279	17.779	975.359	750.628
121.293	17.816	974.256	749.874
122.308	17.797	973.196	748.908
123.322	17.629	972.749	747.761
124.337	17.449	972.254	746.526
125.352	17.607	970.378	745.711
126.366	17.526	969.654	744.731
127.381	17.551	968.734	744.071
128.395	17.626	967.567	743.434
129.410	17.763	966.199	742.914
130.424	17.684	965.825	742.217
131.439	17.757	964.907	741.763
132.454	17.730	964.644	741.380
133.468	17.887	964.033	741.526
134.483	18.015	963.350	741.489
135.497	17.907	962.429	740.249
136.512	17.837	961.661	739.289
137.527	17.848	961.308	738.999
138.541	17.906	960.326	738.431
139.556	18.108	959.110	738.301
140.570	18.012	958.777	737.565
141.585	18.048	958.255	737.256
142.600	18.253	957.476	737.473
143.614	18.351	956.929	737.409
144.629	18.383	956.021	736.780
145.643	18.478	955.601	736.801
146.658	18.527	954.590	736.166
147.673	18.189	953.866	734.094
148.687	18.064	952.613	732.526
149.702	18.086	951.547	731.739
150.716	17.939	950.709	730.398
151.731	17.910	949.681	729.420
152.746	17.866	949.435	728.981
153.760	18.057	948.468	728.986
154.775	18.063	947.316	728.064
155.789	18.253	946.404	728.106
156.804	18.190	946.568	727.900
157.819	18.215	945.357	727.010
158.833	18.231	944.799	726.586
159.848	18.495	943.909	726.958
160.862	18.529	943.492	726.715
161.877	18.476	942.696	725.815
162.892	18.191	941.868	723.906
163.906	18.201	940.297	722.674
164.921	17.984	940.004	721.472
165.935	17.825	939.094	720.035
166.950	18.007	938.166	720.029
167.964	18.150	936.820	719.533
168.979	18.116	935.872	718.601
169.994	18.049	934.922	717.526
171.008	18.041	933.962	716.693
172.023	18.122	933.399	716.537
173.037	18.214	932.571	716.224
174.052	18.441	932.051	716.710
175.067	18.202	931.735	715.404
176.081	18.217	930.293	714.295
177.096	18.008	929.160	712.489
178.110	17.992	928.481	711.840
179.125	17.990	928.025	711.418
180.140	17.964	927.249	710.652
181.154	18.244	926.197	710.946
182.169	18.191	925.985	710.501
183.183	18.297	925.861	710.782
184.198	18.375	925.028	710.406
185.213	18.368	924.161	709.648
186.227	18.544	923.775	710.017
187.242	18.403	923.087	708.842
188.256	18.495	922.773	708.917
189.271	18.705	921.672	708.877
190.286	18.717	920.993	708.343
191.300	18.397	920.292	706.422
192.315	18.067	919.163	704.133
193.329	17.927	918.281	702.817
194.344	17.938	917.430	702.152
195.359	18.054	917.057	702.279
196.373	18.177	916.715	702.461
197.388	18.193	916.329	702.170
198.402	18.430	916.025	702.845
199.417	18.598	915.730	703.243
200.432	18.735	915.404	703.496
201.446	18.801	914.914	703.326
202.461	18.912	914.713	703.562
203.475	19.034	914.135	703.554
204.490	18.963	913.374	702.615
205.504	18.776	912.516	701.133
206.519	18.627	911.485	699.671
207.534	18.533	910.823	698.716
208.548	18.547	909.934	698.030
209.563	18.526	909.311	697.405
210.577	18.559	908.545	696.888
211.592	18.540	908.192	696.481
212.607	18.772	907.744	697.017
213.621	18.841	907.552	697.088
214.636	18.891	906.482	696.405
215.650	18.715	905.845	695.142
216.665	18.738	905.683	695.050
217.680	18.854	905.208	695.093
218.694	18.949	904.371	694.772
219.709	19.105	904.303	695.288
220.723	18.997	903.235	693.970
221.738	19.078	902.402	693.596
222.753	18.837	901.879	692.164
223.767	18.816	901.365	691.621
224.782	18.810	900.839	691.132
225.796	19.220	899.836	691.950
226.811	19.196	899.193	691.297
227.826	19.170	898.493	690.593
228.840	18.967	897.863	689.236
229.855	18.922	896.915	688.265
230.869	18.745	896.578	687.239
231.884	18.965	895.985	687.602
232.899	18.888	894.784	686.313
233.913	18.793	894.288	685.494
234.928	18.667	893.858	684.599
235.942	18.654	892.605	683.526
236.957	18.586	892.080	682.795
237.972	18.637	891.384	682.404
238.986	18.623	890.771	681.818
240.001	18.654	890.006	681.298
241.015	18.748	889.419	681.159
242.030	18.655	889.142	680.517
243.045	18.843	887.992	680.321
244.059	18.936	887.688	680.399
245.074	18.905	887.270	679.895
246.088	18.888	887.059	679.606
247.103	19.054	885.892	679.305
248.117	19.158	885.476	679.337
249.132	19.251	885.094	679.350
250.147	19.440	884.679	679.719
251.161	19.567	884.032	679.662
252.176	19.741	883.433	679.823
253.190	19.702	882.880	679.186
254.205	19.768	882.065	678.756
255.220	19.774	882.242	678.855
256.234	19.683	881.310	677.722
257.249	19.713	880.495	677.154
258.263	19.851	880.009	677.260
259.278	19.724	879.453	676.275
260.293	19.639	879.153	675.651
261.307	19.763	878.509	675.583
262.322	19.851	878.043	675.507
263.336	19.852	877.211	674.810
264.351	19.960	876.685	674.769
265.366	19.884	876.478	674.254
266.380	19.917	875.373	673.473
267.395	19.991	874.714	673.193
268.409	19.775	873.944	671.703
269.424	19.708	873.295	670.884
270.439	19.809	872.458	670.573
271.453	19.857	871.339	669.840
272.468	19.661	871.062	668.807
273.482	19.538	870.514	667.850
274.497	19.748	869.842	668.089
275.512	19.620	869.136	666.993
276.526	19.528	868.625	666.187
277.541	19.748	867.788	666.336
278.555	19.658	867.313	665.564
279.570	19.839	866.876	665.865
280.585	19.962	866.482	665.977
281.599	20.086	865.928	665.970
282.614	19.886	865.423	664.757
283.628	19.823	864.406	663.673
284.643	19.864	863.758	663.274
285.657	19.885	863.536	663.126
286.672	19.810	862.609	662.066
287.687	19.934	862.185	662.157
288.701	19.820	861.863	661.418
289.716	20.051	860.838	661.452
290.730	19.947	860.301	660.583
291.745	19.866	860.060	660.034
292.760	19.991	859.019	659.651
293.774	20.099	858.210	659.383
294.789	20.220	858.270	659.829
295.803	20.121	858.018	659.203
296.818	19.990	857.036	657.890
297.833	19.880	856.470	656.983
298.847	19.929	855.934	656.699
299.862	19.842	855.244	655.783
300.876	19.902	854.691	655.526
301.891	20.095	854.107	655.752
302.906	20.174	853.338	655.402
303.920	20.338	852.748	655.507
304.935	20.358	851.937	654.905
305.949	20.618	851.339	655.366
306.964	20.562	850.899	654.759
307.979	20.243	849.916	652.742
308.993	20.248	849.859	652.659
310.008	20.331	849.395	652.560
311.022	20.334	849.262	652.410
312.037	20.450	848.331	652.074
313.052	20.239	847.878	650.876
314.066	20.055	846.965	649.427
315.081	19.949	846.179	648.370
316.095	20.030	845.453	648.058
317.110	20.073	845.639	648.304
318.125	20.012	844.732	647.325
319.139	20.161	843.875	647.168
320.154	20.055	843.516	646.439
321.168	19.931	843.312	645.762
322.183	20.129	842.867	646.102
323.197	20.127	842.379	645.665
324.212	20.278	841.606	645.576
325.227	20.190	841.224	644.898
326.241	20.256	840.762	644.733
327.256	20.243	839.924	643.984
328.270	20.133	839.560	643.242
329.285	20.167	838.691	642.645
330.300	20.154	838.452	642.354
331.314	20.158	837.624	641.679
332.329	20.216	837.274	641.567
333.343	20.277	836.732	641.322
334.358	20.472	836.097	641.498
335.373	20.469	835.641	641.081
336.387	20.501	834.811	640.508
337.402	20.562	834.697	640.588
338.416	20.662	833.835	640.235
339.431	20.597	833.747	639.875
340.446	20.743	833.331	640.036
341.460	20.890	832.421	639.818
342.475	20.877	832.007	639.394
343.489	21.046	831.536	639.597
344.504	21.056	831.048	639.204
345.519	21.028	830.585	638.688
346.533	21.086	830.203	638.548
347.548	21.079	829.441	637.882
348.562	20.913	828.627	636.591
349.577	20.672	828.381	635.466
350.592	20.666	827.484	634.700
351.606	20.538	826.852	633.691
352.621	20.540	826.447	633.333
353.635	20.513	825.959	632.806
354.650	20.717	825.615	633.227
355.665	20.726	825.359	633.006
356.679	20.759	825.008	632.802
357.694	20.805	824.472	632.503
358.708	20.872	823.791	632.166
359.723	20.858	823.306	631.690
360.738	20.911	822.592	631.278
361.752	20.762	822.541	630.641
362.767	20.905	821.976	630.671
363.781	20.935	821.765	630.561
364.796	21.060	821.137	630.478
365.810	21.169	820.711	630.485
366.825	21.396	820.519	631.103
367.840	21.192	820.770	630.502
368.854	21.428	819.630	630.424
369.869	21.199	819.272	629.268
370.883	21.038	818.774	628.247
371.898	21.150	818.081	628.063
372.913	21.238	817.346	627.761
373.927	21.349	816.699	627.609
374.942	21.257	816.350	626.954
375.956	21.374	815.415	626.600
376.971	21.343	815.058	626.159
377.986	21.357	814.654	625.843
379.000	21.462	814.123	625.756
380.015	21.543	813.732	625.688
381.029	21.582	813.134	625.312
382.044	21.434	812.644	624.350
383.059	21.511	811.701	623.849
384.073	21.398	811.507	623.240
385.088	21.531	810.522	622.902
386.102	21.339	809.859	621.655
387.117	21.149	809.060	620.309
388.132	21.087	808.995	619.986
389.146	21.224	808.414	619.973
390.161	21.220	808.290	619.808
391.175	21.336	807.962	619.912
392.190	21.395	807.792	619.936
393.205	21.286	807.273	619.097
394.219	21.330	806.442	618.560
395.234	21.313	806.100	618.185
396.248	21.258	805.466	617.447
397.263	21.126	804.959	616.539
398.278	21.147	804.640	616.314
399.292	21.058	803.814	615.314
400.307	21.177	803.309	615.292
401.321	21.140	802.899	614.793
402.336	21.072	802.865	614.471
403.350	21.286	802.676	615.026
404.365	21.285	802.151	614.568
405.380	21.430	801.584	614.589
406.394	21.546	801.166	614.621
407.409	21.653	800.969	614.789
408.423	21.684	800.983	614.855
409.438	21.871	799.904	614.627
410.453	21.827	799.303	613.959
411.467	21.868	799.136	613.917
412.482	21.849	798.886	613.607
413.496	22.203	798.145	614.220
414.511	22.022	797.938	613.373
415.526	22.139	797.554	613.432
416.540	21.870	797.307	612.249
417.555	21.892	796.798	611.882
418.569	21.769	796.527	611.191
419.584	21.930	795.962	611.262
420.599	21.903	795.233	610.555
421.613	158.338	1367.788	1787.142
422.628	137.254	1451.244	1787.245
