DTS Sentinel unit serial number:	SN413079Multiplexer serial number:	ORYXHardware model number:	OX4-SRSoftware version number:	ORYX F/W v4.00 Oryx Data Collector v3.7.2.0data status	okinstallation	princeton_trtdifferential loss correction	single-endedforward channel	channel 3reverse channel	N/Adate	2019/09/14time	07:32:34forward acquisition time	60.00reverse acquisition time	0.00gamma	496.2192k internal	0.2340k external	0.2340temperature offset calibration	1.0052default loss term (dB/km)	0.3790temperature slope calibration	1.0000multiplexer offset coefficient	1.0000multiplexer slope coefficient	1.0000fibre end	0.00T internal ref (°C)	26.23T ext. ref 1 (°C)	3.49T ext. ref 2 (°C)	21.24length (m)	temperature (°C)	Stokes	anti-Stokes-747.200	162.365	-0.308	-0.433
-746.185	15.210	0.113	0.089
-745.171	70.790	0.197	-0.205
-744.156	134.720	-0.106	-0.138
-743.142	60.450	-0.098	0.097
-742.127	-200.000	0.015	-0.163
-741.112	231.617	-0.251	-0.413
-740.098	103.819	-0.055	0.065
-739.083	83.204	0.070	0.077
-738.069	800.000	0.023	-0.075
-737.054	643.625	-0.037	-0.095
-736.039	-65.842	-0.424	0.170
-735.025	126.817	0.268	0.340
-734.010	-188.483	-0.223	-0.003
-732.996	3.526	-0.415	-0.303
-731.981	-10.099	-0.049	0.033
-730.966	800.000	-0.037	-0.104
-729.952	800.000	-0.015	-0.044
-728.937	-166.508	-0.150	-0.006
-727.923	-200.000	0.034	0.167
-726.908	-174.447	-0.195	0.006
-725.894	49.820	-0.139	0.132
-724.879	-200.000	-0.035	-0.221
-723.864	72.990	-0.220	-0.231
-722.850	800.000	0.049	0.143
-721.835	-113.841	0.121	0.024
-720.821	800.000	0.071	-0.201
-719.806	-96.954	0.320	0.084
-718.791	800.000	0.053	0.191
-717.777	800.000	0.046	0.172
-716.762	-175.938	0.210	0.006
-715.748	-200.000	-0.014	-0.073
-714.733	97.298	0.072	0.082
-713.718	54.476	0.190	0.183
-712.704	-23.233	0.300	-0.181
-711.689	-200.000	-0.016	0.244
-710.675	-200.000	-0.070	-0.443
-709.660	-200.000	-0.092	-0.485
-708.645	-91.251	0.201	-0.058
-707.631	-165.517	-0.186	-0.008
-706.616	128.063	0.162	-0.207
-705.602	-11.193	-0.080	-0.052
-704.587	-145.921	-0.084	-0.007
-703.572	615.522	0.018	-0.046
-702.558	-46.946	0.245	0.120
-701.543	-49.194	0.280	-0.134
-700.529	-26.258	0.093	0.055
-699.514	36.034	0.131	-0.116
-698.499	84.547	-0.290	-0.318
-697.485	-200.000	0.023	-0.121
-696.470	19.571	0.285	-0.230
-695.456	155.634	-0.035	0.048
-694.441	196.054	0.166	0.252
-693.426	-200.000	0.084	0.406
-692.412	7.616	-0.054	0.040
-691.397	-85.223	-0.323	-0.101
-690.383	-28.419	-0.088	-0.051
-689.368	562.713	0.040	0.096
-688.354	-114.330	0.084	0.016
-687.339	-30.349	-0.229	-0.130
-686.324	235.005	-0.126	0.207
-685.310	45.436	0.102	0.094
-684.295	47.437	0.174	-0.162
-683.281	147.458	0.089	0.120
-682.266	-109.109	0.281	0.060
-681.251	-96.844	0.067	0.018
-680.237	800.000	-0.063	-0.189
-679.222	72.126	-0.121	-0.126
-678.208	272.634	-0.072	0.127
-677.193	-200.000	-0.004	0.288
-676.178	-88.901	0.268	-0.080
-675.164	-140.095	-0.280	-0.029
-674.149	312.822	-0.070	0.132
-673.135	273.163	-0.168	0.297
-672.120	-200.000	-0.045	0.218
-671.105	-46.396	-0.230	-0.113
-670.091	-200.000	-0.016	-0.222
-669.076	-30.835	-0.080	0.045
-668.062	-200.000	-0.019	-0.115
-667.047	16.918	0.083	-0.066
-666.032	269.255	0.072	-0.126
-665.018	561.348	-0.036	-0.086
-664.003	-15.176	0.041	0.027
-662.989	-118.216	-0.232	-0.041
-661.974	2.744	-0.165	0.120
-660.959	-142.263	-0.057	0.006
-659.945	-65.807	-0.218	-0.087
-658.930	36.820	-0.158	0.139
-657.916	171.690	-0.241	-0.346
-656.901	-55.972	0.260	0.116
-655.886	-200.000	-0.026	0.250
-654.872	718.591	-0.036	0.096
-653.857	255.839	-0.180	-0.308
-652.843	86.335	0.162	0.178
-651.828	72.796	-0.056	0.058
-650.814	43.921	-0.284	0.260
-649.799	235.552	0.120	-0.198
-648.784	-101.976	-0.450	-0.109
-647.770	213.753	0.122	-0.193
-646.755	161.157	0.022	-0.031
-645.741	60.161	0.128	0.126
-644.726	-200.000	-0.264	-0.001
-643.711	-149.432	0.269	0.021
-642.697	800.000	0.051	0.160
-641.682	-130.454	-0.438	-0.059
-640.668	25.921	0.210	0.175
-639.653	527.151	-0.051	0.120
-638.638	80.129	0.015	0.016
-637.624	-115.772	0.273	-0.051
-636.609	-95.378	0.156	-0.042
-635.595	-200.000	0.053	-0.312
-634.580	-123.950	0.296	-0.047
-633.565	-51.170	-0.210	0.098
-632.551	-175.576	0.372	-0.010
-631.536	-200.000	0.020	-0.118
-630.522	-82.011	-0.149	0.049
-629.507	109.342	0.027	-0.033
-628.492	-50.731	-0.194	0.091
-627.478	-28.626	0.099	0.057
-626.463	78.199	0.160	0.170
-625.449	-87.987	-0.509	0.153
-624.434	136.506	0.097	0.127
-623.419	59.686	0.084	0.082
-622.405	95.826	-0.026	0.029
-621.390	68.893	0.189	-0.194
-620.376	-96.458	-0.242	-0.064
-619.361	523.328	0.066	0.154
-618.346	73.204	-0.055	0.057
-617.332	140.669	-0.267	-0.351
-616.317	-0.463	-0.221	-0.157
-615.303	-200.000	0.049	0.234
-614.288	-131.997	-0.179	0.023
-613.273	-55.404	0.163	-0.073
-612.259	-30.652	0.127	-0.072
-611.244	-200.000	-0.020	0.122
-610.230	57.196	-0.100	0.097
-609.215	800.000	-0.002	-0.006
-608.201	-30.765	-0.440	0.248
-607.186	-157.687	-0.309	0.018
-606.171	-200.000	-0.013	-0.206
-605.157	43.482	0.070	0.064
-604.142	690.850	-0.046	-0.121
-603.128	322.126	0.075	-0.143
-602.113	-200.000	0.021	0.307
-601.098	110.076	0.061	-0.073
-600.084	290.716	-0.087	-0.158
-599.069	453.411	-0.080	0.177
-598.055	-16.678	0.306	-0.193
-597.040	127.979	-0.149	-0.189
-596.025	-192.560	0.339	0.003
-595.011	-21.201	0.187	0.114
-593.996	-200.000	-0.016	0.122
-592.982	-193.988	-0.211	0.002
-591.967	62.131	0.155	-0.154
-590.952	-30.978	-0.132	0.074
-589.938	-97.476	0.016	0.004
-588.923	230.302	0.029	-0.047
-587.909	-170.221	0.218	-0.008
-586.894	107.091	0.083	0.099
-585.879	-200.000	0.007	0.241
-584.865	-200.000	0.011	0.175
-583.850	235.530	0.225	-0.371
-582.836	395.611	-0.098	-0.203
-581.821	270.022	-0.072	-0.126
-580.806	116.662	0.227	0.277
-579.792	-36.706	-0.152	0.081
-578.777	-69.841	0.055	-0.021
-577.763	-28.036	-0.152	0.088
-576.748	-48.520	0.053	0.025
-575.733	-200.000	-0.038	-0.183
-574.719	-14.029	-0.197	0.127
-573.704	-92.218	-0.144	-0.041
-572.690	524.672	-0.057	-0.135
-571.675	-200.000	-0.026	0.247
-570.661	158.635	0.185	0.256
-569.646	235.574	-0.167	-0.276
-568.631	-30.051	0.185	0.105
-567.617	-118.073	-0.200	-0.036
-566.602	800.000	0.057	-0.201
-565.588	-78.896	-0.308	0.105
-564.573	385.118	0.039	0.080
-563.558	-83.333	0.351	-0.112
-562.544	370.627	-0.069	0.140
-561.529	-200.000	-0.043	-0.315
-560.515	-200.000	-0.003	-0.255
-559.500	328.275	0.164	-0.313
-558.485	3.294	0.044	0.032
-557.471	-86.460	-0.212	-0.065
-556.456	-67.899	-0.087	-0.034
-555.442	106.280	-0.285	0.336
-554.427	-128.385	-0.149	-0.021
-553.412	-128.800	-0.126	0.018
-552.398	-200.000	0.033	-0.196
-551.383	-58.778	-0.137	-0.059
-550.369	-200.000	0.004	0.088
-549.354	-125.372	0.055	-0.008
-548.339	-200.000	0.019	0.289
-547.325	22.373	0.389	-0.317
-546.310	800.000	-0.057	-0.222
-545.296	-34.347	0.359	0.196
-544.281	-7.590	-0.091	-0.061
-543.266	-44.834	-0.279	0.138
-542.252	-96.358	0.409	0.108
-541.237	-78.491	-0.097	-0.033
-540.223	-158.057	0.076	0.004
-539.208	-200.000	-0.014	0.257
-538.193	81.787	-0.240	-0.259
-537.179	-143.774	-0.241	-0.023
-536.164	129.142	-0.053	-0.068
-535.150	-24.064	0.385	-0.229
-534.135	11.122	-0.161	-0.122
-533.121	-159.799	-0.079	0.004
-532.106	-128.579	0.266	-0.037
-531.091	-113.163	0.027	-0.005
-530.077	1.258	-0.364	0.260
-529.062	62.101	-0.290	-0.288
-528.048	159.190	-0.086	-0.118
-527.033	162.702	-0.135	-0.189
-526.018	567.622	0.045	0.110
-525.004	-159.239	0.234	0.013
-523.989	96.000	-0.163	-0.186
-522.975	109.228	0.227	-0.270
-521.960	143.576	0.125	0.165
-520.945	-125.040	0.163	0.025
-519.931	-115.629	0.462	0.086
-518.916	-123.684	-0.293	0.046
-517.902	-46.631	0.011	-0.006
-516.887	-110.527	0.254	0.052
-515.872	368.713	-0.059	-0.119
-514.858	113.129	-0.203	-0.245
-513.843	131.392	-0.041	0.053
-512.829	-148.722	0.334	-0.027
-511.814	51.142	-0.143	-0.135
-510.799	-58.081	-0.236	-0.102
-509.785	121.295	0.208	0.258
-508.770	-137.529	0.469	-0.053
-507.756	153.219	-0.043	0.059
-506.741	267.922	0.081	0.141
-505.726	130.917	-0.175	-0.223
-504.712	-137.770	-0.573	0.064
-503.697	800.000	-0.055	-0.220
-502.683	587.918	0.009	0.023
-501.668	81.374	-0.049	0.052
-500.653	-51.445	-0.562	-0.261
-499.639	-97.510	-0.187	0.048
-498.624	311.461	0.045	-0.084
-497.610	75.435	-0.208	-0.218
-496.595	-0.446	0.248	0.175
-495.581	-109.479	0.249	-0.052
-494.566	800.000	-0.103	-0.321
-493.551	-200.000	-0.009	-0.338
-492.537	-13.368	-0.120	0.078
-491.522	502.790	-0.119	0.273
-490.508	-200.000	-0.012	0.070
-489.493	0.789	0.123	-0.087
-488.478	-22.818	-0.105	0.063
-487.464	188.557	0.122	-0.182
-486.449	800.000	-0.049	0.143
-485.435	53.864	-0.293	-0.279
-484.420	39.620	0.184	0.164
-483.405	800.000	0.090	0.371
-482.391	800.000	-0.092	0.283
-481.376	196.447	-0.112	-0.169
-480.362	800.000	-0.147	-0.461
-479.347	45.058	0.115	0.105
-478.332	-86.741	0.130	0.039
-477.318	-158.888	0.338	0.019
-476.303	-40.055	0.173	0.090
-475.289	-15.313	0.207	0.131
-474.274	-103.567	0.336	-0.078
-473.259	5.070	0.079	-0.058
-472.245	800.000	-0.028	-0.086
-471.230	-116.020	-0.631	0.117
-470.216	-77.511	-0.098	0.034
-469.201	-76.041	-0.097	-0.034
-468.186	166.573	-0.058	-0.081
-467.172	-111.355	-0.280	-0.057
-466.157	89.356	0.154	-0.171
-465.143	119.693	-0.176	-0.216
-464.128	-163.101	-0.106	0.005
-463.113	-36.247	-0.368	-0.197
-462.099	158.467	0.202	-0.278
-461.084	-63.146	-0.211	-0.086
-460.070	-200.000	0.010	-0.350
-459.055	-54.879	-0.200	-0.090
-458.040	143.774	0.184	-0.243
-457.026	-120.575	0.086	-0.014
-456.011	2.299	-0.190	-0.137
-454.997	-110.461	0.246	0.051
-453.982	-106.734	-0.401	0.088
-452.968	-17.997	-0.279	-0.174
-451.953	-2.541	0.305	-0.211
-450.938	-172.331	0.243	0.008
-449.924	428.455	-0.029	0.063
-448.909	-173.414	-0.402	-0.012
-447.895	800.000	-0.071	0.202
-446.880	-200.000	0.011	-0.190
-445.865	219.983	-0.120	-0.191
-444.851	-39.387	0.154	0.080
-443.836	-143.682	-0.091	-0.009
-442.822	800.000	0.168	0.483
-441.807	35.322	-0.248	0.216
-440.792	-111.109	0.224	0.045
-439.778	267.960	-0.103	0.178
-438.763	153.706	0.138	0.187
-437.749	-45.641	-0.188	0.092
-436.734	354.167	-0.133	0.261
-435.719	577.267	0.095	0.230
-434.705	135.330	-0.151	0.195
-433.690	-200.000	0.039	0.295
-432.676	800.000	0.092	-0.292
-431.661	89.716	-0.067	-0.074
-430.646	-79.791	-0.033	-0.011
-429.632	467.787	0.052	0.115
-428.617	188.953	0.077	0.114
-427.603	92.398	-0.229	0.256
-426.588	-200.000	-0.041	-0.216
-425.573	34.978	-0.189	-0.164
-424.559	-200.000	0.004	0.061
-423.544	95.376	-0.050	-0.057
-422.530	-73.514	-0.091	0.033
-421.515	-36.200	-0.274	0.147
-420.500	115.132	-0.084	-0.101
-419.486	745.716	0.013	0.035
-418.471	69.445	-0.133	0.135
-417.457	548.410	0.086	-0.203
-416.442	-24.085	0.177	-0.104
-415.428	140.579	0.169	0.220
-414.413	-75.583	0.168	-0.059
-413.398	800.000	-0.044	-0.153
-412.384	529.680	0.021	-0.050
-411.369	275.721	0.205	0.360
-410.355	-200.000	-0.031	0.293
-409.340	-200.000	0.040	-0.235
-408.325	-122.024	-0.410	-0.067
-407.311	-111.427	-0.213	0.043
-406.296	-116.597	0.200	-0.037
-405.282	355.820	-0.052	-0.102
-404.267	-0.074	-0.174	-0.123
-403.252	153.455	-0.147	-0.199
-402.238	-28.336	0.230	-0.132
-401.223	93.762	0.242	0.271
-400.209	-200.000	-0.003	0.265
-399.194	73.217	0.117	0.121
-398.179	261.111	-0.051	-0.086
-397.165	339.912	-0.120	0.232
-396.150	800.000	0.082	0.316
-395.136	119.152	0.128	0.156
-394.121	-200.000	0.025	-0.120
-393.106	19.251	-0.207	-0.164
-392.092	-57.664	-0.201	0.087
-391.077	-49.935	0.029	-0.014
-390.063	413.340	-0.051	0.107
-389.048	121.657	-0.147	-0.181
-388.033	-45.564	0.057	-0.028
-387.019	-200.000	0.017	-0.172
-386.004	-86.785	0.170	-0.051
-384.990	582.615	0.073	-0.177
-383.975	27.422	0.039	0.033
-382.960	-168.934	0.560	-0.021
-381.946	160.502	-0.192	0.264
-380.931	-45.373	-0.189	-0.093
-379.917	-200.000	-0.033	-0.164
-378.902	128.170	0.073	0.091
-377.888	-151.214	0.155	-0.011
-376.873	177.487	0.129	0.186
-375.858	42.678	-0.119	-0.107
-374.844	-132.834	0.498	0.063
-373.829	228.192	-0.179	0.288
-372.815	-200.000	-0.024	0.142
-371.800	91.874	0.177	0.196
-370.785	-9.585	-0.037	-0.024
-369.771	-200.000	-0.058	-0.390
-368.756	319.030	-0.201	-0.377
-367.742	551.951	-0.133	0.316
-366.727	800.000	0.086	0.272
-365.712	800.000	0.094	-0.297
-364.698	-132.844	0.319	0.040
-363.683	1.190	0.147	0.104
-362.669	253.394	-0.053	-0.090
-361.654	-200.000	-0.054	0.267
-360.639	-200.000	-0.002	-0.421
-359.625	-197.917	0.170	0.001
-358.610	7.525	0.039	0.029
-357.596	-200.000	-0.006	0.082
-356.581	517.881	0.045	-0.105
-355.566	-41.591	0.214	-0.108
-354.552	-43.642	-0.327	0.163
-353.537	-88.648	-0.240	0.070
-352.523	712.772	0.101	0.265
-351.508	800.000	-0.038	-0.153
-350.493	-200.000	-0.007	0.177
-349.479	45.992	0.153	0.139
-348.464	29.991	-0.141	-0.119
-347.450	-20.324	-0.142	0.087
-346.435	-200.000	0.019	0.135
-345.420	-31.341	0.217	-0.121
-344.406	257.047	0.134	0.228
-343.391	800.000	0.015	0.048
-342.377	-121.684	-0.227	0.037
-341.362	11.208	0.067	-0.051
-340.348	800.000	0.080	-0.239
-339.333	308.828	0.068	0.126
-338.318	-200.000	-0.052	0.306
-337.304	-161.495	0.120	-0.006
-336.289	-1.857	-0.188	0.131
-335.275	-167.641	-0.060	0.002
-334.260	114.730	0.129	-0.155
-333.245	800.000	-0.071	0.220
-332.231	196.763	0.115	-0.173
-331.216	230.067	-0.105	0.169
-330.202	-200.000	0.011	-0.056
-329.187	52.562	0.102	0.096
-328.172	-200.000	0.010	0.231
-327.158	92.692	0.138	-0.154
-326.143	800.000	-0.062	0.234
-325.129	153.118	-0.098	0.132
-324.114	800.000	-0.112	0.358
-323.099	-99.127	0.363	-0.090
-322.085	800.000	0.125	0.343
-321.070	800.000	0.153	0.482
-320.056	-105.210	-0.041	0.009
-319.041	-89.609	0.207	-0.060
-318.026	-90.593	0.060	0.017
-317.012	-200.000	0.007	0.068
-315.997	-45.855	-0.110	-0.054
-314.983	88.087	0.325	-0.356
-313.968	547.604	0.080	0.189
-312.953	-33.145	-0.204	-0.111
-311.939	138.051	0.162	-0.209
-310.924	-43.216	0.345	-0.172
-309.910	800.000	-0.074	-0.294
-308.895	-200.000	0.031	-0.190
-307.880	-82.494	-0.320	-0.102
-306.866	-104.745	0.332	-0.075
-305.851	-200.000	-0.015	0.116
-304.837	111.788	-0.073	0.087
-303.822	15.977	0.462	-0.359
-302.807	271.629	0.053	-0.093
-301.793	24.303	0.232	0.189
-300.778	11.071	0.298	0.224
-299.764	800.000	0.054	-0.183
-298.749	366.999	0.107	0.214
-297.735	-107.241	-0.189	-0.041
-296.720	-56.313	-0.102	0.044
-295.705	800.000	0.105	-0.317
-294.691	-125.579	-0.157	0.024
-293.676	-135.937	0.086	0.010
-292.662	-200.000	0.041	-0.197
-291.647	-60.851	-0.111	0.046
-290.632	-106.188	0.227	-0.050
-289.618	343.812	0.148	-0.286
-288.603	-200.000	-0.006	0.538
-287.589	-53.404	-0.141	0.064
-286.574	-69.056	-0.273	0.104
-285.559	-200.000	0.003	0.013
-284.545	-84.180	-0.186	-0.058
-283.530	-161.512	0.122	-0.006
-282.516	-15.990	-0.126	-0.079
-281.501	-200.000	0.006	0.176
-280.486	4.203	0.193	0.139
-279.472	-200.000	0.040	0.222
-278.457	-115.272	0.151	0.028
-277.443	800.000	-0.075	0.206
-276.428	11.305	-0.174	-0.131
-275.413	13.780	-0.127	0.097
-274.399	190.123	-0.105	0.156
-273.384	109.392	0.192	0.226
-272.370	800.000	-0.128	0.458
-271.355	0.242	-0.221	0.155
-270.340	-156.910	0.169	0.010
-269.326	437.685	0.132	0.283
-268.311	-200.000	0.036	-0.169
-267.297	-89.400	-0.056	-0.016
-266.282	-200.000	0.005	-0.054
-265.267	-118.855	0.153	-0.027
-264.253	-180.943	-0.245	0.005
-263.238	-200.000	0.079	-0.353
-262.224	-200.000	-0.016	-0.224
-261.209	43.913	0.114	0.103
-260.195	218.607	-0.138	-0.217
-259.180	-104.758	0.230	-0.052
-258.165	85.035	0.101	-0.109
-257.151	-140.428	-0.209	0.021
-256.136	17.345	0.126	0.099
-255.122	286.323	-0.133	0.236
-254.107	744.026	0.092	0.243
-253.092	288.192	-0.103	-0.184
-252.078	-200.000	0.051	-0.434
-251.063	560.978	0.065	0.154
-250.049	79.851	-0.318	-0.336
-249.034	-56.051	-0.287	0.126
-248.019	800.000	0.025	-0.104
-247.005	800.000	0.073	-0.278
-245.990	-12.040	0.434	-0.280
-244.976	284.713	-0.059	0.105
-243.961	21.332	-0.152	-0.121
-242.946	26.964	-0.096	0.079
-241.932	55.852	0.107	0.102
-240.917	-52.674	0.145	0.066
-239.903	127.218	0.097	0.121
-238.888	11.502	-0.134	0.101
-237.873	-8.880	0.110	0.072
-236.859	800.000	0.040	-0.135
-235.844	-25.001	-0.087	-0.051
-234.830	-200.000	0.002	-0.360
-233.815	126.364	-0.100	0.125
-232.800	-142.452	0.380	-0.037
-231.786	-38.906	0.047	0.024
-230.771	-16.360	-0.045	0.028
-229.757	-8.388	-0.142	-0.094
-228.742	-54.478	0.220	0.098
-227.727	122.427	-0.191	-0.234
-226.713	-50.701	0.233	-0.108
-225.698	-34.788	0.052	-0.028
-224.684	-26.143	0.199	0.115
-223.669	-200.000	-0.034	-0.361
-222.655	232.480	0.113	-0.183
-221.640	-131.138	-0.126	-0.016
-220.625	800.000	-0.064	-0.226
-219.611	253.705	-0.120	0.202
-218.596	-87.004	0.296	0.089
-217.582	-200.000	-0.002	0.054
-216.567	-160.260	0.229	-0.012
-215.552	453.987	0.092	0.201
-214.538	-58.381	-0.288	-0.123
-213.523	-43.663	-0.186	-0.092
-212.509	-61.799	-0.181	-0.074
-211.494	244.206	-0.086	0.142
-210.479	-200.000	-0.001	-0.019
-209.465	155.182	-0.150	-0.202
-208.450	-71.910	-0.299	-0.109
-207.436	-133.301	0.150	-0.019
-206.421	-200.000	0.021	-0.258
-205.406	-200.000	-0.003	0.272
-204.392	315.188	0.118	-0.219
-203.377	317.704	0.171	0.317
-202.363	224.740	0.116	0.185
-201.348	46.881	-0.178	0.162
-200.333	-41.581	0.093	-0.047
-199.319	-200.000	-0.006	0.210
-198.304	21.504	-0.332	0.265
-197.290	800.000	0.092	0.294
-196.275	-200.000	0.030	-0.167
-195.260	587.884	-0.037	0.089
-194.246	363.617	-0.138	-0.273
-193.231	-24.429	0.323	-0.189
-192.217	286.656	-0.192	0.340
-191.202	800.000	0.032	-0.103
-190.187	480.479	-0.021	0.047
-189.173	143.952	0.274	0.358
-188.158	800.000	-0.076	-0.247
-187.144	800.000	0.100	-0.272
-186.129	-106.204	0.220	-0.048
-185.114	-65.021	-0.249	-0.099
-184.100	800.000	-0.077	0.297
-183.085	87.678	0.016	0.017
-182.071	800.000	0.034	-0.140
-181.056	-116.677	0.199	-0.036
-180.042	-200.000	0.004	0.253
-179.027	42.035	-0.104	0.092
-178.012	-200.000	-0.015	0.268
-176.998	-107.064	-0.161	0.035
-175.983	800.000	-0.066	0.207
-174.969	-22.373	-0.367	-0.218
-173.954	-55.772	0.267	0.117
-172.939	-200.000	0.007	-0.241
-171.925	208.493	0.004	0.006
-170.910	-15.913	0.285	-0.178
-169.896	418.249	-0.066	-0.138
-168.881	800.000	0.116	0.433
-167.866	-48.884	-0.081	0.038
-166.852	88.319	-0.179	-0.194
-165.837	-200.000	-0.039	0.267
-164.823	347.386	-0.081	-0.157
-163.808	-200.000	-0.022	-0.298
-162.793	-12.630	-0.140	-0.090
-161.779	800.000	-0.086	-0.303
-160.764	6.150	-0.201	0.146
-159.750	331.299	0.185	0.349
-158.735	101.847	-0.065	0.075
-157.720	48.340	-0.149	0.137
-156.706	-125.958	0.243	0.036
-155.691	-17.233	0.337	-0.208
-154.677	93.860	0.201	-0.223
-153.662	29.906	0.144	0.120
-152.647	222.860	-0.133	-0.211
-151.633	-200.000	-0.060	0.393
-150.618	-200.000	-0.001	-0.168
-149.604	-39.207	-0.235	-0.121
-148.589	-88.883	-0.169	-0.049
-147.574	-200.000	0.029	0.307
-146.560	689.545	0.108	0.277
-145.545	-15.647	0.200	0.125
-144.531	-200.000	-0.058	0.302
-143.516	-200.000	-0.007	0.091
-142.502	-88.081	0.012	-0.004
-141.487	-12.006	0.268	0.172
-140.472	43.778	-0.092	-0.083
-139.458	-200.000	-0.046	-0.420
-138.443	671.772	-0.093	0.236
-137.429	-200.000	0.006	0.335
-136.414	139.358	0.083	0.107
-135.399	45.922	-0.172	0.156
-134.385	764.208	-0.059	-0.158
-133.370	-20.615	0.190	0.114
-132.356	-29.034	0.120	0.067
-131.341	223.894	0.071	0.112
-130.326	784.833	0.138	0.370
-129.312	-200.000	-0.055	0.316
-128.297	-200.000	-0.061	-0.338
-127.283	94.652	0.020	-0.022
-126.268	-35.385	-0.201	0.107
-125.253	416.245	0.094	0.195
-124.239	-118.886	-0.288	0.050
-123.224	518.364	0.107	-0.244
-122.210	150.796	-0.205	-0.272
-121.195	-127.522	-0.259	0.037
-120.180	-160.665	0.482	-0.025
-119.166	-135.921	0.270	0.031
-118.151	-44.281	-0.272	0.133
-117.137	800.000	0.038	-0.132
-116.122	-115.845	-0.242	-0.044
-115.107	57.881	0.222	0.213
-114.093	366.240	0.118	-0.232
-113.078	171.643	0.074	0.104
-112.064	-126.611	-0.087	0.013
-111.049	800.000	0.084	-0.285
-110.034	763.155	-0.054	0.143
-109.020	-5.038	-0.215	0.145
-108.005	-87.779	-0.155	0.046
-106.991	-59.281	0.375	-0.158
-105.976	112.429	-0.015	-0.018
-104.962	510.054	0.141	0.322
-103.947	-131.557	0.481	0.062
-102.932	12.035	-0.252	0.189
-101.918	71.629	-0.113	0.115
-100.903	-200.000	-0.029	0.259
-99.889	-96.639	0.143	-0.037
-98.874	601.677	0.165	0.401
-97.859	249.658	0.133	0.220
-96.845	-101.405	0.147	-0.035
-95.830	-200.000	-0.020	-0.147
-94.816	-61.266	-0.158	-0.065
-93.801	-165.936	0.256	-0.011
-92.786	-52.438	-0.091	-0.041
-91.772	-200.000	0.012	0.066
-90.757	-200.000	0.004	0.091
-89.743	-143.033	-0.191	0.018
-88.728	11.659	0.145	-0.109
-87.713	526.417	-0.134	-0.310
-86.699	-200.000	0.005	0.039
-85.684	341.582	0.097	-0.185
-84.670	800.000	0.113	0.359
-83.655	12.894	0.047	0.036
-82.640	-47.720	0.251	0.119
-81.626	-172.176	-0.294	-0.009
-80.611	-55.082	0.143	-0.063
-79.597	142.361	0.021	0.027
-78.582	69.484	-0.126	0.127
-77.567	56.804	-0.047	-0.045
-76.553	-118.217	0.351	0.061
-75.538	-200.000	-0.000	-0.032
-74.524	25.332	-0.204	0.166
-73.509	-156.318	-0.095	-0.006
-72.494	-200.000	-0.005	0.170
-71.480	-23.690	-0.202	0.118
-70.465	-110.065	0.352	-0.072
-69.451	-84.308	0.087	-0.027
-68.436	-18.879	0.148	0.090
-67.422	-200.000	0.000	0.030
-66.407	-83.192	0.100	0.031
-65.392	124.881	0.162	0.199
-64.378	-51.955	-0.171	-0.078
-63.363	94.292	0.338	-0.375
-62.349	29.529	0.085	0.070
-61.334	26.474	-1.003	-0.819
-60.319	24.137	0.715	0.576
-59.305	800.000	-0.400	-1.402
-58.290	381.908	0.787	1.579
-57.276	477.339	0.562	1.240
-56.261	-200.000	116.887	639.801
-55.246	488.061	1550.734	3455.868
-54.232	174.368	2723.006	3842.404
-53.217	104.865	2182.297	2511.369
-52.203	37.109	1695.431	1464.736
-51.188	29.442	1510.015	1252.692
-50.173	27.187	1485.373	1217.115
-49.159	49.769	1546.484	1422.342
-48.144	48.199	1560.436	1424.380
-47.130	29.344	1515.929	1256.728
-46.115	26.439	1500.515	1224.270
-45.100	26.251	1497.004	1220.087
-44.086	26.195	1495.280	1218.257
-43.071	26.190	1493.452	1216.681
-42.057	26.160	1491.623	1214.942
-41.042	26.124	1490.085	1213.400
-40.027	26.114	1488.580	1212.059
-39.013	26.123	1487.162	1210.919
-37.998	26.176	1486.234	1210.467
-36.984	26.262	1485.020	1210.008
-35.969	26.276	1483.421	1208.750
-34.954	26.262	1481.787	1207.278
-33.940	26.041	1481.795	1205.757
-32.925	26.160	1479.450	1204.601
-31.911	26.286	1477.731	1203.992
-30.896	26.307	1477.139	1203.601
-29.881	26.293	1475.614	1202.216
-28.867	26.264	1473.975	1200.641
-27.852	26.294	1472.916	1199.927
-26.838	26.340	1471.887	1199.349
-25.823	26.372	1469.687	1197.723
-24.809	26.362	1468.252	1196.436
-23.794	26.267	1467.502	1195.150
-22.779	26.219	1466.634	1194.081
-21.765	26.373	1464.644	1193.429
-20.750	26.274	1463.607	1191.882
-19.736	26.323	1462.419	1191.189
-18.721	26.243	1461.756	1190.074
-17.706	26.259	1460.394	1189.026
-16.692	26.306	1459.414	1188.489
-15.677	26.220	1458.700	1187.297
-14.663	26.247	1457.836	1186.723
-13.648	26.209	1456.416	1185.272
-12.633	26.104	1456.098	1184.276
-11.619	26.190	1454.823	1183.758
-10.604	26.144	1453.995	1182.735
-9.590	26.201	1453.009	1182.254
-8.575	26.164	1452.632	1181.665
-7.560	26.155	1451.524	1180.653
-6.546	26.222	1450.164	1179.937
-5.531	26.264	1449.190	1179.372
-4.517	26.238	1448.748	1178.794
-3.502	26.270	1447.398	1177.864
-2.487	26.180	1446.715	1176.673
-1.473	26.161	1445.713	1175.686
-0.458	26.140	1444.300	1174.352
0.556	26.398	1434.208	1163.481
1.571	23.444	1410.089	1125.098
2.586	20.122	1350.882	1057.528
3.600	18.597	1269.122	984.690
4.615	17.489	1224.342	943.719
5.629	14.998	1167.863	886.920
6.644	8.709	1086.934	794.272
7.659	4.089	1050.968	745.719
8.673	3.501	1045.974	739.295
9.688	3.505	1042.545	736.823
10.702	3.439	1041.006	735.358
11.717	3.504	1039.248	734.361
12.731	5.176	1040.141	742.886
13.746	11.544	1048.977	779.608
14.761	17.633	1057.077	814.761
15.775	19.399	1058.586	824.301
16.790	18.995	1057.089	821.135
17.804	18.007	1054.679	814.482
18.819	17.220	1052.936	809.313
19.834	16.806	1051.522	806.185
20.848	16.477	1051.267	804.356
21.863	16.483	1050.087	803.408
22.877	16.234	1049.462	801.676
23.892	16.082	1048.412	800.086
24.907	15.878	1048.029	798.753
25.921	15.791	1047.326	797.736
26.936	15.933	1046.434	797.654
27.950	16.032	1045.264	797.164
28.965	16.014	1043.989	796.033
29.980	16.062	1042.857	795.328
30.994	16.054	1041.933	794.513
32.009	16.235	1040.854	794.472
33.023	16.302	1040.331	794.320
34.038	16.334	1039.335	793.640
35.053	16.174	1038.291	792.020
36.067	16.184	1037.369	791.293
37.082	16.139	1036.474	790.330
38.096	16.075	1036.060	789.643
39.111	16.235	1034.841	789.395
40.126	16.237	1034.296	788.917
41.140	16.139	1032.943	787.360
42.155	16.025	1031.736	785.838
43.169	15.852	1030.627	784.119
44.184	15.813	1029.538	783.038
45.199	15.856	1028.213	782.163
46.213	15.747	1027.709	781.203
47.228	15.848	1026.332	780.553
48.242	15.964	1025.951	780.732
49.257	16.061	1024.888	780.305
50.271	16.170	1023.989	780.057
51.286	16.104	1022.917	778.863
52.301	16.095	1022.373	778.342
53.315	16.130	1021.535	777.794
54.330	16.041	1020.570	776.583
55.344	15.962	1019.986	775.704
56.359	15.900	1018.966	774.575
57.374	16.054	1017.947	774.438
58.388	15.921	1017.368	773.320
59.403	15.763	1016.425	771.807
60.417	15.843	1015.395	771.324
61.432	15.841	1014.999	770.945
62.447	15.681	1014.494	769.763
63.461	15.690	1013.224	768.772
64.476	15.642	1012.282	767.769
65.490	15.672	1011.348	767.129
66.505	15.673	1010.646	766.536
67.520	15.635	1010.176	765.938
68.534	15.785	1009.003	765.662
69.549	15.790	1008.030	764.878
70.563	15.717	1007.676	764.212
71.578	15.620	1006.942	763.145
72.593	15.620	1005.903	762.291
73.607	15.547	1004.792	761.051
74.622	15.538	1003.810	760.200
75.636	15.511	1003.138	759.501
76.651	15.609	1002.239	759.199
77.666	15.679	1001.763	759.087
78.680	15.666	1001.061	758.428
79.695	15.589	1000.829	757.838
80.709	15.552	1000.074	757.033
81.724	15.800	998.648	757.002
82.739	15.850	998.139	756.771
83.753	15.987	997.380	756.746
84.768	15.982	996.747	756.176
85.782	16.170	995.968	756.360
86.797	16.306	995.740	756.732
87.812	16.309	994.699	755.888
88.826	16.104	993.776	754.202
89.841	16.134	993.133	753.783
90.855	16.194	992.506	753.506
91.870	16.208	991.863	753.012
92.884	16.189	991.525	752.606
93.899	16.227	990.383	751.843
94.914	16.234	989.616	751.223
95.928	16.295	988.527	750.602
96.943	16.324	987.921	750.202
97.957	16.197	987.581	749.315
98.972	16.200	985.682	747.820
99.987	16.128	985.674	747.430
101.001	16.336	984.474	747.375
102.016	16.235	983.912	746.437
103.030	16.190	982.750	745.289
104.045	16.118	982.241	744.521
105.060	16.208	981.178	744.047
106.074	16.165	980.102	742.972
107.089	15.988	979.203	741.450
108.103	15.952	978.101	740.389
109.118	15.799	977.249	739.008
110.133	15.630	976.765	737.835
111.147	15.827	975.601	737.751
112.162	15.641	975.204	736.574
113.176	15.790	974.312	736.484
114.191	15.919	972.874	735.898
115.206	15.944	972.438	735.612
116.220	15.961	971.404	734.837
117.235	15.817	971.009	733.849
118.249	15.810	969.971	732.968
119.264	15.860	968.918	732.323
120.279	15.808	968.435	731.668
121.293	15.754	967.244	730.467
122.308	15.711	966.936	729.983
123.322	15.763	965.773	729.270
124.337	15.610	964.412	727.514
125.352	15.736	963.245	727.114
126.366	15.629	962.856	726.294
127.381	15.687	961.380	725.368
128.395	15.715	960.446	724.716
129.410	15.782	959.751	724.416
130.424	15.667	959.099	723.367
131.439	15.689	957.974	722.549
132.454	15.796	957.257	722.403
133.468	15.819	956.556	721.911
134.483	15.800	956.250	721.534
135.497	15.897	955.319	721.181
136.512	15.815	954.781	720.359
137.527	15.818	954.174	719.853
138.541	15.897	953.059	719.286
139.556	15.949	952.136	718.746
140.570	15.977	951.247	718.129
141.585	16.085	951.157	718.459
142.600	15.982	950.502	717.464
143.614	15.973	950.011	716.992
144.629	16.183	948.924	717.001
145.643	16.465	947.812	717.293
146.658	16.364	947.394	716.485
147.673	16.151	946.193	714.609
148.687	16.026	945.243	713.300
149.702	15.942	944.499	712.322
150.716	15.949	943.680	711.672
151.731	15.801	942.732	710.265
152.746	15.856	942.142	709.991
153.760	15.969	941.258	709.740
154.775	16.050	940.513	709.455
155.789	16.090	940.105	709.253
156.804	16.223	938.944	708.871
157.819	16.203	938.203	708.165
158.833	16.165	938.116	707.882
159.848	16.289	937.272	707.700
160.862	16.338	936.758	707.454
161.877	16.230	936.148	706.477
162.892	16.141	934.822	705.046
163.906	15.992	933.671	703.491
164.921	16.046	932.945	703.108
165.935	16.071	931.870	702.338
166.950	16.137	930.820	701.761
167.964	16.105	929.949	700.910
168.979	16.199	929.440	700.852
169.994	16.203	928.113	699.808
171.008	16.161	927.216	698.894
172.023	16.179	926.628	698.465
173.037	16.225	926.000	698.119
174.052	16.398	924.827	697.887
175.067	16.346	924.696	697.514
176.081	16.256	924.163	696.677
177.096	16.054	923.256	695.097
178.110	16.098	922.262	694.469
179.125	16.124	921.629	694.039
180.140	16.166	920.587	693.365
181.154	16.281	919.935	693.287
182.169	16.325	919.295	692.923
183.183	16.548	918.669	693.305
184.198	16.465	918.182	692.536
185.213	16.491	917.536	692.091
186.227	16.413	916.923	691.250
187.242	16.501	916.492	691.223
188.256	16.497	916.155	690.893
189.271	16.577	914.917	690.222
190.286	16.566	914.453	689.768
191.300	16.530	913.138	688.568
192.315	16.193	912.645	686.765
193.329	16.003	912.146	685.557
194.344	16.047	911.199	684.961
195.359	16.262	910.676	685.381
196.373	16.325	910.450	685.404
197.388	16.373	909.922	685.143
198.402	16.462	909.615	685.210
199.417	16.703	908.854	685.553
200.432	16.759	908.472	685.432
201.446	16.739	908.303	685.161
202.461	16.835	907.588	684.949
203.475	16.908	907.300	684.966
204.490	16.942	906.405	684.367
205.504	16.855	905.661	683.396
206.519	16.678	904.932	682.072
207.534	16.660	904.067	681.285
208.548	16.578	903.005	680.094
209.563	16.653	902.598	680.032
210.577	16.745	901.817	679.751
211.592	16.681	901.254	679.011
212.607	16.859	901.106	679.551
213.621	16.939	900.007	678.982
214.636	16.963	899.205	678.415
215.650	16.775	898.754	677.262
216.665	16.797	898.253	676.913
217.680	16.843	898.132	676.948
218.694	17.024	897.164	676.878
219.709	16.998	896.996	676.587
220.723	17.025	896.235	676.061
221.738	16.944	895.539	675.156
222.753	16.933	894.952	674.608
223.767	17.056	893.838	674.200
224.782	16.968	893.380	673.442
225.796	17.035	892.976	673.345
226.811	17.154	892.365	673.296
227.826	17.130	891.442	672.447
228.840	17.010	890.993	671.571
229.855	16.883	890.417	670.576
230.869	16.957	889.846	670.381
231.884	17.001	888.690	669.625
232.899	17.057	887.980	669.250
233.913	16.862	887.242	667.864
234.928	16.907	886.467	667.403
235.942	16.880	885.797	666.730
236.957	16.712	885.586	665.851
237.972	16.927	884.242	665.626
238.986	16.845	883.933	665.013
240.001	16.789	883.397	664.332
241.015	16.807	882.671	663.799
242.030	16.931	881.984	663.707
243.045	17.137	881.331	663.964
244.059	17.157	880.654	663.474
245.074	17.016	880.593	662.816
246.088	17.094	879.437	662.194
247.103	17.084	879.361	662.037
248.117	17.208	878.538	661.844
249.132	17.247	878.440	661.862
250.147	17.360	877.620	661.626
251.161	17.592	877.102	662.077
252.176	17.622	876.371	661.583
253.190	17.736	875.316	661.171
254.205	17.550	875.197	660.304
255.220	17.751	874.566	660.548
256.234	17.718	873.954	659.897
257.249	17.598	873.539	659.062
258.263	17.858	872.717	659.390
259.278	17.729	872.132	658.389
260.293	17.850	871.550	658.359
261.307	17.864	870.956	657.904
262.322	17.971	870.253	657.729
263.336	17.898	869.790	657.041
264.351	17.872	869.570	656.714
265.366	18.028	868.697	656.599
266.380	17.926	868.284	655.835
267.395	17.888	867.418	654.977
268.409	17.904	866.366	654.188
269.424	17.869	865.726	653.511
270.439	17.729	865.627	652.842
271.453	17.606	864.486	651.456
272.468	17.778	863.631	651.409
273.482	17.583	863.237	650.311
274.497	17.833	862.434	650.600
275.512	17.691	861.896	649.596
276.526	17.756	861.101	649.187
277.541	17.905	860.249	649.054
278.555	17.849	859.903	648.521
279.570	17.763	859.489	647.826
280.585	17.919	859.098	648.066
281.599	18.070	858.157	647.872
282.614	17.997	858.029	647.443
283.628	17.980	856.756	646.360
284.643	17.809	856.966	645.814
285.657	17.993	855.889	645.638
286.672	17.915	855.694	645.141
287.687	17.980	855.020	644.821
288.701	17.940	854.868	644.499
289.716	17.981	854.225	644.112
290.730	17.874	853.533	643.128
291.745	17.992	853.097	643.189
292.760	17.856	852.218	641.957
293.774	18.238	851.243	642.600
294.789	18.168	850.951	642.060
295.803	18.262	850.046	641.673
296.818	17.985	850.135	640.646
297.833	18.139	849.041	640.341
298.847	18.075	848.583	639.701
299.862	18.072	847.409	638.746
300.876	18.102	847.355	638.761
301.891	18.228	846.376	638.435
302.906	18.347	846.006	638.543
303.920	18.307	845.266	637.781
304.935	18.389	844.975	637.809
305.949	18.468	844.293	637.532
306.964	18.368	843.760	636.701
307.979	18.397	843.015	636.193
308.993	18.306	842.613	635.493
310.008	18.533	842.183	635.957
311.022	18.417	841.463	634.926
312.037	18.325	840.935	634.130
313.052	18.366	840.517	633.913
314.066	18.366	839.334	632.964
315.081	18.246	839.261	632.409
316.095	18.288	838.318	631.795
317.110	18.227	837.799	631.124
318.125	18.281	837.517	631.054
319.139	18.226	836.797	630.256
320.154	18.238	836.287	629.858
321.168	18.253	835.868	629.543
322.183	18.100	835.851	628.910
323.197	18.327	835.071	629.103
324.212	18.439	833.994	628.649
325.227	18.380	834.047	628.415
326.241	18.301	832.995	627.278
327.256	18.476	832.470	627.465
328.270	18.425	831.831	626.744
329.285	18.383	831.162	626.031
330.300	18.209	830.900	625.141
331.314	18.380	830.126	625.128
332.329	18.418	829.686	624.882
333.343	18.497	829.096	624.668
334.358	18.791	828.105	624.936
335.373	18.557	827.988	623.942
336.387	18.708	827.373	623.973
337.402	18.690	826.853	623.460
338.416	18.652	826.695	623.145
339.431	18.624	826.165	622.592
340.446	18.800	825.487	622.662
341.460	18.905	824.734	622.421
342.475	18.937	824.584	622.368
343.489	18.956	823.876	621.845
344.504	18.965	823.892	621.835
345.519	19.037	823.030	621.389
346.533	19.028	822.645	621.012
347.548	19.006	822.272	620.596
348.562	18.918	821.279	619.476
349.577	18.786	820.659	618.477
350.592	18.718	820.159	617.800
351.606	18.732	819.478	617.285
352.621	18.805	819.055	617.171
353.635	18.801	818.513	616.694
354.650	18.880	818.015	616.549
355.665	18.848	817.939	616.322
356.679	18.909	817.619	616.246
357.694	18.888	816.983	615.635
358.708	18.986	816.727	615.739
359.723	18.869	816.090	614.784
360.738	19.019	815.437	614.777
361.752	18.844	815.021	613.783
362.767	19.010	814.506	613.933
363.781	19.038	814.453	613.940
364.796	19.248	813.818	614.153
365.810	19.336	813.405	614.101
366.825	19.462	812.853	614.080
367.840	19.440	812.308	613.536
368.854	19.314	812.194	612.947
369.869	19.237	812.092	612.543
370.883	19.175	811.202	611.596
371.898	19.118	810.651	610.925
372.913	19.311	809.825	610.931
373.927	19.385	809.358	610.787
374.942	19.344	808.787	610.156
375.956	19.299	808.131	609.450
376.971	19.320	807.889	609.288
377.986	19.329	807.174	608.725
379.000	19.506	806.569	608.840
380.015	19.554	806.115	608.613
381.029	19.273	806.089	607.550
382.044	19.475	804.984	607.372
383.059	19.577	804.307	607.167
384.073	19.569	803.935	606.804
385.088	19.568	803.475	606.402
386.102	19.439	802.740	605.340
387.117	19.392	802.169	604.689
388.132	19.313	801.688	603.996
389.146	19.379	801.351	603.923
390.161	19.448	801.071	603.898
391.175	19.422	800.712	603.483
392.190	19.640	800.211	603.814
393.205	19.528	799.605	602.914
394.219	19.564	798.707	602.306
395.234	19.347	798.876	601.625
396.248	19.435	798.305	601.447
397.263	19.197	797.610	600.044
398.278	19.405	797.226	600.424
399.292	19.371	796.617	599.796
400.307	19.373	796.218	599.450
401.321	19.362	795.839	599.070
402.336	19.339	795.405	598.614
403.350	19.479	795.171	598.869
404.365	19.524	794.726	598.637
405.380	19.520	794.609	598.482
406.394	19.512	794.182	598.080
407.409	19.754	793.609	598.431
408.423	19.751	793.379	598.196
409.438	19.862	793.119	598.329
410.453	19.881	792.491	597.871
411.467	19.934	792.018	597.645
412.482	20.000	791.636	597.531
413.496	19.992	791.339	597.225
414.511	19.952	790.748	596.588
415.526	19.985	790.254	596.277
416.540	20.092	790.025	596.420
417.555	20.046	789.348	595.696
418.569	20.000	788.994	595.221
419.584	19.853	788.718	594.453
420.599	19.942	788.096	594.236
421.613	162.393	1370.233	1797.308
422.628	140.634	1455.042	1797.401
