DTS Sentinel unit serial number:	SN413079Multiplexer serial number:	ORYXHardware model number:	OX4-SRSoftware version number:	ORYX F/W v4.00 Oryx Data Collector v3.7.2.0data status	okinstallation	princeton_trtdifferential loss correction	single-endedforward channel	channel 3reverse channel	N/Adate	2019/09/19time	14:04:35forward acquisition time	60.00reverse acquisition time	0.00gamma	496.2192k internal	0.2323k external	0.2323temperature offset calibration	0.9999default loss term (dB/km)	0.3790temperature slope calibration	1.0000multiplexer offset coefficient	1.0000multiplexer slope coefficient	1.0000fibre end	0.00T internal ref (°C)	31.28T ext. ref 1 (°C)	1.02T ext. ref 2 (°C)	28.48length (m)	temperature (°C)	Stokes	anti-Stokes-747.200	-83.596	0.188	-0.061
-746.185	800.000	-0.041	0.159
-745.171	-170.799	-0.104	0.004
-744.156	38.350	-0.448	0.403
-743.142	-200.000	0.023	0.104
-742.127	461.264	-0.058	-0.130
-741.112	-96.679	-0.191	-0.051
-740.098	-118.269	0.076	0.014
-739.083	800.000	-0.059	0.255
-738.069	-60.131	0.115	0.049
-737.054	800.000	-0.068	0.207
-736.039	-199.311	-0.264	0.001
-735.025	800.000	0.076	0.230
-734.010	-200.000	-0.032	0.254
-732.996	-19.996	-0.193	0.120
-731.981	136.031	0.049	0.065
-730.966	-62.300	-0.375	-0.158
-729.952	158.132	-0.144	0.202
-728.937	-68.575	0.218	0.085
-727.923	336.035	-0.106	-0.208
-726.908	-26.682	-0.252	0.149
-725.894	623.917	-0.020	-0.052
-724.879	-200.000	-0.021	0.105
-723.864	319.639	0.193	0.369
-722.850	100.452	-0.131	0.154
-721.835	185.535	0.066	-0.099
-720.821	267.359	-0.134	-0.236
-719.806	-14.665	-0.380	-0.246
-718.791	-85.884	-0.203	-0.063
-717.777	-200.000	-0.016	-0.344
-716.762	800.000	0.054	0.176
-715.748	800.000	0.055	-0.194
-714.733	-200.000	0.018	0.090
-713.718	64.256	-0.104	-0.105
-712.704	-113.135	-0.230	0.046
-711.689	-70.718	0.330	-0.126
-710.675	99.307	-0.120	-0.140
-709.660	129.677	-0.069	-0.088
-708.645	75.194	-0.065	0.069
-707.631	14.423	-0.251	0.198
-706.616	-200.000	-0.012	-0.110
-705.602	33.299	-0.115	-0.101
-704.587	86.632	-0.140	-0.155
-703.572	-200.000	0.047	0.237
-702.558	12.956	0.283	-0.221
-701.543	79.596	0.275	-0.297
-700.529	276.611	0.123	0.221
-699.514	-159.692	0.089	-0.005
-698.499	424.322	-0.031	-0.067
-697.485	800.000	0.110	0.395
-696.470	-200.000	0.043	-0.265
-695.456	-200.000	0.091	-0.486
-694.441	-173.255	-0.084	0.003
-693.426	-28.940	0.190	-0.110
-692.412	295.925	-0.220	-0.407
-691.397	-99.966	-0.267	-0.067
-690.383	-200.000	-0.052	-0.321
-689.368	793.541	-0.029	0.080
-688.354	-196.101	-0.286	-0.002
-687.339	-25.812	-0.223	0.133
-686.324	-81.936	-0.071	0.023
-685.310	-113.877	0.163	-0.032
-684.295	800.000	0.119	-0.354
-683.281	583.965	-0.018	-0.044
-682.266	215.313	0.086	-0.138
-681.251	-52.304	0.155	-0.072
-680.237	-46.391	0.334	-0.165
-679.222	800.000	0.055	0.205
-678.208	-71.898	0.167	-0.063
-677.193	20.736	0.356	-0.291
-676.178	-200.000	0.013	-0.252
-675.164	-77.424	0.136	0.048
-674.149	800.000	0.063	-0.225
-673.135	800.000	-0.055	0.160
-672.120	800.000	0.017	0.052
-671.105	296.738	0.145	0.268
-670.091	-53.057	-0.158	0.073
-669.076	-200.000	-0.003	0.127
-668.062	-200.000	-0.005	0.100
-667.047	-50.946	0.321	-0.152
-666.032	-200.000	-0.000	-0.219
-665.018	248.818	0.082	-0.140
-664.003	436.184	-0.133	-0.292
-662.989	800.000	-0.087	0.272
-661.974	-160.969	-0.122	-0.006
-660.959	-200.000	0.007	0.192
-659.945	119.831	-0.111	0.138
-658.930	-173.116	0.094	-0.003
-657.916	-83.340	0.323	0.104
-656.901	-91.482	0.239	0.069
-655.886	-15.243	0.207	0.134
-654.872	-36.711	-0.239	-0.129
-653.857	800.000	0.034	-0.120
-652.843	-200.000	0.018	0.233
-651.828	-107.174	0.093	-0.021
-650.814	-200.000	0.038	0.327
-649.799	499.647	0.130	-0.302
-648.784	-182.256	0.288	-0.005
-647.770	80.843	-0.111	-0.121
-646.755	-200.000	-0.040	-0.350
-645.741	-57.281	-0.152	-0.067
-644.726	-11.483	0.182	-0.120
-643.711	70.724	-0.176	-0.183
-642.697	147.351	-0.101	-0.137
-641.682	800.000	0.103	-0.302
-640.668	-126.966	-0.142	-0.021
-639.653	-13.857	-0.180	0.117
-638.638	-169.037	0.101	-0.004
-637.624	800.000	-0.057	-0.168
-636.609	-47.067	-0.110	0.054
-635.595	-53.377	0.190	0.088
-634.580	-200.000	-0.049	-0.351
-633.565	121.889	0.097	0.121
-632.551	-200.000	0.021	0.219
-631.536	-29.026	0.078	-0.045
-630.522	126.995	0.232	0.296
-629.507	-200.000	-0.000	0.387
-628.492	-75.281	-0.140	-0.050
-627.478	-57.801	-0.006	-0.002
-626.463	800.000	-0.127	0.425
-625.449	-49.953	-0.152	-0.073
-624.434	205.476	-0.145	-0.227
-623.419	-160.662	-0.171	-0.009
-622.405	23.262	-0.201	0.166
-621.390	-200.000	0.036	-0.284
-620.376	-160.842	-0.253	-0.013
-619.361	-43.984	0.055	-0.028
-618.346	-200.000	-0.010	-0.287
-617.332	800.000	0.009	-0.029
-616.317	-69.638	0.367	-0.141
-615.303	73.452	-0.042	0.044
-614.288	-10.272	-0.239	-0.159
-613.273	-26.850	-0.030	0.018
-612.259	-143.358	-0.271	-0.026
-611.244	-200.000	0.050	-0.234
-610.230	-50.610	-0.276	-0.130
-609.215	-191.189	-0.080	-0.001
-608.201	-200.000	-0.006	-0.226
-607.186	25.397	-0.286	-0.239
-606.171	-200.000	-0.023	-0.134
-605.157	-200.000	-0.021	0.211
-604.142	-80.842	0.207	0.069
-603.128	73.471	-0.123	0.129
-602.113	-200.000	-0.043	-0.317
-601.098	-131.677	-0.258	-0.034
-600.084	-118.416	0.111	-0.020
-599.069	-20.976	0.089	-0.055
-598.055	136.568	-0.141	0.185
-597.040	418.842	0.141	-0.304
-596.025	-200.000	-0.061	0.388
-595.011	770.860	0.059	0.162
-593.996	-200.000	-0.005	0.069
-592.982	-200.000	-0.050	-0.269
-591.967	-45.428	0.175	0.087
-590.952	-200.000	0.000	0.014
-589.938	518.067	-0.009	-0.022
-588.923	244.204	0.134	-0.226
-587.909	749.642	0.074	-0.201
-586.894	-200.000	-0.015	0.179
-585.879	32.901	0.288	-0.250
-584.865	-72.929	-0.321	0.118
-583.850	800.000	-0.031	0.128
-582.836	226.500	-0.093	0.152
-581.821	234.305	-0.103	0.170
-580.806	800.000	-0.075	-0.263
-579.792	63.210	0.293	0.295
-578.777	-69.702	-0.165	-0.063
-577.763	800.000	-0.112	-0.416
-576.748	-200.000	-0.003	-0.064
-575.733	142.604	0.152	-0.203
-574.719	-200.000	0.037	-0.239
-573.704	78.059	0.159	-0.170
-572.690	600.817	0.046	-0.115
-571.675	578.187	0.106	-0.260
-570.661	-125.096	0.091	0.014
-569.646	-200.000	-0.024	0.342
-568.631	4.453	-0.213	-0.157
-567.617	217.319	0.120	-0.192
-566.602	243.626	0.145	0.244
-565.588	-26.832	-0.174	-0.102
-564.573	-158.473	0.434	-0.025
-563.558	-119.179	0.299	-0.052
-562.544	69.451	-0.109	0.112
-561.529	-8.596	-0.247	0.166
-560.515	40.621	0.112	0.101
-559.500	96.215	0.098	0.113
-558.485	-152.922	0.353	0.025
-557.471	157.728	-0.113	0.156
-556.456	-71.013	-0.193	0.073
-555.442	-200.000	0.052	-0.324
-554.427	235.398	0.106	-0.175
-553.412	800.000	0.076	0.250
-552.398	-200.000	-0.070	0.485
-551.383	524.046	-0.070	-0.164
-550.369	-69.603	0.091	0.035
-549.354	0.728	0.195	-0.140
-548.339	328.213	-0.053	0.102
-547.325	20.204	-0.171	0.138
-546.310	-48.316	0.275	0.133
-545.296	800.000	-0.114	-0.323
-544.281	-68.397	-0.303	-0.118
-543.266	-200.000	-0.006	0.047
-542.252	-119.911	-0.118	-0.020
-541.237	298.474	0.080	-0.148
-540.223	226.875	-0.036	-0.059
-539.208	-171.708	-0.164	0.005
-538.193	-200.000	0.017	0.494
-537.179	-200.000	0.027	-0.213
-536.164	-200.000	0.022	-0.156
-535.150	136.608	-0.094	-0.123
-534.135	-26.697	-0.037	-0.021
-533.121	-80.576	0.191	0.064
-532.106	149.379	-0.104	-0.141
-531.091	91.390	0.188	0.211
-530.077	186.548	0.139	-0.208
-529.062	8.722	0.200	0.151
-528.048	-107.694	-0.169	0.037
-527.033	-43.221	0.454	0.230
-526.018	90.539	-0.212	-0.237
-525.004	-144.224	0.128	0.012
-523.989	-75.132	-0.181	-0.065
-522.975	269.557	-0.147	0.258
-521.960	-50.199	-0.075	-0.036
-520.945	-200.000	0.019	-0.440
-519.931	55.359	0.169	0.164
-518.916	-91.072	0.482	0.139
-517.902	-22.398	-0.071	0.043
-516.887	55.174	0.201	0.194
-515.872	141.364	-0.099	-0.131
-514.858	-161.090	-0.330	0.017
-513.843	271.824	-0.071	-0.125
-512.829	266.056	0.061	-0.106
-511.814	-139.573	0.142	-0.015
-510.799	800.000	-0.063	-0.228
-509.785	133.981	-0.254	-0.329
-508.770	36.466	0.097	-0.086
-507.756	-200.000	0.000	-0.230
-506.741	268.924	0.060	0.105
-505.726	-95.147	-0.104	-0.028
-504.712	92.652	-0.052	0.058
-503.697	67.636	0.115	0.118
-502.683	19.972	-0.118	0.095
-501.668	91.680	0.254	0.286
-500.653	800.000	-0.115	0.426
-499.639	235.876	0.146	-0.241
-498.624	800.000	0.125	0.419
-497.610	-44.604	-0.331	0.165
-496.595	125.565	0.113	-0.143
-495.581	-131.125	-0.432	0.057
-494.566	110.889	-0.188	0.226
-493.551	-200.000	0.070	-0.351
-492.537	-87.684	-0.058	-0.018
-491.522	800.000	0.096	0.326
-490.508	-200.000	-0.038	0.459
-489.493	-200.000	-0.018	0.179
-488.478	27.597	0.043	-0.036
-487.464	-52.885	-0.384	-0.177
-486.449	-6.124	0.270	-0.184
-485.435	56.615	0.457	-0.444
-484.420	-29.842	-0.181	-0.103
-483.405	438.762	-0.100	0.217
-482.391	-200.000	0.012	0.321
-481.376	-200.000	-0.020	-0.178
-480.362	-46.755	-0.198	0.097
-479.347	-140.378	-0.183	-0.019
-478.332	-5.270	-0.169	0.116
-477.318	-67.483	0.282	-0.111
-476.303	152.079	0.035	0.047
-475.289	-132.640	0.285	0.037
-474.274	-200.000	-0.019	-0.096
-473.259	-4.994	-0.139	-0.096
-472.245	-200.000	-0.030	0.253
-471.230	-32.450	-0.231	0.129
-470.216	239.977	-0.061	0.101
-469.201	48.220	0.124	-0.116
-468.186	292.590	-0.306	-0.557
-467.172	-200.000	-0.017	-0.197
-466.157	800.000	0.050	-0.187
-465.143	-200.000	0.010	-0.204
-464.128	-19.470	-0.234	-0.145
-463.113	-88.755	0.045	0.013
-462.099	249.112	0.063	0.106
-461.084	-200.000	0.023	0.124
-460.070	28.631	-0.120	0.101
-459.055	336.419	-0.138	-0.267
-458.040	333.896	0.084	0.162
-457.026	340.760	-0.059	-0.114
-456.011	52.079	-0.156	-0.149
-454.997	169.279	0.199	0.283
-453.982	-200.000	0.077	0.403
-452.968	356.749	-0.044	0.088
-451.953	-31.577	0.151	0.084
-450.938	-97.819	-0.122	-0.031
-449.924	743.520	0.012	-0.032
-448.909	191.432	0.073	-0.109
-447.895	495.584	0.035	-0.081
-446.880	-200.000	-0.005	0.205
-445.865	-200.000	0.024	0.202
-444.851	646.601	-0.036	0.092
-443.836	-200.000	0.008	0.169
-442.822	-180.063	0.220	0.005
-441.807	45.495	0.119	0.109
-440.792	44.652	0.199	-0.183
-439.778	-97.565	0.273	0.071
-438.763	-54.900	-0.273	0.123
-437.749	-200.000	-0.005	-0.303
-436.734	-105.719	0.119	0.027
-435.719	-200.000	0.023	-0.227
-434.705	61.658	-0.154	-0.153
-433.690	-43.381	-0.210	-0.106
-432.676	22.500	0.022	-0.018
-431.661	6.628	0.138	0.102
-430.646	387.202	-0.046	0.094
-429.632	164.663	-0.058	0.082
-428.617	-79.984	0.250	0.084
-427.603	-200.000	0.029	0.353
-426.588	20.904	0.049	0.039
-425.573	193.876	0.071	-0.107
-424.559	-50.087	-0.054	0.025
-423.544	20.261	-0.115	-0.093
-422.530	7.738	-0.099	0.074
-421.515	-116.084	-0.391	0.073
-420.500	-126.567	0.271	-0.040
-419.486	424.487	-0.126	0.270
-418.471	301.944	0.116	0.214
-417.457	13.437	0.147	0.114
-416.442	-134.791	-0.252	0.030
-415.428	-163.410	-0.233	-0.011
-414.413	109.130	0.207	0.247
-413.398	153.236	0.069	0.094
-412.384	246.152	0.122	0.204
-411.369	-200.000	-0.023	0.151
-410.355	-21.087	-0.244	-0.149
-409.340	8.614	0.122	0.091
-408.325	-24.004	0.221	0.132
-407.311	237.274	0.059	-0.097
-406.296	142.882	-0.097	0.129
-405.282	-125.246	-0.347	0.053
-404.267	83.213	-0.120	0.130
-403.252	99.535	0.065	0.075
-402.238	-200.000	0.018	-0.212
-401.223	46.432	-0.169	-0.156
-400.209	-109.875	0.199	-0.042
-399.194	204.102	-0.193	-0.297
-398.179	-66.941	0.260	-0.102
-397.165	25.490	-0.329	-0.273
-396.150	-11.875	-0.176	0.115
-395.136	-200.000	0.056	0.460
-394.121	305.279	0.094	0.174
-393.106	569.053	0.200	0.485
-392.092	582.397	0.071	0.173
-391.077	-144.008	0.269	0.025
-390.063	800.000	-0.009	-0.032
-389.048	-46.275	0.090	-0.044
-388.033	-200.000	-0.006	-0.225
-387.019	-154.302	-0.160	-0.011
-386.004	-56.684	-0.328	-0.145
-384.990	-200.000	0.011	-0.184
-383.975	-70.201	-0.209	0.079
-382.960	554.558	-0.118	-0.283
-381.946	-24.218	-0.233	-0.139
-380.931	800.000	0.131	0.377
-379.917	-85.751	0.383	-0.118
-378.902	-26.118	-0.287	0.168
-377.888	577.432	0.045	0.109
-376.873	-86.912	0.294	-0.089
-375.858	114.522	-0.090	0.110
-374.844	402.903	0.085	-0.178
-373.829	-40.674	-0.076	-0.039
-372.815	800.000	-0.140	-0.408
-371.800	-200.000	-0.003	-0.053
-370.785	800.000	0.030	-0.088
-369.771	81.377	0.142	-0.152
-368.756	-99.209	-0.300	0.075
-367.742	800.000	-0.060	0.200
-366.727	-95.943	-0.257	0.068
-365.712	93.518	0.136	0.153
-364.698	-119.190	0.252	-0.044
-363.683	-132.119	0.084	-0.011
-362.669	66.844	0.138	-0.140
-361.654	40.975	0.384	-0.345
-360.639	-103.864	-0.203	-0.047
-359.625	-109.789	-0.218	-0.045
-358.610	201.573	0.068	-0.104
-357.596	-69.863	0.097	-0.037
-356.581	800.000	-0.127	0.518
-355.566	-123.933	0.335	0.052
-354.552	800.000	-0.143	-0.536
-353.537	-200.000	-0.004	-0.027
-352.523	103.583	-0.083	0.097
-351.508	-200.000	-0.015	-0.249
-350.493	-16.196	0.165	-0.104
-349.479	25.654	-0.137	0.114
-348.464	-200.000	-0.024	0.310
-347.450	-25.607	0.305	-0.179
-346.435	-103.833	-0.103	-0.024
-345.420	-55.911	0.081	0.036
-344.406	800.000	-0.060	-0.175
-343.391	133.599	-0.174	-0.224
-342.377	-63.440	-0.122	-0.050
-341.362	1.620	-0.235	0.168
-340.348	149.061	-0.078	0.105
-339.333	-200.000	0.053	0.280
-338.318	-39.319	-0.343	0.179
-337.304	-85.585	-0.519	0.160
-336.289	58.898	0.116	-0.114
-335.275	800.000	0.080	-0.252
-334.260	-97.435	0.215	-0.056
-333.245	-101.164	0.286	0.069
-332.231	107.052	-0.215	-0.254
-331.216	-200.000	0.001	0.262
-330.202	-90.269	0.174	0.050
-329.187	328.973	-0.141	-0.269
-328.172	141.349	-0.119	0.157
-327.158	-151.372	0.069	-0.005
-326.143	94.858	-0.207	-0.234
-325.129	-66.955	-0.219	-0.086
-324.114	-85.338	0.377	-0.117
-323.099	-184.380	-0.341	0.006
-322.085	-153.997	-0.337	-0.023
-321.070	-85.616	-0.237	-0.073
-320.056	12.139	-0.108	0.083
-319.041	-72.420	0.120	-0.044
-318.026	-141.583	0.230	-0.023
-317.012	-90.464	-0.286	0.082
-315.997	-200.000	-0.022	-0.146
-314.983	-33.800	0.232	-0.127
-313.968	800.000	0.133	0.465
-312.953	145.393	-0.027	-0.036
-311.939	-6.056	0.419	-0.284
-310.924	81.107	0.239	-0.256
-309.910	-92.975	0.217	0.060
-308.895	-111.039	-0.535	-0.109
-307.880	-116.580	0.112	-0.021
-306.866	-57.718	-0.097	-0.042
-305.851	-88.708	0.074	0.022
-304.837	611.925	0.133	-0.329
-303.822	-117.118	-0.123	-0.022
-302.807	-57.824	0.372	-0.161
-301.793	-200.000	0.028	0.141
-300.778	-59.640	0.334	0.142
-299.764	800.000	0.054	0.182
-298.749	10.009	-0.233	-0.175
-297.735	800.000	-0.177	0.562
-296.720	158.672	-0.125	0.173
-295.705	-97.499	0.394	0.102
-294.691	388.674	-0.150	0.309
-293.676	800.000	0.109	-0.365
-292.662	-200.000	0.021	-0.136
-291.647	422.693	0.056	-0.120
-290.632	800.000	-0.008	-0.028
-289.618	-200.000	-0.039	0.350
-288.603	-119.367	0.111	-0.019
-287.589	1.936	0.155	0.111
-286.574	-118.432	-0.050	-0.009
-285.559	183.557	0.091	-0.133
-284.545	800.000	-0.066	0.229
-283.530	-200.000	0.031	-0.379
-282.516	-90.744	0.388	-0.111
-281.501	-63.089	0.085	0.035
-280.486	-14.239	0.205	0.131
-279.472	-200.000	0.018	0.156
-278.457	33.662	0.088	0.076
-277.443	214.598	0.256	-0.402
-276.428	15.547	-0.216	-0.168
-275.413	-120.605	0.373	0.063
-274.399	-175.039	0.411	-0.011
-273.384	-34.083	0.353	-0.192
-272.370	-104.279	-0.131	-0.030
-271.355	-54.509	0.409	-0.184
-270.340	382.384	0.023	0.047
-269.326	201.562	0.076	-0.116
-268.311	-6.507	0.166	0.112
-267.297	-94.346	-0.097	0.026
-266.282	315.187	0.113	-0.211
-265.267	-159.943	0.198	0.011
-264.253	372.749	0.114	-0.229
-263.238	37.666	-0.415	-0.365
-262.224	42.595	0.236	-0.213
-261.209	238.622	-0.186	-0.306
-260.195	-14.401	0.115	-0.074
-259.180	181.101	0.116	0.169
-258.165	800.000	0.053	-0.162
-257.151	354.006	-0.027	-0.053
-256.136	-143.999	0.345	0.032
-255.122	-200.000	-0.011	0.265
-254.107	-81.279	-0.154	-0.050
-253.092	-123.672	-0.321	0.050
-252.078	-167.558	-0.303	-0.012
-251.063	-200.000	0.028	-0.165
-250.049	-71.992	0.153	-0.056
-249.034	-173.110	0.159	0.005
-248.019	800.000	0.051	0.154
-247.005	800.000	0.068	0.273
-245.990	-42.774	-0.220	-0.111
-244.976	-125.986	0.330	-0.049
-243.961	88.536	0.040	-0.044
-242.946	4.076	-0.278	-0.201
-241.932	-142.945	0.662	-0.064
-240.917	27.854	-0.062	0.052
-239.903	210.754	-0.247	0.385
-238.888	10.088	0.165	0.124
-237.873	45.724	0.234	-0.214
-236.859	-97.401	-0.195	0.050
-235.844	800.000	-0.097	0.287
-234.830	403.691	-0.158	0.329
-233.815	269.492	-0.152	0.265
-232.800	494.593	-0.092	0.209
-231.786	-163.378	0.196	0.009
-230.771	-15.318	-0.123	-0.078
-229.757	800.000	-0.079	0.255
-228.742	-70.281	0.175	0.066
-227.727	-200.000	0.022	0.216
-226.713	-71.284	-0.218	-0.081
-225.698	800.000	0.060	-0.178
-224.684	96.341	0.171	0.194
-223.669	-96.025	0.171	-0.045
-222.655	-200.000	0.065	-0.377
-221.640	435.942	-0.147	-0.317
-220.625	-161.129	-0.154	0.008
-219.611	-200.000	0.030	-0.180
-218.596	-200.000	-0.041	-0.238
-217.582	58.646	-0.168	-0.163
-216.567	-200.000	-0.007	-0.092
-215.552	74.839	-0.242	0.252
-214.538	-18.373	-0.057	0.035
-213.523	14.083	-0.206	0.159
-212.509	665.390	-0.012	0.031
-211.494	379.930	-0.055	0.111
-210.479	518.055	0.066	0.154
-209.465	-25.790	0.160	0.093
-208.450	-105.537	-0.226	0.051
-207.436	-5.005	0.260	-0.177
-206.421	-83.432	-0.072	0.023
-205.406	140.099	0.018	-0.023
-204.392	800.000	-0.075	-0.229
-203.377	8.222	0.131	-0.097
-202.363	-90.620	-0.036	-0.010
-201.348	800.000	0.082	0.236
-200.333	134.173	0.064	0.083
-199.319	-0.583	-0.089	-0.062
-198.304	800.000	-0.065	-0.178
-197.290	-91.390	-0.160	0.045
-196.275	598.408	0.045	-0.111
-195.260	-200.000	-0.035	0.361
-194.246	53.860	-0.115	-0.110
-193.231	492.120	-0.091	0.206
-192.217	-39.395	-0.264	0.137
-191.202	-77.031	-0.024	0.008
-190.187	800.000	0.053	-0.182
-189.173	-84.346	0.184	0.058
-188.158	-21.647	-0.125	-0.075
-187.144	-200.000	0.066	0.325
-186.129	254.532	-0.127	-0.214
-185.114	-59.297	-0.072	0.031
-184.100	800.000	0.103	-0.345
-183.085	-126.583	0.124	-0.018
-182.071	-95.304	-0.364	-0.097
-181.056	-200.000	0.247	-0.001
-180.042	-60.745	-0.151	0.063
-179.027	-200.000	-0.014	0.148
-178.012	-83.681	-0.022	0.007
-176.998	-69.292	0.257	-0.097
-175.983	16.627	0.223	0.174
-174.969	382.016	-0.036	0.072
-173.954	455.598	-0.116	0.253
-172.939	-59.007	-0.231	0.098
-171.925	-200.000	0.039	0.188
-170.910	-200.000	0.055	0.240
-169.896	97.739	-0.072	-0.082
-168.881	-112.306	-0.118	0.023
-167.866	-73.927	0.270	-0.097
-166.852	6.450	0.099	0.073
-165.837	-154.950	0.211	0.014
-164.823	800.000	0.085	0.357
-163.808	800.000	0.043	-0.171
-162.793	-65.674	0.149	-0.059
-161.779	243.988	-0.079	0.132
-160.764	-58.590	-0.212	-0.091
-159.750	139.906	-0.151	0.197
-158.735	-200.000	0.077	0.488
-157.720	111.895	0.173	0.206
-156.706	58.292	-0.272	0.264
-155.691	637.141	0.187	0.469
-154.677	37.230	-0.251	0.220
-153.662	800.000	-0.070	-0.201
-152.647	148.909	-0.214	0.286
-151.633	-198.384	-0.223	0.001
-150.618	-11.016	0.192	-0.125
-149.604	-35.435	0.264	-0.142
-148.589	32.813	0.121	0.103
-147.574	-146.144	0.201	0.017
-146.560	-7.327	0.074	0.049
-145.545	-15.557	-0.203	-0.128
-144.531	-200.000	0.002	0.070
-143.516	-38.594	0.241	0.126
-142.502	-200.000	0.025	0.120
-141.487	106.913	0.200	0.234
-140.472	98.119	-0.130	0.148
-139.458	-134.178	0.165	0.020
-138.443	-200.000	0.032	-0.243
-137.429	-115.660	0.279	-0.052
-136.414	78.592	-0.060	-0.063
-135.399	-54.239	0.356	-0.160
-134.385	33.786	-0.185	-0.159
-133.370	-106.004	0.195	-0.043
-132.356	244.140	0.085	0.141
-131.341	-200.000	0.000	0.087
-130.326	30.858	-0.547	-0.462
-129.312	-18.524	0.117	0.072
-128.297	158.010	0.086	-0.117
-127.283	-200.000	-0.022	-0.124
-126.268	-64.388	-0.165	-0.066
-125.253	-42.834	0.138	-0.069
-124.239	164.923	0.029	-0.040
-123.224	-200.000	-0.004	0.182
-122.210	-43.251	0.075	-0.037
-121.195	-200.000	0.031	0.145
-120.180	62.528	0.241	-0.237
-119.166	800.000	0.041	0.113
-118.151	-89.880	0.105	0.030
-117.137	541.138	0.076	-0.178
-116.122	800.000	0.018	-0.075
-115.107	-200.000	-0.064	-0.317
-114.093	46.765	-0.242	0.222
-113.078	152.632	-0.124	0.167
-112.064	-200.000	-0.010	-0.213
-111.049	-172.623	0.113	0.003
-110.034	800.000	-0.058	-0.203
-109.020	95.302	0.217	-0.243
-108.005	-200.000	0.015	0.114
-106.991	-143.180	0.035	0.003
-105.976	-133.669	-0.230	0.028
-104.962	-156.486	0.183	-0.011
-103.947	-17.983	0.462	-0.285
-102.932	40.586	-0.050	0.045
-101.918	-13.955	0.252	0.160
-100.903	-8.512	-0.087	0.057
-99.889	800.000	-0.071	0.264
-98.874	-4.440	-0.194	-0.132
-97.859	-150.242	-0.046	-0.003
-96.845	-102.977	-0.146	0.034
-95.830	13.729	0.098	0.075
-94.816	-68.959	0.156	-0.059
-93.801	169.967	-0.114	-0.161
-92.786	142.848	-0.116	-0.152
-91.772	55.538	0.151	-0.144
-90.757	36.482	0.254	0.221
-89.743	410.213	-0.233	0.486
-88.728	-36.110	-0.151	0.080
-87.713	-72.868	0.288	-0.104
-86.699	800.000	-0.065	0.228
-85.684	330.013	-0.073	0.138
-84.670	800.000	0.046	0.185
-83.655	301.159	0.233	0.424
-82.640	-82.221	0.077	0.025
-81.626	198.096	0.184	0.277
-80.611	192.872	0.168	0.249
-79.597	800.000	0.085	0.297
-78.582	166.534	0.191	0.266
-77.567	-130.943	-0.326	0.043
-76.553	-103.491	0.373	0.086
-75.538	21.547	0.229	0.183
-74.524	420.101	0.073	-0.154
-73.509	-200.000	0.050	0.248
-72.494	14.390	0.336	0.258
-71.480	52.793	-0.210	0.197
-70.465	-200.000	-0.019	0.148
-69.451	11.228	-0.097	-0.073
-68.436	-200.000	-0.019	0.124
-67.422	411.328	0.020	0.042
-66.407	-18.122	-0.186	0.115
-65.392	25.841	-0.235	0.192
-64.378	584.609	-0.060	0.146
-63.363	90.522	-0.189	0.208
-62.349	-64.045	0.418	0.168
-61.334	62.166	-1.105	-1.084
-60.319	712.221	0.256	0.667
-59.305	800.000	-0.240	-0.793
-58.290	247.792	0.599	0.996
-57.276	672.268	0.601	1.532
-56.261	-200.000	94.781	571.338
-55.246	504.323	1407.590	3202.690
-54.232	151.877	2619.967	3511.275
-53.217	109.620	2216.741	2611.504
-52.203	42.307	1742.729	1556.865
-51.188	34.494	1550.034	1330.444
-50.173	32.185	1522.680	1291.066
-49.159	51.566	1570.587	1467.275
-48.144	52.909	1588.817	1493.615
-47.130	34.718	1548.913	1330.827
-46.115	31.539	1534.755	1296.623
-45.100	31.403	1531.328	1292.736
-44.086	31.391	1528.571	1290.276
-43.071	31.361	1527.139	1288.806
-42.057	31.357	1524.693	1286.665
-41.042	31.323	1523.504	1285.377
-40.027	31.311	1522.114	1284.071
-39.013	31.359	1520.493	1282.979
-37.998	31.321	1519.227	1281.598
-36.984	31.259	1518.038	1280.123
-35.969	31.368	1516.525	1279.540
-34.954	31.221	1515.408	1277.545
-33.940	31.299	1513.857	1276.718
-32.925	31.313	1512.542	1275.653
-31.911	31.348	1511.461	1274.930
-30.896	31.260	1510.367	1273.359
-29.881	31.348	1508.508	1272.339
-28.867	31.387	1506.928	1271.219
-27.852	31.352	1505.744	1269.933
-26.838	31.349	1504.400	1268.726
-25.823	31.302	1503.124	1267.286
-24.809	31.386	1501.105	1266.097
-23.794	31.312	1500.010	1264.622
-22.779	31.242	1498.900	1263.167
-21.765	31.340	1497.304	1262.431
-20.750	31.372	1495.763	1261.297
-19.736	31.259	1495.316	1260.111
-18.721	31.300	1493.709	1258.982
-17.706	31.309	1492.667	1258.111
-16.692	31.346	1491.357	1257.211
-15.677	31.201	1490.800	1255.712
-14.663	31.296	1489.302	1255.042
-13.648	31.283	1488.445	1254.183
-12.633	31.326	1487.121	1253.306
-11.619	31.271	1486.728	1252.554
-10.604	31.194	1485.688	1251.116
-9.590	31.117	1485.320	1250.235
-8.575	31.266	1484.010	1250.080
-7.560	31.166	1483.121	1248.618
-6.546	31.135	1482.433	1247.778
-5.531	31.186	1481.673	1247.431
-4.517	31.192	1480.515	1246.447
-3.502	31.173	1479.357	1245.292
-2.487	31.236	1478.230	1244.715
-1.473	31.189	1477.723	1243.931
-0.458	31.209	1476.311	1242.823
0.556	30.651	1467.419	1233.659
1.571	28.242	1441.101	1195.719
2.586	24.720	1378.400	1121.542
3.600	22.364	1292.861	1037.972
4.615	20.179	1245.983	987.815
5.629	16.827	1188.270	923.737
6.644	8.753	1101.625	815.346
7.659	2.083	1060.922	752.364
8.673	1.060	1055.654	743.545
9.688	1.067	1052.244	741.108
10.702	1.038	1051.430	740.328
11.717	0.905	1049.599	738.327
12.731	3.253	1051.229	750.868
13.746	10.487	1061.043	793.313
14.761	16.238	1068.242	826.882
15.775	17.580	1068.644	833.691
16.790	17.170	1067.499	830.720
17.804	16.120	1065.448	823.924
18.819	15.332	1063.293	818.341
19.834	14.948	1062.099	815.479
20.848	14.634	1061.040	813.061
21.863	14.237	1060.637	810.748
22.877	14.043	1059.513	808.874
23.892	13.986	1058.506	807.758
24.907	13.766	1057.973	806.210
25.921	13.650	1057.345	805.095
26.936	13.873	1056.190	805.225
27.950	13.841	1055.667	804.603
28.965	13.880	1055.050	804.249
29.980	13.877	1054.446	803.701
30.994	13.913	1053.155	802.820
32.009	14.018	1052.454	802.725
33.023	13.945	1051.957	801.923
34.038	13.999	1050.633	801.100
35.053	13.986	1049.806	800.336
36.067	13.954	1048.849	799.386
37.082	13.805	1048.962	798.680
38.096	13.869	1047.950	798.149
39.111	14.007	1046.854	797.908
40.126	13.926	1045.757	796.609
41.140	13.989	1044.918	796.200
42.155	13.849	1044.122	794.856
43.169	13.779	1043.068	793.650
44.184	13.760	1042.412	792.988
45.199	13.762	1040.701	791.626
46.213	13.742	1040.106	791.007
47.228	13.804	1039.211	790.553
48.242	13.859	1038.039	789.850
49.257	13.859	1037.420	789.311
50.271	13.935	1035.982	788.508
51.286	13.727	1035.731	787.258
52.301	13.936	1034.395	787.164
53.315	13.885	1033.866	786.454
54.330	13.880	1032.779	785.530
55.344	13.835	1031.825	784.526
56.359	13.911	1031.021	784.200
57.374	13.902	1029.778	783.145
58.388	13.938	1029.574	783.092
59.403	13.775	1028.745	781.625
60.417	13.704	1028.269	780.859
61.432	13.813	1027.008	780.344
62.447	13.774	1026.233	779.500
63.461	13.788	1025.510	778.952
64.476	13.755	1024.989	778.330
65.490	13.679	1024.024	777.170
66.505	13.770	1023.341	777.009
67.520	13.759	1022.269	776.079
68.534	13.735	1021.554	775.353
69.549	13.918	1020.261	775.158
70.563	13.893	1019.827	774.644
71.578	13.791	1019.096	773.546
72.593	13.683	1018.646	772.629
73.607	13.758	1017.520	772.058
74.622	13.791	1016.262	771.189
75.636	13.703	1015.355	770.024
76.651	13.622	1014.919	769.250
77.666	13.751	1013.879	768.991
78.680	13.677	1013.269	768.113
79.695	13.695	1012.978	767.911
80.709	13.780	1012.163	767.617
81.724	13.810	1011.312	767.042
82.739	13.755	1010.396	766.027
83.753	13.654	1010.344	765.452
84.768	13.794	1009.145	765.122
85.782	13.937	1008.091	764.914
86.797	13.964	1007.455	764.488
87.812	13.952	1006.531	763.663
88.826	13.809	1005.862	762.433
89.841	13.857	1004.868	761.830
90.855	13.789	1004.252	760.985
91.870	13.890	1003.230	760.608
92.884	14.042	1002.508	760.687
93.899	14.073	1001.746	760.184
94.914	14.050	1001.332	759.699
95.928	14.001	1000.743	758.959
96.943	13.996	999.749	758.114
97.957	13.897	999.185	757.168
98.972	14.028	997.581	756.483
99.987	14.001	997.509	756.238
101.001	14.014	996.880	755.755
102.016	13.927	996.089	754.694
103.030	14.033	994.823	754.150
104.045	13.983	994.203	753.384
105.060	13.981	993.183	752.534
106.074	13.961	992.113	751.570
107.089	13.902	991.713	750.933
108.103	13.979	990.272	750.121
109.118	13.818	989.356	748.636
110.133	13.834	988.628	748.092
111.147	13.899	987.846	747.724
112.162	13.850	987.480	747.161
113.176	13.865	986.295	746.264
114.191	13.869	985.160	745.360
115.206	13.937	984.337	744.974
116.220	13.821	983.876	744.039
117.235	13.948	982.829	743.750
118.249	13.954	981.723	742.878
119.264	13.812	981.458	741.973
120.279	14.036	980.009	741.815
121.293	13.964	979.433	740.991
122.308	13.832	979.018	740.023
123.322	13.882	977.870	739.313
124.337	13.848	976.762	738.259
125.352	13.910	975.844	737.773
126.366	13.862	974.584	736.545
127.381	13.861	973.546	735.690
128.395	13.994	972.207	735.199
129.410	13.843	971.894	734.232
130.424	13.891	971.094	733.772
131.439	13.822	969.977	732.560
132.454	13.871	969.152	732.089
133.468	13.883	968.452	731.546
134.483	13.914	967.726	731.070
135.497	13.944	966.911	730.522
136.512	13.939	966.037	729.776
137.527	13.881	965.477	729.033
138.541	13.962	964.470	728.562
139.556	13.843	963.965	727.594
140.570	13.901	963.163	727.180
141.585	13.929	962.576	726.794
142.600	14.055	961.513	726.480
143.614	13.824	960.796	724.865
144.629	13.930	960.331	724.911
145.643	14.078	959.348	724.751
146.658	14.118	958.268	724.046
147.673	14.076	958.008	723.604
148.687	14.041	956.807	722.480
149.702	14.006	955.458	721.244
150.716	14.176	954.456	721.160
151.731	13.928	954.268	719.880
152.746	13.852	953.470	718.887
153.760	13.940	952.704	718.625
154.775	14.026	951.623	718.119
155.789	14.077	950.756	717.619
156.804	14.110	950.219	717.297
157.819	14.138	949.267	716.632
158.833	14.244	948.695	716.594
159.848	14.134	947.980	715.516
160.862	14.077	947.581	714.908
161.877	14.153	946.964	714.706
162.892	14.207	945.798	713.994
163.906	14.063	944.934	712.662
164.921	14.154	944.020	712.299
165.935	14.113	943.282	711.503
166.950	14.130	942.640	711.027
167.964	14.186	941.613	710.431
168.979	14.198	940.266	709.404
169.994	14.074	939.637	708.336
171.008	14.116	938.826	707.840
172.023	14.101	938.170	707.221
173.037	14.209	937.019	706.749
174.052	14.236	935.930	705.981
175.067	14.254	935.908	705.977
176.081	14.200	935.228	705.174
177.096	14.241	933.881	704.268
178.110	14.295	933.427	704.093
179.125	14.114	933.133	703.044
180.140	14.218	932.025	702.584
181.154	14.196	931.141	701.761
182.169	14.282	930.711	701.738
183.183	14.287	930.307	701.394
184.198	14.412	928.880	700.782
185.213	14.419	928.365	700.361
186.227	14.371	927.675	699.578
187.242	14.334	927.577	699.285
188.256	14.473	926.770	699.200
189.271	14.591	925.806	698.904
190.286	14.460	925.178	697.820
191.300	14.387	924.646	697.051
192.315	14.289	923.667	695.843
193.329	14.374	922.906	695.563
194.344	14.301	922.649	694.999
195.359	14.337	922.170	694.731
196.373	14.355	921.458	694.206
197.388	14.453	920.704	693.984
198.402	14.566	919.858	693.755
199.417	14.606	919.517	693.605
200.432	14.424	919.699	692.923
201.446	14.597	918.993	693.050
202.461	14.644	918.493	692.806
203.475	14.664	918.130	692.552
204.490	14.641	917.461	691.891
205.504	14.831	915.663	691.259
206.519	14.560	915.983	690.319
207.534	14.692	914.990	690.058
208.548	14.661	914.186	689.262
209.563	14.676	913.589	688.810
210.577	14.628	912.911	688.042
211.592	14.758	912.281	688.039
212.607	14.814	911.402	687.548
213.621	14.817	911.116	687.286
214.636	14.756	910.408	686.439
215.650	14.731	909.475	685.570
216.665	14.833	908.753	685.386
217.680	14.777	908.646	685.012
218.694	14.945	907.744	684.959
219.709	14.884	907.631	684.565
220.723	14.850	906.755	683.705
221.738	14.851	906.210	683.239
222.753	14.847	905.698	682.773
223.767	15.028	904.596	682.623
224.782	14.924	903.906	681.619
225.796	15.001	903.096	681.258
226.811	14.992	902.325	680.582
227.826	15.040	901.942	680.426
228.840	15.008	901.101	679.604
229.855	14.986	900.352	678.889
230.869	15.030	899.486	678.352
231.884	14.978	899.271	677.922
232.899	15.042	898.507	677.544
233.913	15.085	897.775	677.105
234.928	14.925	897.203	675.969
235.942	15.068	896.281	675.792
236.957	15.005	895.740	675.069
237.972	14.930	895.114	674.235
238.986	15.132	894.512	674.536
240.001	15.007	893.909	673.517
241.015	15.109	893.364	673.456
242.030	15.047	892.207	672.278
243.045	15.036	891.796	671.862
244.059	15.089	891.547	671.828
245.074	15.202	890.543	671.466
246.088	15.255	889.488	670.822
247.103	15.275	889.283	670.689
248.117	15.288	888.644	670.201
249.132	15.360	887.731	669.739
250.147	15.259	887.618	669.192
251.161	15.292	886.876	668.704
252.176	15.411	885.926	668.403
253.190	15.308	885.742	667.795
254.205	15.326	885.293	667.470
255.220	15.401	884.214	666.896
256.234	15.539	883.517	666.859
257.249	15.530	882.720	666.162
258.263	15.482	882.660	665.867
259.278	15.490	881.884	665.253
260.293	15.442	881.623	664.809
261.307	15.541	880.945	664.629
262.322	15.548	880.366	664.163
263.336	15.519	879.924	663.655
264.351	15.639	878.965	663.348
265.366	15.587	878.453	662.696
266.380	15.699	877.962	662.710
267.395	15.711	876.420	661.533
268.409	15.617	876.105	660.867
269.424	15.736	875.317	660.684
270.439	15.608	875.181	660.018
271.453	15.836	873.781	659.800
272.468	15.741	873.306	659.009
273.482	15.653	873.028	658.399
274.497	15.632	872.549	657.894
275.512	15.690	871.664	657.395
276.526	15.671	870.920	656.704
277.541	15.729	869.985	656.165
278.555	15.748	869.546	655.851
279.570	15.892	868.929	655.888
280.585	15.849	868.560	655.386
281.599	15.859	867.755	654.759
282.614	15.836	867.375	654.326
283.628	15.818	866.501	653.537
284.643	15.854	866.072	653.294
285.657	16.026	865.373	653.378
286.672	15.741	865.362	652.207
287.687	15.910	864.824	652.397
288.701	15.825	863.970	651.368
289.716	16.135	863.350	652.042
290.730	16.056	862.469	651.011
291.745	16.104	861.703	650.561
292.760	16.053	861.054	649.819
293.774	16.076	860.598	649.503
294.789	16.151	860.062	649.332
295.803	16.115	859.703	648.863
296.818	16.108	858.930	648.197
297.833	16.066	858.286	647.491
298.847	15.923	857.972	646.650
299.862	16.182	856.595	646.547
300.876	16.164	856.412	646.282
301.891	16.050	855.856	645.370
302.906	16.193	855.040	645.241
303.920	16.250	854.385	644.912
304.935	16.288	853.534	644.357
305.949	16.163	853.495	643.793
306.964	16.250	852.289	643.156
307.979	16.330	851.863	643.085
308.993	16.358	851.675	642.992
310.008	16.303	850.990	642.206
311.022	16.352	850.408	641.897
312.037	16.345	849.917	641.444
313.052	16.313	849.413	640.885
314.066	16.369	848.692	640.499
315.081	16.268	848.411	639.845
316.095	16.311	847.806	639.494
317.110	16.385	846.775	638.941
318.125	16.179	846.533	637.924
319.139	16.330	846.058	638.079
320.154	16.426	845.297	637.812
321.168	16.559	844.463	637.626
322.183	16.441	844.367	637.053
323.197	16.471	843.833	636.707
324.212	16.476	843.308	636.274
325.227	16.446	842.834	635.746
326.241	16.595	841.881	635.532
327.256	16.512	841.182	634.634
328.270	16.522	840.933	634.429
329.285	16.461	840.835	634.072
330.300	16.599	839.818	633.764
331.314	16.486	839.347	632.928
332.329	16.447	838.888	632.380
333.343	16.580	838.027	632.174
334.358	16.600	837.594	631.866
335.373	16.698	836.935	631.680
336.387	16.644	836.245	630.903
337.402	16.574	836.267	630.600
338.416	16.504	835.536	629.731
339.431	16.743	834.960	630.133
340.446	16.779	834.049	629.523
341.460	16.842	833.319	629.149
342.475	16.782	832.971	628.608
343.489	16.715	833.071	628.380
344.504	16.831	831.940	627.902
345.519	16.832	831.291	627.360
346.533	16.936	831.053	627.508
347.548	16.863	830.791	626.987
348.562	17.048	829.912	626.949
349.577	16.914	829.436	626.040
350.592	16.912	828.769	625.475
351.606	16.806	828.562	624.870
352.621	16.878	827.510	624.290
353.635	16.959	827.477	624.506
354.650	16.865	827.286	623.959
355.665	16.985	826.884	624.044
356.679	16.925	826.171	623.230
357.694	17.014	825.710	623.154
358.708	17.015	825.016	622.578
359.723	16.937	824.624	621.944
360.738	17.007	824.101	621.748
361.752	17.023	823.393	621.220
362.767	16.995	823.137	620.870
363.781	16.969	822.979	620.598
364.796	17.052	822.501	620.486
365.810	17.051	821.508	619.678
366.825	17.083	821.561	619.782
367.840	17.194	820.788	619.547
368.854	17.156	820.433	619.087
369.869	17.139	819.839	618.521
370.883	17.167	819.420	618.254
371.898	17.355	818.921	618.505
372.913	17.158	818.278	617.250
373.927	17.328	817.499	617.225
374.942	17.392	816.818	616.889
375.956	17.361	816.443	616.437
376.971	17.238	815.978	615.585
377.986	17.458	815.347	615.851
379.000	17.410	815.102	615.437
380.015	17.494	814.579	615.293
381.029	17.586	814.022	615.149
382.044	17.521	813.175	614.221
383.059	17.565	812.561	613.862
384.073	17.525	812.038	613.268
385.088	17.611	811.508	613.122
386.102	17.625	811.094	612.806
387.117	17.425	810.508	611.591
388.132	17.538	810.586	612.002
389.146	17.346	810.171	610.944
390.161	17.606	809.473	611.295
391.175	17.685	808.631	610.890
392.190	17.508	809.169	610.607
393.205	17.559	808.487	610.221
394.219	17.683	807.687	610.006
395.234	17.535	807.310	609.141
396.248	17.540	806.737	608.671
397.263	17.535	806.536	608.447
398.278	17.640	805.768	608.189
399.292	17.731	805.224	608.050
400.307	17.625	805.090	607.517
401.321	17.660	804.569	607.195
402.336	17.700	804.024	606.874
403.350	17.609	803.962	606.446
404.365	17.739	803.159	606.251
405.380	17.742	802.623	605.802
406.394	17.758	802.419	605.653
407.409	17.719	801.980	605.130
408.423	17.907	801.421	605.321
409.438	17.932	800.969	605.012
410.453	17.912	800.403	604.462
411.467	17.901	800.214	604.226
412.482	17.941	799.615	603.860
413.496	17.941	799.276	603.554
414.511	17.897	798.743	602.940
415.526	18.103	798.026	603.073
416.540	18.004	798.204	602.805
417.555	17.764	798.035	601.779
418.569	18.162	796.739	602.148
419.584	18.026	796.433	601.384
420.599	18.042	795.796	600.908
421.613	109.508	1289.568	1463.227
422.628	94.177	1361.528	1463.358
