DTS Sentinel unit serial number:	SN413079Multiplexer serial number:	ORYXHardware model number:	OX4-SRSoftware version number:	ORYX F/W v4.00 Oryx Data Collector v3.7.2.0data status	okinstallation	princeton_trtdifferential loss correction	single-endedforward channel	channel 3reverse channel	N/Adate	2019/09/18time	01:44:34forward acquisition time	60.00reverse acquisition time	0.00gamma	496.2192k internal	0.2344k external	0.2344temperature offset calibration	0.9945default loss term (dB/km)	0.3790temperature slope calibration	1.0000multiplexer offset coefficient	1.0000multiplexer slope coefficient	1.0000fibre end	0.00T internal ref (°C)	23.00T ext. ref 1 (°C)	0.16T ext. ref 2 (°C)	16.65length (m)	temperature (°C)	Stokes	anti-Stokes-747.200	303.849	-0.170	0.315
-746.185	322.376	0.060	-0.114
-745.171	-103.915	-0.051	0.012
-744.156	-129.776	0.090	0.012
-743.142	800.000	-0.105	0.294
-742.127	800.000	0.155	0.490
-741.112	647.288	-0.073	0.188
-740.098	-200.000	-0.033	0.350
-739.083	-116.441	0.173	0.032
-738.069	326.125	0.109	0.208
-737.054	-200.000	-0.003	0.264
-736.039	800.000	-0.063	-0.222
-735.025	107.964	-0.210	-0.251
-734.010	-132.620	0.159	0.020
-732.996	-200.000	0.073	-0.325
-731.981	-94.160	0.207	-0.057
-730.966	47.650	-0.351	0.327
-729.952	800.000	0.053	0.222
-728.937	510.471	-0.203	-0.473
-727.923	740.436	-0.077	-0.207
-726.908	-9.497	0.146	-0.098
-725.894	-200.000	0.025	-0.333
-724.879	-169.370	0.157	-0.006
-723.864	-200.000	-0.068	0.299
-722.850	-56.855	-0.300	-0.133
-721.835	-55.830	0.164	0.073
-720.821	-200.000	-0.011	0.154
-719.806	-117.669	0.251	0.045
-718.791	-92.755	-0.194	-0.054
-717.777	-136.916	-0.105	-0.012
-716.762	116.961	-0.309	-0.380
-715.748	-200.000	-0.008	0.052
-714.733	-200.000	0.033	0.185
-713.718	800.000	-0.107	0.440
-712.704	-73.188	0.269	-0.098
-711.689	-142.522	-0.064	-0.006
-710.675	-65.632	0.282	-0.113
-709.660	181.465	-0.120	0.176
-708.645	-200.000	0.029	-0.175
-707.631	-35.046	-0.165	-0.090
-706.616	240.836	0.119	-0.198
-705.602	-200.000	0.003	-0.405
-704.587	-13.833	-0.159	-0.103
-703.572	800.000	0.061	0.218
-702.558	-200.000	-0.014	-0.328
-701.543	24.230	-0.181	-0.149
-700.529	-200.000	0.039	-0.187
-699.514	-50.623	-0.203	-0.096
-698.499	649.243	-0.172	-0.441
-697.485	-200.000	-0.015	-0.221
-696.470	-101.784	0.094	0.023
-695.456	-4.539	-0.176	-0.121
-694.441	-58.399	-0.434	-0.188
-693.426	-108.425	-0.247	0.053
-692.412	69.521	-0.145	-0.149
-691.397	-70.744	-0.227	-0.086
-690.383	800.000	0.062	-0.199
-689.368	-107.782	-0.271	0.059
-688.354	58.088	0.047	0.046
-687.339	-200.000	0.004	0.501
-686.324	12.476	-0.130	-0.100
-685.310	170.774	-0.186	0.267
-684.295	516.116	0.047	0.109
-683.281	17.057	0.232	0.184
-682.266	176.365	0.100	0.145
-681.251	65.212	-0.177	0.178
-680.237	-125.137	-0.146	0.022
-679.222	0.230	0.156	0.111
-678.208	468.983	0.059	0.133
-677.193	-200.000	0.003	-0.027
-676.178	-200.000	0.021	-0.121
-675.164	-4.597	0.147	0.101
-674.149	150.947	-0.200	-0.271
-673.135	124.278	-0.101	-0.127
-672.120	284.880	-0.094	0.168
-671.105	-110.499	0.104	0.022
-670.091	-98.935	-0.050	-0.013
-669.076	386.415	-0.100	-0.207
-668.062	-69.934	0.217	0.082
-667.047	-75.863	-0.276	-0.098
-666.032	-89.121	0.323	-0.095
-665.018	445.827	0.082	-0.180
-664.003	-200.000	0.036	0.203
-662.989	-97.977	0.275	-0.071
-661.974	-150.266	0.142	-0.011
-660.959	116.492	-0.116	0.142
-659.945	6.115	0.249	-0.184
-658.930	-200.000	0.043	-0.230
-657.916	-42.328	0.268	0.137
-656.901	192.588	-0.204	-0.308
-655.886	-51.785	-0.167	0.077
-654.872	-200.000	-0.022	0.173
-653.857	65.617	-0.176	-0.178
-652.843	-57.695	0.171	0.075
-651.828	-200.000	0.057	0.399
-650.814	-200.000	-0.018	0.408
-649.799	-33.542	-0.126	0.069
-648.784	-0.587	-0.267	0.189
-647.770	95.209	-0.192	0.218
-646.755	-65.318	0.493	-0.198
-645.741	-134.377	0.186	0.023
-644.726	-116.871	-0.050	0.009
-643.711	-150.914	0.138	0.010
-642.697	-191.825	-0.131	-0.001
-641.682	-200.000	-0.057	-0.266
-640.668	458.539	0.103	0.228
-639.653	-27.712	-0.173	0.100
-638.638	-200.000	0.006	0.094
-637.624	-200.000	0.036	-0.290
-636.609	158.583	0.073	0.101
-635.595	-22.507	-0.072	-0.043
-634.580	-115.753	0.385	0.072
-633.565	39.779	-0.073	-0.065
-632.551	800.000	-0.080	0.253
-631.536	-56.408	-0.445	-0.197
-630.522	-91.018	0.123	0.035
-629.507	2.585	-0.204	0.147
-628.492	800.000	-0.054	-0.151
-627.478	800.000	-0.166	-0.521
-626.463	-200.000	0.013	-0.080
-625.449	800.000	0.079	-0.307
-624.434	235.746	0.160	-0.264
-623.419	-200.000	0.018	0.159
-622.405	300.395	-0.160	0.294
-621.390	-200.000	0.023	-0.164
-620.376	158.982	0.169	-0.235
-619.361	13.262	-0.266	-0.205
-618.346	114.501	0.054	-0.066
-617.332	132.652	-0.141	-0.181
-616.317	13.896	0.245	-0.190
-615.303	19.675	-0.111	0.089
-614.288	419.602	-0.077	-0.163
-613.273	184.169	0.142	0.209
-612.259	72.444	0.093	0.096
-611.244	-42.303	-0.414	-0.210
-610.230	166.766	0.169	-0.239
-609.215	96.084	0.096	-0.109
-608.201	800.000	-0.051	-0.176
-607.186	225.423	0.005	0.008
-606.171	77.667	-0.151	-0.160
-605.157	240.604	-0.107	0.178
-604.142	99.146	0.099	-0.114
-603.128	35.750	0.238	0.208
-602.113	-61.918	-0.291	0.121
-601.098	800.000	0.060	0.226
-600.084	75.397	-0.057	-0.060
-599.069	106.214	-0.122	-0.144
-598.055	178.533	-0.193	0.280
-597.040	-140.738	-0.016	-0.002
-596.025	724.598	0.105	-0.279
-595.011	-139.480	-0.256	0.027
-593.996	800.000	-0.053	0.202
-592.982	-11.367	0.192	0.126
-591.967	-27.049	-0.463	-0.269
-590.952	406.141	0.097	0.204
-589.938	-10.334	0.244	0.161
-588.923	-4.022	-0.136	0.094
-587.909	92.914	0.109	-0.123
-586.894	-152.650	0.050	-0.004
-585.879	-21.333	0.068	0.041
-584.865	800.000	-0.062	0.228
-583.850	-29.922	-0.374	-0.212
-582.836	72.072	-0.156	0.162
-581.821	-194.478	0.101	0.001
-580.806	-87.038	0.176	-0.053
-579.792	187.240	-0.122	0.181
-578.777	-22.253	-0.393	-0.237
-577.763	302.056	0.051	0.095
-576.748	-3.816	0.062	0.043
-575.733	19.293	-0.337	-0.269
-574.719	532.810	0.078	0.183
-573.704	800.000	0.037	-0.154
-572.690	-157.639	0.495	0.029
-571.675	43.732	-0.144	-0.131
-570.661	-35.205	-0.250	0.136
-569.646	-40.174	-0.155	-0.080
-568.631	-141.717	0.385	-0.038
-567.617	800.000	-0.065	-0.206
-566.602	-200.000	0.183	0.001
-565.588	62.057	0.312	-0.309
-564.573	-27.228	-0.178	-0.103
-563.558	132.211	-0.234	-0.300
-562.544	-73.329	-0.074	0.027
-561.529	244.892	0.094	-0.156
-560.515	-123.681	0.325	-0.051
-559.500	161.271	-0.034	-0.047
-558.485	-28.346	-0.135	-0.077
-557.471	753.475	0.075	-0.203
-556.456	303.607	-0.146	-0.269
-555.442	-200.000	0.024	-0.427
-554.427	800.000	-0.074	-0.268
-553.412	-14.385	0.251	0.160
-552.398	10.555	-0.180	0.136
-551.383	-82.470	0.134	0.043
-550.369	9.228	0.169	0.127
-549.354	69.183	0.249	0.254
-548.339	-5.883	0.200	-0.136
-547.325	-138.359	-0.327	0.036
-546.310	-39.957	-0.327	0.169
-545.296	-187.781	0.130	0.002
-544.281	701.199	-0.101	-0.263
-543.266	531.435	0.104	-0.244
-542.252	-117.499	-0.145	-0.026
-541.237	-200.000	-0.038	-0.175
-540.223	-47.730	-0.033	-0.016
-539.208	-27.785	0.211	-0.122
-538.193	-200.000	-0.011	0.195
-537.179	87.077	-0.239	-0.262
-536.164	-105.537	0.233	-0.052
-535.150	-109.567	0.149	-0.031
-534.135	-200.000	-0.051	0.309
-533.121	278.067	0.091	-0.161
-532.106	452.765	-0.111	0.243
-531.091	360.388	-0.195	-0.388
-530.077	-200.000	-0.002	-0.138
-529.062	800.000	0.079	0.258
-528.048	-11.913	-0.366	-0.238
-527.033	219.597	-0.114	0.181
-526.018	-101.280	-0.350	-0.085
-525.004	-200.000	0.021	0.210
-523.989	41.482	-0.042	-0.038
-522.975	-126.962	0.115	-0.017
-521.960	201.199	-0.171	-0.261
-520.945	131.156	-0.111	0.141
-519.931	-54.452	0.285	-0.128
-518.916	124.913	-0.207	0.259
-517.902	42.205	-0.249	0.224
-516.887	-200.000	-0.003	-0.026
-515.872	-161.324	-0.228	-0.012
-514.858	17.814	-0.156	-0.123
-513.843	1.072	0.254	0.181
-512.829	-200.000	-0.103	-0.477
-511.814	103.013	-0.143	-0.166
-510.799	800.000	0.070	-0.304
-509.785	-53.838	0.045	-0.020
-508.770	800.000	0.036	0.127
-507.756	104.467	0.109	-0.127
-506.741	464.252	0.115	-0.255
-505.726	52.847	0.294	0.279
-504.712	446.106	-0.077	0.167
-503.697	114.320	-0.182	0.220
-502.683	-127.877	-0.085	0.012
-501.668	426.599	-0.194	-0.415
-500.653	51.277	-0.274	0.258
-499.639	-46.117	0.288	0.140
-498.624	153.409	0.121	-0.165
-497.610	60.740	0.145	-0.142
-496.595	0.727	0.186	0.132
-495.581	273.913	0.125	0.220
-494.566	22.708	-0.273	-0.221
-493.551	-67.129	-0.112	-0.044
-492.537	171.336	0.235	0.334
-491.522	78.559	0.208	0.221
-490.508	155.703	-0.177	0.242
-489.493	-200.000	0.080	0.355
-488.478	2.420	-0.123	-0.088
-487.464	-129.394	0.107	-0.015
-486.449	613.406	-0.117	0.291
-485.435	-46.848	0.142	0.069
-484.420	800.000	0.050	-0.152
-483.405	101.307	0.053	-0.061
-482.391	-72.357	-0.107	0.039
-481.376	-9.511	0.163	-0.108
-480.362	-109.100	0.177	-0.037
-479.347	-60.955	-0.199	-0.083
-478.332	17.752	0.140	-0.110
-477.318	800.000	-0.162	0.449
-476.303	-200.000	0.084	0.655
-475.289	-39.823	0.308	0.160
-474.274	-79.856	-0.194	0.065
-473.259	-177.066	0.185	-0.005
-472.245	800.000	0.047	0.146
-471.230	454.500	-0.091	-0.199
-470.216	-102.378	0.317	-0.075
-469.201	-71.190	0.257	0.095
-468.186	74.963	0.148	0.154
-467.172	-48.182	-0.236	-0.113
-466.157	-169.180	0.127	0.005
-465.143	20.214	-0.172	-0.138
-464.128	-98.496	0.248	0.063
-463.113	-200.000	0.029	0.132
-462.099	-115.420	-0.198	-0.037
-461.084	99.275	0.048	0.055
-460.070	800.000	-0.113	0.326
-459.055	40.996	-0.152	0.136
-458.040	471.618	-0.032	0.071
-457.026	167.699	0.188	0.265
-456.011	106.433	0.073	-0.085
-454.997	-120.144	0.243	0.041
-453.982	-200.000	0.059	-0.285
-452.968	260.992	-0.207	-0.355
-451.953	-200.000	-0.007	0.134
-450.938	25.957	0.079	-0.065
-449.924	69.490	-0.058	-0.059
-448.909	33.179	-0.087	0.074
-447.895	678.422	0.052	-0.133
-446.880	373.264	0.115	-0.231
-445.865	-200.000	0.013	0.134
-444.851	-17.871	0.100	-0.062
-443.836	-200.000	0.022	-0.221
-442.822	276.037	-0.077	0.135
-441.807	115.758	0.030	0.037
-440.792	-200.000	-0.015	0.073
-439.778	237.018	-0.015	0.024
-438.763	-200.000	-0.019	-0.272
-437.749	-111.456	0.246	0.049
-436.734	128.283	-0.257	-0.323
-435.719	-108.965	0.223	-0.047
-434.705	13.137	-0.328	-0.251
-433.690	312.999	-0.056	0.103
-432.676	-95.919	-0.145	-0.038
-431.661	-200.000	-0.049	-0.301
-430.646	-55.360	-0.275	0.122
-429.632	800.000	-0.100	0.300
-428.617	75.601	-0.286	-0.299
-427.603	-200.000	-0.003	0.145
-426.588	-84.669	-0.275	-0.086
-425.573	800.000	0.044	0.132
-424.559	750.069	0.056	0.150
-423.544	-200.000	-0.022	-0.160
-422.530	-200.000	0.015	0.100
-421.515	44.610	0.146	-0.133
-420.500	64.933	0.057	0.057
-419.486	-200.000	0.011	-0.128
-418.471	-200.000	-0.006	0.579
-417.457	-145.083	0.334	0.030
-416.442	425.177	0.152	-0.322
-415.428	-129.993	-0.538	-0.073
-414.413	224.992	-0.114	-0.182
-413.398	553.684	-0.021	-0.049
-412.384	232.666	0.159	-0.258
-411.369	-74.399	-0.324	0.116
-410.355	173.735	0.180	-0.257
-409.340	84.572	0.071	0.077
-408.325	88.815	0.099	-0.109
-407.311	800.000	-0.034	0.110
-406.296	28.602	-0.147	0.123
-405.282	-200.000	-0.005	-0.048
-404.267	-200.000	-0.014	-0.070
-403.252	-19.790	0.003	-0.002
-402.238	800.000	0.125	-0.399
-401.223	0.512	-0.343	-0.242
-400.209	14.057	0.199	0.153
-399.194	-200.000	-0.033	-0.330
-398.179	492.012	-0.112	0.254
-397.165	-151.899	-0.239	-0.017
-396.150	17.557	0.159	-0.124
-395.136	406.427	0.060	0.125
-394.121	-200.000	0.002	0.086
-393.106	-161.398	0.097	0.005
-392.092	95.874	0.130	-0.147
-391.077	-200.000	0.035	-0.173
-390.063	502.124	-0.013	0.030
-389.048	-200.000	0.024	0.154
-388.033	16.049	0.061	0.048
-387.019	-169.016	0.035	-0.001
-386.004	262.197	-0.055	-0.093
-384.990	-200.000	-0.039	0.212
-383.975	800.000	-0.032	0.119
-382.960	-45.276	-0.280	-0.137
-381.946	-200.000	0.034	0.152
-380.931	142.303	0.096	0.126
-379.917	117.929	-0.163	0.198
-378.902	331.705	-0.123	-0.234
-377.888	800.000	-0.063	-0.253
-376.873	800.000	0.041	-0.153
-375.858	225.128	0.072	-0.115
-374.844	-200.000	-0.085	0.519
-373.829	-95.271	-0.375	0.100
-372.815	-200.000	0.005	0.586
-371.800	572.492	-0.174	0.419
-370.785	-15.680	-0.103	-0.065
-369.771	-167.343	0.292	0.012
-368.756	-0.830	0.188	-0.131
-367.742	-37.518	-0.345	0.182
-366.727	-125.036	0.087	-0.013
-365.712	-123.417	0.110	-0.017
-364.698	-145.013	0.375	0.034
-363.683	424.473	0.165	-0.350
-362.669	-91.947	0.224	-0.063
-361.654	96.857	-0.217	-0.245
-360.639	-55.290	-0.282	-0.125
-359.625	-200.000	0.004	-0.065
-358.610	-110.037	0.040	0.008
-357.596	-113.313	0.261	-0.051
-356.581	-200.000	0.009	-0.076
-355.566	-14.856	-0.082	-0.052
-354.552	44.279	0.280	0.253
-353.537	-70.830	0.104	-0.039
-352.523	17.205	-0.094	0.073
-351.508	800.000	0.041	0.113
-350.493	800.000	-0.057	0.186
-349.479	-86.446	0.160	-0.048
-348.464	298.328	0.054	0.099
-347.450	-43.692	-0.161	-0.080
-346.435	143.526	0.089	-0.117
-345.420	21.289	-0.179	-0.143
-344.406	-200.000	0.032	0.201
-343.391	379.744	-0.063	0.127
-342.377	-107.455	0.064	-0.014
-341.362	7.540	-0.202	0.149
-340.348	403.746	0.135	-0.281
-339.333	-7.164	0.288	-0.193
-338.318	124.022	-0.264	-0.327
-337.304	122.856	0.099	0.123
-336.289	-200.000	-0.017	0.165
-335.275	35.754	-0.047	0.041
-334.260	413.716	0.112	-0.235
-333.245	153.534	0.223	0.301
-332.231	-171.768	0.231	0.007
-331.216	114.108	0.124	0.149
-330.202	22.784	0.243	0.196
-329.187	-54.643	-0.129	-0.058
-328.172	-200.000	0.041	-0.200
-327.158	-179.051	0.202	0.004
-326.143	8.930	0.267	-0.198
-325.129	-31.306	0.133	0.074
-324.114	34.236	-0.071	0.061
-323.099	-91.848	0.057	0.016
-322.085	-58.895	-0.179	0.076
-321.070	-63.983	0.180	-0.072
-320.056	800.000	-0.133	-0.363
-319.041	284.372	-0.117	-0.207
-318.026	-37.459	0.129	0.068
-317.012	28.450	-0.261	0.217
-315.997	10.384	-0.127	0.095
-314.983	-3.026	0.104	0.071
-313.968	-47.272	-0.296	0.142
-312.953	45.256	-0.023	-0.021
-311.939	247.833	0.127	-0.212
-310.924	-160.351	-0.137	-0.007
-309.910	61.902	0.138	0.136
-308.895	-200.000	-0.066	0.378
-307.880	800.000	-0.061	-0.229
-306.866	-25.698	0.252	-0.146
-305.851	-78.083	0.094	-0.032
-304.837	347.111	-0.108	0.209
-303.822	-114.499	-0.171	0.032
-302.807	262.900	0.152	-0.260
-301.793	-1.694	-0.226	0.157
-300.778	520.948	0.153	0.353
-299.764	-200.000	-0.035	0.260
-298.749	84.121	-0.053	-0.057
-297.735	-8.993	-0.423	0.278
-296.720	403.831	0.238	-0.493
-295.705	128.857	0.187	-0.235
-294.691	-200.000	-0.011	-0.367
-293.676	-200.000	-0.043	0.223
-292.662	-10.477	0.208	-0.136
-291.647	313.817	-0.100	-0.185
-290.632	-81.638	-0.077	-0.025
-289.618	-200.000	-0.022	0.105
-288.603	-76.222	-0.032	-0.011
-287.589	800.000	-0.057	0.184
-286.574	534.718	0.040	0.092
-285.559	31.856	-0.106	0.090
-284.545	-23.063	0.085	0.050
-283.530	-200.000	0.037	-0.434
-282.516	-13.699	-0.127	-0.081
-281.501	84.500	-0.295	0.317
-280.486	-185.541	-0.267	-0.004
-279.472	-200.000	0.027	-0.222
-278.457	-106.835	0.386	-0.084
-277.443	-45.917	-0.374	-0.181
-276.428	-200.000	0.055	-0.466
-275.413	533.334	0.059	0.136
-274.399	-200.000	-0.002	-0.050
-273.384	216.569	0.019	0.029
-272.370	-68.067	-0.213	0.082
-271.355	63.544	0.120	0.118
-270.340	-108.128	-0.107	0.023
-269.326	-173.544	0.214	-0.006
-268.311	800.000	0.027	0.115
-267.297	287.633	0.085	-0.151
-266.282	800.000	-0.034	-0.108
-265.267	45.200	0.153	0.138
-264.253	-200.000	0.006	-0.055
-263.238	-144.027	-0.432	0.040
-262.224	74.480	0.100	-0.104
-261.209	-13.127	-0.171	0.109
-260.195	-200.000	-0.063	0.381
-259.180	-69.155	0.150	0.057
-258.165	-134.612	0.218	0.026
-257.151	-101.710	-0.096	0.023
-256.136	-110.780	0.054	-0.011
-255.122	22.756	-0.138	-0.111
-254.107	157.828	-0.168	-0.228
-253.092	-20.251	0.236	0.143
-252.078	800.000	0.063	-0.263
-251.063	19.747	0.159	0.126
-250.049	159.433	0.223	-0.305
-249.034	-200.000	0.023	0.152
-248.019	-139.178	0.143	0.015
-247.005	-17.886	0.209	0.129
-245.990	52.537	0.073	0.068
-244.976	-79.166	-0.034	0.011
-243.961	86.782	-0.224	0.243
-242.946	21.739	-0.131	0.104
-241.932	38.963	-0.054	-0.048
-240.917	-200.000	-0.051	-0.253
-239.903	119.777	0.039	0.047
-238.888	258.479	0.062	0.104
-237.873	-97.975	0.328	-0.083
-236.859	22.188	-0.294	-0.235
-235.844	-102.384	0.338	-0.079
-234.830	437.682	-0.010	-0.020
-233.815	398.347	0.039	-0.081
-232.800	779.743	-0.094	-0.253
-231.786	-49.537	-0.071	-0.033
-230.771	40.997	0.116	0.103
-229.757	800.000	0.196	0.607
-228.742	-200.000	0.012	-0.085
-227.727	82.436	0.131	-0.139
-226.713	-200.000	0.018	-0.106
-225.698	-16.300	-0.309	0.192
-224.684	800.000	-0.058	0.160
-223.669	253.767	-0.142	-0.238
-222.655	-76.687	0.534	-0.184
-221.640	452.807	0.037	0.080
-220.625	-200.000	-0.017	-0.207
-219.611	439.859	0.111	0.238
-218.596	-76.910	0.154	-0.053
-217.582	132.258	-0.186	0.235
-216.567	-83.487	0.342	0.107
-215.552	-200.000	-0.041	0.298
-214.538	73.511	0.184	0.189
-213.523	-180.974	-0.225	-0.004
-212.509	-126.104	-0.361	-0.053
-211.494	-141.474	-0.088	-0.009
-210.479	124.189	0.191	0.235
-209.465	241.950	0.162	0.266
-208.450	-14.890	-0.222	-0.140
-207.436	202.547	0.151	0.228
-206.421	800.000	-0.136	0.375
-205.406	382.361	-0.103	-0.208
-204.392	145.602	0.076	-0.100
-203.377	-95.761	0.354	0.093
-202.363	-50.598	-0.277	0.128
-201.348	800.000	0.059	-0.189
-200.333	-129.113	-0.052	0.007
-199.319	54.711	0.075	0.071
-198.304	508.778	-0.096	0.219
-197.290	-52.250	0.297	0.135
-196.275	-200.000	0.026	0.153
-195.260	-200.000	0.046	-0.433
-194.246	-7.850	0.155	0.103
-193.231	47.314	-0.081	0.074
-192.217	-120.844	0.293	-0.048
-191.202	658.745	0.085	0.214
-190.187	295.035	-0.051	-0.091
-189.173	283.892	0.038	-0.068
-188.158	-200.000	0.020	-0.381
-187.144	558.397	-0.119	0.280
-186.129	-43.095	0.189	-0.094
-185.114	79.929	0.168	0.177
-184.100	-143.471	0.248	-0.023
-183.085	115.258	-0.239	0.285
-182.071	131.804	0.169	0.213
-181.056	800.000	-0.033	0.097
-180.042	-46.994	-0.164	0.079
-179.027	800.000	0.127	0.369
-178.012	800.000	-0.024	0.068
-176.998	498.536	0.081	-0.183
-175.983	527.082	-0.045	0.104
-174.969	30.144	0.105	-0.088
-173.954	800.000	0.034	0.142
-172.939	-171.334	-0.127	0.004
-171.925	-62.354	0.372	0.151
-170.910	184.930	0.293	-0.425
-169.896	-200.000	0.082	0.369
-168.881	416.123	0.077	0.161
-167.866	-14.163	-0.180	-0.114
-166.852	17.326	-0.151	0.118
-165.837	293.827	-0.072	-0.128
-164.823	104.830	-0.062	-0.071
-163.808	-32.225	-0.057	-0.031
-162.793	800.000	0.111	0.367
-161.779	158.615	0.180	0.244
-160.764	70.942	-0.156	0.158
-159.750	-76.536	-0.203	0.070
-158.735	-200.000	0.028	-0.340
-157.720	175.247	-0.202	-0.286
-156.706	-89.276	-0.192	-0.055
-155.691	28.074	-0.320	0.264
-154.677	-200.000	0.013	0.084
-153.662	100.080	0.276	0.313
-152.647	-114.075	0.157	0.030
-151.633	-157.032	-0.436	-0.026
-150.618	800.000	-0.104	0.364
-149.604	-200.000	0.008	0.074
-148.589	153.769	0.237	0.318
-147.574	69.525	-0.071	-0.071
-146.560	194.779	-0.072	0.106
-145.545	25.145	-0.060	-0.049
-144.531	-112.574	-0.159	-0.031
-143.516	362.454	-0.094	-0.185
-142.502	83.463	0.184	0.197
-141.487	-2.416	0.224	-0.154
-140.472	195.405	0.149	0.221
-139.458	800.000	0.051	0.158
-138.443	-84.382	0.133	-0.041
-137.429	-159.327	0.362	-0.020
-136.414	325.272	-0.165	0.308
-135.399	22.877	0.210	0.169
-134.385	-195.311	0.144	0.001
-133.370	161.752	0.119	0.163
-132.356	-1.598	0.346	-0.238
-131.341	65.782	-0.014	0.014
-130.326	133.427	-0.070	0.088
-129.312	-16.454	-0.113	-0.070
-128.297	-30.142	0.236	-0.131
-127.283	10.008	-0.398	0.295
-126.268	-116.178	0.122	-0.022
-125.253	-71.665	0.332	-0.121
-124.239	-200.000	0.042	-0.263
-123.224	160.565	-0.170	0.232
-122.210	58.662	0.112	0.108
-121.195	-200.000	-0.003	-0.069
-120.180	800.000	0.033	0.101
-119.166	3.421	-0.230	-0.163
-118.151	5.011	-0.203	-0.146
-117.137	-21.133	-0.088	-0.053
-116.122	-200.000	-0.028	-0.202
-115.107	-48.365	0.352	0.166
-114.093	156.641	0.112	0.152
-113.078	-200.000	-0.022	0.212
-112.064	69.661	-0.243	-0.244
-111.049	-200.000	-0.021	-0.374
-110.034	-60.480	-0.105	-0.043
-109.020	-59.459	-0.228	-0.095
-108.005	103.165	0.076	-0.087
-106.991	-200.000	-0.017	-0.106
-105.976	274.261	0.040	-0.069
-104.962	172.358	-0.092	-0.129
-103.947	147.124	0.116	-0.152
-102.932	-62.741	-0.142	0.057
-101.918	115.179	0.141	0.168
-100.903	-72.228	-0.140	0.051
-99.889	206.020	-0.089	-0.135
-98.874	632.446	-0.045	0.111
-97.859	-44.679	0.214	0.104
-96.845	-15.688	0.148	0.092
-95.830	-129.324	-0.235	0.032
-94.816	-127.008	0.028	-0.004
-93.801	67.555	0.074	0.074
-92.786	-57.189	0.113	-0.049
-91.772	-80.266	0.339	-0.111
-90.757	800.000	0.046	0.147
-89.743	390.086	-0.176	0.356
-88.728	273.838	0.104	0.179
-87.713	330.004	0.087	0.163
-86.699	49.486	0.154	-0.141
-85.684	567.285	0.208	0.493
-84.670	82.575	0.047	0.050
-83.655	-87.436	0.188	-0.055
-82.640	-73.643	-0.137	0.049
-81.626	294.054	0.050	-0.088
-80.611	-200.000	-0.009	0.169
-79.597	202.006	-0.142	0.214
-78.582	367.085	0.129	-0.254
-77.567	-69.251	0.221	0.083
-76.553	-200.000	0.044	-0.206
-75.538	-116.725	-0.223	0.040
-74.524	37.821	0.301	-0.261
-73.509	800.000	-0.036	0.114
-72.494	-100.362	-0.273	-0.066
-71.480	800.000	0.066	0.183
-70.465	33.503	-0.276	-0.233
-69.451	800.000	0.099	-0.270
-68.436	-69.964	-0.208	-0.077
-67.422	-7.203	0.062	-0.041
-66.407	-87.571	0.189	-0.056
-65.392	-11.202	-0.332	-0.213
-64.378	-102.483	0.254	-0.059
-63.363	63.215	-0.387	0.378
-62.349	-89.935	-0.272	0.077
-61.334	66.185	-0.870	-0.861
-60.319	67.252	0.646	0.642
-59.305	800.000	-0.572	-1.628
-58.290	287.236	0.625	1.101
-57.276	534.854	0.687	1.587
-56.261	-200.000	126.968	673.408
-55.246	418.352	1593.987	3319.825
-54.232	140.528	2747.787	3534.228
-53.217	95.310	2177.584	2417.337
-52.203	33.477	1694.631	1433.759
-51.188	25.959	1512.964	1228.984
-50.173	24.248	1488.568	1197.637
-49.159	48.813	1561.139	1426.492
-48.144	45.713	1573.705	1416.528
-47.130	26.071	1522.511	1237.315
-46.115	23.333	1505.936	1205.195
-45.100	23.006	1502.720	1200.354
-44.086	23.007	1500.734	1198.724
-43.071	23.015	1498.875	1197.245
-42.057	22.972	1497.423	1195.751
-41.042	22.928	1496.208	1194.436
-40.027	23.009	1494.006	1193.178
-39.013	22.960	1492.552	1191.640
-37.998	22.966	1491.951	1191.154
-36.984	23.009	1490.466	1190.206
-35.969	22.948	1489.229	1188.764
-34.954	23.007	1487.373	1187.632
-33.940	22.922	1486.360	1186.205
-32.925	23.050	1484.964	1185.901
-31.911	23.027	1483.880	1184.837
-30.896	22.945	1482.854	1183.418
-29.881	23.054	1480.942	1182.576
-28.867	23.088	1479.898	1181.922
-27.852	23.112	1478.275	1180.740
-26.838	23.035	1477.281	1179.386
-25.823	23.003	1475.824	1177.958
-24.809	22.994	1473.828	1176.258
-23.794	23.062	1472.712	1175.778
-22.779	23.021	1471.809	1174.735
-21.765	23.007	1470.861	1173.843
-20.750	22.925	1469.943	1172.513
-19.736	22.994	1468.351	1171.660
-18.721	23.058	1466.595	1170.630
-17.706	22.978	1466.157	1169.706
-16.692	23.021	1465.061	1169.071
-15.677	22.969	1464.137	1167.944
-14.663	23.015	1462.992	1167.285
-13.648	23.009	1462.216	1166.583
-12.633	22.946	1461.434	1165.499
-11.619	23.036	1460.454	1165.262
-10.604	23.042	1459.512	1164.504
-9.590	23.049	1458.230	1163.482
-8.575	22.970	1457.693	1162.486
-7.560	23.010	1456.731	1161.936
-6.546	23.011	1456.102	1161.398
-5.531	22.988	1455.340	1160.587
-4.517	22.961	1454.020	1159.312
-3.502	22.990	1453.182	1158.789
-2.487	22.969	1452.109	1157.749
-1.473	22.933	1451.616	1157.077
-0.458	23.012	1449.508	1155.866
0.556	21.142	1439.793	1143.925
1.571	18.048	1416.398	1105.260
2.586	14.659	1354.987	1036.242
3.600	13.084	1272.415	963.819
4.615	12.282	1228.433	925.904
5.629	10.538	1172.117	873.985
6.644	5.251	1091.414	787.152
7.659	0.732	1056.646	739.927
8.673	0.240	1051.175	733.634
9.688	0.168	1047.827	730.880
10.702	0.211	1046.377	730.013
11.717	0.031	1044.272	727.612
12.731	1.684	1044.861	735.952
13.746	7.766	1053.099	771.254
14.761	14.020	1061.224	807.616
15.775	16.539	1064.002	821.917
16.790	16.365	1062.561	819.886
17.804	15.406	1060.418	813.512
18.819	14.472	1058.709	807.607
19.834	14.161	1057.252	804.922
20.848	13.771	1056.615	802.480
21.863	13.626	1055.516	800.870
22.877	13.432	1054.918	799.411
23.892	13.132	1054.025	797.216
24.907	13.036	1053.162	796.031
25.921	13.175	1052.535	796.156
26.936	13.053	1052.194	795.240
27.950	13.082	1051.337	794.661
28.965	13.143	1050.613	794.335
29.980	13.178	1049.667	793.718
30.994	13.411	1048.107	793.584
32.009	13.388	1047.221	792.733
33.023	13.231	1047.061	791.790
34.038	13.322	1046.072	791.408
35.053	13.240	1045.651	790.628
36.067	13.393	1044.179	790.173
37.082	13.251	1043.272	788.740
38.096	13.329	1042.705	788.616
39.111	13.245	1042.352	787.878
40.126	13.399	1040.847	787.402
41.140	13.275	1039.963	786.077
42.155	13.323	1038.838	785.385
43.169	13.154	1037.932	783.830
44.184	13.085	1036.960	782.696
45.199	13.008	1036.273	781.745
46.213	13.158	1035.147	781.536
47.228	13.208	1033.882	780.747
48.242	13.081	1033.408	779.720
49.257	13.209	1032.034	779.217
50.271	13.225	1031.072	778.500
51.286	13.283	1030.348	778.157
52.301	13.199	1029.710	777.211
53.315	13.163	1028.723	776.229
54.330	13.193	1028.042	775.786
55.344	13.143	1027.052	774.736
56.359	13.239	1026.064	774.372
57.374	13.242	1025.157	773.635
58.388	13.139	1024.401	772.514
59.403	13.152	1023.419	771.766
60.417	13.117	1022.838	771.093
61.432	13.062	1021.970	770.115
62.447	13.058	1021.073	769.353
63.461	13.150	1020.369	769.183
64.476	12.943	1019.673	767.627
65.490	13.033	1018.649	767.208
66.505	13.005	1017.908	766.448
67.520	13.134	1017.057	766.338
68.534	12.970	1016.689	765.235
69.549	13.262	1015.493	765.619
70.563	13.037	1015.247	764.323
71.578	13.128	1014.407	764.044
72.593	13.121	1013.565	763.311
73.607	13.076	1012.258	762.050
74.622	13.013	1011.582	761.182
75.636	13.129	1010.460	760.808
76.651	13.062	1009.473	759.689
77.666	12.966	1009.260	759.017
78.680	13.036	1008.164	758.450
79.695	13.083	1007.639	758.202
80.709	13.083	1007.122	757.747
81.724	13.109	1006.404	757.258
82.739	13.197	1005.639	757.020
83.753	13.153	1004.679	756.030
84.768	13.300	1004.228	756.294
85.782	13.263	1003.030	755.157
86.797	13.400	1002.169	755.065
87.812	13.266	1001.543	753.916
88.826	13.193	1000.881	753.018
89.841	13.229	999.981	752.440
90.855	13.348	999.021	752.191
91.870	13.271	998.811	751.616
92.884	13.266	997.850	750.803
93.899	13.318	997.468	750.688
94.914	13.445	996.198	750.240
95.928	13.452	995.927	750.002
96.943	13.377	995.499	749.272
97.957	13.363	994.300	748.241
98.972	13.217	993.907	747.218
99.987	13.289	993.187	746.936
101.001	13.305	992.266	746.249
102.016	13.322	991.392	745.603
103.030	13.337	990.528	744.954
104.045	13.403	989.374	744.320
105.060	13.355	988.467	743.353
106.074	13.341	987.599	742.574
107.089	13.351	986.729	741.899
108.103	13.261	986.113	740.968
109.118	13.258	984.877	739.958
110.133	13.183	984.440	739.228
111.147	13.249	983.632	738.854
112.162	13.192	982.656	737.800
113.176	13.265	981.667	737.319
114.191	13.202	981.059	736.515
115.206	13.182	979.879	735.476
116.220	13.296	978.835	735.133
117.235	13.289	978.158	734.530
118.249	13.339	977.265	734.016
119.264	13.364	976.212	733.267
120.279	13.177	975.721	732.005
121.293	13.315	974.884	731.926
122.308	13.153	974.246	730.663
123.322	13.083	973.713	729.889
124.337	13.258	972.288	729.531
125.352	13.196	971.072	728.283
126.366	13.260	970.361	727.965
127.381	13.215	969.273	726.887
128.395	13.179	968.058	725.753
129.410	13.159	967.195	724.955
130.424	13.223	966.158	724.391
131.439	13.230	965.114	723.577
132.454	13.200	964.414	722.855
133.468	13.191	964.097	722.517
134.483	13.239	963.099	721.912
135.497	13.244	962.404	721.351
136.512	13.188	961.909	720.673
137.527	13.366	960.894	720.621
138.541	13.242	960.013	719.357
139.556	13.130	959.807	718.655
140.570	13.209	959.286	718.544
141.585	13.425	957.928	718.399
142.600	13.333	957.469	717.592
143.614	13.345	956.556	716.897
144.629	13.535	956.035	717.267
145.643	13.454	955.336	716.330
146.658	13.506	954.290	715.704
147.673	13.422	953.585	714.748
148.687	13.450	952.686	714.135
149.702	13.484	951.925	713.646
150.716	13.415	950.885	712.505
151.731	13.440	950.113	711.973
152.746	13.532	949.001	711.471
153.760	13.425	948.704	710.727
154.775	13.339	948.148	709.879
155.789	13.441	947.131	709.494
156.804	13.514	946.416	709.206
157.819	13.472	945.551	708.315
158.833	13.529	944.944	708.042
159.848	13.631	944.544	708.115
160.862	13.576	943.794	707.254
161.877	13.579	942.973	706.591
162.892	13.620	942.142	706.080
163.906	13.522	941.299	704.970
164.921	13.528	940.483	704.321
165.935	13.548	939.632	703.704
166.950	13.474	938.416	702.420
167.964	13.477	937.614	701.771
168.979	13.512	936.730	701.193
169.994	13.412	936.317	700.398
171.008	13.646	934.505	699.971
172.023	13.598	934.354	699.594
173.037	13.580	933.547	698.852
174.052	13.550	932.758	698.072
175.067	13.627	931.795	697.613
176.081	13.681	931.116	697.270
177.096	13.661	930.222	696.457
178.110	13.673	929.267	695.730
179.125	13.669	928.713	695.235
180.140	13.675	928.205	694.818
181.154	13.754	927.105	694.264
182.169	13.573	926.697	693.141
183.183	13.694	926.600	693.511
184.198	13.674	925.800	692.768
185.213	13.677	924.949	692.082
186.227	13.775	924.391	692.014
187.242	13.879	924.111	692.178
188.256	13.807	922.999	690.982
189.271	13.916	922.300	690.851
190.286	13.803	921.682	689.856
191.300	13.772	920.665	688.905
192.315	13.657	920.080	687.931
193.329	13.779	919.402	687.867
194.344	13.633	918.744	686.713
195.359	13.663	918.053	686.260
196.373	13.787	917.551	686.334
197.388	13.856	917.177	686.277
198.402	14.017	916.191	686.146
199.417	14.092	915.887	686.169
200.432	14.104	915.092	685.561
201.446	14.031	915.524	685.520
202.461	14.010	915.139	685.087
203.475	14.104	914.107	684.642
204.490	14.123	913.622	684.295
205.504	14.089	912.735	683.428
206.519	14.142	912.038	683.066
207.534	14.117	910.871	682.029
208.548	13.976	910.453	681.078
209.563	14.104	909.419	680.767
210.577	14.189	909.157	680.857
211.592	14.123	908.501	680.039
212.607	14.118	908.163	679.703
213.621	14.237	907.374	679.540
214.636	14.365	906.122	679.061
215.650	14.266	905.585	678.198
216.665	14.191	905.570	677.821
217.680	14.273	904.520	677.309
218.694	14.175	904.312	676.695
219.709	14.344	903.615	676.798
220.723	14.446	902.904	676.622
221.738	14.381	902.418	675.933
222.753	14.385	901.653	675.315
223.767	14.258	900.928	674.199
224.782	14.396	899.986	673.992
225.796	14.377	899.480	673.477
226.811	14.484	898.820	673.356
227.826	14.405	898.136	672.467
228.840	14.419	897.636	672.088
229.855	14.371	897.006	671.364
230.869	14.536	896.096	671.287
231.884	14.421	895.818	670.558
232.899	14.409	894.742	669.645
233.913	14.416	894.197	669.203
234.928	14.433	893.446	668.650
235.942	14.497	892.489	668.132
236.957	14.443	891.893	667.410
237.972	14.375	891.313	666.647
238.986	14.500	890.634	666.581
240.001	14.456	889.890	665.789
241.015	14.493	889.442	665.540
242.030	14.360	888.727	664.418
243.045	14.482	888.176	664.433
244.059	14.586	887.473	664.261
245.074	14.503	887.096	663.591
246.088	14.570	886.453	663.316
247.103	14.448	886.107	662.514
248.117	14.712	885.004	662.679
249.132	14.581	884.927	662.045
250.147	14.659	884.038	661.628
251.161	14.702	883.550	661.374
252.176	14.787	883.242	661.422
253.190	14.933	882.253	661.201
254.205	14.961	881.579	660.749
255.220	14.908	880.885	659.959
256.234	14.909	880.216	659.402
257.249	14.895	879.622	658.845
258.263	15.015	879.076	658.850
259.278	15.017	878.315	658.232
260.293	14.868	878.300	657.575
261.307	14.941	877.395	657.127
262.322	15.071	876.596	656.979
263.336	15.021	876.269	656.479
264.351	15.103	875.592	656.236
265.366	15.195	874.707	655.876
266.380	15.137	874.280	655.269
267.395	15.227	873.241	654.783
268.409	15.136	873.114	654.277
269.424	15.145	872.175	653.549
270.439	15.192	871.322	653.034
271.453	15.184	870.355	652.221
272.468	15.142	870.216	651.895
273.482	15.075	869.512	651.052
274.497	15.184	868.944	650.990
275.512	15.142	868.170	650.193
276.526	15.162	867.396	649.631
277.541	15.277	866.595	649.420
278.555	15.092	866.463	648.548
279.570	15.258	865.620	648.500
280.585	15.274	865.249	648.227
281.599	15.461	864.586	648.394
282.614	15.341	863.973	647.415
283.628	15.359	863.074	646.754
284.643	15.372	862.636	646.420
285.657	15.364	862.392	646.148
286.672	15.327	861.966	645.630
287.687	15.446	861.351	645.569
288.701	15.459	860.810	645.157
289.716	15.553	860.132	644.953
290.730	15.410	859.523	643.891
291.745	15.257	859.171	642.981
292.760	15.457	858.073	642.871
293.774	15.486	857.454	642.461
294.789	15.622	857.095	642.656
295.803	15.507	856.482	641.700
296.818	15.577	855.756	641.363
297.833	15.578	854.835	640.623
298.847	15.526	854.405	640.043
299.862	15.601	853.901	639.895
300.876	15.486	853.318	638.965
301.891	15.619	852.568	638.851
302.906	15.579	851.812	638.076
303.920	15.760	851.319	638.339
304.935	15.736	850.561	637.622
305.949	15.757	850.083	637.286
306.964	15.803	849.331	636.841
307.979	15.663	849.066	636.056
308.993	15.719	848.918	636.102
310.008	15.722	847.825	635.237
311.022	15.745	847.375	634.931
312.037	15.746	846.909	634.528
313.052	15.761	846.733	634.399
314.066	15.878	845.716	634.020
315.081	15.844	845.052	633.340
316.095	15.836	844.699	632.987
317.110	15.759	843.943	632.076
318.125	15.729	843.337	631.454
319.139	15.840	843.055	631.604
320.154	15.929	842.356	631.357
321.168	15.862	842.079	630.845
322.183	15.904	841.253	630.324
323.197	15.859	840.810	629.769
324.212	15.858	840.293	629.321
325.227	16.055	839.629	629.504
326.241	15.904	839.291	628.632
327.256	15.964	838.507	628.213
328.270	15.906	838.047	627.597
329.285	15.966	837.337	627.235
330.300	15.914	837.007	626.738
331.314	16.011	836.072	626.341
332.329	16.009	835.792	626.070
333.343	16.030	835.079	625.560
334.358	15.983	834.622	624.986
335.373	16.056	834.168	624.861
336.387	16.007	833.426	624.068
337.402	16.013	833.270	623.919
338.416	16.184	832.197	623.691
339.431	16.190	831.993	623.505
340.446	16.295	831.115	623.180
341.460	16.332	830.711	622.958
342.475	16.232	830.048	622.040
343.489	16.355	829.568	622.078
344.504	16.362	829.147	621.734
345.519	16.347	828.521	621.152
346.533	16.434	827.833	620.900
347.548	16.344	827.385	620.179
348.562	16.291	827.133	619.743
349.577	16.451	826.178	619.559
350.592	16.337	825.689	618.717
351.606	16.316	825.840	618.701
352.621	16.341	824.963	618.079
353.635	16.391	824.691	618.004
354.650	16.256	824.374	617.219
355.665	16.363	823.758	617.092
356.679	16.313	823.630	616.759
357.694	16.362	823.014	616.424
358.708	16.356	822.355	615.853
359.723	16.456	821.544	615.555
360.738	16.520	820.795	615.172
361.752	16.536	820.497	614.951
362.767	16.547	820.130	614.663
363.781	16.522	819.665	614.172
364.796	16.589	819.383	614.148
365.810	16.548	819.102	613.734
366.825	16.636	818.391	613.467
367.840	16.570	818.193	613.025
368.854	16.716	817.419	612.918
369.869	16.776	817.062	612.813
370.883	16.720	816.389	612.054
371.898	16.611	816.390	611.607
372.913	16.671	815.738	611.279
373.927	16.798	814.855	611.021
374.942	16.639	814.194	609.900
375.956	16.732	813.444	609.616
376.971	16.840	813.047	609.656
377.986	16.834	812.655	609.286
379.000	16.731	812.344	608.628
380.015	16.954	811.348	608.629
381.029	16.929	811.001	608.224
382.044	16.830	810.710	607.598
383.059	16.956	809.808	607.319
384.073	16.949	809.407	606.937
385.088	16.913	808.897	606.375
386.102	16.887	808.315	605.793
387.117	16.809	807.847	605.108
388.132	16.855	807.489	604.953
389.146	16.839	807.204	604.625
390.161	16.968	806.317	604.370
391.175	17.037	805.981	604.309
392.190	17.068	805.609	604.087
393.205	16.981	805.390	603.561
394.219	17.028	804.821	603.246
395.234	16.981	804.547	602.821
396.248	17.015	804.044	602.510
397.263	17.049	802.990	601.789
398.278	17.133	802.732	601.841
399.292	17.062	802.587	601.428
400.307	16.889	802.143	600.428
401.321	17.023	801.605	600.446
402.336	16.996	801.467	600.194
403.350	17.040	800.771	599.777
404.365	17.160	800.534	599.968
405.380	17.299	799.941	599.964
406.394	17.224	799.487	599.302
407.409	17.288	798.969	599.088
408.423	17.394	798.297	598.905
409.438	17.250	798.130	598.219
410.453	17.448	797.211	598.175
411.467	17.440	796.733	597.734
412.482	17.316	796.720	597.235
413.496	17.475	796.222	597.369
414.511	17.529	795.794	597.182
415.526	17.396	795.719	596.609
416.540	17.503	795.243	596.573
417.555	17.440	794.989	596.110
418.569	17.415	794.663	595.725
419.584	17.471	794.094	595.440
420.599	17.417	793.668	594.880
421.613	113.418	1298.214	1486.915
422.628	97.561	1371.687	1487.000
