DTS Sentinel unit serial number:	SN413079Multiplexer serial number:	ORYXHardware model number:	OX4-SRSoftware version number:	ORYX F/W v4.00 Oryx Data Collector v3.7.2.0data status	okinstallation	princeton_trtdifferential loss correction	single-endedforward channel	channel 3reverse channel	N/Adate	2019/09/15time	02:08:35forward acquisition time	60.00reverse acquisition time	0.00gamma	496.2192k internal	0.2321k external	0.2321temperature offset calibration	0.9966default loss term (dB/km)	0.3790temperature slope calibration	1.0000multiplexer offset coefficient	1.0000multiplexer slope coefficient	1.0000fibre end	0.00T internal ref (°C)	31.69T ext. ref 1 (°C)	4.55T ext. ref 2 (°C)	26.36length (m)	temperature (°C)	Stokes	anti-Stokes-747.200	800.000	-0.056	-0.184
-746.185	-200.000	0.027	-0.197
-745.171	40.160	0.195	-0.177
-744.156	-38.649	0.302	0.161
-743.142	-28.139	-0.354	0.207
-742.127	-39.531	-0.228	0.121
-741.112	25.147	-0.090	0.076
-740.098	-18.966	0.446	0.280
-739.083	193.474	-0.128	-0.196
-738.069	81.357	0.287	0.313
-737.054	73.668	-0.041	-0.043
-736.039	-138.352	-0.331	-0.037
-735.025	-19.159	0.262	-0.164
-734.010	-50.633	-0.069	-0.033
-732.996	-109.197	-0.239	-0.051
-731.981	-200.000	0.007	-0.165
-730.966	800.000	-0.141	-0.457
-729.952	569.278	-0.158	-0.387
-728.937	-57.419	-0.073	-0.032
-727.923	-138.235	-0.417	0.047
-726.908	-139.371	0.068	0.007
-725.894	-200.000	-0.007	-0.193
-724.879	800.000	-0.108	0.333
-723.864	529.665	0.091	0.217
-722.850	6.420	-0.159	-0.120
-721.835	195.143	-0.017	-0.027
-720.821	-56.511	0.135	-0.061
-719.806	-180.440	-0.221	0.005
-718.791	-200.000	0.013	0.138
-717.777	29.173	-0.258	-0.221
-716.762	204.548	-0.181	-0.283
-715.748	69.987	0.125	0.130
-714.733	-200.000	-0.017	-0.366
-713.718	7.177	-0.279	0.210
-712.704	-151.614	0.114	0.009
-711.689	-150.600	0.311	-0.024
-710.675	-200.000	-0.012	-0.135
-709.660	130.094	-0.092	0.119
-708.645	17.474	0.123	0.099
-707.631	-32.848	0.110	0.062
-706.616	-10.293	-0.309	-0.207
-705.602	152.274	0.243	-0.334
-704.587	-6.728	0.106	-0.073
-703.572	35.885	-0.085	0.076
-702.558	506.691	0.033	-0.078
-701.543	-138.816	-0.091	0.010
-700.529	330.609	0.040	-0.078
-699.514	-200.000	-0.017	-0.350
-698.499	54.160	-0.222	-0.215
-697.485	-3.399	0.261	-0.183
-696.470	-60.150	-0.272	0.117
-695.456	-200.000	0.005	0.329
-694.441	-111.561	-0.288	-0.059
-693.426	75.350	0.063	0.067
-692.412	-9.499	-0.087	0.059
-691.397	-69.038	-0.201	0.078
-690.383	800.000	-0.098	0.292
-689.368	208.162	-0.167	-0.262
-688.354	-82.047	-0.242	-0.080
-687.339	-200.000	0.015	0.133
-686.324	237.476	-0.049	-0.082
-685.310	182.039	-0.061	-0.091
-684.295	-200.000	-0.021	-0.224
-683.281	130.176	-0.217	-0.280
-682.266	-200.000	-0.014	0.134
-681.251	-141.040	0.108	0.011
-680.237	-22.452	0.243	0.148
-679.222	154.159	0.170	-0.235
-678.208	-63.011	0.201	0.084
-677.193	-200.000	-0.053	0.393
-676.178	-23.580	-0.326	-0.197
-675.164	-116.267	0.234	-0.044
-674.149	-200.000	0.004	0.145
-673.135	-113.088	-0.323	-0.064
-672.120	24.769	0.081	-0.067
-671.105	571.582	-0.054	0.132
-670.091	90.051	-0.148	-0.167
-669.076	14.032	-0.207	-0.163
-668.062	-200.000	-0.013	-0.068
-667.047	135.590	0.163	0.214
-666.032	800.000	0.024	0.073
-665.018	-200.000	-0.022	0.543
-664.003	-167.767	-0.181	-0.007
-662.989	120.024	-0.112	-0.140
-661.974	540.608	-0.070	0.169
-660.959	-70.499	0.061	0.023
-659.945	800.000	0.112	-0.323
-658.930	-139.771	0.077	0.008
-657.916	171.223	0.082	0.118
-656.901	56.241	-0.076	-0.075
-655.886	48.590	-0.209	-0.197
-654.872	800.000	0.049	-0.191
-653.857	-200.000	-0.033	0.311
-652.843	-200.000	-0.055	0.309
-651.828	779.191	-0.090	-0.248
-650.814	800.000	0.040	0.121
-649.799	-200.000	-0.045	0.221
-648.784	-96.800	-0.279	0.074
-647.770	172.539	0.075	0.109
-646.755	800.000	0.126	0.500
-645.741	-200.000	0.025	-0.183
-644.726	-200.000	-0.003	-0.027
-643.711	231.968	-0.176	-0.291
-642.697	-101.383	-0.329	-0.081
-641.682	-200.000	-0.098	0.434
-640.668	800.000	0.073	0.293
-639.653	494.284	-0.085	-0.197
-638.638	-127.745	0.279	-0.041
-637.624	800.000	0.113	0.456
-636.609	800.000	-0.132	0.376
-635.595	-57.963	-0.227	-0.100
-634.580	-200.000	-0.003	0.310
-633.565	-74.260	-0.166	-0.060
-632.551	800.000	0.094	-0.337
-631.536	342.639	0.046	-0.090
-630.522	800.000	0.038	-0.168
-629.507	292.045	-0.089	0.163
-628.492	-26.217	0.316	-0.187
-627.478	12.340	-0.090	-0.069
-626.463	-98.938	-0.092	-0.023
-625.449	800.000	0.087	0.272
-624.434	125.087	-0.155	-0.196
-623.419	-200.000	0.004	0.317
-622.405	-139.487	0.210	0.023
-621.390	484.612	0.158	-0.362
-620.376	-200.000	-0.035	-0.253
-619.361	-200.000	-0.002	0.273
-618.346	800.000	0.045	0.184
-617.332	107.292	-0.148	0.177
-616.317	-200.000	-0.044	-0.263
-615.303	159.656	-0.167	0.233
-614.288	316.164	0.051	0.097
-613.273	-1.077	-0.087	0.062
-612.259	95.217	0.214	0.245
-611.244	179.314	0.065	-0.096
-610.230	800.000	-0.043	0.163
-609.215	800.000	-0.094	-0.393
-608.201	-35.030	0.270	0.148
-607.186	134.872	0.133	-0.174
-606.171	-68.724	0.287	0.111
-605.157	-183.259	-0.163	0.003
-604.142	-114.708	0.346	-0.066
-603.128	177.713	0.116	0.170
-602.113	-155.961	0.112	0.007
-601.098	-22.424	0.241	0.146
-600.084	-25.984	-0.335	-0.198
-599.069	777.951	-0.136	-0.374
-598.055	-170.427	-0.258	0.009
-597.040	-77.506	0.090	0.031
-596.025	528.339	0.073	0.173
-595.011	387.993	0.090	-0.187
-593.996	-157.439	0.135	-0.008
-592.982	-200.000	-0.039	0.276
-591.967	-200.000	-0.023	0.142
-590.952	328.086	-0.032	-0.062
-589.938	-40.506	0.418	-0.218
-588.923	-57.685	0.263	-0.116
-587.909	122.836	0.137	0.172
-586.894	500.159	-0.053	0.122
-585.879	-200.000	0.004	-0.097
-584.865	-1.385	-0.164	0.116
-583.850	52.395	-0.117	0.112
-582.836	151.579	0.249	-0.340
-581.821	-122.331	-0.403	-0.066
-580.806	-72.042	-0.227	0.085
-579.792	-200.000	0.036	0.176
-578.777	-11.207	0.133	-0.088
-577.763	-200.000	-0.014	0.263
-576.748	-120.620	0.119	-0.020
-575.733	-134.784	-0.221	-0.027
-574.719	314.966	0.114	0.215
-573.704	-169.653	-0.086	0.003
-572.690	-200.000	0.060	0.297
-571.675	189.783	-0.133	0.200
-570.661	-90.560	-0.093	0.027
-569.646	-116.077	-0.412	0.077
-568.631	-1.079	-0.116	-0.083
-567.617	627.982	0.079	0.199
-566.602	-200.000	-0.041	-0.302
-565.588	-200.000	-0.005	-0.402
-564.573	75.203	0.170	0.180
-563.558	60.483	-0.300	0.298
-562.544	561.563	0.144	0.350
-561.529	800.000	0.010	0.034
-560.515	37.327	0.158	0.141
-559.500	48.993	-0.290	-0.273
-558.485	-56.076	0.132	-0.059
-557.471	-110.835	-0.300	0.062
-556.456	-200.000	0.006	0.288
-555.442	800.000	0.081	0.258
-554.427	82.846	-0.096	0.105
-553.412	-123.150	0.351	-0.056
-552.398	12.091	0.145	0.112
-551.383	120.514	-0.192	-0.239
-550.369	127.137	-0.169	-0.216
-549.354	103.259	-0.042	0.049
-548.339	237.681	-0.056	0.094
-547.325	163.563	-0.082	0.115
-546.310	221.197	0.037	-0.060
-545.296	-104.126	-0.176	0.041
-544.281	385.625	0.003	0.006
-543.266	299.889	0.035	-0.064
-542.252	-93.815	0.275	0.076
-541.237	800.000	0.055	0.220
-540.223	166.958	-0.075	0.106
-539.208	662.371	-0.052	0.135
-538.193	-80.306	-0.206	0.069
-537.179	800.000	-0.044	0.156
-536.164	-200.000	0.021	-0.104
-535.150	-200.000	0.001	-0.031
-534.135	-148.062	-0.071	-0.006
-533.121	-200.000	-0.019	0.259
-532.106	-124.744	0.084	0.013
-531.091	-85.091	-0.478	-0.150
-530.077	466.727	-0.164	0.369
-529.062	12.780	-0.421	-0.326
-528.048	-160.706	-0.129	0.007
-527.033	82.573	-0.041	0.044
-526.018	800.000	-0.028	-0.088
-525.004	800.000	-0.040	-0.147
-523.989	427.925	-0.033	0.071
-522.975	-73.732	-0.434	-0.158
-521.960	218.457	-0.026	-0.041
-520.945	-94.370	-0.216	-0.059
-519.931	92.436	0.002	-0.003
-518.916	-63.549	0.065	-0.027
-517.902	-184.200	0.111	0.002
-516.887	67.524	0.195	0.200
-515.872	-200.000	-0.071	0.408
-514.858	181.543	0.081	0.120
-513.843	456.494	0.127	-0.283
-512.829	93.938	0.183	-0.208
-511.814	10.499	-0.196	0.150
-510.799	-200.000	0.013	-0.151
-509.785	-200.000	0.054	-0.264
-508.770	736.150	-0.096	-0.258
-507.756	-200.000	0.038	0.187
-506.741	-200.000	0.031	0.146
-505.726	-200.000	0.021	-0.275
-504.712	768.654	0.069	-0.187
-503.697	-173.831	-0.207	0.006
-502.683	69.967	-0.072	-0.074
-501.668	-137.110	0.316	0.036
-500.653	504.001	-0.006	-0.013
-499.639	613.002	-0.108	0.271
-498.624	-82.233	0.316	0.103
-497.610	81.806	-0.163	-0.177
-496.595	-184.045	0.152	0.003
-495.581	-200.000	-0.021	-0.121
-494.566	-200.000	-0.230	0.001
-493.551	800.000	-0.054	0.197
-492.537	359.722	-0.101	0.203
-491.522	-45.767	0.221	-0.109
-490.508	-106.425	-0.023	0.005
-489.493	-200.000	0.012	-0.122
-488.478	-103.966	-0.007	0.002
-487.464	61.327	0.083	0.083
-486.449	293.817	-0.108	0.197
-485.435	-80.131	0.191	-0.064
-484.420	-168.640	-0.410	0.016
-483.405	-81.886	-0.080	-0.026
-482.391	800.000	-0.071	0.276
-481.376	152.176	0.291	0.398
-480.362	-200.000	0.011	-0.157
-479.347	800.000	-0.060	0.176
-478.332	-152.020	-0.252	-0.018
-477.318	-83.231	-0.362	-0.116
-476.303	-200.000	0.008	-0.095
-475.289	-2.431	0.091	0.064
-474.274	-14.472	0.279	0.180
-473.259	-80.412	0.163	0.054
-472.245	-200.000	-0.027	0.333
-471.230	800.000	-0.073	-0.228
-470.216	681.608	-0.094	-0.244
-469.201	267.694	0.117	-0.205
-468.186	-16.859	0.220	0.139
-467.172	666.331	-0.067	-0.172
-466.157	-67.606	-0.116	0.045
-465.143	2.684	-0.038	0.028
-464.128	-163.541	-0.369	-0.017
-463.113	194.666	-0.148	-0.224
-462.099	800.000	-0.058	-0.167
-461.084	-107.926	-0.244	-0.053
-460.070	-200.000	-0.015	-0.131
-459.055	94.913	-0.110	0.125
-458.040	-100.956	-0.291	0.072
-457.026	179.906	-0.008	0.012
-456.011	44.049	-0.159	0.145
-454.997	92.701	0.268	0.302
-453.982	20.798	0.228	0.185
-452.968	800.000	0.094	-0.308
-451.953	-130.881	-0.182	0.024
-450.938	-136.623	0.311	0.036
-449.924	800.000	-0.126	-0.359
-448.909	57.909	-0.209	0.204
-447.895	-115.301	0.418	-0.079
-446.880	43.290	0.221	-0.202
-445.865	-97.095	0.120	0.031
-444.851	67.424	-0.022	0.022
-443.836	225.271	0.035	-0.057
-442.822	43.122	-0.208	-0.189
-441.807	-200.000	0.036	-0.282
-440.792	-158.176	0.298	0.017
-439.778	126.059	-0.124	0.157
-438.763	-92.371	-0.515	0.145
-437.749	26.204	-0.254	0.212
-436.734	266.543	-0.162	0.282
-435.719	-115.862	0.175	-0.033
-434.705	52.767	-0.143	-0.137
-433.690	-19.660	0.357	0.220
-432.676	436.757	0.085	-0.184
-431.661	178.814	-0.194	0.282
-430.646	-44.883	0.250	-0.124
-429.632	-104.201	0.524	0.121
-428.617	800.000	0.043	0.139
-427.603	70.880	0.174	-0.180
-426.588	19.402	0.159	-0.127
-425.573	800.000	-0.063	0.190
-424.559	-137.836	0.182	0.020
-423.544	207.060	0.094	-0.147
-422.530	-51.503	-0.126	0.059
-421.515	223.354	0.013	0.021
-420.500	72.819	-0.184	-0.192
-419.486	183.248	-0.061	0.090
-418.471	-200.000	-0.001	-0.204
-417.457	-14.657	-0.277	-0.177
-416.442	526.615	0.067	0.157
-415.428	-56.488	-0.190	-0.084
-414.413	-200.000	-0.011	0.214
-413.398	800.000	-0.115	-0.392
-412.384	-85.216	0.240	-0.075
-411.369	-45.600	-0.257	0.127
-410.355	800.000	0.138	-0.421
-409.340	-62.523	0.191	0.079
-408.325	-10.993	-0.235	-0.155
-407.311	-200.000	-0.004	-0.285
-406.296	-112.427	0.112	-0.022
-405.282	-200.000	0.003	-0.093
-404.267	-124.505	-0.097	0.015
-403.252	169.293	0.228	0.325
-402.238	-95.591	-0.223	0.060
-401.223	-143.519	0.169	0.016
-400.209	-200.000	-0.004	-0.040
-399.194	-1.584	0.125	-0.088
-398.179	-200.000	0.014	0.176
-397.165	-200.000	0.016	-0.085
-396.150	-13.130	0.118	0.077
-395.136	-200.000	0.031	0.307
-394.121	-94.679	0.142	0.038
-393.106	-63.011	0.212	0.087
-392.092	-200.000	0.021	-0.123
-391.077	183.950	0.129	-0.191
-390.063	93.360	-0.120	-0.135
-389.048	-61.925	-0.198	0.082
-388.033	-75.282	0.081	0.029
-387.019	-200.000	0.000	0.091
-386.004	-133.775	0.293	0.036
-384.990	800.000	0.121	-0.346
-383.975	-148.271	0.060	0.005
-382.960	-102.387	0.117	0.028
-381.946	111.264	-0.061	0.073
-380.931	-200.000	0.025	-0.331
-379.917	800.000	0.082	-0.282
-378.902	573.645	-0.052	0.126
-377.888	10.663	-0.343	-0.261
-376.873	109.857	-0.044	0.053
-375.858	800.000	0.074	0.249
-374.844	-126.056	0.358	-0.054
-373.829	-149.032	0.302	0.024
-372.815	85.658	0.211	0.231
-371.800	-200.000	0.044	-0.268
-370.785	-3.017	-0.266	-0.185
-369.771	-200.000	-0.022	0.209
-368.756	-116.888	0.110	-0.020
-367.742	145.025	-0.272	-0.363
-366.727	130.168	-0.132	-0.168
-365.712	-200.000	0.013	-0.229
-364.698	-200.000	0.180	0.000
-363.683	800.000	-0.024	-0.078
-362.669	348.385	0.159	0.312
-361.654	308.884	0.153	-0.284
-360.639	-200.000	0.011	0.126
-359.625	455.543	0.066	0.146
-358.610	407.019	0.128	0.269
-357.596	42.309	-0.173	-0.156
-356.581	275.225	-0.174	0.308
-355.566	183.699	0.060	0.089
-354.552	-200.000	-0.044	0.199
-353.537	-196.243	-0.094	0.001
-352.523	-200.000	-0.016	-0.323
-351.508	-40.238	-0.083	0.043
-350.493	-181.889	-0.249	-0.005
-349.479	115.957	0.219	0.267
-348.464	-137.790	-0.246	-0.027
-347.450	-55.672	0.056	-0.025
-346.435	-200.000	0.001	0.182
-345.420	-138.817	0.154	-0.017
-344.406	407.173	0.021	-0.045
-343.391	208.698	-0.091	0.141
-342.377	-200.000	0.012	-0.133
-341.362	322.306	-0.196	-0.371
-340.348	750.530	0.129	-0.346
-339.333	17.723	0.190	0.150
-338.318	39.939	-0.162	0.145
-337.304	375.972	0.022	0.045
-336.289	-29.865	0.186	-0.105
-335.275	46.378	0.126	0.116
-334.260	-33.932	-0.417	0.228
-333.245	-64.747	0.135	-0.054
-332.231	331.554	0.103	0.198
-331.216	-200.000	0.049	0.248
-330.202	-99.330	-0.279	-0.070
-329.187	-200.000	0.036	-0.171
-328.172	-66.050	0.356	-0.141
-327.158	-100.350	-0.209	-0.052
-326.143	-200.000	-0.021	0.146
-325.129	150.022	-0.003	-0.004
-324.114	48.614	-0.163	0.152
-323.099	-200.000	-0.041	-0.387
-322.085	-200.000	-0.011	-0.367
-321.070	-113.047	-0.223	-0.044
-320.056	23.229	0.122	0.100
-319.041	-146.703	0.242	0.021
-318.026	99.472	-0.238	-0.274
-317.012	800.000	0.025	-0.076
-315.997	158.047	0.180	-0.248
-314.983	-52.450	-0.033	0.015
-313.968	597.993	0.105	-0.260
-312.953	156.538	0.111	0.153
-311.939	8.955	0.319	-0.239
-310.924	39.468	-0.131	0.117
-309.910	36.271	-0.333	-0.292
-308.895	-48.867	0.270	0.128
-307.880	136.672	0.184	0.239
-306.866	208.791	-0.013	-0.020
-305.851	800.000	-0.065	0.279
-304.837	-107.050	0.181	-0.040
-303.822	292.060	0.075	-0.136
-302.807	10.246	-0.124	-0.094
-301.793	98.811	0.176	-0.202
-300.778	-56.058	0.093	-0.041
-299.764	155.468	0.055	-0.075
-298.749	-133.536	-0.198	-0.025
-297.735	-125.249	0.099	0.015
-296.720	59.310	-0.061	-0.059
-295.705	131.211	0.125	-0.159
-294.691	202.067	-0.103	-0.157
-293.676	332.880	0.178	-0.341
-292.662	105.321	0.314	-0.369
-291.647	-200.000	0.026	-0.203
-290.632	-139.952	0.100	-0.010
-289.618	-200.000	0.004	-0.059
-288.603	634.223	-0.045	-0.112
-287.589	251.316	-0.118	0.199
-286.574	-157.163	0.402	0.024
-285.559	-77.074	0.304	-0.105
-284.545	-5.297	-0.112	0.076
-283.530	800.000	-0.054	0.170
-282.516	800.000	-0.100	-0.398
-281.501	-110.129	0.312	-0.065
-280.486	-200.000	-0.019	0.117
-279.472	-148.864	-0.311	0.025
-278.457	-200.000	0.026	-0.329
-277.443	237.739	-0.051	-0.084
-276.428	257.842	-0.068	0.116
-275.413	-200.000	-0.003	-0.056
-274.399	-116.755	-0.336	0.061
-273.384	-57.398	0.073	-0.032
-272.370	-104.244	0.217	-0.050
-271.355	-179.390	0.239	0.005
-270.340	-200.000	-0.006	-0.151
-269.326	707.426	0.044	-0.116
-268.311	178.049	0.031	-0.045
-267.297	155.290	-0.135	-0.185
-266.282	-125.615	-0.129	0.019
-265.267	800.000	-0.072	0.229
-264.253	-200.000	-0.009	-0.048
-263.238	101.040	0.104	-0.120
-262.224	51.980	0.120	-0.113
-261.209	800.000	0.087	0.354
-260.195	-55.743	-0.212	0.094
-259.180	36.251	-0.211	-0.184
-258.165	345.133	0.032	-0.062
-257.151	-200.000	-0.023	-0.170
-256.136	-171.099	-0.175	-0.006
-255.122	-136.349	0.156	0.018
-254.107	-131.246	-0.322	0.042
-253.092	23.012	-0.324	0.263
-252.078	-200.000	-0.001	-0.083
-251.063	-12.198	-0.144	-0.093
-250.049	328.144	-0.058	0.110
-249.034	-20.855	-0.303	0.184
-248.019	-200.000	0.010	-0.262
-247.005	-20.016	-0.108	0.066
-245.990	800.000	0.114	0.445
-244.976	383.213	-0.153	0.312
-243.961	-68.969	-0.292	0.112
-242.946	85.271	0.029	0.031
-241.932	57.419	0.041	-0.040
-240.917	-148.846	-0.061	0.005
-239.903	-47.060	-0.123	-0.060
-238.888	-8.484	0.238	0.159
-237.873	119.767	0.228	-0.281
-236.859	-79.054	-0.339	-0.114
-235.844	-96.048	0.102	-0.027
-234.830	-162.469	0.075	-0.004
-233.815	-6.849	0.079	-0.053
-232.800	-170.469	0.177	0.006
-231.786	55.363	-0.018	0.018
-230.771	-55.665	-0.045	-0.020
-229.757	191.498	0.133	0.198
-228.742	-193.433	0.176	0.002
-227.727	-81.060	-0.173	0.057
-226.713	-200.000	0.047	-0.205
-225.698	-48.045	-0.064	-0.030
-224.684	800.000	-0.019	0.073
-223.669	800.000	-0.040	0.161
-222.655	-200.000	0.006	0.168
-221.640	-2.906	0.102	-0.071
-220.625	-200.000	0.011	-0.585
-219.611	800.000	0.016	-0.045
-218.596	-67.675	0.191	0.074
-217.582	252.881	0.143	0.242
-216.567	545.160	0.067	0.159
-215.552	781.531	0.085	-0.230
-214.538	177.394	-0.068	-0.098
-213.523	183.698	-0.054	-0.079
-212.509	266.310	-0.069	0.120
-211.494	-200.000	-0.045	0.213
-210.479	-146.476	0.099	-0.009
-209.465	-200.000	0.045	0.303
-208.450	162.003	0.195	0.270
-207.436	-43.546	-0.490	-0.245
-206.421	-36.339	0.325	-0.173
-205.406	411.131	-0.172	0.360
-204.392	-200.000	-0.062	-0.323
-203.377	800.000	-0.116	-0.329
-202.363	-200.000	-0.060	-0.321
-201.348	573.799	0.054	0.131
-200.333	-3.419	-0.053	-0.036
-199.319	-25.201	0.320	0.187
-198.304	212.200	0.130	0.203
-197.290	-25.968	-0.254	0.148
-196.275	800.000	0.030	0.082
-195.260	800.000	-0.052	0.196
-194.246	16.419	0.149	-0.117
-193.231	-140.538	-0.219	-0.022
-192.217	-200.000	0.022	-0.179
-191.202	-159.261	0.175	-0.010
-190.187	-45.539	-0.237	0.116
-189.173	570.945	0.066	0.159
-188.158	92.824	0.191	-0.214
-187.144	-91.330	-0.098	0.028
-186.129	-132.153	-0.198	0.025
-185.114	372.511	-0.043	-0.086
-184.100	-200.000	0.106	-0.532
-183.085	-58.352	0.110	0.047
-182.071	-54.477	-0.227	-0.102
-181.056	125.246	0.144	-0.180
-180.042	48.695	0.091	0.085
-179.027	-200.000	-0.052	0.303
-178.012	-109.627	0.071	0.015
-176.998	-200.000	-0.013	-0.266
-175.983	13.474	-0.036	-0.028
-174.969	-26.693	-0.257	0.149
-173.954	11.347	0.248	0.187
-172.939	324.276	0.118	0.222
-171.925	-125.267	-0.125	-0.019
-170.910	-143.500	0.251	-0.024
-169.896	-133.349	-0.180	-0.022
-168.881	-33.054	0.160	-0.088
-167.866	-89.144	0.118	-0.034
-166.852	800.000	0.068	-0.190
-165.837	-74.141	0.222	-0.079
-164.823	244.587	0.066	-0.109
-163.808	113.317	-0.375	0.450
-162.793	363.016	-0.054	0.106
-161.779	105.020	0.113	0.132
-160.764	60.256	0.045	-0.044
-159.750	-146.211	0.159	-0.014
-158.735	463.294	-0.049	-0.107
-157.720	0.090	0.211	0.148
-156.706	47.702	-0.104	0.096
-155.691	124.781	0.135	-0.168
-154.677	124.125	-0.095	0.118
-153.662	33.392	0.086	-0.073
-152.647	-2.494	-0.191	0.132
-151.633	-105.538	0.179	0.040
-150.618	-123.305	0.035	-0.006
-149.604	-63.576	-0.151	-0.061
-148.589	-86.057	-0.072	0.022
-147.574	-38.772	0.088	-0.046
-146.560	45.166	-0.243	0.221
-145.545	-31.422	-0.309	0.171
-144.531	160.098	0.063	0.086
-143.516	160.032	-0.010	0.014
-142.502	-117.125	0.128	-0.023
-141.487	51.096	0.147	-0.138
-140.472	-90.961	0.315	0.089
-139.458	178.158	0.074	0.107
-138.443	800.000	0.113	0.425
-137.429	-115.257	-0.064	0.012
-136.414	154.882	0.094	0.127
-135.399	-200.000	-0.020	-0.274
-134.385	-73.479	-0.269	0.097
-133.370	-42.708	0.244	-0.122
-132.356	-189.145	-0.232	0.003
-131.341	499.257	0.034	0.076
-130.326	275.758	0.212	0.370
-129.312	-154.792	0.332	0.022
-128.297	-54.308	-0.252	-0.113
-127.283	43.533	0.191	-0.173
-126.268	800.000	-0.087	-0.310
-125.253	-118.078	0.577	-0.102
-124.239	-88.729	0.095	0.028
-123.224	-151.327	0.264	0.019
-122.210	-33.771	-0.106	-0.058
-121.195	-31.580	0.179	-0.099
-120.180	-200.000	-0.014	-0.237
-119.166	-13.184	0.268	-0.172
-118.151	243.640	-0.091	-0.150
-117.137	674.054	-0.069	0.176
-116.122	-103.150	0.215	-0.050
-115.107	220.366	0.097	0.154
-114.093	-26.166	-0.228	-0.132
-113.078	-200.000	0.005	-0.071
-112.064	800.000	-0.069	-0.249
-111.049	159.177	0.295	-0.404
-110.034	26.595	-0.057	-0.047
-109.020	800.000	0.044	-0.180
-108.005	-1.195	0.135	0.094
-106.991	-200.000	-0.072	0.324
-105.976	-111.208	-0.095	0.019
-104.962	-70.405	0.257	0.096
-103.947	-200.000	0.026	0.319
-102.932	-26.115	-0.206	0.119
-101.918	-200.000	-0.028	0.195
-100.903	-0.330	0.166	-0.116
-99.889	-200.000	-0.026	0.234
-98.874	351.124	0.113	0.221
-97.859	91.090	0.157	-0.174
-96.845	448.815	0.204	-0.442
-95.830	-66.625	-0.050	-0.020
-94.816	58.635	0.070	-0.068
-93.801	281.998	-0.050	0.089
-92.786	-4.486	0.148	0.101
-91.772	-52.353	0.138	0.063
-90.757	-127.299	0.135	-0.019
-89.743	384.590	0.147	-0.298
-88.728	126.525	-0.185	-0.231
-87.713	88.413	-0.125	-0.136
-86.699	132.076	-0.207	-0.262
-85.684	183.164	0.152	0.221
-84.670	293.781	-0.108	0.194
-83.655	185.799	0.185	-0.270
-82.640	800.000	0.061	0.202
-81.626	-23.666	0.297	-0.175
-80.611	163.380	-0.133	0.184
-79.597	7.606	-0.152	0.112
-78.582	496.849	-0.040	-0.090
-77.567	-23.547	-0.215	0.127
-76.553	-139.459	-0.129	-0.014
-75.538	87.082	-0.256	0.278
-74.524	123.138	0.218	-0.269
-73.509	-154.422	0.214	0.014
-72.494	-200.000	-0.087	0.519
-71.480	-7.091	0.379	-0.253
-70.465	257.633	-0.040	0.069
-69.451	227.736	0.100	-0.160
-68.436	60.684	0.165	-0.161
-67.422	-200.000	0.063	0.441
-66.407	800.000	0.079	-0.223
-65.392	-134.954	0.017	0.002
-64.378	-82.515	0.324	-0.103
-63.363	449.183	-0.050	0.109
-62.349	800.000	0.112	-0.326
-61.334	114.940	-0.866	-1.040
-60.319	26.750	0.413	0.341
-59.305	686.262	-0.378	-0.971
-58.290	223.064	0.639	1.013
-57.276	800.000	0.323	1.301
-56.261	-200.000	97.183	606.501
-55.246	638.806	1381.429	3455.938
-54.232	197.439	2558.416	3841.971
-53.217	119.513	2159.361	2630.320
-52.203	42.624	1701.866	1523.895
-51.188	35.016	1513.724	1303.800
-50.173	32.586	1487.012	1264.456
-49.159	52.491	1536.448	1442.693
-48.144	54.169	1554.419	1470.962
-47.130	35.138	1514.637	1305.212
-46.115	32.094	1498.957	1271.078
-45.100	31.880	1495.961	1267.039
-44.086	31.780	1494.244	1264.864
-43.071	31.594	1492.622	1262.186
-42.057	31.648	1490.284	1260.519
-41.042	31.694	1489.320	1259.967
-40.027	31.587	1488.065	1258.136
-39.013	31.629	1486.447	1257.001
-37.998	31.688	1484.956	1256.081
-36.984	31.659	1483.879	1254.931
-35.969	31.689	1482.402	1253.828
-34.954	31.580	1481.601	1252.373
-33.940	31.742	1479.351	1251.504
-32.925	31.647	1478.283	1249.919
-31.911	31.713	1476.743	1249.008
-30.896	31.775	1475.561	1248.371
-29.881	31.768	1473.835	1246.813
-28.867	31.627	1473.163	1245.260
-27.852	31.815	1471.729	1245.247
-26.838	31.799	1470.225	1243.819
-25.823	31.718	1468.526	1241.794
-24.809	31.717	1466.698	1240.189
-23.794	31.824	1464.990	1239.405
-22.779	31.780	1464.319	1238.499
-21.765	31.777	1463.045	1237.354
-20.750	31.770	1462.304	1236.628
-19.736	31.629	1461.690	1235.133
-18.721	31.625	1460.376	1233.943
-17.706	31.684	1458.847	1232.992
-16.692	31.615	1457.760	1231.569
-15.677	31.750	1456.521	1231.360
-14.663	31.637	1455.938	1230.079
-13.648	31.726	1454.813	1229.664
-12.633	31.638	1453.697	1228.096
-11.619	31.634	1453.221	1227.617
-10.604	31.709	1452.347	1227.325
-9.590	31.642	1451.750	1226.332
-8.575	31.708	1450.770	1225.887
-7.560	31.693	1449.741	1224.869
-6.546	31.620	1448.691	1223.457
-5.531	31.574	1447.854	1222.402
-4.517	31.678	1446.549	1221.929
-3.502	31.644	1445.509	1220.777
-2.487	31.588	1444.635	1219.629
-1.473	31.544	1444.129	1218.867
-0.458	31.644	1442.497	1218.088
0.556	30.132	1433.415	1206.499
1.571	27.283	1407.246	1166.133
2.586	23.910	1347.342	1095.651
3.600	22.146	1266.862	1019.888
4.615	20.769	1221.553	975.614
5.629	17.837	1165.806	915.307
6.644	10.692	1083.390	814.787
7.659	5.324	1044.317	759.306
8.673	4.642	1039.359	752.337
9.688	4.569	1036.052	749.526
10.702	4.484	1034.364	747.828
11.717	4.494	1032.533	746.486
12.731	6.449	1034.002	756.880
13.746	13.120	1043.829	796.267
14.761	18.155	1049.743	825.059
15.775	18.307	1048.802	824.980
16.790	17.320	1046.696	818.501
17.804	16.319	1044.134	811.618
18.819	15.301	1042.729	805.564
19.834	14.904	1041.485	802.628
20.848	14.645	1040.279	800.385
21.863	14.426	1039.620	798.755
22.877	14.146	1039.074	796.926
23.892	13.997	1038.136	795.423
24.907	13.886	1037.349	794.216
25.921	13.941	1036.745	793.949
26.936	13.961	1035.841	793.281
27.950	14.034	1034.824	792.779
28.965	13.969	1033.911	791.700
29.980	14.029	1032.573	790.893
30.994	14.119	1031.771	790.636
32.009	14.203	1030.418	789.929
33.023	14.256	1029.820	789.649
34.038	14.304	1029.113	789.268
35.053	14.191	1028.263	788.012
36.067	14.046	1027.526	786.690
37.082	14.016	1026.577	785.750
38.096	14.140	1025.555	785.484
39.111	14.096	1024.941	784.739
40.126	14.166	1023.654	784.010
41.140	14.045	1022.991	782.867
42.155	14.031	1021.728	781.764
43.169	13.886	1020.621	780.166
44.184	13.780	1019.289	778.581
45.199	13.789	1017.939	777.526
46.213	13.856	1017.178	777.185
47.228	13.900	1016.312	776.661
48.242	14.068	1015.517	776.773
49.257	13.955	1014.918	775.719
50.271	13.976	1013.889	774.960
51.286	13.971	1013.115	774.276
52.301	14.058	1012.065	773.810
53.315	14.102	1011.341	773.395
54.330	14.052	1010.162	772.191
55.344	13.947	1009.546	771.165
56.359	13.934	1008.681	770.376
57.374	13.891	1007.613	769.291
58.388	14.006	1006.904	769.213
59.403	13.923	1006.140	768.180
60.417	13.857	1005.188	767.082
61.432	13.837	1005.055	766.819
62.447	13.882	1003.864	766.049
63.461	13.761	1003.023	764.781
64.476	13.721	1002.287	763.970
65.490	13.762	1001.356	763.378
66.505	13.712	1000.765	762.633
67.520	13.890	999.695	762.569
68.534	13.829	999.181	761.825
69.549	13.781	998.407	760.947
70.563	13.927	997.147	760.592
71.578	13.881	996.572	759.875
72.593	13.744	996.147	758.854
73.607	13.633	994.826	757.277
74.622	13.544	994.133	756.275
75.636	13.672	993.451	756.274
76.651	13.722	992.219	755.497
77.666	13.702	991.783	755.005
78.680	13.713	991.052	754.432
79.695	13.779	990.482	754.231
80.709	13.756	990.139	753.801
81.724	13.869	989.178	753.515
82.739	13.772	988.723	752.661
83.753	13.902	987.586	752.319
84.768	14.137	986.717	752.654
85.782	14.157	986.084	752.192
86.797	14.278	985.698	752.377
87.812	14.180	984.924	751.278
88.826	14.035	984.010	749.863
89.841	14.054	982.777	748.941
90.855	14.029	982.660	748.675
91.870	14.172	981.613	748.455
92.884	14.218	980.969	748.102
93.899	14.250	980.217	747.608
94.914	14.222	979.160	746.609
95.928	14.239	979.113	746.583
96.943	14.281	978.178	745.992
97.957	14.256	977.156	745.033
98.972	14.129	976.281	743.736
99.987	14.190	975.514	743.356
101.001	14.231	975.094	743.153
102.016	14.188	974.303	742.293
103.030	14.168	973.294	741.368
104.045	14.151	972.865	740.903
105.060	14.134	971.507	739.726
106.074	14.115	970.647	738.922
107.089	14.046	969.672	737.806
108.103	14.008	968.893	736.982
109.118	13.874	967.859	735.534
110.133	13.888	967.275	735.088
111.147	13.821	966.392	734.056
112.162	13.815	965.316	733.148
113.176	13.917	964.274	732.742
114.191	13.895	963.924	732.314
115.206	13.888	963.516	731.909
116.220	14.026	961.981	731.285
117.235	14.045	961.299	730.787
118.249	13.934	960.930	729.950
119.264	13.829	959.753	728.531
120.279	13.757	958.929	727.525
121.293	13.780	958.154	726.974
122.308	13.859	957.262	726.582
123.322	13.938	956.305	726.136
124.337	13.797	955.506	724.847
125.352	13.889	953.926	723.986
126.366	13.773	953.088	722.783
127.381	13.692	952.400	721.843
128.395	13.792	951.461	721.500
129.410	13.760	950.417	720.505
130.424	13.800	950.008	720.308
131.439	13.864	948.826	719.623
132.454	13.941	947.763	719.088
133.468	14.062	946.807	718.825
134.483	14.043	946.526	718.462
135.497	13.959	946.134	717.738
136.512	13.944	945.193	716.899
137.527	14.054	944.550	716.822
138.541	13.971	944.043	716.015
139.556	14.026	943.167	715.523
140.570	14.139	942.079	715.121
141.585	14.228	941.269	714.824
142.600	14.097	941.138	714.101
143.614	14.233	939.747	713.564
144.629	14.093	939.412	712.649
145.643	14.201	938.611	712.439
146.658	14.277	937.893	712.157
147.673	14.184	937.013	711.027
148.687	14.199	935.741	710.062
149.702	14.088	935.177	709.099
150.716	13.995	934.476	708.107
151.731	14.045	933.655	707.639
152.746	14.126	932.437	706.997
153.760	14.082	932.165	706.540
154.775	13.957	931.746	705.628
155.789	14.150	930.578	705.498
156.804	14.212	930.046	705.298
157.819	14.203	929.460	704.753
158.833	14.220	928.584	704.099
159.848	14.255	927.811	703.598
160.862	14.424	927.099	703.710
161.877	14.334	926.425	702.755
162.892	14.260	925.786	701.894
163.906	14.208	924.539	700.670
164.921	13.991	924.271	699.490
165.935	14.106	923.115	699.037
166.950	14.040	922.306	698.085
167.964	14.298	921.063	698.167
168.979	14.189	919.930	696.788
169.994	14.327	918.956	696.565
171.008	14.273	918.115	695.640
172.023	14.257	917.590	695.117
173.037	14.268	916.953	694.617
174.052	14.350	916.575	694.612
175.067	14.348	915.625	693.821
176.081	14.366	914.519	692.997
177.096	14.216	913.592	691.610
178.110	14.125	913.334	690.976
179.125	14.226	912.592	690.774
180.140	14.233	911.814	690.152
181.154	14.301	911.328	690.003
182.169	14.280	910.684	689.367
183.183	14.310	910.422	689.233
184.198	14.399	909.454	688.808
185.213	14.416	908.843	688.353
186.227	14.566	907.861	688.167
187.242	14.475	908.006	687.843
188.256	14.521	907.251	687.397
189.271	14.553	906.511	686.907
190.286	14.654	905.353	686.386
191.300	14.477	904.609	685.034
192.315	14.350	903.719	683.777
193.329	14.209	902.822	682.461
194.344	14.230	902.361	682.139
195.359	14.204	902.218	681.863
196.373	14.336	901.769	682.005
197.388	14.538	900.859	682.082
198.402	14.672	900.615	682.385
199.417	14.723	900.048	682.102
200.432	14.745	899.808	681.951
201.446	14.705	899.313	681.351
202.461	14.913	898.799	681.750
203.475	14.867	898.550	681.313
204.490	14.849	897.811	680.617
205.504	14.909	896.334	679.684
206.519	14.666	895.880	678.292
207.534	14.705	895.526	678.120
208.548	14.719	894.478	677.327
209.563	14.746	893.784	676.851
210.577	14.894	893.019	676.811
211.592	14.714	892.781	675.839
212.607	14.696	892.579	675.554
213.621	14.749	892.089	675.339
214.636	14.802	891.034	674.694
215.650	14.696	890.633	673.904
216.665	14.990	889.556	674.214
217.680	14.832	889.810	673.709
218.694	14.977	888.993	673.615
219.709	15.008	888.047	672.961
220.723	14.935	887.779	672.406
221.738	14.852	886.951	671.389
222.753	14.951	885.892	670.924
223.767	14.984	885.547	670.736
224.782	15.153	884.784	670.773
225.796	15.068	883.668	669.530
226.811	15.042	883.545	669.271
227.826	15.172	882.761	669.139
228.840	15.066	882.151	668.195
229.855	15.052	881.499	667.587
230.869	15.000	880.656	666.679
231.884	15.150	880.235	666.899
232.899	15.063	879.432	665.887
233.913	15.004	878.726	665.060
234.928	14.906	878.379	664.348
235.942	14.908	877.975	663.993
236.957	14.811	877.135	662.913
237.972	14.961	876.432	662.918
238.986	14.957	875.588	662.202
240.001	14.873	875.072	661.422
241.015	14.968	874.165	661.053
242.030	15.072	873.721	661.072
243.045	15.026	873.271	660.489
244.059	14.962	872.758	659.792
245.074	15.040	871.970	659.445
246.088	15.128	871.025	659.017
247.103	15.197	870.896	659.132
248.117	15.237	870.147	658.664
249.132	15.222	869.737	658.239
250.147	15.430	869.360	658.712
251.161	15.505	868.355	658.184
252.176	15.652	867.855	658.324
253.190	15.544	867.586	657.640
254.205	15.646	866.663	657.281
255.220	15.666	866.149	656.909
256.234	15.613	865.459	656.120
257.249	15.655	864.558	655.544
258.263	15.667	864.039	655.141
259.278	15.698	863.568	654.846
260.293	15.750	863.520	654.954
261.307	15.805	862.527	654.355
262.322	15.773	862.296	654.000
263.336	15.834	861.441	653.530
264.351	15.806	860.852	652.914
265.366	15.907	860.311	652.840
266.380	15.823	859.873	652.122
267.395	15.801	859.185	651.461
268.409	15.837	858.320	650.883
269.424	15.861	857.640	650.405
270.439	15.784	856.767	649.388
271.453	15.939	855.933	649.297
272.468	15.651	855.564	647.847
273.482	15.674	855.230	647.627
274.497	15.772	854.281	647.229
275.512	15.751	853.865	646.776
276.526	15.650	853.004	645.675
277.541	15.656	852.720	645.427
278.555	15.832	851.750	645.311
279.570	16.021	851.056	645.455
280.585	16.000	850.491	644.887
281.599	16.023	850.023	644.564
282.614	15.896	849.466	643.597
283.628	15.888	849.014	643.168
284.643	15.894	848.258	642.561
285.657	16.004	847.753	642.542
286.672	15.936	847.231	641.830
287.687	16.041	846.540	641.647
288.701	15.986	846.213	641.137
289.716	16.122	845.383	640.966
290.730	15.908	845.202	639.960
291.745	16.030	844.830	640.084
292.760	15.996	843.958	639.238
293.774	16.068	843.206	638.885
294.789	16.208	842.593	638.893
295.803	16.132	842.300	638.330
296.818	16.073	841.487	637.432
297.833	16.069	840.727	636.786
298.847	15.985	839.960	635.830
299.862	16.225	839.207	636.111
300.876	16.238	838.528	635.587
301.891	16.129	838.234	634.897
302.906	16.265	837.847	635.060
303.920	16.276	837.168	634.531
304.935	16.298	836.456	634.018
305.949	16.312	835.990	633.660
306.964	16.362	835.505	633.423
307.979	16.409	835.082	633.223
308.993	16.388	834.199	632.420
310.008	16.486	833.803	632.432
311.022	16.492	833.343	632.050
312.037	16.537	832.617	631.610
313.052	16.427	831.935	630.626
314.066	16.357	831.559	630.022
315.081	16.340	830.904	629.409
316.095	16.205	830.617	628.631
317.110	16.325	830.110	628.641
318.125	16.251	829.204	627.622
319.139	16.258	828.952	627.403
320.154	16.447	828.592	627.776
321.168	16.210	827.990	626.387
322.183	16.324	827.250	626.192
323.197	16.470	826.703	626.263
324.212	16.482	826.454	626.064
325.227	16.395	825.963	625.317
326.241	16.432	825.502	625.049
327.256	16.344	824.841	624.167
328.270	16.348	824.187	623.632
329.285	16.246	824.171	623.186
330.300	16.520	823.117	623.345
331.314	16.484	822.238	622.494
332.329	16.619	821.973	622.733
333.343	16.629	821.010	621.984
334.358	16.729	820.641	622.018
335.373	16.568	820.657	621.384
336.387	16.596	819.763	620.755
337.402	16.631	819.569	620.682
338.416	16.718	818.849	620.399
339.431	16.586	818.395	619.517
340.446	16.834	817.601	619.768
341.460	16.895	817.070	619.534
342.475	16.768	816.709	618.741
343.489	16.916	816.143	618.799
344.504	16.982	815.770	618.702
345.519	16.907	815.250	617.979
346.533	17.121	814.630	618.234
347.548	16.969	814.275	617.358
348.562	16.981	813.766	616.961
349.577	16.838	813.115	615.893
350.592	16.881	812.136	615.252
351.606	16.823	811.805	614.738
352.621	16.852	811.581	614.616
353.635	16.937	810.706	614.210
354.650	16.975	810.336	614.011
355.665	17.035	809.930	613.867
356.679	16.913	809.885	613.335
357.694	16.994	809.322	613.148
358.708	17.047	808.934	612.993
359.723	16.909	808.130	611.832
360.738	16.974	807.950	611.874
361.752	16.973	807.007	611.102
362.767	16.949	807.085	611.021
363.781	17.061	806.595	610.999
364.796	17.159	806.098	610.920
365.810	17.165	805.797	610.662
366.825	17.340	805.519	611.024
367.840	17.428	805.078	610.952
368.854	17.389	804.709	610.477
369.869	17.255	804.188	609.550
370.883	17.192	803.464	608.719
371.898	17.257	802.892	608.464
372.913	17.412	802.148	608.403
373.927	17.519	801.438	608.193
374.942	17.402	800.726	607.180
375.956	17.401	800.326	606.818
376.971	17.338	799.861	606.190
377.986	17.400	799.276	605.911
379.000	17.525	799.178	606.231
380.015	17.598	798.578	605.981
381.029	17.463	798.018	605.021
382.044	17.516	797.207	604.542
383.059	17.598	796.714	604.405
384.073	17.509	796.714	604.036
385.088	17.639	795.568	603.576
386.102	17.483	794.941	602.495
387.117	17.407	794.647	601.950
388.132	17.488	794.393	601.989
389.146	17.512	793.736	601.524
390.161	17.357	793.726	600.914
391.175	17.533	793.126	601.028
392.190	17.552	792.838	600.824
393.205	17.427	792.538	600.103
394.219	17.478	791.733	599.620
395.234	17.545	791.377	599.534
396.248	17.386	790.744	598.442
397.263	17.305	790.166	597.664
398.278	17.299	790.009	597.473
399.292	17.473	789.444	597.603
400.307	17.201	789.264	596.462
401.321	17.493	788.516	596.865
402.336	17.383	788.649	596.527
403.350	17.421	788.082	596.178
404.365	17.465	787.792	596.064
405.380	17.393	787.225	595.327
406.394	17.626	786.978	595.902
407.409	17.687	786.388	595.615
408.423	18.014	785.419	595.970
409.438	17.913	785.252	595.439
410.453	17.854	784.798	594.836
411.467	17.957	784.185	594.679
412.482	17.942	784.329	594.685
413.496	18.040	783.121	594.054
414.511	17.979	783.285	593.916
415.526	17.986	783.157	593.789
416.540	18.143	782.814	594.023
417.555	18.026	781.999	592.945
418.569	18.097	781.456	592.727
419.584	18.001	781.255	592.188
420.599	18.009	780.679	591.728
421.613	156.012	1368.879	1794.677
422.628	134.639	1454.602	1794.765
