DTS Sentinel unit serial number:	SN413079Multiplexer serial number:	ORYXHardware model number:	OX4-SRSoftware version number:	ORYX F/W v4.00 Oryx Data Collector v3.7.2.0data status	okinstallation	princeton_trtdifferential loss correction	single-endedforward channel	channel 3reverse channel	N/Adate	2019/09/17time	16:52:35forward acquisition time	60.00reverse acquisition time	0.00gamma	496.2192k internal	0.2291k external	0.2291temperature offset calibration	0.9952default loss term (dB/km)	0.3790temperature slope calibration	1.0000multiplexer offset coefficient	1.0000multiplexer slope coefficient	1.0000fibre end	0.00T internal ref (°C)	42.31T ext. ref 1 (°C)	0.36T ext. ref 2 (°C)	38.44length (m)	temperature (°C)	Stokes	anti-Stokes-747.200	800.000	-0.066	0.223
-746.185	-145.318	0.102	-0.009
-745.171	-2.313	0.085	0.061
-744.156	-179.386	0.212	0.005
-743.142	5.743	0.038	0.029
-742.127	800.000	0.009	-0.035
-741.112	233.473	0.046	-0.078
-740.098	87.328	-0.252	0.286
-739.083	-120.080	0.226	-0.040
-738.069	-20.690	-0.046	0.029
-737.054	-16.016	-0.156	0.102
-736.039	44.013	-0.113	-0.106
-735.025	106.043	0.309	0.374
-734.010	-200.000	0.025	0.150
-732.996	31.711	-0.400	-0.353
-731.981	354.072	-0.098	0.199
-730.966	57.997	-0.073	-0.073
-729.952	-44.423	0.104	-0.053
-728.937	205.231	0.037	-0.059
-727.923	-3.728	-0.175	-0.125
-726.908	59.477	-0.362	0.365
-725.894	-38.013	-0.129	0.070
-724.879	9.870	-0.173	-0.134
-723.864	7.506	-0.134	-0.103
-722.850	410.511	-0.080	0.174
-721.835	800.000	-0.026	0.081
-720.821	-200.000	0.006	-0.152
-719.806	283.383	0.127	-0.233
-718.791	800.000	0.070	0.217
-717.777	-63.864	0.152	-0.064
-716.762	238.060	-0.142	0.242
-715.748	-200.000	0.016	0.108
-714.733	-19.626	-0.128	0.081
-713.718	-113.602	0.225	0.045
-712.704	-200.000	-0.023	-0.276
-711.689	-151.614	0.242	0.018
-710.675	-24.288	-0.316	0.193
-709.660	-74.054	-0.196	0.073
-708.645	800.000	0.034	-0.108
-707.631	115.419	-0.104	0.130
-706.616	-109.090	-0.220	-0.048
-705.602	-200.000	0.001	0.064
-704.587	-67.954	-0.147	0.059
-703.572	-65.322	0.338	0.139
-702.558	-113.655	0.180	0.036
-701.543	39.983	0.190	-0.174
-700.529	-135.923	0.226	-0.027
-699.514	128.381	-0.096	-0.125
-698.499	-200.000	0.007	-0.240
-697.485	84.538	0.114	-0.128
-696.470	33.867	0.177	0.158
-695.456	24.478	-0.115	-0.097
-694.441	-200.000	0.063	-0.343
-693.426	-200.000	-0.009	-0.306
-692.412	-200.000	0.009	-0.117
-691.397	231.329	0.100	-0.168
-690.383	-170.301	-0.147	0.005
-689.368	103.236	0.113	0.135
-688.354	223.654	-0.155	-0.256
-687.339	-110.740	-0.143	0.030
-686.324	800.000	0.056	-0.247
-685.310	434.042	0.067	0.150
-684.295	-38.280	0.120	0.065
-683.281	-105.075	-0.122	-0.029
-682.266	321.240	-0.082	0.160
-681.251	188.349	-0.075	-0.114
-680.237	-134.414	-0.052	0.006
-679.222	247.953	0.069	-0.120
-678.208	-103.148	-0.319	0.077
-677.193	16.215	0.275	0.222
-676.178	-200.000	-0.025	-0.262
-675.164	-200.000	-0.006	0.170
-674.149	7.251	0.225	0.171
-673.135	-24.217	-0.318	-0.194
-672.120	800.000	0.130	-0.394
-671.105	-84.471	0.027	-0.009
-670.091	-200.000	0.011	0.067
-669.076	-200.000	-0.056	0.590
-668.062	91.101	-0.126	-0.145
-667.047	-200.000	0.080	0.456
-666.032	163.010	0.123	-0.176
-665.018	-90.893	0.098	-0.029
-664.003	91.283	0.233	-0.267
-662.989	800.000	-0.047	-0.195
-661.974	-50.355	0.173	0.084
-660.959	-200.000	0.003	-0.175
-659.945	-200.000	0.034	-0.243
-658.930	-105.145	0.224	0.052
-657.916	-200.000	-0.002	-0.206
-656.901	800.000	0.031	-0.101
-655.886	-47.103	0.201	-0.100
-654.872	-64.191	-0.425	-0.177
-653.857	58.443	-0.136	-0.136
-652.843	489.658	-0.119	0.278
-651.828	184.236	0.070	0.105
-650.814	97.074	-0.164	-0.192
-649.799	59.371	-0.093	0.094
-648.784	56.623	-0.183	-0.181
-647.770	-200.000	-0.024	-0.140
-646.755	-18.602	0.161	0.103
-645.741	-55.861	-0.127	0.058
-644.726	-152.705	0.271	-0.020
-643.711	-141.192	-0.220	-0.023
-642.697	-138.352	-0.280	-0.032
-641.682	-73.363	-0.059	-0.022
-640.668	-200.000	0.032	-0.145
-639.653	-128.420	-0.224	0.032
-638.638	309.069	-0.148	0.282
-637.624	-200.000	0.010	-0.234
-636.609	-200.000	0.058	-0.300
-635.595	-188.827	-0.088	-0.001
-634.580	-200.000	0.017	0.178
-633.565	800.000	0.043	-0.148
-632.551	-200.000	-0.013	-0.140
-631.536	-107.744	0.093	0.021
-630.522	-51.536	0.299	0.142
-629.507	-200.000	-0.013	0.182
-628.492	800.000	0.051	0.172
-627.478	-200.000	0.016	-0.170
-626.463	-131.237	-0.239	0.032
-625.449	20.461	-0.054	-0.044
-624.434	75.548	0.256	-0.275
-623.419	-76.163	-0.122	-0.044
-622.405	176.213	0.278	-0.411
-621.390	-93.808	-0.256	-0.072
-620.376	800.000	-0.023	-0.084
-619.361	184.618	0.095	0.143
-618.346	-61.300	0.137	-0.059
-617.332	-126.880	0.235	0.035
-616.317	-200.000	-0.021	0.141
-615.303	33.996	0.190	0.168
-614.288	-200.000	-0.232	-0.000
-613.273	-200.000	-0.011	0.254
-612.259	78.858	-0.032	0.035
-611.244	-200.000	0.009	-0.178
-610.230	105.486	0.132	0.159
-609.215	486.947	-0.017	0.040
-608.201	97.278	-0.076	-0.089
-607.186	74.459	0.124	0.132
-606.171	800.000	-0.021	0.068
-605.157	3.544	0.207	0.154
-604.142	-131.649	0.156	0.021
-603.128	12.388	0.011	-0.009
-602.113	3.838	0.109	0.081
-601.098	10.330	0.275	-0.213
-600.084	38.247	0.202	0.183
-599.069	231.881	0.146	0.243
-598.055	-200.000	-0.004	-0.040
-597.040	800.000	0.071	-0.298
-596.025	-118.828	-0.169	0.030
-595.011	-124.708	-0.189	-0.030
-593.996	-79.393	-0.202	-0.070
-592.982	88.224	-0.113	0.128
-591.967	-200.000	-0.002	0.085
-590.952	-200.000	-0.003	-0.185
-589.938	163.543	-0.073	0.105
-588.923	64.306	-0.204	0.209
-587.909	129.509	-0.183	-0.238
-586.894	-99.303	-0.190	0.049
-585.879	133.971	0.129	-0.170
-584.865	-9.914	0.122	0.083
-583.850	-28.008	-0.191	0.113
-582.836	-90.329	0.113	0.033
-581.821	-200.000	-0.015	0.410
-580.806	90.396	0.144	-0.164
-579.792	645.115	0.057	0.147
-578.777	36.816	-0.181	-0.163
-577.763	-54.898	-0.177	0.081
-576.748	246.028	0.109	-0.187
-575.733	36.291	-0.085	0.077
-574.719	-144.303	0.112	-0.011
-573.704	238.406	-0.187	-0.316
-572.690	9.306	0.221	-0.170
-571.675	-50.757	-0.174	-0.083
-570.661	800.000	0.025	0.071
-569.646	64.378	0.094	-0.096
-568.631	-200.000	-0.036	0.205
-567.617	141.532	0.230	-0.310
-566.602	433.302	-0.146	0.322
-565.588	331.185	-0.077	-0.151
-564.573	-73.191	0.395	-0.147
-563.558	101.566	0.120	-0.142
-562.544	6.359	-0.074	-0.056
-561.529	-152.346	-0.027	0.002
-560.515	52.111	-0.162	-0.157
-559.500	11.293	-0.438	0.341
-558.485	-200.000	0.368	-0.001
-557.471	-200.000	-0.006	-0.142
-556.456	191.251	0.068	-0.105
-555.442	30.883	-0.106	0.092
-554.427	-123.684	-0.126	0.020
-553.412	-200.000	-0.022	0.369
-552.398	-104.892	-0.239	0.056
-551.383	-176.267	0.088	-0.002
-550.369	252.525	-0.061	-0.106
-549.354	-108.853	-0.137	0.030
-548.339	174.245	0.180	0.264
-547.325	-37.523	-0.213	0.116
-546.310	-93.164	-0.331	-0.093
-545.296	-3.363	-0.095	-0.067
-544.281	-181.124	0.237	-0.005
-543.266	-138.055	0.100	0.011
-542.252	-33.384	0.150	-0.084
-541.237	-83.185	-0.151	-0.049
-540.223	800.000	0.051	-0.210
-539.208	800.000	-0.046	-0.154
-538.193	-59.547	0.329	0.143
-537.179	69.948	0.209	-0.219
-536.164	-45.144	-0.157	-0.079
-535.150	-200.000	0.025	-0.374
-534.135	800.000	-0.125	-0.422
-533.121	-200.000	-0.014	-0.336
-532.106	314.629	-0.191	0.365
-531.091	800.000	-0.062	0.267
-530.077	225.158	-0.059	-0.097
-529.062	-25.827	-0.219	-0.131
-528.048	-42.182	0.331	-0.172
-527.033	-200.000	-0.014	-0.159
-526.018	-9.509	0.053	0.036
-525.004	-200.000	-0.014	0.294
-523.989	191.387	-0.122	0.187
-522.975	334.460	-0.087	0.171
-521.960	-200.000	-0.002	-0.057
-520.945	800.000	-0.114	-0.337
-519.931	-134.998	-0.061	-0.007
-518.916	-158.424	0.297	-0.017
-517.902	47.696	-0.097	0.092
-516.887	-0.462	0.223	0.161
-515.872	-56.068	0.184	-0.083
-514.858	-87.642	-0.125	0.038
-513.843	70.861	-0.231	0.242
-512.829	12.206	0.126	-0.098
-511.814	800.000	-0.090	0.256
-510.799	-138.114	-0.346	-0.039
-509.785	-31.273	0.221	0.127
-508.770	-200.000	-0.049	-0.359
-507.756	-200.000	-0.003	-0.154
-506.741	-89.676	0.299	0.089
-505.726	-200.000	-0.070	0.397
-504.712	-60.516	0.552	0.238
-503.697	71.316	0.107	0.113
-502.683	473.073	-0.140	-0.321
-501.668	24.026	0.161	-0.135
-500.653	-137.770	0.324	0.037
-499.639	-31.875	0.082	-0.046
-498.624	14.029	-0.217	0.171
-497.610	-138.311	0.067	-0.007
-496.595	-26.666	-0.338	0.200
-495.581	-200.000	-0.010	0.083
-494.566	-200.000	-0.032	0.227
-493.551	-134.368	-0.394	0.049
-492.537	-103.189	-0.132	-0.032
-491.522	465.135	-0.081	-0.184
-490.508	800.000	-0.089	-0.294
-489.493	73.207	0.130	-0.138
-488.478	-32.014	-0.198	-0.112
-487.464	183.878	0.133	-0.200
-486.449	-200.000	0.007	-0.131
-485.435	517.237	0.056	-0.133
-484.420	-101.417	0.322	-0.079
-483.405	-106.202	0.255	-0.058
-482.391	376.449	0.052	-0.107
-481.376	411.299	-0.080	0.171
-480.362	-105.479	-0.215	0.050
-479.347	800.000	0.074	0.244
-478.332	-26.818	0.235	0.139
-477.318	-39.017	-0.257	-0.137
-476.303	800.000	0.160	0.531
-475.289	-10.081	0.071	0.048
-474.274	-108.395	-0.166	0.036
-473.259	-112.495	0.239	0.048
-472.245	-131.662	-0.380	0.051
-471.230	-63.166	0.092	0.039
-470.216	-75.428	0.253	-0.091
-469.201	-200.000	-0.039	-0.309
-468.186	143.404	-0.187	0.252
-467.172	-27.461	-0.188	0.111
-466.157	800.000	-0.076	-0.213
-465.143	-72.773	-0.048	0.018
-464.128	800.000	0.046	-0.142
-463.113	630.457	0.061	-0.156
-462.099	-14.579	-0.172	0.112
-461.084	555.657	-0.099	-0.241
-460.070	-38.083	-0.249	-0.134
-459.055	-73.712	-0.099	0.036
-458.040	252.835	0.182	-0.314
-457.026	-95.166	-0.146	0.040
-456.011	-146.547	0.109	-0.010
-454.997	-121.684	0.321	0.054
-453.982	-148.739	0.315	-0.026
-452.968	800.000	-0.048	0.138
-451.953	-200.000	0.001	0.208
-450.938	800.000	-0.084	0.255
-449.924	-4.225	0.157	-0.110
-448.909	-10.052	-0.021	-0.014
-447.895	64.481	0.107	-0.109
-446.880	-53.586	-0.139	-0.064
-445.865	-137.145	-0.400	-0.046
-444.851	-127.669	0.171	0.025
-443.836	-11.219	-0.408	0.272
-442.822	800.000	0.045	-0.176
-441.807	-9.301	0.037	0.025
-440.792	599.222	0.062	0.156
-439.778	800.000	-0.114	0.483
-438.763	-58.320	0.336	0.148
-437.749	-37.840	0.150	0.081
-436.734	-45.819	-0.153	-0.077
-435.719	24.159	-0.186	-0.156
-434.705	-200.000	-0.016	0.136
-433.690	-4.220	-0.380	-0.266
-432.676	176.769	-0.200	0.295
-431.661	-64.464	-0.266	0.109
-430.646	15.879	-0.033	0.026
-429.632	341.127	0.156	0.309
-428.617	190.701	-0.229	0.348
-427.603	-120.409	0.120	0.021
-426.588	-95.354	-0.397	0.108
-425.573	-48.676	0.119	-0.058
-424.559	39.268	-0.204	0.185
-423.544	-53.799	-0.068	0.031
-422.530	244.202	-0.107	-0.181
-421.515	-7.733	0.276	0.189
-420.500	16.233	-0.064	0.051
-419.486	401.229	0.117	-0.249
-418.471	-58.437	-0.206	0.091
-417.457	-94.948	0.139	0.038
-416.442	-110.454	0.119	-0.025
-415.428	-88.437	0.046	0.014
-414.413	93.982	-0.270	0.309
-413.398	-118.741	0.221	0.039
-412.384	18.533	0.085	0.069
-411.369	-200.000	0.029	0.179
-410.355	-27.101	0.160	0.094
-409.340	-169.215	0.281	-0.010
-408.325	800.000	-0.080	-0.249
-407.311	158.769	-0.034	0.048
-406.296	487.095	0.125	0.289
-405.282	-200.000	0.014	0.241
-404.267	-56.116	-0.098	0.044
-403.252	-200.000	-0.004	0.097
-402.238	-200.000	0.026	-0.122
-401.223	-173.208	-0.056	-0.002
-400.209	169.476	-0.292	0.421
-399.194	-12.004	0.243	0.161
-398.179	800.000	0.041	-0.154
-397.165	-12.499	0.034	0.022
-396.150	315.817	0.091	0.174
-395.136	-105.850	-0.249	0.057
-394.121	542.056	0.029	-0.071
-393.106	-37.168	0.325	-0.176
-392.092	-200.000	0.017	-0.110
-391.077	51.652	0.114	-0.110
-390.063	51.231	0.333	-0.319
-389.048	179.721	-0.099	-0.146
-388.033	47.552	0.071	0.067
-387.019	2.742	0.097	-0.071
-386.004	52.653	0.035	-0.034
-384.990	293.357	0.075	0.138
-383.975	1.900	0.078	-0.057
-382.960	800.000	0.118	-0.348
-381.946	325.455	0.066	0.128
-380.931	-34.772	0.070	0.039
-379.917	-200.000	0.020	-0.419
-378.902	-74.284	0.253	-0.092
-377.888	-200.000	0.079	-0.584
-376.873	-45.059	0.175	-0.088
-375.858	-148.290	0.229	-0.019
-374.844	-200.000	-0.078	-0.355
-373.829	8.980	0.062	-0.047
-372.815	188.190	0.102	0.154
-371.800	-200.000	0.021	0.271
-370.785	-70.320	-0.191	0.073
-369.771	800.000	-0.086	0.329
-368.756	-72.058	-0.162	-0.061
-367.742	-200.000	0.004	0.152
-366.727	-40.027	-0.116	0.061
-365.712	-47.992	0.196	-0.096
-364.698	-125.090	-0.208	0.032
-363.683	800.000	0.007	0.021
-362.669	-134.789	-0.100	0.012
-361.654	473.101	-0.053	0.121
-360.639	-200.000	0.001	-0.057
-359.625	800.000	0.039	-0.128
-358.610	-108.074	-0.337	-0.074
-357.596	509.298	-0.134	-0.314
-356.581	229.368	-0.103	-0.169
-355.566	-149.912	-0.129	0.010
-354.552	-77.235	0.395	0.139
-353.537	-58.641	-0.227	0.099
-352.523	-125.433	0.126	-0.019
-351.508	13.398	0.151	0.118
-350.493	-86.122	-0.381	0.119
-349.479	-198.737	-0.380	-0.002
-348.464	137.574	-0.185	-0.245
-347.450	-124.775	-0.318	-0.050
-346.435	-200.000	-0.002	-0.135
-345.420	-200.000	0.032	-0.207
-344.406	-200.000	0.030	0.137
-343.391	-200.000	0.005	-0.131
-342.377	-200.000	0.009	0.057
-341.362	45.825	-0.181	-0.169
-340.348	-200.000	-0.004	-0.172
-339.333	-200.000	0.036	-0.385
-338.318	-119.822	0.115	0.020
-337.304	53.479	-0.212	0.205
-336.289	-105.285	0.264	-0.061
-335.275	-70.114	0.091	-0.035
-334.260	800.000	-0.032	-0.097
-333.245	-200.000	0.023	0.129
-332.231	-23.465	-0.386	-0.234
-331.216	-154.466	-0.289	-0.019
-330.202	-200.000	0.004	0.148
-329.187	800.000	0.040	0.119
-328.172	57.835	0.141	-0.139
-327.158	-200.000	-0.010	-0.222
-326.143	-6.841	-0.062	-0.043
-325.129	621.835	0.055	-0.140
-324.114	800.000	-0.020	0.060
-323.099	-157.310	0.030	-0.002
-322.085	82.264	0.067	0.073
-321.070	-1.453	0.223	-0.158
-320.056	800.000	-0.062	-0.224
-319.041	800.000	-0.049	-0.174
-318.026	-200.000	0.023	-0.122
-317.012	193.041	0.135	0.206
-315.997	156.886	-0.220	0.306
-314.983	92.914	-0.120	0.137
-313.968	-200.000	-0.018	-0.254
-312.953	-200.000	0.002	0.015
-311.939	-109.013	-0.107	0.023
-310.924	142.043	-0.147	0.196
-309.910	45.177	-0.121	0.112
-308.895	-164.952	-0.177	0.008
-307.880	-57.059	-0.047	0.021
-306.866	-87.178	-0.225	0.069
-305.851	-63.758	-0.282	0.116
-304.837	-200.000	-0.045	0.277
-303.822	316.482	0.135	-0.256
-302.807	-122.941	-0.118	-0.019
-301.793	-199.109	0.349	-0.002
-300.778	49.493	-0.131	0.125
-299.764	334.467	0.008	-0.016
-298.749	800.000	0.079	0.222
-297.735	-192.413	0.185	-0.002
-296.720	-94.177	0.103	0.028
-295.705	-53.984	-0.197	0.090
-294.691	-200.000	0.045	-0.404
-293.676	800.000	0.033	-0.100
-292.662	-61.065	-0.378	0.160
-291.647	283.378	0.071	0.128
-290.632	-92.206	0.307	-0.087
-289.618	-21.550	0.158	-0.097
-288.603	-200.000	0.016	0.200
-287.589	-99.642	0.422	0.107
-286.574	800.000	0.054	-0.199
-285.559	-37.264	0.093	0.050
-284.545	-13.420	0.146	0.095
-283.530	13.885	-0.100	-0.078
-282.516	-46.121	0.228	0.113
-281.501	555.155	0.020	0.047
-280.486	12.775	-0.202	0.157
-279.472	134.121	-0.033	-0.043
-278.457	195.376	0.114	-0.174
-277.443	-107.506	-0.113	0.025
-276.428	-36.928	0.275	-0.148
-275.413	-50.421	0.076	0.036
-274.399	800.000	0.078	-0.236
-273.384	-200.000	-0.036	0.433
-272.370	-200.000	0.018	0.138
-271.355	70.060	-0.184	0.191
-270.340	588.554	0.121	-0.299
-269.326	258.189	0.086	-0.149
-268.311	-20.807	-0.163	0.100
-267.297	-42.745	0.181	0.093
-266.282	-34.937	-0.047	-0.026
-265.267	74.342	-0.065	0.069
-264.253	365.107	-0.186	-0.376
-263.238	-166.798	-0.026	0.001
-262.224	-200.000	-0.042	-0.345
-261.209	-32.084	0.176	-0.099
-260.195	-58.744	-0.097	-0.042
-259.180	-200.000	0.039	-0.265
-258.165	29.108	-0.157	-0.134
-257.151	51.453	-0.164	0.157
-256.136	179.187	-0.198	0.291
-255.122	-130.474	0.166	0.023
-254.107	-200.000	0.016	-0.437
-253.092	-200.000	-0.018	0.094
-252.078	-171.467	-0.131	0.004
-251.063	-181.341	-0.186	-0.004
-250.049	-105.379	0.281	-0.064
-249.034	-200.000	0.016	-0.124
-248.019	-125.419	0.118	0.018
-247.005	107.984	-0.097	0.116
-245.990	434.469	0.147	0.322
-244.976	-39.214	-0.220	-0.116
-243.961	-7.576	-0.032	0.022
-242.946	-23.613	-0.383	-0.231
-241.932	251.874	0.066	0.112
-240.917	-93.602	0.324	0.090
-239.903	201.904	0.112	0.173
-238.888	-200.000	-0.076	0.376
-237.873	644.485	0.088	-0.227
-236.859	8.193	-0.178	-0.134
-235.844	-200.000	-0.034	0.213
-234.830	-200.000	-0.013	-0.064
-233.815	-23.931	-0.107	-0.064
-232.800	-137.434	0.444	0.050
-231.786	-200.000	0.003	0.395
-230.771	-200.000	-0.084	0.394
-229.757	30.159	-0.202	0.173
-228.742	-25.129	0.328	0.195
-227.727	-74.665	0.241	-0.087
-226.713	71.871	-0.304	0.318
-225.698	-200.000	-0.007	0.147
-224.684	-161.998	-0.206	0.010
-223.669	-25.684	0.268	-0.159
-222.655	285.878	0.042	0.075
-221.640	86.929	-0.026	0.029
-220.625	222.303	-0.173	0.279
-219.611	-101.648	0.165	-0.040
-218.596	-76.925	0.208	0.073
-217.582	133.255	0.044	0.057
-216.567	800.000	-0.081	-0.227
-215.552	-90.873	0.321	-0.093
-214.538	-39.468	0.283	-0.149
-213.523	67.262	0.211	-0.216
-212.509	-35.951	0.318	-0.173
-211.494	100.045	-0.194	0.225
-210.479	437.392	0.088	-0.192
-209.465	400.019	-0.085	0.179
-208.450	73.651	0.110	-0.115
-207.436	800.000	0.093	0.404
-206.421	-99.441	-0.215	0.054
-205.406	800.000	-0.088	-0.296
-204.392	-108.541	-0.120	-0.026
-203.377	-92.201	0.040	0.011
-202.363	30.626	-0.139	0.119
-201.348	62.230	-0.114	0.114
-200.333	-21.937	0.105	-0.064
-199.319	-200.000	-0.036	-0.238
-198.304	319.479	0.084	-0.159
-197.290	800.000	0.050	-0.166
-196.275	0.017	0.073	0.052
-195.260	125.765	-0.091	0.115
-194.246	141.398	0.217	0.288
-193.231	-21.402	0.131	-0.080
-192.217	-200.000	-0.067	-0.301
-191.202	-5.839	-0.255	0.175
-190.187	-46.370	-0.282	0.139
-189.173	116.695	-0.065	0.080
-188.158	800.000	0.035	0.145
-187.144	-200.000	-0.041	0.212
-186.129	-200.000	0.033	-0.344
-185.114	-96.017	0.190	-0.051
-184.100	-2.460	0.079	0.055
-183.085	-118.360	-0.335	-0.060
-182.071	6.194	-0.314	0.233
-181.056	83.304	0.130	-0.142
-180.042	-79.177	0.128	-0.043
-179.027	-200.000	0.480	0.002
-178.012	496.680	0.065	0.150
-176.998	800.000	0.030	0.091
-175.983	-59.639	0.332	-0.143
-174.969	-38.443	-0.201	0.107
-173.954	-200.000	0.010	0.224
-172.939	408.548	0.048	0.101
-171.925	-62.909	-0.261	0.108
-170.910	-81.407	0.294	0.097
-169.896	193.977	0.066	-0.099
-168.881	162.104	0.132	-0.186
-167.866	29.973	0.248	-0.211
-166.852	-200.000	0.043	-0.314
-165.837	-181.072	0.280	-0.006
-164.823	-100.773	0.195	-0.048
-163.808	94.720	-0.215	0.245
-162.793	-18.834	-0.256	0.160
-161.779	85.405	0.213	-0.234
-160.764	41.543	-0.069	-0.063
-159.750	-85.348	-0.288	0.090
-158.735	684.482	-0.109	-0.284
-157.720	51.010	0.339	0.322
-156.706	168.458	0.131	-0.186
-155.691	-120.981	-0.128	0.022
-154.677	3.830	-0.188	0.137
-153.662	-13.003	0.122	0.079
-152.647	-200.000	0.008	-0.213
-151.633	800.000	-0.106	-0.374
-150.618	289.386	-0.086	-0.156
-149.604	435.707	0.086	-0.188
-148.589	-200.000	-0.156	0.000
-147.574	174.961	-0.133	0.193
-146.560	800.000	0.098	-0.352
-145.545	467.077	-0.104	0.233
-144.531	800.000	0.032	0.090
-143.516	559.595	-0.080	0.192
-142.502	-200.000	-0.005	0.265
-141.487	284.615	-0.057	-0.102
-140.472	-200.000	0.054	-0.263
-139.458	99.018	-0.142	0.164
-138.443	10.845	0.100	0.076
-137.429	100.571	-0.082	-0.095
-136.414	84.294	0.054	-0.059
-135.399	-200.000	-0.030	0.148
-134.385	800.000	-0.025	0.095
-133.370	327.261	-0.060	-0.115
-132.356	-132.493	0.332	-0.043
-131.341	-200.000	-0.019	-0.110
-130.326	308.936	0.063	-0.117
-129.312	800.000	0.101	-0.350
-128.297	326.560	-0.159	0.304
-127.283	800.000	-0.062	0.200
-126.268	140.088	0.103	0.136
-125.253	88.084	0.305	0.338
-124.239	-42.647	-0.038	-0.019
-123.224	87.735	-0.174	0.192
-122.210	191.105	-0.330	-0.496
-121.195	-66.334	-0.222	-0.088
-120.180	265.221	0.098	-0.171
-119.166	-200.000	-0.012	0.220
-118.151	-4.929	0.174	0.120
-117.137	-56.043	0.031	-0.014
-116.122	61.656	0.115	-0.115
-115.107	35.940	-0.114	-0.100
-114.093	-148.622	0.138	0.011
-113.078	-86.867	0.264	-0.080
-112.064	-200.000	0.018	-0.255
-111.049	-98.724	0.162	0.041
-110.034	-33.151	0.207	0.114
-109.020	224.700	-0.145	0.235
-108.005	578.730	-0.101	-0.247
-106.991	-8.793	0.123	-0.082
-105.976	-38.613	-0.168	-0.089
-104.962	-71.564	-0.423	0.158
-103.947	697.271	-0.116	0.305
-102.932	800.000	-0.037	-0.130
-101.918	585.560	-0.038	-0.093
-100.903	633.158	0.077	0.196
-99.889	-200.000	-0.060	0.372
-98.874	-183.573	0.157	0.003
-97.859	-200.000	0.040	-0.210
-96.845	-24.448	0.203	-0.121
-95.830	339.991	-0.093	0.181
-94.816	-66.355	0.176	-0.070
-93.801	800.000	0.127	-0.413
-92.786	-65.490	0.222	-0.089
-91.772	-55.697	-0.169	0.076
-90.757	-40.699	-0.119	0.062
-89.743	-87.704	0.080	0.024
-88.728	178.876	0.135	-0.196
-87.713	64.682	0.065	0.065
-86.699	-73.946	0.289	-0.105
-85.684	-159.495	-0.095	-0.005
-84.670	-79.704	0.392	0.132
-83.655	183.855	-0.049	0.073
-82.640	-188.771	0.440	0.005
-81.626	-200.000	-0.023	-0.360
-80.611	800.000	0.052	0.199
-79.597	800.000	0.058	0.207
-78.582	-174.783	0.262	-0.007
-77.567	-77.521	0.212	0.073
-76.553	33.541	-0.170	0.147
-75.538	521.657	-0.091	0.213
-74.524	-73.460	0.301	-0.110
-73.509	-28.620	0.298	0.171
-72.494	-138.093	-0.476	0.053
-71.480	-84.798	-0.179	0.056
-70.465	11.327	-0.148	-0.113
-69.451	55.295	0.236	-0.227
-68.436	-129.881	0.482	0.066
-67.422	355.233	-0.112	-0.222
-66.407	-62.713	-0.055	0.023
-65.392	-23.517	0.273	-0.163
-64.378	-90.025	0.112	-0.032
-63.363	225.902	-0.111	0.179
-62.349	800.000	-0.117	0.368
-61.334	83.079	-0.673	-0.730
-60.319	-200.000	0.133	0.581
-59.305	-200.000	-0.028	-0.551
-58.290	671.146	0.350	0.903
-57.276	800.000	0.429	1.530
-56.261	-200.000	75.593	551.105
-55.246	514.924	1356.595	3156.713
-54.232	135.226	2611.706	3384.050
-53.217	117.633	2280.305	2797.244
-52.203	53.649	1782.792	1705.490
-51.188	45.850	1573.378	1450.246
-50.173	42.996	1543.152	1402.495
-49.159	58.971	1579.130	1547.683
-48.144	65.832	1598.855	1615.062
-47.130	46.432	1561.905	1443.526
-46.115	42.688	1547.480	1404.052
-45.100	42.414	1543.565	1398.536
-44.086	42.363	1541.873	1396.594
-43.071	42.264	1539.810	1393.981
-42.057	42.264	1538.207	1392.478
-41.042	42.298	1536.588	1391.194
-40.027	42.181	1535.495	1389.333
-39.013	42.348	1533.285	1388.435
-37.998	42.323	1531.905	1386.961
-36.984	42.319	1531.090	1386.139
-35.969	42.320	1529.610	1384.749
-34.954	42.293	1528.449	1383.457
-33.940	42.385	1526.919	1382.655
-32.925	42.361	1525.028	1380.717
-31.911	42.298	1524.056	1379.353
-30.896	42.448	1522.232	1378.676
-29.881	42.393	1521.434	1377.520
-28.867	42.437	1519.629	1376.136
-27.852	42.400	1518.400	1374.710
-26.838	42.370	1516.835	1373.034
-25.823	42.352	1515.475	1371.630
-24.809	42.297	1513.644	1369.544
-23.794	42.382	1511.796	1368.397
-22.779	42.390	1510.517	1367.238
-21.765	42.371	1509.839	1366.438
-20.750	42.279	1508.427	1364.483
-19.736	42.359	1507.347	1363.997
-18.721	42.379	1506.219	1363.054
-17.706	42.343	1505.162	1361.799
-16.692	42.295	1504.207	1360.557
-15.677	42.208	1502.936	1358.761
-14.663	42.293	1502.361	1358.766
-13.648	42.234	1501.159	1357.222
-12.633	42.227	1499.908	1355.989
-11.619	42.250	1499.322	1355.568
-10.604	42.223	1498.548	1354.631
-9.590	42.330	1497.298	1354.165
-8.575	42.220	1496.608	1352.744
-7.560	42.223	1495.720	1351.909
-6.546	42.247	1494.911	1351.286
-5.531	42.267	1493.829	1350.393
-4.517	42.185	1493.036	1349.065
-3.502	42.204	1492.024	1348.230
-2.487	42.319	1490.724	1347.769
-1.473	42.278	1489.708	1346.524
-0.458	42.318	1488.246	1345.416
0.556	40.973	1479.735	1337.091
1.571	38.385	1452.105	1294.902
2.586	33.846	1387.153	1208.084
3.600	30.536	1300.254	1112.530
4.615	27.767	1250.900	1054.233
5.629	22.994	1191.459	977.715
6.644	11.723	1098.611	843.621
7.659	2.330	1050.256	759.916
8.673	0.629	1044.309	747.140
9.688	0.280	1041.848	743.592
10.702	0.292	1040.128	742.355
11.717	0.239	1038.551	740.906
12.731	3.119	1041.651	757.244
13.746	12.234	1054.940	812.116
14.761	18.307	1061.956	847.604
15.775	17.846	1059.634	843.399
16.790	16.809	1057.004	836.114
17.804	15.643	1055.006	828.711
18.819	14.736	1053.601	823.070
19.834	14.227	1052.288	819.464
20.848	13.908	1050.634	816.537
21.863	13.600	1050.106	814.539
22.877	13.363	1049.164	812.571
23.892	13.205	1048.738	811.397
24.907	13.160	1047.728	810.320
25.921	13.156	1046.657	809.403
26.936	13.127	1046.333	808.939
27.950	13.148	1045.691	808.472
28.965	13.190	1044.932	808.020
29.980	13.277	1043.611	807.352
30.994	13.395	1042.953	807.347
32.009	13.399	1042.143	806.667
33.023	13.464	1041.356	806.301
34.038	13.438	1040.676	805.579
35.053	13.382	1039.625	804.421
36.067	13.328	1038.905	803.533
37.082	13.358	1037.520	802.534
38.096	13.345	1037.350	802.267
39.111	13.449	1036.334	801.915
40.126	13.494	1035.402	801.342
41.140	13.297	1034.854	799.893
42.155	13.136	1033.613	798.089
43.169	13.293	1032.374	797.817
44.184	13.222	1031.298	796.574
45.199	13.094	1030.545	795.304
46.213	13.101	1029.433	794.411
47.228	13.180	1028.268	793.817
48.242	13.221	1027.370	793.251
49.257	13.285	1026.570	792.873
50.271	13.235	1025.602	791.814
51.286	13.229	1024.567	790.917
52.301	13.267	1023.614	790.294
53.315	13.251	1023.274	789.884
54.330	13.237	1022.132	788.866
55.344	13.204	1021.330	788.020
56.359	13.128	1020.384	786.859
57.374	13.142	1019.804	786.405
58.388	13.071	1018.729	785.173
59.403	13.133	1017.827	784.699
60.417	13.124	1017.164	784.076
61.432	13.053	1016.644	783.270
62.447	13.117	1015.508	782.628
63.461	13.145	1014.571	781.973
64.476	13.198	1013.582	781.390
65.490	13.015	1012.978	779.991
66.505	13.093	1011.964	779.511
67.520	13.105	1011.276	778.965
68.534	13.203	1010.416	778.695
69.549	13.147	1009.699	777.813
70.563	13.154	1008.802	777.087
71.578	13.190	1008.300	776.801
72.593	13.061	1007.887	775.804
73.607	12.967	1006.960	774.583
74.622	12.969	1005.565	773.451
75.636	12.986	1004.828	772.894
76.651	12.988	1003.998	772.197
77.666	13.168	1003.003	772.206
78.680	13.049	1002.276	771.020
79.695	13.020	1001.945	770.560
80.709	13.094	1001.104	770.191
81.724	13.134	1000.411	769.776
82.739	13.191	999.369	769.173
83.753	13.144	999.144	768.711
84.768	13.297	997.935	768.425
85.782	13.254	997.108	767.520
86.797	13.354	996.200	767.220
87.812	13.538	995.330	767.333
88.826	13.329	994.886	765.955
89.841	13.242	994.049	764.842
90.855	13.321	993.381	764.624
91.870	13.253	992.885	763.859
92.884	13.302	991.678	763.090
93.899	13.299	991.115	762.576
94.914	13.373	990.232	762.173
95.928	13.455	989.473	761.897
96.943	13.418	988.764	761.113
97.957	13.400	988.100	760.453
98.972	13.312	987.527	759.537
99.987	13.330	986.718	758.934
101.001	13.359	985.678	758.196
102.016	13.432	984.906	757.870
103.030	13.424	984.087	757.136
104.045	13.373	983.006	756.004
105.060	13.359	982.243	755.289
106.074	13.291	981.334	754.212
107.089	13.336	980.405	753.638
108.103	13.216	979.287	752.163
109.118	13.152	978.926	751.529
110.133	13.267	977.650	751.005
111.147	13.190	977.156	750.211
112.162	13.083	976.687	749.297
113.176	13.275	975.330	749.062
114.191	13.363	974.206	748.530
115.206	13.332	973.835	748.038
116.220	13.230	972.948	746.831
117.235	13.220	972.004	745.996
118.249	13.324	971.515	746.023
119.264	13.213	970.179	744.430
120.279	13.215	969.458	743.818
121.293	13.319	968.342	743.367
122.308	13.351	967.415	742.733
123.322	13.153	967.361	741.735
124.337	13.303	965.710	741.078
125.352	13.189	964.952	739.920
126.366	13.179	963.740	738.877
127.381	13.227	962.741	738.262
128.395	13.116	961.964	737.107
129.410	13.221	960.761	736.585
130.424	13.297	959.825	736.143
131.439	13.232	958.885	735.065
132.454	13.212	958.425	734.558
133.468	13.285	957.335	733.983
134.483	13.238	957.189	733.597
135.497	13.296	956.277	733.090
136.512	13.307	955.711	732.642
137.527	13.424	954.400	732.091
138.541	13.260	953.935	730.943
139.556	13.390	953.463	731.089
140.570	13.265	952.880	730.026
141.585	13.384	951.642	729.537
142.600	13.414	950.871	729.014
143.614	13.475	950.227	728.726
144.629	13.468	949.982	728.443
145.643	13.535	949.071	727.973
146.658	13.421	948.398	726.892
147.673	13.409	947.464	726.059
148.687	13.392	946.564	725.233
149.702	13.381	945.425	724.248
150.716	13.335	944.595	723.345
151.731	13.406	943.800	722.982
152.746	13.440	942.852	722.340
153.760	13.423	942.245	721.739
154.775	13.391	941.920	721.285
155.789	13.462	941.207	720.983
156.804	13.549	940.578	720.820
157.819	13.450	939.408	719.428
158.833	13.435	938.735	718.783
159.848	13.432	938.186	718.285
160.862	13.412	937.684	717.753
161.877	13.439	936.973	717.261
162.892	13.457	935.961	716.501
163.906	13.469	934.783	715.587
164.921	13.487	934.085	715.069
165.935	13.438	933.124	714.056
166.950	13.480	932.353	713.585
167.964	13.507	931.757	713.183
168.979	13.634	930.156	712.440
169.994	13.371	929.873	711.029
171.008	13.504	928.945	710.828
172.023	13.520	927.950	710.071
173.037	13.449	927.296	709.203
174.052	13.487	926.817	708.938
175.067	13.728	925.734	709.078
176.081	13.588	924.866	707.752
177.096	13.528	924.375	707.060
178.110	13.583	923.455	706.527
179.125	13.477	923.404	705.971
180.140	13.514	922.383	705.288
181.154	13.570	921.654	704.905
182.169	13.713	920.737	704.752
183.183	13.594	920.228	703.793
184.198	13.490	919.744	702.919
185.213	13.654	918.780	702.814
186.227	13.756	918.034	702.616
187.242	13.722	917.619	702.090
188.256	13.795	916.869	701.761
189.271	13.800	916.268	701.263
190.286	13.818	915.495	700.686
191.300	13.730	914.561	699.537
192.315	13.539	914.283	698.456
193.329	13.510	913.269	697.499
194.344	13.599	912.752	697.415
195.359	13.648	912.200	697.139
196.373	13.740	911.496	696.925
197.388	13.701	911.798	696.931
198.402	13.830	910.850	696.687
199.417	13.903	910.004	696.283
200.432	13.976	909.791	696.364
201.446	13.936	909.332	695.787
202.461	13.943	908.951	695.463
203.475	13.995	908.448	695.231
204.490	14.093	907.575	694.912
205.504	14.053	906.777	694.074
206.519	13.979	906.064	693.158
207.534	14.082	905.416	693.028
208.548	14.021	904.926	692.339
209.563	13.915	904.199	691.279
210.577	13.990	903.381	690.904
211.592	14.030	902.683	690.478
212.607	13.900	902.280	689.567
213.621	14.050	901.829	689.784
214.636	14.160	900.462	689.134
215.650	14.189	900.064	688.889
216.665	14.122	899.792	688.342
217.680	14.078	899.007	687.500
218.694	14.218	898.626	687.724
219.709	14.162	898.108	687.035
220.723	14.137	897.615	686.493
221.738	14.190	896.830	686.052
222.753	14.242	895.894	685.488
223.767	14.238	895.518	685.126
224.782	14.245	894.758	684.512
225.796	14.247	893.776	683.709
226.811	14.237	893.239	683.196
227.826	14.287	892.486	682.763
228.840	14.277	891.751	682.101
229.855	14.321	891.142	681.753
230.869	14.310	890.641	681.267
231.884	14.291	889.872	680.540
232.899	14.319	889.577	680.366
233.913	14.165	888.751	679.049
234.928	14.373	887.595	678.952
235.942	14.316	887.295	678.430
236.957	14.339	886.591	677.926
237.972	14.430	885.790	677.622
238.986	14.367	885.230	676.880
240.001	14.383	884.467	676.299
241.015	14.282	883.901	675.397
242.030	14.445	883.086	675.375
243.045	14.430	882.272	674.632
244.059	14.457	881.704	674.248
245.074	14.443	881.130	673.692
246.088	14.392	880.200	672.716
247.103	14.496	880.057	672.967
248.117	14.549	879.664	672.822
249.132	14.639	878.714	672.397
250.147	14.527	878.680	671.859
251.161	14.541	877.974	671.318
252.176	14.732	877.067	671.335
253.190	14.578	876.659	670.343
254.205	14.652	875.987	670.066
255.220	14.843	875.630	670.501
256.234	14.751	874.613	669.295
257.249	14.844	874.157	669.258
258.263	14.939	873.272	668.902
259.278	14.826	872.998	668.182
260.293	14.985	872.144	668.102
261.307	15.099	871.023	667.639
262.322	14.897	871.149	666.870
263.336	15.005	870.520	666.762
264.351	15.099	869.640	666.402
265.366	15.008	869.510	665.883
266.380	15.016	869.016	665.476
267.395	14.946	868.438	664.697
268.409	15.004	867.700	664.304
269.424	14.956	866.806	663.370
270.439	15.024	866.467	663.323
271.453	15.131	865.334	662.817
272.468	15.053	864.651	661.929
273.482	15.045	863.832	661.212
274.497	15.126	863.130	660.936
275.512	15.101	862.368	660.194
276.526	14.960	862.304	659.530
277.541	15.089	861.751	659.559
278.555	15.060	860.971	658.789
279.570	15.040	860.674	658.425
280.585	15.103	859.883	658.006
281.599	15.342	859.104	658.294
282.614	15.230	858.836	657.591
283.628	15.129	858.297	656.723
284.643	15.194	857.822	656.554
285.657	15.337	857.081	656.490
286.672	15.226	856.491	655.544
287.687	15.128	856.320	654.974
288.701	15.306	855.938	655.319
289.716	15.330	855.012	654.646
290.730	15.235	854.688	653.970
291.745	15.267	853.816	653.370
292.760	15.281	852.810	652.596
293.774	15.267	852.580	652.308
294.789	15.419	851.847	652.282
295.803	15.454	851.118	651.801
296.818	15.385	850.909	651.314
297.833	15.474	849.636	650.626
298.847	15.405	849.053	649.855
299.862	15.437	848.509	649.506
300.876	15.525	847.745	649.204
301.891	15.410	847.563	648.564
302.906	15.564	846.639	648.392
303.920	15.606	846.119	648.099
304.935	15.508	845.661	647.313
305.949	15.753	844.764	647.512
306.964	15.642	844.509	646.833
307.979	15.542	843.941	645.958
308.993	15.686	843.209	645.893
310.008	15.655	842.816	645.415
311.022	15.693	842.275	645.088
312.037	15.675	841.645	644.482
313.052	15.720	841.113	644.187
314.066	15.644	840.653	643.489
315.081	15.674	840.059	643.091
316.095	15.601	839.509	642.335
317.110	15.584	838.809	641.676
318.125	15.703	838.429	641.783
319.139	15.726	837.716	641.270
320.154	15.732	837.297	640.915
321.168	15.777	836.750	640.609
322.183	15.699	836.187	639.827
323.197	15.744	835.821	639.661
324.212	15.710	835.418	639.164
325.227	15.885	834.630	639.170
326.241	15.833	834.200	638.587
327.256	15.800	833.488	637.862
328.270	15.834	832.815	637.419
329.285	15.937	832.091	637.197
330.300	15.763	831.579	636.090
331.314	15.740	831.456	635.853
332.329	15.830	830.810	635.643
333.343	15.784	830.158	634.916
334.358	15.930	829.669	635.034
335.373	15.983	828.980	634.653
336.387	15.856	828.745	633.938
337.402	15.888	827.986	633.421
338.416	15.982	827.390	633.261
339.431	16.002	826.909	632.913
340.446	16.134	826.268	632.862
341.460	16.157	825.788	632.522
342.475	16.148	825.138	631.937
343.489	16.229	824.372	631.598
344.504	16.303	823.922	631.474
345.519	16.301	823.359	630.980
346.533	16.275	823.130	630.649
347.548	16.267	822.512	630.090
348.562	16.281	821.797	629.540
349.577	16.151	821.561	628.820
350.592	16.037	821.232	628.086
351.606	16.234	820.662	628.329
352.621	16.139	820.107	627.495
353.635	16.080	819.988	627.127
354.650	16.098	819.305	626.618
355.665	16.118	818.997	626.401
356.679	16.159	818.191	625.880
357.694	16.194	817.882	625.718
358.708	16.370	817.123	625.735
359.723	16.292	816.909	625.226
360.738	16.247	816.812	624.929
361.752	16.386	815.616	624.473
362.767	16.390	815.188	624.106
363.781	16.415	814.763	623.817
364.796	16.517	814.538	623.965
365.810	16.434	813.811	623.049
366.825	16.493	813.749	623.164
367.840	16.528	813.298	622.894
368.854	16.634	813.047	623.036
369.869	16.597	812.672	622.557
370.883	16.531	811.853	621.629
371.898	16.548	811.142	621.093
372.913	16.653	810.438	620.886
373.927	16.547	809.935	620.056
374.942	16.583	809.611	619.885
375.956	16.465	809.201	619.085
376.971	16.607	808.320	618.876
377.986	16.589	808.009	618.518
379.000	16.707	807.429	618.450
380.015	16.779	806.942	618.284
381.029	16.759	806.108	617.518
382.044	16.725	805.650	616.988
383.059	16.787	804.934	616.612
384.073	16.860	804.920	616.812
385.088	16.923	804.183	616.420
386.102	16.833	803.623	615.609
387.117	16.703	803.186	614.748
388.132	16.679	802.546	614.118
389.146	16.883	801.946	614.345
390.161	16.876	801.951	614.268
391.175	16.823	801.723	613.846
392.190	16.906	800.990	613.531
393.205	16.813	800.627	612.861
394.219	16.811	800.113	612.406
395.234	16.717	800.043	611.961
396.248	16.848	799.358	611.853
397.263	16.900	798.519	611.345
398.278	16.794	798.405	610.823
399.292	16.914	797.936	610.842
400.307	16.723	797.705	609.922
401.321	16.803	797.239	609.801
402.336	16.916	796.785	609.805
403.350	17.013	796.095	609.573
404.365	16.934	795.731	608.957
405.380	17.076	795.294	609.076
406.394	17.184	794.722	608.973
407.409	17.133	794.093	608.254
408.423	17.129	793.878	608.022
409.438	17.220	793.554	608.045
410.453	17.099	793.064	607.184
411.467	17.305	792.515	607.444
412.482	17.154	792.303	606.689
413.496	17.314	791.402	606.518
414.511	17.098	791.715	605.931
415.526	17.407	790.908	606.363
416.540	17.477	790.200	606.014
417.555	17.358	790.158	605.504
418.569	17.391	789.657	605.187
419.584	17.141	789.460	604.090
420.599	17.283	788.874	604.095
421.613	87.031	1253.232	1335.917
422.628	73.832	1320.936	1336.074
