DTS Sentinel unit serial number:	SN413079Multiplexer serial number:	ORYXHardware model number:	OX4-SRSoftware version number:	ORYX F/W v4.00 Oryx Data Collector v3.7.2.0data status	okinstallation	princeton_trtdifferential loss correction	single-endedforward channel	channel 3reverse channel	N/Adate	2019/09/18time	05:48:35forward acquisition time	60.00reverse acquisition time	0.00gamma	496.2192k internal	0.2343k external	0.2343temperature offset calibration	0.9951default loss term (dB/km)	0.3790temperature slope calibration	1.0000multiplexer offset coefficient	1.0000multiplexer slope coefficient	1.0000fibre end	0.00T internal ref (°C)	23.27T ext. ref 1 (°C)	0.18T ext. ref 2 (°C)	16.94length (m)	temperature (°C)	Stokes	anti-Stokes-747.200	9.109	-0.142	0.107
-746.185	-200.000	-0.019	0.338
-745.171	243.686	0.076	-0.128
-744.156	-149.417	-0.312	0.025
-743.142	-200.000	0.029	-0.133
-742.127	-200.000	0.034	0.432
-741.112	61.743	-0.090	0.090
-740.098	-64.292	-0.297	-0.121
-739.083	-57.520	-0.085	-0.038
-738.069	632.499	-0.041	-0.105
-737.054	-33.716	0.083	0.046
-736.039	75.489	-0.247	0.261
-735.025	800.000	-0.014	-0.059
-734.010	282.758	0.007	-0.012
-732.996	-200.000	-0.011	-0.537
-731.981	-200.000	0.050	-0.287
-730.966	112.460	0.016	-0.020
-729.952	26.509	0.179	0.150
-728.937	513.129	-0.116	-0.269
-727.923	-30.973	-0.294	0.166
-726.908	-43.509	-0.289	0.146
-725.894	-140.212	-0.405	0.042
-724.879	-115.110	-0.359	0.068
-723.864	8.117	-0.294	-0.220
-722.850	-200.000	0.021	-0.155
-721.835	800.000	-0.045	0.187
-720.821	-200.000	-0.038	-0.230
-719.806	-177.260	0.280	-0.007
-718.791	-124.430	-0.330	0.051
-717.777	-156.234	0.281	0.018
-716.762	-133.040	-0.228	-0.029
-715.748	442.100	0.088	-0.193
-714.733	-9.731	-0.096	-0.064
-713.718	-62.749	-0.177	0.073
-712.704	544.924	-0.074	0.177
-711.689	800.000	-0.076	0.301
-710.675	-52.902	-0.329	0.152
-709.660	305.641	0.036	0.066
-708.645	-200.000	0.052	-0.253
-707.631	727.264	0.128	0.340
-706.616	800.000	0.115	0.353
-705.602	-200.000	0.020	0.131
-704.587	63.017	0.163	0.163
-703.572	-105.721	0.480	0.109
-702.558	-200.000	0.493	-0.000
-701.543	-72.700	-0.183	-0.067
-700.529	-200.000	-0.004	0.060
-699.514	-182.704	0.260	-0.005
-698.499	125.157	-0.072	0.091
-697.485	800.000	0.044	-0.157
-696.470	689.939	-0.114	0.299
-695.456	800.000	0.052	-0.209
-694.441	101.880	-0.061	0.071
-693.426	-63.036	-0.221	0.091
-692.412	-32.602	0.066	0.037
-691.397	-200.000	-0.443	-0.000
-690.383	107.523	-0.170	-0.203
-689.368	426.063	0.093	-0.200
-688.354	-11.159	-0.276	0.182
-687.339	-166.646	0.361	-0.015
-686.324	800.000	0.077	-0.302
-685.310	800.000	0.069	0.225
-684.295	-68.169	0.101	0.039
-683.281	454.783	-0.090	-0.198
-682.266	519.597	0.093	-0.218
-681.251	99.737	0.171	0.197
-680.237	-75.886	0.260	0.092
-679.222	-200.000	0.050	-0.249
-678.208	-80.972	0.062	-0.020
-677.193	-13.331	0.041	-0.027
-676.178	304.039	0.025	-0.046
-675.164	-29.304	0.062	0.036
-674.149	309.637	0.098	0.183
-673.135	65.177	0.067	0.067
-672.120	-48.434	0.319	0.153
-671.105	800.000	-0.044	-0.129
-670.091	-38.060	0.079	-0.042
-669.076	-70.319	-0.305	0.116
-668.062	472.123	0.147	-0.331
-667.047	246.396	-0.072	0.121
-666.032	197.862	-0.109	-0.167
-665.018	800.000	0.129	0.396
-664.003	-200.000	0.016	-0.168
-662.989	-145.631	-0.178	0.016
-661.974	32.758	-0.323	0.279
-660.959	-61.237	-0.255	-0.107
-659.945	379.559	0.077	0.158
-658.930	259.725	-0.035	0.060
-657.916	-200.000	-0.049	-0.260
-656.901	-61.742	0.182	-0.076
-655.886	-141.411	-0.311	0.031
-654.872	-178.723	-0.326	0.007
-653.857	40.635	0.124	-0.111
-652.843	-134.504	0.245	-0.030
-651.828	800.000	-0.053	-0.218
-650.814	168.875	0.135	0.191
-649.799	-200.000	-0.025	0.130
-648.784	-200.000	0.034	-0.153
-647.770	800.000	-0.059	-0.250
-646.755	281.264	0.048	0.086
-645.741	19.058	0.110	0.088
-644.726	43.523	-0.256	-0.233
-643.711	-110.216	-0.136	0.028
-642.697	36.893	-0.030	-0.027
-641.682	-83.224	-0.142	-0.046
-640.668	-200.000	0.028	-0.177
-639.653	-13.103	0.309	0.200
-638.638	-34.246	-0.193	0.106
-637.624	82.285	0.136	-0.148
-636.609	-200.000	0.004	0.120
-635.595	437.600	0.022	-0.048
-634.580	-7.768	0.145	-0.098
-633.565	800.000	-0.058	0.217
-632.551	-20.789	0.281	0.172
-631.536	110.875	-0.105	-0.126
-630.522	-123.231	0.169	0.027
-629.507	169.580	0.126	0.180
-628.492	19.078	-0.142	0.113
-627.478	479.016	-0.112	0.253
-626.463	90.090	-0.113	0.126
-625.449	75.413	0.104	0.109
-624.434	299.036	0.238	0.437
-623.419	414.629	0.106	0.224
-622.405	35.032	0.259	0.226
-621.390	367.352	-0.062	-0.125
-620.376	-127.139	-0.229	0.033
-619.361	102.183	-0.303	0.352
-618.346	-200.000	-0.005	-0.235
-617.332	-11.342	-0.184	-0.121
-616.317	210.339	-0.237	-0.371
-615.303	99.078	-0.201	0.231
-614.288	-164.414	-0.417	-0.019
-613.273	-80.221	-0.217	0.072
-612.259	8.009	-0.110	0.082
-611.244	-65.924	-0.337	-0.134
-610.230	158.714	-0.171	-0.237
-609.215	14.894	0.280	0.218
-608.201	128.441	-0.245	0.311
-607.186	-33.719	0.069	0.038
-606.171	-200.000	-0.028	-0.223
-605.157	-108.648	0.264	-0.056
-604.142	55.579	0.142	-0.137
-603.128	-6.533	0.118	-0.080
-602.113	-91.332	-0.065	-0.018
-601.098	-78.853	0.076	0.026
-600.084	-18.928	0.326	0.202
-599.069	5.805	0.225	-0.165
-598.055	-200.000	-0.060	-0.281
-597.040	94.365	0.195	-0.221
-596.025	-99.630	-0.098	0.024
-595.011	211.797	-0.204	-0.320
-593.996	800.000	0.087	-0.258
-592.982	-39.013	-0.119	0.062
-591.967	-27.950	-0.247	0.142
-590.952	-200.000	0.018	0.114
-589.938	220.774	0.048	0.077
-588.923	-200.000	-0.017	0.137
-587.909	-200.000	0.008	0.145
-586.894	800.000	0.124	-0.354
-585.879	-143.341	-0.071	-0.007
-584.865	504.540	0.087	-0.200
-583.850	-200.000	0.032	-0.335
-582.836	35.665	-0.047	-0.041
-581.821	-31.758	0.218	0.121
-580.806	-34.192	-0.090	0.049
-579.792	286.992	-0.067	0.121
-578.777	-117.479	0.204	-0.037
-577.763	800.000	-0.109	-0.373
-576.748	-200.000	0.032	0.171
-575.733	3.669	-0.152	0.110
-574.719	268.520	0.097	-0.169
-573.704	318.682	0.072	-0.136
-572.690	340.305	0.097	-0.189
-571.675	36.578	0.078	0.068
-570.661	12.842	-0.174	0.134
-569.646	34.989	0.184	0.160
-568.631	800.000	-0.024	-0.087
-567.617	-200.000	0.019	-0.114
-566.602	800.000	-0.030	-0.092
-565.588	420.106	-0.133	0.284
-564.573	694.569	-0.025	0.064
-563.558	-200.000	0.035	0.204
-562.544	-4.942	-0.084	-0.058
-561.529	-200.000	0.001	0.087
-560.515	479.766	0.129	0.292
-559.500	-51.912	-0.305	-0.141
-558.485	-61.140	0.196	0.082
-557.471	157.725	-0.058	-0.080
-556.456	800.000	0.085	-0.363
-555.442	-188.788	-0.133	-0.002
-554.427	800.000	0.104	0.296
-553.412	52.299	-0.139	0.132
-552.398	-44.287	0.153	-0.076
-551.383	800.000	-0.034	-0.130
-550.369	-200.000	-0.001	-0.208
-549.354	301.027	0.036	0.066
-548.339	247.425	0.056	0.094
-547.325	58.925	-0.296	-0.289
-546.310	411.624	0.064	-0.135
-545.296	-103.396	0.134	-0.031
-544.281	133.781	0.295	-0.380
-543.266	-116.373	0.152	-0.028
-542.252	4.048	0.202	0.147
-541.237	-14.193	0.054	0.035
-540.223	800.000	0.087	-0.297
-539.208	386.239	-0.142	0.291
-538.193	214.783	0.062	0.098
-537.179	-200.000	0.043	0.192
-536.164	-82.450	-0.197	-0.063
-535.150	-91.225	-0.083	-0.024
-534.135	800.000	0.049	-0.165
-533.121	-79.971	0.235	0.078
-532.106	-101.463	-0.322	0.078
-531.091	-54.905	0.121	-0.054
-530.077	129.660	0.199	-0.253
-529.062	-127.834	-0.114	-0.016
-528.048	800.000	0.014	-0.051
-527.033	-52.000	0.238	-0.110
-526.018	-200.000	-0.022	0.143
-525.004	-200.000	0.004	0.185
-523.989	-87.404	-0.393	-0.118
-522.975	431.868	-0.070	-0.152
-521.960	150.981	-0.048	0.065
-520.945	276.803	0.062	0.110
-519.931	-200.000	0.022	0.227
-518.916	-65.297	-0.245	0.098
-517.902	-33.395	0.369	-0.202
-516.887	49.232	-0.117	-0.109
-515.872	-77.650	0.233	-0.080
-514.858	-87.332	0.071	-0.021
-513.843	328.290	0.052	-0.098
-512.829	336.638	0.120	-0.231
-511.814	-11.344	-0.180	0.117
-510.799	357.893	-0.073	0.144
-509.785	502.270	-0.025	-0.058
-508.770	800.000	-0.092	-0.289
-507.756	-200.000	-0.048	-0.260
-506.741	68.347	0.164	0.167
-505.726	-200.000	-0.042	-0.280
-504.712	287.819	-0.122	0.218
-503.697	153.041	0.054	0.073
-502.683	-8.959	0.071	-0.047
-501.668	18.735	-0.291	0.231
-500.653	336.609	-0.060	-0.116
-499.639	96.379	-0.046	-0.052
-498.624	46.176	0.106	-0.097
-497.610	-61.242	-0.155	0.065
-496.595	800.000	0.104	-0.349
-495.581	-172.901	-0.333	0.010
-494.566	202.664	0.208	0.319
-493.551	-112.400	-0.432	-0.086
-492.537	-138.962	0.301	0.032
-491.522	800.000	0.054	-0.188
-490.508	351.131	-0.086	-0.168
-489.493	154.222	0.157	0.214
-488.478	-79.941	-0.210	0.070
-487.464	28.537	0.060	0.050
-486.449	49.876	0.075	-0.070
-485.435	-200.000	-0.035	0.195
-484.420	-195.344	0.144	0.001
-483.405	69.181	0.063	0.064
-482.391	-168.205	-0.131	-0.005
-481.376	501.969	-0.090	0.207
-480.362	-200.000	-0.001	-0.019
-479.347	-200.000	-0.059	0.300
-478.332	118.771	0.068	0.083
-477.318	-159.799	-0.160	-0.009
-476.303	417.055	0.077	-0.163
-475.289	-27.777	-0.098	0.056
-474.274	-200.000	-0.062	-0.451
-473.259	-200.000	0.068	-0.314
-472.245	-72.824	-0.364	-0.133
-471.230	-200.000	0.046	-0.306
-470.216	-200.000	-0.011	-0.152
-469.201	55.594	0.120	0.115
-468.186	51.775	-0.119	-0.112
-467.172	-121.390	0.099	0.016
-466.157	399.174	0.146	0.302
-465.143	-200.000	0.019	-0.169
-464.128	-22.880	-0.223	0.133
-463.113	103.350	-0.039	-0.045
-462.099	252.694	-0.058	0.097
-461.084	127.882	0.143	-0.180
-460.070	800.000	0.046	-0.155
-459.055	-154.077	-0.318	0.021
-458.040	-7.778	0.063	-0.042
-457.026	65.024	-0.296	0.296
-456.011	800.000	0.081	0.242
-454.997	-200.000	0.030	0.189
-453.982	800.000	0.031	0.089
-452.968	132.914	-0.159	0.203
-451.953	-22.170	0.300	-0.180
-450.938	522.703	-0.126	0.294
-449.924	-95.176	-0.175	0.047
-448.909	-84.763	0.097	-0.030
-447.895	155.222	0.122	-0.166
-446.880	-200.000	-0.015	-0.430
-445.865	-110.325	-0.115	0.024
-444.851	-200.000	-0.015	-0.393
-443.836	-37.593	0.126	-0.067
-442.822	194.124	-0.078	0.116
-441.807	-200.000	0.081	0.359
-440.792	-200.000	-0.003	0.195
-439.778	429.523	0.141	0.301
-438.763	-83.811	-0.330	-0.104
-437.749	-54.080	0.162	-0.073
-436.734	99.792	-0.039	0.044
-435.719	-200.000	0.008	0.121
-434.705	36.219	-0.222	-0.193
-433.690	55.874	-0.007	0.006
-432.676	111.173	0.180	-0.214
-431.661	800.000	-0.066	0.276
-430.646	599.719	-0.146	0.358
-429.632	-45.848	0.195	0.095
-428.617	-80.308	0.213	0.070
-427.603	51.178	0.235	0.220
-426.588	-200.000	-0.030	-0.155
-425.573	487.120	0.042	0.094
-424.559	-12.973	0.131	0.084
-423.544	-8.503	0.137	-0.091
-422.530	-200.000	-0.015	-0.278
-421.515	-200.000	-0.008	-0.210
-420.500	17.588	0.142	-0.112
-419.486	195.957	-0.277	-0.417
-418.471	-100.317	-0.078	0.019
-417.457	-111.771	0.271	0.054
-416.442	-40.328	-0.175	-0.090
-415.428	-91.574	-0.244	0.069
-414.413	-27.759	0.331	0.190
-413.398	-200.000	-0.258	0.000
-412.384	-73.611	-0.177	0.064
-411.369	-96.453	-0.305	0.080
-410.355	-78.346	-0.315	0.107
-409.340	112.596	-0.063	0.075
-408.325	636.630	-0.032	0.080
-407.311	385.557	-0.226	0.460
-406.296	290.414	0.124	0.222
-405.282	263.338	0.051	0.087
-404.267	-200.000	0.042	0.233
-403.252	-182.720	-0.225	0.004
-402.238	-147.989	0.179	-0.015
-401.223	800.000	0.057	-0.182
-400.209	-51.780	-0.178	-0.082
-399.194	800.000	0.112	-0.318
-398.179	15.140	0.337	-0.261
-397.165	2.632	0.067	-0.048
-396.150	615.766	-0.144	0.355
-395.136	7.455	0.150	0.111
-394.121	90.403	-0.051	-0.056
-393.106	254.333	-0.130	0.219
-392.092	15.417	0.198	-0.153
-391.077	-26.454	0.193	-0.112
-390.063	-65.182	0.106	-0.042
-389.048	-20.134	0.287	0.175
-388.033	-122.776	0.086	0.014
-387.019	-27.708	0.073	-0.042
-386.004	-88.644	-0.206	-0.061
-384.990	-90.855	-0.171	-0.049
-383.975	-34.638	-0.383	0.207
-382.960	-200.000	-0.064	-0.371
-381.946	-38.982	0.313	-0.163
-380.931	239.542	0.210	0.345
-379.917	67.736	-0.204	-0.206
-378.902	800.000	-0.135	-0.392
-377.888	79.877	0.152	0.162
-376.873	12.598	-0.289	-0.220
-375.858	-200.000	0.009	0.184
-374.844	-181.611	-0.472	-0.009
-373.829	20.643	0.207	0.165
-372.815	-57.966	0.350	0.151
-371.800	12.738	0.215	0.164
-370.785	-107.250	-0.250	0.054
-369.771	-105.140	0.298	-0.067
-368.756	259.696	-0.085	0.146
-367.742	0.106	-0.208	0.147
-366.727	-174.956	-0.264	0.007
-365.712	-200.000	0.001	-0.165
-364.698	-200.000	-0.276	-0.000
-363.683	-34.437	0.186	0.101
-362.669	-66.135	0.166	-0.065
-361.654	510.012	-0.124	-0.284
-360.639	-173.167	-0.217	0.007
-359.625	187.165	-0.135	0.199
-358.610	-73.497	-0.291	-0.105
-357.596	53.383	0.212	-0.200
-356.581	726.203	-0.057	0.149
-355.566	-200.000	0.010	0.102
-354.552	-200.000	0.030	-0.211
-353.537	146.091	-0.219	0.289
-352.523	494.119	-0.037	0.085
-351.508	275.475	-0.170	0.297
-350.493	-26.166	0.250	0.145
-349.479	-6.547	-0.041	0.028
-348.464	149.960	0.159	0.213
-347.450	-73.614	-0.225	0.081
-346.435	-200.000	-0.011	-0.072
-345.420	76.056	-0.104	0.108
-344.406	-64.001	0.147	-0.059
-343.391	-200.000	0.019	0.378
-342.377	-200.000	-0.004	-0.259
-341.362	672.353	0.081	-0.207
-340.348	-200.000	-0.041	-0.379
-339.333	-142.069	-0.153	0.015
-338.318	516.418	0.014	0.033
-337.304	800.000	0.106	-0.414
-336.289	-94.027	-0.253	-0.068
-335.275	-200.000	-0.062	0.000
-334.260	-102.960	-0.111	0.026
-333.245	800.000	0.081	-0.247
-332.231	15.313	0.336	-0.259
-331.216	165.160	-0.038	0.052
-330.202	230.344	-0.056	0.091
-329.187	74.296	0.039	0.040
-328.172	14.893	-0.273	0.210
-327.158	109.178	-0.247	0.292
-326.143	314.250	0.162	0.300
-325.129	-200.000	0.002	-0.106
-324.114	-195.688	0.205	-0.001
-323.099	-99.509	-0.034	-0.008
-322.085	64.033	-0.235	-0.233
-321.070	800.000	-0.066	-0.239
-320.056	312.860	-0.092	-0.170
-319.041	91.471	0.128	-0.142
-318.026	-200.000	-0.017	-0.406
-317.012	103.293	-0.058	-0.066
-315.997	136.182	0.182	-0.234
-314.983	128.392	0.267	-0.334
-313.968	800.000	-0.077	0.237
-312.953	-200.000	0.077	0.377
-311.939	418.167	-0.047	-0.099
-310.924	-58.582	0.257	-0.110
-309.910	48.355	0.058	0.054
-308.895	-200.000	0.017	-0.133
-307.880	4.630	0.086	0.062
-306.866	-136.436	-0.288	0.033
-305.851	646.263	0.012	0.030
-304.837	26.758	0.306	-0.252
-303.822	102.654	0.149	0.172
-302.807	-181.544	-0.232	-0.004
-301.793	-47.585	-0.148	-0.071
-300.778	800.000	-0.073	0.311
-299.764	-11.395	-0.149	0.096
-298.749	-200.000	0.029	0.173
-297.735	-36.469	-0.237	-0.125
-296.720	-200.000	0.029	0.214
-295.705	-75.327	-0.140	-0.049
-294.691	-200.000	-0.003	-0.019
-293.676	-35.080	-0.244	-0.131
-292.662	-200.000	-0.009	-0.164
-291.647	-6.048	-0.100	-0.067
-290.632	0.824	0.149	-0.105
-289.618	202.126	0.062	0.094
-288.603	-200.000	0.017	0.192
-287.589	-200.000	0.067	-0.342
-286.574	335.254	-0.057	-0.109
-285.559	79.886	0.087	0.092
-284.545	315.623	0.053	0.098
-283.530	-16.285	-0.112	0.070
-282.516	-44.780	0.046	0.023
-281.501	-43.471	0.115	-0.057
-280.486	-200.000	0.027	-0.385
-279.472	-73.671	0.071	0.025
-278.457	-94.382	-0.224	-0.060
-277.443	-200.000	0.011	-0.231
-276.428	196.829	0.095	0.142
-275.413	-77.798	0.215	0.073
-274.399	449.068	-0.053	-0.116
-273.384	-31.804	-0.030	-0.017
-272.370	-108.999	0.289	0.061
-271.355	-200.000	-0.001	-0.036
-270.340	-55.251	0.220	-0.097
-269.326	252.214	-0.130	0.218
-268.311	-200.000	0.018	0.119
-267.297	-143.200	-0.432	0.041
-266.282	-154.778	0.221	-0.014
-265.267	132.406	0.115	0.146
-264.253	158.542	0.235	0.320
-263.238	800.000	-0.074	0.251
-262.224	231.311	0.110	0.177
-261.209	-200.000	0.003	-0.406
-260.195	17.635	0.195	0.152
-259.180	-104.190	0.390	-0.089
-258.165	-128.483	-0.264	-0.037
-257.151	-25.736	-0.104	-0.060
-256.136	-57.162	-0.027	0.012
-255.122	15.172	0.251	-0.194
-254.107	-82.235	-0.368	0.118
-253.092	-200.000	0.040	-0.248
-252.078	167.826	0.257	-0.359
-251.063	280.935	-0.065	0.115
-250.049	67.459	0.126	0.126
-249.034	-200.000	0.040	-0.220
-248.019	141.017	-0.244	0.317
-247.005	-200.000	0.012	0.092
-245.990	16.922	0.187	-0.145
-244.976	-200.000	-0.027	0.180
-243.961	-68.249	-0.097	-0.037
-242.946	-93.066	0.205	0.056
-241.932	-95.958	-0.181	-0.047
-240.917	-200.000	-0.016	-0.364
-239.903	402.089	0.114	0.235
-238.888	-104.720	-0.155	0.035
-237.873	226.881	-0.190	0.304
-236.859	-200.000	-0.026	-0.295
-235.844	-81.386	-0.277	0.090
-234.830	-200.000	0.079	0.439
-233.815	-110.746	-0.201	0.041
-232.800	-82.827	0.314	-0.100
-231.786	216.902	0.134	0.209
-230.771	102.990	0.164	0.188
-229.757	444.549	-0.074	0.160
-228.742	800.000	0.012	-0.039
-227.727	-69.368	0.382	0.144
-226.713	-91.109	-0.162	0.046
-225.698	-51.635	0.197	0.090
-224.684	-200.000	-0.002	0.094
-223.669	-112.587	-0.126	-0.025
-222.655	-200.000	-0.004	-0.094
-221.640	194.022	-0.320	-0.475
-220.625	-200.000	0.085	-0.389
-219.611	-49.896	0.185	-0.086
-218.596	362.876	0.161	0.316
-217.582	800.000	-0.101	-0.294
-216.567	245.722	0.105	-0.174
-215.552	143.449	-0.176	0.229
-214.538	-200.000	0.003	-0.021
-213.523	70.728	-0.149	-0.151
-212.509	178.903	0.133	0.191
-211.494	-121.263	-0.224	-0.037
-210.479	-28.187	-0.098	-0.055
-209.465	263.800	-0.079	0.135
-208.450	-56.369	-0.250	0.109
-207.436	-95.292	-0.265	-0.070
-206.421	-116.525	0.296	0.054
-205.406	4.470	-0.091	0.065
-204.392	-39.631	0.261	-0.134
-203.377	363.889	-0.122	-0.241
-202.363	800.000	0.064	0.182
-201.348	-36.165	0.351	-0.186
-200.333	-44.738	-0.336	-0.164
-199.319	800.000	0.076	0.228
-198.304	-200.000	-0.092	-0.462
-197.290	216.089	0.158	0.246
-196.275	-200.000	-0.026	0.157
-195.260	303.743	0.137	-0.250
-194.246	47.319	0.292	0.267
-193.231	-104.478	0.238	0.054
-192.217	369.378	-0.051	0.102
-191.202	86.075	-0.344	0.371
-190.187	703.060	-0.138	0.355
-189.173	-17.561	-0.031	-0.019
-188.158	-68.783	0.118	0.045
-187.144	-84.410	0.382	-0.118
-186.129	-200.000	0.075	0.340
-185.114	-173.536	0.171	-0.005
-184.100	-3.515	-0.395	0.269
-183.085	-11.409	0.172	0.111
-182.071	156.832	-0.115	0.156
-181.056	-129.920	0.345	0.046
-180.042	171.121	0.211	-0.297
-179.027	800.000	0.039	0.135
-178.012	519.847	0.087	-0.199
-176.998	-200.000	0.020	0.236
-175.983	-75.972	0.188	-0.065
-174.969	157.474	-0.234	-0.317
-173.954	-139.323	0.166	-0.017
-172.939	-39.649	0.326	-0.167
-171.925	-7.334	0.184	0.122
-170.910	-200.000	-0.034	-0.198
-169.896	-23.555	0.139	-0.082
-168.881	800.000	0.097	-0.314
-167.866	-27.416	-0.272	0.155
-166.852	-166.219	0.018	-0.001
-165.837	-31.747	0.149	0.082
-164.823	800.000	0.036	0.119
-163.808	800.000	-0.095	0.323
-162.793	-200.000	-0.015	-0.136
-161.779	42.553	-0.097	0.087
-160.764	13.931	-0.214	0.163
-159.750	-135.333	0.349	-0.041
-158.735	800.000	-0.029	0.084
-157.720	-60.859	0.378	0.156
-156.706	-200.000	0.049	-0.384
-155.691	800.000	0.067	0.215
-154.677	78.724	-0.099	-0.104
-153.662	-109.630	0.285	-0.059
-152.647	-14.460	-0.264	-0.166
-151.633	-200.000	-0.016	0.082
-150.618	800.000	0.062	-0.174
-149.604	-122.046	0.069	-0.011
-148.589	299.339	0.140	0.253
-147.574	-98.937	-0.405	-0.101
-146.560	196.854	-0.057	0.085
-145.545	770.022	0.243	-0.647
-144.531	800.000	0.067	0.282
-143.516	65.328	-0.161	0.160
-142.502	-118.038	-0.124	-0.022
-141.487	-58.825	-0.130	-0.055
-140.472	-83.267	-0.113	-0.035
-139.458	78.560	0.234	0.245
-138.443	669.156	-0.071	-0.180
-137.429	97.756	-0.104	-0.117
-136.414	207.048	0.165	-0.252
-135.399	-199.595	-0.379	-0.002
-134.385	137.874	-0.155	-0.199
-133.370	-34.278	0.247	-0.133
-132.356	-49.726	-0.160	-0.074
-131.341	-200.000	0.027	0.137
-130.326	247.504	-0.106	-0.175
-129.312	34.369	-0.055	-0.047
-128.297	-99.930	0.196	-0.048
-127.283	284.219	-0.087	0.153
-126.268	93.536	-0.100	-0.111
-125.253	-0.977	-0.430	0.297
-124.239	-3.312	0.166	0.113
-123.224	-200.000	-0.011	0.173
-122.210	14.156	-0.140	0.106
-121.195	-200.000	0.010	-0.103
-120.180	1.427	-0.167	-0.117
-119.166	569.259	0.124	-0.296
-118.151	-200.000	0.036	-0.199
-117.137	35.415	-0.049	0.042
-116.122	-88.646	0.558	0.162
-115.107	109.273	0.082	0.095
-114.093	91.772	0.111	0.122
-113.078	-133.653	-0.175	0.021
-112.064	-200.000	0.003	0.022
-111.049	-156.406	0.173	0.011
-110.034	-126.563	-0.170	-0.025
-109.020	-96.442	0.030	0.008
-108.005	-63.046	0.232	-0.094
-106.991	169.163	-0.069	0.096
-105.976	645.716	-0.054	0.136
-104.962	-83.531	-0.243	0.076
-103.947	-34.082	-0.260	-0.139
-102.932	11.806	0.151	-0.113
-101.918	32.210	-0.346	0.292
-100.903	-200.000	0.003	0.118
-99.889	34.779	-0.131	0.112
-98.874	-50.283	0.209	-0.096
-97.859	-50.736	0.024	-0.011
-96.845	-47.693	-0.075	0.035
-95.830	-27.343	0.074	0.042
-94.816	-200.000	0.011	0.090
-93.801	-47.684	0.279	-0.132
-92.786	28.998	-0.091	0.075
-91.772	-192.910	-0.067	-0.001
-90.757	-96.149	-0.242	0.063
-89.743	800.000	-0.086	-0.252
-88.728	-106.141	0.114	0.025
-87.713	-19.718	0.148	0.089
-86.699	800.000	0.032	-0.132
-85.684	652.118	0.119	-0.297
-84.670	205.012	0.032	0.049
-83.655	-113.958	-0.233	0.044
-82.640	800.000	0.071	0.246
-81.626	6.112	0.073	0.053
-80.611	-122.856	0.331	0.052
-79.597	-200.000	-0.028	0.163
-78.582	-77.152	-0.056	0.019
-77.567	800.000	0.065	0.270
-76.553	800.000	-0.063	0.252
-75.538	-76.401	0.156	-0.054
-74.524	-106.599	0.427	-0.093
-73.509	199.297	-0.117	-0.174
-72.494	-159.760	0.052	-0.003
-71.480	-33.151	0.344	-0.186
-70.465	-41.779	-0.066	0.033
-69.451	169.466	-0.157	0.219
-68.436	5.531	-0.118	-0.085
-67.422	209.998	-0.175	-0.267
-66.407	-53.210	-0.058	-0.026
-65.392	130.436	-0.182	0.227
-64.378	-36.789	0.175	0.092
-63.363	11.591	0.256	0.191
-62.349	258.686	-0.090	-0.152
-61.334	-12.322	-1.222	-0.778
-60.319	-50.455	0.816	0.376
-59.305	800.000	-0.495	-1.343
-58.290	173.834	0.999	1.405
-57.276	800.000	0.444	1.361
-56.261	-200.000	125.442	657.603
-55.246	409.577	1582.473	3266.779
-54.232	141.062	2742.083	3533.645
-53.217	94.884	2189.470	2427.637
-52.203	33.886	1704.989	1446.165
-51.188	26.247	1522.304	1238.998
-50.173	24.362	1499.280	1207.465
-49.159	49.534	1570.677	1440.680
-48.144	46.202	1583.492	1429.265
-47.130	26.433	1532.477	1248.366
-46.115	23.587	1516.025	1215.452
-45.100	23.213	1513.062	1210.473
-44.086	23.284	1511.091	1209.332
-43.071	23.262	1508.769	1207.279
-42.057	23.185	1507.355	1205.572
-41.042	23.321	1505.562	1205.016
-40.027	23.281	1504.270	1203.663
-39.013	23.277	1502.399	1202.090
-37.998	23.169	1501.617	1200.681
-36.984	23.245	1500.488	1200.250
-35.969	23.216	1498.996	1198.810
-34.954	23.225	1497.522	1197.643
-33.940	23.155	1496.165	1196.041
-32.925	23.202	1494.984	1195.366
-31.911	23.293	1493.223	1194.524
-30.896	23.322	1491.911	1193.622
-29.881	23.357	1491.147	1193.201
-28.867	23.416	1489.411	1192.159
-27.852	23.302	1488.286	1190.446
-26.838	23.321	1486.889	1189.412
-25.823	23.279	1485.373	1187.868
-24.809	23.246	1484.052	1186.545
-23.794	23.296	1482.327	1185.450
-22.779	23.375	1480.512	1184.477
-21.765	23.379	1479.845	1183.928
-20.750	23.326	1478.380	1182.354
-19.736	23.345	1477.918	1182.067
-18.721	23.186	1476.632	1179.926
-17.706	23.318	1475.190	1179.611
-16.692	23.219	1474.562	1178.404
-15.677	23.229	1473.625	1177.669
-14.663	23.259	1472.482	1176.912
-13.648	23.178	1471.855	1175.827
-12.633	23.204	1470.993	1175.263
-11.619	23.275	1470.060	1174.943
-10.604	23.293	1468.925	1174.105
-9.590	23.192	1468.554	1173.097
-8.575	23.233	1467.208	1172.242
-7.560	23.268	1466.475	1171.843
-6.546	23.336	1465.894	1171.784
-5.531	23.324	1464.398	1170.459
-4.517	23.277	1463.574	1169.447
-3.502	23.184	1462.731	1168.109
-2.487	23.246	1461.862	1167.780
-1.473	23.246	1460.991	1167.036
-0.458	23.255	1459.050	1165.503
0.556	21.607	1449.229	1154.218
1.571	18.387	1424.840	1113.789
2.586	14.931	1363.273	1044.032
3.600	13.381	1279.670	970.830
4.615	12.545	1235.673	932.629
5.629	11.167	1178.787	882.161
6.644	5.369	1098.035	792.338
7.659	0.995	1061.879	744.709
8.673	0.353	1056.788	737.927
9.688	0.115	1053.783	734.601
10.702	0.103	1052.316	733.458
11.717	0.160	1049.824	731.932
12.731	1.947	1050.679	741.152
13.746	8.133	1058.867	777.088
14.761	14.251	1067.157	813.071
15.775	16.480	1069.545	825.718
16.790	16.412	1067.828	823.987
17.804	15.532	1066.186	818.359
18.819	14.642	1064.461	812.634
19.834	14.213	1062.858	809.249
20.848	13.904	1062.123	807.119
21.863	13.661	1061.719	805.558
22.877	13.554	1060.555	804.085
23.892	13.182	1059.710	801.569
24.907	13.167	1058.858	800.778
25.921	13.170	1058.074	800.132
26.936	13.262	1057.535	800.098
27.950	13.163	1056.876	799.049
28.965	13.290	1055.825	798.797
29.980	13.380	1054.870	798.440
30.994	13.276	1054.099	797.283
32.009	13.412	1053.152	797.150
33.023	13.362	1052.822	796.592
34.038	13.308	1051.964	795.610
35.053	13.283	1051.307	794.921
36.067	13.312	1050.362	794.277
37.082	13.325	1049.349	793.502
38.096	13.321	1049.064	793.202
39.111	13.438	1047.895	792.804
40.126	13.457	1046.853	792.040
41.140	13.286	1046.059	790.550
42.155	13.376	1044.247	789.539
43.169	13.152	1044.521	788.608
44.184	13.181	1043.143	787.636
45.199	13.186	1042.184	786.867
46.213	13.250	1040.875	786.111
47.228	13.138	1040.408	785.157
48.242	13.220	1039.104	784.493
49.257	13.316	1038.193	784.192
50.271	13.345	1037.375	783.641
51.286	13.230	1036.120	782.080
52.301	13.247	1035.609	781.707
53.315	13.304	1034.757	781.262
54.330	13.286	1033.722	780.328
55.344	13.364	1032.905	780.007
56.359	13.258	1031.955	778.723
57.374	13.308	1030.905	778.098
58.388	13.207	1030.645	777.356
59.403	13.283	1029.432	776.729
60.417	13.185	1029.240	776.055
61.432	13.211	1028.091	775.245
62.447	13.276	1027.184	774.796
63.461	13.150	1026.565	773.672
64.476	13.172	1025.679	773.035
65.490	13.167	1024.504	772.061
66.505	13.136	1024.010	771.476
67.520	13.133	1023.002	770.634
68.534	13.196	1022.213	770.265
69.549	13.330	1021.408	770.214
70.563	13.194	1020.342	768.708
71.578	13.250	1019.943	768.601
72.593	13.228	1019.104	767.799
73.607	13.048	1018.571	766.493
74.622	13.131	1017.103	765.705
75.636	13.164	1016.550	765.372
76.651	13.121	1015.688	764.458
77.666	13.091	1015.003	763.738
78.680	13.191	1013.694	763.146
79.695	13.137	1013.685	762.823
80.709	13.130	1013.045	762.238
81.724	13.281	1011.702	761.859
82.739	13.145	1011.523	761.030
83.753	13.299	1010.835	761.153
84.768	13.297	1009.698	760.222
85.782	13.411	1008.759	759.970
86.797	13.374	1007.930	759.109
87.812	13.440	1007.161	758.763
88.826	13.350	1006.504	757.790
89.841	13.420	1005.394	757.208
90.855	13.336	1005.262	756.657
91.870	13.250	1004.546	755.658
92.884	13.342	1003.661	755.347
93.899	13.447	1002.266	754.709
94.914	13.415	1002.201	754.444
95.928	13.404	1001.570	753.855
96.943	13.524	1000.451	753.493
97.957	13.483	999.646	752.632
98.972	13.412	999.152	751.870
99.987	13.397	998.300	751.096
101.001	13.324	997.758	750.292
102.016	13.491	996.634	750.136
103.030	13.450	995.679	749.163
104.045	13.464	994.656	748.391
105.060	13.374	993.713	747.210
106.074	13.446	993.290	747.152
107.089	13.434	992.001	746.062
108.103	13.223	991.126	744.385
109.118	13.261	990.310	743.877
110.133	13.256	989.645	743.292
111.147	13.333	988.910	743.018
112.162	13.262	987.891	741.871
113.176	13.362	986.791	741.424
114.191	13.304	986.315	740.744
115.206	13.439	985.142	740.398
116.220	13.424	984.192	739.555
117.235	13.395	983.871	739.118
118.249	13.360	982.985	738.231
119.264	13.283	981.720	736.872
120.279	13.316	980.994	736.407
121.293	13.310	980.228	735.742
122.308	13.369	979.586	735.458
123.322	13.249	978.705	734.200
124.337	13.342	977.302	733.492
125.352	13.270	975.967	732.107
126.366	13.264	975.131	731.388
127.381	13.182	974.251	730.301
128.395	13.240	972.981	729.542
129.410	13.247	972.479	729.132
130.424	13.186	971.759	728.259
131.439	13.273	970.600	727.709
132.454	13.374	969.532	727.287
133.468	13.278	969.815	727.012
134.483	13.281	968.433	725.923
135.497	13.415	967.567	725.799
136.512	13.469	966.663	725.293
137.527	13.311	966.196	724.187
138.541	13.223	965.677	723.348
139.556	13.446	964.460	723.346
140.570	13.467	963.910	722.965
141.585	13.372	962.820	721.668
142.600	13.449	962.783	721.910
143.614	13.484	961.537	721.065
144.629	13.457	961.286	720.698
145.643	13.518	960.311	720.167
146.658	13.551	959.852	719.901
147.673	13.542	958.409	718.717
148.687	13.562	957.313	717.920
149.702	13.634	956.271	717.386
150.716	13.501	955.676	716.301
151.731	13.462	955.180	715.695
152.746	13.500	954.534	715.313
153.760	13.378	954.037	714.349
154.775	13.523	952.938	714.088
155.789	13.503	952.284	713.451
156.804	13.552	951.485	713.001
157.819	13.564	950.686	712.390
158.833	13.616	950.115	712.122
159.848	13.681	949.588	711.944
160.862	13.766	948.414	711.364
161.877	13.752	947.475	710.535
162.892	13.623	947.104	709.645
163.906	13.622	946.479	709.108
164.921	13.523	945.702	708.042
165.935	13.689	944.331	707.658
166.950	13.739	943.289	707.030
167.964	13.758	942.458	706.425
168.979	13.695	941.429	705.324
169.994	13.706	940.313	704.473
171.008	13.622	939.957	703.788
172.023	13.701	939.086	703.406
173.037	13.715	938.065	702.637
174.052	13.816	937.626	702.677
175.067	13.658	936.922	701.419
176.081	13.758	936.068	701.137
177.096	13.662	935.530	700.267
178.110	13.734	934.361	699.633
179.125	13.667	933.784	698.857
180.140	13.753	932.703	698.351
181.154	13.603	932.328	697.376
182.169	13.908	931.544	698.011
183.183	13.848	931.232	697.464
184.198	13.789	930.175	696.361
185.213	14.014	929.486	696.727
186.227	13.881	929.130	695.841
187.242	13.905	928.560	695.453
188.256	13.876	927.925	694.795
189.271	13.986	927.257	694.692
190.286	14.061	926.440	694.333
191.300	13.833	925.763	692.812
192.315	13.799	924.664	691.788
193.329	13.715	924.707	691.409
194.344	13.810	923.329	690.713
195.359	13.901	922.892	690.701
196.373	13.889	922.470	690.277
197.388	13.911	922.320	690.192
198.402	13.892	921.358	689.335
199.417	14.186	921.091	690.292
200.432	14.147	920.297	689.475
201.446	14.168	919.663	689.028
202.461	14.167	919.509	688.847
203.475	14.086	919.302	688.294
204.490	14.250	918.048	687.973
205.504	14.086	917.532	686.848
206.519	14.038	916.748	686.001
207.534	14.281	915.684	686.148
208.548	14.079	915.301	684.966
209.563	14.121	914.628	684.573
210.577	14.236	913.825	684.388
211.592	14.409	912.744	684.228
212.607	14.365	912.676	683.936
213.621	14.393	911.980	683.466
214.636	14.227	911.514	682.375
215.650	14.281	910.915	682.090
216.665	14.255	910.298	681.459
217.680	14.263	909.974	681.189
218.694	14.407	909.511	681.371
219.709	14.550	908.435	681.089
220.723	14.403	907.817	679.968
221.738	14.431	907.146	679.518
222.753	14.434	906.195	678.756
223.767	14.345	905.871	678.094
224.782	14.464	904.744	677.674
225.796	14.481	904.062	677.170
226.811	14.437	903.454	676.479
227.826	14.446	902.876	676.022
228.840	14.523	902.042	675.647
229.855	14.534	901.474	675.207
230.869	14.526	900.898	674.684
231.884	14.458	900.396	673.972
232.899	14.453	899.717	673.384
233.913	14.537	898.570	672.808
234.928	14.592	898.301	672.767
235.942	14.459	897.893	671.866
236.957	14.519	896.859	671.274
237.972	14.482	896.452	670.762
238.986	14.510	895.745	670.285
240.001	14.476	895.123	669.624
241.015	14.616	894.362	669.557
242.030	14.619	893.655	668.982
243.045	14.690	892.739	668.523
244.059	14.591	892.724	668.056
245.074	14.630	891.627	667.332
246.088	14.646	891.054	666.905
247.103	14.790	890.502	667.011
248.117	14.781	889.956	666.504
249.132	14.728	889.379	665.802
250.147	14.787	888.850	665.584
251.161	14.911	887.999	665.380
252.176	14.863	887.575	664.813
253.190	14.947	886.476	664.263
254.205	14.892	886.409	663.938
255.220	15.050	885.586	663.888
256.234	15.028	884.819	663.167
257.249	14.908	884.468	662.370
258.263	14.996	884.046	662.343
259.278	15.034	883.200	661.802
260.293	15.221	882.526	661.978
261.307	15.015	882.264	660.909
262.322	15.073	881.846	660.764
263.336	15.087	880.903	660.057
264.351	15.296	880.257	660.336
265.366	15.209	879.797	659.592
266.380	15.204	879.115	659.001
267.395	15.185	878.334	658.282
268.409	15.291	877.397	657.938
269.424	15.260	876.923	657.405
270.439	15.307	876.226	657.005
271.453	15.235	875.574	656.179
272.468	15.185	874.682	655.255
273.482	15.216	874.095	654.878
274.497	15.315	873.699	654.913
275.512	15.255	873.067	654.145
276.526	15.257	872.243	653.477
277.541	15.219	871.610	652.796
278.555	15.306	870.837	652.498
279.570	15.284	870.501	652.103
280.585	15.444	869.602	651.996
281.599	15.490	868.766	651.490
282.614	15.476	868.541	651.207
283.628	15.571	867.667	650.863
284.643	15.345	867.485	649.796
285.657	15.375	867.042	649.521
286.672	15.412	866.721	649.367
287.687	15.447	865.911	648.836
288.701	15.469	865.747	648.742
289.716	15.591	864.631	648.318
290.730	15.450	864.731	647.792
291.745	15.449	863.693	646.953
292.760	15.547	862.612	646.464
293.774	15.595	862.031	646.157
294.789	15.683	861.741	646.218
295.803	15.634	861.122	645.511
296.818	15.688	860.394	645.115
297.833	15.545	859.807	644.070
298.847	15.584	858.964	643.528
299.862	15.741	858.127	643.448
300.876	15.718	857.544	642.863
301.891	15.710	857.359	642.638
302.906	15.705	856.541	641.947
303.920	15.699	855.852	641.354
304.935	15.731	855.430	641.104
305.949	15.815	854.792	640.886
306.964	15.888	853.842	640.398
307.979	15.905	853.054	639.813
308.993	15.867	852.784	639.410
310.008	15.844	852.262	638.873
311.022	16.008	851.883	639.155
312.037	15.866	851.468	638.249
313.052	15.866	850.759	637.662
314.066	15.936	850.237	637.477
315.081	15.840	849.372	636.411
316.095	15.959	848.739	636.331
317.110	15.921	848.616	636.039
318.125	15.960	847.760	635.486
319.139	15.803	847.669	634.772
320.154	15.970	846.648	634.578
321.168	15.852	846.211	633.752
322.183	15.945	846.079	633.946
323.197	15.984	845.603	633.679
324.212	16.012	844.493	632.897
325.227	16.051	844.424	632.937
326.241	16.090	843.602	632.409
327.256	16.105	842.929	631.904
328.270	16.077	842.091	631.118
329.285	15.985	841.807	630.505
330.300	15.970	841.830	630.409
331.314	16.002	840.885	629.765
332.329	16.081	840.137	629.445
333.343	16.019	839.643	628.787
334.358	16.225	839.063	629.063
335.373	16.232	838.381	628.526
336.387	16.361	837.551	628.328
337.402	16.238	837.296	627.621
338.416	16.229	837.039	627.340
339.431	16.129	836.490	626.502
340.446	16.421	835.528	626.811
341.460	16.401	835.152	626.398
342.475	16.352	834.619	625.759
343.489	16.396	834.161	625.524
344.504	16.538	833.431	625.449
345.519	16.574	832.536	624.855
346.533	16.553	832.488	624.685
347.548	16.574	831.925	624.287
348.562	16.602	831.368	623.914
349.577	16.298	831.154	622.578
350.592	16.486	830.306	622.580
351.606	16.457	829.652	621.929
352.621	16.578	829.252	622.018
353.635	16.386	828.959	621.037
354.650	16.545	828.783	621.434
355.665	16.493	828.438	620.930
356.679	16.459	827.828	620.292
357.694	16.627	827.214	620.393
358.708	16.667	826.494	619.945
359.723	16.585	825.879	619.129
360.738	16.573	825.359	618.642
361.752	16.626	824.885	618.424
362.767	16.555	824.593	617.892
363.781	16.730	823.893	617.953
364.796	16.691	823.668	617.587
365.810	16.770	823.287	617.533
366.825	16.742	823.157	617.280
367.840	16.703	822.696	616.736
368.854	16.700	822.410	616.456
369.869	16.654	822.369	616.203
370.883	16.764	821.146	615.634
371.898	16.771	820.267	614.944
372.913	16.896	819.586	614.832
373.927	16.829	819.459	614.440
374.942	16.735	818.793	613.546
375.956	16.788	818.228	613.259
376.971	16.873	817.536	612.995
377.986	17.097	816.534	612.998
379.000	16.984	816.625	612.605
380.015	17.000	816.123	612.233
381.029	17.038	815.501	611.848
382.044	16.987	814.916	611.172
383.059	17.163	814.166	611.188
384.073	17.121	813.466	610.459
385.088	17.034	813.010	609.747
386.102	17.169	812.659	609.916
387.117	17.125	811.943	609.167
388.132	16.953	811.790	608.381
389.146	17.048	811.594	608.522
390.161	16.983	811.074	607.843
391.175	17.261	810.304	608.209
392.190	17.070	810.304	607.471
393.205	17.186	809.739	607.411
394.219	17.270	809.278	607.309
395.234	17.213	808.557	606.512
396.248	17.047	808.455	605.789
397.263	17.091	807.728	605.346
398.278	17.126	807.111	604.955
399.292	17.197	806.802	604.922
400.307	17.183	806.444	604.551
401.321	16.946	806.566	603.745
402.336	17.113	805.804	603.717
403.350	17.196	805.317	603.591
404.365	17.131	805.095	603.141
405.380	17.136	804.720	602.824
406.394	17.264	804.018	602.699
407.409	17.358	803.375	602.496
408.423	17.401	802.944	602.273
409.438	17.430	802.260	601.808
410.453	17.519	802.085	601.941
411.467	17.427	801.812	601.356
412.482	17.443	801.086	600.815
413.496	17.633	800.654	601.109
414.511	17.557	800.399	600.594
415.526	17.635	799.731	600.315
416.540	17.561	799.716	599.992
417.555	17.561	799.358	599.670
418.569	17.584	798.735	599.231
419.584	17.540	798.294	598.693
420.599	17.587	797.696	598.356
421.613	113.424	1298.138	1486.507
422.628	97.681	1371.031	1486.578
