DTS Sentinel unit serial number:	SN413079Multiplexer serial number:	ORYXHardware model number:	OX4-SRSoftware version number:	ORYX F/W v4.00 Oryx Data Collector v3.7.2.0data status	okinstallation	princeton_trtdifferential loss correction	single-endedforward channel	channel 3reverse channel	N/Adate	2019/09/18time	22:12:35forward acquisition time	60.00reverse acquisition time	0.00gamma	496.2192k internal	0.2345k external	0.2345temperature offset calibration	0.9987default loss term (dB/km)	0.3790temperature slope calibration	1.0000multiplexer offset coefficient	1.0000multiplexer slope coefficient	1.0000fibre end	0.00T internal ref (°C)	24.44T ext. ref 1 (°C)	0.80T ext. ref 2 (°C)	18.15length (m)	temperature (°C)	Stokes	anti-Stokes-747.200	142.713	0.198	-0.263
-746.185	-25.797	-0.265	0.156
-745.171	96.517	0.244	-0.280
-744.156	-68.616	-0.198	0.077
-743.142	-51.522	0.268	-0.125
-742.127	-200.000	0.075	0.381
-741.112	800.000	0.059	0.258
-740.098	282.875	-0.139	0.249
-739.083	-200.000	-0.061	-0.291
-738.069	2.149	-0.234	-0.169
-737.054	-38.559	0.242	0.128
-736.039	-31.829	-0.418	-0.234
-735.025	116.255	0.354	0.433
-734.010	171.982	-0.093	-0.134
-732.996	19.137	0.094	-0.076
-731.981	110.855	-0.174	-0.210
-730.966	-200.000	-0.003	0.168
-729.952	800.000	-0.115	-0.385
-728.937	-200.000	-0.003	0.209
-727.923	-69.574	-0.283	-0.108
-726.908	62.492	0.111	-0.111
-725.894	-34.138	0.208	-0.114
-724.879	62.811	0.127	-0.127
-723.864	-150.285	-0.432	0.033
-722.850	-11.250	0.238	-0.156
-721.835	194.121	0.063	-0.096
-720.821	-200.000	-0.009	0.198
-719.806	31.777	0.251	-0.216
-718.791	800.000	-0.074	-0.293
-717.777	-200.000	0.460	-0.000
-716.762	-41.373	0.152	-0.078
-715.748	-49.295	0.398	-0.190
-714.733	-16.119	-0.049	0.031
-713.718	800.000	0.018	0.051
-712.704	-32.399	0.241	0.134
-711.689	75.816	-0.156	0.165
-710.675	257.133	0.173	-0.297
-709.660	474.186	0.072	0.163
-708.645	167.697	0.141	-0.200
-707.631	251.426	-0.069	0.118
-706.616	-200.000	0.012	-0.200
-705.602	800.000	-0.091	-0.388
-704.587	-78.312	0.339	0.116
-703.572	267.340	-0.101	-0.177
-702.558	-84.868	0.446	-0.140
-701.543	-139.480	0.202	0.022
-700.529	35.218	0.246	0.216
-699.514	118.535	0.112	0.138
-698.499	400.088	0.119	-0.249
-697.485	-200.000	0.002	-0.079
-696.470	-200.000	-0.048	0.467
-695.456	-97.590	0.175	-0.045
-694.441	679.456	0.088	-0.229
-693.426	118.287	-0.243	-0.300
-692.412	173.698	-0.178	-0.256
-691.397	267.700	-0.047	-0.083
-690.383	-189.247	0.440	0.005
-689.368	800.000	0.035	0.098
-688.354	282.312	-0.066	-0.118
-687.339	422.871	0.093	-0.200
-686.324	272.236	0.123	-0.216
-685.310	-200.000	-0.003	-0.403
-684.295	84.378	0.154	0.168
-683.281	-77.721	-0.416	-0.143
-682.266	-200.000	0.010	0.098
-681.251	-99.422	-0.138	-0.035
-680.237	-34.060	-0.330	0.181
-679.222	-103.609	0.141	-0.033
-678.208	289.049	-0.130	0.236
-677.193	140.668	-0.126	0.166
-676.178	-76.985	0.378	-0.132
-675.164	35.059	0.182	-0.159
-674.149	65.005	-0.037	-0.037
-673.135	-197.040	0.032	-0.000
-672.120	-200.000	-0.022	-0.170
-671.105	800.000	-0.088	0.285
-670.091	800.000	-0.030	0.122
-669.076	-173.958	-0.165	0.005
-668.062	-200.000	-0.025	-0.120
-667.047	113.306	0.008	-0.010
-666.032	-61.875	-0.053	0.022
-665.018	-121.665	0.110	0.018
-664.003	124.614	-0.253	-0.317
-662.989	-17.724	-0.279	0.175
-661.974	236.508	-0.177	0.292
-660.959	271.036	-0.068	-0.120
-659.945	-138.229	-0.299	-0.033
-658.930	-130.728	-0.229	0.031
-657.916	-152.637	-0.344	-0.024
-656.901	800.000	0.081	-0.301
-655.886	-79.029	0.053	-0.018
-654.872	349.112	-0.121	0.239
-653.857	24.273	0.369	0.304
-652.843	-170.150	-0.304	-0.011
-651.828	-86.394	-0.166	-0.051
-650.814	170.118	-0.150	0.214
-649.799	800.000	-0.040	-0.168
-648.784	-131.956	-0.110	-0.014
-647.770	-149.116	-0.048	-0.004
-646.755	-76.099	-0.157	0.055
-645.741	208.472	-0.177	0.276
-644.726	-120.875	-0.068	0.011
-643.711	-107.602	-0.213	-0.046
-642.697	800.000	-0.116	0.377
-641.682	-1.163	-0.259	0.182
-640.668	-200.000	0.048	-0.229
-639.653	-38.892	-0.244	0.128
-638.638	139.154	0.228	-0.299
-637.624	26.344	-0.190	-0.158
-636.609	439.593	0.116	0.252
-635.595	-200.000	-0.042	0.447
-634.580	-200.000	0.023	-0.197
-633.565	-62.590	0.434	-0.179
-632.551	67.970	0.210	-0.214
-631.536	-121.998	0.101	-0.017
-630.522	-200.000	0.010	-0.311
-629.507	-107.919	0.025	0.005
-628.492	100.904	-0.021	-0.024
-627.478	800.000	-0.025	-0.095
-626.463	261.897	0.120	-0.208
-625.449	-42.167	0.025	0.013
-624.434	800.000	-0.061	0.262
-623.419	8.921	-0.114	-0.086
-622.405	-57.533	0.550	-0.240
-621.390	-12.799	0.279	-0.181
-620.376	268.681	0.174	-0.304
-619.361	64.969	-0.135	-0.136
-618.346	-62.620	-0.263	-0.108
-617.332	800.000	-0.097	-0.382
-616.317	800.000	-0.057	0.200
-615.303	-38.542	-0.270	-0.142
-614.288	-49.221	-0.128	0.061
-613.273	278.646	0.085	0.150
-612.259	486.646	-0.099	-0.224
-611.244	527.630	-0.106	0.249
-610.230	189.170	0.122	0.182
-609.215	-143.871	0.322	-0.030
-608.201	220.358	0.081	0.129
-607.186	12.214	0.169	0.129
-606.171	72.431	0.403	0.418
-605.157	70.113	-0.125	0.129
-604.142	800.000	-0.044	-0.133
-603.128	115.275	0.123	-0.149
-602.113	33.235	-0.121	-0.105
-601.098	8.136	-0.288	-0.215
-600.084	-61.771	0.230	-0.096
-599.069	-200.000	0.020	0.162
-598.055	-193.640	-0.116	0.001
-597.040	-200.000	-0.042	0.208
-596.025	-200.000	0.025	0.173
-595.011	-92.953	-0.390	-0.108
-593.996	800.000	-0.027	-0.075
-592.982	-66.180	0.118	0.047
-591.967	-40.938	-0.181	0.093
-590.952	-200.000	0.048	-0.212
-589.938	-104.482	-0.186	0.043
-588.923	-145.329	-0.111	-0.010
-587.909	-121.206	0.372	0.062
-586.894	-200.000	-0.007	0.113
-585.879	35.758	-0.186	-0.163
-584.865	-9.153	-0.093	-0.062
-583.850	800.000	-0.076	-0.226
-582.836	-79.838	-0.506	0.169
-581.821	-182.228	-0.149	0.003
-580.806	105.589	0.254	0.299
-579.792	34.742	-0.077	-0.067
-578.777	800.000	0.007	-0.020
-577.763	21.234	-0.063	0.051
-576.748	-91.152	0.362	-0.103
-575.733	-90.609	0.149	0.043
-574.719	-10.277	-0.191	-0.126
-573.704	173.275	-0.204	-0.292
-572.690	800.000	0.032	-0.112
-571.675	-150.487	-0.167	0.013
-570.661	523.771	-0.068	0.159
-569.646	8.809	-0.083	0.062
-568.631	-70.482	0.196	0.074
-567.617	243.428	0.085	-0.141
-566.602	443.361	0.027	0.058
-565.588	-200.000	-0.015	0.180
-564.573	-110.737	0.153	-0.031
-563.558	-200.000	-0.001	-0.175
-562.544	-200.000	0.020	0.120
-561.529	134.246	-0.063	-0.082
-560.515	61.540	0.111	-0.110
-559.500	338.209	0.162	0.313
-558.485	190.403	0.100	-0.149
-557.471	696.384	-0.097	-0.254
-556.456	44.827	-0.377	-0.345
-555.442	-200.000	0.058	-0.410
-554.427	-200.000	-0.073	-0.414
-553.412	217.419	-0.035	0.055
-552.398	-80.454	-0.241	0.080
-551.383	800.000	-0.084	0.273
-550.369	459.242	-0.145	-0.320
-549.354	-38.868	0.233	0.122
-548.339	-64.263	-0.276	0.112
-547.325	-200.000	-0.033	-0.201
-546.310	-32.136	-0.156	0.087
-545.296	337.564	0.092	-0.178
-544.281	99.982	0.228	-0.262
-543.266	311.511	-0.073	-0.136
-542.252	148.179	-0.071	-0.095
-541.237	44.866	-0.101	-0.093
-540.223	24.294	0.218	0.179
-539.208	30.670	-0.207	0.176
-538.193	-11.385	0.307	0.201
-537.179	-76.551	-0.352	-0.123
-536.164	-68.891	-0.262	-0.101
-535.150	711.577	0.025	0.066
-534.135	-200.000	-0.011	0.137
-533.121	-200.000	-0.051	-0.289
-532.106	-9.168	0.248	0.164
-531.091	41.854	0.252	0.227
-530.077	-26.635	-0.059	0.034
-529.062	73.476	0.120	0.124
-528.048	162.838	-0.051	-0.071
-527.033	-12.253	0.160	-0.104
-526.018	-200.000	-0.009	-0.202
-525.004	-200.000	-0.046	-0.314
-523.989	85.990	0.159	-0.174
-522.975	-200.000	-0.027	0.238
-521.960	-200.000	-0.039	0.315
-520.945	29.174	0.267	0.225
-519.931	-161.393	0.240	0.012
-518.916	510.047	0.013	-0.031
-517.902	800.000	-0.035	-0.126
-516.887	-124.994	0.043	0.007
-515.872	-200.000	0.018	-0.092
-514.858	-131.391	-0.337	-0.044
-513.843	139.624	-0.266	-0.348
-512.829	775.249	-0.110	0.299
-511.814	800.000	0.025	0.086
-510.799	-33.581	0.147	-0.081
-509.785	179.811	-0.086	0.125
-508.770	-200.000	0.003	0.161
-507.756	27.496	-0.200	0.167
-506.741	-200.000	0.083	-0.413
-505.726	141.121	0.112	-0.146
-504.712	321.605	0.152	-0.287
-503.697	-138.331	-0.122	-0.013
-502.683	-200.000	-0.019	-0.227
-501.668	-120.525	0.385	0.065
-500.653	796.143	-0.096	-0.261
-499.639	-145.558	0.155	0.014
-498.624	81.873	-0.290	-0.311
-497.610	-20.097	0.199	0.121
-496.595	-30.561	0.195	0.110
-495.581	-42.398	-0.231	0.117
-494.566	-8.370	-0.387	-0.258
-493.551	640.043	0.090	-0.226
-492.537	-146.590	-0.027	0.002
-491.522	-172.710	-0.210	0.007
-490.508	482.149	-0.114	0.257
-489.493	-157.838	0.179	0.011
-488.478	113.651	0.093	-0.111
-487.464	58.931	0.198	0.193
-486.449	1.796	-0.008	0.006
-485.435	-161.580	0.193	-0.010
-484.420	-173.188	0.144	-0.004
-483.405	-71.686	-0.213	-0.079
-482.391	-150.992	-0.084	-0.006
-481.376	-200.000	-0.009	0.236
-480.362	104.511	-0.196	-0.228
-479.347	282.893	0.017	0.031
-478.332	319.441	-0.125	0.235
-477.318	-185.964	-0.193	0.003
-476.303	800.000	0.090	0.309
-475.289	-31.663	0.145	-0.081
-474.274	-82.379	-0.041	0.013
-473.259	-93.820	-0.279	0.076
-472.245	-18.397	0.186	-0.115
-471.230	-119.151	-0.214	-0.037
-470.216	-0.050	0.107	0.076
-469.201	282.181	0.060	-0.106
-468.186	-120.721	0.165	-0.028
-467.172	21.745	0.086	-0.069
-466.157	101.772	0.043	0.050
-465.143	-45.999	-0.166	0.081
-464.128	-64.252	0.182	0.073
-463.113	-37.461	-0.206	-0.109
-462.099	800.000	-0.068	-0.211
-461.084	340.211	-0.060	-0.116
-460.070	-45.011	-0.243	-0.120
-459.055	-83.937	0.165	0.052
-458.040	-45.812	0.217	0.106
-457.026	306.119	0.175	-0.321
-456.011	-182.429	0.231	-0.004
-454.997	-200.000	-0.038	0.265
-453.982	136.586	0.127	0.165
-452.968	-200.000	0.044	-0.214
-451.953	116.263	0.228	0.277
-450.938	-200.000	-0.053	0.375
-449.924	-200.000	0.086	-0.379
-448.909	-200.000	0.021	-0.136
-447.895	800.000	-0.100	0.297
-446.880	800.000	-0.061	0.177
-445.865	16.196	0.244	0.191
-444.851	-79.021	0.172	-0.058
-443.836	104.183	-0.195	0.227
-442.822	800.000	-0.105	-0.421
-441.807	-11.879	0.130	-0.084
-440.792	56.147	0.196	0.188
-439.778	-200.000	-0.021	0.226
-438.763	-200.000	-0.026	0.120
-437.749	-200.000	0.017	0.204
-436.734	17.875	0.249	0.196
-435.719	-7.405	0.203	0.136
-434.705	-94.476	0.186	0.050
-433.690	-80.786	0.241	0.079
-432.676	593.882	0.154	0.375
-431.661	-85.518	-0.202	-0.062
-430.646	198.207	-0.145	-0.220
-429.632	-29.760	0.277	-0.156
-428.617	800.000	0.100	-0.290
-427.603	-182.294	-0.231	0.004
-426.588	-136.171	0.319	-0.037
-425.573	-200.000	0.006	0.091
-424.559	-94.228	-0.138	-0.037
-423.544	800.000	0.075	-0.264
-422.530	-52.033	0.088	0.040
-421.515	-157.402	0.026	-0.002
-420.500	-54.782	-0.055	-0.025
-419.486	-160.995	-0.284	-0.015
-418.471	-200.000	0.017	0.417
-417.457	33.403	0.261	0.224
-416.442	-95.405	0.179	-0.047
-415.428	800.000	-0.042	0.144
-414.413	-61.594	0.298	-0.124
-413.398	104.512	0.162	-0.188
-412.384	-200.000	0.026	0.124
-411.369	800.000	0.028	-0.093
-410.355	-7.129	-0.104	0.070
-409.340	-180.516	-0.150	0.003
-408.325	5.381	-0.076	0.055
-407.311	-42.152	0.172	-0.087
-406.296	-84.452	-0.279	0.087
-405.282	-200.000	-0.051	0.312
-404.267	216.868	-0.134	-0.210
-403.252	800.000	0.128	-0.431
-402.238	405.739	-0.025	0.052
-401.223	-142.253	-0.209	0.020
-400.209	42.992	-0.180	0.162
-399.194	-200.000	-0.126	0.595
-398.179	442.356	-0.152	-0.329
-397.165	-170.453	-0.200	-0.007
-396.150	-58.201	0.205	0.088
-395.136	432.756	-0.088	0.188
-394.121	-200.000	0.008	-0.476
-393.106	-28.099	0.110	0.063
-392.092	112.524	-0.124	0.148
-391.077	-200.000	0.028	0.484
-390.063	-76.799	-0.226	0.078
-389.048	42.780	-0.336	-0.302
-388.033	46.071	-0.137	-0.125
-387.019	28.688	0.043	0.036
-386.004	-62.691	0.283	-0.116
-384.990	74.637	0.027	-0.028
-383.975	85.450	-0.214	-0.231
-382.960	800.000	-0.056	0.168
-381.946	597.318	-0.061	-0.150
-380.931	297.154	0.107	0.195
-379.917	-125.708	0.310	-0.046
-378.902	572.700	-0.053	0.128
-377.888	-200.000	0.018	-0.112
-376.873	-72.099	-0.209	-0.076
-375.858	71.653	-0.078	0.080
-374.844	12.125	0.034	-0.026
-373.829	-75.110	0.182	0.064
-372.815	-153.676	0.263	-0.018
-371.800	82.849	0.186	0.199
-370.785	169.234	-0.156	-0.220
-369.771	-23.975	0.060	-0.035
-368.756	-135.016	-0.307	-0.037
-367.742	512.771	0.092	0.212
-366.727	-200.000	-0.009	-0.042
-365.712	-200.000	-0.070	-0.495
-364.698	175.411	-0.155	-0.221
-363.683	75.584	0.095	0.099
-362.669	89.397	-0.216	-0.237
-361.654	800.000	-0.172	-0.542
-360.639	-16.313	-0.470	-0.294
-359.625	725.321	0.133	0.351
-358.610	640.668	-0.002	-0.006
-357.596	-61.279	-0.169	0.070
-356.581	-200.000	0.017	0.224
-355.566	65.630	0.066	-0.066
-354.552	-22.476	0.117	0.070
-353.537	-200.000	-0.063	0.364
-352.523	-70.792	-0.082	0.030
-351.508	4.006	0.126	0.091
-350.493	-77.352	0.031	-0.011
-349.479	800.000	0.082	-0.335
-348.464	-76.304	0.169	-0.059
-347.450	800.000	-0.022	0.084
-346.435	393.907	-0.080	0.164
-345.420	58.935	0.338	0.328
-344.406	57.067	0.109	-0.104
-343.391	-17.558	0.070	-0.043
-342.377	559.859	-0.123	0.293
-341.362	-76.149	-0.208	0.072
-340.348	55.974	0.097	-0.092
-339.333	-200.000	-0.010	0.185
-338.318	285.606	0.173	-0.306
-337.304	38.346	0.239	-0.210
-336.289	32.842	0.236	0.201
-335.275	-200.000	0.002	0.016
-334.260	-89.747	0.085	0.025
-333.245	570.103	-0.131	0.313
-332.231	-200.000	-0.025	-0.411
-331.216	-33.289	0.121	-0.066
-330.202	-62.318	0.377	0.154
-329.187	211.280	0.146	0.226
-328.172	72.995	-0.182	-0.187
-327.158	800.000	-0.028	-0.115
-326.143	-102.993	0.202	0.047
-325.129	323.445	0.021	0.040
-324.114	800.000	0.090	-0.256
-323.099	-0.252	-0.245	0.171
-322.085	446.933	-0.125	0.270
-321.070	-30.125	0.103	-0.058
-320.056	166.311	-0.244	0.340
-319.041	-67.542	-0.085	-0.033
-318.026	131.330	-0.287	-0.363
-317.012	67.364	0.042	0.042
-315.997	-123.282	-0.081	0.013
-314.983	25.366	-0.113	-0.093
-313.968	-138.656	-0.183	0.020
-312.953	800.000	0.067	-0.219
-311.939	11.681	-0.206	-0.156
-310.924	314.931	-0.070	0.130
-309.910	189.216	-0.353	0.520
-308.895	-59.963	0.234	0.098
-307.880	800.000	0.022	-0.085
-306.866	159.194	-0.007	0.009
-305.851	-8.333	0.212	-0.140
-304.837	-129.285	-0.256	0.035
-303.822	-200.000	-0.024	-0.111
-302.807	-81.815	-0.093	-0.030
-301.793	-155.259	-0.094	0.006
-300.778	34.290	-0.107	0.092
-299.764	-32.961	0.030	0.017
-298.749	800.000	-0.100	-0.432
-297.735	59.821	0.050	0.048
-296.720	42.816	-0.051	-0.046
-295.705	-129.989	0.329	0.044
-294.691	275.375	-0.014	-0.024
-293.676	501.023	-0.053	0.121
-292.662	-31.269	0.090	-0.050
-291.647	277.415	-0.137	0.239
-290.632	255.439	-0.243	0.410
-289.618	307.309	0.096	0.176
-288.603	-45.014	-0.075	0.037
-287.589	-50.380	0.122	-0.056
-286.574	-25.800	-0.073	-0.042
-285.559	-200.000	-0.109	0.641
-284.545	45.232	0.115	-0.104
-283.530	18.861	0.139	0.110
-282.516	-55.038	0.313	-0.139
-281.501	-40.574	-0.360	-0.183
-280.486	160.681	0.236	0.324
-279.472	-15.770	-0.168	-0.105
-278.457	-149.566	-0.160	0.012
-277.443	-154.109	-0.039	0.003
-276.428	-118.691	0.347	0.060
-275.413	219.918	0.146	-0.230
-274.399	633.726	0.056	0.140
-273.384	-137.440	0.052	0.006
-272.370	800.000	-0.044	0.135
-271.355	-200.000	0.031	0.299
-270.340	-200.000	-0.012	-0.077
-269.326	141.340	-0.248	0.322
-268.311	260.590	-0.169	-0.287
-267.297	-200.000	0.000	-0.234
-266.282	-200.000	-0.034	0.176
-265.267	-200.000	0.012	-0.120
-264.253	-200.000	-0.023	-0.198
-263.238	251.740	-0.175	-0.293
-262.224	64.755	-0.235	0.233
-261.209	-37.155	-0.323	-0.170
-260.195	-31.051	0.217	-0.120
-259.180	255.849	0.063	0.106
-258.165	-92.596	0.078	0.021
-257.151	24.314	-0.048	-0.039
-256.136	-133.076	-0.381	-0.047
-255.122	800.000	0.078	0.220
-254.107	-200.000	0.012	-0.151
-253.092	-200.000	0.047	-0.329
-252.078	-200.000	0.001	-0.028
-251.063	-34.749	-0.058	-0.031
-250.049	-40.705	-0.199	-0.101
-249.034	549.348	0.034	-0.080
-248.019	-134.223	0.155	0.019
-247.005	-16.653	0.151	-0.094
-245.990	800.000	0.052	0.215
-244.976	191.043	-0.075	0.110
-243.961	-64.256	-0.268	-0.107
-242.946	-23.725	0.187	0.110
-241.932	-200.000	-0.030	-0.178
-240.917	-200.000	-0.011	0.216
-239.903	88.911	-0.094	0.102
-238.888	-4.760	-0.180	0.122
-237.873	-200.000	-0.029	0.540
-236.859	449.654	-0.058	0.125
-235.844	-78.466	0.022	0.007
-234.830	-193.775	-0.298	0.002
-233.815	-200.000	-0.027	0.194
-232.800	-167.943	0.095	0.004
-231.786	-58.903	0.210	0.089
-230.771	-88.197	-0.209	-0.061
-229.757	150.874	-0.201	0.268
-228.742	264.369	0.267	0.455
-227.727	48.981	0.149	-0.137
-226.713	-162.094	0.243	0.012
-225.698	-126.088	0.331	0.049
-224.684	569.702	-0.061	-0.146
-223.669	42.531	0.170	0.152
-222.655	313.980	0.156	0.288
-221.640	-120.006	0.267	0.045
-220.625	12.503	0.306	-0.231
-219.611	114.395	-0.172	-0.205
-218.596	285.985	-0.141	0.249
-217.582	52.795	-0.273	-0.256
-216.567	563.578	0.106	-0.250
-215.552	439.503	0.084	-0.179
-214.538	-62.514	0.305	-0.124
-213.523	211.846	-0.148	-0.229
-212.509	-71.915	-0.137	-0.050
-211.494	-67.513	0.328	0.126
-210.479	800.000	0.080	-0.276
-209.465	-14.031	0.254	0.161
-208.450	-200.000	0.015	0.309
-207.436	270.131	0.006	0.010
-206.421	-47.375	-0.134	0.064
-205.406	-67.900	-0.328	0.126
-204.392	-69.586	-0.186	-0.070
-203.377	190.001	0.041	0.061
-202.363	186.358	0.076	0.110
-201.348	412.845	0.042	-0.087
-200.333	-113.386	0.226	-0.043
-199.319	-99.152	-0.198	0.049
-198.304	800.000	0.040	0.110
-197.290	-200.000	0.023	-0.140
-196.275	-200.000	0.059	-0.345
-195.260	160.537	-0.032	-0.044
-194.246	62.495	-0.121	0.119
-193.231	208.468	-0.011	0.018
-192.217	800.000	-0.140	-0.420
-191.202	-106.982	0.210	0.046
-190.187	-53.417	0.077	-0.035
-189.173	-189.583	0.210	-0.002
-188.158	35.024	0.192	0.165
-187.144	181.518	0.174	0.250
-186.129	-20.317	-0.137	0.082
-185.114	-38.534	0.257	0.133
-184.100	-103.278	-0.068	0.016
-183.085	45.532	-0.199	-0.180
-182.071	-25.501	0.139	0.080
-181.056	277.398	0.043	-0.076
-180.042	-19.928	0.180	-0.108
-179.027	-98.303	-0.110	0.028
-178.012	-16.079	-0.100	-0.062
-176.998	106.693	-0.129	-0.150
-175.983	109.526	0.290	0.340
-174.969	85.365	-0.106	-0.114
-173.954	125.234	0.140	-0.173
-172.939	800.000	0.019	-0.072
-171.925	52.216	0.210	-0.196
-170.910	12.575	-0.215	0.162
-169.896	468.475	0.072	-0.157
-168.881	731.248	0.034	0.088
-167.866	-40.922	0.016	-0.008
-166.852	226.112	-0.118	-0.187
-165.837	-42.314	-0.256	0.128
-164.823	-200.000	-0.042	-0.227
-163.808	-123.233	-0.291	0.045
-162.793	30.230	-0.045	0.038
-161.779	800.000	0.008	-0.023
-160.764	800.000	0.088	0.370
-159.750	800.000	0.101	0.410
-158.735	42.865	0.028	0.025
-157.720	-129.173	-0.190	0.026
-156.706	86.079	0.222	0.239
-155.691	-200.000	0.011	-0.112
-154.677	-200.000	0.097	-0.454
-153.662	-134.227	0.126	0.015
-152.647	-200.000	0.020	0.093
-151.633	74.070	0.087	0.089
-150.618	-110.621	0.135	-0.027
-149.604	470.568	-0.029	0.064
-148.589	-200.000	0.049	-0.276
-147.574	-179.489	-0.100	-0.002
-146.560	6.025	0.312	0.226
-145.545	-45.070	0.087	0.042
-144.531	5.331	0.314	-0.226
-143.516	142.241	0.251	0.325
-142.502	800.000	0.030	-0.128
-141.487	-23.155	0.245	0.144
-140.472	-75.504	0.183	-0.063
-139.458	264.881	-0.072	-0.123
-138.443	-19.308	0.307	-0.186
-137.429	105.448	-0.299	0.345
-136.414	-143.415	0.272	0.025
-135.399	-200.000	0.010	0.151
-134.385	-200.000	0.013	0.167
-133.370	800.000	-0.087	0.291
-132.356	-81.986	-0.389	0.124
-131.341	36.522	0.032	0.028
-130.326	258.471	0.035	-0.059
-129.312	-200.000	-0.008	0.111
-128.297	353.129	-0.119	-0.231
-127.283	-200.000	0.003	0.033
-126.268	-95.082	-0.395	-0.104
-125.253	-20.211	-0.290	-0.174
-124.239	761.047	-0.094	-0.249
-123.224	27.178	-0.087	0.071
-122.210	800.000	0.068	0.206
-121.195	85.394	0.016	-0.017
-120.180	-56.421	-0.057	0.025
-119.166	-122.882	0.291	0.046
-118.151	800.000	-0.100	-0.288
-117.137	-200.000	-0.006	-0.071
-116.122	-36.872	-0.169	-0.088
-115.107	120.869	0.137	0.166
-114.093	178.696	-0.235	-0.335
-113.078	201.118	0.080	-0.120
-112.064	55.776	-0.300	0.283
-111.049	800.000	0.060	-0.173
-110.034	800.000	-0.034	0.094
-109.020	54.461	-0.215	0.203
-108.005	-138.346	0.365	0.039
-106.991	-92.109	-0.233	0.064
-105.976	-147.616	-0.240	-0.020
-104.962	-134.929	0.482	0.057
-103.947	210.637	-0.074	-0.113
-102.932	-39.889	0.140	0.071
-101.918	800.000	-0.060	0.200
-100.903	-76.974	0.338	0.115
-99.889	-35.704	0.150	0.079
-98.874	-72.956	0.271	0.097
-97.859	80.096	0.133	-0.140
-96.845	94.705	0.234	0.259
-95.830	-28.380	0.167	-0.094
-94.816	-37.622	-0.234	-0.122
-93.801	512.866	-0.172	-0.390
-92.786	349.407	0.124	0.240
-91.772	14.322	0.104	0.079
-90.757	25.359	0.380	-0.308
-89.743	-71.991	-0.044	-0.016
-88.728	282.362	-0.090	-0.158
-87.713	287.244	-0.079	0.140
-86.699	487.694	-0.077	-0.170
-85.684	89.848	0.075	0.082
-84.670	63.521	-0.131	-0.128
-83.655	-15.815	0.282	-0.175
-82.640	53.940	-0.077	0.072
-81.626	-200.000	-0.021	-0.196
-80.611	-54.825	0.080	-0.035
-79.597	83.354	-0.209	-0.222
-78.582	-115.075	0.318	-0.059
-77.567	-200.000	-0.018	-0.168
-76.553	-200.000	-0.019	-0.125
-75.538	-145.334	-0.204	-0.018
-74.524	-49.170	0.129	0.060
-73.509	800.000	-0.031	-0.100
-72.494	283.979	0.033	0.057
-71.480	-123.215	-0.185	-0.029
-70.465	40.413	0.073	-0.064
-69.451	-200.000	0.049	-0.319
-68.436	800.000	0.061	-0.183
-67.422	-70.278	-0.199	0.074
-66.407	245.015	-0.172	0.282
-65.392	-14.281	0.286	0.179
-64.378	800.000	-0.016	0.060
-63.363	-200.000	0.024	-0.142
-62.349	-147.511	0.255	0.021
-61.334	65.692	-1.400	-1.381
-60.319	100.476	0.627	0.709
-59.305	468.609	-0.474	-1.035
-58.290	295.846	0.794	1.417
-57.276	432.518	0.618	1.306
-56.261	-200.000	120.779	641.161
-55.246	436.885	1532.963	3251.816
-54.232	149.602	2680.890	3536.728
-53.217	98.567	2153.922	2418.510
-52.203	34.862	1681.419	1432.411
-51.188	27.540	1500.635	1229.166
-50.173	25.520	1477.087	1196.406
-49.159	48.595	1545.835	1410.479
-48.144	46.299	1559.367	1407.085
-47.130	27.563	1509.803	1236.635
-46.115	24.586	1493.858	1203.510
-45.100	24.520	1490.682	1200.460
-44.086	24.501	1488.713	1198.698
-43.071	24.424	1486.891	1196.666
-42.057	24.326	1485.116	1194.530
-41.042	24.367	1483.554	1193.507
-40.027	24.331	1482.089	1192.040
-39.013	24.485	1480.133	1191.447
-37.998	24.422	1479.167	1190.200
-36.984	24.370	1478.245	1189.064
-35.969	24.378	1476.674	1187.805
-34.954	24.469	1475.199	1187.175
-33.940	24.408	1473.827	1185.619
-32.925	24.434	1472.210	1184.446
-31.911	24.304	1471.775	1183.189
-30.896	24.488	1469.862	1182.823
-29.881	24.458	1468.978	1181.866
-28.867	24.457	1467.559	1180.670
-27.852	24.553	1466.014	1180.011
-26.838	24.485	1464.643	1178.412
-25.823	24.552	1463.029	1177.511
-24.809	24.467	1461.903	1176.000
-23.794	24.578	1460.132	1175.254
-22.779	24.494	1459.361	1174.039
-21.765	24.415	1458.708	1172.946
-20.750	24.372	1457.395	1171.563
-19.736	24.522	1455.889	1171.289
-18.721	24.502	1454.896	1170.309
-17.706	24.471	1453.697	1169.099
-16.692	24.445	1452.832	1168.187
-15.677	24.504	1451.826	1167.718
-14.663	24.486	1451.047	1166.925
-13.648	24.292	1450.413	1165.102
-12.633	24.492	1449.180	1165.372
-11.619	24.504	1448.009	1164.464
-10.604	24.375	1447.905	1163.492
-9.590	24.358	1446.653	1162.330
-8.575	24.423	1445.672	1161.915
-7.560	24.372	1444.994	1160.991
-6.546	24.360	1444.144	1160.188
-5.531	24.394	1443.355	1159.725
-4.517	24.381	1442.079	1158.570
-3.502	24.476	1441.429	1158.622
-2.487	24.471	1440.084	1157.461
-1.473	24.482	1439.220	1156.791
-0.458	24.501	1437.532	1155.508
0.556	23.311	1428.152	1143.538
1.571	20.081	1404.182	1103.709
2.586	16.538	1342.373	1033.419
3.600	14.904	1259.951	960.505
4.615	13.871	1217.494	922.319
5.629	12.484	1161.750	872.656
6.644	6.591	1081.109	782.827
7.659	1.521	1044.845	732.136
8.673	0.884	1039.262	725.104
9.688	0.848	1036.214	722.744
10.702	0.771	1035.081	721.524
11.717	0.677	1033.204	719.702
12.731	2.717	1034.043	729.939
13.746	9.197	1042.640	766.958
14.761	15.126	1050.556	801.155
15.775	17.155	1052.322	812.143
16.790	17.058	1051.061	810.635
17.804	16.027	1048.854	803.945
18.819	15.203	1046.671	798.280
19.834	14.689	1045.773	795.077
20.848	14.411	1044.875	792.999
21.863	14.211	1044.198	791.464
22.877	13.953	1043.398	789.564
23.892	13.700	1042.394	787.532
24.907	13.608	1041.757	786.541
25.921	13.536	1041.081	785.620
26.936	13.648	1040.266	785.466
27.950	13.573	1039.672	784.595
28.965	13.694	1039.229	784.764
29.980	13.752	1038.053	784.082
30.994	13.928	1036.863	783.943
32.009	13.906	1036.601	783.573
33.023	14.006	1035.584	783.206
34.038	13.823	1035.024	781.851
35.053	13.877	1033.785	781.097
36.067	13.901	1032.887	780.466
37.082	13.731	1032.728	779.478
38.096	13.859	1031.777	779.292
39.111	13.926	1030.891	778.868
40.126	13.831	1030.562	778.105
41.140	13.803	1029.138	776.827
42.155	13.889	1027.983	776.290
43.169	13.629	1027.589	774.710
44.184	13.740	1026.502	774.337
45.199	13.707	1025.184	773.121
46.213	13.747	1024.261	772.546
47.228	13.771	1023.361	771.910
48.242	13.781	1021.908	770.790
49.257	13.793	1021.350	770.359
50.271	13.617	1020.794	769.052
51.286	13.833	1019.388	768.926
52.301	13.785	1019.118	768.432
53.315	13.840	1018.311	768.009
54.330	13.917	1016.846	767.195
55.344	13.718	1016.537	765.975
56.359	13.779	1015.330	765.279
57.374	13.820	1014.778	764.985
58.388	13.857	1013.607	764.203
59.403	13.610	1012.904	762.469
60.417	13.644	1012.096	761.950
61.432	13.575	1011.562	761.164
62.447	13.609	1010.959	760.800
63.461	13.637	1010.050	760.177
64.476	13.700	1008.745	759.414
65.490	13.650	1008.222	758.725
66.505	13.709	1006.971	757.986
67.520	13.706	1006.380	757.459
68.534	13.819	1006.171	757.749
69.549	13.803	1004.888	756.645
70.563	13.728	1004.410	755.877
71.578	13.691	1003.773	755.163
72.593	13.643	1002.814	754.155
73.607	13.722	1001.661	753.580
74.622	13.722	1000.925	752.961
75.636	13.651	1000.083	751.938
76.651	13.726	999.286	751.610
77.666	13.616	999.009	750.841
78.680	13.678	997.879	750.204
79.695	13.666	996.955	749.389
80.709	13.574	996.511	748.573
81.724	13.544	996.054	748.029
82.739	13.674	994.765	747.579
83.753	13.746	994.291	747.480
84.768	13.874	993.359	747.291
85.782	13.790	993.115	746.663
86.797	13.795	992.085	745.844
87.812	13.879	991.138	745.446
88.826	13.862	990.300	744.672
89.841	13.823	989.657	743.947
90.855	13.868	988.894	743.510
91.870	13.841	988.004	742.655
92.884	13.988	987.277	742.700
93.899	13.891	986.568	741.669
94.914	13.857	985.859	740.916
95.928	14.037	984.721	740.797
96.943	13.900	984.171	739.708
97.957	13.919	983.789	739.442
98.972	13.964	982.484	738.595
99.987	13.903	981.872	737.799
101.001	13.984	981.005	737.441
102.016	13.718	980.797	736.041
103.030	13.958	979.517	736.077
104.045	13.925	978.406	735.031
105.060	13.959	977.417	734.374
106.074	13.860	976.510	733.189
107.089	13.786	975.972	732.393
108.103	13.826	974.763	731.600
109.118	13.838	974.099	731.090
110.133	13.757	973.374	730.124
111.147	13.762	972.253	729.240
112.162	13.746	971.752	728.728
113.176	13.831	971.020	728.487
114.191	13.752	969.792	727.158
115.206	13.744	969.089	726.530
116.220	13.876	967.925	726.170
117.235	13.940	967.057	725.736
118.249	13.904	966.564	725.145
119.264	13.942	965.650	724.559
120.279	13.878	964.585	723.419
121.293	13.927	963.732	722.926
122.308	13.803	963.517	722.161
123.322	13.790	962.707	721.435
124.337	13.784	961.505	720.446
125.352	13.598	961.014	719.207
126.366	13.795	959.172	718.617
127.381	13.705	958.461	717.629
128.395	13.727	957.100	716.643
129.410	13.679	956.672	716.054
130.424	13.744	955.439	715.348
131.439	13.653	954.835	714.436
132.454	13.782	953.676	714.064
133.468	13.815	952.727	713.433
134.483	13.923	952.170	713.414
135.497	13.757	951.505	712.139
136.512	13.889	950.815	712.130
137.527	13.811	950.053	711.161
138.541	13.876	949.330	710.835
139.556	13.778	948.624	709.821
140.570	13.765	948.066	709.286
141.585	13.955	947.303	709.467
142.600	13.983	946.621	709.010
143.614	13.902	945.715	707.925
144.629	13.887	945.200	707.414
145.643	13.943	944.576	707.122
146.658	13.962	943.634	706.435
147.673	14.048	942.419	705.826
148.687	13.920	941.748	704.717
149.702	13.901	940.941	703.973
150.716	13.845	940.244	703.151
151.731	13.862	939.130	702.327
152.746	13.877	938.618	701.948
153.760	13.834	937.781	701.076
154.775	13.902	937.160	700.837
155.789	14.121	936.146	700.940
156.804	14.087	935.261	700.074
157.819	14.117	934.376	699.473
158.833	14.131	933.785	699.030
159.848	14.147	933.291	698.666
160.862	14.203	932.871	698.521
161.877	14.128	931.832	697.367
162.892	13.984	931.476	696.437
163.906	14.091	930.020	695.736
164.921	14.096	929.309	695.162
165.935	14.018	928.877	694.453
166.950	14.199	927.201	693.893
167.964	14.225	926.342	693.296
168.979	14.157	925.585	692.387
169.994	14.358	924.264	692.173
171.008	14.223	924.046	691.388
172.023	14.139	923.484	690.555
173.037	14.071	922.353	689.367
174.052	14.144	921.975	689.326
175.067	14.236	920.850	688.803
176.081	14.134	920.294	687.907
177.096	14.201	919.107	687.234
178.110	14.208	918.841	687.005
179.125	14.184	918.226	686.382
180.140	14.101	917.454	685.406
181.154	14.271	916.304	685.185
182.169	14.374	915.846	685.206
183.183	14.225	915.182	684.034
184.198	14.318	914.507	683.851
185.213	14.265	913.973	683.177
186.227	14.336	913.569	683.105
187.242	14.414	912.674	682.694
188.256	14.410	911.949	682.076
189.271	14.562	910.944	681.883
190.286	14.430	910.483	680.940
191.300	14.475	909.455	680.292
192.315	14.222	908.992	678.857
193.329	14.258	908.431	678.523
194.344	14.290	907.588	677.964
195.359	14.351	907.030	677.735
196.373	14.410	906.774	677.724
197.388	14.238	906.698	676.906
198.402	14.547	905.670	677.334
199.417	14.542	905.418	677.064
200.432	14.613	904.692	676.753
201.446	14.685	904.261	676.663
202.461	14.619	904.043	676.169
203.475	14.736	903.620	676.270
204.490	14.703	902.687	675.375
205.504	14.671	901.798	674.521
206.519	14.644	900.976	673.738
207.534	14.603	900.351	673.047
208.548	14.646	899.326	672.392
209.563	14.575	898.889	671.720
210.577	14.648	897.879	671.201
211.592	14.743	897.457	671.209
212.607	14.670	897.017	670.527
213.621	14.783	896.359	670.430
214.636	14.731	895.734	669.695
215.650	14.818	895.179	669.567
216.665	14.782	894.357	668.751
217.680	14.778	894.210	668.566
218.694	14.769	893.626	668.034
219.709	14.925	892.899	668.054
220.723	14.793	892.517	667.183
221.738	15.058	891.164	667.167
222.753	14.881	891.182	666.415
223.767	14.769	890.213	665.188
224.782	14.872	889.069	664.681
225.796	14.921	888.605	664.472
226.811	15.024	887.825	664.239
227.826	14.977	886.997	663.375
228.840	15.098	886.364	663.323
229.855	14.943	886.176	662.506
230.869	14.944	885.519	661.962
231.884	14.930	884.921	661.399
232.899	14.939	884.396	660.985
233.913	15.074	883.083	660.480
234.928	15.047	882.637	659.978
235.942	14.965	881.955	659.089
236.957	14.910	881.619	658.564
237.972	15.022	880.930	658.431
238.986	14.999	880.189	657.729
240.001	14.973	879.670	657.180
241.015	14.905	879.086	656.418
242.030	15.024	878.272	656.220
243.045	14.917	877.831	655.411
244.059	15.073	877.195	655.489
245.074	15.116	876.566	655.132
246.088	15.271	875.579	654.939
247.103	15.242	875.120	654.428
248.117	15.209	874.199	653.550
249.132	15.393	873.804	653.914
250.147	15.417	873.095	653.421
251.161	15.391	872.541	652.846
252.176	15.288	872.163	652.103
253.190	15.478	871.278	652.123
254.205	15.491	870.748	651.719
255.220	15.438	870.382	651.181
256.234	15.464	869.123	650.283
257.249	15.497	868.843	650.145
258.263	15.491	868.204	649.587
259.278	15.608	867.131	649.177
260.293	15.477	867.216	648.679
261.307	15.476	866.773	648.286
262.322	15.685	865.833	648.329
263.336	15.535	865.561	647.493
264.351	15.653	864.713	647.253
265.366	15.853	863.831	647.305
266.380	15.756	863.661	646.747
267.395	15.737	862.640	645.852
268.409	15.665	862.368	645.316
269.424	15.703	861.799	644.980
270.439	15.689	860.748	644.083
271.453	15.745	859.982	643.667
272.468	15.672	859.505	642.971
273.482	15.696	858.685	642.394
274.497	15.668	858.441	642.046
275.512	15.573	858.115	641.385
276.526	15.741	856.733	640.935
277.541	15.867	856.281	641.021
278.555	15.724	855.772	640.037
279.570	15.917	855.117	640.224
280.585	15.810	854.295	639.147
281.599	15.953	854.067	639.463
282.614	15.926	853.201	638.656
283.628	16.005	852.726	638.544
284.643	15.902	852.572	637.980
285.657	15.985	851.695	637.583
286.672	15.860	851.430	636.855
287.687	15.948	850.727	636.605
288.701	15.912	850.297	636.090
289.716	15.918	849.946	635.794
290.730	15.969	849.219	635.387
291.745	15.989	848.186	634.634
292.760	16.084	847.411	634.352
293.774	16.116	846.826	633.979
294.789	15.980	846.818	633.408
295.803	16.071	845.779	632.916
296.818	16.104	845.402	632.700
297.833	16.146	844.803	632.355
298.847	16.047	843.956	631.294
299.862	16.112	843.338	631.018
300.876	16.075	843.002	630.574
301.891	16.152	842.397	630.352
302.906	16.235	841.424	629.879
303.920	16.279	840.537	629.324
304.935	16.284	840.286	629.098
305.949	16.132	839.827	628.131
306.964	16.239	838.972	627.835
307.979	16.307	838.237	627.484
308.993	16.331	837.910	627.272
310.008	16.308	837.614	626.911
311.022	16.380	836.830	626.534
312.037	16.416	836.435	626.317
313.052	16.284	836.056	625.490
314.066	16.369	835.168	625.083
315.081	16.292	834.524	624.261
316.095	16.425	834.396	624.600
317.110	16.383	833.723	623.887
318.125	16.543	832.729	623.677
319.139	16.534	832.388	623.334
320.154	16.448	831.946	622.633
321.168	16.574	831.359	622.603
322.183	16.442	830.745	621.601
323.197	16.473	830.130	621.199
324.212	16.526	829.796	621.089
325.227	16.460	829.522	620.586
326.241	16.509	828.930	620.270
327.256	16.515	828.192	619.683
328.270	16.427	827.943	619.121
329.285	16.544	827.205	618.941
330.300	16.509	826.463	618.202
331.314	16.506	825.877	617.701
332.329	16.574	825.422	617.553
333.343	16.653	824.536	617.122
334.358	16.682	824.259	616.968
335.373	16.671	823.710	616.462
336.387	16.835	822.716	616.260
337.402	16.745	822.669	615.843
338.416	16.674	821.960	615.000
339.431	16.785	821.361	614.901
340.446	16.820	820.924	614.646
341.460	16.914	820.049	614.277
342.475	16.921	819.688	613.975
343.489	16.814	819.489	613.387
344.504	16.890	818.762	613.063
345.519	16.928	818.446	612.909
346.533	17.066	817.569	612.695
347.548	17.007	817.571	612.431
348.562	17.084	816.969	612.202
349.577	16.955	816.330	611.205
350.592	16.956	815.731	610.705
351.606	16.873	815.291	610.025
352.621	17.068	814.925	610.398
353.635	16.886	814.320	609.238
354.650	16.943	813.859	609.042
355.665	17.036	813.645	609.161
356.679	16.853	813.310	608.202
357.694	17.088	812.649	608.495
358.708	17.049	812.066	607.866
359.723	17.049	811.478	607.370
360.738	16.962	811.215	606.807
361.752	16.905	810.711	606.176
362.767	17.068	809.896	606.094
363.781	17.151	809.418	605.978
364.796	17.179	809.498	606.085
365.810	17.162	808.877	605.507
366.825	17.170	808.355	605.091
367.840	17.309	808.109	605.348
368.854	17.269	807.556	604.737
369.869	17.207	806.786	603.886
370.883	17.158	806.732	603.620
371.898	17.285	806.124	603.561
372.913	17.444	805.222	603.395
373.927	17.376	804.790	602.780
374.942	17.433	803.971	602.314
375.956	17.361	803.668	601.777
376.971	17.536	803.280	602.052
377.986	17.445	802.486	601.083
379.000	17.375	802.564	600.841
380.015	17.587	801.490	600.734
381.029	17.551	801.346	600.445
382.044	17.547	800.466	599.718
383.059	17.605	799.856	599.413
384.073	17.513	799.320	598.634
385.088	17.724	798.816	598.945
386.102	17.448	798.545	597.720
387.117	17.547	798.010	597.614
388.132	17.479	797.662	597.062
389.146	17.474	797.221	596.660
390.161	17.392	796.844	596.039
391.175	17.534	796.649	596.337
392.190	17.724	795.893	596.383
393.205	17.657	795.395	595.722
394.219	17.566	795.195	595.201
395.234	17.568	794.746	594.820
396.248	17.690	794.232	594.809
397.263	17.767	793.895	594.770
398.278	17.601	793.459	593.815
399.292	17.599	792.927	593.356
400.307	17.513	792.571	592.739
401.321	17.753	791.874	592.998
402.336	17.557	791.821	592.225
403.350	17.694	791.440	592.364
404.365	17.800	790.877	592.260
405.380	17.745	790.406	591.665
406.394	17.719	789.886	591.130
407.409	17.745	789.559	590.923
408.423	17.897	788.969	590.956
409.438	17.844	788.429	590.317
410.453	17.751	788.201	589.772
411.467	17.972	787.318	589.822
412.482	17.961	787.283	589.705
413.496	18.040	786.466	589.313
414.511	17.856	786.571	588.705
415.526	18.119	785.896	589.055
416.540	18.088	785.337	588.477
417.555	18.035	785.170	588.118
418.569	18.070	784.796	587.905
419.584	18.053	784.352	587.462
420.599	18.070	783.594	586.901
421.613	115.872	1295.848	1489.466
422.628	99.557	1370.454	1489.542
