DTS Sentinel unit serial number:	SN413079Multiplexer serial number:	ORYXHardware model number:	OX4-SRSoftware version number:	ORYX F/W v4.00 Oryx Data Collector v3.7.2.0data status	okinstallation	princeton_trtdifferential loss correction	single-endedforward channel	channel 3reverse channel	N/Adate	2019/09/12time	18:19:03forward acquisition time	15.00reverse acquisition time	0.00gamma	496.2192k internal	0.2316k external	0.2316temperature offset calibration	1.0090default loss term (dB/km)	0.3790temperature slope calibration	1.0000multiplexer offset coefficient	1.0000multiplexer slope coefficient	1.0000fibre end	0.00T internal ref (°C)	33.44T ext. ref 1 (°C)	2.93T ext. ref 2 (°C)	28.04length (m)	temperature (°C)	Stokes	anti-Stokes-747.200	-87.100	1.114	-0.343
-746.185	-81.438	0.504	-0.168
-745.171	800.000	0.279	-0.827
-744.156	-79.617	0.349	-0.119
-743.142	778.685	0.077	-0.213
-742.127	290.642	0.648	1.193
-741.112	85.276	0.071	0.079
-740.098	800.000	0.096	0.310
-739.083	-38.185	-0.259	-0.139
-738.069	-200.000	-0.022	0.310
-737.054	181.152	-0.099	-0.147
-736.039	-65.245	-0.146	0.060
-735.025	224.563	0.296	-0.484
-734.010	-22.918	0.600	0.367
-732.996	-47.545	-0.519	-0.255
-731.981	54.808	0.095	0.092
-730.966	-200.000	0.055	0.314
-729.952	39.126	-0.357	0.323
-728.937	242.003	-0.312	0.528
-727.923	116.556	0.340	-0.422
-726.908	210.362	-0.150	-0.238
-725.894	254.993	-0.318	-0.551
-724.879	-117.925	-0.402	-0.073
-723.864	23.126	0.627	-0.521
-722.850	800.000	0.306	-1.087
-721.835	122.019	-0.716	-0.905
-720.821	-108.083	0.243	0.053
-719.806	-200.000	-0.006	0.105
-718.791	-73.915	-0.544	-0.200
-717.777	-200.000	-0.038	-0.245
-716.762	-20.218	-0.111	0.069
-715.748	-52.525	-0.671	-0.314
-714.733	219.831	-0.317	0.513
-713.718	-90.798	-0.740	0.216
-712.704	167.116	-0.323	0.464
-711.689	261.292	0.255	0.446
-710.675	-200.000	-0.111	-0.614
-709.660	-42.009	1.098	-0.569
-708.645	129.530	0.208	0.269
-707.631	18.127	-0.738	-0.595
-706.616	-36.528	0.682	0.371
-705.602	-24.746	0.829	-0.498
-704.587	-200.000	-0.042	0.252
-703.572	33.275	0.168	-0.147
-702.558	-64.499	-0.420	0.173
-701.543	-68.869	0.190	-0.074
-700.529	-76.782	-0.675	0.239
-699.514	800.000	-0.030	-0.087
-698.499	-200.000	-0.074	0.679
-697.485	134.697	-0.273	0.358
-696.470	-123.365	-0.551	-0.089
-695.456	-165.863	0.318	-0.014
-694.441	-200.000	0.000	0.477
-693.426	-127.588	-1.089	-0.160
-692.412	-200.000	0.135	-0.791
-691.397	-200.000	0.039	0.854
-690.383	-77.555	-0.294	0.103
-689.368	3.233	0.438	0.322
-688.354	156.678	0.133	-0.186
-687.339	-200.000	0.106	-1.020
-686.324	25.284	-1.105	0.928
-685.310	-200.000	-0.011	-0.879
-684.295	-6.312	0.765	0.527
-683.281	134.665	0.376	-0.493
-682.266	-74.204	-0.132	0.048
-681.251	-200.000	-0.055	-0.250
-680.237	-146.543	0.865	-0.076
-679.222	451.685	-0.368	-0.822
-678.208	73.979	0.435	-0.461
-677.193	-160.897	0.631	-0.034
-676.178	130.172	-0.281	0.363
-675.164	-53.471	-0.500	-0.231
-674.149	-200.000	-0.123	0.944
-673.135	-70.664	0.068	0.026
-672.120	-200.000	0.049	0.263
-671.105	-73.334	-0.544	-0.201
-670.091	-36.070	-0.446	0.244
-669.076	5.391	-0.421	0.314
-668.062	-68.865	-0.711	0.277
-667.047	-16.549	-0.805	0.515
-666.032	238.149	0.249	0.418
-665.018	800.000	-0.228	0.836
-664.003	14.624	0.728	-0.575
-662.989	681.516	-0.201	-0.529
-661.974	51.066	-0.229	0.219
-660.959	800.000	0.122	0.519
-659.945	-86.655	-0.343	-0.106
-658.930	-168.379	0.869	0.034
-657.916	172.071	-0.055	0.080
-656.901	-63.202	-0.473	-0.197
-655.886	5.601	-0.602	0.449
-654.872	73.518	0.192	0.203
-653.857	-158.274	0.327	-0.019
-652.843	-158.290	-0.835	0.049
-651.828	800.000	-0.183	-0.795
-650.814	-159.237	-0.716	-0.041
-649.799	800.000	-0.082	-0.292
-648.784	-92.533	0.443	0.126
-647.770	-177.297	0.298	-0.007
-646.755	-115.314	0.294	0.056
-645.741	-106.764	-0.890	-0.199
-644.726	56.121	-0.360	-0.353
-643.711	262.233	-0.107	0.186
-642.697	666.359	0.128	0.333
-641.682	-118.314	-0.284	0.051
-640.668	184.093	0.380	0.568
-639.653	-132.018	-0.528	-0.069
-638.638	205.839	-0.092	0.144
-637.624	-133.798	0.301	0.038
-636.609	800.000	-0.144	0.532
-635.595	-200.000	-0.047	-0.819
-634.580	343.796	-0.278	-0.549
-633.565	-28.256	0.654	0.381
-632.551	-116.089	-0.329	-0.062
-631.536	-79.435	-0.946	-0.323
-630.522	87.417	-0.282	-0.315
-629.507	-117.184	-0.809	0.148
-628.492	-68.369	-0.712	-0.279
-627.478	-200.000	0.022	0.282
-626.463	-60.204	-0.402	-0.173
-625.449	80.558	0.519	-0.564
-624.434	-117.731	0.157	0.028
-623.419	-69.948	0.770	0.296
-622.405	71.331	-0.097	0.102
-621.390	-38.472	0.351	0.187
-620.376	-109.747	-0.317	0.067
-619.361	-110.740	-0.242	0.050
-618.346	-200.000	0.108	0.658
-617.332	28.828	0.145	0.123
-616.317	-171.507	0.206	0.007
-615.303	-170.419	0.765	0.027
-614.288	-133.937	-0.582	0.073
-613.273	191.493	-0.173	-0.263
-612.259	800.000	-0.184	0.705
-611.244	-30.300	-0.484	0.277
-610.230	519.194	-0.393	-0.927
-609.215	425.416	-0.331	-0.717
-608.201	12.945	0.465	-0.362
-607.186	-4.374	0.697	-0.486
-606.171	800.000	-0.345	-1.095
-605.157	43.404	-0.204	-0.188
-604.142	-200.000	0.066	-0.325
-603.128	196.541	-0.317	0.487
-602.113	59.487	0.557	0.553
-601.098	-26.142	0.798	-0.473
-600.084	81.752	0.526	0.574
-599.069	-1.878	0.247	-0.175
-598.055	363.893	-0.341	0.691
-597.040	-200.000	-0.008	-0.633
-596.025	60.264	-0.262	-0.261
-595.011	177.293	0.140	0.205
-593.996	-200.000	-0.014	1.000
-592.982	800.000	0.123	0.521
-591.967	9.311	-0.438	-0.334
-590.952	159.790	-0.374	0.525
-589.938	55.171	0.148	0.144
-588.923	-200.000	-0.055	0.605
-587.909	-18.009	0.360	-0.227
-586.894	45.436	-0.230	0.214
-585.879	20.182	0.232	-0.189
-584.865	57.676	0.107	-0.105
-583.850	-159.835	-0.394	-0.022
-582.836	-143.688	-0.605	-0.058
-581.821	-124.729	0.539	0.084
-580.806	237.619	-0.277	-0.463
-579.792	-94.466	0.429	0.118
-578.777	-111.839	-0.651	-0.132
-577.763	800.000	0.334	1.052
-576.748	800.000	0.054	-0.195
-575.733	-66.484	-0.670	-0.268
-574.719	58.519	-0.122	-0.121
-573.704	-98.673	0.425	0.109
-572.690	68.368	-0.316	-0.326
-571.675	-103.826	-0.694	-0.163
-570.661	800.000	-0.278	-0.888
-569.646	-200.000	-0.029	-0.170
-568.631	608.280	0.236	-0.593
-567.617	228.122	0.218	-0.357
-566.602	-200.000	-0.017	0.129
-565.588	-17.127	-0.535	0.339
-564.573	36.538	0.260	-0.231
-563.558	-200.000	0.076	-0.492
-562.544	-81.055	-0.521	-0.174
-561.529	36.615	0.388	-0.344
-560.515	-75.526	0.392	0.140
-559.500	-93.521	-0.713	0.198
-558.485	-200.000	-0.012	-0.358
-557.471	-1.096	0.469	0.333
-556.456	728.293	0.200	0.538
-555.442	-200.000	-0.159	-0.708
-554.427	695.775	-0.252	-0.666
-553.412	800.000	-0.084	-0.298
-552.398	-26.647	-0.588	0.346
-551.383	-103.378	0.150	-0.036
-550.369	541.226	0.388	-0.930
-549.354	-36.084	-0.616	-0.334
-548.339	-102.285	0.390	0.094
-547.325	-136.369	0.711	0.083
-546.310	-105.285	0.324	-0.074
-545.296	-154.670	-0.621	0.042
-544.281	715.579	0.366	0.977
-543.266	-200.000	-0.000	0.269
-542.252	800.000	-0.199	-0.575
-541.237	800.000	-0.177	-0.498
-540.223	-32.315	0.580	-0.325
-539.208	-95.738	0.691	-0.186
-538.193	800.000	-0.333	-0.938
-537.179	-122.701	-0.286	0.047
-536.164	800.000	0.029	0.100
-535.150	128.773	-0.698	0.894
-534.135	156.833	-0.357	0.495
-533.121	300.449	0.301	-0.558
-532.106	-200.000	0.112	0.524
-531.091	-200.000	-0.042	-0.403
-530.077	195.784	0.504	0.770
-529.062	343.354	-0.137	0.269
-528.048	122.413	0.251	-0.315
-527.033	-37.567	0.886	-0.475
-526.018	64.329	-0.566	0.573
-525.004	-156.719	-0.436	-0.027
-523.989	-200.000	-0.181	0.821
-522.975	-124.136	0.399	-0.063
-521.960	-173.352	-0.065	-0.002
-520.945	800.000	0.085	-0.273
-519.931	-102.651	-0.448	-0.107
-518.916	-100.035	-0.191	0.048
-517.902	-200.000	0.000	-0.233
-516.887	-20.399	-0.335	0.207
-515.872	-93.440	0.791	0.220
-514.858	-68.041	-0.769	-0.301
-513.843	13.471	-0.408	-0.317
-512.829	-200.000	-0.007	-0.246
-511.814	800.000	-0.111	-0.462
-510.799	-141.586	-0.716	0.072
-509.785	-142.030	-0.364	0.036
-508.770	-37.669	-0.097	-0.052
-507.756	604.932	0.223	-0.558
-506.741	297.240	0.445	0.821
-505.726	325.467	-0.469	0.900
-504.712	800.000	0.081	-0.258
-503.697	-200.000	-0.095	0.777
-502.683	225.322	0.495	0.804
-501.668	77.395	0.568	-0.607
-500.653	-60.805	0.560	0.238
-499.639	-162.192	0.321	-0.016
-498.624	178.115	-0.524	-0.768
-497.610	-71.560	-0.455	0.171
-496.595	74.497	0.474	0.500
-495.581	40.049	-0.411	-0.370
-494.566	171.427	0.256	-0.368
-493.551	779.468	0.124	-0.341
-492.537	-200.000	0.065	-0.513
-491.522	203.198	0.280	-0.435
-490.508	-153.129	0.512	-0.036
-489.493	119.774	0.123	-0.153
-488.478	-200.000	0.085	-0.588
-487.464	381.152	-0.521	1.072
-486.449	-0.689	1.072	0.762
-485.435	166.680	-0.287	0.408
-484.420	280.712	0.334	0.598
-483.405	328.380	-0.042	0.082
-482.391	-200.000	0.197	1.060
-481.376	29.341	0.137	-0.117
-480.362	-17.139	-0.559	-0.353
-479.347	800.000	0.144	0.521
-478.332	-8.553	0.290	-0.195
-477.318	9.013	-0.075	-0.057
-476.303	-45.420	0.275	-0.137
-475.289	-8.627	0.525	-0.354
-474.274	-42.170	0.372	0.191
-473.259	-62.760	0.283	-0.117
-472.245	262.121	-0.506	0.880
-471.230	66.462	-0.317	-0.323
-470.216	101.359	0.242	-0.282
-469.201	5.426	0.739	-0.546
-468.186	-26.548	-0.108	0.063
-467.172	189.975	-0.302	0.454
-466.157	-176.484	-0.567	-0.015
-465.143	800.000	-0.172	0.483
-464.128	39.510	-0.740	0.665
-463.113	-26.557	0.251	-0.147
-462.099	2.771	-0.299	0.217
-461.084	-200.000	0.116	-0.867
-460.070	-200.000	-0.066	-0.719
-459.055	-7.322	-0.464	-0.315
-458.040	-105.365	-0.154	-0.035
-457.026	97.511	-0.106	0.121
-456.011	105.607	0.104	-0.123
-454.997	-200.000	0.001	0.689
-453.982	789.148	-0.189	-0.519
-452.968	-2.237	0.467	-0.329
-451.953	605.651	-0.330	-0.824
-450.938	593.793	0.203	-0.503
-449.924	46.623	0.213	-0.198
-448.909	-53.725	0.131	0.060
-447.895	-151.718	0.411	0.030
-446.880	-101.974	-0.500	0.121
-445.865	270.903	-0.332	-0.585
-444.851	110.762	-0.328	-0.395
-443.836	-200.000	-0.069	0.588
-442.822	-52.843	-0.751	-0.346
-441.807	-200.000	0.098	-0.567
-440.792	-99.498	-0.408	-0.103
-439.778	-40.225	-0.561	0.292
-438.763	770.901	-0.333	-0.908
-437.749	-200.000	0.110	-0.706
-436.734	-56.208	-0.601	-0.268
-435.719	-92.154	-0.210	-0.059
-434.705	81.428	-0.372	0.402
-433.690	-200.000	0.111	-0.577
-432.676	-82.066	0.424	-0.138
-431.661	-109.185	0.625	0.133
-430.646	115.573	-0.334	-0.408
-429.632	-153.715	0.066	-0.005
-428.617	-22.312	-0.599	-0.364
-427.603	800.000	-0.207	-0.614
-426.588	-70.066	0.763	0.291
-425.573	-200.000	-0.117	0.575
-424.559	-16.334	-0.376	-0.239
-423.544	511.864	-0.217	0.506
-422.530	26.981	-0.613	-0.514
-421.515	-200.000	0.005	0.027
-420.500	65.302	-0.224	-0.227
-419.486	154.158	0.419	0.575
-418.471	800.000	-0.301	0.956
-417.457	296.961	0.280	-0.514
-416.442	-4.384	0.295	-0.204
-415.428	-200.000	0.047	0.941
-414.413	-81.416	-0.418	0.138
-413.398	238.524	0.557	-0.925
-412.384	-151.215	-0.458	-0.034
-411.369	71.952	-0.612	0.636
-410.355	50.942	0.156	0.148
-409.340	-38.129	-0.246	0.130
-408.325	-47.691	0.220	0.107
-407.311	4.002	0.179	-0.131
-406.296	-114.851	0.322	0.061
-405.282	-120.915	-0.771	-0.130
-404.267	60.206	-0.367	-0.363
-403.252	800.000	0.059	-0.175
-402.238	15.372	0.346	-0.271
-401.223	-98.450	-0.785	-0.201
-400.209	-22.451	0.483	-0.293
-399.194	202.412	-0.345	-0.532
-398.179	-73.419	-0.353	0.129
-397.165	96.100	-0.266	0.304
-396.150	-103.130	-0.813	-0.192
-395.136	-0.313	-0.281	-0.199
-394.121	-145.349	0.347	-0.031
-393.106	-200.000	0.007	0.112
-392.092	21.468	-0.305	0.247
-391.077	330.594	0.350	0.673
-390.063	800.000	-0.064	0.191
-389.048	-200.000	0.043	-0.318
-388.033	152.203	-0.141	0.192
-387.019	-24.534	-0.653	0.388
-386.004	-200.000	0.040	0.526
-384.990	-42.515	0.544	0.277
-383.975	-200.000	0.010	-0.264
-382.960	358.815	-0.165	0.330
-381.946	-200.000	0.036	0.201
-380.931	-122.615	0.074	-0.012
-379.917	-112.932	-0.331	0.065
-378.902	407.646	-0.275	-0.581
-377.888	-41.080	-0.283	0.146
-376.873	800.000	0.224	-0.770
-375.858	91.741	0.186	0.209
-374.844	800.000	-0.301	1.035
-373.829	48.120	0.744	-0.694
-372.815	800.000	-0.254	-1.062
-371.800	-200.000	0.005	-0.218
-370.785	-32.312	-0.904	-0.504
-369.771	-28.780	-0.386	0.222
-368.756	-200.000	0.140	-0.691
-367.742	-1.672	0.499	-0.351
-366.727	84.344	-0.259	-0.283
-365.712	-108.114	0.308	0.067
-364.698	-58.123	-0.277	-0.120
-363.683	363.163	-0.255	0.512
-362.669	-200.000	0.153	-0.924
-361.654	800.000	-0.052	0.212
-360.639	-64.320	0.506	0.206
-359.625	-24.855	-0.130	-0.077
-358.610	-58.058	-0.199	0.087
-357.596	-200.000	-0.013	0.487
-356.581	-36.399	0.121	-0.065
-355.566	-53.413	0.714	-0.326
-354.552	-138.502	0.562	-0.062
-353.537	209.563	0.164	0.256
-352.523	353.496	0.259	0.512
-351.508	245.631	-0.191	0.320
-350.493	-101.295	0.296	-0.072
-349.479	-19.009	-0.124	-0.077
-348.464	173.728	0.325	-0.468
-347.450	63.340	0.529	-0.529
-346.435	-200.000	-0.169	-0.814
-345.420	-109.359	0.486	0.103
-344.406	-50.996	0.139	0.065
-343.391	-166.837	0.209	0.009
-342.377	-10.116	-0.238	0.157
-341.362	800.000	-0.203	-0.558
-340.348	800.000	-0.085	-0.302
-339.333	-200.000	0.080	0.495
-338.318	-117.383	-0.128	-0.023
-337.304	800.000	0.147	0.451
-336.289	-36.684	-1.130	-0.605
-335.275	669.272	-0.283	0.730
-334.260	-200.000	-0.000	0.719
-333.245	454.804	-0.063	-0.139
-332.231	70.934	0.676	-0.698
-331.216	513.928	0.229	-0.532
-330.202	67.536	0.203	0.207
-329.187	-200.000	-0.180	0.858
-328.172	351.040	0.072	0.141
-327.158	-143.213	0.255	0.024
-326.143	80.416	0.263	0.282
-325.129	-146.299	0.470	0.041
-324.114	113.104	0.306	0.370
-323.099	-29.536	0.472	0.269
-322.085	293.679	0.480	0.873
-321.070	-33.434	-0.975	0.537
-320.056	-70.045	0.639	0.242
-319.041	-94.313	-0.785	0.214
-318.026	176.025	0.566	0.819
-317.012	443.869	0.053	-0.116
-315.997	-142.897	-0.777	0.075
-314.983	-60.646	0.632	-0.267
-313.968	-200.000	0.001	-0.389
-312.953	-80.361	0.221	-0.074
-311.939	-148.527	-0.410	-0.033
-310.924	-200.000	-0.096	-0.437
-309.910	647.602	0.125	0.317
-308.895	257.288	0.134	-0.230
-307.880	37.666	-0.490	0.433
-306.866	-33.033	0.375	-0.207
-305.851	126.082	-0.331	0.416
-304.837	13.704	-0.239	0.185
-303.822	108.772	0.454	0.540
-302.807	-120.533	1.030	-0.174
-301.793	17.591	0.136	-0.108
-300.778	800.000	-0.039	-0.124
-299.764	-151.818	-0.660	-0.048
-298.749	-198.408	0.804	0.005
-297.735	-30.646	0.594	0.335
-296.720	139.600	-0.019	0.024
-295.705	-13.279	-0.291	-0.188
-294.691	276.948	-0.496	0.878
-293.676	77.087	-0.327	-0.346
-292.662	20.242	0.297	0.239
-291.647	85.253	0.599	-0.655
-290.632	55.021	0.506	0.486
-289.618	-200.000	0.051	-0.452
-288.603	800.000	-0.326	1.298
-287.589	800.000	-0.184	0.567
-286.574	-98.132	0.575	0.147
-285.559	800.000	0.046	0.174
-284.545	-66.956	-0.345	-0.136
-283.530	-200.000	0.029	0.607
-282.516	-38.697	-0.555	-0.291
-281.501	134.226	-0.656	0.846
-280.486	-200.000	-0.141	0.768
-279.472	-164.872	0.387	-0.017
-278.457	-41.839	0.464	0.237
-277.443	-1.910	0.246	-0.172
-276.428	-92.541	-0.461	-0.129
-275.413	-200.000	0.087	-0.536
-274.399	-65.800	0.135	-0.054
-273.384	-83.740	0.869	-0.276
-272.370	-128.116	-0.624	-0.089
-271.355	28.355	-0.671	0.564
-270.340	-88.050	0.503	0.150
-269.326	800.000	-0.088	-0.313
-268.311	34.759	-0.524	0.456
-267.297	-88.389	-0.295	-0.088
-266.282	737.245	-0.077	0.207
-265.267	-99.296	-0.550	0.138
-264.253	-175.484	0.272	0.007
-263.238	621.866	-0.230	0.576
-262.224	-185.443	0.716	-0.011
-261.209	220.073	0.234	0.373
-260.195	-200.000	0.132	0.617
-259.180	138.645	0.197	0.257
-258.165	-19.013	0.128	-0.079
-257.151	222.846	-0.510	0.817
-256.136	-139.579	0.595	0.063
-255.122	-200.000	0.007	-0.035
-254.107	219.530	0.282	0.449
-253.092	326.657	-0.329	-0.627
-252.078	-26.971	-0.182	0.106
-251.063	-168.259	-0.177	-0.007
-250.049	-121.748	0.317	0.052
-249.034	-54.756	0.131	0.059
-248.019	266.728	-0.511	0.888
-247.005	47.143	0.224	-0.207
-245.990	-26.021	-0.858	-0.502
-244.976	-16.568	0.304	0.191
-243.961	234.077	0.211	-0.345
-242.946	-100.975	0.634	0.155
-241.932	56.608	0.885	-0.856
-240.917	171.894	-0.137	0.195
-239.903	315.446	0.274	0.514
-238.888	-85.988	0.230	-0.071
-237.873	10.618	-0.217	-0.164
-236.859	301.789	0.015	-0.027
-235.844	-121.056	0.413	-0.069
-234.830	397.561	0.184	0.381
-233.815	800.000	0.096	-0.335
-232.800	-151.145	-0.497	-0.037
-231.786	288.354	-0.228	0.409
-230.771	-31.459	0.687	0.384
-229.757	-175.385	0.421	-0.011
-228.742	243.310	-0.323	-0.538
-227.727	79.630	0.415	-0.442
-226.713	225.347	-0.235	-0.378
-225.698	175.026	-0.154	0.222
-224.684	-127.593	-0.381	0.055
-223.669	350.085	-0.156	-0.307
-222.655	-56.119	-0.522	0.231
-221.640	-21.757	-0.317	0.191
-220.625	-57.303	-0.503	0.220
-219.611	-12.291	0.151	0.098
-218.596	37.441	0.634	0.558
-217.582	800.000	-0.156	0.439
-216.567	19.323	-0.349	-0.278
-215.552	-78.406	-0.212	-0.072
-214.538	196.262	-0.261	0.395
-213.523	36.893	0.489	0.429
-212.509	418.001	-0.178	0.378
-211.494	-43.384	-0.589	0.295
-210.479	190.031	0.711	-1.058
-209.465	-112.724	0.181	-0.036
-208.450	24.669	0.270	-0.222
-207.436	153.264	0.213	-0.289
-206.421	173.252	-0.161	-0.230
-205.406	81.541	-0.491	-0.527
-204.392	-200.000	0.024	-0.335
-203.377	-49.048	0.122	-0.058
-202.363	-74.401	-0.300	0.107
-201.348	-200.000	0.008	0.108
-200.333	20.804	-0.274	-0.220
-199.319	214.799	0.350	-0.551
-198.304	24.538	0.658	-0.540
-197.290	572.127	0.289	-0.699
-196.275	-200.000	-0.085	0.387
-195.260	-161.440	0.359	-0.018
-194.246	87.872	0.610	0.670
-193.231	-53.824	-0.237	0.107
-192.217	-74.569	0.159	0.057
-191.202	47.614	0.532	0.492
-190.187	-88.100	0.620	-0.184
-189.173	453.571	0.429	-0.940
-188.158	-149.546	0.284	0.022
-187.144	800.000	-0.243	0.727
-186.129	-200.000	0.065	-0.339
-185.114	800.000	-0.198	-0.708
-184.100	-200.000	-0.017	0.618
-183.085	95.440	-0.196	-0.221
-182.071	214.075	-0.136	0.213
-181.056	-124.149	0.293	0.046
-180.042	-119.864	0.930	-0.159
-179.027	188.187	0.146	0.216
-178.012	159.892	-0.358	0.494
-176.998	-141.193	-0.968	-0.098
-175.983	-76.596	0.343	0.119
-174.969	800.000	-0.034	-0.112
-173.954	585.237	0.028	0.069
-172.939	-200.000	-0.127	0.680
-171.925	215.451	-0.244	0.384
-170.910	-46.761	0.115	-0.056
-169.896	-200.000	0.068	0.543
-168.881	281.389	0.313	0.554
-167.866	407.780	0.435	-0.912
-166.852	798.633	-0.224	0.611
-165.837	-47.737	-0.176	-0.084
-164.823	141.235	0.261	-0.342
-163.808	-110.538	0.967	-0.198
-162.793	289.119	-0.249	0.446
-161.779	479.379	0.157	-0.351
-160.764	-101.363	0.048	-0.012
-159.750	457.026	0.062	-0.135
-158.735	-29.886	0.425	-0.240
-157.720	31.415	0.995	0.846
-156.706	-11.863	-0.437	-0.284
-155.691	800.000	-0.271	-1.068
-154.677	-200.000	-0.055	0.462
-153.662	246.141	0.330	-0.551
-152.647	219.995	0.394	-0.624
-151.633	-149.863	-0.517	0.040
-150.618	-179.763	-0.564	0.012
-149.604	181.343	0.543	0.791
-148.589	-188.382	-1.058	0.013
-147.574	-200.000	0.016	0.278
-146.560	-91.833	0.964	-0.271
-145.545	-200.000	-0.021	-0.504
-144.531	291.812	-0.476	-0.858
-143.516	-200.000	0.117	-0.642
-142.502	-103.379	-1.417	0.331
-141.487	9.394	0.375	-0.280
-140.472	-60.070	0.549	0.232
-139.458	5.151	-0.318	-0.232
-138.443	-200.000	0.011	0.834
-137.429	193.637	-0.157	-0.236
-136.414	64.042	0.291	-0.290
-135.399	-156.866	-0.522	0.032
-134.385	116.177	-0.390	0.473
-133.370	248.364	0.296	0.495
-132.356	-200.000	0.015	0.851
-131.341	-200.000	-0.237	1.329
-130.326	-79.692	-0.630	-0.210
-129.312	-200.000	-0.004	0.023
-128.297	173.851	-0.409	0.585
-127.283	287.760	-0.201	0.360
-126.268	444.357	0.150	-0.325
-125.253	-87.179	0.621	0.187
-124.239	474.059	-0.245	-0.547
-123.224	-200.000	-0.025	-0.618
-122.210	800.000	0.235	-0.834
-121.195	800.000	-0.138	-0.411
-120.180	-103.376	0.709	-0.165
-119.166	-158.269	-0.390	-0.022
-118.151	-89.986	0.279	0.080
-117.137	349.637	0.272	0.530
-116.122	-200.000	0.037	0.375
-115.107	-144.259	-0.473	-0.044
-114.093	345.157	-0.095	0.184
-113.078	-37.637	0.513	0.270
-112.064	-126.950	-0.752	-0.109
-111.049	800.000	-0.057	0.192
-110.034	-80.812	-0.320	-0.105
-109.020	362.001	-0.184	0.365
-108.005	37.582	-0.489	-0.429
-106.991	27.951	-0.339	-0.282
-105.976	37.829	0.148	-0.130
-104.962	-161.839	0.564	0.028
-103.947	800.000	0.401	1.309
-102.932	-55.895	0.494	0.218
-101.918	-97.491	0.598	-0.154
-100.903	157.095	0.359	-0.490
-99.889	209.113	-0.175	-0.271
-98.874	-70.803	-0.344	0.128
-97.859	46.153	-0.637	0.583
-96.845	800.000	-0.401	-1.096
-95.830	-173.364	-0.980	-0.029
-94.816	156.261	-0.290	0.395
-93.801	781.870	-0.351	0.949
-92.786	800.000	0.011	-0.031
-91.772	-123.627	0.399	0.062
-90.757	138.224	0.202	0.261
-89.743	-68.189	0.943	0.363
-88.728	-200.000	-0.025	0.141
-87.713	-12.883	-0.053	0.034
-86.699	-93.674	0.572	0.156
-85.684	78.058	-0.766	-0.807
-84.670	348.692	0.202	0.393
-83.655	-81.926	0.726	0.235
-82.640	297.171	-0.226	-0.410
-81.626	328.322	0.304	0.576
-80.611	-200.000	-0.019	-0.229
-79.597	-89.661	-0.337	0.097
-78.582	-200.000	-0.081	0.901
-77.567	-4.404	-0.654	0.447
-76.553	2.344	0.337	-0.241
-75.538	425.047	-0.166	-0.352
-74.524	-200.000	0.149	-0.678
-73.509	154.034	-0.089	0.120
-72.494	-200.000	0.015	0.455
-71.480	-89.942	0.582	-0.168
-70.465	-47.175	-0.057	0.027
-69.451	133.939	-0.250	-0.319
-68.436	30.833	0.728	0.615
-67.422	350.996	0.361	0.705
-66.407	-157.146	-0.186	-0.011
-65.392	-179.609	0.144	-0.003
-64.378	-80.696	-0.475	0.156
-63.363	0.143	0.199	0.140
-62.349	106.987	0.275	0.322
-61.334	109.443	-1.074	-1.269
-60.319	127.576	0.450	0.564
-59.305	-200.000	-0.152	-1.295
-58.290	382.032	0.542	1.099
-57.276	299.777	0.789	1.433
-56.261	-200.000	95.726	572.023
-55.246	636.899	1373.625	3440.630
-54.232	197.975	2547.326	3838.984
-53.217	117.556	2154.929	2614.540
-52.203	43.870	1699.797	1535.098
-51.188	36.876	1514.058	1319.867
-50.173	34.224	1488.690	1279.902
-49.159	54.276	1539.236	1460.825
-48.144	55.118	1557.192	1483.563
-47.130	36.740	1515.422	1319.915
-46.115	33.481	1500.944	1285.197
-45.100	33.455	1497.187	1281.754
-44.086	33.410	1495.935	1280.326
-43.071	33.363	1494.401	1278.640
-42.057	33.196	1492.326	1275.691
-41.042	33.285	1491.570	1275.596
-40.027	33.440	1489.170	1274.536
-39.013	33.420	1487.735	1273.117
-37.998	33.302	1487.042	1271.681
-36.984	33.479	1485.894	1271.840
-35.969	33.322	1484.509	1269.554
-34.954	33.419	1483.409	1269.210
-33.940	33.547	1481.504	1268.389
-32.925	33.394	1480.760	1266.676
-31.911	33.337	1479.471	1265.143
-30.896	33.538	1478.150	1265.304
-29.881	33.566	1475.901	1263.515
-28.867	33.478	1475.220	1262.296
-27.852	33.323	1473.777	1259.977
-26.838	33.495	1473.141	1260.533
-25.823	33.731	1470.145	1259.485
-24.809	33.469	1468.451	1256.248
-23.794	33.336	1468.708	1255.530
-22.779	33.582	1466.469	1255.197
-21.765	33.497	1464.869	1253.213
-20.750	33.492	1463.225	1251.728
-19.736	33.424	1462.786	1250.850
-18.721	33.399	1461.592	1249.617
-17.706	33.351	1461.007	1248.749
-16.692	33.514	1459.825	1248.762
-15.677	33.525	1457.309	1246.633
-14.663	33.555	1457.567	1247.003
-13.648	33.348	1457.155	1245.241
-12.633	33.458	1455.698	1244.671
-11.619	33.185	1455.599	1242.739
-10.604	33.439	1454.534	1243.452
-9.590	33.308	1453.585	1241.730
-8.575	33.419	1452.513	1241.492
-7.560	33.398	1451.827	1240.720
-6.546	33.648	1450.668	1241.318
-5.531	33.410	1449.590	1238.785
-4.517	33.540	1449.242	1239.292
-3.502	33.384	1448.027	1237.184
-2.487	33.282	1447.545	1236.054
-1.473	33.124	1447.863	1235.247
-0.458	33.223	1445.474	1233.808
0.556	34.236	1434.672	1221.999
1.571	31.086	1408.986	1180.120
2.586	27.265	1351.144	1108.340
3.600	25.566	1269.551	1031.582
4.615	23.909	1223.724	985.085
5.629	20.569	1166.754	921.472
6.644	11.703	1081.100	810.015
7.659	3.901	1041.294	742.774
8.673	3.097	1035.568	734.786
9.688	2.928	1032.015	731.394
10.702	2.640	1029.891	728.455
11.717	3.056	1027.083	728.377
12.731	5.812	1031.508	744.551
13.746	15.157	1044.677	798.736
14.761	22.929	1055.252	844.037
15.775	25.278	1057.260	856.795
16.790	25.748	1056.395	858.259
17.804	25.689	1054.812	856.617
18.819	25.171	1055.862	854.928
19.834	25.819	1053.546	856.056
20.848	25.809	1054.206	856.469
21.863	25.845	1053.146	855.702
22.877	25.491	1054.006	854.644
23.892	25.625	1052.552	854.025
24.907	25.419	1052.208	852.690
25.921	25.415	1051.208	851.789
26.936	25.586	1050.303	851.788
27.950	25.608	1049.269	850.979
28.965	25.798	1047.760	850.579
29.980	25.289	1046.974	847.460
30.994	25.573	1045.563	847.585
32.009	25.554	1044.706	846.725
33.023	25.905	1043.924	847.666
34.038	25.410	1043.132	844.621
35.053	25.711	1042.064	845.094
36.067	25.676	1041.187	844.144
37.082	25.356	1041.593	842.897
38.096	25.299	1040.816	841.926
39.111	25.799	1039.710	843.299
40.126	25.827	1037.984	841.956
41.140	25.552	1037.231	839.988
42.155	25.434	1036.536	838.801
43.169	25.357	1034.556	836.764
44.184	24.973	1034.931	835.203
45.199	25.106	1034.462	835.370
46.213	25.127	1032.643	833.923
47.228	25.421	1031.037	833.921
48.242	25.526	1030.733	834.086
49.257	25.393	1031.143	833.726
50.271	25.309	1029.962	832.308
51.286	25.726	1028.485	832.970
52.301	25.630	1029.194	833.028
53.315	25.559	1027.502	831.259
54.330	25.846	1026.237	831.485
55.344	25.675	1026.129	830.534
56.359	25.847	1024.312	829.782
57.374	25.654	1025.030	829.400
58.388	25.428	1024.673	827.997
59.403	25.207	1024.182	826.510
60.417	25.637	1022.537	827.085
61.432	25.310	1021.619	824.766
62.447	25.338	1021.187	824.476
63.461	25.353	1020.363	823.805
64.476	25.712	1017.993	823.460
65.490	25.259	1019.135	822.240
66.505	25.787	1017.694	823.419
67.520	25.499	1017.232	821.656
68.534	25.158	1016.908	819.760
69.549	25.410	1015.317	819.556
70.563	25.125	1013.972	817.099
71.578	24.874	1013.986	815.895
72.593	24.811	1013.142	814.858
73.607	24.797	1011.713	813.570
74.622	25.207	1010.001	813.984
75.636	25.182	1010.390	814.112
76.651	25.048	1009.539	812.747
77.666	25.022	1008.988	812.111
78.680	25.353	1007.429	812.284
79.695	24.951	1007.535	810.477
80.709	25.021	1007.724	810.875
81.724	25.333	1006.197	810.985
82.739	25.216	1005.321	809.680
83.753	25.493	1003.971	809.766
84.768	25.616	1003.498	809.866
85.782	26.148	1003.640	812.307
86.797	26.045	1002.409	810.776
87.812	26.296	1001.201	810.854
88.826	25.933	1000.766	808.798
89.841	25.969	999.945	808.225
90.855	26.189	998.337	807.838
91.870	25.527	999.715	805.918
92.884	26.013	998.399	806.959
93.899	26.051	996.489	805.515
94.914	25.726	996.099	803.675
95.928	25.874	995.411	803.711
96.943	25.943	994.676	803.353
97.957	25.468	993.937	800.568
98.972	25.644	992.160	799.851
99.987	25.662	990.241	798.314
101.001	25.347	990.105	796.735
102.016	25.755	990.319	798.646
103.030	25.934	989.222	798.486
104.045	26.125	987.797	798.108
105.060	25.631	987.759	795.821
106.074	25.505	985.764	793.588
107.089	25.555	985.941	793.883
108.103	25.778	985.505	794.444
109.118	25.681	984.434	793.082
110.133	25.211	984.027	790.615
111.147	25.414	983.566	791.066
112.162	25.387	981.836	789.488
113.176	25.783	979.666	789.412
114.191	25.197	979.907	786.965
115.206	25.339	979.034	786.817
116.220	24.888	977.640	783.651
117.235	24.852	977.192	783.064
118.249	25.097	976.806	783.758
119.264	24.735	976.130	781.566
120.279	25.022	973.989	781.031
121.293	25.200	973.723	781.527
122.308	25.073	973.918	781.060
123.322	24.929	972.758	779.434
124.337	25.045	971.843	779.136
125.352	25.289	970.057	778.695
126.366	24.791	969.361	775.909
127.381	24.462	968.108	773.410
128.395	25.148	966.436	774.972
129.410	25.733	966.611	777.572
130.424	25.658	966.562	777.139
131.439	25.792	965.118	776.488
132.454	26.032	964.182	776.698
133.468	25.759	964.047	775.344
134.483	25.455	964.265	774.145
135.497	25.337	962.896	772.467
136.512	26.255	961.378	775.123
137.527	25.734	961.503	772.920
138.541	26.075	960.515	773.517
139.556	25.831	960.314	772.244
140.570	25.713	959.623	771.111
141.585	25.900	958.576	771.003
142.600	26.465	956.881	771.983
143.614	26.450	955.529	770.761
144.629	26.139	955.741	769.536
145.643	26.091	955.171	768.807
146.658	26.004	954.381	767.733
147.673	25.923	953.473	766.591
148.687	25.666	953.356	765.334
149.702	25.760	951.609	764.262
150.716	25.468	950.473	762.043
151.731	25.839	948.638	762.078
152.746	25.793	948.088	761.375
153.760	26.180	947.864	762.760
154.775	25.976	947.001	761.139
155.789	25.980	946.406	760.608
156.804	26.093	945.334	760.156
157.819	26.203	944.051	759.518
158.833	25.915	944.010	758.207
159.848	26.195	943.169	758.643
160.862	26.546	941.631	758.812
161.877	26.097	941.636	756.862
162.892	26.260	940.206	756.329
163.906	26.334	939.442	755.958
164.921	26.221	938.152	754.381
165.935	25.986	937.679	752.956
166.950	26.270	936.266	752.937
167.964	26.415	935.070	752.510
168.979	25.804	934.738	749.635
169.994	25.967	934.118	749.749
171.008	25.992	932.753	748.691
172.023	25.963	932.647	748.418
173.037	26.338	931.600	749.066
174.052	26.164	930.696	747.554
175.067	26.360	928.654	746.659
176.081	25.875	928.837	744.733
177.096	26.113	928.400	745.303
178.110	25.915	927.667	743.828
179.125	25.868	926.455	742.600
180.140	25.562	926.228	741.091
181.154	25.612	924.425	739.787
182.169	25.318	924.991	738.965
183.183	26.125	923.075	740.680
184.198	25.855	924.726	740.831
185.213	26.433	922.149	741.072
186.227	26.160	922.195	739.924
187.242	26.294	921.484	739.838
188.256	26.123	921.756	739.287
189.271	26.301	920.322	738.801
190.286	26.209	919.857	737.984
191.300	26.006	919.181	736.549
192.315	25.554	918.185	733.842
193.329	25.157	915.713	730.184
194.344	24.768	914.672	727.707
195.359	25.260	915.328	730.166
196.373	25.848	915.808	732.880
197.388	26.256	914.835	733.694
198.402	26.156	915.480	733.739
199.417	25.952	915.045	732.495
200.432	26.175	913.781	732.322
201.446	26.038	913.008	731.087
202.461	25.606	912.926	729.205
203.475	25.790	912.442	729.496
204.490	25.759	910.283	727.583
205.504	24.445	908.296	720.626
206.519	24.970	908.582	722.911
207.534	25.852	908.395	726.258
208.548	25.650	908.142	725.176
209.563	26.025	907.804	726.350
210.577	26.311	906.272	726.209
211.592	25.963	906.018	724.543
212.607	26.357	906.229	726.232
213.621	26.228	905.911	725.393
214.636	26.459	904.861	725.415
215.650	26.491	903.769	724.606
216.665	26.264	904.403	724.138
217.680	26.232	903.454	723.186
218.694	26.217	903.499	723.098
219.709	26.040	902.210	721.297
220.723	25.671	901.467	719.165
221.738	25.904	901.186	719.809
222.753	25.987	900.858	719.814
223.767	26.167	900.007	719.788
224.782	26.278	898.836	719.228
225.796	26.632	897.829	719.765
226.811	26.479	897.672	718.969
227.826	25.893	897.619	716.535
228.840	25.713	894.912	713.594
229.855	25.207	895.185	711.742
230.869	25.844	894.095	713.336
231.884	25.420	893.397	711.041
232.899	25.193	892.461	709.334
233.913	25.983	892.861	712.711
234.928	26.559	891.745	714.030
235.942	26.084	891.200	711.660
236.957	26.054	891.821	711.974
237.972	26.181	889.583	710.624
238.986	25.965	888.853	709.128
240.001	25.745	889.042	708.351
241.015	25.789	888.025	707.649
242.030	26.033	888.145	708.643
243.045	26.196	887.169	708.440
244.059	26.045	887.028	707.674
245.074	26.166	886.061	707.313
246.088	26.102	885.850	706.831
247.103	25.562	886.197	704.927
248.117	26.060	885.054	705.906
249.132	26.519	884.541	707.231
250.147	26.797	884.890	708.531
251.161	27.113	883.785	708.819
252.176	27.142	884.009	709.047
253.190	27.084	881.921	707.085
254.205	27.006	882.310	707.032
255.220	27.226	882.565	708.030
256.234	27.134	880.786	706.181
257.249	27.133	880.325	705.745
258.263	27.000	880.476	705.287
259.278	27.264	878.998	705.065
260.293	26.853	879.867	704.103
261.307	27.196	878.710	704.445
262.322	26.964	877.983	702.902
263.336	27.003	877.171	702.342
264.351	26.746	876.131	700.451
265.366	25.639	874.229	694.597
266.380	25.007	873.398	691.437
267.395	26.118	873.628	695.846
268.409	26.959	873.750	699.123
269.424	26.801	872.714	697.624
270.439	26.303	873.846	696.546
271.453	27.133	871.521	697.821
272.468	26.792	871.362	696.323
273.482	26.943	870.615	696.244
274.497	27.250	871.124	697.767
275.512	27.000	869.548	695.485
276.526	26.760	867.911	693.198
277.541	26.701	867.960	692.950
278.555	27.148	867.480	694.214
279.570	26.859	867.711	693.233
280.585	26.938	866.392	692.419
281.599	26.742	866.337	691.566
282.614	26.839	865.429	691.149
283.628	26.331	864.274	688.233
284.643	26.072	863.961	686.936
285.657	26.466	863.231	687.793
286.672	26.323	863.310	687.251
287.687	26.266	862.011	685.942
288.701	26.139	861.744	685.185
289.716	26.653	862.091	687.351
290.730	26.326	861.383	685.486
291.745	26.298	859.549	683.859
292.760	26.084	859.469	682.926
293.774	26.153	857.592	681.635
294.789	27.095	858.682	685.999
295.803	27.671	858.811	688.216
296.818	27.953	858.739	689.163
297.833	27.410	858.604	686.943
298.847	27.009	857.536	684.516
299.862	26.947	856.726	683.576
300.876	26.944	855.718	682.699
301.891	27.374	855.629	684.186
302.906	27.465	855.187	684.115
303.920	27.071	854.761	682.234
304.935	27.006	853.650	681.041
305.949	27.336	853.590	682.171
306.964	27.321	852.896	681.502
307.979	27.002	852.122	679.626
308.993	26.909	851.549	678.763
310.008	27.750	850.738	681.196
311.022	27.511	851.042	680.487
312.037	27.510	849.817	679.445
313.052	26.891	850.001	677.222
314.066	27.144	848.141	676.623
315.081	26.445	847.105	673.137
316.095	25.712	846.402	669.789
317.110	26.750	845.972	673.248
318.125	27.211	846.369	675.218
319.139	26.749	845.482	672.738
320.154	25.862	843.925	668.152
321.168	25.236	842.562	664.692
322.183	25.875	843.181	667.490
323.197	26.567	844.074	670.703
324.212	27.063	843.500	672.025
325.227	27.189	842.367	671.527
326.241	27.039	842.608	671.105
327.256	26.821	841.854	669.641
328.270	26.958	840.744	669.206
329.285	26.973	840.251	668.809
330.300	26.606	840.397	667.511
331.314	26.386	838.832	665.399
332.329	26.960	837.669	666.526
333.343	26.979	838.805	667.444
334.358	27.426	838.513	668.794
335.373	27.058	837.645	666.690
336.387	27.213	837.234	666.875
337.402	28.065	836.182	669.094
338.416	27.841	836.445	668.427
339.431	27.624	835.470	666.795
340.446	27.955	834.854	667.455
341.460	28.019	835.215	667.916
342.475	28.092	834.375	667.452
343.489	28.127	832.807	666.268
344.504	27.377	833.782	664.250
345.519	28.033	832.115	665.254
346.533	28.183	832.340	665.920
347.548	28.182	832.930	666.331
348.562	28.231	831.460	665.272
349.577	27.894	830.620	663.319
350.592	27.879	830.491	663.101
351.606	28.234	829.306	663.385
352.621	28.161	828.803	662.661
353.635	28.039	828.896	662.232
354.650	27.930	828.324	661.322
355.665	27.852	826.697	659.686
356.679	26.619	825.510	654.228
357.694	26.633	824.668	653.551
358.708	27.352	824.683	656.099
359.723	27.045	824.442	654.742
360.738	27.088	824.457	654.850
361.752	27.571	824.194	656.325
362.767	27.788	823.292	656.329
363.781	28.150	823.788	657.969
364.796	28.389	823.128	658.242
365.810	28.364	823.371	658.288
366.825	28.353	822.886	657.804
367.840	28.255	822.083	656.750
368.854	28.118	821.871	656.032
369.869	28.210	820.024	654.828
370.883	27.895	820.709	654.192
371.898	28.204	819.531	654.299
372.913	28.156	818.462	653.216
373.927	28.087	818.926	653.282
374.942	28.373	817.544	653.141
375.956	28.154	816.975	651.848
376.971	28.135	817.329	652.005
377.986	28.264	816.053	651.390
379.000	28.418	815.805	651.680
380.015	28.568	815.797	652.151
381.029	28.298	814.945	650.451
382.044	28.303	814.395	649.975
383.059	28.325	814.421	650.013
384.073	28.443	813.960	650.010
385.088	28.603	812.292	649.184
386.102	28.649	812.331	649.322
387.117	28.456	811.328	647.779
388.132	28.065	810.344	645.556
389.146	27.782	810.496	644.621
390.161	27.454	809.298	642.455
391.175	27.436	809.073	642.157
392.190	28.047	808.959	644.164
393.205	28.357	808.126	644.533
394.219	27.056	807.042	639.036
395.234	25.525	804.248	631.397
396.248	24.886	803.151	628.236
397.263	25.856	803.715	632.027
398.278	27.433	805.728	639.094
399.292	27.736	806.133	640.424
400.307	27.783	805.614	640.118
401.321	27.517	804.683	638.390
402.336	28.088	803.605	639.477
403.350	28.146	803.623	639.637
404.365	28.643	803.390	641.130
405.380	28.596	804.532	641.820
406.394	28.889	803.880	642.268
407.409	29.287	802.705	642.661
408.423	29.250	802.568	642.365
409.438	28.691	802.224	640.083
410.453	29.073	801.968	641.155
411.467	29.168	801.359	640.942
412.482	28.874	800.643	639.288
413.496	28.925	800.220	639.072
414.511	28.868	800.431	638.986
415.526	29.303	799.374	639.596
416.540	29.457	798.415	639.307
417.555	28.807	799.190	637.613
418.569	28.534	798.269	635.877
419.584	28.576	797.539	635.383
420.599	29.030	796.398	635.990
421.613	158.990	1370.207	1792.842
422.628	137.820	1453.872	1792.895
