DTS Sentinel unit serial number:	SN413079Multiplexer serial number:	ORYXHardware model number:	OX4-SRSoftware version number:	ORYX F/W v4.00 Oryx Data Collector v3.7.2.0data status	okinstallation	princeton_trtdifferential loss correction	single-endedforward channel	channel 3reverse channel	N/Adate	2019/09/13time	01:44:35forward acquisition time	60.00reverse acquisition time	0.00gamma	496.2192k internal	0.2334k external	0.2334temperature offset calibration	1.0122default loss term (dB/km)	0.3790temperature slope calibration	1.0000multiplexer offset coefficient	1.0000multiplexer slope coefficient	1.0000fibre end	0.00T internal ref (°C)	27.69T ext. ref 1 (°C)	3.80T ext. ref 2 (°C)	22.34length (m)	temperature (°C)	Stokes	anti-Stokes-747.200	49.013	0.159	-0.150
-746.185	90.716	0.121	0.136
-745.171	800.000	-0.078	-0.256
-744.156	-80.627	-0.256	-0.086
-743.142	-35.015	0.241	0.132
-742.127	-80.439	-0.321	-0.108
-741.112	-88.752	-0.039	-0.012
-740.098	-200.000	0.072	0.354
-739.083	-160.688	0.171	-0.009
-738.069	-200.000	0.002	0.051
-737.054	-64.335	0.226	-0.092
-736.039	-150.669	-0.394	-0.030
-735.025	-111.448	0.453	0.093
-734.010	717.895	-0.145	-0.388
-732.996	-6.807	0.140	0.096
-731.981	599.476	-0.122	-0.304
-730.966	-200.000	-0.002	0.301
-729.952	135.099	0.053	0.069
-728.937	800.000	-0.051	-0.181
-727.923	-116.934	0.148	0.027
-726.908	-112.421	-0.271	-0.054
-725.894	-64.863	-0.164	0.067
-724.879	139.180	0.034	0.045
-723.864	-25.673	0.194	-0.115
-722.850	21.236	0.164	0.134
-721.835	80.317	-0.222	0.240
-720.821	-24.313	0.170	-0.102
-719.806	-34.732	-0.014	-0.008
-718.791	-34.415	-0.276	-0.152
-717.777	-200.000	-0.008	-0.296
-716.762	-102.211	0.385	0.093
-715.748	43.569	0.113	0.103
-714.733	466.229	0.069	-0.154
-713.718	800.000	-0.013	0.056
-712.704	-63.987	0.225	-0.092
-711.689	-158.953	-0.056	0.003
-710.675	136.389	-0.166	0.217
-709.660	800.000	-0.090	-0.266
-708.645	-85.505	0.173	0.054
-707.631	324.458	-0.072	-0.139
-706.616	199.493	-0.046	-0.071
-705.602	-200.000	0.037	-0.204
-704.587	-200.000	-0.016	-0.225
-703.572	435.389	0.084	0.184
-702.558	-143.496	-0.094	-0.009
-701.543	-29.239	-0.279	0.160
-700.529	-200.000	-0.011	-0.126
-699.514	-200.000	0.014	-0.088
-698.499	66.555	0.213	-0.217
-697.485	105.417	-0.259	0.306
-696.470	553.580	-0.036	0.088
-695.456	-103.867	-0.410	-0.096
-694.441	-5.120	-0.253	-0.174
-693.426	143.645	-0.099	-0.132
-692.412	-88.863	0.084	0.025
-691.397	82.611	0.081	0.088
-690.383	-200.000	-0.037	0.206
-689.368	-70.992	-0.269	0.102
-688.354	56.699	0.124	0.121
-687.339	-200.000	0.005	0.044
-686.324	74.163	0.060	0.063
-685.310	-17.497	0.058	-0.037
-684.295	-167.448	0.271	0.011
-683.281	-4.032	-0.037	-0.026
-682.266	59.121	0.145	-0.143
-681.251	-100.419	-0.261	-0.065
-680.237	-192.981	0.140	0.001
-679.222	-200.000	0.002	-0.187
-678.208	206.408	-0.168	0.263
-677.193	-36.354	-0.400	0.216
-676.178	-144.639	0.233	0.022
-675.164	348.401	0.082	0.162
-674.149	-177.267	-0.057	-0.001
-673.135	-3.460	-0.399	-0.279
-672.120	-200.000	-0.037	0.232
-671.105	-143.835	0.206	0.020
-670.091	-164.539	0.171	-0.008
-669.076	15.127	-0.103	-0.081
-668.062	-200.000	-0.020	-0.160
-667.047	-140.005	0.299	-0.032
-666.032	59.736	-0.139	0.138
-665.018	324.990	-0.067	-0.129
-664.003	-200.000	0.036	0.169
-662.989	129.312	0.211	0.269
-661.974	800.000	0.082	-0.272
-660.959	-132.545	-0.209	-0.027
-659.945	-71.019	-0.255	-0.096
-658.930	293.001	0.083	-0.152
-657.916	-200.000	-0.000	0.071
-656.901	374.756	0.045	0.091
-655.886	-27.298	-0.140	-0.082
-654.872	-161.160	0.399	0.021
-653.857	328.205	0.052	-0.100
-652.843	-187.785	-0.075	0.001
-651.828	106.492	-0.145	0.172
-650.814	800.000	-0.045	-0.143
-649.799	169.898	0.216	-0.310
-648.784	800.000	-0.030	0.102
-647.770	-181.445	-0.057	-0.001
-646.755	37.105	-0.128	-0.114
-645.741	800.000	0.042	-0.149
-644.726	244.785	0.097	0.164
-643.711	-200.000	0.001	0.224
-642.697	-95.964	-0.042	-0.011
-641.682	-200.000	0.021	-0.186
-640.668	-200.000	0.004	-0.092
-639.653	-200.000	0.018	-0.295
-638.638	-59.165	-0.046	0.020
-637.624	25.271	0.217	-0.180
-636.609	-70.271	0.110	0.042
-635.595	-200.000	-0.011	-0.164
-634.580	-149.778	-0.290	0.023
-633.565	-200.000	0.039	0.232
-632.551	576.497	-0.039	0.095
-631.536	-22.162	-0.297	-0.181
-630.522	534.724	0.140	0.332
-629.507	-200.000	-0.021	-0.158
-628.492	-86.698	0.237	-0.073
-627.478	-171.460	0.283	-0.009
-626.463	800.000	0.106	0.417
-625.449	91.060	-0.136	0.153
-624.434	-200.000	-0.072	0.491
-623.419	44.358	0.109	-0.100
-622.405	245.497	-0.106	0.178
-621.390	-200.000	-0.020	0.297
-620.376	-65.165	-0.262	0.106
-619.361	-93.464	0.078	-0.022
-618.346	727.305	-0.118	-0.316
-617.332	-200.000	0.033	0.155
-616.317	800.000	0.017	-0.067
-615.303	183.304	0.133	-0.196
-614.288	-200.000	0.027	-0.242
-613.273	-141.863	0.171	-0.017
-612.259	-140.345	-0.303	-0.032
-611.244	5.811	-0.023	0.017
-610.230	-77.260	0.201	-0.070
-609.215	-200.000	-0.042	-0.203
-608.201	-104.281	-0.325	-0.075
-607.186	-168.919	-0.156	0.006
-606.171	129.439	0.021	0.027
-605.157	41.537	-0.188	0.170
-604.142	754.924	0.088	-0.239
-603.128	-8.044	0.156	-0.105
-602.113	-200.000	-0.013	-0.212
-601.098	-47.041	0.113	-0.055
-600.084	-200.000	-0.055	-0.343
-599.069	387.199	-0.187	0.385
-598.055	195.850	-0.237	0.361
-597.040	-134.700	-0.287	-0.035
-596.025	7.939	-0.176	-0.132
-595.011	25.029	0.097	-0.080
-593.996	249.376	0.044	0.075
-592.982	-8.856	-0.140	0.094
-591.967	-200.000	-0.005	0.059
-590.952	-97.557	0.077	-0.020
-589.938	-105.974	-0.191	-0.043
-588.923	-57.528	-0.206	-0.090
-587.909	-200.000	-0.014	-0.172
-586.894	55.772	0.191	-0.185
-585.879	90.261	0.172	0.192
-584.865	800.000	0.098	0.283
-583.850	-91.953	0.030	0.009
-582.836	-34.070	-0.396	-0.217
-581.821	800.000	-0.009	0.026
-580.806	190.663	0.115	-0.172
-579.792	251.364	-0.165	-0.281
-578.777	278.234	0.051	0.091
-577.763	-33.869	0.096	0.053
-576.748	36.402	0.071	-0.062
-575.733	-145.314	-0.377	-0.034
-574.719	198.970	0.161	-0.246
-573.704	104.489	-0.282	-0.332
-572.690	212.852	0.041	0.065
-571.675	-99.391	0.406	-0.102
-570.661	-87.657	-0.202	-0.061
-569.646	-164.162	0.417	0.019
-568.631	337.166	0.049	0.096
-567.617	129.099	-0.183	-0.233
-566.602	430.984	0.112	-0.242
-565.588	61.589	-0.172	0.171
-564.573	-77.969	0.161	-0.055
-563.558	740.986	-0.004	-0.011
-562.544	-102.561	-0.048	0.011
-561.529	-95.249	-0.162	0.044
-560.515	-200.000	0.004	-0.072
-559.500	12.687	0.080	0.062
-558.485	-39.396	-0.026	-0.014
-557.471	190.989	-0.098	-0.147
-556.456	57.389	-0.118	-0.115
-555.442	80.676	0.335	-0.360
-554.427	119.367	0.094	0.116
-553.412	596.479	-0.039	-0.095
-552.398	278.502	-0.245	-0.436
-551.383	-15.785	0.241	0.153
-550.369	1.184	-0.082	0.059
-549.354	-121.775	-0.113	0.019
-548.339	-200.000	-0.060	-0.000
-547.325	-63.482	0.162	-0.066
-546.310	800.000	0.022	-0.089
-545.296	-200.000	-0.041	0.281
-544.281	87.625	0.287	0.317
-543.266	-56.036	-0.255	-0.113
-542.252	82.081	0.092	-0.099
-541.237	800.000	-0.038	-0.128
-540.223	-200.000	-0.025	0.110
-539.208	101.469	-0.087	0.101
-538.193	129.904	-0.101	-0.129
-537.179	800.000	-0.024	0.088
-536.164	70.622	0.156	-0.161
-535.150	-136.104	-0.296	0.035
-534.135	620.960	-0.075	0.187
-533.121	-92.057	0.189	-0.053
-532.106	-93.385	0.364	-0.100
-531.091	-67.143	-0.194	-0.076
-530.077	-200.000	-0.015	0.161
-529.062	82.991	-0.196	0.212
-528.048	800.000	0.107	0.420
-527.033	-200.000	0.062	0.475
-526.018	67.827	-0.208	-0.212
-525.004	-166.915	0.209	0.009
-523.989	70.136	-0.142	0.146
-522.975	-132.427	-0.288	0.037
-521.960	-23.879	0.291	-0.174
-520.945	-163.475	-0.296	-0.014
-519.931	-171.680	-0.210	0.007
-518.916	-49.818	-0.236	0.112
-517.902	-75.784	0.344	0.122
-516.887	8.684	-0.140	-0.105
-515.872	324.399	0.145	0.276
-514.858	357.778	0.113	-0.224
-513.843	-61.879	0.250	-0.104
-512.829	-93.786	-0.068	-0.019
-511.814	112.793	-0.278	0.336
-510.799	-94.554	0.283	0.077
-509.785	-9.486	0.072	0.048
-508.770	800.000	0.048	-0.176
-507.756	80.941	-0.144	-0.155
-506.741	621.751	-0.073	0.183
-505.726	9.389	0.066	0.050
-504.712	130.882	0.076	-0.097
-503.697	-40.421	0.225	0.116
-502.683	53.585	0.103	0.099
-501.668	-81.623	-0.152	-0.050
-500.653	15.025	-0.080	-0.062
-499.639	656.138	0.061	0.157
-498.624	294.094	-0.014	0.025
-497.610	-107.845	-0.328	0.071
-496.595	800.000	-0.065	-0.280
-495.581	293.637	-0.224	-0.406
-494.566	-165.624	0.297	0.013
-493.551	-200.000	0.004	-0.216
-492.537	174.575	0.156	-0.224
-491.522	-200.000	0.001	-0.119
-490.508	-31.128	-0.096	-0.054
-489.493	-27.620	-0.348	-0.201
-488.478	-200.000	0.005	0.064
-487.464	-169.702	-0.196	0.007
-486.449	5.322	-0.265	0.194
-485.435	-158.051	-0.247	0.014
-484.420	-21.610	0.184	-0.112
-483.405	800.000	0.090	-0.265
-482.391	75.512	-0.173	-0.182
-481.376	-54.241	-0.240	-0.108
-480.362	-47.154	0.144	-0.070
-479.347	-78.777	0.157	-0.053
-478.332	-20.613	-0.315	0.193
-477.318	11.393	0.083	-0.064
-476.303	2.309	0.078	0.056
-475.289	709.569	-0.070	-0.184
-474.274	-200.000	0.092	0.501
-473.259	-200.000	-0.019	-0.294
-472.245	-41.978	0.252	-0.128
-471.230	59.691	-0.114	-0.112
-470.216	-58.095	0.176	0.076
-469.201	-89.060	0.155	-0.046
-468.186	142.302	0.082	-0.109
-467.172	20.238	-0.256	0.206
-466.157	-122.394	0.121	-0.020
-465.143	66.203	0.236	0.239
-464.128	-200.000	-0.001	-0.091
-463.113	-41.137	0.184	0.094
-462.099	473.540	0.066	0.148
-461.084	-156.449	0.056	0.003
-460.070	-54.409	0.233	-0.105
-459.055	-176.818	-0.109	0.003
-458.040	399.158	0.015	0.031
-457.026	-61.146	0.241	-0.101
-456.011	512.925	0.067	-0.155
-454.997	-116.552	0.248	-0.045
-453.982	-58.724	0.314	0.135
-452.968	-79.515	-0.178	0.060
-451.953	-200.000	-0.019	0.086
-450.938	-104.338	-0.329	0.076
-449.924	232.955	0.060	-0.098
-448.909	110.626	0.142	0.169
-447.895	77.261	0.184	0.194
-446.880	-18.990	0.185	0.114
-445.865	37.193	0.136	-0.120
-444.851	-97.098	0.104	-0.027
-443.836	-122.979	-0.477	-0.076
-442.822	800.000	0.038	0.105
-441.807	800.000	0.076	-0.221
-440.792	-200.000	-0.022	-0.203
-439.778	51.557	-0.242	-0.228
-438.763	-6.996	-0.062	-0.042
-437.749	-59.346	0.110	-0.047
-436.734	-105.310	-0.784	-0.177
-435.719	57.557	-0.251	0.243
-434.705	-31.892	-0.250	-0.139
-433.690	102.648	0.187	-0.217
-432.676	432.796	0.076	-0.163
-431.661	800.000	-0.025	0.083
-430.646	-78.468	0.278	-0.095
-429.632	-164.816	-0.051	-0.002
-428.617	-93.294	-0.204	0.056
-427.603	258.206	0.186	-0.318
-426.588	-114.540	-0.327	0.062
-425.573	800.000	0.047	0.147
-424.559	-69.394	-0.103	0.039
-423.544	800.000	-0.046	0.134
-422.530	75.716	-0.266	0.279
-421.515	800.000	0.031	0.121
-420.500	-63.977	0.199	-0.081
-419.486	-6.246	-0.168	0.114
-418.471	551.844	-0.065	0.156
-417.457	-80.564	0.103	-0.034
-416.442	-95.508	-0.202	0.054
-415.428	-54.335	0.275	0.124
-414.413	233.147	-0.253	-0.414
-413.398	20.425	0.148	0.119
-412.384	90.776	0.077	0.086
-411.369	294.971	-0.057	-0.104
-410.355	26.907	-0.047	0.039
-409.340	-98.500	-0.072	0.018
-408.325	-62.850	-0.265	0.109
-407.311	68.432	-0.186	0.189
-406.296	254.258	0.016	0.026
-405.282	-200.000	-0.044	0.343
-404.267	-39.142	0.324	-0.169
-403.252	-200.000	-0.060	0.309
-402.238	800.000	0.048	0.171
-401.223	180.198	0.195	0.284
-400.209	-83.717	-0.295	0.094
-399.194	800.000	0.106	-0.380
-398.179	272.449	-0.149	-0.261
-397.165	-146.549	-0.097	-0.008
-396.150	-85.150	-0.277	-0.086
-395.136	-200.000	-0.008	0.366
-394.121	-13.430	0.303	-0.195
-393.106	327.711	-0.096	-0.183
-392.092	-151.150	-0.164	-0.012
-391.077	14.078	-0.268	-0.207
-390.063	-200.000	0.043	-0.190
-389.048	303.766	0.083	0.153
-388.033	-200.000	0.033	0.242
-387.019	130.072	-0.031	0.039
-386.004	744.074	-0.102	0.273
-384.990	-38.959	-0.126	-0.066
-383.975	477.687	-0.093	-0.209
-382.960	800.000	-0.149	0.492
-381.946	138.138	0.283	-0.368
-380.931	-138.755	0.135	0.015
-379.917	38.853	0.321	-0.284
-378.902	195.766	-0.090	-0.136
-377.888	-86.371	-0.348	0.106
-376.873	-96.870	-0.249	-0.065
-375.858	507.486	-0.076	-0.174
-374.844	800.000	0.071	0.197
-373.829	271.521	-0.125	0.219
-372.815	237.284	0.156	-0.256
-371.800	-131.276	-0.256	0.034
-370.785	-84.553	0.491	-0.154
-369.771	213.035	-0.181	0.283
-368.756	269.211	0.150	-0.261
-367.742	-200.000	0.013	-0.418
-366.727	-75.311	-0.431	-0.152
-365.712	52.925	0.222	0.211
-364.698	-200.000	-0.002	0.183
-363.683	-131.609	-0.243	0.032
-362.669	-52.857	0.278	-0.127
-361.654	-200.000	0.011	-0.100
-360.639	800.000	0.154	-0.424
-359.625	436.702	-0.108	0.232
-358.610	-6.085	-0.158	-0.107
-357.596	-15.383	0.202	-0.128
-356.581	150.625	0.109	0.147
-355.566	-55.160	0.238	-0.106
-354.552	261.510	-0.040	0.069
-353.537	800.000	0.071	-0.257
-352.523	-153.063	0.261	-0.018
-351.508	-200.000	0.048	-0.255
-350.493	76.480	0.126	-0.132
-349.479	-61.924	0.298	0.123
-348.464	-76.676	0.103	-0.036
-347.450	-46.112	0.090	0.044
-346.435	105.008	-0.096	-0.113
-345.420	115.959	0.194	0.236
-344.406	800.000	0.115	0.381
-343.391	115.609	0.369	0.446
-342.377	800.000	0.057	0.215
-341.362	147.541	-0.081	0.108
-340.348	-147.725	0.310	-0.026
-339.333	42.466	0.289	0.260
-338.318	443.648	-0.218	0.472
-337.304	541.726	0.148	0.349
-336.289	-49.382	-0.282	-0.133
-335.275	-107.174	-0.321	-0.070
-334.260	-39.909	0.172	-0.089
-333.245	670.032	0.053	0.136
-332.231	-55.192	0.028	-0.013
-331.216	-200.000	0.013	0.089
-330.202	367.002	-0.045	0.089
-329.187	-136.899	-0.193	-0.022
-328.172	303.111	-0.069	0.126
-327.158	30.091	0.088	-0.074
-326.143	379.155	-0.110	-0.223
-325.129	212.202	0.089	0.138
-324.114	-45.593	0.052	0.025
-323.099	193.297	0.140	0.209
-322.085	155.612	-0.119	-0.162
-321.070	171.129	0.328	0.465
-320.056	-39.509	0.259	-0.134
-319.041	-200.000	0.031	0.148
-318.026	-189.898	0.168	0.002
-317.012	-200.000	0.025	0.190
-315.997	11.366	0.096	0.073
-314.983	-178.903	0.169	-0.004
-313.968	107.621	0.142	-0.168
-312.953	82.643	0.228	0.245
-311.939	-200.000	0.006	-0.168
-310.924	-107.965	0.262	0.056
-309.910	249.180	0.060	-0.100
-308.895	-200.000	-0.012	0.053
-307.880	-200.000	-0.004	0.235
-306.866	430.516	0.164	0.351
-305.851	-200.000	-0.002	0.020
-304.837	-200.000	-0.021	0.123
-303.822	160.133	0.226	-0.311
-302.807	-51.980	0.452	0.207
-301.793	-113.599	-0.283	0.055
-300.778	446.852	-0.118	0.257
-299.764	-67.160	-0.074	-0.029
-298.749	119.682	-0.130	-0.159
-297.735	800.000	0.085	0.238
-296.720	-78.131	-0.233	-0.079
-295.705	99.444	-0.042	0.048
-294.691	116.903	-0.115	0.140
-293.676	800.000	0.033	0.091
-292.662	-41.662	0.119	-0.060
-291.647	-170.652	-0.166	-0.006
-290.632	-97.312	0.109	0.028
-289.618	-128.868	0.419	0.058
-288.603	31.330	-0.356	-0.302
-287.589	30.606	0.156	0.131
-286.574	-200.000	0.028	-0.314
-285.559	800.000	0.008	-0.031
-284.545	-131.046	0.016	0.002
-283.530	-26.642	-0.193	-0.111
-282.516	800.000	0.044	-0.136
-281.501	-56.237	-0.448	-0.197
-280.486	20.584	-0.194	0.155
-279.472	800.000	0.105	0.347
-278.457	-200.000	0.022	-0.438
-277.443	-26.064	-0.273	-0.158
-276.428	209.853	-0.103	0.159
-275.413	293.975	0.178	0.321
-274.399	-200.000	-0.001	-0.099
-273.384	-13.907	0.180	-0.115
-272.370	-54.210	-0.409	0.183
-271.355	26.336	-0.201	0.166
-270.340	-37.790	0.179	-0.094
-269.326	-122.354	0.167	-0.027
-268.311	23.589	-0.077	-0.062
-267.297	-1.494	-0.194	-0.135
-266.282	-156.735	0.116	0.007
-265.267	-119.750	0.303	0.052
-264.253	-133.134	0.082	-0.010
-263.238	-93.902	0.382	0.104
-262.224	-200.000	-0.006	-0.053
-261.209	-127.742	-0.044	0.006
-260.195	8.928	0.043	-0.032
-259.180	-200.000	0.004	0.137
-258.165	-22.203	-0.220	0.132
-257.151	11.391	0.323	0.244
-256.136	-114.094	0.233	0.044
-255.122	321.605	0.069	0.130
-254.107	13.526	0.078	0.060
-253.092	-46.937	0.392	-0.189
-252.078	12.990	-0.141	0.107
-251.063	205.558	-0.148	-0.227
-250.049	152.513	0.066	0.088
-249.034	-177.208	0.093	-0.002
-248.019	-200.000	0.041	-0.183
-247.005	-132.486	-0.260	-0.033
-245.990	-200.000	0.058	0.328
-244.976	800.000	0.089	0.332
-243.961	248.653	-0.235	0.392
-242.946	-200.000	0.032	0.215
-241.932	10.197	-0.119	0.089
-240.917	606.180	0.105	-0.257
-239.903	-56.744	0.297	-0.130
-238.888	-200.000	0.005	0.077
-237.873	-8.536	0.162	-0.107
-236.859	645.976	-0.031	-0.077
-235.844	139.529	-0.216	-0.280
-234.830	800.000	0.078	0.226
-233.815	171.621	-0.123	-0.174
-232.800	-147.043	-0.166	0.014
-231.786	53.040	-0.170	0.160
-230.771	-135.665	0.070	-0.008
-229.757	720.481	0.214	0.562
-228.742	-200.000	0.029	0.184
-227.727	-140.233	-0.149	0.015
-226.713	-23.471	-0.045	0.027
-225.698	287.834	-0.056	0.100
-224.684	119.385	-0.149	-0.181
-223.669	800.000	-0.053	-0.143
-222.655	-200.000	0.086	-0.511
-221.640	-200.000	-0.029	-0.400
-220.625	-70.159	-0.064	0.024
-219.611	223.347	-0.051	-0.081
-218.596	800.000	-0.094	-0.310
-217.582	800.000	0.118	-0.499
-216.567	602.013	-0.040	-0.097
-215.552	-200.000	-0.008	-0.246
-214.538	296.921	-0.105	0.190
-213.523	109.966	0.054	-0.064
-212.509	-24.379	0.038	0.022
-211.494	476.896	0.167	-0.371
-210.479	-200.000	-0.001	0.251
-209.465	800.000	-0.041	0.138
-208.450	231.376	0.079	0.127
-207.436	236.583	0.123	0.200
-206.421	31.010	-0.076	-0.064
-205.406	-170.607	-0.246	0.008
-204.392	-55.551	-0.345	-0.152
-203.377	361.524	-0.211	-0.417
-202.363	-63.658	0.190	-0.077
-201.348	-91.335	0.329	-0.092
-200.333	18.031	0.026	-0.021
-199.319	-15.413	-0.132	0.083
-198.304	-200.000	-0.034	-0.210
-197.290	-115.692	0.193	0.036
-196.275	800.000	0.115	0.435
-195.260	800.000	0.036	-0.137
-194.246	-200.000	-0.093	-0.497
-193.231	293.544	0.170	0.305
-192.217	-106.616	-0.273	0.060
-191.202	781.064	0.175	0.472
-190.187	-77.894	-0.222	0.075
-189.173	-200.000	0.317	-0.001
-188.158	-70.314	0.320	0.119
-187.144	280.497	0.098	-0.173
-186.129	541.971	-0.191	-0.449
-185.114	-19.667	0.136	0.083
-184.100	341.366	-0.120	0.230
-183.085	148.953	-0.172	-0.229
-182.071	-42.939	-0.370	0.185
-181.056	-84.257	0.441	0.137
-180.042	3.605	0.325	-0.233
-179.027	-183.782	-0.137	-0.002
-178.012	-16.723	0.248	0.154
-176.998	-128.615	-0.182	-0.025
-175.983	800.000	-0.045	-0.175
-174.969	174.670	0.085	0.120
-173.954	-98.964	-0.208	-0.052
-172.939	124.193	0.241	0.298
-171.925	800.000	-0.044	-0.123
-170.910	-100.524	-0.235	0.057
-169.896	187.043	0.127	0.186
-168.881	-200.000	0.046	-0.238
-167.866	-58.178	-0.211	-0.091
-166.852	-5.259	0.100	-0.068
-165.837	800.000	-0.024	0.084
-164.823	-168.191	0.072	-0.003
-163.808	-200.000	-0.085	-0.434
-162.793	105.157	-0.352	0.409
-161.779	-182.359	-0.198	-0.004
-160.764	12.658	-0.016	-0.012
-159.750	-193.716	0.172	0.001
-158.735	-69.694	-0.251	-0.094
-157.720	133.827	-0.064	-0.081
-156.706	-200.000	-0.019	-0.112
-155.691	36.520	-0.083	-0.072
-154.677	25.037	-0.310	0.252
-153.662	360.603	0.039	0.077
-152.647	-200.000	0.061	0.307
-151.633	-44.381	0.277	0.136
-150.618	-200.000	0.000	-0.154
-149.604	800.000	0.061	-0.260
-148.589	-139.678	-0.585	0.061
-147.574	242.469	0.037	0.061
-146.560	800.000	-0.031	0.117
-145.545	64.723	-0.207	-0.205
-144.531	-62.988	0.128	0.052
-143.516	152.677	0.045	-0.060
-142.502	111.087	-0.178	0.210
-141.487	-6.731	-0.225	0.150
-140.472	551.547	0.077	0.182
-139.458	-54.719	0.343	-0.152
-138.443	-200.000	0.005	0.237
-137.429	800.000	0.100	0.327
-136.414	-200.000	-0.035	-0.340
-135.399	-200.000	-0.008	0.108
-134.385	-81.824	-0.227	0.073
-133.370	-200.000	0.010	-0.086
-132.356	-200.000	-0.001	0.193
-131.341	-7.183	-0.178	-0.118
-130.326	-129.340	0.247	-0.034
-129.312	-109.105	0.155	-0.032
-128.297	-126.167	-0.143	0.021
-127.283	1.328	-0.040	-0.028
-126.268	372.431	-0.116	-0.231
-125.253	-200.000	-0.010	-0.097
-124.239	-52.798	-0.066	0.030
-123.224	-200.000	0.001	0.282
-122.210	106.210	0.114	0.132
-121.195	-19.161	0.255	0.155
-120.180	-3.763	0.155	-0.106
-119.166	-126.920	-0.345	0.050
-118.151	0.122	0.371	-0.259
-117.137	67.725	-0.077	0.078
-116.122	800.000	-0.085	0.303
-115.107	-200.000	-0.007	0.091
-114.093	800.000	0.110	0.398
-113.078	476.337	0.034	-0.074
-112.064	27.978	0.146	0.120
-111.049	2.048	0.136	0.096
-110.034	71.562	-0.174	0.177
-109.020	-103.017	0.153	0.036
-108.005	289.572	-0.115	-0.204
-106.991	495.810	-0.057	0.129
-105.976	-200.000	0.001	-0.020
-104.962	-4.159	-0.013	0.009
-103.947	800.000	0.078	0.230
-102.932	-115.447	0.176	0.032
-101.918	-200.000	-0.007	-0.064
-100.903	457.504	0.064	0.140
-99.889	463.010	-0.084	-0.184
-98.874	-200.000	0.039	-0.304
-97.859	252.771	0.187	-0.312
-96.845	-200.000	-0.009	0.058
-95.830	156.064	0.026	0.036
-94.816	-200.000	0.011	-0.114
-93.801	-84.460	0.126	0.039
-92.786	234.638	0.063	0.102
-91.772	800.000	0.032	0.115
-90.757	135.126	-0.038	0.048
-89.743	726.444	0.043	-0.112
-88.728	-200.000	-0.014	-0.216
-87.713	56.640	-0.281	0.268
-86.699	525.119	-0.097	0.225
-85.684	800.000	0.010	-0.033
-84.670	-200.000	-0.004	-0.176
-83.655	-200.000	-0.047	-0.361
-82.640	-169.107	0.018	-0.001
-81.626	-200.000	-0.005	0.115
-80.611	-200.000	0.024	0.305
-79.597	70.576	-0.053	-0.054
-78.582	-31.915	0.039	0.021
-77.567	266.725	0.107	0.183
-76.553	800.000	0.157	0.447
-75.538	-91.730	-0.114	-0.032
-74.524	-200.000	-0.027	-0.278
-73.509	16.447	0.253	0.196
-72.494	105.608	0.135	0.156
-71.480	320.707	-0.094	0.174
-70.465	-200.000	0.054	-0.251
-69.451	-96.975	0.173	-0.044
-68.436	143.822	-0.174	0.227
-67.422	-166.899	-0.345	-0.014
-66.407	-52.735	0.350	-0.158
-65.392	20.044	-0.135	0.106
-64.378	17.088	-0.096	-0.074
-63.363	-27.788	0.351	0.199
-62.349	-200.000	0.035	0.157
-61.334	79.447	-1.230	-1.292
-60.319	-73.141	0.707	0.254
-59.305	800.000	-0.348	-1.182
-58.290	174.881	0.629	0.891
-57.276	791.244	0.505	1.358
-56.261	-200.000	113.466	649.671
-55.246	540.669	1519.121	3540.062
-54.232	179.639	2682.389	3843.968
-53.217	109.099	2169.179	2539.242
-52.203	38.304	1698.197	1479.886
-51.188	30.862	1517.630	1271.894
-50.173	28.524	1493.726	1236.080
-49.159	52.090	1551.475	1446.315
-48.144	51.066	1566.999	1453.711
-47.130	30.979	1523.257	1277.214
-46.115	28.007	1508.189	1244.331
-45.100	27.754	1505.074	1239.994
-44.086	27.680	1503.318	1237.992
-43.071	27.657	1501.538	1236.319
-42.057	27.662	1500.031	1235.069
-41.042	27.623	1498.680	1233.638
-40.027	27.734	1496.881	1232.859
-39.013	27.658	1495.548	1231.201
-37.998	27.664	1494.153	1230.047
-36.984	27.683	1492.951	1229.135
-35.969	27.667	1491.597	1227.866
-34.954	27.594	1490.575	1226.483
-33.940	27.601	1489.128	1225.290
-32.925	27.681	1487.680	1224.589
-31.911	27.689	1486.199	1223.374
-30.896	27.694	1485.351	1222.656
-29.881	27.775	1483.614	1221.723
-28.867	27.753	1482.494	1220.607
-27.852	27.698	1481.464	1219.342
-26.838	27.750	1480.133	1218.543
-25.823	27.791	1478.152	1217.137
-24.809	27.767	1476.643	1215.690
-23.794	27.693	1475.845	1214.488
-22.779	27.766	1474.419	1213.752
-21.765	27.764	1472.889	1212.431
-20.750	27.835	1471.671	1211.852
-19.736	27.615	1471.687	1210.356
-18.721	27.729	1469.799	1209.510
-17.706	27.705	1468.584	1208.310
-16.692	27.668	1467.720	1207.302
-15.677	27.748	1466.329	1206.640
-14.663	27.750	1465.954	1206.296
-13.648	27.576	1465.715	1204.900
-12.633	27.705	1463.855	1204.175
-11.619	27.582	1463.788	1203.264
-10.604	27.659	1463.062	1203.123
-9.590	27.668	1461.714	1202.032
-8.575	27.660	1460.741	1201.129
-7.560	27.669	1459.966	1200.500
-6.546	27.658	1459.525	1200.017
-5.531	27.684	1458.533	1199.329
-4.517	27.604	1457.513	1197.918
-3.502	27.698	1456.172	1197.382
-2.487	27.768	1455.120	1196.929
-1.473	27.748	1453.730	1195.610
-0.458	27.673	1452.831	1194.332
0.556	29.157	1442.711	1183.012
1.571	26.017	1418.303	1143.033
2.586	22.618	1360.346	1075.526
3.600	20.865	1278.819	1000.917
4.615	19.512	1232.764	957.285
5.629	17.159	1176.151	900.778
6.644	10.056	1094.270	802.831
7.659	4.475	1056.794	748.435
8.673	4.011	1051.179	742.165
9.688	3.867	1047.524	738.832
10.702	3.669	1045.896	736.674
11.717	3.655	1043.795	735.062
12.731	6.326	1045.557	748.960
13.746	13.840	1056.149	792.480
14.761	20.606	1065.403	831.829
15.775	22.584	1067.668	842.994
16.790	22.206	1066.275	840.016
17.804	21.387	1064.016	834.254
18.819	20.701	1062.042	829.363
19.834	20.325	1061.035	826.712
20.848	20.237	1060.864	826.087
21.863	20.308	1060.297	825.912
22.877	20.123	1060.038	824.757
23.892	19.999	1058.894	823.203
24.907	19.904	1057.913	821.918
25.921	19.855	1057.010	820.908
26.936	19.787	1056.257	819.928
27.950	19.904	1054.858	819.327
28.965	19.720	1054.443	818.059
29.980	19.820	1053.043	817.375
30.994	20.052	1051.774	817.412
32.009	20.345	1050.889	818.032
33.023	20.207	1050.790	817.234
34.038	20.225	1049.779	816.460
35.053	20.126	1048.526	814.949
36.067	19.944	1048.029	813.634
37.082	19.976	1046.686	812.669
38.096	19.869	1045.981	811.547
39.111	20.071	1045.526	812.071
40.126	20.133	1044.701	811.646
41.140	20.022	1043.466	810.095
42.155	19.688	1041.996	807.324
43.169	19.516	1040.950	805.638
44.184	19.411	1039.694	804.107
45.199	19.387	1038.668	803.131
46.213	19.440	1037.685	802.546
47.228	19.533	1037.025	802.396
48.242	19.851	1036.582	803.460
49.257	19.999	1035.922	803.564
50.271	19.988	1034.810	802.582
51.286	20.090	1034.015	802.363
52.301	19.986	1033.593	801.484
53.315	20.112	1032.949	801.498
54.330	20.113	1031.109	800.001
55.344	19.743	1030.573	797.808
56.359	19.582	1029.705	796.325
57.374	19.631	1029.205	796.090
58.388	19.711	1027.787	795.293
59.403	19.448	1027.359	793.681
60.417	19.320	1026.777	792.576
61.432	19.320	1025.840	791.780
62.447	19.358	1025.345	791.505
63.461	19.254	1024.119	790.008
64.476	19.131	1023.535	788.927
65.490	19.158	1022.659	788.302
66.505	18.982	1021.799	786.767
67.520	19.116	1021.246	786.884
68.534	19.271	1020.561	786.994
69.549	19.261	1019.587	786.127
70.563	19.172	1018.587	784.883
71.578	19.086	1017.787	783.806
72.593	18.882	1017.027	782.221
73.607	18.813	1015.708	780.825
74.622	18.697	1014.892	779.600
75.636	18.873	1014.247	779.833
76.651	18.903	1013.479	779.310
77.666	18.846	1012.947	778.577
78.680	19.039	1011.931	778.599
79.695	19.158	1011.600	778.816
80.709	19.097	1010.920	777.946
81.724	19.222	1010.023	777.753
82.739	19.320	1009.865	778.003
83.753	19.564	1008.630	778.083
84.768	19.778	1008.498	778.874
85.782	20.141	1008.231	780.232
86.797	20.527	1007.091	781.019
87.812	20.360	1006.924	780.068
88.826	20.225	1005.953	778.640
89.841	20.212	1005.022	777.792
90.855	20.308	1004.329	777.620
91.870	20.328	1003.641	777.107
92.884	20.512	1002.829	777.234
93.899	20.328	1002.472	776.063
94.914	20.316	1001.589	775.261
95.928	20.375	1000.527	774.632
96.943	20.402	999.717	774.056
97.957	20.184	998.936	772.412
98.972	20.040	998.168	771.107
99.987	20.074	997.153	770.406
101.001	20.272	996.338	770.588
102.016	20.073	996.177	769.511
103.030	20.217	994.448	768.750
104.045	20.142	993.956	767.967
105.060	20.262	992.910	767.623
106.074	20.153	991.844	766.249
107.089	19.855	990.654	763.946
108.103	19.550	989.784	761.861
109.118	19.386	988.814	760.323
110.133	19.299	987.834	759.120
111.147	19.145	986.787	757.571
112.162	19.045	985.782	756.291
113.176	19.213	984.848	756.248
114.191	19.315	984.397	756.280
115.206	19.529	983.302	756.312
116.220	19.406	982.835	755.345
117.235	19.349	982.292	754.612
118.249	19.335	981.055	753.533
119.264	19.273	980.179	752.522
120.279	19.197	979.130	751.319
121.293	19.094	978.419	750.260
122.308	19.020	977.948	749.512
123.322	18.813	976.754	747.629
124.337	18.913	975.258	746.852
125.352	18.843	974.071	745.572
126.366	18.793	973.491	744.845
127.381	18.738	972.966	744.140
128.395	18.919	971.686	743.880
129.410	18.845	971.099	743.043
130.424	18.895	970.064	742.402
131.439	18.943	969.569	742.165
132.454	19.246	968.793	742.808
133.468	19.208	968.278	742.185
134.483	19.393	967.531	742.345
135.497	19.363	966.896	741.664
136.512	19.338	966.764	741.388
137.527	19.484	965.483	740.968
138.541	19.467	964.424	740.017
139.556	19.581	963.488	739.719
140.570	19.427	963.509	739.010
141.585	19.654	962.719	739.310
142.600	19.870	962.761	740.204
143.614	20.035	961.574	739.929
144.629	20.012	960.839	739.199
145.643	20.260	960.404	739.856
146.658	20.279	959.104	738.870
147.673	19.958	958.147	736.705
148.687	19.722	957.232	734.930
149.702	19.626	956.537	733.924
150.716	19.414	955.035	731.808
151.731	19.522	954.095	731.480
152.746	19.369	953.624	730.406
153.760	19.622	952.997	730.935
154.775	19.558	952.564	730.265
155.789	19.675	952.009	730.270
156.804	19.777	951.139	729.968
157.819	19.679	950.261	728.819
158.833	19.916	949.320	729.028
159.848	19.968	948.904	728.865
160.862	20.167	948.622	729.421
161.877	20.156	947.660	728.569
162.892	19.742	946.389	725.789
163.906	19.524	944.674	723.499
164.921	19.364	944.062	722.297
165.935	19.348	942.904	721.278
166.950	19.364	942.622	721.063
167.964	19.662	941.339	721.263
168.979	19.767	939.831	720.485
169.994	19.614	939.066	719.195
171.008	19.471	938.564	718.150
172.023	19.537	937.870	717.830
173.037	19.737	937.333	718.187
174.052	20.133	936.536	719.157
175.067	19.915	935.945	717.736
176.081	19.720	934.820	716.001
177.096	19.373	933.483	713.480
178.110	19.360	932.234	712.407
179.125	19.368	931.740	711.999
180.140	19.474	931.293	712.033
181.154	19.449	930.787	711.478
182.169	19.877	930.277	712.789
183.183	20.037	929.637	712.898
184.198	20.081	929.347	712.793
185.213	19.991	928.688	711.852
186.227	19.979	928.197	711.364
187.242	19.984	927.968	711.146
188.256	20.140	926.865	710.880
189.271	20.273	926.477	711.063
190.286	20.350	925.857	710.838
191.300	20.153	924.581	708.991
192.315	19.546	923.396	705.541
193.329	19.200	922.399	703.302
194.344	19.312	921.965	703.369
195.359	19.495	921.499	703.696
196.373	19.593	921.280	703.864
197.388	19.800	920.174	703.800
198.402	19.944	920.185	704.334
199.417	20.296	920.003	705.564
200.432	20.563	919.409	706.127
201.446	20.670	919.304	706.422
202.461	20.722	919.073	706.391
203.475	20.655	918.977	705.983
204.490	20.640	918.141	705.216
205.504	20.394	916.726	703.073
206.519	20.017	915.849	700.815
207.534	20.116	914.837	700.377
208.548	19.956	914.464	699.381
209.563	20.032	913.590	698.961
210.577	20.017	913.231	698.564
211.592	20.037	912.513	698.030
212.607	20.371	912.102	699.001
213.621	20.488	911.717	699.113
214.636	20.487	910.863	698.392
215.650	20.247	910.756	697.287
216.665	20.366	909.388	696.654
217.680	20.378	909.434	696.674
218.694	20.447	909.128	696.658
219.709	20.848	908.204	697.492
220.723	20.484	907.688	695.578
221.738	20.450	906.993	694.848
222.753	20.423	906.129	694.017
223.767	20.396	905.160	693.104
224.782	20.367	904.742	692.607
225.796	20.628	904.090	693.087
226.811	20.598	903.802	692.686
227.826	20.685	902.616	692.063
228.840	20.410	901.803	690.284
229.855	20.205	901.151	688.911
230.869	20.228	900.503	688.445
231.884	20.313	899.414	687.889
232.899	20.238	899.125	687.309
233.913	20.004	898.614	685.930
234.928	20.029	897.414	685.055
235.942	19.872	896.961	684.026
236.957	19.796	895.940	682.889
237.972	19.735	895.572	682.305
238.986	19.887	894.778	682.239
240.001	19.917	893.982	681.689
241.015	19.877	893.832	681.357
242.030	19.953	892.983	680.950
243.045	20.081	892.326	680.890
244.059	20.181	891.898	680.898
245.074	20.254	891.253	680.631
246.088	20.293	890.881	680.438
247.103	20.465	890.698	680.915
248.117	20.608	889.995	680.876
249.132	20.664	890.120	681.130
250.147	21.025	889.633	682.112
251.161	21.396	888.838	682.888
252.176	21.485	888.700	683.069
253.190	21.469	887.685	682.169
254.205	21.483	887.264	681.837
255.220	21.608	886.943	682.017
256.234	21.441	885.893	680.500
257.249	21.397	885.449	679.927
258.263	21.403	885.203	679.703
259.278	21.328	884.297	678.654
260.293	21.368	883.705	678.295
261.307	21.469	883.430	678.417
262.322	21.526	882.730	678.040
263.336	21.662	882.003	677.950
264.351	21.651	881.314	677.315
265.366	21.642	880.478	676.578
266.380	21.606	879.985	676.003
267.395	21.582	879.241	675.278
268.409	21.555	878.639	674.651
269.424	21.346	877.926	673.239
270.439	21.262	877.445	672.487
271.453	21.519	876.291	672.533
272.468	21.292	875.507	670.999
273.482	21.103	875.122	669.919
274.497	21.314	874.323	670.057
275.512	21.259	873.904	669.465
276.526	20.957	873.536	667.966
277.541	21.120	872.990	668.114
278.555	21.312	872.035	668.061
279.570	21.395	871.684	668.050
280.585	21.695	871.485	668.982
281.599	21.742	870.895	668.649
282.614	21.432	870.300	666.952
283.628	21.238	869.477	665.523
284.643	21.187	868.511	664.529
285.657	21.250	868.275	664.532
286.672	21.274	867.439	663.925
287.687	21.278	866.817	663.404
288.701	21.181	866.843	662.997
289.716	21.337	866.192	663.030
290.730	21.414	865.573	662.790
291.745	21.499	864.803	662.463
292.760	21.368	864.366	661.575
293.774	21.502	863.596	661.435
294.789	21.680	863.189	661.737
295.803	21.827	862.596	661.779
296.818	21.633	861.890	660.446
297.833	21.354	861.095	658.729
298.847	21.363	860.177	658.000
299.862	21.275	859.866	657.373
300.876	21.369	859.229	657.182
301.891	21.540	858.651	657.326
302.906	21.592	858.396	657.267
303.920	21.770	857.939	657.526
304.935	21.996	857.064	657.645
305.949	22.147	856.824	657.965
306.964	21.923	856.417	656.756
307.979	21.834	855.446	655.623
308.993	21.615	854.980	654.388
310.008	21.768	854.014	654.161
311.022	21.937	853.554	654.384
312.037	21.825	853.306	653.715
313.052	21.777	852.164	652.606
314.066	21.498	851.668	651.130
315.081	21.177	851.017	649.380
316.095	21.201	850.421	648.958
317.110	21.274	849.627	648.564
318.125	21.380	848.979	648.408
319.139	21.287	848.691	647.785
320.154	21.244	848.319	647.284
321.168	21.210	847.917	646.793
322.183	21.387	847.106	646.774
323.197	21.393	846.715	646.439
324.212	21.452	846.336	646.312
325.227	21.437	845.764	645.762
326.241	21.413	845.180	645.168
327.256	21.411	844.119	644.296
328.270	21.268	843.948	643.581
329.285	21.383	843.142	643.332
330.300	21.357	842.462	642.660
331.314	21.211	842.236	641.896
332.329	21.071	841.749	640.952
333.343	21.503	840.915	641.845
334.358	21.695	840.716	642.340
335.373	21.693	840.239	641.913
336.387	21.719	839.850	641.656
337.402	21.767	839.360	641.399
338.416	21.843	839.138	641.451
339.431	22.040	838.593	641.698
340.446	22.268	837.923	641.961
341.460	22.455	837.296	642.103
342.475	22.354	836.911	641.383
343.489	22.336	836.558	640.992
344.504	22.473	836.228	641.181
345.519	22.526	836.086	641.208
346.533	22.714	835.450	641.348
347.548	22.536	834.864	640.193
348.562	22.448	833.751	638.963
349.577	22.128	832.922	637.114
350.592	21.872	832.204	635.579
351.606	21.753	831.559	634.601
352.621	21.725	830.774	633.841
353.635	21.681	830.795	633.644
354.650	21.825	830.584	633.948
355.665	21.789	830.026	633.337
356.679	22.004	829.636	633.757
357.694	22.005	829.147	633.333
358.708	22.096	828.362	633.006
359.723	22.104	827.949	632.662
360.738	22.002	827.119	631.603
361.752	21.985	827.014	631.408
362.767	22.180	826.422	631.599
363.781	22.199	826.609	631.754
364.796	22.385	826.105	631.980
365.810	22.544	826.025	632.434
366.825	22.971	825.323	633.372
367.840	22.919	825.439	633.220
368.854	22.780	824.825	632.194
369.869	22.645	824.206	631.180
370.883	22.358	823.673	629.690
371.898	22.349	823.138	629.195
372.913	22.629	822.483	629.637
373.927	22.696	821.746	629.258
374.942	22.600	820.805	628.139
375.956	22.655	819.906	627.591
376.971	22.720	819.695	627.606
377.986	22.849	819.100	627.551
379.000	23.084	818.872	628.158
380.015	23.025	818.749	627.796
381.029	22.847	817.947	626.494
382.044	22.922	817.239	626.163
383.059	22.838	816.709	625.405
384.073	23.048	816.051	625.589
385.088	22.884	815.545	624.565
386.102	22.592	814.566	622.728
387.117	22.306	814.096	621.303
388.132	22.411	813.389	621.081
389.146	22.327	813.031	620.455
390.161	22.430	813.237	620.920
391.175	22.601	812.668	621.034
392.190	22.760	812.128	621.125
393.205	22.744	812.103	620.996
394.219	22.465	811.295	619.341
395.234	22.450	810.366	618.526
396.248	22.317	809.733	617.521
397.263	22.249	809.401	616.975
398.278	22.119	808.686	615.920
399.292	22.013	808.353	615.239
400.307	22.154	807.440	614.983
401.321	22.137	807.517	614.927
402.336	22.049	807.323	614.418
403.350	22.258	806.860	614.741
404.365	22.469	806.549	615.186
405.380	22.647	806.299	615.563
406.394	23.003	805.804	616.373
407.409	22.927	805.640	615.928
408.423	23.197	805.083	616.389
409.438	23.125	804.765	615.840
410.453	23.230	804.372	615.849
411.467	23.253	803.901	615.514
412.482	23.350	803.310	615.346
413.496	23.320	802.871	614.852
414.511	23.426	802.825	615.128
415.526	23.451	802.453	614.875
416.540	23.410	801.732	614.128
417.555	23.058	801.568	612.728
418.569	23.123	800.761	612.281
419.584	23.185	800.487	612.233
420.599	23.288	799.746	611.968
421.613	163.928	1371.008	1797.634
422.628	142.412	1454.228	1797.738
