DTS Sentinel unit serial number:	SN413079Multiplexer serial number:	ORYXHardware model number:	OX4-SRSoftware version number:	ORYX F/W v4.00 Oryx Data Collector v3.7.2.0data status	okinstallation	princeton_trtdifferential loss correction	single-endedforward channel	channel 3reverse channel	N/Adate	2019/09/17time	11:36:35forward acquisition time	60.00reverse acquisition time	0.00gamma	496.2192k internal	0.2322k external	0.2322temperature offset calibration	0.9957default loss term (dB/km)	0.3790temperature slope calibration	1.0000multiplexer offset coefficient	1.0000multiplexer slope coefficient	1.0000fibre end	0.00T internal ref (°C)	30.75T ext. ref 1 (°C)	0.37T ext. ref 2 (°C)	26.57length (m)	temperature (°C)	Stokes	anti-Stokes-747.200	12.674	0.164	0.128
-746.185	-200.000	-0.032	0.333
-745.171	3.738	0.263	-0.194
-744.156	800.000	-0.156	0.449
-743.142	-139.353	0.250	-0.027
-742.127	-17.949	0.196	0.124
-741.112	800.000	-0.046	0.129
-740.098	800.000	0.020	0.088
-739.083	-200.000	-0.002	0.278
-738.069	-200.000	-0.012	0.444
-737.054	121.507	-0.073	0.091
-736.039	800.000	-0.052	-0.211
-735.025	-200.000	-0.022	0.296
-734.010	-35.401	-0.244	0.134
-732.996	5.622	0.051	0.038
-731.981	73.629	0.218	-0.230
-730.966	-200.000	-0.005	0.205
-729.952	-112.865	0.116	-0.023
-728.937	116.588	-0.122	0.151
-727.923	-200.000	0.003	-0.205
-726.908	-145.674	-0.327	0.029
-725.894	81.481	0.125	0.136
-724.879	83.966	0.048	-0.053
-723.864	-200.000	0.009	-0.136
-722.850	796.248	0.098	0.273
-721.835	-132.028	0.173	-0.023
-720.821	385.849	-0.070	0.145
-719.806	800.000	0.128	0.441
-718.791	-100.596	-0.364	-0.091
-717.777	253.244	0.060	0.104
-716.762	3.009	0.178	-0.130
-715.748	-200.000	-0.009	-0.149
-714.733	-105.308	-0.207	-0.048
-713.718	-200.000	0.011	-0.183
-712.704	-200.000	0.053	-0.269
-711.689	-105.111	0.377	0.087
-710.675	361.968	-0.098	-0.199
-709.660	207.686	0.105	-0.165
-708.645	74.312	0.038	0.040
-707.631	-166.627	0.250	0.010
-706.616	-49.715	-0.134	0.064
-705.602	1.911	-0.205	0.149
-704.587	-71.504	0.267	0.101
-703.572	800.000	-0.111	-0.360
-702.558	524.180	0.084	-0.200
-701.543	108.900	-0.058	-0.070
-700.529	-125.253	0.249	0.038
-699.514	-114.666	-0.087	0.017
-698.499	-200.000	-0.019	-0.092
-697.485	-200.000	0.010	-0.350
-696.470	-120.008	0.144	-0.025
-695.456	194.090	-0.218	-0.333
-694.441	115.705	-0.032	-0.039
-693.426	-146.231	0.346	0.031
-692.412	-38.940	0.302	0.160
-691.397	63.912	-0.145	-0.147
-690.383	800.000	-0.072	0.214
-689.368	-200.000	-0.053	-0.000
-688.354	-5.680	-0.370	0.255
-687.339	93.132	-0.126	0.143
-686.324	67.480	0.043	0.044
-685.310	252.515	0.133	-0.229
-684.295	-200.000	0.036	0.175
-683.281	-149.133	-0.054	-0.004
-682.266	358.785	0.111	-0.224
-681.251	180.090	0.029	0.043
-680.237	240.560	-0.171	0.288
-679.222	-86.347	0.231	0.071
-678.208	-166.549	0.224	-0.009
-677.193	202.967	-0.152	-0.237
-676.178	241.479	0.059	-0.099
-675.164	57.475	0.180	-0.178
-674.149	-200.000	0.023	0.294
-673.135	-200.000	0.043	0.316
-672.120	-83.927	-0.238	0.076
-671.105	-200.000	-0.084	-0.385
-670.091	-47.392	0.179	0.088
-669.076	82.008	0.058	0.064
-668.062	-163.179	0.164	0.008
-667.047	-149.357	0.275	0.022
-666.032	-62.474	0.147	-0.061
-665.018	-79.543	-0.332	0.113
-664.003	181.538	-0.031	-0.045
-662.989	-53.043	-0.253	0.117
-661.974	-138.994	-0.092	-0.010
-660.959	121.037	-0.083	0.105
-659.945	-66.877	0.396	-0.157
-658.930	-108.358	-0.400	-0.087
-657.916	-66.500	-0.233	-0.093
-656.901	-78.901	-0.168	0.058
-655.886	85.208	0.067	0.074
-654.872	-200.000	0.050	-0.245
-653.857	-200.000	0.043	-0.196
-652.843	41.071	0.062	0.057
-651.828	32.449	-0.115	0.100
-650.814	405.015	0.131	-0.277
-649.799	662.628	0.105	0.272
-648.784	36.032	-0.218	-0.194
-647.770	-97.566	-0.321	0.084
-646.755	-200.000	-0.022	0.185
-645.741	-157.388	0.114	0.007
-644.726	-41.970	0.405	-0.209
-643.711	800.000	0.007	-0.021
-642.697	32.678	0.032	0.028
-641.682	49.655	0.121	-0.115
-640.668	409.833	-0.129	-0.275
-639.653	800.000	-0.065	-0.205
-638.638	-200.000	-0.008	0.042
-637.624	-114.404	-0.253	-0.049
-636.609	-200.000	-0.009	0.142
-635.595	-22.742	-0.235	-0.142
-634.580	21.599	-0.249	-0.204
-633.565	493.114	0.027	-0.062
-632.551	88.715	-0.080	0.090
-631.536	152.511	-0.074	-0.101
-630.522	59.445	-0.353	-0.350
-629.507	800.000	-0.067	0.209
-628.492	-183.204	0.156	0.003
-627.478	541.982	-0.048	0.116
-626.463	5.197	0.020	0.014
-625.449	372.264	0.092	0.188
-624.434	-87.905	0.275	0.083
-623.419	1.298	-0.310	0.224
-622.405	-191.069	0.148	-0.002
-621.390	32.105	0.149	0.129
-620.376	-156.913	-0.364	-0.022
-619.361	800.000	0.111	0.324
-618.346	243.908	-0.117	0.197
-617.332	-149.818	-0.157	0.012
-616.317	13.176	-0.164	-0.128
-615.303	198.876	0.092	-0.141
-614.288	-1.745	-0.142	0.101
-613.273	-200.000	-0.050	-0.459
-612.259	800.000	-0.027	0.090
-611.244	679.499	0.083	0.217
-610.230	-28.204	0.135	-0.079
-609.215	-200.000	-0.055	0.305
-608.201	-70.248	-0.354	-0.135
-607.186	-119.855	-0.210	0.036
-606.171	-90.481	0.237	0.069
-605.157	142.217	0.027	-0.036
-604.142	-150.694	-0.373	0.029
-603.128	-200.000	0.007	-0.040
-602.113	19.408	0.292	-0.236
-601.098	130.864	-0.220	0.284
-600.084	32.576	-0.117	0.102
-599.069	297.846	0.168	-0.310
-598.055	77.221	0.205	-0.219
-597.040	-22.597	-0.153	-0.093
-596.025	-96.215	-0.109	-0.029
-595.011	-200.000	-0.060	-0.344
-593.996	47.691	0.305	-0.286
-592.982	-0.645	0.163	-0.116
-591.967	-89.655	-0.173	-0.051
-590.952	184.541	0.120	-0.179
-589.938	650.088	0.111	0.286
-588.923	800.000	-0.049	-0.146
-587.909	30.828	-0.146	0.125
-586.894	421.695	-0.212	0.456
-585.879	270.201	-0.167	-0.294
-584.865	33.270	0.272	0.237
-583.850	-19.274	-0.120	0.075
-582.836	162.620	-0.164	-0.232
-581.821	800.000	-0.086	0.240
-580.806	-156.518	-0.229	-0.014
-579.792	164.747	-0.153	0.217
-578.777	-200.000	-0.068	-0.369
-577.763	800.000	-0.081	-0.242
-576.748	17.775	0.125	0.100
-575.733	-56.111	-0.096	-0.043
-574.719	-200.000	0.026	-0.201
-573.704	-87.968	-0.087	-0.026
-572.690	-149.975	-0.119	0.009
-571.675	-200.000	0.027	-0.304
-570.661	800.000	-0.116	0.418
-569.646	-162.155	-0.179	0.009
-568.631	734.254	-0.088	0.235
-567.617	45.151	0.065	0.060
-566.602	261.831	0.010	0.017
-565.588	319.195	-0.015	-0.029
-564.573	800.000	-0.080	-0.303
-563.558	-23.541	0.251	-0.151
-562.544	37.271	-0.296	0.263
-561.529	155.182	-0.122	-0.169
-560.515	-200.000	-0.003	-0.032
-559.500	800.000	-0.067	0.232
-558.485	-116.317	-0.334	0.062
-557.471	800.000	-0.108	-0.313
-556.456	2.132	-0.209	-0.151
-555.442	-70.412	-0.418	-0.159
-554.427	282.349	-0.130	0.234
-553.412	-91.491	0.037	0.010
-552.398	291.292	0.122	-0.222
-551.383	-200.000	-0.025	0.187
-550.369	308.505	0.127	0.238
-549.354	-15.385	0.055	-0.036
-548.339	-154.395	0.204	-0.014
-547.325	571.519	-0.113	-0.276
-546.310	620.642	-0.034	-0.086
-545.296	-109.503	-0.070	-0.015
-544.281	33.002	0.091	-0.079
-543.266	471.593	-0.245	0.552
-542.252	184.849	0.088	0.131
-541.237	319.742	0.078	-0.149
-540.223	-200.000	-0.013	-0.083
-539.208	67.317	-0.061	0.063
-538.193	64.591	-0.195	-0.197
-537.179	800.000	-0.027	-0.080
-536.164	101.677	0.031	0.036
-535.150	-182.062	0.309	-0.006
-534.135	-199.930	-0.251	-0.001
-533.121	-138.702	-0.307	0.034
-532.106	-119.048	-0.239	0.042
-531.091	-69.382	0.131	0.050
-530.077	175.693	0.095	0.139
-529.062	144.320	-0.246	-0.328
-528.048	-60.689	-0.300	-0.128
-527.033	471.016	-0.028	0.063
-526.018	-33.024	0.135	-0.075
-525.004	63.907	-0.241	-0.243
-523.989	282.503	0.122	0.220
-522.975	800.000	0.059	0.165
-521.960	154.614	0.277	0.382
-520.945	670.038	-0.097	0.252
-519.931	71.800	-0.078	-0.081
-518.916	227.008	0.028	0.046
-517.902	-200.000	-0.039	-0.398
-516.887	-41.537	0.100	-0.052
-515.872	-7.775	0.306	0.207
-514.858	82.364	-0.267	0.290
-513.843	-200.000	-0.050	-0.257
-512.829	69.905	-0.055	-0.057
-511.814	-200.000	-0.061	-0.333
-510.799	427.289	0.112	-0.243
-509.785	202.590	0.128	-0.198
-508.770	76.610	-0.191	0.203
-507.756	-200.000	-0.001	0.161
-506.741	-25.343	-0.257	-0.152
-505.726	-89.578	-0.277	-0.081
-504.712	-13.026	0.213	-0.139
-503.697	291.211	-0.035	-0.063
-502.683	-200.000	-0.011	-0.140
-501.668	283.879	-0.197	0.355
-500.653	380.665	0.088	0.181
-499.639	131.503	-0.228	0.293
-498.624	182.931	0.049	-0.072
-497.610	-95.875	-0.249	-0.067
-496.595	-26.330	-0.090	0.053
-495.581	-129.569	-0.048	0.007
-494.566	14.310	-0.144	0.112
-493.551	297.580	-0.151	0.277
-492.537	68.427	-0.148	0.152
-491.522	-200.000	0.045	0.242
-490.508	142.777	-0.105	0.139
-489.493	-37.977	-0.180	-0.096
-488.478	92.787	0.211	0.238
-487.464	-200.000	0.034	-0.208
-486.449	-173.364	-0.306	0.009
-485.435	-14.543	0.136	0.088
-484.420	157.505	0.200	0.277
-483.405	-58.538	-0.180	-0.078
-482.391	604.971	0.129	-0.321
-481.376	123.778	0.318	-0.400
-480.362	114.806	-0.151	0.184
-479.347	-94.994	0.445	0.120
-478.332	65.547	-0.294	-0.297
-477.318	800.000	-0.027	0.083
-476.303	800.000	0.061	0.268
-475.289	-30.480	-0.232	0.132
-474.274	64.237	-0.147	0.148
-473.259	309.388	-0.089	-0.167
-472.245	-200.000	-0.056	-0.294
-471.230	106.533	0.027	0.032
-470.216	7.762	0.190	-0.142
-469.201	289.504	-0.198	-0.358
-468.186	112.180	-0.180	0.217
-467.172	-72.446	0.183	0.067
-466.157	-136.826	0.264	0.030
-465.143	-148.054	0.273	-0.023
-464.128	383.466	0.119	-0.244
-463.113	690.930	-0.074	-0.192
-462.099	-100.666	0.255	-0.063
-461.084	-35.536	-0.137	0.074
-460.070	-182.372	0.173	0.003
-459.055	-92.638	0.280	-0.079
-458.040	-23.943	-0.123	-0.073
-457.026	-137.087	-0.135	-0.015
-456.011	-179.441	-0.166	0.004
-454.997	375.677	-0.031	0.064
-453.982	266.223	0.038	-0.066
-452.968	800.000	-0.065	0.250
-451.953	71.216	-0.224	-0.232
-450.938	-68.061	0.268	0.104
-449.924	-181.984	0.287	0.005
-448.909	-200.000	0.046	0.262
-447.895	-121.256	0.292	0.049
-446.880	-200.000	-0.016	-0.265
-445.865	170.920	0.027	0.038
-444.851	82.563	-0.246	0.267
-443.836	9.099	0.115	-0.087
-442.822	-55.329	0.065	0.029
-441.807	-36.831	0.145	-0.078
-440.792	113.248	-0.232	0.281
-439.778	-139.512	-0.088	-0.009
-438.763	-15.454	0.211	-0.135
-437.749	70.305	-0.034	0.035
-436.734	-57.148	0.317	0.140
-435.719	-143.430	0.265	-0.025
-434.705	-114.693	-0.095	0.018
-433.690	65.157	0.149	-0.151
-432.676	184.828	0.215	-0.318
-431.661	800.000	-0.039	0.157
-430.646	800.000	0.038	-0.137
-429.632	-200.000	-0.051	0.276
-428.617	-115.210	-0.145	0.027
-427.603	482.086	-0.115	-0.261
-426.588	-23.467	-0.210	0.126
-425.573	218.091	0.105	-0.167
-424.559	-15.706	-0.141	-0.090
-423.544	480.351	0.066	0.149
-422.530	-102.683	-0.113	-0.027
-421.515	629.216	0.069	-0.174
-420.500	21.140	-0.495	-0.401
-419.486	-158.071	0.571	0.033
-418.471	262.412	0.192	-0.333
-417.457	215.398	0.182	0.289
-416.442	53.521	-0.303	-0.290
-415.428	265.912	-0.026	-0.045
-414.413	-200.000	0.003	0.141
-413.398	24.218	0.135	0.111
-412.384	285.095	-0.074	-0.134
-411.369	-25.273	-0.111	-0.066
-410.355	-200.000	0.049	0.417
-409.340	336.460	0.147	0.285
-408.325	-76.498	0.214	0.075
-407.311	-200.000	-0.011	0.092
-406.296	178.042	-0.116	-0.169
-405.282	83.740	0.162	-0.176
-404.267	-200.000	0.006	-0.185
-403.252	40.699	0.144	-0.129
-402.238	-86.445	0.200	-0.061
-401.223	800.000	0.034	-0.140
-400.209	196.991	0.296	0.450
-399.194	-70.803	-0.143	0.054
-398.179	20.050	0.132	0.106
-397.165	154.630	0.073	-0.100
-396.150	61.177	-0.209	-0.207
-395.136	800.000	0.102	-0.295
-394.121	-200.000	0.020	0.223
-393.106	-104.331	0.152	-0.035
-392.092	44.995	-0.102	-0.093
-391.077	21.112	0.144	-0.117
-390.063	22.782	-0.117	0.096
-389.048	-68.480	0.396	-0.153
-388.033	90.115	0.098	0.110
-387.019	175.618	0.029	0.042
-386.004	-200.000	-0.011	0.090
-384.990	241.770	-0.059	0.099
-383.975	296.180	-0.177	0.323
-382.960	8.450	0.136	0.102
-381.946	-200.000	-0.003	-0.315
-380.931	63.195	-0.068	-0.068
-379.917	10.914	0.384	0.292
-378.902	800.000	0.062	0.203
-377.888	34.933	0.237	-0.206
-376.873	44.477	-0.169	-0.154
-375.858	118.675	-0.203	-0.250
-374.844	-15.866	0.149	-0.094
-373.829	0.878	0.143	0.102
-372.815	800.000	0.104	0.354
-371.800	28.755	0.243	0.205
-370.785	-60.142	-0.368	-0.156
-369.771	-200.000	-0.054	0.274
-368.756	54.580	-0.043	0.041
-367.742	-34.975	0.424	-0.230
-366.727	-200.000	-0.030	-0.540
-365.712	247.990	0.150	-0.253
-364.698	329.502	0.043	-0.083
-363.683	289.280	0.057	-0.103
-362.669	-47.337	0.266	-0.129
-361.654	-87.493	0.224	-0.067
-360.639	-141.109	0.215	0.022
-359.625	800.000	-0.047	0.145
-358.610	306.699	-0.081	0.150
-357.596	-200.000	-0.008	-0.199
-356.581	286.325	0.323	-0.579
-355.566	-152.541	0.255	0.018
-354.552	-27.296	0.233	0.135
-353.537	-51.909	-0.366	0.169
-352.523	3.092	0.158	-0.114
-351.508	108.367	0.271	0.322
-350.493	800.000	-0.110	0.317
-349.479	-105.280	-0.413	0.094
-348.464	547.474	-0.055	-0.132
-347.450	-200.000	0.052	0.421
-346.435	800.000	0.098	0.333
-345.420	-54.575	0.345	-0.155
-344.406	28.113	0.208	-0.175
-343.391	-200.000	0.014	0.116
-342.377	-129.427	-0.314	0.043
-341.362	183.121	0.025	0.036
-340.348	332.960	-0.042	0.080
-339.333	-113.496	-0.247	0.048
-338.318	-158.249	0.457	0.026
-337.304	-94.379	-0.331	0.090
-336.289	186.936	-0.080	0.118
-335.275	-134.228	-0.242	0.030
-334.260	378.774	0.116	-0.235
-333.245	340.048	-0.193	0.375
-332.231	-97.466	0.206	-0.053
-331.216	22.711	0.222	0.181
-330.202	-79.273	0.149	-0.050
-329.187	-108.145	-0.227	0.049
-328.172	199.857	0.160	-0.245
-327.158	258.446	-0.084	-0.143
-326.143	203.649	-0.139	0.213
-325.129	422.064	0.025	-0.053
-324.114	-68.567	-0.386	-0.149
-323.099	363.861	0.059	-0.118
-322.085	-200.000	-0.004	-0.133
-321.070	14.016	0.239	0.185
-320.056	59.606	0.030	0.030
-319.041	-200.000	0.032	0.149
-318.026	-200.000	-0.032	-0.264
-317.012	-200.000	0.040	-0.492
-315.997	213.250	0.145	-0.228
-314.983	-99.994	-0.137	-0.034
-313.968	-200.000	0.062	0.418
-312.953	221.611	0.013	0.020
-311.939	-76.806	0.244	-0.085
-310.924	-37.190	0.189	-0.100
-309.910	-18.714	-0.263	-0.163
-308.895	800.000	0.069	-0.216
-307.880	195.543	0.211	0.319
-306.866	214.505	-0.046	0.073
-305.851	17.767	0.209	0.165
-304.837	800.000	0.065	-0.275
-303.822	-139.121	-0.240	0.026
-302.807	-108.923	0.275	-0.058
-301.793	120.491	-0.176	0.217
-300.778	54.744	0.044	0.043
-299.764	358.668	0.132	0.262
-298.749	-32.445	-0.224	-0.124
-297.735	-172.457	-0.036	0.001
-296.720	-178.921	0.142	0.003
-295.705	699.991	0.082	-0.215
-294.691	60.047	-0.213	0.209
-293.676	347.727	0.039	0.077
-292.662	130.123	0.221	-0.280
-291.647	-200.000	0.050	0.243
-290.632	18.178	0.138	-0.109
-289.618	-200.000	-0.044	0.279
-288.603	230.452	-0.190	0.308
-287.589	800.000	0.030	-0.104
-286.574	800.000	0.029	0.113
-285.559	-126.947	0.179	0.026
-284.545	-133.976	0.255	0.031
-283.530	450.452	-0.023	0.049
-282.516	-26.572	0.072	-0.042
-281.501	-154.313	-0.323	-0.022
-280.486	752.964	0.078	-0.210
-279.472	-161.553	0.339	-0.017
-278.457	-116.305	0.245	0.045
-277.443	-200.000	-0.017	-0.247
-276.428	24.729	-0.324	0.266
-275.413	53.918	-0.183	0.175
-274.399	-47.676	-0.070	-0.034
-273.384	232.757	-0.187	-0.305
-272.370	-149.818	-0.110	0.009
-271.355	-30.200	0.292	0.165
-270.340	-46.920	0.063	0.031
-269.326	-200.000	0.021	-0.272
-268.311	-200.000	0.095	0.459
-267.297	-1.412	0.087	0.061
-266.282	171.699	-0.086	0.123
-265.267	-82.621	-0.389	-0.125
-264.253	-55.227	-0.086	0.038
-263.238	159.896	0.107	0.147
-262.224	177.447	0.216	-0.311
-261.209	162.104	0.122	0.169
-260.195	-21.365	0.238	-0.144
-259.180	486.624	0.055	0.124
-258.165	-200.000	0.074	-0.340
-257.151	19.749	0.202	-0.161
-256.136	-200.000	-0.008	-0.144
-255.122	800.000	0.030	-0.113
-254.107	-200.000	-0.003	-0.090
-253.092	-187.587	-0.242	-0.003
-252.078	189.399	0.103	-0.152
-251.063	800.000	0.135	0.420
-250.049	800.000	-0.045	0.193
-249.034	61.420	-0.209	-0.206
-248.019	3.885	-0.436	-0.315
-247.005	33.885	-0.125	-0.108
-245.990	4.898	-0.151	-0.110
-244.976	383.264	-0.100	-0.204
-243.961	-148.046	0.286	0.024
-242.946	-71.400	0.169	-0.063
-241.932	-200.000	0.079	0.441
-240.917	-171.972	-0.057	-0.002
-239.903	-200.000	0.015	-0.106
-238.888	230.429	-0.144	0.233
-237.873	-29.357	0.204	0.116
-236.859	54.196	0.063	0.060
-235.844	344.910	0.108	0.211
-234.830	-43.869	0.122	-0.061
-233.815	-87.975	-0.078	-0.023
-232.800	-200.000	-0.015	0.275
-231.786	-179.718	0.253	-0.005
-230.771	800.000	0.027	0.109
-229.757	-10.392	0.138	-0.091
-228.742	-200.000	0.028	0.155
-227.727	9.643	-0.071	0.053
-226.713	-15.155	-0.190	0.120
-225.698	71.641	0.137	0.141
-224.684	25.066	-0.185	-0.152
-223.669	-11.179	-0.245	-0.160
-222.655	120.487	0.038	0.047
-221.640	429.918	0.073	-0.156
-220.625	800.000	-0.078	0.241
-219.611	-68.279	0.347	-0.134
-218.596	800.000	0.059	-0.180
-217.582	-192.664	-0.268	-0.002
-216.567	-123.608	0.201	0.032
-215.552	-82.890	0.170	-0.054
-214.538	73.233	0.207	-0.215
-213.523	-102.752	0.303	0.071
-212.509	82.293	0.097	-0.104
-211.494	67.528	-0.197	-0.199
-210.479	-53.065	0.293	0.133
-209.465	800.000	-0.022	-0.060
-208.450	155.181	-0.212	-0.288
-207.436	326.680	0.136	-0.257
-206.421	-75.108	0.339	0.120
-205.406	669.021	-0.105	-0.270
-204.392	132.208	-0.098	0.124
-203.377	-155.047	0.335	0.022
-202.363	-23.883	-0.092	-0.054
-201.348	285.830	0.086	0.154
-200.333	800.000	0.046	0.188
-199.319	221.778	-0.083	0.132
-198.304	-200.000	-0.042	0.256
-197.290	800.000	-0.060	-0.170
-196.275	58.592	-0.141	0.137
-195.260	122.229	0.024	-0.030
-194.246	-126.120	-0.168	0.025
-193.231	800.000	0.087	-0.345
-192.217	75.630	-0.044	-0.046
-191.202	-200.000	0.010	0.077
-190.187	-146.131	-0.343	0.030
-189.173	-164.682	-0.304	-0.014
-188.158	-200.000	0.014	0.604
-187.144	30.756	0.208	-0.176
-186.129	82.108	-0.385	0.412
-185.114	378.472	-0.185	-0.375
-184.100	-174.860	-0.258	-0.007
-183.085	0.801	-0.112	0.079
-182.071	28.051	-0.195	-0.163
-181.056	-200.000	-0.052	0.433
-180.042	-41.231	0.173	0.088
-179.027	-72.609	0.246	-0.090
-178.012	-200.000	0.040	0.321
-176.998	800.000	-0.024	0.097
-175.983	800.000	0.035	0.119
-174.969	-200.000	0.011	-0.058
-173.954	-174.263	-0.381	0.011
-172.939	-132.301	-0.185	0.024
-171.925	800.000	-0.105	-0.357
-170.910	225.962	-0.127	-0.204
-169.896	-119.185	0.086	-0.015
-168.881	800.000	0.070	-0.243
-167.866	-200.000	-0.030	0.277
-166.852	316.707	0.219	-0.408
-165.837	800.000	-0.140	0.479
-164.823	279.619	0.269	0.475
-163.808	485.780	0.036	0.080
-162.793	-190.911	-0.121	-0.001
-161.779	800.000	0.099	-0.371
-160.764	347.624	0.102	0.199
-159.750	-200.000	-0.084	0.394
-158.735	-78.785	0.207	0.070
-157.720	328.395	0.120	-0.227
-156.706	-1.679	0.104	-0.072
-155.691	-127.980	0.302	-0.043
-154.677	171.360	-0.183	0.259
-153.662	800.000	-0.082	-0.276
-152.647	-200.000	-0.006	0.356
-151.633	100.902	0.016	-0.018
-150.618	-107.855	0.058	-0.013
-149.604	-200.000	0.011	0.061
-148.589	371.213	0.085	-0.170
-147.574	416.671	-0.102	0.214
-146.560	298.559	-0.114	0.207
-145.545	-55.467	0.249	-0.110
-144.531	800.000	0.028	-0.114
-143.516	17.133	0.299	0.234
-142.502	75.853	0.101	0.105
-141.487	50.419	-0.075	0.070
-140.472	99.905	0.143	-0.164
-139.458	229.101	0.164	-0.265
-138.443	800.000	0.081	0.322
-137.429	13.424	0.259	-0.198
-136.414	-151.001	0.105	0.008
-135.399	598.956	-0.034	0.084
-134.385	51.953	0.131	-0.123
-133.370	38.014	-0.238	-0.209
-132.356	484.175	0.041	0.092
-131.341	54.222	0.248	0.236
-130.326	-200.000	-0.005	-0.035
-129.312	12.719	0.095	-0.072
-128.297	800.000	0.121	0.426
-127.283	-200.000	-0.007	-0.100
-126.268	-47.579	0.316	0.151
-125.253	46.101	0.289	-0.264
-124.239	-50.477	0.427	0.199
-123.224	-86.019	-0.029	-0.009
-122.210	-72.835	0.131	-0.048
-121.195	-86.718	-0.051	0.015
-120.180	139.335	0.217	0.282
-119.166	-90.954	0.344	-0.098
-118.151	36.996	-0.135	-0.118
-117.137	293.355	0.154	0.277
-116.122	70.100	0.147	0.150
-115.107	-39.306	-0.118	-0.061
-114.093	50.403	0.136	0.127
-113.078	-63.520	-0.095	-0.038
-112.064	1.457	0.244	0.173
-111.049	10.473	0.228	0.171
-110.034	-200.000	-0.041	-0.280
-109.020	-36.789	-0.183	-0.097
-108.005	800.000	0.054	0.158
-106.991	-200.000	-0.005	-0.304
-105.976	800.000	0.035	0.137
-104.962	12.299	-0.183	0.139
-103.947	-200.000	-0.003	-0.124
-102.932	468.843	-0.045	-0.099
-101.918	441.924	0.139	-0.301
-100.903	800.000	0.035	0.130
-99.889	-112.144	0.114	-0.022
-98.874	540.128	-0.101	0.237
-97.859	800.000	0.098	0.331
-96.845	-53.538	0.058	0.026
-95.830	-113.612	0.045	0.009
-94.816	-200.000	-0.027	-0.231
-93.801	65.234	-0.358	0.356
-92.786	-118.400	0.097	0.017
-91.772	36.269	0.137	-0.119
-90.757	468.377	-0.188	0.416
-89.743	125.840	0.145	0.180
-88.728	33.732	-0.196	-0.168
-87.713	51.213	-0.299	-0.279
-86.699	-200.000	0.017	-0.492
-85.684	195.636	0.100	0.150
-84.670	516.188	0.199	-0.459
-83.655	-49.700	0.312	0.146
-82.640	-177.646	-0.114	-0.003
-81.626	94.553	0.085	0.096
-80.611	-200.000	0.040	0.296
-79.597	36.931	-0.202	-0.176
-78.582	596.282	0.183	0.446
-77.567	-96.290	0.252	0.066
-76.553	-127.861	0.439	-0.062
-75.538	-20.278	0.095	0.058
-74.524	-136.969	0.261	-0.029
-73.509	736.526	-0.142	-0.375
-72.494	-200.000	-0.046	-0.207
-71.480	77.367	0.183	0.191
-70.465	800.000	-0.108	0.332
-69.451	-35.625	-0.276	0.147
-68.436	800.000	0.091	0.391
-67.422	258.012	-0.180	-0.305
-66.407	-21.626	-0.251	-0.151
-65.392	-31.316	-0.199	0.110
-64.378	-200.000	-0.001	-0.388
-63.363	145.141	-0.097	0.128
-62.349	800.000	0.088	0.271
-61.334	145.091	-0.842	-1.108
-60.319	29.760	0.530	0.444
-59.305	253.155	-0.536	-0.899
-58.290	328.639	0.632	1.194
-57.276	669.884	0.530	1.349
-56.261	-200.000	101.339	591.991
-55.246	495.812	1432.725	3237.819
-54.232	152.303	2617.315	3512.790
-53.217	110.297	2184.075	2579.628
-52.203	41.612	1711.244	1523.858
-51.188	33.900	1519.562	1300.577
-50.173	31.532	1492.440	1261.372
-49.159	51.745	1543.809	1443.863
-48.144	52.763	1561.724	1467.548
-47.130	34.154	1520.545	1302.954
-46.115	31.004	1505.775	1268.846
-45.100	30.810	1501.913	1264.229
-44.086	30.872	1500.074	1263.047
-43.071	30.737	1498.125	1260.444
-42.057	30.747	1496.253	1258.884
-41.042	30.692	1495.108	1257.502
-40.027	30.745	1493.459	1256.423
-39.013	30.711	1491.211	1254.248
-37.998	30.679	1490.733	1253.581
-36.984	30.664	1489.673	1252.542
-35.969	30.736	1488.068	1251.623
-34.954	30.716	1486.637	1250.236
-33.940	30.760	1485.245	1249.310
-32.925	30.779	1484.353	1248.640
-31.911	30.833	1482.640	1247.511
-30.896	30.686	1481.600	1245.601
-29.881	30.809	1480.025	1245.051
-28.867	30.862	1478.678	1244.224
-27.852	30.799	1477.477	1242.745
-26.838	30.893	1475.654	1241.789
-25.823	30.832	1474.236	1240.141
-24.809	30.831	1472.697	1238.790
-23.794	30.901	1471.327	1238.053
-22.779	30.791	1470.621	1236.679
-21.765	30.771	1469.269	1235.357
-20.750	30.708	1468.434	1234.191
-19.736	30.737	1467.254	1233.340
-18.721	30.677	1466.112	1231.934
-17.706	30.795	1464.471	1231.289
-16.692	30.690	1463.678	1229.875
-15.677	30.708	1462.444	1228.910
-14.663	30.744	1461.756	1228.525
-13.648	30.690	1460.787	1227.300
-12.633	30.776	1459.601	1226.824
-11.619	30.680	1459.003	1225.641
-10.604	30.696	1458.280	1225.092
-9.590	30.803	1456.730	1224.444
-8.575	30.817	1456.406	1224.215
-7.560	30.730	1455.295	1222.660
-6.546	30.705	1455.027	1222.225
-5.531	30.738	1453.834	1221.386
-4.517	30.754	1452.601	1220.412
-3.502	30.781	1451.480	1219.597
-2.487	30.793	1450.607	1218.890
-1.473	30.683	1450.077	1217.680
-0.458	30.721	1448.759	1216.769
0.556	29.243	1439.261	1206.201
1.571	26.564	1413.326	1167.111
2.586	23.181	1351.727	1095.247
3.600	21.352	1269.915	1018.222
4.615	19.888	1225.967	974.662
5.629	17.255	1169.599	915.599
6.644	8.850	1083.349	805.901
7.659	1.673	1042.297	740.472
8.673	0.525	1036.977	731.067
9.688	0.353	1034.300	728.285
10.702	0.345	1032.997	727.263
11.717	0.258	1031.039	725.402
12.731	2.914	1033.799	740.089
13.746	11.291	1044.859	788.606
14.761	17.247	1051.664	822.581
15.775	17.504	1051.381	823.529
16.790	16.719	1048.981	817.789
17.804	15.649	1047.149	811.129
18.819	14.716	1045.057	804.941
19.834	14.346	1043.872	802.176
20.848	14.014	1042.605	799.531
21.863	13.736	1041.937	797.611
22.877	13.460	1041.442	795.834
23.892	13.309	1040.663	794.444
24.907	13.266	1039.796	793.508
25.921	13.281	1039.250	793.093
26.936	13.328	1038.519	792.687
27.950	13.452	1037.196	792.204
28.965	13.310	1036.910	791.236
29.980	13.279	1036.325	790.570
30.994	13.491	1034.685	790.261
32.009	13.560	1033.867	789.894
33.023	13.571	1033.679	789.735
34.038	13.598	1032.591	788.962
35.053	13.459	1031.813	787.638
36.067	13.440	1031.193	787.002
37.082	13.284	1030.384	785.572
38.096	13.431	1029.129	785.246
39.111	13.483	1028.375	784.847
40.126	13.466	1027.936	784.364
41.140	13.612	1026.279	783.721
42.155	13.467	1025.172	782.118
43.169	13.228	1025.190	780.935
44.184	13.359	1023.687	780.339
45.199	13.374	1022.652	779.550
46.213	13.355	1021.981	778.883
47.228	13.266	1020.911	777.581
48.242	13.278	1020.151	776.990
49.257	13.332	1018.761	776.112
50.271	13.308	1017.799	775.199
51.286	13.455	1016.918	775.147
52.301	13.395	1016.375	774.383
53.315	13.376	1015.688	773.705
54.330	13.301	1014.764	772.580
55.344	13.230	1013.859	771.493
56.359	13.234	1012.758	770.607
57.374	13.360	1012.201	770.700
58.388	13.224	1011.570	769.520
59.403	13.367	1010.317	769.164
60.417	13.306	1009.814	768.427
61.432	13.268	1008.984	767.553
62.447	13.288	1008.254	767.020
63.461	13.303	1007.686	766.591
64.476	13.213	1006.678	765.341
65.490	13.170	1005.598	764.250
66.505	13.184	1004.458	763.381
67.520	13.236	1003.912	763.139
68.534	13.260	1003.177	762.624
69.549	13.143	1002.804	761.733
70.563	13.290	1001.608	761.436
71.578	13.217	1001.393	760.867
72.593	13.052	1000.340	759.243
73.607	13.334	998.710	759.232
74.622	13.128	998.609	758.142
75.636	13.104	997.664	757.247
76.651	13.166	996.774	756.792
77.666	13.085	996.316	756.005
78.680	13.243	995.061	755.708
79.695	13.247	994.655	755.350
80.709	13.248	994.242	754.975
81.724	13.270	993.242	754.248
82.739	13.346	992.659	754.085
83.753	13.208	992.169	753.020
84.768	13.306	990.848	752.394
85.782	13.500	989.862	752.460
86.797	13.437	989.385	751.744
87.812	13.459	988.432	751.054
88.826	13.383	987.987	750.306
89.841	13.236	987.148	748.937
90.855	13.349	986.397	748.811
91.870	13.410	985.420	748.282
92.884	13.457	984.914	748.041
93.899	13.485	984.363	747.685
94.914	13.362	984.073	746.840
95.928	13.413	982.742	745.997
96.943	13.540	981.710	745.717
97.957	13.490	981.148	744.999
98.972	13.543	980.526	744.698
99.987	13.432	979.611	743.439
101.001	13.580	978.766	743.400
102.016	13.413	978.314	742.241
103.030	13.479	977.427	741.797
104.045	13.488	976.351	740.955
105.060	13.593	975.305	740.565
106.074	13.380	974.867	739.213
107.089	13.332	973.569	737.950
108.103	13.280	972.961	737.195
109.118	13.221	972.142	736.244
110.133	13.385	971.268	736.246
111.147	13.227	970.819	735.142
112.162	13.350	969.232	734.421
113.176	13.216	968.950	733.547
114.191	13.350	967.549	733.013
115.206	13.400	966.650	732.487
116.220	13.409	966.219	732.136
117.235	13.406	965.355	731.403
118.249	13.367	964.681	730.659
119.264	13.387	963.608	729.868
120.279	13.289	963.338	729.167
121.293	13.246	962.180	728.037
122.308	13.399	961.481	728.117
123.322	13.224	960.600	726.616
124.337	13.145	959.693	725.518
125.352	13.292	958.327	725.064
126.366	13.286	957.373	724.256
127.381	13.396	956.209	723.790
128.395	13.308	955.546	722.838
129.410	13.308	954.744	722.170
130.424	13.387	953.613	721.595
131.439	13.445	952.740	721.124
132.454	13.327	951.959	719.956
133.468	13.371	951.463	719.708
134.483	13.461	950.712	719.465
135.497	13.490	949.640	718.719
136.512	13.334	949.105	717.573
137.527	13.394	948.073	716.986
138.541	13.370	947.685	716.528
139.556	13.311	947.121	715.782
140.570	13.456	945.442	715.076
141.585	13.426	945.298	714.773
142.600	13.520	944.564	714.562
143.614	13.488	943.998	713.931
144.629	13.570	943.120	713.558
145.643	13.578	942.363	712.956
146.658	13.674	941.384	712.568
147.673	13.449	940.949	711.207
148.687	13.422	939.998	710.311
149.702	13.543	939.125	710.106
150.716	13.574	938.168	709.453
151.731	13.407	937.405	708.098
152.746	13.419	936.675	707.537
153.760	13.509	936.011	707.357
154.775	13.482	935.294	706.635
155.789	13.526	934.404	706.088
156.804	13.611	933.642	705.811
157.819	13.601	932.975	705.204
158.833	13.630	932.208	704.685
159.848	13.646	931.530	704.176
160.862	13.648	931.072	703.775
161.877	13.669	930.533	703.397
162.892	13.665	929.503	702.539
163.906	13.487	928.687	701.104
164.921	13.528	928.038	700.727
165.935	13.440	927.066	699.560
166.950	13.540	925.974	699.098
167.964	13.648	924.957	698.724
168.979	13.539	924.333	697.728
169.994	13.609	923.173	697.084
171.008	13.714	921.885	696.492
172.023	13.608	921.737	695.875
173.037	13.631	920.894	695.272
174.052	13.645	920.156	694.712
175.067	13.788	919.155	694.495
176.081	13.659	918.756	693.591
177.096	13.671	917.697	692.782
178.110	13.695	916.922	692.234
179.125	13.663	916.582	691.782
180.140	13.554	915.992	690.821
181.154	13.683	914.901	690.477
182.169	13.771	914.309	690.333
183.183	13.807	913.826	690.057
184.198	13.952	912.439	689.551
185.213	13.914	912.282	689.213
186.227	13.913	911.530	688.580
187.242	13.832	911.322	688.028
188.256	13.899	910.531	687.649
189.271	13.947	909.632	687.104
190.286	13.920	909.280	686.666
191.300	13.825	908.362	685.522
192.315	13.748	907.698	684.640
193.329	13.723	906.760	683.772
194.344	13.679	906.281	683.168
195.359	13.693	905.923	682.893
196.373	13.981	905.107	683.404
197.388	13.981	904.685	683.023
198.402	14.015	904.317	682.825
199.417	13.957	903.951	682.252
200.432	14.063	903.089	681.976
201.446	14.047	902.613	681.490
202.461	14.109	902.317	681.460
203.475	14.345	901.543	681.780
204.490	14.178	901.229	680.801
205.504	14.093	900.557	679.884
206.519	14.085	899.592	679.062
207.534	14.173	898.866	678.812
208.548	14.143	898.121	678.068
209.563	14.147	897.495	677.555
210.577	14.140	896.611	676.798
211.592	14.157	896.370	676.625
212.607	14.215	895.598	676.218
213.621	14.360	894.895	676.214
214.636	14.351	894.167	675.570
215.650	14.174	894.026	674.687
216.665	14.325	893.115	674.552
217.680	14.314	892.767	674.183
218.694	14.360	892.114	673.817
219.709	14.321	891.466	673.109
220.723	14.353	891.078	672.884
221.738	14.267	890.425	671.984
222.753	14.365	889.574	671.678
223.767	14.395	888.548	670.966
224.782	14.327	888.141	670.326
225.796	14.446	887.160	670.005
226.811	14.532	886.714	669.954
227.826	14.456	885.817	668.914
228.840	14.398	885.409	668.313
229.855	14.451	884.851	668.045
230.869	14.325	884.102	666.916
231.884	14.388	883.246	666.461
232.899	14.368	882.956	666.106
233.913	14.342	881.920	665.162
234.928	14.478	881.432	665.275
235.942	14.452	880.475	664.392
236.957	14.508	879.826	664.065
237.972	14.389	879.486	663.276
238.986	14.359	878.709	662.513
240.001	14.467	877.752	662.160
241.015	14.607	877.272	662.297
242.030	14.471	876.531	661.141
243.045	14.494	876.333	661.022
244.059	14.549	875.525	660.572
245.074	14.626	874.894	660.342
246.088	14.594	874.401	659.786
247.103	14.542	873.593	658.912
248.117	14.645	873.260	659.009
249.132	14.594	872.807	658.410
250.147	14.848	871.829	658.614
251.161	14.804	871.104	657.835
252.176	14.669	870.902	657.091
253.190	14.918	869.902	657.257
254.205	14.949	869.383	656.928
255.220	14.987	868.857	656.623
256.234	14.948	868.146	655.872
257.249	14.998	867.576	655.582
258.263	14.923	867.209	654.952
259.278	15.061	866.629	654.998
260.293	14.997	866.036	654.241
261.307	15.082	865.576	654.167
262.322	15.002	865.175	653.493
263.336	15.149	863.987	653.113
264.351	15.204	863.643	653.008
265.366	15.197	863.164	652.559
266.380	15.092	862.840	651.849
267.395	15.025	861.748	650.708
268.409	15.198	860.975	650.736
269.424	15.272	860.058	650.272
270.439	15.168	859.635	649.491
271.453	15.141	858.986	648.842
272.468	15.091	858.420	648.162
273.482	15.158	857.470	647.647
274.497	15.131	857.296	647.354
275.512	15.132	856.607	646.779
276.526	15.257	855.627	646.465
277.541	15.128	855.118	645.526
278.555	15.093	854.716	645.030
279.570	15.283	854.095	645.237
280.585	15.294	853.736	644.951
281.599	15.389	852.805	644.554
282.614	15.333	852.112	643.759
283.628	15.321	851.694	643.341
284.643	15.233	851.554	642.839
285.657	15.307	850.837	642.524
286.672	15.356	850.171	642.152
287.687	15.425	849.462	641.826
288.701	15.509	848.873	641.643
289.716	15.449	848.557	641.119
290.730	15.516	848.101	640.972
291.745	15.294	847.644	639.723
292.760	15.413	846.438	639.212
293.774	15.528	845.901	639.188
294.789	15.591	845.744	639.251
295.803	15.699	844.638	638.769
296.818	15.485	844.452	637.758
297.833	15.527	843.799	637.370
298.847	15.604	842.793	636.845
299.862	15.449	842.527	635.999
300.876	15.594	841.697	635.866
301.891	15.481	841.091	634.923
302.906	15.652	840.240	634.871
303.920	15.791	839.520	634.795
304.935	15.705	839.373	634.303
305.949	15.805	838.708	634.122
306.964	15.857	837.555	633.390
307.979	15.717	837.492	632.761
308.993	15.816	836.919	632.644
310.008	15.789	836.039	631.821
311.022	15.808	836.110	631.888
312.037	15.904	835.597	631.807
313.052	15.829	834.780	630.850
314.066	15.804	833.967	630.087
315.081	15.784	834.070	630.035
316.095	15.759	833.198	629.228
317.110	15.885	832.309	628.971
318.125	15.721	832.266	628.268
319.139	15.716	831.579	627.677
320.154	15.853	830.948	627.657
321.168	15.841	830.493	627.214
322.183	15.979	829.967	627.273
323.197	15.946	829.309	626.597
324.212	15.972	828.871	626.309
325.227	15.785	828.209	625.058
326.241	15.850	828.076	625.143
327.256	15.866	827.144	624.444
328.270	15.966	826.497	624.269
329.285	16.037	826.189	624.246
330.300	15.940	825.449	623.272
331.314	15.852	825.201	622.705
332.329	15.951	824.295	622.333
333.343	16.041	823.497	622.007
334.358	15.970	823.348	621.575
335.373	16.061	822.512	621.226
336.387	16.015	822.540	621.021
337.402	16.071	821.851	620.654
338.416	16.160	821.010	620.292
339.431	16.250	820.364	620.078
340.446	16.152	820.407	619.697
341.460	16.156	819.319	618.835
342.475	16.347	818.823	619.106
343.489	16.372	818.164	618.643
344.504	16.359	817.828	618.286
345.519	16.265	817.579	617.699
346.533	16.308	816.969	617.341
347.548	16.368	816.373	617.057
348.562	16.306	816.156	616.611
349.577	16.405	815.259	616.238
350.592	16.312	814.794	615.494
351.606	16.297	814.315	615.022
352.621	16.371	813.989	614.994
353.635	16.342	813.293	614.306
354.650	16.226	813.210	613.769
355.665	16.392	812.560	613.826
356.679	16.353	812.350	613.472
357.694	16.413	811.554	613.033
358.708	16.500	811.120	612.967
359.723	16.549	810.547	612.659
360.738	16.360	810.034	611.533
361.752	16.548	809.386	611.668
362.767	16.526	809.312	611.477
363.781	16.570	808.890	611.263
364.796	16.598	808.213	610.802
365.810	16.491	808.255	610.389
366.825	16.685	807.327	610.334
367.840	16.756	807.187	610.432
368.854	16.722	806.485	609.723
369.869	16.756	806.218	609.593
370.883	16.647	805.535	608.630
371.898	16.674	805.064	608.317
372.913	16.687	804.545	607.918
373.927	16.828	803.738	607.758
374.942	16.773	803.207	607.108
375.956	16.812	802.497	606.655
376.971	16.749	802.303	606.230
377.986	16.836	801.657	605.999
379.000	16.976	800.875	605.855
380.015	16.967	800.479	605.469
381.029	16.843	800.537	605.017
382.044	16.877	799.582	604.364
383.059	16.974	799.057	604.260
384.073	16.917	798.584	603.645
385.088	16.797	798.304	602.954
386.102	16.966	797.240	602.697
387.117	17.038	796.630	602.436
388.132	16.898	796.520	601.804
389.146	16.956	795.825	601.431
390.161	17.020	795.614	601.445
391.175	17.126	795.342	601.562
392.190	17.013	794.989	600.842
393.205	16.885	794.675	600.097
394.219	16.975	794.057	599.897
395.234	17.012	793.498	599.551
396.248	17.057	792.945	599.240
397.263	16.927	792.922	598.709
398.278	16.979	791.998	598.145
399.292	16.936	791.386	597.477
400.307	17.062	790.915	597.510
401.321	17.025	790.934	597.342
402.336	17.066	790.299	596.954
403.350	17.197	789.695	596.906
404.365	17.125	789.530	596.475
405.380	17.012	789.222	595.794
406.394	17.162	788.746	595.908
407.409	17.255	788.129	595.716
408.423	17.316	787.483	595.387
409.438	17.411	786.940	595.258
410.453	17.352	786.776	594.874
411.467	17.461	786.328	594.862
412.482	17.438	785.897	594.405
413.496	17.272	785.592	593.542
414.511	17.355	785.252	593.519
415.526	17.259	784.839	592.822
416.540	17.411	784.417	592.980
417.555	17.427	784.077	592.724
418.569	17.527	783.361	592.482
419.584	17.358	782.840	591.445
420.599	17.441	782.466	591.400
421.613	108.981	1287.488	1464.786
422.628	93.340	1361.060	1464.880
