DTS Sentinel unit serial number:	SN413079Multiplexer serial number:	ORYXHardware model number:	OX4-SRSoftware version number:	ORYX F/W v4.00 Oryx Data Collector v3.7.2.0data status	okinstallation	princeton_trtdifferential loss correction	single-endedforward channel	channel 3reverse channel	N/Adate	2019/09/15time	00:20:35forward acquisition time	60.00reverse acquisition time	0.00gamma	496.2192k internal	0.2319k external	0.2319temperature offset calibration	0.9977default loss term (dB/km)	0.3790temperature slope calibration	1.0000multiplexer offset coefficient	1.0000multiplexer slope coefficient	1.0000fibre end	0.00T internal ref (°C)	32.12T ext. ref 1 (°C)	4.57T ext. ref 2 (°C)	27.21length (m)	temperature (°C)	Stokes	anti-Stokes-747.200	-64.599	0.141	0.058
-746.185	-200.000	-0.007	0.271
-745.171	-200.000	0.004	-0.116
-744.156	-71.626	-0.326	0.123
-743.142	-21.157	0.166	0.103
-742.127	346.479	0.040	0.080
-741.112	800.000	-0.084	0.275
-740.098	-14.372	0.109	-0.071
-739.083	-160.938	-0.149	-0.008
-738.069	-89.056	-0.118	-0.035
-737.054	-9.827	-0.154	0.103
-736.039	-69.785	-0.423	-0.163
-735.025	800.000	0.066	0.230
-734.010	79.666	0.269	0.292
-732.996	163.819	0.207	-0.294
-731.981	113.759	-0.085	-0.104
-730.966	-200.000	-0.012	-0.095
-729.952	94.417	0.136	0.156
-728.937	-200.000	-0.011	-0.249
-727.923	-200.000	-0.025	-0.122
-726.908	-200.000	-0.027	0.308
-725.894	-163.890	-0.346	-0.016
-724.879	6.139	-0.160	-0.120
-723.864	-119.635	0.036	0.006
-722.850	-92.264	-0.231	0.066
-721.835	-200.000	-0.002	0.142
-720.821	6.341	-0.275	-0.207
-719.806	-94.673	-0.188	-0.052
-718.791	-7.330	-0.156	-0.106
-717.777	572.870	-0.181	0.445
-716.762	-54.357	-0.268	0.123
-715.748	298.433	0.120	0.223
-714.733	141.520	-0.234	0.313
-713.718	-200.000	-0.036	-0.365
-712.704	101.644	-0.025	-0.029
-711.689	-149.409	0.390	0.031
-710.675	-100.722	0.176	0.044
-709.660	112.178	0.053	-0.064
-708.645	42.390	0.277	0.255
-707.631	94.785	0.076	-0.088
-706.616	-146.191	-0.171	0.015
-705.602	251.307	-0.227	-0.391
-704.587	-72.581	0.347	0.129
-703.572	15.313	-0.346	0.274
-702.558	-143.557	-0.251	0.024
-701.543	202.152	0.152	-0.236
-700.529	5.711	-0.172	-0.128
-699.514	-23.086	-0.356	-0.217
-698.499	800.000	0.047	0.202
-697.485	-200.000	-0.003	0.032
-696.470	30.396	0.122	-0.105
-695.456	-90.476	-0.139	0.041
-694.441	-10.975	0.297	0.198
-693.426	50.686	-0.055	0.053
-692.412	-200.000	0.026	0.342
-691.397	800.000	0.043	-0.169
-690.383	-119.479	-0.471	-0.082
-689.368	-94.639	-0.178	0.049
-688.354	-69.883	0.131	0.050
-687.339	394.029	0.095	0.199
-686.324	712.151	-0.104	-0.278
-685.310	-16.138	0.025	0.016
-684.295	-6.767	-0.298	0.205
-683.281	-200.000	-0.033	0.212
-682.266	397.035	-0.091	0.192
-681.251	168.536	-0.219	0.315
-680.237	44.432	-0.072	0.066
-679.222	282.792	-0.130	-0.235
-678.208	-200.000	0.061	-0.390
-677.193	108.271	-0.046	-0.056
-676.178	-16.346	-0.307	-0.196
-675.164	800.000	-0.031	-0.106
-674.149	-141.487	0.221	0.022
-673.135	-200.000	-0.017	-0.426
-672.120	253.189	0.087	-0.150
-671.105	-200.000	0.041	0.235
-670.091	-145.182	-0.084	0.008
-669.076	-19.133	-0.150	0.094
-668.062	-15.760	0.068	-0.044
-667.047	-200.000	-0.003	-0.350
-666.032	-28.196	-0.416	0.243
-665.018	257.866	0.104	0.181
-664.003	-81.175	-0.052	0.017
-662.989	-15.828	0.119	0.077
-661.974	50.773	-0.195	0.186
-660.959	-154.844	-0.267	0.018
-659.945	-112.431	0.257	-0.052
-658.930	-200.000	-0.008	0.336
-657.916	-59.284	0.011	0.005
-656.901	-32.414	0.279	-0.157
-655.886	-116.074	-0.312	0.059
-654.872	-10.939	0.218	0.145
-653.857	30.874	-0.303	-0.261
-652.843	800.000	0.057	-0.165
-651.828	12.398	0.193	0.150
-650.814	723.640	0.030	0.081
-649.799	-77.211	-0.392	0.138
-648.784	567.327	0.081	-0.198
-647.770	-137.028	0.293	0.034
-646.755	140.069	0.144	0.191
-645.741	-200.000	0.008	0.357
-644.726	-122.735	0.117	0.019
-643.711	-144.877	0.088	-0.008
-642.697	91.665	-0.045	0.051
-641.682	800.000	-0.118	0.329
-640.668	-130.309	-0.315	-0.043
-639.653	-33.658	0.073	-0.040
-638.638	371.490	0.028	0.056
-637.624	-189.649	0.044	-0.001
-636.609	-200.000	-0.007	-0.060
-635.595	-87.275	-0.350	0.107
-634.580	-161.864	0.227	0.012
-633.565	351.018	-0.049	-0.098
-632.551	-169.138	-0.075	0.003
-631.536	-200.000	0.052	-0.262
-630.522	-180.762	0.239	0.005
-629.507	-33.561	-0.225	0.125
-628.492	800.000	-0.040	-0.155
-627.478	28.041	0.236	-0.201
-626.463	308.586	-0.205	0.386
-625.449	-128.785	-0.330	0.047
-624.434	-107.571	-0.192	-0.042
-623.419	-42.036	-0.058	-0.030
-622.405	580.189	0.131	-0.323
-621.390	459.825	-0.165	0.371
-620.376	-123.794	-0.236	0.038
-619.361	-67.946	0.146	-0.058
-618.346	492.478	-0.059	-0.137
-617.332	-200.000	0.050	0.250
-616.317	102.571	-0.108	0.128
-615.303	-109.349	0.308	0.066
-614.288	-200.000	-0.006	-0.099
-613.273	-196.388	-0.099	0.001
-612.259	11.551	-0.164	-0.126
-611.244	177.224	-0.076	-0.112
-610.230	-200.000	0.016	0.214
-609.215	-80.214	-0.142	0.048
-608.201	-200.000	0.034	-0.224
-607.186	800.000	0.047	-0.144
-606.171	60.498	-0.100	0.099
-605.157	-42.055	-0.161	0.083
-604.142	-200.000	-0.014	-0.190
-603.128	-176.210	-0.155	0.004
-602.113	18.688	0.203	0.163
-601.098	118.010	-0.137	-0.169
-600.084	84.007	-0.050	-0.055
-599.069	392.434	-0.073	0.153
-598.055	468.066	-0.271	-0.612
-597.040	800.000	0.113	-0.457
-596.025	800.000	-0.044	-0.186
-595.011	555.891	-0.060	0.146
-593.996	-22.469	0.175	0.106
-592.982	-200.000	-0.035	-0.259
-591.967	-200.000	0.025	-0.421
-590.952	110.639	0.165	-0.199
-589.938	136.855	-0.067	-0.089
-588.923	762.203	-0.075	0.204
-587.909	-200.000	0.015	0.080
-586.894	107.884	0.058	0.070
-585.879	-200.000	-0.003	0.070
-584.865	-25.273	-0.317	0.188
-583.850	-200.000	-0.010	0.089
-582.836	463.976	0.145	-0.326
-581.821	159.654	-0.040	0.055
-580.806	-95.914	-0.130	-0.035
-579.792	216.018	-0.161	0.258
-578.777	-169.634	-0.283	0.010
-577.763	7.085	0.023	-0.017
-576.748	-200.000	-0.028	-0.157
-575.733	15.672	-0.036	-0.029
-574.719	138.948	-0.093	0.123
-573.704	-200.000	0.036	-0.433
-572.690	-35.183	-0.222	-0.121
-571.675	-114.691	0.138	0.026
-570.661	-60.808	0.548	-0.233
-569.646	-63.483	0.356	-0.147
-568.631	-200.000	0.011	0.057
-567.617	-71.371	-0.300	0.113
-566.602	-111.036	0.221	-0.046
-565.588	-200.000	0.053	-0.311
-564.573	-75.352	-0.323	0.116
-563.558	-76.830	0.267	0.094
-562.544	-60.202	-0.197	-0.084
-561.529	748.909	0.070	-0.190
-560.515	-200.000	-0.019	-0.211
-559.500	115.742	-0.186	-0.229
-558.485	-142.298	0.023	0.002
-557.471	113.938	0.073	-0.089
-556.456	82.200	0.154	-0.168
-555.442	259.620	-0.227	0.394
-554.427	-81.545	-0.231	0.076
-553.412	53.798	0.164	-0.158
-552.398	24.576	0.126	0.105
-551.383	-200.000	-0.004	0.090
-550.369	335.447	-0.070	0.136
-549.354	-200.000	0.016	0.104
-548.339	533.814	-0.076	0.180
-547.325	333.316	-0.080	0.155
-546.310	-39.726	-0.140	-0.074
-545.296	185.504	-0.131	0.195
-544.281	-95.272	0.380	-0.103
-543.266	-80.459	-0.182	-0.061
-542.252	0.708	-0.219	-0.158
-541.237	-102.593	-0.139	-0.033
-540.223	-200.000	0.023	0.101
-539.208	115.178	0.147	-0.181
-538.193	800.000	0.077	0.229
-537.179	-84.438	-0.144	0.046
-536.164	-54.011	-0.256	-0.117
-535.150	49.718	-0.251	-0.237
-534.135	-120.019	0.185	0.032
-533.121	-29.293	-0.138	0.079
-532.106	-63.748	-0.198	-0.081
-531.091	50.026	0.251	-0.238
-530.077	9.365	-0.046	-0.035
-529.062	-135.929	-0.158	0.019
-528.048	52.471	-0.106	-0.102
-527.033	128.067	-0.212	-0.270
-526.018	297.402	0.060	0.110
-525.004	800.000	-0.021	0.057
-523.989	-88.759	-0.347	-0.104
-522.975	-19.686	0.153	0.095
-521.960	778.887	0.057	-0.155
-520.945	78.359	0.087	0.093
-519.931	-200.000	-0.095	0.422
-518.916	800.000	-0.142	0.412
-517.902	-95.992	-0.404	0.108
-516.887	-141.888	0.465	0.047
-515.872	-39.398	-0.084	0.044
-514.858	238.787	0.018	-0.030
-513.843	-143.972	-0.166	0.016
-512.829	70.468	0.080	0.083
-511.814	539.209	0.134	0.320
-510.799	-152.395	-0.519	-0.037
-509.785	709.750	-0.042	0.112
-508.770	43.186	0.086	-0.079
-507.756	295.667	0.083	0.153
-506.741	-126.284	0.135	-0.020
-505.726	-200.000	0.003	-0.434
-504.712	-115.828	0.203	0.038
-503.697	109.887	-0.128	0.154
-502.683	800.000	0.031	0.130
-501.668	320.686	-0.095	-0.180
-500.653	-32.568	-0.072	-0.040
-499.639	-112.302	-0.168	-0.034
-498.624	207.462	-0.107	-0.167
-497.610	-144.647	0.157	-0.014
-496.595	-200.000	-0.037	-0.396
-495.581	800.000	0.149	0.501
-494.566	-47.357	-0.399	-0.195
-493.551	38.521	0.202	-0.181
-492.537	-146.845	0.234	-0.020
-491.522	-78.145	-0.285	-0.098
-490.508	-76.953	0.395	0.138
-489.493	-49.492	0.186	-0.089
-488.478	-200.000	-0.008	-0.195
-487.464	-14.722	-0.296	-0.190
-486.449	800.000	-0.161	-0.453
-485.435	-39.037	0.212	-0.112
-484.420	800.000	-0.092	-0.376
-483.405	185.701	-0.010	0.014
-482.391	-2.262	-0.130	0.091
-481.376	174.332	-0.133	0.192
-480.362	-200.000	-0.011	-0.181
-479.347	-200.000	-0.058	-0.298
-478.332	497.634	-0.036	-0.082
-477.318	-77.706	-0.141	0.049
-476.303	121.337	-0.110	-0.138
-475.289	-36.127	0.134	0.072
-474.274	-200.000	0.013	0.188
-473.259	348.828	-0.079	-0.156
-472.245	-169.153	-0.292	-0.011
-471.230	3.186	0.186	-0.135
-470.216	-200.000	-0.021	-0.212
-469.201	-89.877	0.210	-0.062
-468.186	299.409	0.140	-0.258
-467.172	-200.000	0.001	-0.160
-466.157	-200.000	-0.035	-0.233
-465.143	-84.001	0.288	-0.091
-464.128	800.000	-0.028	0.079
-463.113	127.477	0.096	-0.122
-462.099	-19.010	0.102	-0.063
-461.084	-115.708	-0.090	-0.017
-460.070	284.323	0.145	0.261
-459.055	800.000	-0.042	-0.166
-458.040	443.241	-0.130	-0.284
-457.026	-5.258	0.079	-0.054
-456.011	183.599	-0.044	0.065
-454.997	800.000	-0.064	-0.201
-453.982	155.696	0.060	0.082
-452.968	-60.756	0.491	0.208
-451.953	107.924	0.173	0.206
-450.938	-107.950	-0.353	-0.077
-449.924	-19.919	-0.227	-0.140
-448.909	92.087	-0.063	0.071
-447.895	-200.000	-0.057	-0.432
-446.880	-15.178	0.123	0.079
-445.865	360.820	-0.048	-0.095
-444.851	-200.000	-0.006	0.213
-443.836	214.152	0.102	0.161
-442.822	-200.000	-0.235	-0.001
-441.807	34.241	-0.141	0.123
-440.792	24.086	0.070	-0.058
-439.778	778.643	-0.032	0.087
-438.763	-60.003	0.245	0.104
-437.749	-39.700	-0.172	0.090
-436.734	-200.000	0.022	-0.162
-435.719	-199.246	-0.083	-0.000
-434.705	648.174	0.091	-0.232
-433.690	800.000	0.072	-0.213
-432.676	158.695	0.226	-0.314
-431.661	363.967	-0.126	-0.253
-430.646	470.644	0.098	-0.221
-429.632	486.381	0.098	0.223
-428.617	-126.202	-0.159	-0.024
-427.603	-98.169	0.237	-0.061
-426.588	-85.097	-0.130	0.041
-425.573	99.141	-0.170	0.196
-424.559	800.000	-0.012	0.037
-423.544	261.736	0.170	0.294
-422.530	-114.298	-0.254	0.049
-421.515	-44.930	-0.137	0.068
-420.500	-138.857	0.324	0.035
-419.486	750.765	0.063	0.171
-418.471	-11.265	-0.150	-0.099
-417.457	-200.000	0.041	0.246
-416.442	800.000	0.043	0.120
-415.428	-200.000	0.007	0.237
-414.413	-200.000	-0.031	0.407
-413.398	-200.000	-0.009	-0.219
-412.384	626.674	-0.063	-0.159
-411.369	292.183	0.146	-0.265
-410.355	-122.750	0.107	-0.017
-409.340	-9.133	-0.083	0.055
-408.325	-120.465	-0.224	-0.038
-407.311	527.604	0.112	-0.264
-406.296	-200.000	0.062	-0.482
-405.282	-24.096	0.291	-0.174
-404.267	-200.000	-0.007	-0.240
-403.252	-8.782	-0.371	-0.248
-402.238	800.000	-0.070	-0.246
-401.223	-200.000	-0.032	0.232
-400.209	-23.513	-0.211	-0.127
-399.194	192.523	0.252	0.379
-398.179	60.807	-0.216	0.214
-397.165	106.705	0.113	-0.133
-396.150	186.147	0.161	-0.239
-395.136	-136.393	-0.031	-0.004
-394.121	-200.000	-0.013	0.228
-393.106	47.745	-0.111	0.104
-392.092	-131.130	0.108	-0.014
-391.077	289.141	-0.023	-0.042
-390.063	-42.743	-0.172	-0.087
-389.048	800.000	0.091	-0.388
-388.033	-200.000	0.023	-0.286
-387.019	466.749	0.118	-0.263
-386.004	-200.000	-0.020	0.116
-384.990	197.978	0.033	-0.050
-383.975	-96.363	-0.335	-0.089
-382.960	800.000	-0.048	0.152
-381.946	-112.586	0.186	-0.037
-380.931	-200.000	-0.006	-0.118
-379.917	800.000	-0.075	0.222
-378.902	-171.993	0.243	0.008
-377.888	73.778	0.232	0.242
-376.873	42.562	-0.177	0.161
-375.858	16.833	-0.095	0.075
-374.844	505.594	0.097	-0.224
-373.829	800.000	-0.020	0.064
-372.815	65.248	-0.195	0.196
-371.800	15.311	-0.157	0.123
-370.785	123.749	-0.215	-0.269
-369.771	-96.146	-0.151	-0.040
-368.756	786.371	0.072	-0.196
-367.742	-11.296	-0.148	-0.097
-366.727	-6.718	0.203	-0.138
-365.712	-200.000	-0.008	-0.306
-364.698	-76.412	0.180	0.063
-363.683	-101.211	0.436	0.106
-362.669	-200.000	-0.007	-0.100
-361.654	800.000	0.130	0.384
-360.639	-200.000	0.026	0.140
-359.625	351.152	0.140	0.276
-358.610	-80.687	0.138	-0.046
-357.596	113.856	-0.084	0.102
-356.581	231.329	-0.210	0.343
-355.566	71.123	-0.093	0.097
-354.552	577.733	0.081	0.198
-353.537	-195.701	-0.194	-0.001
-352.523	75.104	-0.120	0.126
-351.508	-187.179	0.290	0.004
-350.493	-108.806	-0.395	-0.084
-349.479	-200.000	-0.032	-0.241
-348.464	380.724	-0.186	0.379
-347.450	-42.769	0.256	-0.129
-346.435	-92.176	-0.072	-0.020
-345.420	203.694	-0.238	-0.366
-344.406	-200.000	0.011	0.307
-343.391	-200.000	-0.019	0.086
-342.377	-115.688	0.052	-0.010
-341.362	-83.894	0.342	-0.108
-340.348	102.436	0.063	0.073
-339.333	-56.385	0.008	0.003
-338.318	278.915	0.100	0.178
-337.304	-200.000	0.008	-0.103
-336.289	-177.562	0.159	-0.004
-335.275	-200.000	-0.021	0.308
-334.260	13.366	-0.374	-0.289
-333.245	-83.896	0.212	0.067
-332.231	683.613	0.122	0.316
-331.216	245.510	0.028	-0.047
-330.202	800.000	0.094	0.298
-329.187	-104.465	0.318	-0.073
-328.172	6.206	-0.157	0.116
-327.158	11.821	-0.178	0.136
-326.143	-123.692	0.244	0.038
-325.129	31.031	0.186	-0.158
-324.114	-16.647	0.253	0.159
-323.099	430.337	0.053	-0.113
-322.085	109.139	-0.073	-0.087
-321.070	800.000	0.021	0.065
-320.056	-200.000	-0.036	-0.232
-319.041	800.000	0.109	-0.413
-318.026	371.355	-0.161	-0.326
-317.012	-66.305	0.360	-0.142
-315.997	-129.592	0.013	0.002
-314.983	800.000	-0.015	-0.060
-313.968	-12.383	0.065	-0.042
-312.953	7.878	0.064	0.048
-311.939	-21.825	0.224	0.135
-310.924	-200.000	0.016	0.176
-309.910	-200.000	0.009	0.235
-308.895	-115.531	-0.293	0.055
-307.880	-70.676	0.161	0.060
-306.866	-36.012	0.049	-0.026
-305.851	115.961	0.062	0.075
-304.837	-200.000	0.021	0.118
-303.822	168.063	0.285	0.403
-302.807	-81.931	-0.367	-0.119
-301.793	-159.044	0.290	0.016
-300.778	-200.000	0.035	0.361
-299.764	-103.973	0.197	-0.046
-298.749	-200.000	-0.019	-0.287
-297.735	-27.722	0.176	0.101
-296.720	-200.000	-0.069	0.349
-295.705	-62.117	0.083	0.034
-294.691	293.853	-0.067	-0.121
-293.676	-60.393	-0.201	-0.085
-292.662	-95.248	0.224	-0.060
-291.647	-128.434	0.330	0.047
-290.632	-200.000	0.027	-0.444
-289.618	27.396	-0.157	0.131
-288.603	-200.000	0.052	0.294
-287.589	-117.375	-0.214	0.038
-286.574	-200.000	0.038	-0.251
-285.559	-147.289	0.206	-0.017
-284.545	-60.307	-0.157	0.066
-283.530	92.485	-0.052	0.059
-282.516	187.407	-0.069	-0.103
-281.501	-136.502	0.288	-0.033
-280.486	-50.123	-0.097	0.046
-279.472	87.187	-0.070	0.077
-278.457	800.000	0.058	0.227
-277.443	-9.422	-0.284	0.189
-276.428	-123.081	-0.364	-0.058
-275.413	-200.000	0.000	0.012
-274.399	-1.966	0.076	0.053
-273.384	82.511	0.225	0.243
-272.370	-200.000	-0.015	0.396
-271.355	800.000	0.013	0.046
-270.340	-22.381	0.354	0.213
-269.326	-5.790	0.172	0.117
-268.311	248.176	0.098	-0.164
-267.297	-39.963	-0.159	0.082
-266.282	-136.128	-0.093	0.011
-265.267	-63.398	0.360	-0.147
-264.253	-200.000	0.029	-0.240
-263.238	411.393	0.086	-0.182
-262.224	98.094	-0.214	0.245
-261.209	800.000	0.057	0.157
-260.195	-200.000	0.000	0.332
-259.180	50.396	-0.009	0.008
-258.165	-200.000	0.017	0.186
-257.151	-114.654	0.093	-0.018
-256.136	152.570	-0.152	0.206
-255.122	158.262	0.073	0.100
-254.107	-38.157	-0.136	0.072
-253.092	800.000	0.039	-0.137
-252.078	-100.538	-0.089	-0.022
-251.063	-106.299	-0.525	0.117
-250.049	-130.392	0.407	0.055
-249.034	771.252	0.045	0.121
-248.019	-198.008	-0.090	0.001
-247.005	-200.000	-0.330	0.000
-245.990	504.828	-0.060	-0.137
-244.976	91.399	-0.108	-0.121
-243.961	-10.560	0.204	-0.134
-242.946	477.087	0.010	-0.022
-241.932	-77.291	0.399	0.138
-240.917	800.000	0.127	0.437
-239.903	-38.328	0.192	0.101
-238.888	800.000	0.006	0.017
-237.873	-67.103	-0.065	0.025
-236.859	-135.021	0.181	-0.022
-235.844	-200.000	-0.010	0.182
-234.830	-200.000	-0.006	0.264
-233.815	646.023	-0.164	0.415
-232.800	-137.779	0.250	0.028
-231.786	800.000	0.023	0.063
-230.771	-13.590	-0.234	0.150
-229.757	262.919	0.098	-0.168
-228.742	-89.838	0.205	0.060
-227.727	97.671	0.106	0.121
-226.713	-85.953	-0.095	0.029
-225.698	33.608	-0.100	0.086
-224.684	800.000	-0.011	0.040
-223.669	-200.000	-0.028	-0.333
-222.655	-200.000	-0.023	-0.321
-221.640	800.000	0.112	-0.461
-220.625	148.207	0.190	0.255
-219.611	60.185	0.262	0.256
-218.596	800.000	0.056	0.189
-217.582	-133.348	0.229	-0.029
-216.567	800.000	-0.073	-0.232
-215.552	-84.408	-0.230	-0.072
-214.538	-200.000	0.007	-0.122
-213.523	800.000	-0.025	0.087
-212.509	543.060	0.135	-0.320
-211.494	611.121	-0.121	0.300
-210.479	-81.333	0.180	-0.059
-209.465	90.899	-0.087	0.096
-208.450	800.000	0.072	-0.218
-207.436	134.209	0.179	0.229
-206.421	-12.955	0.105	-0.067
-205.406	-22.164	-0.269	0.162
-204.392	32.139	-0.213	-0.182
-203.377	-46.414	-0.055	-0.027
-202.363	-43.837	-0.261	0.130
-201.348	85.012	0.197	0.214
-200.333	243.048	-0.149	0.246
-199.319	-101.463	0.198	0.048
-198.304	-22.859	-0.218	-0.130
-197.290	-109.852	-0.260	-0.054
-196.275	-110.635	0.423	0.087
-195.260	-21.125	0.090	-0.054
-194.246	-24.249	-0.183	-0.108
-193.231	192.710	-0.141	0.211
-192.217	-200.000	-0.066	0.503
-191.202	800.000	0.108	-0.327
-190.187	-200.000	0.002	0.158
-189.173	-0.093	0.147	0.104
-188.158	-83.900	-0.294	0.093
-187.144	-42.564	-0.113	0.057
-186.129	69.202	0.122	0.125
-185.114	-132.523	-0.037	-0.005
-184.100	229.767	-0.033	0.054
-183.085	-146.667	-0.195	0.017
-182.071	148.737	0.116	-0.155
-181.056	64.868	0.079	-0.079
-180.042	-200.000	0.022	-0.190
-179.027	-200.000	-0.017	-0.094
-178.012	-200.000	0.005	0.148
-176.998	1.446	-0.042	-0.030
-175.983	-200.000	0.047	0.307
-174.969	251.423	0.057	-0.096
-173.954	4.201	0.077	0.056
-172.939	112.590	0.127	0.152
-171.925	115.706	0.174	0.210
-170.910	-105.584	0.361	-0.081
-169.896	140.940	-0.248	-0.325
-168.881	611.845	0.084	0.209
-167.866	-200.000	-0.007	0.163
-166.852	-69.015	0.101	0.039
-165.837	-151.350	-0.111	0.008
-164.823	-53.959	0.122	0.055
-163.808	800.000	-0.021	0.076
-162.793	-63.255	-0.057	0.023
-161.779	-200.000	-0.037	0.216
-160.764	217.679	0.134	0.212
-159.750	-27.393	0.254	-0.146
-158.735	54.966	0.228	-0.218
-157.720	-98.531	-0.387	-0.098
-156.706	-200.000	-0.007	-0.080
-155.691	598.439	-0.095	0.233
-154.677	72.317	0.345	-0.355
-153.662	26.991	-0.176	-0.146
-152.647	-28.518	-0.056	-0.032
-151.633	-52.824	0.184	-0.084
-150.618	-70.586	0.130	0.049
-149.604	267.897	-0.095	-0.165
-148.589	-136.539	-0.216	-0.025
-147.574	371.084	0.184	0.368
-146.560	-200.000	0.071	-0.350
-145.545	-200.000	-0.014	0.091
-144.531	-200.000	0.036	-0.190
-143.516	631.096	0.096	-0.239
-142.502	20.726	-0.203	-0.162
-141.487	-118.019	-0.347	-0.061
-140.472	176.742	0.129	0.185
-139.458	9.583	-0.173	-0.129
-138.443	80.812	0.138	0.147
-137.429	375.102	0.139	0.280
-136.414	-89.047	0.052	-0.015
-135.399	71.755	-0.086	0.088
-134.385	159.673	-0.174	0.240
-133.370	335.944	-0.232	-0.444
-132.356	800.000	0.038	-0.122
-131.341	12.653	-0.170	0.129
-130.326	61.356	-0.349	0.342
-129.312	-31.307	0.042	0.023
-128.297	-130.212	0.304	-0.041
-127.283	3.782	-0.124	-0.089
-126.268	201.425	-0.041	0.063
-125.253	-1.504	0.208	-0.145
-124.239	-200.000	-0.018	0.138
-123.224	-165.334	-0.380	0.016
-122.210	800.000	0.134	0.380
-121.195	2.359	0.203	-0.145
-120.180	37.188	0.163	0.143
-119.166	800.000	-0.084	0.297
-118.151	-0.351	0.070	-0.049
-117.137	8.198	-0.219	0.162
-116.122	800.000	-0.057	0.162
-115.107	-87.768	-0.330	-0.098
-114.093	-35.803	0.330	0.176
-113.078	-106.977	0.178	0.039
-112.064	-200.000	0.008	0.290
-111.049	800.000	-0.117	0.384
-110.034	216.592	0.211	0.332
-109.020	-125.985	0.106	0.016
-108.005	-110.299	-0.112	-0.023
-106.991	800.000	0.071	-0.232
-105.976	-200.000	0.010	-0.118
-104.962	-114.036	-0.397	-0.076
-103.947	283.916	0.041	-0.073
-102.932	143.976	0.098	0.129
-101.918	126.044	0.044	-0.055
-100.903	800.000	-0.109	0.298
-99.889	53.829	0.227	0.215
-98.874	800.000	0.007	0.029
-97.859	-127.851	0.291	-0.041
-96.845	800.000	-0.047	-0.137
-95.830	244.197	0.112	0.186
-94.816	-200.000	0.015	0.094
-93.801	-194.918	0.168	0.001
-92.786	142.071	-0.153	-0.200
-91.772	-64.242	0.065	0.026
-90.757	319.587	-0.133	-0.249
-89.743	464.009	0.044	-0.097
-88.728	-107.694	0.447	0.096
-87.713	-129.781	-0.152	0.021
-86.699	379.634	0.129	0.262
-85.684	-149.940	-0.134	-0.010
-84.670	-56.720	-0.176	-0.077
-83.655	281.161	0.155	0.273
-82.640	-111.376	0.250	-0.050
-81.626	-200.000	-0.015	0.252
-80.611	-200.000	0.003	0.017
-79.597	-15.415	-0.315	0.198
-78.582	-59.812	0.349	0.147
-77.567	373.762	-0.080	0.160
-76.553	357.046	-0.076	0.149
-75.538	-200.000	-0.021	0.104
-74.524	-153.056	0.118	-0.008
-73.509	-200.000	-0.007	0.098
-72.494	-2.650	-0.234	-0.162
-71.480	280.440	-0.036	-0.064
-70.465	-13.110	0.218	-0.139
-69.451	377.229	0.062	-0.124
-68.436	210.221	-0.163	-0.251
-67.422	-43.365	0.120	-0.060
-66.407	259.387	-0.114	0.193
-65.392	40.923	-0.344	0.306
-64.378	800.000	0.109	-0.447
-63.363	-3.884	-0.077	0.052
-62.349	-63.578	0.125	-0.051
-61.334	48.660	-1.024	-0.945
-60.319	800.000	0.219	0.622
-59.305	273.669	-0.390	-0.679
-58.290	618.807	0.421	1.042
-57.276	662.474	0.687	1.745
-56.261	-200.000	95.809	594.705
-55.246	666.176	1367.897	3479.434
-54.232	200.272	2540.608	3842.321
-53.217	120.747	2158.483	2641.707
-52.203	43.029	1705.252	1531.173
-51.188	35.356	1518.655	1311.374
-50.173	32.866	1492.211	1271.734
-49.159	52.314	1540.403	1446.316
-48.144	54.183	1558.160	1475.721
-47.130	35.589	1517.559	1311.812
-46.115	32.388	1503.526	1277.929
-45.100	32.146	1500.597	1273.742
-44.086	32.196	1498.286	1272.074
-43.071	32.103	1496.521	1269.892
-42.057	32.093	1494.964	1268.453
-41.042	32.187	1493.022	1267.388
-40.027	32.111	1491.786	1265.778
-39.013	32.078	1490.598	1264.498
-37.998	32.124	1489.091	1263.476
-36.984	32.035	1488.651	1262.459
-35.969	32.157	1486.551	1261.448
-34.954	32.138	1485.146	1260.076
-33.940	32.031	1484.147	1258.463
-32.925	32.112	1482.507	1257.566
-31.911	32.171	1480.962	1256.596
-30.896	32.239	1479.293	1255.587
-29.881	32.314	1477.978	1254.920
-28.867	32.175	1476.749	1252.901
-27.852	32.080	1476.139	1251.700
-26.838	32.130	1474.293	1250.420
-25.823	32.207	1472.795	1249.607
-24.809	32.270	1470.404	1247.951
-23.794	32.130	1469.292	1246.026
-22.779	32.144	1468.746	1245.606
-21.765	32.290	1466.501	1244.620
-20.750	32.242	1466.160	1243.968
-19.736	32.095	1464.817	1241.804
-18.721	32.104	1463.910	1241.047
-17.706	32.066	1463.081	1240.038
-16.692	32.102	1461.542	1238.922
-15.677	32.081	1461.042	1238.313
-14.663	32.178	1459.721	1237.787
-13.648	32.118	1458.810	1236.568
-12.633	32.016	1458.007	1235.165
-11.619	32.080	1457.111	1234.777
-10.604	32.097	1456.506	1234.333
-9.590	32.190	1454.802	1233.449
-8.575	32.103	1454.694	1232.732
-7.560	32.083	1453.631	1231.652
-6.546	32.043	1452.860	1230.689
-5.531	32.072	1451.630	1229.790
-4.517	32.074	1450.591	1228.875
-3.502	31.989	1449.910	1227.690
-2.487	32.079	1448.516	1227.053
-1.473	32.014	1447.551	1225.761
-0.458	32.168	1446.011	1225.414
0.556	30.935	1436.740	1214.146
1.571	27.981	1411.269	1173.581
2.586	24.625	1351.603	1103.185
3.600	22.989	1270.169	1027.128
4.615	21.603	1224.263	982.144
5.629	18.761	1167.866	921.589
6.644	11.169	1084.862	818.028
7.659	5.379	1045.221	759.988
8.673	4.648	1040.050	752.622
9.688	4.601	1037.380	750.396
10.702	4.593	1035.555	748.976
11.717	4.458	1033.954	747.102
12.731	6.654	1035.340	758.603
13.746	13.570	1045.266	799.276
14.761	18.582	1051.458	828.204
15.775	18.552	1049.845	826.714
16.790	17.563	1047.886	820.337
17.804	16.405	1045.565	812.881
18.819	15.476	1043.755	806.939
19.834	15.129	1042.638	804.340
20.848	14.841	1041.391	801.922
21.863	14.598	1040.740	800.186
22.877	14.432	1039.579	798.429
23.892	14.210	1039.019	796.865
24.907	14.156	1038.481	796.123
25.921	14.066	1037.910	795.183
26.936	14.158	1037.096	794.929
27.950	14.070	1036.151	793.717
28.965	14.141	1035.220	793.271
29.980	14.274	1034.035	792.925
30.994	14.452	1032.707	792.682
32.009	14.478	1031.824	792.058
33.023	14.446	1031.177	791.340
34.038	14.431	1030.312	790.535
35.053	14.287	1029.768	789.368
36.067	14.338	1028.376	788.469
37.082	14.191	1027.765	787.235
38.096	14.195	1027.051	786.638
39.111	14.317	1026.483	786.711
40.126	14.491	1025.046	786.362
41.140	14.227	1024.201	784.397
42.155	14.161	1022.837	782.972
43.169	13.979	1022.508	781.796
44.184	14.126	1020.726	781.054
45.199	14.110	1019.546	780.009
46.213	13.943	1018.959	778.707
47.228	14.042	1017.870	778.270
48.242	14.224	1016.424	777.946
49.257	14.227	1016.364	777.847
50.271	14.196	1015.311	776.827
51.286	14.259	1014.053	776.087
52.301	14.346	1013.313	775.856
53.315	14.360	1012.571	775.287
54.330	14.185	1011.910	773.896
55.344	14.209	1011.012	773.255
56.359	14.137	1010.079	772.137
57.374	14.101	1009.131	771.181
58.388	14.145	1008.409	770.762
59.403	14.008	1007.853	769.636
60.417	13.961	1007.043	768.730
61.432	14.033	1006.020	768.215
62.447	13.883	1005.785	767.275
63.461	13.932	1004.614	766.537
64.476	14.023	1003.693	766.190
65.490	13.990	1002.541	765.090
66.505	14.040	1001.684	764.595
67.520	13.962	1001.385	763.944
68.534	14.014	1000.517	763.450
69.549	13.916	999.894	762.458
70.563	13.949	998.860	761.754
71.578	13.878	998.473	761.068
72.593	13.967	997.145	760.392
73.607	13.775	996.410	758.887
74.622	13.751	995.726	758.190
75.636	13.929	994.534	758.028
76.651	13.886	993.841	757.236
77.666	13.897	993.459	756.928
78.680	13.876	992.603	756.115
79.695	13.887	991.631	755.354
80.709	13.920	991.537	755.369
81.724	13.942	990.844	754.874
82.739	13.953	990.391	754.510
83.753	14.163	989.080	754.396
84.768	14.163	988.611	753.972
85.782	14.284	987.795	753.831
86.797	14.368	987.344	753.801
87.812	14.380	986.526	753.163
88.826	14.216	985.455	751.539
89.841	14.201	984.616	750.765
90.855	14.184	984.011	750.159
91.870	14.303	983.188	750.002
92.884	14.360	982.437	749.619
93.899	14.275	982.057	748.881
94.914	14.431	980.904	748.636
95.928	14.427	980.438	748.200
96.943	14.375	979.918	747.503
97.957	14.392	978.669	746.561
98.972	14.337	977.927	745.679
99.987	14.432	977.062	745.379
101.001	14.398	976.682	744.874
102.016	14.339	975.843	743.902
103.030	14.330	974.756	742.967
104.045	14.350	973.767	742.237
105.060	14.415	972.317	741.358
106.074	14.230	971.810	740.083
107.089	14.174	971.212	739.314
108.103	14.117	969.940	738.025
109.118	14.011	969.255	736.968
110.133	13.905	968.505	735.862
111.147	14.037	967.475	735.598
112.162	13.909	966.563	734.275
113.176	13.980	966.150	734.210
114.191	14.050	965.236	733.761
115.206	14.208	963.686	733.212
116.220	14.091	963.386	732.405
117.235	14.158	962.934	732.292
118.249	14.097	961.617	730.956
119.264	14.076	960.967	730.305
120.279	13.974	960.047	729.096
121.293	14.138	959.551	729.374
122.308	13.881	958.537	727.413
123.322	13.997	957.511	727.076
124.337	13.883	956.810	725.982
125.352	13.924	955.501	725.101
126.366	13.926	954.175	724.039
127.381	13.869	953.512	723.223
128.395	13.921	952.448	722.582
129.410	13.986	951.552	722.121
130.424	13.988	950.487	721.258
131.439	14.079	949.839	721.096
132.454	14.067	948.874	720.249
133.468	14.096	948.284	719.862
134.483	14.130	947.601	719.424
135.497	14.124	947.272	719.086
136.512	14.212	946.437	718.771
137.527	14.171	945.478	717.799
138.541	14.075	945.114	717.048
139.556	14.245	944.242	717.052
140.570	14.182	943.596	716.228
141.585	14.131	943.211	715.652
142.600	14.360	942.043	715.688
143.614	14.344	941.047	714.799
144.629	14.350	940.622	714.437
145.643	14.434	939.779	714.093
146.658	14.325	939.173	713.106
147.673	14.368	937.599	712.031
148.687	14.152	937.213	710.753
149.702	14.359	935.860	710.547
150.716	14.219	934.942	709.190
151.731	14.159	934.056	708.200
152.746	14.048	933.689	707.386
153.760	13.999	933.095	706.663
154.775	14.264	932.018	706.913
155.789	14.314	931.659	706.791
156.804	14.389	930.821	706.411
157.819	14.377	930.107	705.756
158.833	14.420	929.336	705.290
159.848	14.395	928.780	704.697
160.862	14.573	927.656	704.534
161.877	14.450	927.650	703.947
162.892	14.332	926.229	702.312
163.906	14.319	925.357	701.535
164.921	14.357	924.487	700.971
165.935	14.435	923.511	700.497
166.950	14.245	923.069	699.299
167.964	14.378	922.004	698.993
168.979	14.375	921.423	698.477
169.994	14.253	920.254	697.017
171.008	14.169	919.239	695.834
172.023	14.355	918.663	696.115
173.037	14.385	917.948	695.637
174.052	14.450	917.390	695.423
175.067	14.462	916.640	694.845
176.081	14.553	915.532	694.320
177.096	14.405	914.591	692.929
178.110	14.196	914.338	691.809
179.125	14.406	913.516	691.999
180.140	14.455	912.491	691.365
181.154	14.357	911.962	690.494
182.169	14.397	911.616	690.338
183.183	14.492	911.228	690.376
184.198	14.710	909.836	690.164
185.213	14.650	909.236	689.399
186.227	14.654	908.966	689.147
187.242	14.694	908.591	688.966
188.256	14.685	907.951	688.386
189.271	14.713	907.029	687.740
190.286	14.792	906.301	687.453
191.300	14.685	905.329	686.215
192.315	14.518	904.587	684.904
193.329	14.182	904.162	683.143
194.344	14.314	902.934	682.695
195.359	14.440	902.590	682.891
196.373	14.439	902.351	682.648
197.388	14.659	901.558	682.889
198.402	14.821	901.369	683.346
199.417	14.864	900.936	683.134
200.432	15.009	900.210	683.114
201.446	14.949	900.156	682.767
202.461	15.025	899.662	682.645
203.475	15.081	899.269	682.510
204.490	15.088	898.068	681.570
205.504	14.900	897.627	680.407
206.519	14.863	897.083	679.786
207.534	14.891	895.680	678.774
208.548	14.928	895.013	678.360
209.563	14.850	895.032	677.998
210.577	14.925	894.168	677.587
211.592	14.868	893.334	676.667
212.607	15.033	892.893	676.939
213.621	15.110	892.589	676.959
214.636	15.065	891.715	676.054
215.650	14.998	890.838	675.060
216.665	15.073	890.387	674.961
217.680	15.156	889.738	674.743
218.694	14.996	889.881	674.149
219.709	15.202	888.946	674.210
220.723	15.043	888.474	673.154
221.738	15.319	887.157	673.204
222.753	15.159	886.785	672.220
223.767	15.242	885.927	671.841
224.782	15.180	885.203	670.986
225.796	15.299	884.692	671.015
226.811	15.352	884.155	670.761
227.826	15.343	883.140	669.893
228.840	15.163	882.783	668.846
229.855	15.237	881.743	668.295
230.869	15.186	881.277	667.677
231.884	15.074	880.775	666.793
232.899	15.298	879.523	666.677
233.913	15.137	879.317	665.822
234.928	15.067	878.906	665.174
235.942	15.192	877.620	664.637
236.957	14.916	877.161	663.137
237.972	15.024	876.784	663.222
238.986	15.010	876.374	662.795
240.001	15.237	875.223	662.766
241.015	15.200	874.704	662.167
242.030	15.062	874.280	661.243
243.045	15.223	873.497	661.226
244.059	15.323	873.001	661.188
245.074	15.296	872.113	660.350
246.088	15.214	871.664	659.629
247.103	15.277	871.210	659.475
248.117	15.496	870.269	659.564
249.132	15.557	869.909	659.473
250.147	15.591	869.450	659.198
251.161	15.676	868.773	658.960
252.176	15.594	868.732	658.552
253.190	15.804	867.540	658.411
254.205	15.754	866.942	657.701
255.220	15.881	866.426	657.748
256.234	15.834	865.820	657.049
257.249	15.894	865.066	656.652
258.263	15.753	864.679	655.750
259.278	15.748	864.396	655.457
260.293	15.787	863.824	655.117
261.307	15.811	863.170	654.657
262.322	16.024	862.306	654.771
263.336	16.158	861.593	654.693
264.351	15.914	861.346	653.500
265.366	16.049	860.616	653.411
266.380	16.018	860.040	652.795
267.395	16.056	859.369	652.376
268.409	15.885	858.730	651.174
269.424	15.972	857.879	650.805
270.439	15.927	857.464	650.261
271.453	15.956	856.686	649.722
272.468	15.905	855.534	648.595
273.482	15.863	855.218	648.138
274.497	15.823	854.847	647.644
275.512	15.937	853.968	647.362
276.526	15.951	852.985	646.613
277.541	15.845	852.682	645.916
278.555	15.978	852.171	645.984
279.570	15.996	851.703	645.641
280.585	16.122	851.048	645.570
281.599	16.086	850.398	644.880
282.614	16.045	850.038	644.394
283.628	16.116	848.827	643.689
284.643	16.085	848.642	643.376
285.657	16.000	848.336	642.763
286.672	15.919	847.993	642.137
287.687	15.940	847.477	641.769
288.701	16.081	846.462	641.481
289.716	16.183	845.626	641.178
290.730	16.091	845.380	640.584
291.745	16.164	845.206	640.675
292.760	16.156	844.064	639.720
293.774	16.410	843.195	639.966
294.789	16.359	843.181	639.707
295.803	16.230	842.599	638.719
296.818	16.168	842.031	638.001
297.833	16.278	841.279	637.789
298.847	16.313	840.296	637.118
299.862	16.363	839.778	636.858
300.876	16.296	839.141	636.066
301.891	16.445	838.088	635.774
302.906	16.301	838.569	635.538
303.920	16.453	837.382	635.157
304.935	16.457	836.847	634.708
305.949	16.534	836.450	634.639
306.964	16.607	835.732	634.314
307.979	16.613	834.653	633.461
308.993	16.629	834.264	633.168
310.008	16.585	833.874	632.651
311.022	16.487	833.646	632.056
312.037	16.619	832.919	631.942
313.052	16.619	832.458	631.538
314.066	16.512	831.655	630.473
315.081	16.437	831.302	629.872
316.095	16.389	830.608	629.109
317.110	16.477	830.086	628.984
318.125	16.487	829.675	628.656
319.139	16.545	829.016	628.316
320.154	16.382	828.747	627.450
321.168	16.355	828.190	626.873
322.183	16.460	827.510	626.694
323.197	16.561	827.141	626.732
324.212	16.508	826.786	626.213
325.227	16.629	826.018	626.023
326.241	16.626	825.525	625.581
327.256	16.645	824.306	624.672
328.270	16.705	824.173	624.739
329.285	16.542	823.875	623.858
330.300	16.573	823.251	623.442
331.314	16.443	822.619	622.432
332.329	16.734	821.904	622.906
333.343	16.656	821.337	622.134
334.358	16.581	820.988	621.539
335.373	16.769	820.303	621.653
336.387	16.797	819.949	621.433
337.402	16.784	819.421	620.931
338.416	16.867	818.554	620.522
339.431	16.931	818.505	620.666
340.446	17.003	817.504	620.114
341.460	17.101	816.964	620.007
342.475	17.318	816.472	620.371
343.489	17.047	816.522	619.366
344.504	17.112	815.413	618.706
345.519	17.034	815.243	618.240
346.533	17.224	814.737	618.491
347.548	17.248	814.238	618.146
348.562	17.143	813.655	617.266
349.577	16.996	812.781	616.014
350.592	17.064	812.297	615.842
351.606	17.007	811.772	615.181
352.621	16.828	811.533	614.298
353.635	16.949	811.024	614.297
354.650	17.023	810.784	614.329
355.665	17.138	809.881	614.007
356.679	17.180	809.481	613.800
357.694	17.091	809.252	613.250
358.708	17.109	808.982	613.057
359.723	17.266	808.282	613.036
360.738	17.130	807.478	611.885
361.752	17.178	806.858	611.532
362.767	17.198	806.721	611.448
363.781	17.315	806.521	611.663
364.796	17.409	805.600	611.247
365.810	17.332	805.366	610.737
366.825	17.488	805.284	611.182
367.840	17.430	805.330	610.954
368.854	17.545	804.686	610.826
369.869	17.537	803.785	610.059
370.883	17.241	803.752	608.918
371.898	17.263	803.142	608.480
372.913	17.548	802.287	608.800
373.927	17.398	801.743	607.797
374.942	17.493	800.911	607.451
375.956	17.445	800.406	606.843
376.971	17.550	800.048	606.893
377.986	17.660	799.149	606.547
379.000	17.746	799.124	606.781
380.015	17.640	798.839	606.133
381.029	17.763	797.903	605.808
382.044	17.689	797.423	605.127
383.059	17.668	796.863	604.574
384.073	17.736	796.516	604.500
385.088	17.688	795.926	603.827
386.102	17.666	795.332	603.244
387.117	17.581	794.750	602.450
388.132	17.667	793.987	602.120
389.146	17.591	794.081	601.871
390.161	17.472	793.626	601.052
391.175	17.806	793.116	601.792
392.190	17.821	792.986	601.691
393.205	17.620	792.647	600.672
394.219	17.734	792.078	600.592
395.234	17.730	791.214	599.868
396.248	17.642	790.632	599.066
397.263	17.614	790.191	598.578
398.278	17.473	789.864	597.782
399.292	17.432	789.732	597.487
400.307	17.527	789.296	597.436
401.321	17.698	788.757	597.577
402.336	17.579	788.361	596.806
403.350	17.830	787.867	597.257
404.365	17.666	787.401	596.279
405.380	17.690	787.244	596.192
406.394	17.911	786.468	596.322
407.409	18.024	785.793	596.154
408.423	17.977	785.654	595.831
409.438	18.135	785.351	596.096
410.453	17.929	784.942	595.016
411.467	18.044	784.709	595.188
412.482	18.085	784.228	594.912
413.496	18.120	783.815	594.670
414.511	18.216	783.521	594.727
415.526	18.215	783.066	594.325
416.540	18.195	782.500	593.774
417.555	18.176	782.096	593.350
418.569	18.024	781.878	592.604
419.584	18.210	781.386	592.823
420.599	18.198	780.449	592.019
421.613	156.134	1369.113	1794.999
422.628	134.734	1454.904	1795.075
