DTS Sentinel unit serial number:	SN413079Multiplexer serial number:	ORYXHardware model number:	OX4-SRSoftware version number:	ORYX F/W v4.00 Oryx Data Collector v3.7.2.0data status	okinstallation	princeton_trtdifferential loss correction	single-endedforward channel	channel 3reverse channel	N/Adate	2019/09/15time	03:12:35forward acquisition time	60.00reverse acquisition time	0.00gamma	496.2192k internal	0.2323k external	0.2323temperature offset calibration	0.9962default loss term (dB/km)	0.3790temperature slope calibration	1.0000multiplexer offset coefficient	1.0000multiplexer slope coefficient	1.0000fibre end	0.00T internal ref (°C)	31.14T ext. ref 1 (°C)	4.58T ext. ref 2 (°C)	25.76length (m)	temperature (°C)	Stokes	anti-Stokes-747.200	-110.763	0.277	-0.058
-746.185	800.000	-0.149	0.520
-745.171	-200.000	-0.039	0.236
-744.156	-200.000	-0.009	-0.226
-743.142	2.548	0.072	0.052
-742.127	737.474	0.063	0.171
-741.112	413.092	0.069	-0.148
-740.098	318.847	0.072	0.138
-739.083	35.014	-0.170	0.150
-738.069	73.712	-0.191	0.202
-737.054	-139.268	-0.178	0.019
-736.039	645.199	-0.041	-0.107
-735.025	21.845	-0.045	-0.037
-734.010	-200.000	0.011	0.147
-732.996	800.000	-0.058	-0.223
-731.981	-10.314	-0.319	-0.213
-730.966	69.507	0.113	-0.118
-729.952	-200.000	-0.024	-0.133
-728.937	799.379	0.112	-0.311
-727.923	-171.073	-0.299	-0.010
-726.908	293.145	0.081	0.148
-725.894	64.399	0.309	0.314
-724.879	-49.837	0.140	-0.067
-723.864	153.002	0.126	0.174
-722.850	258.867	-0.071	0.124
-721.835	154.344	0.115	-0.159
-720.821	-200.000	-0.057	-0.332
-719.806	800.000	-0.045	0.164
-718.791	-24.503	-0.209	0.126
-717.777	-180.797	0.231	-0.005
-716.762	-12.872	-0.204	-0.134
-715.748	-200.000	-0.006	0.158
-714.733	800.000	0.045	-0.143
-713.718	-113.292	-0.211	0.042
-712.704	800.000	-0.026	0.101
-711.689	-18.105	-0.172	0.109
-710.675	-97.103	0.109	-0.029
-709.660	-12.967	-0.224	0.147
-708.645	72.094	0.048	-0.050
-707.631	40.528	0.125	0.114
-706.616	-23.959	-0.272	-0.164
-705.602	105.745	-0.014	0.016
-704.587	-132.274	-0.008	0.001
-703.572	-52.819	-0.252	0.117
-702.558	61.993	0.149	-0.149
-701.543	122.963	0.194	0.245
-700.529	800.000	0.092	0.298
-699.514	-24.967	-0.037	-0.022
-698.499	-195.619	0.125	0.001
-697.485	-200.000	0.017	0.250
-696.470	219.362	-0.133	-0.215
-695.456	109.222	0.178	-0.215
-694.441	-200.000	-0.000	-0.095
-693.426	-47.748	-0.398	0.194
-692.412	-161.394	-0.361	-0.019
-691.397	99.420	-0.114	-0.133
-690.383	142.779	-0.068	-0.091
-689.368	-200.000	0.075	-0.495
-688.354	121.974	-0.075	0.094
-687.339	-200.000	-0.014	-0.130
-686.324	-54.180	0.162	-0.074
-685.310	-84.444	-0.182	0.058
-684.295	-119.078	-0.180	-0.032
-683.281	722.776	0.183	0.491
-682.266	453.275	0.042	-0.094
-681.251	369.090	-0.020	0.041
-680.237	800.000	-0.050	-0.175
-679.222	47.744	-0.083	-0.078
-678.208	-118.908	-0.058	-0.010
-677.193	8.396	-0.286	-0.217
-676.178	-200.000	0.000	-0.045
-675.164	286.261	0.226	-0.411
-674.149	800.000	0.029	-0.086
-673.135	54.128	-0.229	-0.222
-672.120	85.242	0.246	-0.272
-671.105	159.453	0.138	0.194
-670.091	-77.360	0.169	-0.059
-669.076	-164.618	-0.293	-0.013
-668.062	156.042	-0.055	-0.076
-667.047	-109.355	-0.031	0.007
-666.032	-157.302	-0.237	0.014
-665.018	98.688	0.121	-0.140
-664.003	-200.000	-0.012	-0.113
-662.989	-200.000	0.037	0.169
-661.974	173.330	-0.090	0.131
-660.959	-60.473	-0.108	-0.046
-659.945	-200.000	0.031	0.142
-658.930	27.686	-0.164	-0.139
-657.916	-200.000	0.001	0.100
-656.901	438.092	-0.168	-0.368
-655.886	492.626	-0.094	0.218
-654.872	-100.946	-0.340	-0.084
-653.857	-200.000	-0.009	-0.430
-652.843	5.285	-0.343	-0.255
-651.828	16.377	-0.194	0.154
-650.814	-59.733	-0.213	-0.092
-649.799	775.362	-0.021	-0.057
-648.784	-76.014	-0.140	-0.050
-647.770	124.824	0.149	-0.189
-646.755	796.207	-0.075	-0.209
-645.741	-39.681	-0.401	-0.211
-644.726	-200.000	0.018	0.368
-643.711	-200.000	0.063	-0.304
-642.697	-200.000	0.058	-0.290
-641.682	85.211	0.130	-0.144
-640.668	-104.371	-0.414	0.096
-639.653	-90.198	0.162	-0.047
-638.638	-200.000	-0.006	-0.059
-637.624	115.451	-0.207	-0.255
-636.609	-44.550	-0.425	-0.214
-635.595	-6.541	0.234	-0.160
-634.580	800.000	-0.059	-0.241
-633.565	-83.684	-0.340	-0.109
-632.551	-200.000	-0.023	0.115
-631.536	181.155	-0.066	-0.097
-630.522	-90.167	0.226	0.066
-629.507	362.604	0.127	0.256
-628.492	800.000	0.086	-0.312
-627.478	442.215	-0.158	0.347
-626.463	-200.000	-0.016	0.075
-625.449	114.577	-0.069	0.084
-624.434	-79.836	-0.297	0.101
-623.419	17.673	-0.192	0.154
-622.405	299.277	-0.115	0.213
-621.390	-175.062	-0.420	0.012
-620.376	-0.470	-0.059	0.042
-619.361	-10.394	-0.254	0.170
-618.346	221.639	-0.126	-0.203
-617.332	68.314	0.067	0.069
-616.317	313.140	-0.141	-0.266
-615.303	-200.000	0.064	-0.325
-614.288	800.000	0.064	0.219
-613.273	489.565	-0.034	-0.079
-612.259	-59.160	-0.249	-0.108
-611.244	-29.665	0.363	-0.208
-610.230	-160.224	-0.169	-0.009
-609.215	-19.438	0.074	-0.046
-608.201	69.004	-0.146	0.151
-607.186	-51.818	0.387	-0.181
-606.171	131.496	0.254	0.328
-605.157	139.759	-0.068	-0.090
-604.142	-154.839	-0.239	0.016
-603.128	800.000	-0.057	0.178
-602.113	-53.882	-0.299	-0.137
-601.098	618.046	-0.063	-0.158
-600.084	-200.000	0.124	0.000
-599.069	179.032	0.159	-0.233
-598.055	-61.264	0.346	0.146
-597.040	-7.300	-0.077	0.052
-596.025	267.003	0.124	0.217
-595.011	-116.988	0.282	0.052
-593.996	-32.886	0.283	-0.158
-592.982	-200.000	-0.005	-0.023
-591.967	480.656	-0.135	-0.308
-590.952	-20.152	0.099	-0.061
-589.938	-200.000	0.005	-0.025
-588.923	220.328	0.127	-0.205
-587.909	-43.213	-0.142	-0.072
-586.894	-128.070	-0.408	0.059
-585.879	-79.903	0.156	0.053
-584.865	163.153	0.115	-0.163
-583.850	-38.760	0.127	-0.067
-582.836	-77.714	-0.196	0.068
-581.821	-200.000	0.000	-0.058
-580.806	-69.087	-0.096	-0.037
-579.792	-48.966	-0.193	-0.093
-578.777	-200.000	0.046	0.231
-577.763	-45.419	-0.155	0.077
-576.748	166.677	0.115	-0.163
-575.733	-163.927	0.396	-0.019
-574.719	-200.000	0.008	0.090
-573.704	614.028	0.049	0.124
-572.690	-200.000	0.002	0.077
-571.675	123.351	0.103	0.130
-570.661	-185.883	-0.117	-0.002
-569.646	427.309	-0.210	-0.455
-568.631	441.675	0.193	-0.423
-567.617	-93.578	0.361	-0.100
-566.602	800.000	0.051	0.201
-565.588	180.046	-0.171	0.251
-564.573	143.782	0.308	-0.411
-563.558	239.905	-0.097	-0.163
-562.544	23.639	-0.089	-0.074
-561.529	-156.606	-0.062	0.004
-560.515	676.237	0.081	-0.211
-559.500	163.133	-0.046	0.064
-558.485	-110.703	-0.214	-0.044
-557.471	70.167	-0.032	0.033
-556.456	-103.050	-0.098	-0.023
-555.442	-194.994	0.058	-0.000
-554.427	440.100	-0.025	-0.056
-553.412	-74.831	-0.237	-0.085
-552.398	800.000	0.057	0.162
-551.383	227.121	-0.143	0.233
-550.369	-34.354	0.108	0.059
-549.354	-77.472	0.242	-0.084
-548.339	159.727	-0.153	-0.213
-547.325	800.000	-0.052	-0.182
-546.310	-200.000	-0.003	0.271
-545.296	253.343	0.156	0.268
-544.281	203.910	0.084	-0.130
-543.266	800.000	-0.045	0.132
-542.252	191.275	0.028	-0.042
-541.237	-200.000	0.011	0.283
-540.223	-200.000	0.001	-0.148
-539.208	457.236	-0.032	-0.072
-538.193	79.007	-0.286	-0.306
-537.179	-200.000	0.023	0.118
-536.164	319.238	0.058	0.110
-535.150	-198.860	-0.108	0.001
-534.135	306.370	-0.113	-0.210
-533.121	58.085	0.278	-0.272
-532.106	-113.370	-0.139	-0.027
-531.091	800.000	-0.026	0.077
-530.077	51.793	0.118	0.113
-529.062	413.560	-0.017	-0.037
-528.048	459.973	0.049	0.110
-527.033	-47.439	0.359	-0.175
-526.018	-85.143	-0.275	-0.086
-525.004	800.000	0.083	0.234
-523.989	800.000	0.038	-0.138
-522.975	-54.128	-0.090	0.041
-521.960	649.645	0.067	0.172
-520.945	198.822	-0.081	-0.124
-519.931	141.811	0.051	-0.068
-518.916	-97.483	0.118	-0.031
-517.902	800.000	-0.039	0.156
-516.887	150.741	-0.124	-0.168
-515.872	324.905	-0.103	-0.196
-514.858	-92.061	-0.161	-0.046
-513.843	-68.929	-0.638	-0.246
-512.829	800.000	-0.095	-0.408
-511.814	105.147	-0.121	0.143
-510.799	-144.824	0.238	0.022
-509.785	32.033	-0.266	0.230
-508.770	159.218	0.028	-0.039
-507.756	116.918	0.251	0.308
-506.741	-0.772	-0.216	-0.153
-505.726	-60.065	0.109	-0.047
-504.712	576.686	0.115	-0.281
-503.697	-105.673	-0.474	-0.107
-502.683	-200.000	0.016	-0.258
-501.668	-63.719	0.132	-0.054
-500.653	-200.000	0.009	-0.252
-499.639	-113.258	0.126	-0.025
-498.624	-200.000	-0.029	-0.321
-497.610	371.193	-0.062	0.125
-496.595	156.889	-0.111	-0.153
-495.581	-51.182	0.074	-0.035
-494.566	-102.000	-0.213	0.051
-493.551	800.000	-0.073	0.221
-492.537	-56.503	-0.332	-0.147
-491.522	-115.650	0.100	-0.019
-490.508	199.053	-0.072	-0.110
-489.493	-29.594	0.327	0.187
-488.478	-200.000	0.016	-0.119
-487.464	356.815	-0.049	-0.097
-486.449	42.326	-0.083	0.076
-485.435	601.762	0.185	0.460
-484.420	-200.000	-0.014	0.206
-483.405	-80.619	-0.225	-0.075
-482.391	-119.048	0.270	0.047
-481.376	93.114	0.106	-0.120
-480.362	-115.752	-0.096	-0.018
-479.347	345.324	0.148	-0.290
-478.332	320.073	-0.209	-0.396
-477.318	1.622	-0.139	-0.100
-476.303	-91.793	0.289	0.082
-475.289	-200.000	-0.021	0.141
-474.274	-74.072	-0.075	-0.027
-473.259	365.939	0.079	0.159
-472.245	406.100	-0.182	0.384
-471.230	-200.000	-0.022	-0.145
-470.216	-200.000	0.008	-0.175
-469.201	-89.614	0.418	0.123
-468.186	-53.003	0.224	-0.103
-467.172	192.369	-0.063	-0.095
-466.157	-79.142	-0.390	-0.132
-465.143	213.664	0.076	0.119
-464.128	-154.880	0.207	-0.014
-463.113	671.177	-0.113	-0.292
-462.099	-184.400	0.091	0.001
-461.084	-200.000	0.036	-0.186
-460.070	800.000	0.053	-0.154
-459.055	376.411	0.051	-0.103
-458.040	-25.507	0.052	-0.031
-457.026	83.238	-0.113	-0.123
-456.011	-99.435	0.300	0.075
-454.997	-55.029	-0.088	0.040
-453.982	159.293	-0.041	0.058
-452.968	-105.011	-0.271	-0.062
-451.953	-200.000	-0.017	0.245
-450.938	-126.885	0.402	-0.059
-449.924	-38.946	0.076	0.040
-448.909	800.000	-0.050	-0.198
-447.895	-93.357	0.074	0.020
-446.880	-200.000	0.005	0.281
-445.865	-118.448	-0.079	0.014
-444.851	-90.157	-0.312	0.091
-443.836	69.214	0.306	0.314
-442.822	89.330	-0.247	0.275
-441.807	-90.822	-0.060	0.017
-440.792	188.996	0.101	-0.152
-439.778	800.000	0.069	0.204
-438.763	54.198	0.282	0.270
-437.749	800.000	0.078	0.229
-436.734	-102.207	0.271	0.065
-435.719	215.582	-0.059	-0.094
-434.705	-200.000	-0.005	-0.378
-433.690	800.000	-0.035	-0.137
-432.676	54.888	-0.170	-0.163
-431.661	-200.000	0.015	0.143
-430.646	-200.000	-0.044	0.226
-429.632	14.341	-0.032	0.025
-428.617	254.541	0.076	-0.129
-427.603	70.016	-0.252	-0.259
-426.588	-55.924	0.233	0.104
-425.573	800.000	0.052	0.202
-424.559	-89.497	-0.159	-0.047
-423.544	-200.000	0.032	-0.148
-422.530	-72.846	0.128	0.047
-421.515	-164.508	0.229	-0.010
-420.500	-89.648	0.200	-0.058
-419.486	-13.542	0.172	0.111
-418.471	401.748	-0.116	0.244
-417.457	466.423	-0.136	-0.304
-416.442	-200.000	-0.023	-0.310
-415.428	206.643	-0.084	-0.130
-414.413	-2.844	0.325	-0.226
-413.398	-41.643	0.266	0.136
-412.384	800.000	-0.085	0.298
-411.369	-121.037	0.339	0.057
-410.355	-89.308	-0.262	0.077
-409.340	800.000	-0.055	0.221
-408.325	44.486	0.190	-0.174
-407.311	-43.849	0.312	0.156
-406.296	-118.424	0.158	0.028
-405.282	-2.898	0.173	-0.120
-404.267	-200.000	-0.038	-0.318
-403.252	117.327	0.102	0.125
-402.238	-200.000	-0.015	-0.114
-401.223	87.129	0.193	0.212
-400.209	51.880	0.204	-0.194
-399.194	0.182	-0.101	0.071
-398.179	-97.498	-0.111	0.029
-397.165	800.000	-0.050	0.197
-396.150	-121.108	-0.189	0.031
-395.136	-27.288	-0.261	-0.151
-394.121	800.000	-0.153	0.457
-393.106	-5.540	0.229	0.156
-392.092	-200.000	0.016	-0.097
-391.077	28.958	0.153	0.129
-390.063	-150.424	-0.312	-0.024
-389.048	-27.790	0.109	0.063
-388.033	696.044	-0.066	0.173
-387.019	800.000	-0.055	-0.216
-386.004	-49.899	0.166	-0.078
-384.990	467.533	-0.063	0.141
-383.975	-37.203	-0.028	0.015
-382.960	187.953	0.114	0.169
-381.946	-32.758	0.217	-0.120
-380.931	-187.582	-0.303	-0.004
-379.917	19.744	0.191	-0.153
-378.902	-107.037	-0.398	-0.087
-377.888	800.000	-0.020	-0.073
-376.873	800.000	0.026	0.091
-375.858	37.362	0.114	0.101
-374.844	-200.000	0.005	0.171
-373.829	-138.487	-0.213	0.023
-372.815	158.681	-0.062	0.086
-371.800	651.863	0.016	0.042
-370.785	-200.000	0.059	0.333
-369.771	227.060	-0.030	0.048
-368.756	-118.810	-0.179	0.031
-367.742	82.135	0.189	0.204
-366.727	-134.379	0.284	0.035
-365.712	-88.396	-0.267	-0.079
-364.698	48.426	0.088	0.082
-363.683	-103.237	-0.262	-0.062
-362.669	440.042	-0.030	0.065
-361.654	-200.000	-0.050	-0.293
-360.639	-200.000	0.012	-0.107
-359.625	-103.250	0.575	0.135
-358.610	-47.692	0.497	0.240
-357.596	-90.845	-0.234	0.067
-356.581	-200.000	0.033	-0.180
-355.566	-121.914	0.247	0.041
-354.552	18.202	-0.210	-0.167
-353.537	328.290	-0.084	-0.161
-352.523	724.796	0.106	-0.282
-351.508	-100.269	0.307	0.076
-350.493	21.989	-0.240	0.194
-349.479	227.798	0.068	-0.110
-348.464	159.743	-0.086	0.119
-347.450	800.000	0.035	0.127
-346.435	-200.000	-0.010	0.278
-345.420	-116.760	-0.152	0.028
-344.406	-200.000	0.047	-0.281
-343.391	460.774	0.172	-0.382
-342.377	-145.897	0.207	0.018
-341.362	53.186	0.178	0.170
-340.348	-69.783	0.077	-0.029
-339.333	800.000	0.041	0.141
-338.318	23.282	0.173	-0.142
-337.304	310.446	0.178	0.332
-336.289	800.000	0.026	-0.090
-335.275	-117.465	-0.210	0.038
-334.260	-200.000	0.060	-0.299
-333.245	-200.000	0.013	-0.296
-332.231	-99.989	-0.257	0.064
-331.216	-106.407	0.206	-0.046
-330.202	396.236	0.221	-0.459
-329.187	-200.000	-0.033	0.232
-328.172	421.320	-0.098	0.209
-327.158	445.745	-0.042	-0.091
-326.143	-40.752	0.322	-0.166
-325.129	-69.524	-0.104	-0.040
-324.114	50.921	0.348	0.327
-323.099	402.714	0.099	-0.207
-322.085	374.760	0.132	-0.268
-321.070	87.872	-0.093	0.102
-320.056	-200.000	0.018	0.080
-319.041	-200.000	-0.014	0.210
-318.026	-59.228	0.416	0.178
-317.012	423.378	-0.136	0.290
-315.997	-200.000	-0.010	-0.149
-314.983	-5.086	-0.155	-0.106
-313.968	800.000	0.035	-0.115
-312.953	555.280	-0.150	-0.358
-311.939	800.000	-0.068	-0.206
-310.924	800.000	-0.096	-0.351
-309.910	523.504	-0.010	-0.024
-308.895	-101.182	0.238	0.058
-307.880	265.750	-0.136	-0.236
-306.866	800.000	0.077	0.247
-305.851	126.119	-0.189	-0.238
-304.837	-200.000	-0.032	-0.321
-303.822	-200.000	0.027	-0.139
-302.807	-5.599	0.024	-0.016
-301.793	31.120	-0.197	0.168
-300.778	-96.057	0.163	0.043
-299.764	800.000	-0.069	0.192
-298.749	6.977	-0.271	-0.200
-297.735	23.069	0.041	0.034
-296.720	800.000	0.064	0.273
-295.705	-200.000	0.041	0.184
-294.691	63.854	0.138	0.138
-293.676	-90.712	0.118	-0.034
-292.662	-14.459	0.057	-0.036
-291.647	369.474	0.069	-0.138
-290.632	-8.192	0.211	0.141
-289.618	-114.147	0.355	0.068
-288.603	-42.423	-0.316	0.160
-287.589	800.000	-0.127	-0.349
-286.574	716.781	-0.060	-0.159
-285.559	-103.114	-0.159	0.037
-284.545	641.004	0.042	-0.106
-283.530	-185.518	0.098	0.001
-282.516	-152.255	0.101	-0.007
-281.501	-200.000	-0.068	0.319
-280.486	-84.515	-0.194	-0.061
-279.472	-200.000	0.013	-0.171
-278.457	52.774	-0.122	0.116
-277.443	-48.283	-0.130	0.062
-276.428	-200.000	-0.016	0.098
-275.413	227.160	-0.166	0.267
-274.399	19.810	-0.167	0.133
-273.384	-71.083	0.023	-0.009
-272.370	-169.319	-0.318	0.012
-271.355	-135.749	-0.124	0.015
-270.340	403.193	-0.062	0.130
-269.326	196.383	-0.045	0.068
-268.311	800.000	0.063	0.217
-267.297	1.297	0.180	0.128
-266.282	-200.000	0.005	0.068
-265.267	399.715	-0.039	-0.081
-264.253	119.272	0.097	0.119
-263.238	-89.787	0.128	0.037
-262.224	-200.000	0.007	0.167
-261.209	361.221	-0.228	0.453
-260.195	-200.000	0.025	0.119
-259.180	-101.305	-0.212	-0.051
-258.165	77.039	-0.178	0.188
-257.151	136.617	-0.147	-0.191
-256.136	800.000	-0.019	0.065
-255.122	-49.152	-0.156	0.074
-254.107	-110.121	0.273	0.057
-253.092	-200.000	-0.065	0.586
-252.078	800.000	0.057	0.222
-251.063	-116.019	-0.228	0.042
-250.049	337.555	0.060	-0.115
-249.034	-50.523	-0.091	0.043
-248.019	-94.688	0.073	-0.020
-247.005	-101.284	-0.305	0.074
-245.990	117.803	-0.263	-0.320
-244.976	-137.891	0.028	-0.003
-243.961	28.383	0.122	-0.102
-242.946	556.841	0.081	-0.194
-241.932	-69.277	-0.215	-0.082
-240.917	555.054	-0.035	-0.083
-239.903	102.159	0.080	-0.092
-238.888	-41.996	-0.230	0.117
-237.873	-124.095	0.160	0.025
-236.859	422.879	-0.072	0.153
-235.844	-8.421	0.100	-0.067
-234.830	14.818	-0.234	-0.181
-233.815	-200.000	-0.002	0.118
-232.800	70.311	0.009	0.010
-231.786	54.999	-0.230	-0.220
-230.771	4.958	0.127	0.092
-229.757	43.698	0.262	0.237
-228.742	272.599	0.101	0.177
-227.727	750.023	-0.075	0.199
-226.713	190.187	-0.033	-0.049
-225.698	62.074	0.286	0.282
-224.684	-6.482	-0.058	-0.039
-223.669	326.275	0.132	0.249
-222.655	287.285	-0.064	-0.114
-221.640	562.094	0.110	0.264
-220.625	-54.844	0.493	-0.220
-219.611	230.446	-0.211	0.341
-218.596	-200.000	-0.010	0.275
-217.582	-200.000	0.018	-0.262
-216.567	41.128	-0.206	0.184
-215.552	-200.000	-0.029	0.309
-214.538	-62.345	0.256	-0.105
-213.523	-200.000	0.031	0.157
-212.509	-64.917	-0.156	0.062
-211.494	55.921	0.044	-0.042
-210.479	58.023	0.181	0.175
-209.465	-200.000	0.024	0.165
-208.450	-200.000	-0.007	0.041
-207.436	373.893	-0.067	-0.136
-206.421	800.000	-0.104	-0.292
-205.406	-108.026	0.096	-0.021
-204.392	-36.244	-0.279	0.149
-203.377	-99.249	0.081	-0.020
-202.363	800.000	0.055	0.226
-201.348	237.527	-0.045	-0.074
-200.333	800.000	-0.033	0.091
-199.319	144.618	0.216	0.285
-198.304	-200.000	-0.029	0.202
-197.290	800.000	0.093	0.374
-196.275	-200.000	-0.063	0.298
-195.260	207.460	-0.206	0.317
-194.246	800.000	-0.060	-0.201
-193.231	-200.000	0.017	-0.209
-192.217	259.317	-0.153	-0.261
-191.202	-80.943	-0.645	-0.211
-190.187	-22.681	0.180	0.107
-189.173	87.319	0.097	-0.106
-188.158	667.218	-0.056	-0.143
-187.144	289.403	0.219	-0.392
-186.129	102.403	-0.248	0.286
-185.114	-200.000	-0.005	0.050
-184.100	-200.000	-0.014	-0.210
-183.085	168.931	-0.139	-0.196
-182.071	229.385	0.127	-0.206
-181.056	561.311	0.065	-0.156
-180.042	-42.479	0.176	-0.089
-179.027	-9.235	0.078	0.051
-178.012	-116.172	0.210	-0.039
-176.998	-108.484	-0.066	0.014
-175.983	-200.000	-0.073	-0.418
-174.969	-126.778	0.354	-0.052
-173.954	800.000	-0.057	0.215
-172.939	-30.153	-0.148	-0.083
-171.925	45.416	0.148	-0.135
-170.910	-105.195	-0.301	0.068
-169.896	-11.371	0.089	-0.058
-168.881	-154.704	0.385	0.025
-167.866	-110.714	-0.151	0.031
-166.852	27.375	0.015	0.013
-165.837	-188.235	-0.308	0.004
-164.823	148.875	-0.152	0.202
-163.808	-200.000	0.032	0.292
-162.793	6.011	0.170	-0.124
-161.779	75.162	0.075	-0.078
-160.764	140.388	-0.204	0.266
-159.750	408.862	-0.069	0.143
-158.735	-46.124	-0.089	0.043
-157.720	-92.236	0.343	0.095
-156.706	-83.944	0.289	0.091
-155.691	-164.370	0.371	0.017
-154.677	309.147	-0.158	0.291
-153.662	-0.678	0.241	-0.168
-152.647	-200.000	0.050	0.397
-151.633	-12.694	-0.230	0.148
-150.618	100.881	0.203	-0.232
-149.604	-200.000	-0.008	-0.122
-148.589	800.000	0.109	-0.429
-147.574	800.000	0.041	-0.153
-146.560	-200.000	-0.045	0.226
-145.545	-200.000	-0.055	0.512
-144.531	298.994	-0.089	0.162
-143.516	126.445	-0.184	0.229
-142.502	-99.762	0.070	-0.017
-141.487	220.858	-0.139	0.220
-140.472	36.189	0.107	0.093
-139.458	-129.384	-0.217	0.030
-138.443	-38.425	0.090	0.047
-137.429	681.592	-0.109	0.280
-136.414	91.983	0.193	0.214
-135.399	-200.000	-0.015	-0.281
-134.385	129.489	0.093	0.117
-133.370	-200.000	0.008	0.172
-132.356	-188.958	0.072	-0.001
-131.341	-200.000	-0.026	0.313
-130.326	110.157	0.210	0.249
-129.312	-12.819	0.111	0.071
-128.297	800.000	-0.035	0.136
-127.283	-24.252	-0.288	-0.169
-126.268	8.038	0.178	-0.132
-125.253	-44.716	-0.207	-0.102
-124.239	-48.796	-0.254	0.120
-123.224	-200.000	-0.015	0.226
-122.210	82.368	-0.247	-0.265
-121.195	-165.059	-0.274	0.012
-120.180	1.232	0.135	0.095
-119.166	-200.000	-0.008	0.240
-118.151	49.805	-0.217	0.201
-117.137	667.176	-0.098	-0.249
-116.122	59.569	0.139	0.135
-115.107	-56.426	-0.263	-0.115
-114.093	193.244	-0.108	0.160
-113.078	800.000	0.078	-0.318
-112.064	-114.381	0.230	-0.044
-111.049	-200.000	-0.034	-0.199
-110.034	181.244	0.135	0.195
-109.020	-124.855	-0.319	0.048
-108.005	-116.331	0.194	-0.035
-106.991	-79.957	-0.261	-0.086
-105.976	-182.420	0.284	-0.005
-104.962	21.378	0.122	-0.098
-103.947	-200.000	0.001	0.232
-102.932	-87.426	0.211	0.063
-101.918	607.263	0.151	0.370
-100.903	-51.584	0.085	0.039
-99.889	-6.372	-0.204	0.137
-98.874	11.618	0.120	-0.091
-97.859	16.744	-0.269	-0.210
-96.845	-9.992	0.151	0.099
-95.830	-55.910	-0.249	0.109
-94.816	-64.208	0.141	0.057
-93.801	-110.971	0.131	-0.027
-92.786	185.132	-0.093	-0.136
-91.772	100.052	-0.189	0.216
-90.757	-200.000	-0.009	-0.083
-89.743	-40.308	-0.277	-0.142
-88.728	-3.100	-0.174	-0.119
-87.713	-26.573	-0.137	-0.079
-86.699	-200.000	0.057	-0.384
-85.684	117.926	-0.078	0.094
-84.670	199.474	-0.147	0.222
-83.655	-148.358	0.156	-0.013
-82.640	-200.000	-0.011	0.212
-81.626	800.000	0.118	0.361
-80.611	9.571	-0.176	-0.131
-79.597	23.665	-0.285	0.231
-78.582	-69.283	0.214	0.081
-77.567	-70.608	0.272	-0.101
-76.553	151.739	0.072	-0.097
-75.538	-138.296	-0.240	0.026
-74.524	-59.501	-0.057	-0.024
-73.509	-200.000	0.004	0.018
-72.494	-88.680	0.093	0.027
-71.480	800.000	0.085	0.235
-70.465	800.000	-0.046	-0.184
-69.451	148.898	0.138	0.183
-68.436	9.733	0.196	-0.146
-67.422	266.786	-0.158	0.272
-66.407	-134.588	-0.263	-0.032
-65.392	800.000	-0.024	-0.101
-64.378	-200.000	0.042	0.298
-63.363	156.648	0.014	0.019
-62.349	599.838	-0.162	-0.396
-61.334	56.367	-1.202	-1.149
-60.319	77.255	0.500	0.522
-59.305	100.960	-0.604	-0.690
-58.290	169.146	0.848	1.189
-57.276	463.724	0.664	1.460
-56.261	-200.000	100.684	601.203
-55.246	583.732	1408.851	3400.315
-54.232	192.487	2590.851	3843.793
-53.217	117.375	2161.583	2612.498
-52.203	41.904	1697.588	1513.242
-51.188	34.328	1507.811	1292.858
-50.173	31.751	1481.622	1253.139
-49.159	51.604	1532.453	1431.663
-48.144	53.625	1550.433	1462.155
-47.130	34.518	1509.147	1295.086
-46.115	31.426	1494.222	1261.403
-45.100	31.094	1490.908	1256.324
-44.086	31.226	1488.603	1255.218
-43.071	31.226	1485.791	1252.795
-42.057	31.114	1484.853	1251.204
-41.042	31.039	1483.866	1249.821
-40.027	31.042	1482.269	1248.444
-39.013	31.099	1480.559	1247.336
-37.998	31.080	1479.316	1246.117
-36.984	31.043	1478.222	1244.899
-35.969	31.109	1476.414	1243.768
-34.954	31.099	1475.282	1242.697
-33.940	31.111	1473.922	1241.582
-32.925	31.175	1472.552	1240.805
-31.911	31.230	1471.447	1240.185
-30.896	31.174	1469.787	1238.367
-29.881	31.290	1468.376	1237.898
-28.867	31.208	1467.132	1236.259
-27.852	31.265	1466.124	1235.740
-26.838	31.309	1464.259	1234.405
-25.823	31.172	1463.030	1232.416
-24.809	31.186	1461.347	1231.041
-23.794	31.253	1459.986	1230.291
-22.779	31.235	1458.738	1229.068
-21.765	31.168	1457.739	1227.737
-20.750	31.086	1456.952	1226.485
-19.736	31.105	1456.194	1225.926
-18.721	31.049	1454.670	1224.229
-17.706	31.170	1453.468	1223.960
-16.692	31.102	1452.847	1222.942
-15.677	31.124	1451.142	1221.603
-14.663	31.173	1450.085	1220.987
-13.648	31.096	1449.170	1219.661
-12.633	31.193	1448.103	1219.351
-11.619	31.060	1447.661	1218.060
-10.604	31.138	1446.711	1217.725
-9.590	31.145	1445.622	1216.801
-8.575	31.086	1445.174	1215.995
-7.560	31.154	1443.658	1215.112
-6.546	31.112	1442.762	1214.036
-5.531	31.020	1442.730	1213.362
-4.517	31.036	1442.000	1212.805
-3.502	31.078	1440.428	1211.704
-2.487	31.048	1439.906	1211.025
-1.473	31.072	1438.640	1210.070
-0.458	31.167	1437.254	1209.468
0.556	29.649	1427.635	1197.875
1.571	26.588	1403.391	1157.888
2.586	23.247	1344.329	1088.558
3.600	21.590	1263.903	1013.757
4.615	20.286	1218.830	970.231
5.629	17.525	1163.537	911.375
6.644	10.657	1082.030	813.163
7.659	5.266	1043.523	758.051
8.673	4.746	1037.958	751.431
9.688	4.621	1035.035	748.646
10.702	4.528	1033.475	747.004
11.717	4.426	1031.751	745.202
12.731	6.557	1032.901	756.197
13.746	13.002	1042.347	794.150
14.761	18.054	1048.624	823.261
15.775	18.148	1048.102	823.230
16.790	17.289	1045.480	816.973
17.804	16.260	1043.149	810.142
18.819	15.339	1041.550	804.413
19.834	14.925	1039.985	801.151
20.848	14.646	1039.122	799.083
21.863	14.327	1038.466	796.982
22.877	14.183	1037.833	795.732
23.892	13.948	1036.773	793.728
24.907	13.799	1036.442	792.692
25.921	13.968	1035.618	792.799
26.936	13.947	1034.581	791.834
27.950	13.945	1033.648	791.042
28.965	14.012	1032.317	790.271
29.980	13.987	1031.629	789.555
30.994	14.131	1030.162	789.045
32.009	14.258	1029.110	788.771
33.023	14.390	1028.565	788.912
34.038	14.293	1027.941	787.904
35.053	14.235	1026.727	786.627
36.067	14.119	1026.191	785.602
37.082	13.966	1025.571	784.332
38.096	13.980	1024.737	783.693
39.111	14.029	1023.843	783.172
40.126	14.155	1023.250	783.243
41.140	14.083	1022.123	781.970
42.155	14.011	1020.665	780.447
43.169	13.890	1019.550	778.957
44.184	13.714	1018.832	777.518
45.199	13.755	1017.537	776.648
46.213	13.761	1017.077	776.260
47.228	13.832	1015.792	775.543
48.242	13.892	1014.424	774.708
49.257	14.064	1013.639	774.844
50.271	13.922	1012.929	773.570
51.286	14.141	1011.864	773.707
52.301	14.050	1011.625	773.030
53.315	13.938	1010.970	771.943
54.330	14.000	1010.013	771.434
55.344	13.859	1008.859	769.827
56.359	13.978	1008.045	769.693
57.374	13.868	1007.125	768.411
58.388	13.892	1006.269	767.800
59.403	13.762	1005.441	766.502
60.417	13.813	1004.879	766.240
61.432	13.719	1004.259	765.267
62.447	13.850	1003.219	765.007
63.461	13.765	1002.233	763.800
64.476	13.575	1001.681	762.437
65.490	13.693	1000.627	762.110
66.505	13.763	999.613	761.589
67.520	13.642	999.269	760.704
68.534	13.813	998.593	760.909
69.549	13.699	997.575	759.541
70.563	13.804	996.861	759.413
71.578	13.773	996.402	758.853
72.593	13.701	995.006	757.396
73.607	13.556	994.513	756.288
74.622	13.632	993.608	755.880
75.636	13.627	992.470	754.924
76.651	13.610	992.036	754.453
77.666	13.653	991.207	753.948
78.680	13.570	990.630	753.065
79.695	13.738	989.975	753.265
80.709	13.780	989.357	752.921
81.724	13.841	987.987	752.089
82.739	13.853	987.584	751.769
83.753	13.832	987.529	751.565
84.768	13.878	986.600	750.996
85.782	13.963	986.028	750.882
86.797	14.229	984.998	751.230
87.812	14.133	984.054	750.011
88.826	14.026	983.490	749.035
89.841	14.078	982.324	748.314
90.855	14.046	981.880	747.767
91.870	14.177	980.954	747.582
92.884	14.206	980.290	747.139
93.899	14.135	979.822	746.400
94.914	14.187	978.607	745.640
95.928	14.191	978.072	745.182
96.943	14.151	977.745	744.690
97.957	14.209	976.493	743.929
98.972	14.138	975.533	742.814
99.987	14.071	975.272	742.252
101.001	14.176	974.466	742.041
102.016	14.097	973.746	741.075
103.030	14.181	972.683	740.575
104.045	13.984	971.930	739.060
105.060	14.007	971.009	738.395
106.074	14.079	970.167	738.011
107.089	13.989	968.788	736.498
108.103	13.809	968.502	735.418
109.118	13.698	967.285	733.937
110.133	13.857	966.318	733.840
111.147	13.744	965.679	732.793
112.162	13.710	964.848	731.945
113.176	13.844	963.711	731.609
114.191	13.900	963.147	731.363
115.206	13.996	962.267	731.053
116.220	13.882	961.630	730.002
117.235	13.913	960.857	729.487
118.249	13.910	959.718	728.544
119.264	13.890	958.914	727.781
120.279	13.849	958.266	727.047
121.293	13.906	957.144	726.378
122.308	13.863	956.880	725.926
123.322	13.801	955.713	724.709
124.337	13.721	954.937	723.708
125.352	13.899	953.482	723.316
126.366	13.682	952.896	721.861
127.381	13.656	951.995	721.001
128.395	13.722	950.703	720.245
129.410	13.779	949.508	719.526
130.424	13.845	948.989	719.352
131.439	13.795	948.281	718.537
132.454	13.868	947.663	718.323
133.468	13.861	946.977	717.706
134.483	13.853	946.204	717.023
135.497	13.998	945.161	716.794
136.512	13.895	944.429	715.733
137.527	14.110	943.425	715.836
138.541	13.812	943.302	714.394
139.556	13.959	942.036	714.004
140.570	13.770	942.024	713.119
141.585	13.969	941.263	713.337
142.600	14.075	940.125	712.865
143.614	14.202	939.666	712.999
144.629	14.160	938.657	711.987
145.643	14.198	937.892	711.506
146.658	14.107	937.291	710.601
147.673	14.150	936.186	709.882
148.687	14.059	935.320	708.776
149.702	13.987	934.671	707.914
150.716	13.777	933.719	706.237
151.731	14.022	932.910	706.606
152.746	14.060	932.036	706.042
153.760	14.092	931.585	705.772
154.775	14.019	930.906	704.884
155.789	14.039	930.297	704.449
156.804	14.189	929.506	704.422
157.819	14.186	928.443	703.542
158.833	14.212	927.880	703.164
159.848	14.194	927.362	702.632
160.862	14.348	926.389	702.483
161.877	14.378	925.930	702.198
162.892	14.193	925.050	700.690
163.906	14.070	924.080	699.373
164.921	14.032	923.487	698.705
165.935	14.094	922.362	698.052
166.950	14.243	921.001	697.585
167.964	14.123	920.648	696.752
168.979	14.148	919.484	695.915
169.994	14.182	918.441	695.207
171.008	14.236	917.549	694.695
172.023	14.266	916.947	694.301
173.037	14.272	916.233	693.725
174.052	14.263	915.997	693.447
175.067	14.285	915.167	692.851
176.081	14.226	914.333	691.911
177.096	14.111	913.465	690.715
178.110	14.057	912.850	689.967
179.125	14.083	912.149	689.484
180.140	14.208	911.004	689.075
181.154	14.196	910.793	688.802
182.169	14.382	910.064	688.960
183.183	14.297	909.566	688.170
184.198	14.494	908.648	688.228
185.213	14.522	908.044	687.827
186.227	14.353	908.000	687.037
187.242	14.478	907.019	686.747
188.256	14.471	906.481	686.252
189.271	14.578	905.814	686.123
190.286	14.590	904.865	685.394
191.300	14.504	904.093	684.397
192.315	14.191	903.422	682.544
193.329	14.084	902.756	681.541
194.344	14.161	901.793	681.072
195.359	14.115	901.669	680.728
196.373	14.369	900.598	680.897
197.388	14.165	901.104	680.383
198.402	14.593	899.991	681.233
199.417	14.511	900.322	681.088
200.432	14.822	899.076	681.351
201.446	14.674	898.449	680.214
202.461	14.777	898.381	680.520
203.475	14.816	898.017	680.346
204.490	14.655	897.542	679.269
205.504	14.732	896.082	678.418
206.519	14.697	895.717	677.937
207.534	14.589	894.846	676.780
208.548	14.718	893.879	676.512
209.563	14.556	893.411	675.444
210.577	14.540	892.917	674.944
211.592	14.668	891.895	674.628
212.607	14.707	891.624	674.521
213.621	14.794	890.892	674.261
214.636	14.793	890.425	673.843
215.650	14.814	889.835	673.421
216.665	14.845	888.960	672.824
217.680	14.731	889.055	672.378
218.694	14.863	888.465	672.402
219.709	15.007	887.566	672.243
220.723	14.891	887.035	671.317
221.738	14.880	886.565	670.857
222.753	14.847	885.663	669.983
223.767	14.736	885.227	669.149
224.782	14.988	883.894	669.087
225.796	15.038	883.114	668.640
226.811	15.022	883.026	668.451
227.826	15.048	881.931	667.665
228.840	15.045	881.048	666.925
229.855	14.951	880.694	666.223
230.869	15.060	879.780	665.906
231.884	14.965	879.153	664.997
232.899	14.990	878.711	664.704
233.913	14.911	878.038	663.821
234.928	14.723	877.399	662.532
235.942	14.791	876.742	662.248
236.957	14.957	875.738	662.087
237.972	14.991	875.255	661.800
238.986	14.916	874.248	660.684
240.001	15.059	873.575	660.682
241.015	14.864	873.726	659.966
242.030	14.848	872.735	659.095
243.045	15.044	871.954	659.222
244.059	15.067	871.441	658.865
245.074	15.045	871.003	658.389
246.088	15.087	870.109	657.821
247.103	15.103	869.762	657.563
248.117	15.214	869.338	657.617
249.132	15.273	868.598	657.232
250.147	15.320	868.163	657.029
251.161	15.427	867.277	656.719
252.176	15.496	866.882	656.631
253.190	15.586	865.944	656.216
254.205	15.499	865.588	655.547
255.220	15.539	865.158	655.321
256.234	15.613	864.301	654.902
257.249	15.574	863.619	654.176
258.263	15.528	863.210	653.626
259.278	15.660	862.602	653.621
260.293	15.655	862.142	653.198
261.307	15.852	861.111	653.121
262.322	15.707	861.093	652.489
263.336	15.773	860.237	652.039
264.351	15.788	859.862	651.754
265.366	15.845	859.154	651.379
266.380	15.758	858.780	650.701
267.395	15.780	857.812	649.996
268.409	15.777	856.863	649.209
269.424	15.710	856.636	648.722
270.439	15.627	856.018	647.875
271.453	15.762	855.185	647.709
272.468	15.656	854.345	646.604
273.482	15.693	853.686	646.193
274.497	15.605	853.218	645.442
275.512	15.760	852.259	645.253
276.526	15.810	851.654	644.932
277.541	15.670	851.255	644.037
278.555	15.647	850.586	643.384
279.570	15.684	850.271	643.231
280.585	15.947	849.264	643.418
281.599	16.005	848.953	643.346
282.614	15.712	848.929	642.154
283.628	15.905	847.882	642.040
284.643	15.861	847.076	641.203
285.657	15.786	847.138	640.907
286.672	15.902	845.964	640.407
287.687	15.910	845.681	640.165
288.701	15.800	845.282	639.388
289.716	15.953	844.493	639.316
290.730	16.023	843.969	639.126
291.745	16.025	843.481	638.710
292.760	15.940	843.108	638.047
293.774	16.048	842.187	637.702
294.789	16.045	841.769	637.318
295.803	16.153	841.331	637.339
296.818	16.155	840.544	636.694
297.833	15.985	840.225	635.754
298.847	16.082	839.029	635.160
299.862	16.063	838.152	634.367
300.876	16.010	837.896	633.920
301.891	16.095	837.158	633.622
302.906	16.157	836.441	633.257
303.920	16.159	836.150	632.991
304.935	16.187	835.634	632.648
305.949	16.487	834.347	632.738
306.964	16.437	834.076	632.292
307.979	16.176	834.031	631.225
308.993	16.271	833.071	630.796
310.008	16.301	832.833	630.673
311.022	16.295	832.482	630.331
312.037	16.429	831.458	629.999
313.052	16.409	830.750	629.330
314.066	16.286	830.100	628.325
315.081	16.256	829.901	628.007
316.095	16.147	829.480	627.226
317.110	16.202	828.933	626.965
318.125	16.141	828.436	626.306
319.139	16.153	827.585	625.651
320.154	16.207	827.398	625.654
321.168	16.220	826.691	625.112
322.183	16.275	826.133	624.839
323.197	16.272	825.850	624.557
324.212	16.384	825.274	624.480
325.227	16.289	824.744	623.676
326.241	16.424	824.041	623.585
327.256	16.409	823.370	622.966
328.270	16.473	822.980	622.855
329.285	16.417	822.053	621.892
330.300	16.163	822.140	620.967
331.314	16.176	821.347	620.359
332.329	16.406	820.514	620.521
333.343	16.430	819.942	620.122
334.358	16.706	818.996	620.363
335.373	16.600	819.054	619.965
336.387	16.526	818.527	619.238
337.402	16.737	817.941	619.513
338.416	16.649	817.123	618.516
339.431	16.695	816.997	618.535
340.446	16.765	816.291	618.202
341.460	16.658	815.985	617.524
342.475	16.935	815.377	618.018
343.489	16.895	814.898	617.454
344.504	16.894	814.189	616.860
345.519	16.794	813.917	616.237
346.533	16.950	813.239	616.234
347.548	16.795	812.960	615.407
348.562	16.948	812.133	615.281
349.577	16.707	811.742	614.057
350.592	16.801	811.069	613.833
351.606	16.664	810.853	613.119
352.621	16.590	810.087	612.218
353.635	16.653	809.702	612.101
354.650	16.747	809.316	612.093
355.665	16.899	809.012	612.359
356.679	16.854	808.549	611.793
357.694	16.849	808.099	611.378
358.708	16.788	807.680	610.789
359.723	16.732	806.848	609.905
360.738	16.899	806.297	610.035
361.752	16.865	805.905	609.560
362.767	16.907	805.315	609.212
363.781	17.076	805.099	609.601
364.796	17.068	804.530	609.089
365.810	17.177	804.110	609.107
366.825	17.211	803.598	608.786
367.840	17.278	803.373	608.803
368.854	17.204	803.228	608.376
369.869	17.157	802.623	607.694
370.883	17.171	802.278	607.430
371.898	17.131	801.873	606.925
372.913	17.464	800.660	607.141
373.927	17.213	800.213	605.853
374.942	17.248	799.930	605.711
375.956	17.262	798.858	604.896
376.971	17.307	798.650	604.843
377.986	17.288	798.028	604.253
379.000	17.376	797.553	604.150
380.015	17.384	797.152	603.823
381.029	17.384	796.674	603.406
382.044	17.489	795.793	603.060
383.059	17.541	795.222	602.757
384.073	17.352	794.765	601.689
385.088	17.476	794.356	601.764
386.102	17.383	793.425	600.678
387.117	17.411	793.231	600.577
388.132	17.143	793.016	599.414
389.146	17.244	792.790	599.547
390.161	17.370	791.842	599.223
391.175	17.346	791.690	598.968
392.190	17.600	791.002	599.287
393.205	17.540	790.839	598.901
394.219	17.443	790.210	598.031
395.234	17.456	789.838	597.740
396.248	17.327	789.482	596.967
397.263	17.452	788.549	596.647
398.278	17.341	788.204	595.943
399.292	17.486	787.742	596.050
400.307	17.344	787.812	595.552
401.321	17.364	787.091	595.024
402.336	17.242	786.979	594.460
403.350	17.448	786.312	594.622
404.365	17.629	786.041	595.000
405.380	17.649	785.340	594.484
406.394	17.717	785.207	594.567
407.409	17.806	784.934	594.619
408.423	17.844	784.129	594.090
409.438	17.715	783.792	593.333
410.453	17.604	783.568	592.725
411.467	17.847	783.008	593.093
412.482	17.951	782.298	592.864
413.496	17.915	782.114	592.548
414.511	17.933	781.741	592.276
415.526	17.854	781.455	591.731
416.540	17.941	781.072	591.691
417.555	17.969	780.304	591.153
418.569	17.800	780.229	590.459
419.584	17.987	779.448	590.462
420.599	17.928	779.013	589.877
421.613	156.451	1369.490	1796.661
422.628	134.969	1455.524	1796.733
