DTS Sentinel unit serial number:	SN413079Multiplexer serial number:	ORYXHardware model number:	OX4-SRSoftware version number:	ORYX F/W v4.00 Oryx Data Collector v3.7.2.0data status	okinstallation	princeton_trtdifferential loss correction	single-endedforward channel	channel 3reverse channel	N/Adate	2019/09/12time	19:53:04forward acquisition time	15.00reverse acquisition time	0.00gamma	496.2192k internal	0.2323k external	0.2323temperature offset calibration	1.0112default loss term (dB/km)	0.3790temperature slope calibration	1.0000multiplexer offset coefficient	1.0000multiplexer slope coefficient	1.0000fibre end	0.00T internal ref (°C)	31.87T ext. ref 1 (°C)	3.49T ext. ref 2 (°C)	26.52length (m)	temperature (°C)	Stokes	anti-Stokes-747.200	-2.495	-0.542	0.384
-746.185	8.946	0.333	-0.254
-745.171	-42.642	0.198	-0.102
-744.156	9.703	0.266	0.204
-743.142	-200.000	-0.007	0.567
-742.127	-200.000	0.138	0.727
-741.112	-95.227	-0.957	-0.260
-740.098	171.241	-0.359	0.520
-739.083	-47.354	-0.664	0.326
-738.069	800.000	0.128	0.377
-737.054	327.887	0.267	0.517
-736.039	-92.657	0.430	-0.122
-735.025	434.319	-0.403	0.885
-734.010	-56.174	-0.692	-0.311
-732.996	-60.773	0.368	-0.157
-731.981	262.287	-0.438	-0.768
-730.966	16.741	-0.786	-0.628
-729.952	-105.387	-0.574	-0.132
-728.937	185.849	-0.582	-0.873
-727.923	800.000	-0.150	-0.507
-726.908	436.649	0.339	-0.746
-725.894	-200.000	0.054	-0.716
-724.879	326.870	-0.035	-0.068
-723.864	-200.000	-0.087	-0.427
-722.850	57.392	-0.637	0.628
-721.835	-81.604	-0.666	-0.221
-720.821	800.000	-0.264	-0.917
-719.806	800.000	-0.361	-1.011
-718.791	-42.905	-0.338	0.173
-717.777	-94.174	0.261	-0.072
-716.762	-200.000	-0.059	-0.808
-715.748	-5.418	0.272	0.188
-714.733	-30.120	-0.688	0.395
-713.718	499.430	0.244	-0.567
-712.704	-200.000	-0.021	-0.334
-711.689	59.441	0.209	-0.208
-710.675	126.146	-0.176	0.224
-709.660	-200.000	0.077	0.772
-708.645	-107.606	-1.015	0.224
-707.631	505.201	0.158	0.370
-706.616	37.931	0.530	-0.475
-705.602	123.734	-0.730	-0.923
-704.587	-200.000	0.080	-0.890
-703.572	-200.000	0.037	-0.902
-702.558	401.360	-0.339	0.717
-701.543	-200.000	0.076	0.624
-700.529	-160.258	0.921	0.050
-699.514	58.443	-0.208	0.205
-698.499	-43.856	0.136	-0.069
-697.485	-106.139	-0.765	0.173
-696.470	-4.798	-0.014	-0.010
-695.456	-200.000	-0.115	-0.717
-694.441	36.845	-0.290	-0.258
-693.426	96.037	-0.216	-0.249
-692.412	563.307	-0.215	-0.525
-691.397	-58.326	0.242	0.106
-690.383	38.632	0.341	0.307
-689.368	-83.177	0.485	0.157
-688.354	556.392	-0.199	-0.483
-687.339	11.538	-0.170	0.132
-686.324	-200.000	0.081	-0.863
-685.310	-77.483	0.533	0.186
-684.295	34.164	0.580	-0.509
-683.281	-97.829	0.070	-0.018
-682.266	-87.860	-1.014	0.308
-681.251	-34.840	-0.641	0.353
-680.237	36.794	0.328	-0.292
-679.222	-78.269	0.307	0.106
-678.208	76.093	0.555	0.591
-677.193	-23.959	-0.709	0.427
-676.178	-200.000	-0.149	0.928
-675.164	-34.663	-0.227	0.125
-674.149	800.000	-0.183	-0.678
-673.135	39.991	-0.133	0.120
-672.120	155.439	0.461	-0.640
-671.105	553.261	0.345	0.835
-670.091	-111.732	0.187	-0.038
-669.076	-15.668	0.705	0.453
-668.062	28.453	-0.503	0.428
-667.047	42.156	0.397	0.363
-666.032	800.000	-0.145	-0.473
-665.018	-119.173	1.165	-0.205
-664.003	-91.884	0.548	0.156
-662.989	534.799	-0.220	-0.525
-661.974	-112.147	0.630	0.128
-660.959	15.194	-0.423	0.334
-659.945	-23.749	-0.473	0.285
-658.930	55.648	-0.732	-0.714
-657.916	57.801	-0.103	0.101
-656.901	-6.762	-0.579	0.396
-655.886	148.291	0.273	-0.371
-654.872	-69.750	0.778	-0.299
-653.857	-44.816	0.376	0.189
-652.843	23.061	-0.941	0.777
-651.828	29.326	0.705	0.602
-650.814	800.000	-0.141	-0.567
-649.799	-51.490	0.242	0.114
-648.784	-11.131	-0.146	-0.097
-647.770	-57.451	-0.141	0.062
-646.755	-43.912	-0.241	-0.122
-645.741	1.467	-0.634	0.459
-644.726	-19.637	-0.561	-0.349
-643.711	-200.000	-0.233	1.221
-642.697	53.034	0.279	0.269
-641.682	-183.761	0.414	0.007
-640.668	-66.683	-0.557	-0.222
-639.653	34.648	-0.623	-0.547
-638.638	-200.000	0.044	-0.397
-637.624	203.267	0.378	-0.588
-636.609	800.000	0.293	-0.890
-635.595	-61.159	1.080	-0.458
-634.580	117.102	0.675	0.834
-633.565	-81.203	0.388	-0.129
-632.551	497.718	0.263	-0.608
-631.536	800.000	0.263	0.872
-630.522	-164.159	0.332	-0.015
-629.507	-90.404	0.220	-0.064
-628.492	6.504	0.358	0.267
-627.478	-108.714	-0.330	-0.071
-626.463	47.415	0.817	0.765
-625.449	-95.686	-0.498	0.134
-624.434	-147.387	0.464	0.040
-623.419	103.262	0.270	0.319
-622.405	296.507	0.453	0.834
-621.390	-171.755	-0.782	0.026
-620.376	276.246	-0.210	0.375
-619.361	800.000	-0.145	0.469
-618.346	135.538	-0.949	1.241
-617.332	632.397	0.046	-0.118
-616.317	240.679	-0.605	-1.015
-615.303	-112.209	-0.761	-0.153
-614.288	-200.000	-0.047	0.375
-613.273	-23.005	-0.165	0.100
-612.259	-111.789	0.138	-0.028
-611.244	800.000	-0.088	-0.298
-610.230	-181.883	-0.991	-0.019
-609.215	198.336	-0.428	0.658
-608.201	-200.000	0.007	-0.322
-607.186	800.000	-0.145	0.455
-606.171	-200.000	0.003	0.677
-605.157	-30.317	-0.754	-0.430
-604.142	-67.772	-0.901	0.354
-603.128	393.081	-0.082	-0.171
-602.113	-200.000	0.034	0.192
-601.098	-200.000	0.061	-0.335
-600.084	-120.119	-0.513	-0.088
-599.069	-8.295	0.196	-0.133
-598.055	-200.000	-0.028	0.359
-597.040	154.940	0.457	-0.631
-596.025	-154.896	-1.117	-0.074
-595.011	-175.655	-0.468	0.013
-593.996	-8.902	0.291	0.196
-592.982	15.911	-0.093	-0.073
-591.967	19.615	0.437	0.353
-590.952	800.000	-0.199	-0.763
-589.938	471.780	-0.267	-0.603
-588.923	234.283	0.218	0.361
-587.909	-135.937	0.942	-0.111
-586.894	-200.000	0.036	0.829
-585.879	-47.974	0.397	-0.193
-584.865	-105.891	0.410	-0.093
-583.850	-34.006	-0.618	-0.341
-582.836	800.000	0.029	-0.093
-581.821	18.018	-0.667	0.533
-580.806	800.000	-0.304	0.867
-579.792	227.590	-0.560	0.915
-578.777	68.388	-0.224	-0.230
-577.763	-200.000	-0.002	0.029
-576.748	-200.000	-0.105	0.904
-575.733	-48.831	-0.216	0.104
-574.719	-162.737	0.683	0.034
-573.704	-200.000	0.044	0.308
-572.690	245.661	-0.206	0.348
-571.675	-200.000	-0.053	0.423
-570.661	-131.250	-0.708	-0.094
-569.646	384.190	0.273	-0.564
-568.631	-66.667	-0.669	0.266
-567.617	-79.767	-0.515	0.174
-566.602	-67.381	0.709	-0.279
-565.588	622.404	0.186	-0.470
-564.573	-200.000	0.105	0.494
-563.558	4.992	0.270	0.199
-562.544	-144.563	-0.388	-0.036
-561.529	-23.570	0.303	-0.182
-560.515	155.629	0.216	-0.299
-559.500	-200.000	-0.084	0.401
-558.485	-103.523	-1.092	0.257
-557.471	166.061	0.176	0.250
-556.456	-152.750	-0.416	0.030
-555.442	800.000	0.225	-0.988
-554.427	32.192	-0.063	-0.055
-553.412	800.000	0.089	0.283
-552.398	-86.238	-0.465	-0.144
-551.383	128.285	0.201	-0.256
-550.369	447.888	-0.261	0.577
-549.354	-200.000	-0.076	-0.447
-548.339	-82.481	0.212	0.069
-547.325	-177.306	-0.422	-0.010
-546.310	-29.999	0.302	0.172
-545.296	263.055	0.371	0.645
-544.281	-8.722	-0.498	-0.335
-543.266	558.716	0.113	-0.273
-542.252	29.076	-0.761	0.647
-541.237	21.710	-0.452	-0.369
-540.223	126.355	-0.037	0.047
-539.208	693.927	0.031	0.083
-538.193	16.188	-0.710	0.561
-537.179	-143.127	0.178	-0.017
-536.164	98.931	0.734	0.849
-535.150	-139.153	0.611	0.066
-534.135	348.603	-0.431	-0.852
-533.121	-135.149	0.058	0.007
-532.106	-200.000	0.000	0.198
-531.091	-99.366	-0.188	-0.047
-530.077	102.104	0.264	0.309
-529.062	-144.743	-0.261	-0.024
-528.048	16.635	0.647	0.512
-527.033	-88.662	0.646	-0.192
-526.018	-109.426	0.207	-0.044
-525.004	-200.000	-0.084	-0.547
-523.989	-43.548	-0.724	0.366
-522.975	-124.725	-0.703	0.109
-521.960	-200.000	0.168	-0.795
-520.945	738.834	-0.253	0.679
-519.931	202.176	0.507	0.783
-518.916	-42.516	-0.693	0.354
-517.902	-55.648	0.565	-0.253
-516.887	197.810	0.719	-1.100
-515.872	-38.505	-0.740	-0.392
-514.858	-94.761	-0.375	-0.102
-513.843	180.705	-0.161	0.237
-512.829	559.140	0.202	0.489
-511.814	-116.242	0.310	0.057
-510.799	51.142	-0.614	0.583
-509.785	121.202	0.421	-0.525
-508.770	143.730	0.159	-0.213
-507.756	761.335	-0.043	0.115
-506.741	-125.858	-0.824	-0.124
-505.726	800.000	0.293	-1.051
-504.712	-52.255	-0.495	0.230
-503.697	242.330	0.098	0.164
-502.683	-2.769	0.593	0.415
-501.668	-139.604	0.231	0.025
-500.653	126.493	-0.382	0.484
-499.639	-64.432	-0.651	0.265
-498.624	-145.681	0.181	-0.016
-497.610	800.000	0.157	0.551
-496.595	-52.361	-0.495	-0.229
-495.581	-126.473	0.795	0.118
-494.566	-95.226	0.306	-0.082
-493.551	-119.823	0.714	-0.123
-492.537	-200.000	0.025	0.409
-491.522	358.590	-0.268	-0.536
-490.508	202.386	0.173	-0.267
-489.493	32.220	-0.183	-0.158
-488.478	-33.489	0.437	0.242
-487.464	-200.000	0.042	0.259
-486.449	-110.594	0.236	0.049
-485.435	-200.000	-0.098	-0.716
-484.420	-25.877	0.363	-0.213
-483.405	12.679	-0.387	-0.298
-482.391	-7.011	-0.411	-0.279
-481.376	-21.270	0.596	-0.364
-480.362	-113.420	-0.098	0.019
-479.347	-40.518	0.130	-0.068
-478.332	-99.956	0.298	-0.074
-477.318	144.087	-0.110	0.147
-476.303	-200.000	-0.102	-0.551
-475.289	-86.233	0.486	-0.150
-474.274	306.904	0.245	0.456
-473.259	-27.820	0.969	-0.562
-472.245	800.000	0.075	-0.235
-471.230	786.113	-0.166	-0.454
-470.216	64.591	0.454	-0.457
-469.201	-18.202	0.242	0.151
-468.186	-200.000	0.040	-0.256
-467.172	-91.817	0.516	0.146
-466.157	392.996	0.293	-0.609
-465.143	350.583	0.231	0.457
-464.128	-145.504	-0.303	0.027
-463.113	-19.591	-0.388	-0.240
-462.099	-36.266	-0.246	-0.132
-461.084	-85.075	-1.009	0.316
-460.070	162.526	0.132	-0.185
-459.055	366.940	0.102	-0.206
-458.040	-200.000	0.046	0.327
-457.026	119.747	-0.207	-0.256
-456.011	-82.950	-0.881	-0.284
-454.997	-169.867	1.401	-0.050
-453.982	-200.000	-0.032	0.368
-452.968	-200.000	-0.129	0.609
-451.953	-4.779	0.561	-0.387
-450.938	51.732	-0.145	0.138
-449.924	-88.616	0.103	0.031
-448.909	-120.018	-0.264	-0.045
-447.895	-142.613	0.491	0.048
-446.880	-91.931	0.293	-0.083
-445.865	-132.911	-1.510	-0.192
-444.851	55.965	0.291	-0.282
-443.836	-200.000	-0.011	-0.222
-442.822	-200.000	-0.057	-0.402
-441.807	800.000	0.369	-1.052
-440.792	800.000	0.087	-0.347
-439.778	-82.540	-0.341	0.110
-438.763	287.511	0.117	0.211
-437.749	255.695	-0.213	0.365
-436.734	-136.808	0.474	0.054
-435.719	-70.081	0.530	0.201
-434.705	800.000	0.082	0.260
-433.690	800.000	0.173	-0.661
-432.676	800.000	0.085	-0.320
-431.661	467.767	0.381	0.852
-430.646	13.486	-0.258	-0.200
-429.632	-167.821	-0.126	-0.005
-428.617	-29.185	-0.792	-0.453
-427.603	72.891	0.263	-0.274
-426.588	800.000	0.100	0.282
-425.573	298.712	0.096	-0.176
-424.559	-77.524	0.704	-0.243
-423.544	62.821	-0.311	0.310
-422.530	-200.000	0.100	-1.077
-421.515	-200.000	0.050	0.264
-420.500	-140.808	-1.115	0.115
-419.486	-200.000	0.088	-0.815
-418.471	-122.867	0.436	0.070
-417.457	-44.315	-0.650	0.325
-416.442	728.315	-0.150	-0.398
-415.428	-160.133	0.807	-0.044
-414.413	261.086	-0.512	0.883
-413.398	-75.869	0.432	-0.152
-412.384	-36.240	-0.504	0.271
-411.369	418.058	-0.149	0.317
-410.355	687.508	-0.322	0.839
-409.340	-200.000	0.003	0.236
-408.325	749.436	0.288	0.774
-407.311	21.254	0.740	0.599
-406.296	-3.324	-0.277	0.192
-405.282	232.958	-0.158	0.259
-404.267	-111.652	1.406	0.284
-403.252	72.641	-0.073	0.076
-402.238	-136.532	0.332	0.038
-401.223	149.990	-0.678	0.916
-400.209	291.113	0.241	0.437
-399.194	72.373	-0.327	0.339
-398.179	512.122	0.137	-0.317
-397.165	-200.000	0.052	-0.553
-396.150	93.778	-0.294	0.332
-395.136	338.211	-0.434	-0.841
-394.121	-81.528	-0.266	-0.087
-393.106	-52.567	0.165	-0.076
-392.092	800.000	-0.069	0.226
-391.077	-69.138	-0.356	0.136
-390.063	-136.459	0.355	-0.041
-389.048	87.570	-0.183	-0.202
-388.033	-104.454	0.335	-0.077
-387.019	731.247	0.385	1.026
-386.004	420.767	0.105	-0.225
-384.990	800.000	0.089	-0.300
-383.975	100.490	0.211	0.244
-382.960	74.995	0.344	0.361
-381.946	-200.000	0.162	1.744
-380.931	-200.000	-0.039	-0.333
-379.917	800.000	0.229	-0.842
-378.902	96.216	0.334	-0.380
-377.888	-160.952	0.901	-0.047
-376.873	-135.188	-1.209	-0.145
-375.858	-170.898	0.353	0.012
-374.844	94.286	-0.441	-0.498
-373.829	141.833	0.279	-0.368
-372.815	-114.987	-0.588	0.111
-371.800	65.748	-0.221	0.223
-370.785	45.302	0.526	0.483
-369.771	-90.207	0.191	0.055
-368.756	74.429	-0.793	-0.830
-367.742	800.000	-0.133	-0.499
-366.727	-117.326	-0.645	0.116
-365.712	-200.000	0.011	0.411
-364.698	800.000	0.152	-0.656
-363.683	-121.031	-0.148	0.025
-362.669	-200.000	0.084	0.430
-361.654	-200.000	-0.041	0.265
-360.639	-200.000	-0.151	-0.741
-359.625	-62.330	0.105	-0.044
-358.610	98.938	-0.400	0.459
-357.596	272.603	0.442	-0.776
-356.581	-120.787	1.079	-0.181
-355.566	800.000	-0.241	0.710
-354.552	-200.000	0.047	-0.351
-353.537	-79.329	-0.557	-0.188
-352.523	-200.000	-0.193	0.853
-351.508	763.454	-0.066	-0.178
-350.493	-118.596	-0.443	0.078
-349.479	800.000	-0.030	0.097
-348.464	45.407	0.217	-0.199
-347.450	-82.050	0.404	-0.131
-346.435	61.540	-0.419	-0.415
-345.420	-127.759	-0.796	0.114
-344.406	-51.282	-0.796	-0.370
-343.391	355.689	0.401	0.794
-342.377	-40.427	0.602	-0.311
-341.362	-95.968	0.239	-0.063
-340.348	-39.648	-0.386	-0.201
-339.333	17.888	0.493	0.390
-338.318	-102.358	0.402	-0.096
-337.304	-89.350	0.803	0.235
-336.289	396.803	0.269	-0.559
-335.275	78.474	-0.761	-0.809
-334.260	-34.914	0.437	-0.237
-333.245	-19.026	-1.165	0.720
-332.231	-200.000	-0.068	-0.915
-331.216	-181.021	-0.618	-0.012
-330.202	800.000	0.032	-0.111
-329.187	282.084	0.394	-0.702
-328.172	800.000	0.189	-0.714
-327.158	48.207	-0.398	0.370
-326.143	-200.000	-0.036	-0.261
-325.129	159.160	0.144	-0.199
-324.114	-200.000	-0.003	0.161
-323.099	-200.000	-0.019	-0.722
-322.085	-200.000	0.077	-0.398
-321.070	-129.419	0.919	0.127
-320.056	546.281	-0.340	0.808
-319.041	-200.000	-0.058	-0.606
-318.026	-43.384	-0.478	0.240
-317.012	-200.000	-0.093	0.482
-315.997	100.325	-0.138	0.159
-314.983	-53.103	-0.698	-0.319
-313.968	-19.754	-0.031	-0.019
-312.953	-63.852	0.351	0.143
-311.939	193.509	0.101	0.152
-310.924	36.986	-0.315	0.276
-309.910	62.022	0.630	0.623
-308.895	-56.115	-0.118	-0.052
-307.880	91.072	0.210	0.234
-306.866	-200.000	0.067	-0.324
-305.851	42.927	-0.417	0.377
-304.837	47.717	-0.259	0.240
-303.822	347.025	0.117	0.230
-302.807	800.000	0.254	0.755
-301.793	-200.000	-0.084	-0.697
-300.778	800.000	0.149	-0.476
-299.764	-200.000	0.092	1.001
-298.749	-200.000	-0.013	0.486
-297.735	-200.000	-0.064	1.138
-296.720	-200.000	0.060	-0.332
-295.705	-200.000	0.067	-0.346
-294.691	-0.931	-0.453	-0.318
-293.676	-110.643	0.213	-0.044
-292.662	-30.892	0.343	-0.192
-291.647	-200.000	-0.003	-0.412
-290.632	-64.988	0.367	-0.147
-289.618	339.281	0.375	-0.724
-288.603	81.639	0.653	0.701
-287.589	800.000	-0.078	0.280
-286.574	-84.526	0.270	-0.085
-285.559	35.498	0.328	0.286
-284.545	662.654	0.565	-1.445
-283.530	-41.428	0.539	0.275
-282.516	-17.540	-0.116	-0.072
-281.501	66.364	0.194	0.196
-280.486	800.000	-0.049	0.143
-279.472	-200.000	0.004	-0.177
-278.457	113.584	-0.363	-0.437
-277.443	334.751	0.457	-0.878
-276.428	-164.580	-0.761	0.034
-275.413	-200.000	0.096	0.653
-274.399	381.659	-0.214	-0.436
-273.384	-200.000	-0.030	-0.428
-272.370	-200.000	-0.076	-0.549
-271.355	-18.383	0.743	0.460
-270.340	255.778	-0.502	-0.853
-269.326	-129.102	-0.651	-0.090
-268.311	-108.826	0.340	0.072
-267.297	715.269	0.108	0.284
-266.282	-93.442	-0.170	0.047
-265.267	-160.296	-0.249	0.013
-264.253	-33.862	-0.439	0.240
-263.238	-200.000	0.031	-0.421
-262.224	552.226	0.328	-0.781
-261.209	-41.947	0.583	-0.296
-260.195	-200.000	0.062	0.404
-259.180	189.804	0.248	-0.369
-258.165	800.000	0.041	0.167
-257.151	95.680	0.545	-0.616
-256.136	52.699	-0.267	-0.253
-255.122	800.000	-0.110	-0.357
-254.107	167.657	0.423	-0.596
-253.092	-200.000	-0.106	-0.844
-252.078	-47.990	-0.125	-0.060
-251.063	-99.283	-0.232	-0.058
-250.049	-123.416	0.437	0.069
-249.034	-75.095	-0.802	-0.284
-248.019	133.017	0.511	0.654
-247.005	-200.000	-0.186	0.826
-245.990	152.985	-0.285	0.386
-244.976	-95.835	0.850	0.225
-243.961	-116.991	0.454	-0.082
-242.946	95.522	-0.320	0.361
-241.932	238.980	-0.268	-0.442
-240.917	-48.847	0.263	-0.125
-239.903	343.416	-0.604	1.173
-238.888	-200.000	0.057	0.395
-237.873	-46.986	0.875	-0.423
-236.859	32.346	-0.972	-0.831
-235.844	15.225	0.616	-0.479
-234.830	-62.448	-0.667	-0.274
-233.815	-64.315	-0.391	-0.158
-232.800	-200.000	-0.070	-0.320
-231.786	21.068	-0.437	-0.351
-230.771	7.161	0.047	0.035
-229.757	39.206	0.466	-0.413
-228.742	-144.713	-0.507	-0.046
-227.727	-70.107	-0.653	0.246
-226.713	-16.044	0.403	0.254
-225.698	-159.718	-0.323	0.018
-224.684	-57.405	0.826	0.359
-223.669	79.622	-0.159	0.168
-222.655	800.000	0.296	-1.181
-221.640	88.899	0.258	0.284
-220.625	34.557	0.270	-0.234
-219.611	-128.557	0.445	-0.062
-218.596	314.042	0.407	0.757
-217.582	354.723	-0.310	-0.609
-216.567	209.927	-0.443	-0.687
-215.552	556.503	-0.140	-0.334
-214.538	-200.000	-0.019	0.192
-213.523	75.577	-0.319	0.334
-212.509	218.335	-0.501	0.791
-211.494	800.000	-0.141	0.473
-210.479	-200.000	0.044	-0.765
-209.465	-200.000	0.109	-0.991
-208.450	398.820	0.418	-0.865
-207.436	-200.000	0.044	-0.392
-206.421	-43.007	0.587	-0.295
-205.406	-59.106	0.770	-0.329
-204.392	-200.000	-0.125	0.738
-203.377	-200.000	-0.002	0.075
-202.363	-135.173	-0.415	0.049
-201.348	48.164	-0.172	-0.159
-200.333	-93.236	0.213	0.058
-199.319	-83.351	0.557	-0.177
-198.304	34.090	-0.228	0.196
-197.290	257.582	-0.492	0.837
-196.275	-200.000	-0.022	-0.186
-195.260	800.000	0.360	-1.194
-194.246	-63.246	0.654	0.266
-193.231	60.187	0.167	0.163
-192.217	73.773	-0.100	0.103
-191.202	24.913	-0.400	0.328
-190.187	-156.159	0.196	0.012
-189.173	-200.000	-0.027	-0.831
-188.158	-9.701	-1.044	0.687
-187.144	306.919	-0.635	1.168
-186.129	800.000	-0.172	0.611
-185.114	295.507	0.135	0.244
-184.100	-27.453	0.375	0.215
-183.085	-104.484	-0.849	-0.194
-182.071	-200.000	-0.023	0.748
-181.056	581.722	-0.162	0.393
-180.042	105.600	0.280	0.327
-179.027	7.731	-0.234	-0.173
-178.012	61.851	-0.115	-0.113
-176.998	-77.173	0.431	0.148
-175.983	241.222	-0.092	0.151
-174.969	-1.196	-0.556	0.388
-173.954	40.954	-0.398	-0.354
-172.939	-131.833	0.680	0.088
-171.925	651.228	0.212	0.537
-170.910	-146.088	-0.571	-0.050
-169.896	12.180	0.286	0.218
-168.881	-182.927	0.785	-0.014
-167.866	-200.000	0.012	-0.073
-166.852	-200.000	-0.019	0.103
-165.837	168.890	-0.227	0.320
-164.823	-64.458	0.356	0.143
-163.808	-139.571	0.594	-0.063
-162.793	-0.508	-0.522	-0.366
-161.779	-94.083	0.253	-0.068
-160.764	30.224	0.130	0.110
-159.750	95.402	0.548	0.617
-158.735	800.000	0.006	-0.022
-157.720	52.430	0.452	0.426
-156.706	800.000	0.211	-0.835
-155.691	316.991	0.213	0.398
-154.677	-80.603	-0.600	0.197
-153.662	800.000	0.187	-0.558
-152.647	-137.901	0.260	-0.029
-151.633	-56.246	0.654	-0.287
-150.618	45.513	-0.361	-0.329
-149.604	-67.102	-0.251	0.098
-148.589	40.767	0.095	0.085
-147.574	-4.753	-0.230	0.157
-146.560	-119.172	-0.400	-0.069
-145.545	-187.120	1.201	0.016
-144.531	-200.000	0.045	-0.648
-143.516	800.000	-0.268	-0.815
-142.502	56.004	0.290	0.277
-141.487	157.746	-0.512	0.699
-140.472	800.000	0.302	0.925
-139.458	-28.257	0.433	-0.247
-138.443	188.941	-0.255	0.377
-137.429	107.513	-0.340	-0.399
-136.414	-3.865	0.143	0.098
-135.399	75.597	0.497	-0.518
-134.385	-200.000	0.115	-0.739
-133.370	-73.043	-0.374	-0.136
-132.356	-118.133	0.713	0.125
-131.341	34.167	0.210	0.180
-130.326	-101.479	0.915	0.220
-129.312	343.659	0.294	0.568
-128.297	-19.133	-0.223	0.137
-127.283	-82.943	-0.075	-0.024
-126.268	243.893	0.132	-0.219
-125.253	-200.000	0.265	1.233
-124.239	-200.000	-0.048	-0.260
-123.224	728.148	-0.270	-0.710
-122.210	123.681	0.141	0.174
-121.195	-148.572	-0.145	0.012
-120.180	76.611	0.323	-0.337
-119.166	211.127	-0.397	0.615
-118.151	-54.593	-0.231	-0.103
-117.137	-29.109	-0.468	-0.264
-116.122	-4.657	-0.504	0.343
-115.107	138.706	0.217	0.281
-114.093	800.000	-0.217	0.902
-113.078	-82.697	-0.559	-0.178
-112.064	304.142	0.496	0.907
-111.049	-200.000	0.103	0.662
-110.034	41.928	0.754	-0.674
-109.020	-200.000	0.112	0.690
-108.005	-155.133	-0.079	0.005
-106.991	-119.922	-0.080	0.014
-105.976	-200.000	-0.013	-0.347
-104.962	88.711	0.419	0.459
-103.947	29.920	-0.555	0.466
-102.932	-200.000	0.009	-0.649
-101.918	-109.698	0.463	-0.096
-100.903	296.919	0.190	-0.343
-99.889	785.108	-0.144	0.388
-98.874	-153.935	-0.552	0.037
-97.859	-1.526	-0.489	0.340
-96.845	-200.000	0.016	0.245
-95.830	-61.195	0.942	0.391
-94.816	53.240	-0.811	-0.765
-93.801	507.742	-0.278	-0.635
-92.786	-16.694	-0.086	-0.054
-91.772	456.684	0.177	0.388
-90.757	-172.686	-0.801	0.025
-89.743	-25.569	0.794	-0.462
-88.728	599.133	-0.401	0.980
-87.713	668.734	0.248	-0.632
-86.699	5.798	0.381	0.277
-85.684	-7.257	-0.570	0.380
-84.670	75.705	-0.197	0.205
-83.655	48.912	0.083	0.077
-82.640	552.952	-0.140	0.330
-81.626	7.738	0.688	0.507
-80.611	63.339	-0.249	-0.245
-79.597	-200.000	-0.069	-0.480
-78.582	54.959	0.139	0.132
-77.567	800.000	0.385	1.093
-76.553	800.000	0.321	1.008
-75.538	257.413	0.095	-0.161
-74.524	-77.779	-1.243	-0.423
-73.509	-30.972	-0.743	-0.413
-72.494	423.205	-0.214	-0.452
-71.480	-179.995	0.304	-0.006
-70.465	276.651	-0.154	-0.270
-69.451	-200.000	0.180	-0.870
-68.436	-26.061	-0.434	-0.251
-67.422	-117.337	0.182	-0.033
-66.407	800.000	0.270	-1.141
-65.392	-51.543	-0.384	0.176
-64.378	-97.703	-0.677	0.172
-63.363	-200.000	-0.098	-0.571
-62.349	159.726	0.442	-0.605
-61.334	264.329	-0.734	-1.256
-60.319	-200.000	-0.151	0.698
-59.305	800.000	-0.281	-1.152
-58.290	193.525	0.611	0.908
-57.276	800.000	0.821	2.336
-56.261	-200.000	97.781	605.934
-55.246	646.959	1364.337	3427.188
-54.232	202.578	2530.148	3840.262
-53.217	119.196	2139.101	2601.096
-52.203	42.881	1687.956	1512.274
-51.188	35.174	1501.668	1293.546
-50.173	32.672	1477.216	1255.784
-49.159	53.704	1529.515	1443.282
-48.144	54.344	1545.518	1462.657
-47.130	35.280	1505.457	1297.317
-46.115	32.003	1490.944	1262.754
-45.100	32.011	1487.631	1259.954
-44.086	31.901	1484.338	1256.379
-43.071	31.971	1482.970	1255.639
-42.057	31.751	1481.445	1252.824
-41.042	31.827	1479.700	1251.810
-40.027	31.896	1478.564	1251.260
-39.013	31.977	1477.336	1250.712
-37.998	32.035	1475.605	1249.579
-36.984	32.098	1474.073	1248.650
-35.969	32.055	1473.009	1247.416
-34.954	31.894	1471.661	1245.153
-33.940	31.976	1470.344	1244.538
-32.925	31.824	1468.762	1242.143
-31.911	31.951	1466.747	1241.226
-30.896	31.698	1467.002	1239.717
-29.881	31.882	1465.305	1239.451
-28.867	32.039	1463.066	1238.545
-27.852	31.796	1462.976	1236.814
-26.838	31.761	1462.393	1236.042
-25.823	31.915	1460.353	1235.286
-24.809	31.763	1458.190	1232.406
-23.794	31.894	1456.694	1231.955
-22.779	31.861	1455.878	1230.997
-21.765	31.918	1454.149	1229.862
-20.750	31.832	1453.314	1228.540
-19.736	31.993	1452.506	1228.867
-18.721	32.077	1449.584	1226.895
-17.706	31.915	1449.740	1225.921
-16.692	32.005	1447.673	1224.708
-15.677	31.828	1447.443	1223.311
-14.663	31.612	1447.564	1221.955
-13.648	31.782	1445.907	1221.618
-12.633	31.900	1444.648	1221.270
-11.619	31.805	1443.959	1220.024
-10.604	31.914	1442.926	1219.808
-9.590	31.846	1442.205	1218.712
-8.575	31.987	1440.131	1217.826
-7.560	31.841	1439.772	1216.525
-6.546	31.663	1439.563	1215.142
-5.531	31.651	1438.893	1214.453
-4.517	31.861	1437.715	1214.768
-3.502	31.802	1436.272	1213.122
-2.487	31.806	1435.764	1212.673
-1.473	31.760	1434.964	1211.649
-0.458	31.704	1433.933	1210.369
0.556	33.230	1422.773	1199.153
1.571	30.105	1397.856	1158.553
2.586	26.296	1340.777	1088.260
3.600	24.491	1260.595	1012.857
4.615	23.390	1215.153	970.233
5.629	20.247	1159.198	909.032
6.644	11.689	1074.409	800.726
7.659	4.703	1034.055	737.559
8.673	3.827	1028.751	729.579
9.688	3.657	1023.907	725.282
10.702	3.209	1023.279	722.669
11.717	3.269	1022.233	722.148
12.731	6.201	1025.604	738.243
13.746	14.923	1038.688	788.907
14.761	22.651	1046.104	831.036
15.775	24.242	1047.982	839.960
16.790	23.587	1048.084	836.879
17.804	23.880	1045.224	835.901
18.819	23.075	1044.973	831.838
19.834	23.439	1042.819	831.759
20.848	23.111	1043.107	830.375
21.863	23.266	1043.207	831.109
22.877	23.261	1042.895	830.765
23.892	23.163	1041.191	828.874
24.907	22.716	1041.087	826.624
25.921	22.779	1040.659	826.507
26.936	22.813	1039.607	825.755
27.950	22.795	1038.520	824.734
28.965	22.556	1037.657	822.861
29.980	22.581	1036.757	822.193
30.994	22.939	1034.376	821.896
32.009	23.116	1034.013	822.357
33.023	23.296	1033.332	822.582
34.038	22.971	1033.434	821.078
35.053	23.050	1032.536	820.658
36.067	23.380	1030.260	820.306
37.082	22.672	1029.839	816.621
38.096	22.993	1028.506	816.976
39.111	23.053	1028.915	817.506
40.126	23.209	1027.010	816.639
41.140	23.252	1025.657	815.689
42.155	22.704	1024.919	812.508
43.169	21.791	1024.910	808.220
44.184	22.324	1022.721	808.876
45.199	22.544	1021.746	809.041
46.213	21.951	1020.913	805.589
47.228	22.292	1020.954	807.116
48.242	22.750	1020.673	808.924
49.257	23.020	1020.046	809.591
50.271	23.156	1018.228	808.697
51.286	23.057	1018.406	808.314
52.301	23.183	1017.355	807.987
53.315	23.164	1017.085	807.612
54.330	23.028	1015.203	805.428
55.344	22.836	1014.889	804.230
56.359	22.762	1014.797	803.750
57.374	22.793	1012.881	802.302
58.388	22.907	1011.943	802.007
59.403	22.554	1012.004	800.382
60.417	22.216	1010.870	797.878
61.432	22.545	1010.089	798.685
62.447	22.498	1009.286	797.767
63.461	22.143	1009.405	796.183
64.476	22.279	1007.990	795.610
65.490	22.545	1007.219	796.131
66.505	22.095	1006.805	793.704
67.520	22.232	1005.901	793.537
68.534	22.638	1004.463	794.161
69.549	22.150	1004.213	791.698
70.563	21.939	1002.665	789.457
71.578	21.928	1001.799	788.655
72.593	21.622	1001.462	786.945
73.607	21.621	999.660	785.455
74.622	21.495	999.572	784.750
75.636	22.065	997.560	785.652
76.651	21.794	997.552	784.366
77.666	21.813	996.141	783.272
78.680	21.766	995.951	782.843
79.695	21.840	996.711	783.700
80.709	21.837	995.682	782.810
81.724	22.214	993.752	782.903
82.739	21.876	994.460	781.886
83.753	22.142	993.773	782.461
84.768	22.561	992.525	783.270
85.782	23.484	992.431	787.227
86.797	23.799	991.428	787.757
87.812	23.566	990.311	785.771
88.826	23.295	989.309	783.707
89.841	23.295	989.244	783.585
90.855	23.310	988.427	782.934
91.870	23.195	987.787	781.851
92.884	23.358	986.202	781.243
93.899	23.267	986.954	781.370
94.914	23.261	984.449	779.294
95.928	23.479	984.529	780.248
96.943	23.232	983.824	778.532
97.957	23.184	982.420	777.142
98.972	22.962	981.918	775.700
99.987	22.924	981.640	775.245
101.001	23.223	981.091	776.056
102.016	23.064	979.065	773.688
103.030	23.074	978.206	772.986
104.045	22.831	978.573	772.144
105.060	23.040	977.610	772.227
106.074	23.110	976.044	771.229
107.089	23.037	976.243	770.999
108.103	22.669	974.811	768.195
109.118	22.591	973.320	766.614
110.133	22.391	973.000	765.425
111.147	22.055	971.073	762.383
112.162	22.135	970.250	762.014
113.176	22.045	968.712	760.353
114.191	22.192	968.922	761.085
115.206	22.568	967.313	761.379
116.220	22.301	966.889	759.825
117.235	22.182	965.755	758.354
118.249	22.105	966.147	758.262
119.264	22.240	964.100	757.171
120.279	22.022	963.146	755.415
121.293	21.677	962.651	753.475
122.308	21.553	961.982	752.354
123.322	21.660	960.695	751.741
124.337	21.709	959.575	751.006
125.352	21.439	958.586	749.009
126.366	21.927	957.830	750.440
127.381	21.535	956.526	747.680
128.395	21.585	956.251	747.613
129.410	21.818	955.507	747.955
130.424	22.311	954.111	748.897
131.439	22.127	953.603	747.650
132.454	22.195	952.532	747.034
133.468	22.386	952.222	747.534
134.483	22.444	951.802	747.383
135.497	22.261	951.929	746.640
136.512	22.306	950.264	745.461
137.527	22.638	949.644	746.312
138.541	22.656	948.725	745.601
139.556	22.922	947.698	745.854
140.570	22.457	947.095	743.351
141.585	22.643	946.554	743.644
142.600	22.789	947.069	744.596
143.614	23.311	945.867	745.787
144.629	23.017	944.511	743.415
145.643	23.450	944.869	745.451
146.658	23.191	944.246	743.805
147.673	23.043	941.519	740.972
148.687	23.062	940.744	740.373
149.702	22.733	939.934	738.295
150.716	22.321	939.483	736.152
151.731	22.508	938.049	735.745
152.746	22.377	938.321	735.348
153.760	22.872	936.872	736.209
154.775	22.663	936.159	734.715
155.789	23.024	935.020	735.255
156.804	22.707	934.767	733.674
157.819	22.669	933.752	732.654
158.833	23.212	932.391	733.772
159.848	23.099	933.094	733.791
160.862	23.274	931.913	733.527
161.877	23.271	931.737	733.308
162.892	23.134	930.163	731.440
163.906	22.689	929.055	728.667
164.921	22.489	928.500	727.338
165.935	22.528	926.716	726.040
166.950	22.302	926.052	724.524
167.964	22.705	925.127	725.394
168.979	22.761	923.882	724.582
169.994	22.670	922.643	723.174
171.008	22.172	922.375	720.859
172.023	23.167	919.811	722.856
173.037	23.073	920.704	723.112
174.052	22.938	921.571	723.176
175.067	23.085	920.429	722.817
176.081	23.078	918.212	720.984
177.096	22.166	917.855	716.919
178.110	21.944	917.252	715.479
179.125	22.498	916.073	716.753
180.140	22.330	914.651	714.894
181.154	22.355	914.448	714.775
182.169	22.678	914.046	715.707
183.183	22.796	915.227	717.047
184.198	22.747	914.206	715.985
185.213	22.900	913.420	715.926
186.227	22.455	912.787	713.565
187.242	23.150	911.614	715.395
188.256	23.311	910.704	715.269
189.271	22.896	910.974	713.742
190.286	23.295	909.504	714.135
191.300	22.928	909.299	712.431
192.315	22.364	908.359	709.358
193.329	21.991	907.029	706.755
194.344	22.231	906.290	707.083
195.359	22.158	906.734	707.072
196.373	22.443	906.517	707.988
197.388	22.684	905.221	707.880
198.402	23.008	905.657	709.457
199.417	23.227	905.011	709.768
200.432	23.335	905.491	710.515
201.446	23.911	903.677	711.333
202.461	23.845	903.918	711.199
203.475	23.618	903.029	709.528
204.490	23.516	902.454	708.604
205.504	23.189	901.596	706.563
206.519	22.866	900.657	704.476
207.534	22.853	900.704	704.398
208.548	22.837	899.714	703.499
209.563	22.932	898.639	702.974
210.577	22.908	898.300	702.553
211.592	23.459	896.179	703.015
212.607	23.399	896.856	703.246
213.621	23.782	896.208	704.193
214.636	23.510	895.452	702.461
215.650	23.503	894.722	701.799
216.665	23.345	894.497	700.935
217.680	23.283	894.171	700.374
218.694	23.518	893.589	700.784
219.709	23.834	892.365	701.005
220.723	23.498	892.848	699.998
221.738	23.136	892.064	697.896
222.753	23.130	891.127	697.077
223.767	23.127	889.823	695.984
224.782	23.217	888.887	695.542
225.796	23.213	890.221	696.508
226.811	23.068	889.571	695.368
227.826	23.295	888.256	695.170
228.840	23.217	886.507	693.433
229.855	22.912	886.229	691.962
230.869	22.709	885.928	690.869
231.884	22.840	885.949	691.340
232.899	22.849	884.835	690.442
233.913	22.716	884.032	689.235
234.928	22.690	883.470	688.635
235.942	22.637	881.958	687.190
236.957	22.637	880.917	686.315
237.972	22.519	880.947	685.821
238.986	22.668	880.610	686.077
240.001	22.563	879.810	684.985
241.015	22.444	878.743	683.630
242.030	22.793	878.075	684.404
243.045	22.719	878.082	684.065
244.059	22.828	877.324	683.834
245.074	22.586	877.753	683.170
246.088	22.833	876.614	683.179
247.103	23.394	874.813	683.883
248.117	23.284	874.795	683.382
249.132	23.884	875.388	686.101
250.147	24.153	875.549	687.204
251.161	24.270	874.787	686.994
252.176	24.024	875.333	686.413
253.190	24.196	873.873	685.870
254.205	24.436	873.052	686.091
255.220	24.721	872.477	686.670
256.234	24.460	872.077	685.296
257.249	24.251	871.763	684.185
258.263	23.800	871.211	681.960
259.278	23.860	870.343	681.449
260.293	23.777	870.076	680.862
261.307	24.116	869.318	681.506
262.322	24.203	868.400	681.060
263.336	24.336	868.743	681.776
264.351	24.245	867.553	680.436
265.366	24.220	866.724	679.630
266.380	23.869	865.908	677.592
267.395	24.208	865.198	678.268
268.409	24.345	864.731	678.363
269.424	24.224	863.766	677.086
270.439	23.626	864.294	675.165
271.453	24.110	862.939	675.883
272.468	23.767	861.852	673.675
273.482	23.994	861.540	674.231
274.497	24.121	860.609	673.923
275.512	23.981	860.283	673.079
276.526	23.508	860.103	671.088
277.541	24.004	859.352	672.316
278.555	23.959	857.765	670.847
279.570	23.894	858.415	671.049
280.585	24.368	857.435	672.011
281.599	24.551	856.719	672.079
282.614	23.997	856.958	670.123
283.628	23.927	854.864	668.162
284.643	23.488	855.225	666.734
285.657	23.358	854.597	665.699
286.672	23.526	854.186	665.949
287.687	23.847	854.014	666.963
288.701	24.144	853.047	667.259
289.716	24.178	852.579	666.962
290.730	24.023	851.464	665.451
291.745	23.937	852.040	665.522
292.760	24.093	850.377	664.746
293.774	24.068	849.835	664.168
294.789	24.339	850.597	665.716
295.803	24.391	849.883	665.293
296.818	24.153	848.731	663.448
297.833	24.146	847.860	662.682
298.847	24.120	847.160	661.979
299.862	23.718	847.155	660.421
300.876	24.110	845.250	660.334
301.891	24.439	845.603	661.769
302.906	24.803	844.561	662.246
303.920	24.533	844.995	661.525
304.935	24.879	843.560	661.623
305.949	24.667	844.387	661.429
306.964	25.049	842.920	661.632
307.979	24.232	843.125	658.716
308.993	24.137	842.040	657.460
310.008	24.624	841.435	658.724
311.022	24.832	840.728	658.878
312.037	24.516	840.295	657.316
313.052	24.296	839.275	655.654
314.066	24.408	838.665	655.531
315.081	23.603	838.316	652.242
316.095	23.764	837.421	652.078
317.110	23.652	837.266	651.489
318.125	23.942	836.193	651.660
319.139	23.735	835.986	650.683
320.154	23.451	835.119	648.911
321.168	23.512	834.911	648.914
322.183	23.384	833.938	647.634
323.197	23.572	834.314	648.556
324.212	24.073	832.839	649.180
325.227	24.177	832.119	648.936
326.241	23.617	832.533	647.163
327.256	23.725	830.981	646.291
328.270	23.767	831.017	646.417
329.285	23.571	830.801	645.479
330.300	23.399	831.093	645.021
331.314	23.616	828.932	644.073
332.329	23.183	829.086	642.564
333.343	23.824	829.052	644.808
334.358	24.274	828.260	645.765
335.373	24.142	827.916	644.962
336.387	23.954	827.865	644.186
337.402	24.123	827.226	644.241
338.416	24.339	827.077	644.850
339.431	24.993	825.974	646.293
340.446	25.213	825.757	646.859
341.460	25.129	824.938	645.857
342.475	25.203	825.093	646.187
343.489	24.764	824.550	644.125
344.504	25.059	824.636	645.199
345.519	25.172	823.010	644.277
346.533	25.226	823.095	644.479
347.548	25.164	823.109	644.210
348.562	24.943	821.998	642.490
349.577	24.469	821.549	640.383
350.592	24.622	820.772	640.269
351.606	24.372	819.807	638.565
352.621	24.201	819.706	637.817
353.635	24.420	818.386	637.517
354.650	24.706	817.428	637.735
355.665	24.661	817.001	637.185
356.679	24.290	817.375	636.097
357.694	24.459	817.349	636.623
358.708	24.540	816.774	636.408
359.723	24.426	815.967	635.314
360.738	24.428	814.703	634.283
361.752	24.440	814.130	633.824
362.767	24.147	815.204	633.562
363.781	24.539	814.826	634.603
364.796	25.184	814.341	636.461
365.810	25.123	813.948	635.881
366.825	25.213	814.374	636.477
367.840	24.979	813.940	635.252
368.854	25.277	812.709	635.288
369.869	25.178	811.587	634.005
370.883	25.040	810.636	632.719
371.898	25.106	809.840	632.274
372.913	25.195	809.971	632.635
373.927	25.223	809.569	632.365
374.942	25.110	808.907	631.391
375.956	25.000	808.145	630.356
376.971	25.304	807.954	631.220
377.986	25.090	807.329	629.925
379.000	25.695	806.309	631.194
380.015	25.281	805.968	629.421
381.029	25.260	805.437	628.877
382.044	25.460	804.194	628.549
383.059	25.450	804.678	628.837
384.073	25.381	804.398	628.321
385.088	24.898	803.937	626.218
386.102	24.830	803.241	625.383
387.117	24.811	802.015	624.305
388.132	25.133	800.980	624.568
389.146	25.057	800.061	623.530
390.161	24.567	800.494	622.105
391.175	25.164	800.105	623.828
392.190	25.167	800.647	624.203
393.205	25.224	800.388	624.144
394.219	24.366	799.373	620.315
395.234	24.719	797.575	620.089
396.248	24.342	797.268	618.491
397.263	24.550	796.669	618.690
398.278	24.575	796.769	618.799
399.292	24.245	796.493	617.390
400.307	23.944	795.524	615.541
401.321	24.004	795.396	615.596
402.336	24.323	794.547	615.987
403.350	24.586	793.780	616.245
404.365	24.528	794.549	616.588
405.380	25.479	793.489	618.987
406.394	25.721	793.798	620.008
407.409	25.901	793.119	620.042
408.423	25.753	793.322	619.635
409.438	25.732	792.196	618.627
410.453	25.220	793.502	617.832
411.467	25.415	791.841	617.154
412.482	25.589	791.072	617.097
413.496	25.694	791.352	617.622
414.511	25.650	790.992	617.135
415.526	25.690	789.264	615.868
416.540	25.460	789.613	615.300
417.555	25.755	788.228	615.172
418.569	25.621	788.101	614.561
419.584	25.426	788.341	614.026
420.599	25.712	787.301	614.140
421.613	161.457	1368.820	1793.319
422.628	139.780	1453.573	1793.406
