DTS Sentinel unit serial number:	SN413079Multiplexer serial number:	ORYXHardware model number:	OX4-SRSoftware version number:	ORYX F/W v4.00 Oryx Data Collector v3.7.2.0data status	okinstallation	princeton_trtdifferential loss correction	single-endedforward channel	channel 3reverse channel	N/Adate	2019/09/16time	21:48:35forward acquisition time	60.00reverse acquisition time	0.00gamma	496.2192k internal	0.2325k external	0.2325temperature offset calibration	0.9937default loss term (dB/km)	0.3790temperature slope calibration	1.0000multiplexer offset coefficient	1.0000multiplexer slope coefficient	1.0000fibre end	0.00T internal ref (°C)	31.27T ext. ref 1 (°C)	0.06T ext. ref 2 (°C)	25.55length (m)	temperature (°C)	Stokes	anti-Stokes-747.200	-200.000	0.023	0.361
-746.185	-91.698	-0.276	0.079
-745.171	152.902	0.087	0.121
-744.156	220.548	0.075	0.121
-743.142	-89.928	0.344	0.101
-742.127	-25.319	-0.278	0.166
-741.112	38.497	0.226	0.204
-740.098	-122.634	-0.101	0.017
-739.083	-37.434	0.192	0.103
-738.069	86.814	-0.072	0.080
-737.054	800.000	-0.063	-0.245
-736.039	-36.149	0.319	-0.174
-735.025	537.952	0.112	0.268
-734.010	726.505	-0.088	0.236
-732.996	117.035	0.072	-0.090
-731.981	-169.419	-0.267	-0.010
-730.966	-200.000	0.040	-0.393
-729.952	178.026	0.188	-0.276
-728.937	633.047	-0.087	0.223
-727.923	-94.550	-0.224	0.061
-726.908	28.501	0.090	-0.077
-725.894	60.219	-0.100	0.100
-724.879	302.416	0.066	0.123
-723.864	-60.907	-0.209	0.089
-722.850	800.000	0.115	-0.380
-721.835	12.683	0.089	0.069
-720.821	800.000	-0.020	0.066
-719.806	196.299	0.106	0.163
-718.791	-200.000	0.025	-0.266
-717.777	191.661	0.261	-0.396
-716.762	92.611	-0.102	0.116
-715.748	155.723	0.114	-0.159
-714.733	158.880	-0.243	0.340
-713.718	131.260	-0.133	0.172
-712.704	-57.533	-0.187	0.082
-711.689	-27.860	-0.177	-0.103
-710.675	252.098	-0.090	-0.155
-709.660	-54.871	0.277	0.126
-708.645	151.085	-0.027	-0.037
-707.631	800.000	-0.095	-0.287
-706.616	237.505	-0.149	-0.249
-705.602	-200.000	0.022	0.246
-704.587	586.352	0.100	-0.249
-703.572	-45.920	0.178	-0.089
-702.558	800.000	0.119	-0.393
-701.543	20.229	-0.271	-0.220
-700.529	13.051	0.300	0.234
-699.514	-50.196	0.258	0.123
-698.499	800.000	-0.098	-0.312
-697.485	-73.403	0.097	-0.036
-696.470	-80.294	0.159	0.053
-695.456	174.214	0.100	0.145
-694.441	-62.895	0.314	-0.131
-693.426	-200.000	0.037	0.233
-692.412	-20.261	0.022	-0.014
-691.397	28.689	0.263	-0.224
-690.383	-200.000	0.031	-0.291
-689.368	-101.805	-0.184	-0.045
-688.354	800.000	-0.125	-0.516
-687.339	-200.000	0.024	-0.330
-686.324	644.364	0.067	-0.172
-685.310	-69.243	-0.317	-0.123
-684.295	-176.646	0.298	-0.008
-683.281	-27.131	0.368	-0.216
-682.266	442.462	0.046	-0.101
-681.251	13.243	-0.185	-0.144
-680.237	-48.613	-0.025	0.012
-679.222	156.937	0.123	0.171
-678.208	-20.934	0.206	0.127
-677.193	-200.000	-0.053	-0.386
-676.178	-145.019	-0.173	-0.016
-675.164	-60.972	-0.303	-0.129
-674.149	84.401	0.129	-0.142
-673.135	75.196	-0.404	-0.428
-672.120	-165.190	-0.216	-0.010
-671.105	-67.955	0.217	-0.085
-670.091	-200.000	-0.007	-0.139
-669.076	-102.134	-0.193	0.047
-668.062	-200.000	-0.038	0.171
-667.047	6.592	-0.228	0.170
-666.032	-200.000	-0.055	-0.250
-665.018	25.378	-0.055	0.046
-664.003	-200.000	-0.011	-0.105
-662.989	-152.729	0.163	-0.012
-661.974	-200.000	-0.035	-0.192
-660.959	26.321	0.124	0.104
-659.945	-102.796	0.174	0.042
-658.930	-129.002	-0.274	-0.039
-657.916	27.017	-0.131	0.111
-656.901	-174.872	0.202	0.006
-655.886	-63.356	0.286	0.118
-654.872	-117.900	0.093	-0.017
-653.857	-32.875	0.260	0.145
-652.843	800.000	-0.093	0.406
-651.828	-89.213	-0.187	0.055
-650.814	-99.590	-0.052	0.013
-649.799	68.867	-0.074	-0.076
-648.784	-32.740	0.098	0.055
-647.770	322.879	-0.042	-0.080
-646.755	-200.000	-0.003	0.052
-645.741	223.805	-0.089	0.145
-644.726	-161.470	0.067	-0.003
-643.711	47.083	-0.251	0.235
-642.697	-200.000	0.004	0.025
-641.682	576.807	-0.145	-0.356
-640.668	-142.386	-0.353	0.035
-639.653	-137.582	-0.248	-0.028
-638.638	-200.000	0.014	0.069
-637.624	-94.053	0.144	-0.040
-636.609	474.797	-0.152	-0.345
-635.595	-54.927	0.147	-0.066
-634.580	24.124	-0.147	-0.122
-633.565	-200.000	0.002	0.023
-632.551	800.000	-0.042	0.168
-631.536	-43.529	0.247	0.125
-630.522	-137.143	-0.349	0.040
-629.507	216.553	0.201	0.320
-628.492	-130.765	0.091	-0.012
-627.478	-38.235	-0.070	0.037
-626.463	-200.000	0.001	-0.044
-625.449	179.072	0.056	-0.082
-624.434	-200.000	-0.040	-0.218
-623.419	193.474	-0.110	0.168
-622.405	94.742	0.130	0.148
-621.390	105.949	0.204	-0.242
-620.376	-39.629	0.211	0.111
-619.361	52.886	0.126	-0.121
-618.346	-95.309	-0.222	-0.060
-617.332	673.649	0.032	0.084
-616.317	238.524	-0.082	-0.136
-615.303	185.679	-0.087	-0.129
-614.288	800.000	0.133	0.533
-613.273	-10.220	0.284	0.189
-612.259	-200.000	0.037	0.195
-611.244	-80.601	-0.195	-0.065
-610.230	-108.957	-0.389	-0.083
-609.215	800.000	0.008	-0.028
-608.201	106.907	-0.044	0.053
-607.186	-89.700	-0.253	-0.074
-606.171	-110.263	0.157	-0.033
-605.157	-200.000	0.020	-0.392
-604.142	-67.067	0.125	0.049
-603.128	59.377	-0.127	0.126
-602.113	6.866	-0.085	0.064
-601.098	-200.000	-0.015	-0.088
-600.084	-62.252	-0.064	-0.027
-599.069	166.881	-0.251	0.358
-598.055	800.000	-0.064	-0.212
-597.040	-200.000	0.057	-0.441
-596.025	0.569	0.488	-0.350
-595.011	559.273	-0.205	0.497
-593.996	800.000	-0.066	0.195
-592.982	-33.727	0.321	-0.177
-591.967	-43.584	0.172	-0.087
-590.952	800.000	-0.150	-0.551
-589.938	98.747	0.052	-0.061
-588.923	-200.000	0.014	-0.186
-587.909	-129.004	0.148	-0.021
-586.894	-43.924	0.040	-0.020
-585.879	-102.504	0.059	0.014
-584.865	-47.319	0.240	0.117
-583.850	-125.170	0.417	-0.064
-582.836	800.000	-0.069	0.268
-581.821	36.487	-0.051	0.045
-580.806	-200.000	0.007	-0.070
-579.792	-83.703	0.260	0.083
-578.777	502.885	0.154	0.357
-577.763	98.456	0.198	0.228
-576.748	-88.548	-0.218	-0.065
-575.733	-200.000	0.037	0.171
-574.719	682.755	-0.080	0.209
-573.704	-98.172	0.137	-0.035
-572.690	-60.261	-0.191	-0.082
-571.675	-53.968	-0.178	-0.081
-570.661	25.184	0.115	-0.095
-569.646	-200.000	-0.018	0.249
-568.631	-47.419	-0.296	-0.144
-567.617	12.735	-0.128	0.099
-566.602	-114.596	-0.300	-0.058
-565.588	-200.000	-0.041	0.224
-564.573	-200.000	0.007	-0.171
-563.558	101.603	0.258	-0.302
-562.544	-123.141	-0.213	0.034
-561.529	146.114	0.112	0.151
-560.515	-178.635	0.121	-0.003
-559.500	182.493	-0.150	0.222
-558.485	-24.922	0.068	0.041
-557.471	15.151	-0.169	0.133
-556.456	-97.242	-0.168	-0.044
-555.442	-200.000	-0.011	-0.086
-554.427	141.082	-0.175	-0.232
-553.412	19.454	-0.066	0.053
-552.398	-63.463	-0.174	-0.072
-551.383	68.747	-0.081	0.083
-550.369	-1.048	0.350	-0.248
-549.354	-200.000	-0.002	0.280
-548.339	782.930	-0.043	0.119
-547.325	-200.000	0.011	-0.137
-546.310	340.845	0.065	0.127
-545.296	800.000	0.038	-0.110
-544.281	-43.748	0.117	0.059
-543.266	230.832	-0.126	-0.207
-542.252	-200.000	-0.011	-0.176
-541.237	138.905	-0.088	0.116
-540.223	-62.282	0.242	0.101
-539.208	217.339	-0.191	-0.304
-538.193	-200.000	-0.045	-0.202
-537.179	49.822	0.225	0.212
-536.164	34.041	-0.160	-0.139
-535.150	8.713	0.099	0.075
-534.135	-12.665	-0.457	-0.298
-533.121	186.936	0.075	0.112
-532.106	731.431	0.157	0.420
-531.091	9.139	0.135	0.102
-530.077	135.488	0.246	-0.320
-529.062	-200.000	-0.032	-0.290
-528.048	-185.613	0.390	-0.006
-527.033	175.963	0.122	0.178
-526.018	202.413	-0.176	-0.272
-525.004	-120.639	0.199	0.034
-523.989	-200.000	-0.025	0.280
-522.975	29.178	0.207	0.176
-521.960	-27.932	-0.296	-0.171
-520.945	800.000	0.036	-0.121
-519.931	-89.398	-0.394	0.116
-518.916	-89.356	0.110	-0.032
-517.902	-200.000	0.005	0.137
-516.887	-147.852	0.159	0.013
-515.872	30.659	-0.152	0.130
-514.858	-114.340	0.461	0.089
-513.843	-138.708	-0.300	0.033
-512.829	-195.904	0.218	0.002
-511.814	150.011	-0.157	0.214
-510.799	-200.000	-0.007	-0.081
-509.785	800.000	-0.075	-0.284
-508.770	198.549	-0.028	-0.043
-507.756	288.515	-0.054	-0.097
-506.741	661.962	-0.006	-0.015
-505.726	-119.020	0.401	0.070
-504.712	81.293	-0.224	-0.242
-503.697	-200.000	0.010	0.356
-502.683	-21.178	0.089	0.054
-501.668	-200.000	0.032	-0.160
-500.653	244.098	-0.097	-0.163
-499.639	-120.504	-0.207	-0.035
-498.624	-159.246	-0.160	-0.009
-497.610	-13.453	-0.095	-0.062
-496.595	-51.691	-0.368	-0.171
-495.581	26.223	-0.324	0.270
-494.566	-178.420	-0.169	-0.004
-493.551	-200.000	0.006	-0.440
-492.537	-23.003	0.144	-0.087
-491.522	-97.913	0.337	0.087
-490.508	-122.588	0.177	0.029
-489.493	302.807	0.107	-0.199
-488.478	-200.000	-0.073	0.000
-487.464	-200.000	0.004	0.063
-486.449	-105.419	-0.072	-0.016
-485.435	-200.000	-0.025	0.434
-484.420	149.692	0.107	-0.145
-483.405	-52.475	-0.250	0.116
-482.391	-156.671	0.292	-0.018
-481.376	21.789	0.167	0.136
-480.362	670.376	-0.026	-0.067
-479.347	-158.198	-0.312	-0.018
-478.332	-141.003	-0.120	-0.012
-477.318	800.000	-0.053	0.151
-476.303	-200.000	-0.039	0.242
-475.289	-53.545	0.190	-0.087
-474.274	-53.047	-0.104	-0.048
-473.259	-164.595	0.256	0.012
-472.245	438.725	-0.081	-0.177
-471.230	-164.556	0.059	0.003
-470.216	-62.395	0.137	-0.057
-469.201	-163.217	0.177	0.008
-468.186	-38.683	0.210	-0.110
-467.172	35.879	0.136	0.120
-466.157	457.392	-0.069	0.153
-465.143	50.493	0.035	0.033
-464.128	93.913	-0.093	0.105
-463.113	-115.307	-0.173	-0.033
-462.099	-200.000	-0.016	-0.103
-461.084	-190.283	0.174	-0.002
-460.070	800.000	-0.061	0.222
-459.055	122.758	0.173	-0.216
-458.040	-120.580	-0.334	0.056
-457.026	-109.579	-0.171	-0.036
-456.011	209.353	-0.042	0.066
-454.997	-200.000	-0.006	-0.057
-453.982	316.455	0.149	0.281
-452.968	363.473	0.213	0.427
-451.953	-151.767	0.064	0.005
-450.938	800.000	0.079	-0.316
-449.924	270.416	-0.208	0.365
-448.909	800.000	0.068	0.251
-447.895	33.867	0.260	-0.226
-446.880	-200.000	-0.018	-0.160
-445.865	37.570	0.089	-0.079
-444.851	800.000	0.097	-0.279
-443.836	-29.660	-0.116	-0.066
-442.822	-103.024	-0.244	0.058
-441.807	-168.126	0.251	-0.010
-440.792	154.684	0.147	-0.201
-439.778	800.000	-0.025	0.087
-438.763	-76.966	-0.135	0.047
-437.749	226.515	-0.083	0.134
-436.734	-142.665	-0.252	-0.025
-435.719	-171.901	-0.226	0.007
-434.705	516.220	-0.156	0.364
-433.690	164.232	0.198	0.278
-432.676	-100.878	0.051	0.012
-431.661	325.137	-0.072	-0.138
-430.646	185.039	-0.125	-0.185
-429.632	544.300	0.136	-0.325
-428.617	99.415	0.143	-0.165
-427.603	119.907	-0.163	0.201
-426.588	307.623	-0.091	-0.169
-425.573	733.001	-0.028	-0.074
-424.559	-58.458	0.234	-0.101
-423.544	-200.000	-0.011	0.240
-422.530	800.000	-0.036	0.116
-421.515	-146.373	0.118	0.010
-420.500	90.386	0.178	-0.199
-419.486	-58.492	-0.121	0.053
-418.471	317.584	0.020	0.038
-417.457	117.117	0.137	-0.167
-416.442	-200.000	0.018	0.138
-415.428	346.630	0.139	0.273
-414.413	-200.000	-0.029	0.248
-413.398	-110.035	-0.337	0.070
-412.384	-92.062	-0.229	-0.065
-411.369	-64.473	0.180	-0.073
-410.355	-200.000	0.009	-0.125
-409.340	-33.880	-0.111	-0.061
-408.325	6.198	-0.139	0.103
-407.311	-79.358	0.444	0.150
-406.296	2.889	-0.245	-0.177
-405.282	-52.386	0.211	0.097
-404.267	0.851	-0.351	0.250
-403.252	25.077	0.308	-0.254
-402.238	-173.560	0.085	0.003
-401.223	-50.648	0.208	0.098
-400.209	-26.806	-0.279	-0.163
-399.194	800.000	-0.108	-0.310
-398.179	-31.765	-0.252	0.141
-397.165	-94.392	-0.298	0.081
-396.150	800.000	0.033	-0.092
-395.136	-200.000	-0.035	0.604
-394.121	-96.377	-0.050	0.013
-393.106	-36.179	-0.087	0.047
-392.092	-96.038	0.326	-0.086
-391.077	-65.151	-0.170	0.068
-390.063	496.281	0.017	0.039
-389.048	-84.413	0.299	-0.094
-388.033	-50.948	-0.257	-0.120
-387.019	542.210	-0.074	0.176
-386.004	-200.000	-0.016	-0.168
-384.990	-111.160	0.039	-0.008
-383.975	-18.845	-0.222	0.138
-382.960	-73.496	0.260	-0.094
-381.946	22.335	-0.281	0.228
-380.931	-200.000	-0.004	0.071
-379.917	-200.000	-0.029	0.134
-378.902	16.776	-0.074	-0.059
-377.888	-200.000	0.004	-0.289
-376.873	-120.471	-0.322	0.054
-375.858	-102.997	-0.035	-0.008
-374.844	-200.000	0.029	-0.321
-373.829	238.878	0.145	0.240
-372.815	35.745	-0.257	-0.224
-371.800	-200.000	0.233	0.000
-370.785	159.402	0.081	0.113
-369.771	-28.014	-0.182	-0.105
-368.756	-163.447	-0.228	-0.011
-367.742	227.147	0.144	0.233
-366.727	-200.000	0.024	0.236
-365.712	29.327	0.198	-0.167
-364.698	24.545	0.179	-0.147
-363.683	303.743	0.046	0.085
-362.669	-89.368	0.355	-0.104
-361.654	44.963	-0.242	0.221
-360.639	-7.481	-0.313	-0.211
-359.625	116.264	0.044	0.054
-358.610	140.189	0.102	-0.134
-357.596	149.785	0.155	-0.209
-356.581	-200.000	0.000	0.193
-355.566	315.524	0.312	0.585
-354.552	285.279	0.330	0.591
-353.537	-200.000	0.030	-0.259
-352.523	295.389	-0.095	-0.173
-351.508	800.000	-0.131	0.528
-350.493	-108.743	-0.255	-0.054
-349.479	-4.262	0.292	0.201
-348.464	783.664	-0.085	-0.231
-347.450	-56.055	0.079	0.035
-346.435	-103.643	-0.285	-0.066
-345.420	-200.000	0.010	-0.359
-344.406	800.000	-0.026	-0.099
-343.391	137.287	0.198	0.257
-342.377	-200.000	-0.018	0.215
-341.362	800.000	0.053	-0.146
-340.348	68.440	0.233	-0.237
-339.333	713.093	0.106	-0.279
-338.318	-200.000	-0.016	-0.223
-337.304	59.985	-0.123	0.121
-336.289	800.000	0.027	0.086
-335.275	31.718	0.154	-0.131
-334.260	-151.045	-0.209	0.016
-333.245	59.690	-0.065	-0.064
-332.231	-49.706	-0.243	-0.115
-331.216	653.103	-0.149	-0.378
-330.202	800.000	-0.039	0.160
-329.187	7.962	-0.081	-0.060
-328.172	-98.291	0.042	-0.011
-327.158	-200.000	0.004	0.208
-326.143	-200.000	0.009	0.246
-325.129	387.856	0.031	-0.064
-324.114	-25.002	0.204	0.120
-323.099	-116.028	0.245	-0.045
-322.085	-37.761	0.132	-0.069
-321.070	4.190	-0.140	-0.102
-320.056	-95.247	-0.117	0.031
-319.041	-127.373	0.306	0.044
-318.026	-111.041	0.080	-0.016
-317.012	125.106	-0.081	0.101
-315.997	575.109	0.133	0.321
-314.983	-200.000	-0.073	0.413
-313.968	-200.000	-0.068	0.520
-312.953	44.902	-0.526	-0.481
-311.939	-13.530	-0.091	-0.059
-310.924	800.000	-0.053	-0.218
-309.910	59.521	0.071	0.069
-308.895	-200.000	-0.032	-0.204
-307.880	-70.410	-0.457	0.172
-306.866	136.404	-0.124	0.161
-305.851	36.555	-0.118	0.103
-304.837	-60.985	-0.208	-0.087
-303.822	-44.297	0.044	-0.022
-302.807	46.001	0.134	0.123
-301.793	800.000	-0.025	0.078
-300.778	-200.000	0.001	-0.087
-299.764	-200.000	0.003	-0.314
-298.749	-33.346	-0.269	-0.148
-297.735	800.000	-0.133	-0.420
-296.720	489.731	0.100	0.226
-295.705	-8.717	-0.285	-0.190
-294.691	31.505	0.154	-0.131
-293.676	231.473	-0.014	0.022
-292.662	-200.000	0.019	-0.116
-291.647	147.661	0.080	-0.107
-290.632	557.894	-0.106	0.253
-289.618	800.000	-0.069	0.276
-288.603	1.645	0.143	0.102
-287.589	-47.764	-0.156	-0.075
-286.574	-33.160	0.404	0.222
-285.559	-157.220	0.549	-0.033
-284.545	29.023	0.132	0.111
-283.530	-43.377	0.074	0.037
-282.516	-200.000	-0.052	0.308
-281.501	-30.623	0.164	-0.092
-280.486	-88.973	-0.221	0.065
-279.472	-200.000	0.038	-0.435
-278.457	-44.461	-0.222	0.110
-277.443	-62.473	-0.083	-0.034
-276.428	277.690	-0.179	-0.315
-275.413	416.529	0.092	0.194
-274.399	-200.000	-0.028	0.327
-273.384	43.613	-0.411	-0.373
-272.370	-38.212	0.121	0.063
-271.355	-18.923	-0.183	0.113
-270.340	-118.261	0.258	0.046
-269.326	191.601	-0.130	-0.193
-268.311	-200.000	-0.044	-0.281
-267.297	268.235	0.239	-0.415
-266.282	89.778	0.192	0.212
-265.267	-184.555	0.107	-0.002
-264.253	429.945	0.080	0.170
-263.238	65.012	-0.140	-0.140
-262.224	-200.000	-0.029	-0.346
-261.209	121.189	-0.136	-0.168
-260.195	-166.403	0.090	0.004
-259.180	-48.405	-0.213	-0.102
-258.165	-42.082	0.216	-0.109
-257.151	-107.671	-0.112	-0.024
-256.136	-129.787	-0.215	0.029
-255.122	-200.000	0.084	-0.527
-254.107	52.909	0.329	-0.311
-253.092	277.040	0.058	0.101
-252.078	-200.000	0.034	0.303
-251.063	-121.558	-0.061	-0.010
-250.049	-151.790	0.610	0.044
-249.034	-119.210	-0.125	0.022
-248.019	-89.233	-0.320	-0.093
-247.005	-200.000	-0.023	-0.275
-245.990	90.340	0.085	-0.094
-244.976	355.602	-0.083	0.163
-243.961	-200.000	0.013	0.205
-242.946	76.804	-0.136	0.143
-241.932	775.604	0.061	-0.165
-240.917	-200.000	-0.013	-0.333
-239.903	-158.367	-0.333	0.019
-238.888	-200.000	0.002	-0.282
-237.873	-63.410	0.161	-0.065
-236.859	13.011	-0.071	-0.055
-235.844	171.229	0.153	-0.218
-234.830	-49.413	-0.222	0.105
-233.815	800.000	0.079	0.245
-232.800	-113.266	0.358	0.070
-231.786	248.462	0.194	-0.325
-230.771	-64.550	0.040	-0.016
-229.757	-2.332	-0.187	-0.130
-228.742	-171.984	-0.257	-0.008
-227.727	-74.777	-0.051	0.018
-226.713	-127.483	-0.301	-0.043
-225.698	7.656	0.195	0.144
-224.684	69.480	-0.166	-0.169
-223.669	-104.054	0.200	-0.046
-222.655	314.271	0.091	0.170
-221.640	800.000	-0.032	0.101
-220.625	79.773	-0.151	0.161
-219.611	-49.781	0.312	0.147
-218.596	800.000	-0.053	-0.211
-217.582	-200.000	-0.005	-0.151
-216.567	-200.000	-0.036	-0.298
-215.552	96.798	0.260	-0.294
-214.538	-108.490	-0.162	-0.034
-213.523	385.620	-0.077	-0.157
-212.509	-200.000	-0.003	-0.141
-211.494	-144.073	-0.507	-0.047
-210.479	-68.632	0.229	-0.088
-209.465	-45.202	0.149	0.073
-208.450	800.000	-0.050	0.153
-207.436	-200.000	0.009	-0.226
-206.421	800.000	-0.029	0.118
-205.406	-200.000	-0.036	0.274
-204.392	-200.000	0.011	-0.206
-203.377	136.105	0.092	-0.118
-202.363	-77.750	0.184	-0.063
-201.348	-147.142	0.239	-0.020
-200.333	-49.015	0.128	-0.061
-199.319	53.087	0.274	0.259
-198.304	-42.022	-0.163	0.083
-197.290	407.400	0.109	-0.227
-196.275	383.469	0.085	0.172
-195.260	48.061	-0.237	0.219
-194.246	-200.000	-0.001	0.068
-193.231	-49.104	-0.087	0.041
-192.217	107.597	-0.240	0.282
-191.202	105.486	0.206	0.240
-190.187	800.000	0.108	-0.394
-189.173	337.747	0.048	-0.092
-188.158	800.000	-0.029	-0.090
-187.144	-200.000	-0.013	0.352
-186.129	-161.886	0.227	0.011
-185.114	377.891	-0.082	-0.166
-184.100	72.974	0.187	-0.193
-183.085	-200.000	-0.056	0.420
-182.071	-200.000	-0.037	-0.180
-181.056	254.449	0.151	-0.256
-180.042	-102.304	0.298	0.071
-179.027	392.844	-0.111	0.227
-178.012	-4.591	0.174	0.119
-176.998	-145.849	-0.076	0.007
-175.983	-200.000	-0.071	0.389
-174.969	-46.614	-0.110	-0.053
-173.954	452.746	0.138	0.300
-172.939	-58.191	-0.156	-0.067
-171.925	333.204	-0.064	0.122
-170.910	290.506	0.123	-0.220
-169.896	800.000	0.050	0.173
-168.881	-5.021	0.264	0.179
-167.866	-32.735	0.187	0.103
-166.852	33.915	0.264	0.227
-165.837	-200.000	0.073	0.344
-164.823	800.000	0.052	0.192
-163.808	-47.735	-0.388	0.185
-162.793	800.000	-0.038	0.148
-161.779	64.269	0.205	0.204
-160.764	800.000	-0.125	-0.403
-159.750	65.296	-0.107	0.106
-158.735	123.509	0.126	-0.156
-157.720	-200.000	-0.011	0.070
-156.706	-91.791	0.139	-0.039
-155.691	-200.000	-0.066	-0.552
-154.677	98.271	-0.014	-0.016
-153.662	24.806	-0.037	0.030
-152.647	-200.000	-0.069	0.363
-151.633	-200.000	-0.022	-0.197
-150.618	19.590	0.198	0.157
-149.604	800.000	-0.099	0.271
-148.589	-66.146	-0.186	0.073
-147.574	-104.469	-0.236	0.054
-146.560	23.151	-0.186	0.151
-145.545	-133.755	0.264	0.032
-144.531	30.411	-0.108	-0.091
-143.516	-70.109	0.332	-0.125
-142.502	34.457	0.128	-0.110
-141.487	514.259	-0.074	0.170
-140.472	-1.112	0.258	0.180
-139.458	36.158	0.317	0.275
-138.443	146.044	-0.106	-0.140
-137.429	-94.715	0.246	0.066
-136.414	-103.795	0.167	0.039
-135.399	-200.000	0.015	0.381
-134.385	-28.560	0.135	-0.077
-133.370	215.500	0.117	-0.182
-132.356	55.489	0.114	-0.109
-131.341	-86.302	-0.230	0.070
-130.326	106.095	-0.111	0.129
-129.312	-200.000	0.022	-0.126
-128.297	-131.166	-0.170	-0.022
-127.283	-164.193	-0.185	-0.008
-126.268	-200.000	0.033	-0.261
-125.253	18.124	0.414	0.325
-124.239	304.634	-0.066	0.121
-123.224	44.406	-0.100	-0.091
-122.210	150.204	-0.129	0.173
-121.195	-38.302	-0.324	0.169
-120.180	266.404	0.075	-0.128
-119.166	244.796	-0.174	-0.288
-118.151	-63.737	-0.149	-0.060
-117.137	-200.000	-0.021	0.163
-116.122	-200.000	-0.006	-0.510
-115.107	-200.000	-0.078	-0.361
-114.093	-128.229	-0.109	-0.015
-113.078	312.767	-0.084	-0.155
-112.064	225.893	-0.048	-0.076
-111.049	175.319	-0.113	-0.161
-110.034	22.630	-0.231	-0.186
-109.020	-68.509	-0.154	0.059
-108.005	-117.301	0.356	-0.064
-106.991	111.761	0.208	-0.247
-105.976	158.102	0.236	0.322
-104.962	-76.245	0.264	-0.092
-103.947	20.878	-0.088	0.070
-102.932	241.076	-0.123	0.201
-101.918	-200.000	0.003	0.058
-100.903	-52.130	-0.094	-0.043
-99.889	-200.000	0.002	0.124
-98.874	280.615	-0.123	-0.216
-97.859	-75.333	-0.072	0.025
-96.845	-200.000	0.017	-0.284
-95.830	-200.000	0.023	0.112
-94.816	108.382	-0.210	0.247
-93.801	333.177	0.117	-0.223
-92.786	-147.289	0.210	-0.018
-91.772	-73.293	-0.364	-0.131
-90.757	-200.000	-0.041	-0.509
-89.743	-71.868	-0.043	-0.016
-88.728	800.000	0.045	0.127
-87.713	-80.714	0.304	-0.099
-86.699	-151.246	0.082	0.006
-85.684	800.000	-0.067	-0.226
-84.670	-114.304	0.264	-0.050
-83.655	-32.114	0.205	-0.113
-82.640	-200.000	-0.022	-0.226
-81.626	-200.000	-0.042	0.252
-80.611	357.770	-0.098	0.193
-79.597	800.000	0.009	0.032
-78.582	122.251	0.156	0.191
-77.567	151.589	0.108	-0.145
-76.553	265.844	0.102	-0.176
-75.538	118.519	0.291	-0.353
-74.524	-200.000	0.054	-0.234
-73.509	800.000	0.071	-0.288
-72.494	-200.000	0.000	0.305
-71.480	-145.754	0.224	0.020
-70.465	-22.381	-0.047	0.028
-69.451	297.357	-0.019	-0.034
-68.436	-145.942	0.187	-0.016
-67.422	128.602	0.078	-0.098
-66.407	-200.000	-0.045	0.359
-65.392	203.190	0.194	-0.295
-64.378	-200.000	0.013	0.487
-63.363	-200.000	0.007	-0.142
-62.349	-7.381	-0.161	-0.107
-61.334	125.709	-0.799	-0.991
-60.319	80.542	0.432	0.458
-59.305	-200.000	-0.232	-1.154
-58.290	256.783	0.741	1.251
-57.276	292.415	0.951	1.703
-56.261	-200.000	98.896	590.494
-55.246	520.145	1402.687	3230.157
-54.232	158.950	2571.727	3510.669
-53.217	110.679	2156.440	2547.788
-52.203	41.766	1693.643	1507.872
-51.188	34.451	1503.441	1289.256
-50.173	32.052	1476.743	1250.356
-49.159	51.919	1527.506	1428.392
-48.144	53.413	1545.766	1455.540
-47.130	34.695	1504.290	1291.426
-46.115	31.557	1489.662	1257.767
-45.100	31.242	1486.597	1253.012
-44.086	31.278	1484.292	1251.263
-43.071	31.225	1482.570	1249.409
-42.057	31.248	1480.940	1248.137
-41.042	31.262	1479.069	1246.607
-40.027	31.204	1477.990	1245.260
-39.013	31.155	1476.651	1243.752
-37.998	31.203	1475.176	1242.783
-36.984	31.330	1473.285	1241.985
-35.969	31.260	1472.001	1240.390
-34.954	31.231	1471.386	1239.630
-33.940	31.251	1470.230	1238.735
-32.925	31.333	1468.273	1237.580
-31.911	31.396	1466.681	1236.612
-30.896	31.384	1465.982	1235.893
-29.881	31.409	1464.539	1234.791
-28.867	31.367	1463.117	1233.268
-27.852	31.294	1462.227	1231.988
-26.838	31.347	1460.723	1231.020
-25.823	31.277	1459.412	1229.402
-24.809	31.296	1457.605	1227.960
-23.794	31.340	1456.232	1227.039
-22.779	31.305	1455.383	1226.045
-21.765	31.225	1454.418	1224.663
-20.750	31.237	1453.100	1223.582
-19.736	31.298	1451.514	1222.595
-18.721	31.308	1450.788	1222.003
-17.706	31.202	1449.425	1220.112
-16.692	31.269	1448.526	1219.747
-15.677	31.258	1447.260	1218.559
-14.663	31.151	1446.844	1217.463
-13.648	31.236	1445.354	1216.712
-12.633	31.221	1444.813	1216.114
-11.619	31.318	1443.411	1215.514
-10.604	31.291	1442.928	1214.886
-9.590	31.116	1442.082	1212.984
-8.575	31.278	1441.049	1213.122
-7.560	31.255	1440.157	1212.174
-6.546	31.204	1439.434	1211.189
-5.531	31.223	1438.699	1210.640
-4.517	31.207	1437.869	1209.789
-3.502	31.210	1436.445	1208.568
-2.487	31.194	1435.185	1207.353
-1.473	31.328	1433.858	1207.059
-0.458	31.125	1433.291	1205.221
0.556	29.229	1423.930	1194.507
1.571	26.310	1399.216	1155.046
2.586	22.876	1339.976	1084.989
3.600	21.183	1259.971	1010.331
4.615	20.053	1215.410	968.199
5.629	17.248	1159.779	908.822
6.644	8.657	1074.620	799.278
7.659	1.264	1033.679	733.140
8.673	0.235	1027.631	723.842
9.688	-0.009	1024.736	720.572
10.702	-0.022	1023.083	719.285
11.717	0.046	1021.182	718.207
12.731	2.745	1023.922	732.980
13.746	11.242	1035.416	782.059
14.761	17.350	1042.410	816.688
15.775	17.393	1042.475	816.874
16.790	16.497	1039.166	809.920
17.804	15.197	1037.829	802.582
18.819	14.397	1035.813	797.127
19.834	14.153	1034.311	794.736
20.848	13.811	1033.514	792.420
21.863	13.436	1032.897	790.089
22.877	13.284	1031.753	788.420
23.892	13.056	1030.866	786.582
24.907	12.979	1030.033	785.512
25.921	13.034	1029.390	785.211
26.936	12.947	1029.412	784.747
27.950	13.103	1028.105	784.420
28.965	13.065	1027.539	783.739
29.980	13.047	1026.825	783.041
30.994	13.287	1025.489	783.089
32.009	13.330	1024.672	782.600
33.023	13.260	1024.033	781.711
34.038	13.303	1023.085	781.123
35.053	13.356	1022.221	780.643
36.067	13.170	1022.078	779.590
37.082	13.318	1020.420	778.949
38.096	13.233	1020.142	778.272
39.111	13.304	1019.183	777.806
40.126	13.296	1018.598	777.253
41.140	13.213	1017.624	776.048
42.155	13.177	1016.599	775.032
43.169	13.062	1015.985	773.956
44.184	13.064	1014.340	772.641
45.199	12.914	1013.768	771.438
46.213	13.082	1012.567	771.239
47.228	13.000	1011.632	770.076
48.242	13.102	1010.785	769.839
49.257	13.238	1009.719	769.594
50.271	13.064	1008.945	768.125
51.286	13.186	1008.025	767.924
52.301	13.187	1007.225	767.250
53.315	13.212	1006.295	766.591
54.330	13.177	1005.749	765.946
55.344	13.069	1005.278	765.018
56.359	13.225	1003.316	764.177
57.374	13.029	1003.369	763.243
58.388	13.088	1002.449	762.748
59.403	13.134	1001.239	761.976
60.417	12.890	1001.145	760.708
61.432	13.022	1000.195	760.529
62.447	12.933	999.623	759.617
63.461	12.913	998.487	758.594
64.476	13.005	997.384	758.112
65.490	13.006	996.411	757.307
66.505	12.975	996.121	756.881
67.520	12.930	995.123	755.850
68.534	13.032	994.428	755.719
69.549	12.930	994.220	755.030
70.563	13.007	992.830	754.257
71.578	12.921	992.410	753.480
72.593	13.061	991.002	752.984
73.607	12.952	990.257	751.851
74.622	12.927	989.426	751.041
75.636	12.976	988.739	750.678
76.651	12.930	988.030	749.864
77.666	12.814	987.432	748.817
78.680	12.941	986.399	748.544
79.695	12.819	986.145	747.728
80.709	12.951	985.607	747.852
81.724	13.071	984.420	747.431
82.739	12.969	983.854	746.473
83.753	13.122	982.844	746.331
84.768	13.084	982.384	745.747
85.782	13.250	981.169	745.507
86.797	13.292	980.252	744.934
87.812	13.188	980.158	744.326
88.826	13.251	979.097	743.737
89.841	13.159	978.417	742.743
90.855	13.057	977.919	741.840
91.870	13.220	976.821	741.676
92.884	13.227	976.272	741.222
93.899	13.185	975.428	740.329
94.914	13.327	974.636	740.297
95.928	13.338	974.079	739.858
96.943	13.353	973.471	739.397
97.957	13.346	972.414	738.500
98.972	13.228	971.708	737.368
99.987	13.285	971.071	737.075
101.001	13.263	970.508	736.483
102.016	13.316	969.098	735.585
103.030	13.238	968.460	734.691
104.045	13.425	967.254	734.538
105.060	13.294	966.597	733.394
106.074	13.314	965.616	732.674
107.089	13.294	964.930	732.001
108.103	13.064	964.531	730.614
109.118	13.163	963.482	730.191
110.133	13.098	962.690	729.243
111.147	13.100	962.052	728.703
112.162	13.053	960.778	727.466
113.176	13.152	959.677	727.005
114.191	13.243	959.382	727.118
115.206	13.346	958.265	726.659
116.220	13.262	957.373	725.551
117.235	13.126	957.274	724.812
118.249	13.139	956.081	723.901
119.264	13.165	955.172	723.264
120.279	13.111	954.454	722.421
121.293	13.067	953.929	721.766
122.308	13.095	953.236	721.302
123.322	13.084	952.401	720.554
124.337	13.110	951.116	719.632
125.352	13.070	950.453	718.896
126.366	13.021	949.343	717.777
127.381	13.106	948.254	717.262
128.395	13.111	947.544	716.681
129.410	13.043	946.298	715.381
130.424	13.081	945.385	714.790
131.439	13.167	944.463	714.404
132.454	13.290	943.584	714.206
133.468	13.282	943.289	713.886
134.483	13.144	942.869	712.907
135.497	13.157	942.039	712.274
136.512	13.112	940.727	711.025
137.527	13.211	940.367	711.116
138.541	13.159	939.357	710.068
139.556	13.252	938.781	709.970
140.570	13.301	938.194	709.671
141.585	13.219	937.526	708.753
142.600	13.414	936.384	708.663
143.614	13.280	936.089	707.801
144.629	13.294	935.216	707.139
145.643	13.421	934.178	706.833
146.658	13.296	933.957	706.068
147.673	13.223	932.428	704.541
148.687	13.317	931.338	704.056
149.702	13.322	930.965	703.731
150.716	13.245	930.317	702.851
151.731	13.155	929.475	701.771
152.746	13.201	928.838	701.423
153.760	13.271	927.917	700.963
154.775	13.152	927.391	700.001
155.789	13.294	926.225	699.659
156.804	13.378	925.623	699.495
157.819	13.334	925.162	698.900
158.833	13.295	924.408	698.106
159.848	13.404	924.007	698.202
160.862	13.493	923.262	697.951
161.877	13.387	922.307	696.719
162.892	13.338	921.641	695.949
163.906	13.401	920.578	695.349
164.921	13.308	920.144	694.570
165.935	13.467	918.492	693.930
166.950	13.247	917.967	692.550
167.964	13.458	917.331	692.889
168.979	13.398	916.268	691.776
169.994	13.476	914.970	691.061
171.008	13.468	914.658	690.730
172.023	13.550	913.567	690.187
173.037	13.555	912.430	689.287
174.052	13.532	912.304	689.033
175.067	13.507	911.712	688.425
176.081	13.459	910.918	687.564
177.096	13.354	910.355	686.641
178.110	13.445	909.217	686.102
179.125	13.506	908.754	685.944
180.140	13.510	908.064	685.377
181.154	13.528	907.032	684.612
182.169	13.644	906.280	684.465
183.183	13.509	905.860	683.527
184.198	13.567	905.010	683.065
185.213	13.784	903.938	683.089
186.227	13.684	904.002	682.667
187.242	13.698	903.270	682.111
188.256	13.839	902.457	682.015
189.271	13.751	902.090	681.315
190.286	13.811	900.894	680.598
191.300	13.654	900.536	679.624
192.315	13.523	899.732	678.420
193.329	13.517	899.033	677.809
194.344	13.391	898.544	676.866
195.359	13.548	898.067	677.088
196.373	13.644	897.373	676.896
197.388	13.571	897.139	676.363
198.402	13.716	896.646	676.522
199.417	13.902	895.875	676.641
200.432	13.916	895.626	676.449
201.446	13.769	895.369	675.595
202.461	13.801	895.095	675.459
203.475	13.874	894.178	675.005
204.490	13.944	893.498	674.717
205.504	13.929	892.454	673.806
206.519	13.829	891.789	672.838
207.534	13.808	890.944	672.056
208.548	13.968	889.679	671.692
209.563	13.939	889.733	671.556
210.577	13.901	889.194	670.936
211.592	13.942	888.368	670.419
212.607	13.952	887.849	670.008
213.621	13.975	887.184	669.540
214.636	14.128	886.503	669.580
215.650	14.088	885.589	668.672
216.665	14.113	885.205	668.422
217.680	14.073	884.833	667.922
218.694	14.159	884.197	667.726
219.709	14.202	883.895	667.614
220.723	14.074	883.496	666.738
221.738	14.026	882.754	665.930
222.753	14.048	881.821	665.254
223.767	14.143	881.277	665.165
224.782	14.232	880.276	664.706
225.796	14.145	879.877	663.997
226.811	14.267	878.849	663.650
227.826	14.309	878.267	663.321
228.840	14.174	877.744	662.327
229.855	14.153	877.465	661.975
230.869	14.147	876.598	661.240
231.884	14.297	875.274	660.777
232.899	14.260	874.803	660.217
233.913	14.219	874.561	659.814
234.928	14.131	873.832	658.854
235.942	14.198	873.395	658.734
236.957	14.240	872.578	658.227
237.972	14.119	871.732	657.049
238.986	14.253	871.193	657.115
240.001	14.276	870.546	656.659
241.015	14.261	869.904	656.057
242.030	14.451	868.944	656.023
243.045	14.428	868.676	655.673
244.059	14.414	868.225	655.217
245.074	14.331	867.785	654.502
246.088	14.264	867.327	653.836
247.103	14.404	866.522	653.723
248.117	14.307	865.887	652.805
249.132	14.486	865.095	652.848
250.147	14.511	864.754	652.631
251.161	14.538	864.177	652.245
252.176	14.688	863.375	652.167
253.190	14.660	862.468	651.316
254.205	14.758	862.073	651.344
255.220	14.697	861.214	650.397
256.234	14.763	860.769	650.262
257.249	14.726	860.321	649.723
258.263	14.815	859.493	649.385
259.278	14.827	858.963	648.974
260.293	14.814	858.571	648.570
261.307	14.856	858.012	648.252
262.322	14.880	857.541	647.931
263.336	14.810	857.174	647.326
264.351	14.967	856.026	647.009
265.366	14.978	855.659	646.716
266.380	15.006	855.193	646.418
267.395	14.968	854.600	645.765
268.409	14.898	853.717	644.769
269.424	14.908	853.198	644.358
270.439	14.988	852.216	643.869
271.453	15.031	851.320	643.300
272.468	14.989	850.267	642.288
273.482	15.055	850.133	642.383
274.497	14.963	849.420	641.432
275.512	14.977	849.049	641.149
276.526	15.060	847.707	640.397
277.541	14.936	847.518	639.725
278.555	15.054	846.953	639.691
279.570	15.121	846.567	639.600
280.585	15.361	845.602	639.728
281.599	15.180	845.612	638.988
282.614	15.079	844.950	638.047
283.628	15.064	844.088	637.285
284.643	15.055	843.753	636.939
285.657	15.168	843.142	636.850
286.672	15.119	842.859	636.397
287.687	15.186	842.049	635.981
288.701	15.303	841.547	635.990
289.716	15.239	841.119	635.369
290.730	15.128	840.466	634.398
291.745	15.169	840.264	634.344
292.760	15.251	839.442	633.977
293.774	15.247	838.700	633.348
294.789	15.309	837.913	632.930
295.803	15.332	837.829	632.899
296.818	15.302	836.959	632.071
297.833	15.201	836.574	631.344
298.847	15.232	835.609	630.676
299.862	15.377	835.115	630.793
300.876	15.465	834.190	630.371
301.891	15.433	833.618	629.760
302.906	15.444	833.074	629.337
303.920	15.541	832.559	629.253
304.935	15.365	832.208	628.274
305.949	15.571	831.059	628.120
306.964	15.703	830.570	628.189
307.979	15.566	830.181	627.328
308.993	15.623	829.915	627.286
310.008	15.607	829.064	626.525
311.022	15.449	828.920	625.775
312.037	15.571	828.577	625.913
313.052	15.695	827.532	625.531
314.066	15.596	827.194	624.851
315.081	15.544	826.388	623.994
316.095	15.585	825.724	623.588
317.110	15.633	825.292	623.384
318.125	15.490	825.160	622.699
319.139	15.583	824.374	622.395
320.154	15.589	823.713	621.865
321.168	15.585	823.679	621.768
322.183	15.697	822.694	621.383
323.197	15.718	822.239	621.065
324.212	15.821	821.274	620.659
325.227	15.612	821.499	620.006
326.241	15.714	820.895	619.870
327.256	15.566	820.728	619.143
328.270	15.695	819.363	618.534
329.285	15.662	819.141	618.189
330.300	15.551	818.684	617.382
331.314	15.613	818.131	617.138
332.329	15.855	816.981	617.102
333.343	15.780	816.643	616.518
334.358	15.839	816.167	616.320
335.373	15.760	815.730	615.646
336.387	15.709	815.388	615.149
337.402	15.824	814.867	615.121
338.416	15.791	814.383	614.578
339.431	15.954	813.489	614.445
340.446	16.085	812.970	614.478
341.460	15.991	812.389	613.642
342.475	16.166	811.623	613.645
343.489	16.214	811.282	613.507
344.504	15.976	811.158	612.494
345.519	16.212	810.312	612.657
346.533	16.268	809.752	612.382
347.548	16.338	809.233	612.191
348.562	16.132	808.986	611.203
349.577	16.099	808.281	610.498
350.592	15.983	807.833	609.685
351.606	16.046	807.255	609.422
352.621	16.129	807.014	609.487
353.635	16.131	806.477	609.033
354.650	16.073	806.227	608.583
355.665	16.279	805.582	608.782
356.679	16.172	805.112	607.990
357.694	16.126	804.892	607.603
358.708	16.273	804.028	607.426
359.723	16.258	803.604	606.998
360.738	16.305	802.872	606.561
361.752	16.195	802.236	605.634
362.767	16.265	802.026	605.672
363.781	16.198	801.759	605.176
364.796	16.349	801.477	605.449
365.810	16.351	800.854	604.934
366.825	16.465	800.439	604.973
367.840	16.496	799.943	604.657
368.854	16.466	799.726	604.334
369.869	16.302	799.281	603.356
370.883	16.432	798.717	603.339
371.898	16.492	798.134	603.063
372.913	16.630	797.238	602.824
373.927	16.571	797.066	602.431
374.942	16.557	796.251	601.712
375.956	16.420	796.058	601.023
376.971	16.650	795.023	601.005
377.986	16.693	794.454	600.677
379.000	16.687	794.141	600.366
380.015	16.710	793.900	600.212
381.029	16.772	793.105	599.775
382.044	16.649	792.863	599.103
383.059	16.719	792.038	598.676
384.073	16.763	791.756	598.566
385.088	16.776	790.912	597.919
386.102	16.662	790.552	597.192
387.117	16.665	790.057	596.775
388.132	16.699	789.840	596.679
389.146	16.626	789.382	596.024
390.161	16.676	788.717	595.645
391.175	16.648	788.785	595.545
392.190	16.891	787.912	595.687
393.205	16.840	787.527	595.166
394.219	16.856	787.260	594.965
395.234	16.809	786.873	594.455
396.248	16.770	786.024	593.627
397.263	16.718	785.731	593.170
398.278	16.579	785.794	592.676
399.292	16.772	784.972	592.680
400.307	16.679	784.232	591.745
401.321	16.801	783.949	591.906
402.336	16.803	783.543	591.551
403.350	16.728	783.147	590.939
404.365	16.925	782.661	591.208
405.380	16.889	782.354	590.798
406.394	16.885	781.888	590.380
407.409	17.102	781.356	590.680
408.423	16.997	780.955	589.961
409.438	17.219	780.103	590.037
410.453	17.284	780.025	590.151
411.467	17.172	779.831	589.561
412.482	17.222	779.075	589.113
413.496	17.303	778.575	588.961
414.511	17.252	778.334	588.552
415.526	17.327	778.082	588.569
416.540	17.031	778.303	587.659
417.555	17.213	777.843	587.889
418.569	17.134	777.157	587.044
419.584	17.192	776.458	586.666
420.599	17.381	775.730	586.714
421.613	108.063	1288.341	1462.709
422.628	92.292	1363.004	1462.812
