DTS Sentinel unit serial number:	SN413079Multiplexer serial number:	ORYXHardware model number:	OX4-SRSoftware version number:	ORYX F/W v4.00 Oryx Data Collector v3.7.2.0data status	okinstallation	princeton_trtdifferential loss correction	single-endedforward channel	channel 3reverse channel	N/Adate	2019/09/16time	01:36:35forward acquisition time	60.00reverse acquisition time	0.00gamma	496.2192k internal	0.2337k external	0.2337temperature offset calibration	0.9954default loss term (dB/km)	0.3790temperature slope calibration	1.0000multiplexer offset coefficient	1.0000multiplexer slope coefficient	1.0000fibre end	0.00T internal ref (°C)	27.31T ext. ref 1 (°C)	9.96T ext. ref 2 (°C)	22.18length (m)	temperature (°C)	Stokes	anti-Stokes-747.200	35.918	-0.213	0.188
-746.185	-200.000	-0.019	0.317
-745.171	-33.494	0.219	0.121
-744.156	208.527	0.115	0.180
-743.142	46.365	-0.081	0.076
-742.127	216.317	-0.162	0.259
-741.112	59.078	0.133	0.131
-740.098	-38.412	0.222	0.118
-739.083	164.893	0.114	-0.161
-738.069	233.968	-0.250	0.413
-737.054	292.208	0.051	0.094
-736.039	-1.424	0.167	0.119
-735.025	-62.128	0.174	-0.073
-734.010	-60.801	-0.665	-0.283
-732.996	-82.809	0.314	-0.102
-731.981	70.809	-0.183	-0.190
-730.966	-68.261	-0.124	-0.048
-729.952	-109.278	-0.309	-0.066
-728.937	92.782	0.148	0.167
-727.923	22.308	-0.194	0.159
-726.908	-28.890	-0.096	-0.056
-725.894	-47.517	0.143	-0.070
-724.879	-53.153	0.268	-0.123
-723.864	-87.720	-0.234	0.071
-722.850	-3.452	-0.361	0.252
-721.835	181.239	0.051	0.075
-720.821	-78.667	-0.158	-0.054
-719.806	-200.000	0.080	0.477
-718.791	-158.788	-0.325	0.019
-717.777	128.801	0.166	-0.213
-716.762	41.236	0.148	0.134
-715.748	-80.570	0.247	0.083
-714.733	-148.662	0.232	-0.019
-713.718	-92.690	-0.102	0.029
-712.704	-130.545	0.184	0.025
-711.689	-18.037	-0.068	0.043
-710.675	81.819	-0.076	0.083
-709.660	211.478	-0.037	0.058
-708.645	-42.444	-0.294	0.150
-707.631	-117.223	-0.427	-0.078
-706.616	475.472	-0.085	0.192
-705.602	320.762	-0.056	0.107
-704.587	-45.318	0.378	-0.188
-703.572	627.109	-0.084	-0.212
-702.558	-200.000	0.032	-0.238
-701.543	-200.000	-0.037	-0.367
-700.529	419.784	-0.099	-0.213
-699.514	-123.536	0.239	0.038
-698.499	800.000	0.066	0.231
-697.485	40.474	-0.254	-0.229
-696.470	18.466	0.140	-0.112
-695.456	-81.409	0.277	0.092
-694.441	-200.000	-0.024	-0.251
-693.426	291.444	-0.112	-0.205
-692.412	174.676	0.153	0.221
-691.397	75.406	0.098	0.104
-690.383	-200.000	0.037	0.191
-689.368	-200.000	0.010	-0.048
-688.354	-4.331	-0.209	-0.145
-687.339	-33.390	-0.122	0.068
-686.324	188.524	0.018	0.027
-685.310	-200.000	-0.017	-0.126
-684.295	-200.000	-0.023	-0.428
-683.281	-143.705	0.132	-0.013
-682.266	-200.000	0.057	-0.493
-681.251	-200.000	0.019	-0.300
-680.237	-200.000	-0.021	0.169
-679.222	-200.000	0.015	-0.127
-678.208	-82.169	-0.073	-0.024
-677.193	-200.000	0.090	0.601
-676.178	-10.420	-0.154	0.103
-675.164	418.941	0.169	0.362
-674.149	800.000	-0.098	0.306
-673.135	266.788	-0.060	-0.106
-672.120	-40.810	-0.136	0.071
-671.105	-193.690	0.186	-0.002
-670.091	-106.410	0.313	-0.070
-669.076	-200.000	-0.001	0.124
-668.062	240.512	0.134	0.223
-667.047	-34.049	0.072	-0.040
-666.032	515.453	-0.160	-0.375
-665.018	17.624	-0.076	-0.061
-664.003	-200.000	0.021	0.110
-662.989	-200.000	-0.015	-0.070
-661.974	-200.000	-0.040	-0.479
-660.959	-200.000	-0.024	-0.340
-659.945	-6.253	0.232	-0.159
-658.930	97.062	-0.333	0.382
-657.916	-81.753	-0.073	0.024
-656.901	318.651	-0.091	-0.172
-655.886	122.586	0.055	0.069
-654.872	-154.708	-0.131	-0.009
-653.857	149.963	-0.040	0.054
-652.843	-32.850	0.089	-0.049
-651.828	-71.451	0.130	-0.049
-650.814	29.649	0.249	0.212
-649.799	619.632	0.087	0.219
-648.784	-150.433	-0.292	0.022
-647.770	10.544	-0.189	-0.144
-646.755	-36.847	0.190	-0.102
-645.741	201.950	0.086	0.132
-644.726	-9.488	0.244	-0.163
-643.711	286.449	0.158	-0.286
-642.697	-137.898	-0.422	0.047
-641.682	800.000	0.085	0.249
-640.668	-35.745	-0.182	-0.099
-639.653	-8.764	0.403	-0.270
-638.638	-200.000	0.005	0.356
-637.624	-121.906	-0.265	0.044
-636.609	-13.508	-0.046	-0.030
-635.595	631.458	-0.061	-0.154
-634.580	222.913	-0.113	0.182
-633.565	550.101	-0.122	0.292
-632.551	-200.000	-0.040	-0.233
-631.536	-87.920	0.435	0.131
-630.522	246.785	-0.087	-0.147
-629.507	464.556	-0.093	0.207
-628.492	-200.000	-0.069	-0.383
-627.478	109.007	-0.226	-0.270
-626.463	-200.000	0.030	-0.207
-625.449	-139.492	-0.273	-0.029
-624.434	80.513	0.171	0.184
-623.419	800.000	-0.048	-0.179
-622.405	-200.000	0.013	-0.198
-621.390	-64.229	-0.154	-0.063
-620.376	800.000	-0.026	-0.083
-619.361	625.710	0.077	-0.194
-618.346	-81.595	-0.290	-0.095
-617.332	-132.625	0.421	0.054
-616.317	-200.000	-0.005	0.054
-615.303	-19.719	0.144	0.089
-614.288	800.000	-0.062	0.246
-613.273	-79.078	-0.284	-0.096
-612.259	-48.368	0.189	0.091
-611.244	800.000	0.073	-0.267
-610.230	-57.682	-0.123	0.054
-609.215	-63.282	0.220	-0.090
-608.201	-48.357	0.094	0.045
-607.186	-56.697	0.096	-0.042
-606.171	86.834	-0.185	-0.204
-605.157	-0.995	-0.106	-0.075
-604.142	-11.084	-0.379	0.249
-603.128	97.278	-0.213	0.244
-602.113	74.183	-0.082	0.086
-601.098	300.693	-0.103	0.190
-600.084	127.977	0.083	-0.105
-599.069	-200.000	0.008	-0.052
-598.055	-68.677	0.212	-0.082
-597.040	-102.266	-0.113	0.027
-596.025	-137.792	0.149	0.017
-595.011	32.422	-0.351	-0.303
-593.996	-127.172	0.015	0.002
-592.982	-130.053	-0.231	-0.032
-591.967	-186.179	0.313	-0.005
-590.952	-147.460	-0.247	-0.021
-589.938	-130.184	0.147	-0.020
-588.923	52.378	-0.068	0.065
-587.909	-121.454	0.189	0.031
-586.894	-118.402	-0.272	-0.048
-585.879	-132.515	0.378	-0.048
-584.865	-64.092	0.040	0.016
-583.850	-200.000	-0.005	0.157
-582.836	-200.000	-0.025	-0.409
-581.821	-111.041	-0.259	-0.053
-580.806	-200.000	-0.013	0.388
-579.792	-72.528	0.261	-0.096
-578.777	55.983	-0.157	0.152
-577.763	8.536	-0.129	-0.097
-576.748	-155.890	-0.174	0.011
-575.733	-200.000	-0.005	0.091
-574.719	-75.527	-0.258	-0.091
-573.704	-200.000	-0.021	-0.308
-572.690	-135.363	-0.229	0.027
-571.675	800.000	-0.038	0.106
-570.661	-52.229	-0.186	-0.086
-569.646	-60.668	0.083	0.035
-568.631	800.000	0.041	0.145
-567.617	-200.000	-0.002	-0.024
-566.602	193.006	0.113	-0.170
-565.588	-176.424	-0.228	-0.006
-564.573	312.300	-0.065	-0.122
-563.558	-0.790	0.232	0.164
-562.544	109.053	0.115	0.137
-561.529	-200.000	0.032	-0.174
-560.515	163.876	0.184	0.259
-559.500	800.000	-0.072	0.281
-558.485	42.311	0.114	0.103
-557.471	800.000	0.040	0.153
-556.456	-200.000	0.065	-0.327
-555.442	76.342	0.208	0.220
-554.427	125.502	-0.115	0.145
-553.412	-200.000	0.007	0.384
-552.398	-133.406	-0.123	0.015
-551.383	22.200	0.173	-0.141
-550.369	-200.000	-0.001	-0.183
-549.354	-200.000	0.007	0.345
-548.339	-14.916	0.242	0.155
-547.325	370.319	-0.165	0.334
-546.310	205.536	0.161	-0.249
-545.296	-45.701	-0.090	0.044
-544.281	435.918	0.071	0.154
-543.266	127.109	0.046	-0.059
-542.252	800.000	0.071	0.259
-541.237	421.307	0.071	0.151
-540.223	132.850	-0.071	-0.092
-539.208	-171.421	0.386	0.013
-538.193	-39.705	0.031	0.016
-537.179	800.000	-0.016	0.062
-536.164	-200.000	-0.013	0.115
-535.150	-122.770	0.289	-0.047
-534.135	103.915	-0.202	-0.237
-533.121	800.000	0.135	0.371
-532.106	-85.536	0.286	0.089
-531.091	-124.653	-0.236	0.036
-530.077	-200.000	-0.035	-0.366
-529.062	678.491	0.086	-0.222
-528.048	800.000	-0.052	-0.153
-527.033	-2.836	-0.080	0.055
-526.018	-179.277	-0.158	-0.003
-525.004	50.321	-0.173	-0.162
-523.989	-58.021	-0.181	-0.078
-522.975	-174.449	0.195	-0.006
-521.960	-8.314	0.152	-0.102
-520.945	-83.166	-0.305	-0.098
-519.931	-200.000	-0.034	0.161
-518.916	9.798	-0.050	-0.038
-517.902	-130.360	-0.387	0.052
-516.887	-62.878	0.249	-0.103
-515.872	443.171	0.048	0.105
-514.858	215.313	-0.118	-0.187
-513.843	235.035	-0.043	-0.070
-512.829	800.000	-0.092	-0.372
-511.814	45.100	-0.284	-0.260
-510.799	582.032	0.164	-0.401
-509.785	800.000	0.059	-0.235
-508.770	-84.505	0.037	0.011
-507.756	-200.000	0.004	-0.336
-506.741	187.207	0.201	0.298
-505.726	246.883	0.319	0.535
-504.712	-162.670	0.391	-0.019
-503.697	515.799	0.075	0.173
-502.683	7.033	-0.356	-0.264
-501.668	5.468	0.171	0.126
-500.653	800.000	-0.041	0.126
-499.639	-134.844	0.364	0.044
-498.624	242.845	-0.058	-0.097
-497.610	95.653	0.299	0.339
-496.595	-200.000	-0.007	0.362
-495.581	-124.079	-0.138	-0.022
-494.566	253.999	-0.138	-0.235
-493.551	-121.314	0.350	0.058
-492.537	-200.000	0.020	-0.131
-491.522	182.545	-0.111	-0.163
-490.508	-180.624	-0.148	0.003
-489.493	-118.579	0.107	-0.019
-488.478	-80.975	-0.343	-0.113
-487.464	318.700	-0.084	0.159
-486.449	-200.000	-0.025	-0.178
-485.435	-27.635	-0.155	0.089
-484.420	99.237	0.209	-0.240
-483.405	-37.113	0.110	0.059
-482.391	25.377	-0.172	-0.142
-481.376	82.412	0.289	-0.312
-480.362	-6.501	-0.036	-0.024
-479.347	-20.569	-0.365	-0.223
-478.332	114.179	-0.255	-0.308
-477.318	-108.321	-0.305	-0.065
-476.303	-200.000	0.080	0.409
-475.289	282.985	-0.103	0.183
-474.274	-42.647	0.202	0.102
-473.259	-50.222	-0.204	-0.096
-472.245	-81.401	-0.256	0.084
-471.230	355.915	0.149	0.296
-470.216	-92.881	0.156	-0.043
-469.201	-136.181	0.201	-0.023
-468.186	-80.793	0.118	0.039
-467.172	-108.131	-0.119	-0.026
-466.157	-11.955	-0.017	-0.011
-465.143	104.527	0.102	-0.120
-464.128	136.640	0.045	0.058
-463.113	479.994	0.133	-0.300
-462.099	800.000	-0.055	0.223
-461.084	-200.000	-0.018	0.250
-460.070	141.804	0.021	0.027
-459.055	-21.108	-0.335	-0.203
-458.040	7.107	0.124	0.092
-457.026	-200.000	-0.012	-0.073
-456.011	136.838	0.159	-0.206
-454.997	-50.551	0.138	0.065
-453.982	-55.915	-0.313	0.138
-452.968	-57.759	0.209	0.091
-451.953	658.976	0.056	-0.142
-450.938	800.000	-0.133	-0.543
-449.924	-50.598	0.286	-0.134
-448.909	-55.445	0.097	-0.043
-447.895	648.109	0.094	-0.238
-446.880	-200.000	0.075	-0.346
-445.865	800.000	-0.015	0.065
-444.851	-56.419	-0.175	0.077
-443.836	-92.329	0.259	-0.072
-442.822	636.561	-0.066	0.167
-441.807	66.912	0.043	0.043
-440.792	-200.000	0.011	0.082
-439.778	800.000	0.203	0.597
-438.763	107.456	-0.044	0.052
-437.749	235.561	-0.029	-0.048
-436.734	-80.781	0.076	0.025
-435.719	-62.872	-0.183	0.075
-434.705	108.476	0.147	0.174
-433.690	-130.061	0.225	-0.031
-432.676	264.825	0.037	0.065
-431.661	-193.235	0.266	-0.002
-430.646	-66.732	0.438	0.172
-429.632	-200.000	0.017	0.135
-428.617	148.461	-0.106	0.142
-427.603	-128.378	0.187	0.026
-426.588	-20.774	0.199	0.121
-425.573	-6.629	0.172	0.116
-424.559	-200.000	0.025	-0.221
-423.544	-145.995	0.234	0.021
-422.530	-81.015	-0.362	0.119
-421.515	-151.652	0.129	0.009
-420.500	-200.000	-0.008	-0.117
-419.486	-26.390	0.165	0.096
-418.471	-38.495	-0.355	-0.186
-417.457	800.000	0.051	-0.160
-416.442	75.255	0.131	-0.137
-415.428	450.061	-0.045	-0.098
-414.413	48.299	0.137	0.127
-413.398	733.166	-0.051	0.137
-412.384	800.000	0.061	0.223
-411.369	800.000	0.031	0.127
-410.355	125.721	-0.289	-0.361
-409.340	494.698	0.136	-0.309
-408.325	-98.985	-0.075	0.019
-407.311	323.306	-0.121	0.228
-406.296	-200.000	0.033	0.290
-405.282	128.377	0.099	-0.125
-404.267	108.361	-0.195	0.230
-403.252	218.147	0.221	0.349
-402.238	224.724	0.010	0.016
-401.223	316.019	0.064	0.120
-400.209	59.146	-0.290	0.283
-399.194	117.486	0.168	0.205
-398.179	173.400	0.148	0.211
-397.165	50.906	0.132	-0.124
-396.150	-186.991	0.102	-0.001
-395.136	800.000	-0.070	-0.195
-394.121	752.031	-0.031	0.083
-393.106	-200.000	-0.019	0.287
-392.092	297.627	-0.059	0.107
-391.077	2.982	-0.043	-0.031
-390.063	41.726	-0.067	-0.060
-389.048	-31.202	-0.078	-0.043
-388.033	-106.505	0.109	0.024
-387.019	349.493	-0.022	-0.043
-386.004	800.000	0.032	-0.136
-384.990	453.380	0.039	-0.085
-383.975	800.000	0.067	0.205
-382.960	-80.234	-0.179	0.059
-381.946	-73.446	0.181	0.066
-380.931	800.000	0.075	-0.286
-379.917	10.613	0.042	-0.032
-378.902	-24.755	0.060	-0.036
-377.888	243.570	0.153	0.254
-376.873	-37.031	-0.122	-0.065
-375.858	-72.681	0.331	-0.121
-374.844	5.098	0.155	0.113
-373.829	153.745	0.185	0.251
-372.815	-37.719	0.147	0.078
-371.800	-91.009	-0.187	-0.053
-370.785	260.473	0.171	-0.292
-369.771	-200.000	0.001	-0.165
-368.756	152.134	-0.140	0.189
-367.742	401.955	0.109	0.226
-366.727	553.364	0.032	0.075
-365.712	14.272	0.319	-0.246
-364.698	-183.094	-0.149	-0.003
-363.683	-200.000	-0.010	-0.073
-362.669	-116.569	0.386	-0.070
-361.654	49.857	0.196	0.183
-360.639	-92.301	0.150	0.042
-359.625	-75.031	-0.167	-0.059
-358.610	-200.000	0.046	-0.246
-357.596	-15.504	-0.097	0.062
-356.581	86.961	-0.117	-0.128
-355.566	87.455	-0.142	-0.155
-354.552	10.429	-0.057	-0.043
-353.537	-99.404	0.323	-0.081
-352.523	478.246	-0.052	0.116
-351.508	800.000	0.098	0.376
-350.493	-105.449	-0.132	0.030
-349.479	-200.000	-0.035	-0.326
-348.464	73.389	0.254	-0.263
-347.450	-146.831	-0.452	0.039
-346.435	-123.507	-0.193	-0.030
-345.420	-116.364	0.029	0.005
-344.406	4.894	0.078	-0.057
-343.391	-200.000	0.036	-0.282
-342.377	22.738	-0.320	0.259
-341.362	-34.907	-0.217	-0.117
-340.348	-93.870	-0.117	0.032
-339.333	242.881	0.247	0.410
-338.318	251.065	0.143	0.241
-337.304	-51.107	0.084	0.039
-336.289	221.002	-0.264	0.418
-335.275	800.000	0.011	-0.034
-334.260	-170.245	-0.376	0.013
-333.245	182.619	0.027	-0.040
-332.231	-21.116	-0.393	0.237
-331.216	27.622	0.469	0.390
-330.202	-200.000	-0.044	0.264
-329.187	-200.000	-0.009	-0.229
-328.172	-200.000	0.007	-0.447
-327.158	442.090	0.111	-0.240
-326.143	168.927	0.206	-0.290
-325.129	754.177	0.066	-0.177
-324.114	-18.128	-0.150	-0.093
-323.099	9.631	0.122	0.091
-322.085	140.456	-0.203	-0.265
-321.070	83.580	-0.060	0.065
-320.056	192.501	-0.108	-0.161
-319.041	800.000	-0.031	0.117
-318.026	-85.066	-0.182	0.056
-317.012	-144.174	0.229	0.021
-315.997	800.000	-0.016	0.047
-314.983	68.350	-0.141	0.143
-313.968	719.991	0.071	-0.185
-312.953	-200.000	0.033	-0.167
-311.939	178.261	0.071	0.102
-310.924	-200.000	-0.046	0.390
-309.910	-26.440	0.288	0.167
-308.895	19.024	0.176	0.140
-307.880	13.491	-0.205	-0.157
-306.866	120.700	-0.093	0.114
-305.851	800.000	-0.033	-0.092
-304.837	-200.000	-0.010	-0.115
-303.822	601.347	-0.072	-0.177
-302.807	-200.000	-0.082	-0.370
-301.793	-200.000	0.005	0.042
-300.778	800.000	-0.011	-0.045
-299.764	-79.886	-0.440	0.146
-298.749	-16.762	-0.270	0.169
-297.735	-10.226	-0.248	0.162
-296.720	-137.709	0.428	0.047
-295.705	30.450	-0.055	0.047
-294.691	-95.097	-0.265	-0.070
-293.676	127.795	-0.149	0.187
-292.662	-200.000	-0.016	0.175
-291.647	-20.423	0.236	-0.143
-290.632	800.000	-0.117	-0.392
-289.618	136.411	0.098	0.126
-288.603	33.399	-0.048	-0.041
-287.589	28.561	-0.385	-0.322
-286.574	-46.859	-0.061	-0.029
-285.559	-200.000	-0.007	0.340
-284.545	46.055	0.196	-0.179
-283.530	-79.843	0.192	-0.064
-282.516	800.000	-0.039	0.129
-281.501	368.246	-0.035	-0.071
-280.486	30.781	0.347	-0.293
-279.472	-200.000	0.015	-0.433
-278.457	-15.719	-0.237	-0.149
-277.443	-46.830	-0.141	0.068
-276.428	-100.248	0.075	0.018
-275.413	24.371	-0.209	-0.171
-274.399	-85.614	-0.101	0.031
-273.384	-79.458	0.135	0.045
-272.370	340.000	-0.082	-0.157
-271.355	154.120	-0.107	-0.145
-270.340	-57.382	-0.059	0.026
-269.326	150.206	0.033	0.044
-268.311	236.539	0.244	0.399
-267.297	66.494	-0.060	0.060
-266.282	-60.325	-0.136	0.057
-265.267	-200.000	0.003	0.221
-264.253	-140.154	0.364	0.038
-263.238	-146.981	0.345	0.029
-262.224	800.000	-0.122	0.362
-261.209	168.284	0.247	-0.347
-260.195	-137.869	0.150	0.017
-259.180	800.000	-0.030	0.091
-258.165	-78.747	-0.021	0.007
-257.151	-8.453	0.194	-0.129
-256.136	715.184	-0.035	0.091
-255.122	-40.939	-0.144	0.073
-254.107	-173.590	-0.123	0.004
-253.092	465.977	-0.164	-0.361
-252.078	-200.000	-0.098	-0.449
-251.063	800.000	-0.035	0.137
-250.049	-200.000	-0.011	0.138
-249.034	-200.000	0.003	-0.233
-248.019	-125.038	0.144	0.022
-247.005	-193.427	0.150	-0.001
-245.990	-118.445	-0.267	0.047
-244.976	-200.000	0.005	-0.244
-243.961	83.262	-0.146	-0.157
-242.946	122.966	-0.181	0.222
-241.932	-153.810	-0.250	0.017
-240.917	-110.594	-0.139	-0.028
-239.903	-135.885	-0.115	0.013
-238.888	279.805	0.187	0.328
-237.873	194.954	0.145	0.216
-236.859	-119.803	-0.323	-0.055
-235.844	-87.156	-0.160	0.048
-234.830	-200.000	-0.010	0.127
-233.815	153.169	0.172	0.231
-232.800	54.176	-0.359	0.340
-231.786	-50.293	0.240	0.112
-230.771	800.000	0.051	-0.213
-229.757	-153.770	0.058	-0.004
-228.742	111.972	-0.124	-0.148
-227.727	800.000	0.046	-0.170
-226.713	21.018	0.243	0.194
-225.698	114.943	0.133	-0.159
-224.684	-106.975	-0.351	0.076
-223.669	-164.837	0.315	0.014
-222.655	22.345	0.362	-0.291
-221.640	18.661	0.035	0.027
-220.625	271.997	-0.246	-0.426
-219.611	2.694	0.108	0.077
-218.596	361.132	0.043	0.084
-217.582	397.937	0.037	-0.077
-216.567	-116.885	-0.204	-0.037
-215.552	123.029	-0.234	-0.288
-214.538	-44.140	-0.431	-0.213
-213.523	232.764	-0.040	-0.065
-212.509	-32.061	0.332	0.183
-211.494	-74.755	-0.247	0.087
-210.479	753.165	0.117	0.310
-209.465	17.189	-0.021	0.016
-208.450	192.513	-0.062	0.092
-207.436	-196.628	-0.145	-0.001
-206.421	117.671	-0.053	0.064
-205.406	136.504	-0.061	0.078
-204.392	-38.608	-0.228	0.118
-203.377	800.000	0.030	-0.084
-202.363	316.745	0.123	-0.228
-201.348	-162.262	-0.234	-0.011
-200.333	492.308	0.058	-0.131
-199.319	-145.736	-0.150	0.013
-198.304	434.360	-0.113	0.241
-197.290	35.780	-0.277	-0.240
-196.275	266.466	0.161	0.276
-195.260	-72.303	0.293	0.107
-194.246	445.733	-0.246	0.530
-193.231	-113.261	-0.094	-0.018
-192.217	-78.805	-0.180	-0.060
-191.202	-158.227	0.255	-0.015
-190.187	-146.990	-0.181	-0.015
-189.173	-117.908	0.284	-0.050
-188.158	-143.068	0.378	-0.036
-187.144	112.680	-0.036	-0.043
-186.129	169.684	-0.069	0.096
-185.114	180.143	0.269	-0.388
-184.100	800.000	0.038	0.156
-183.085	-9.332	0.205	-0.134
-182.071	-46.640	-0.065	-0.031
-181.056	-47.822	0.152	-0.072
-180.042	239.065	-0.177	-0.289
-179.027	800.000	-0.003	0.011
-178.012	178.095	0.131	-0.188
-176.998	458.036	-0.016	-0.035
-175.983	462.383	-0.164	0.359
-174.969	-131.625	-0.276	0.036
-173.954	800.000	0.037	0.112
-172.939	197.941	0.062	-0.093
-171.925	70.524	-0.301	-0.306
-170.910	330.651	0.196	0.370
-169.896	518.428	0.159	0.366
-168.881	601.038	0.062	-0.152
-167.866	-89.938	0.089	0.026
-166.852	-59.363	-0.372	0.157
-165.837	-82.137	0.414	-0.133
-164.823	-200.000	-0.030	0.186
-163.808	91.796	-0.234	-0.258
-162.793	-127.146	0.236	0.034
-161.779	-84.941	-0.081	-0.025
-160.764	-200.000	-0.024	-0.104
-159.750	71.410	-0.118	0.120
-158.735	524.910	-0.242	0.558
-157.720	38.216	0.308	-0.269
-156.706	-105.783	-0.381	-0.085
-155.691	83.197	0.220	0.235
-154.677	404.216	-0.050	-0.104
-153.662	57.225	0.284	-0.272
-152.647	800.000	0.023	-0.074
-151.633	-200.000	-0.001	0.098
-150.618	76.613	0.129	-0.134
-149.604	506.011	0.078	-0.178
-148.589	800.000	0.158	0.453
-147.574	23.711	-0.138	0.112
-146.560	96.352	-0.153	-0.172
-145.545	-61.530	0.226	0.093
-144.531	-92.281	-0.297	0.082
-143.516	-27.957	-0.202	0.115
-142.502	800.000	-0.073	-0.212
-141.487	-183.733	0.094	-0.002
-140.472	-59.118	-0.188	-0.080
-139.458	-53.167	-0.026	-0.012
-138.443	-146.786	0.283	0.024
-137.429	106.557	-0.111	0.129
-136.414	-200.000	-0.018	0.188
-135.399	-185.104	-0.033	0.000
-134.385	32.983	-0.089	-0.075
-133.370	25.523	-0.035	0.028
-132.356	332.150	0.078	-0.147
-131.341	-116.885	0.217	0.039
-130.326	125.825	-0.193	0.239
-129.312	22.425	-0.050	0.040
-128.297	-129.585	-0.156	-0.021
-127.283	389.125	0.104	-0.210
-126.268	-200.000	0.049	0.288
-125.253	800.000	0.115	-0.358
-124.239	-9.242	0.197	0.129
-123.224	356.974	-0.057	0.112
-122.210	276.188	0.070	0.123
-121.195	-63.583	-0.066	-0.026
-120.180	224.234	-0.063	0.100
-119.166	800.000	0.099	0.275
-118.151	109.597	0.150	0.176
-117.137	27.833	-0.335	0.276
-116.122	90.517	0.261	0.286
-115.107	-108.675	0.135	-0.028
-114.093	479.111	0.109	0.241
-113.078	166.345	0.081	-0.112
-112.064	-42.423	0.422	0.211
-111.049	24.790	0.221	-0.179
-110.034	-200.000	0.030	0.238
-109.020	-200.000	0.037	0.327
-108.005	383.647	0.108	0.219
-106.991	-200.000	0.029	0.391
-105.976	215.237	0.083	0.129
-104.962	800.000	0.045	0.186
-103.947	-200.000	0.016	0.183
-102.932	261.240	0.166	0.281
-101.918	-56.550	0.146	0.063
-100.903	-60.198	0.071	0.029
-99.889	-200.000	0.034	-0.214
-98.874	-200.000	-0.030	-0.315
-97.859	-9.227	0.082	0.054
-96.845	-97.007	0.181	-0.046
-95.830	165.917	-0.194	-0.269
-94.816	-89.573	-0.146	0.042
-93.801	-11.010	0.124	-0.080
-92.786	-21.552	0.224	-0.134
-91.772	-36.173	-0.308	0.163
-90.757	-200.000	0.006	0.077
-89.743	-162.651	-0.267	0.013
-88.728	42.314	0.047	0.042
-87.713	-14.636	-0.114	0.072
-86.699	-133.333	0.176	0.022
-85.684	-6.837	-0.181	0.120
-84.670	194.473	-0.091	0.136
-83.655	-200.000	-0.024	0.191
-82.640	-200.000	0.013	0.424
-81.626	-66.621	0.247	0.096
-80.611	-200.000	-0.016	0.125
-79.597	-68.936	-0.195	0.073
-78.582	-12.379	0.268	0.171
-77.567	800.000	0.178	0.533
-76.553	-200.000	-0.054	-0.252
-75.538	-200.000	-0.008	0.273
-74.524	-134.731	-0.263	0.031
-73.509	233.911	-0.099	0.159
-72.494	-109.230	0.151	-0.031
-71.480	-74.380	-0.386	0.136
-70.465	-148.731	0.078	-0.006
-69.451	-200.000	0.022	0.201
-68.436	-200.000	0.012	-0.273
-67.422	-65.998	0.145	-0.057
-66.407	-93.521	0.229	-0.062
-65.392	-167.509	0.279	-0.011
-64.378	-79.781	0.191	0.063
-63.363	8.441	-0.089	0.066
-62.349	-96.568	-0.018	0.005
-61.334	169.808	-0.626	-0.874
-60.319	727.928	0.333	0.869
-59.305	628.560	-0.475	-1.174
-58.290	187.701	0.823	1.201
-57.276	800.000	0.488	1.566
-56.261	-200.000	113.852	642.796
-55.246	476.571	1501.620	3317.254
-54.232	149.374	2664.396	3525.364
-53.217	102.339	2165.674	2473.385
-52.203	37.550	1694.485	1469.060
-51.188	30.404	1512.142	1262.552
-50.173	28.096	1487.738	1226.666
-49.159	51.648	1545.463	1435.873
-48.144	50.577	1560.871	1442.819
-47.130	30.607	1517.673	1268.351
-46.115	27.641	1502.288	1235.381
-45.100	27.335	1498.760	1230.364
-44.086	27.374	1496.821	1228.987
-43.071	27.303	1494.848	1226.843
-42.057	27.274	1493.771	1225.712
-41.042	27.247	1491.990	1224.023
-40.027	27.256	1490.773	1223.037
-39.013	27.263	1489.279	1221.809
-37.998	27.291	1488.475	1221.285
-36.984	27.148	1487.609	1219.570
-35.969	27.259	1485.443	1218.490
-34.954	27.275	1483.770	1217.174
-33.940	27.269	1483.014	1216.468
-32.925	27.323	1481.286	1215.360
-31.911	27.361	1479.701	1214.267
-30.896	27.379	1478.530	1213.379
-29.881	27.494	1477.280	1213.067
-28.867	27.431	1476.139	1211.662
-27.852	27.266	1475.302	1209.834
-26.838	27.289	1473.705	1208.627
-25.823	27.357	1471.854	1207.514
-24.809	27.342	1470.421	1206.191
-23.794	27.341	1469.402	1205.301
-22.779	27.333	1467.446	1203.592
-21.765	27.442	1466.593	1203.568
-20.750	27.322	1465.825	1202.098
-19.736	27.335	1464.671	1201.188
-18.721	27.376	1463.497	1200.447
-17.706	27.297	1462.844	1199.340
-16.692	27.342	1461.326	1198.351
-15.677	27.369	1460.282	1197.621
-14.663	27.266	1460.125	1196.766
-13.648	27.350	1458.617	1196.035
-12.633	27.389	1457.553	1195.373
-11.619	27.243	1457.004	1193.918
-10.604	27.290	1456.099	1193.436
-9.590	27.266	1455.134	1192.438
-8.575	27.302	1454.220	1191.881
-7.560	27.260	1453.704	1191.137
-6.546	27.301	1452.705	1190.540
-5.531	27.274	1451.938	1189.681
-4.517	27.212	1450.717	1188.232
-3.502	27.327	1449.740	1188.133
-2.487	27.254	1448.789	1186.832
-1.473	27.273	1447.794	1186.094
-0.458	27.192	1446.822	1184.726
0.556	25.642	1437.051	1173.871
1.571	22.844	1412.695	1135.897
2.586	19.807	1353.309	1069.303
3.600	18.446	1270.603	995.960
4.615	17.234	1226.365	954.398
5.629	16.433	1172.794	908.323
6.644	13.321	1096.572	833.550
7.659	10.425	1062.037	793.075
8.673	10.009	1057.356	787.483
9.688	10.066	1053.906	785.120
10.702	9.839	1052.570	782.954
11.717	9.936	1050.063	781.490
12.731	11.250	1050.072	787.783
13.746	14.405	1054.497	806.322
14.761	17.253	1057.625	822.440
15.775	17.752	1057.854	824.960
16.790	17.060	1055.386	819.625
17.804	15.998	1053.211	812.740
18.819	15.011	1051.577	806.653
19.834	14.579	1049.722	803.079
20.848	14.282	1049.182	801.169
21.863	13.906	1048.364	798.665
22.877	13.676	1047.717	796.995
23.892	13.674	1046.433	795.937
24.907	13.415	1046.212	794.457
25.921	13.425	1045.325	793.760
26.936	13.480	1044.394	793.248
27.950	13.510	1043.317	792.503
28.965	13.465	1042.639	791.702
29.980	13.771	1040.927	791.791
30.994	13.770	1039.928	790.958
32.009	13.761	1039.515	790.533
33.023	13.805	1038.558	789.942
34.038	13.764	1038.047	789.286
35.053	13.681	1037.039	788.055
36.067	13.671	1035.745	786.958
37.082	13.787	1035.110	786.954
38.096	13.663	1034.608	785.915
39.111	13.790	1033.563	785.656
40.126	13.803	1032.303	784.689
41.140	13.761	1031.214	783.591
42.155	13.688	1030.403	782.561
43.169	13.601	1029.382	781.306
44.184	13.481	1028.412	779.937
45.199	13.517	1027.608	779.430
46.213	13.540	1026.182	778.383
47.228	13.536	1025.870	778.060
48.242	13.468	1024.941	776.970
49.257	13.575	1023.706	776.467
50.271	13.528	1022.405	775.189
51.286	13.593	1021.974	775.097
52.301	13.678	1020.907	774.617
53.315	13.674	1020.100	773.919
54.330	13.791	1019.169	773.687
55.344	13.662	1018.331	772.383
56.359	13.419	1017.873	770.836
57.374	13.658	1016.457	770.807
58.388	13.602	1015.993	770.129
59.403	13.489	1015.186	768.922
60.417	13.424	1014.361	767.926
61.432	13.487	1013.602	767.578
62.447	13.404	1012.947	766.630
63.461	13.440	1012.087	766.075
64.476	13.457	1010.893	765.184
65.490	13.376	1010.127	764.162
66.505	13.390	1009.309	763.543
67.520	13.393	1008.737	763.052
68.534	13.452	1007.564	762.370
69.549	13.528	1007.121	762.316
70.563	13.393	1006.411	761.093
71.578	13.457	1005.510	760.639
72.593	13.433	1004.460	759.665
73.607	13.393	1003.678	758.826
74.622	13.389	1002.817	758.086
75.636	13.349	1001.992	757.211
76.651	13.405	1001.228	756.824
77.666	13.472	1000.312	756.372
78.680	13.502	999.685	755.967
79.695	13.294	999.489	754.805
80.709	13.502	998.137	754.662
81.724	13.326	997.824	753.556
82.739	13.631	997.021	754.275
83.753	13.651	996.179	753.662
84.768	13.707	995.420	753.275
85.782	13.707	994.985	752.879
86.797	13.730	993.984	752.158
87.812	13.756	993.105	751.545
88.826	13.741	991.813	750.432
89.841	13.645	991.571	749.750
90.855	13.607	990.676	748.834
91.870	13.819	989.588	748.903
92.884	13.875	988.614	748.350
93.899	13.755	988.354	747.550
94.914	13.726	987.896	747.002
95.928	13.858	986.781	746.690
96.943	13.825	986.372	746.165
97.957	13.792	985.533	745.316
98.972	13.869	984.439	744.769
99.987	13.751	983.762	743.660
101.001	13.754	983.099	743.107
102.016	13.562	982.875	742.015
103.030	13.686	981.538	741.494
104.045	13.790	980.261	740.925
105.060	13.824	979.571	740.491
106.074	13.793	978.504	739.482
107.089	13.779	977.526	738.614
108.103	13.700	976.645	737.531
109.118	13.463	975.784	735.762
110.133	13.454	975.159	735.186
111.147	13.611	974.147	735.055
112.162	13.421	973.618	733.749
113.176	13.515	972.794	733.479
114.191	13.596	971.469	732.775
115.206	13.629	971.013	732.511
116.220	13.611	970.006	731.608
117.235	13.647	969.084	731.006
118.249	13.427	968.811	729.765
119.264	13.579	967.586	729.449
120.279	13.623	966.608	728.840
121.293	13.590	965.762	727.990
122.308	13.545	964.984	727.140
123.322	13.514	964.189	726.345
124.337	13.520	963.360	725.680
125.352	13.466	961.955	724.321
126.366	13.421	960.931	723.291
127.381	13.669	959.455	723.195
128.395	13.536	959.103	722.289
129.410	13.533	958.310	721.615
130.424	13.493	957.155	720.506
131.439	13.545	956.266	720.002
132.454	13.643	954.970	719.387
133.468	13.652	954.640	719.111
134.483	13.584	954.324	718.517
135.497	13.762	953.085	718.289
136.512	13.611	952.709	717.292
137.527	13.702	951.633	716.809
138.541	13.615	951.062	715.939
139.556	13.599	950.507	715.392
140.570	13.619	949.675	714.788
141.585	13.535	949.233	714.028
142.600	13.635	948.820	714.086
143.614	13.672	948.005	713.569
144.629	13.850	946.850	713.400
145.643	13.925	946.199	713.170
146.658	13.760	945.349	711.760
147.673	13.842	944.160	711.149
148.687	13.744	943.654	710.287
149.702	13.737	942.803	709.556
150.716	13.725	941.672	708.587
151.731	13.763	940.528	707.828
152.746	13.647	940.463	707.223
153.760	13.613	939.836	706.542
154.775	13.733	938.880	706.274
155.789	13.749	937.936	705.568
156.804	13.879	937.132	705.452
157.819	13.822	936.317	704.534
158.833	13.923	936.042	704.695
159.848	13.895	935.255	703.919
160.862	14.046	934.463	703.900
161.877	13.995	933.995	703.272
162.892	13.846	933.373	702.111
163.906	13.770	932.546	701.105
164.921	13.888	931.328	700.624
165.935	13.811	930.281	699.451
166.950	13.774	929.976	699.004
167.964	13.920	929.020	698.838
168.979	13.990	927.764	698.124
169.994	13.879	926.950	696.984
171.008	13.784	926.222	695.979
172.023	13.916	925.343	695.807
173.037	13.948	924.697	695.394
174.052	14.028	923.917	695.083
175.067	14.032	923.125	694.440
176.081	14.017	922.085	693.537
177.096	13.785	921.454	692.032
178.110	13.788	920.937	691.595
179.125	13.881	920.212	691.377
180.140	14.072	918.949	691.158
181.154	13.912	918.664	690.220
182.169	14.136	918.020	690.606
183.183	14.127	917.764	690.313
184.198	14.067	916.785	689.269
185.213	14.229	915.466	688.885
186.227	14.244	914.946	688.496
187.242	14.200	914.993	688.289
188.256	14.122	914.012	687.166
189.271	14.101	913.519	686.649
190.286	14.276	912.423	686.487
191.300	14.143	911.973	685.536
192.315	13.891	911.024	683.727
193.329	14.040	909.980	683.493
194.344	13.920	909.497	682.578
195.359	13.897	908.801	681.903
196.373	14.192	908.567	682.875
197.388	14.355	907.402	682.608
198.402	14.180	907.392	681.823
199.417	14.260	907.223	681.963
200.432	14.396	906.387	681.831
201.446	14.484	905.655	681.581
202.461	14.508	905.407	681.433
203.475	14.482	904.984	680.946
204.490	14.483	904.517	680.539
205.504	14.555	903.554	680.047
206.519	14.405	902.585	678.645
207.534	14.365	902.160	678.106
208.548	14.322	901.303	677.224
209.563	14.330	901.041	677.002
210.577	14.377	899.773	676.179
211.592	14.320	899.634	675.783
212.607	14.503	898.939	675.944
213.621	14.564	898.353	675.693
214.636	14.534	897.536	674.894
215.650	14.608	896.887	674.646
216.665	14.441	896.669	673.748
217.680	14.561	896.056	673.712
218.694	14.641	895.271	673.387
219.709	14.543	895.016	672.741
220.723	14.627	894.099	672.329
221.738	14.556	893.545	671.568
222.753	14.611	892.964	671.293
223.767	14.751	892.021	671.087
224.782	14.742	891.416	670.535
225.796	14.718	890.550	669.727
226.811	14.738	890.415	669.649
227.826	14.751	889.367	668.851
228.840	14.790	888.670	668.426
229.855	14.675	888.383	667.691
230.869	14.797	887.366	667.352
231.884	14.769	886.761	666.728
232.899	14.727	885.709	665.712
233.913	14.662	885.474	665.215
234.928	14.578	885.017	664.478
235.942	14.614	884.115	663.887
236.957	14.668	883.467	663.557
237.972	14.659	882.988	663.102
238.986	14.813	882.144	663.020
240.001	14.689	881.070	661.663
241.015	14.708	880.409	661.183
242.030	14.840	879.785	661.177
243.045	14.742	879.625	660.612
244.059	14.778	878.894	660.149
245.074	14.890	878.266	660.059
246.088	14.935	877.443	659.561
247.103	14.903	876.989	659.033
248.117	14.984	876.587	658.994
249.132	14.982	875.977	658.469
250.147	15.016	875.340	658.066
251.161	15.114	874.767	657.960
252.176	15.183	874.224	657.766
253.190	15.108	873.295	656.715
254.205	15.304	873.075	657.259
255.220	15.375	872.064	656.717
256.234	15.230	871.671	655.795
257.249	15.238	871.014	655.273
258.263	15.213	870.595	654.804
259.278	15.324	869.844	654.614
260.293	15.420	869.233	654.472
261.307	15.390	868.868	654.023
262.322	15.432	867.981	653.457
263.336	15.370	867.612	652.882
264.351	15.407	867.213	652.669
265.366	15.357	866.737	652.058
266.380	15.397	865.769	651.429
267.395	15.384	865.040	650.772
268.409	15.361	864.458	650.186
269.424	15.509	863.895	650.278
270.439	15.461	862.946	649.320
271.453	15.479	862.060	648.665
272.468	15.316	861.594	647.628
273.482	15.337	861.215	647.369
274.497	15.513	860.335	647.327
275.512	15.529	859.364	646.602
276.526	15.504	858.586	645.864
277.541	15.431	858.030	645.104
278.555	15.434	857.606	644.741
279.570	15.512	857.236	644.707
280.585	15.668	856.601	644.771
281.599	15.607	856.227	644.198
282.614	15.556	855.854	643.666
283.628	15.748	854.527	643.344
284.643	15.658	854.094	642.616
285.657	15.835	853.667	642.916
286.672	15.677	853.244	641.936
287.687	15.560	852.995	641.247
288.701	15.691	852.241	641.122
289.716	15.704	851.461	640.529
290.730	15.592	851.376	639.982
291.745	15.695	850.418	639.596
292.760	15.803	849.778	639.470
293.774	15.822	849.023	638.917
294.789	15.935	848.359	638.787
295.803	15.799	848.022	637.963
296.818	15.856	847.061	637.397
297.833	15.838	846.481	636.838
298.847	15.902	845.796	636.509
299.862	15.820	845.039	635.573
300.876	15.860	844.365	635.161
301.891	15.757	844.137	634.545
302.906	15.942	843.472	634.684
303.920	15.920	842.802	634.044
304.935	15.986	842.196	633.778
305.949	15.979	841.905	633.478
306.964	16.011	841.552	633.275
307.979	16.011	840.566	632.477
308.993	16.143	839.955	632.458
310.008	16.203	839.497	632.280
311.022	16.074	838.830	631.241
312.037	16.077	838.327	630.815
313.052	16.052	837.756	630.239
314.066	16.086	837.090	629.807
315.081	16.095	836.499	629.342
316.095	15.985	836.393	628.793
317.110	15.941	835.507	627.909
318.125	16.022	835.244	627.959
319.139	16.042	834.453	627.381
320.154	16.035	834.095	627.033
321.168	15.950	833.676	626.344
322.183	16.114	832.977	626.374
323.197	16.231	832.296	626.241
324.212	16.282	831.573	625.829
325.227	16.126	831.103	624.842
326.241	16.158	830.543	624.484
327.256	16.134	830.081	623.992
328.270	16.043	829.754	623.355
329.285	16.240	829.092	623.530
330.300	16.097	828.721	622.668
331.314	16.140	828.017	622.245
332.329	16.110	827.286	621.526
333.343	16.281	826.898	621.810
334.358	16.360	826.028	621.394
335.373	16.255	825.810	620.790
336.387	16.468	825.119	620.995
337.402	16.311	824.827	620.144
338.416	16.364	824.318	619.902
339.431	16.438	823.573	619.559
340.446	16.550	822.829	619.354
341.460	16.633	822.479	619.338
342.475	16.635	821.933	618.882
343.489	16.534	821.659	618.252
344.504	16.632	820.973	618.036
345.519	16.654	820.535	617.731
346.533	16.768	820.117	617.782
347.548	16.682	819.577	617.005
348.562	16.566	818.875	616.000
349.577	16.654	818.140	615.712
350.592	16.583	817.507	614.923
351.606	16.637	817.354	614.950
352.621	16.542	816.865	614.181
353.635	16.635	816.741	614.372
354.650	16.650	816.025	613.835
355.665	16.584	815.984	613.509
356.679	16.705	815.296	613.377
357.694	16.715	814.826	613.005
358.708	16.643	814.055	612.109
359.723	16.777	813.596	612.195
360.738	16.716	812.663	611.219
361.752	16.644	812.915	611.095
362.767	16.774	812.403	611.124
363.781	16.763	811.830	610.598
364.796	16.848	811.230	610.399
365.810	16.845	810.974	610.142
366.825	16.876	810.570	609.895
367.840	17.085	810.462	610.514
368.854	17.026	809.772	609.727
369.869	16.960	808.975	608.835
370.883	17.028	808.548	608.706
371.898	17.026	807.639	607.958
372.913	17.000	807.256	607.525
373.927	16.970	807.081	607.232
374.942	17.031	806.265	606.783
375.956	17.070	805.361	606.186
376.971	17.165	804.667	605.950
377.986	17.290	804.570	606.269
379.000	17.193	804.161	605.562
380.015	17.175	803.484	604.936
381.029	17.200	803.040	604.637
382.044	17.332	802.576	604.701
383.059	17.237	801.977	603.859
384.073	17.213	801.565	603.410
385.088	17.235	800.990	603.001
386.102	17.319	800.157	602.620
387.117	17.173	799.877	601.839
388.132	17.150	799.243	601.226
389.146	17.168	799.201	601.205
390.161	17.151	798.890	600.858
391.175	17.260	798.342	600.778
392.190	17.287	797.785	600.402
393.205	17.352	797.058	600.029
394.219	17.205	797.145	599.525
395.234	17.311	796.362	599.257
396.248	17.342	795.729	598.836
397.263	17.205	795.309	597.985
398.278	17.114	794.717	597.166
399.292	17.234	794.529	597.395
400.307	17.232	794.438	597.267
401.321	17.267	793.432	596.578
402.336	17.257	793.352	596.430
403.350	17.336	793.026	596.411
404.365	17.329	792.708	596.093
405.380	17.459	791.723	595.758
406.394	17.480	791.148	595.344
407.409	17.496	791.374	595.517
408.423	17.478	790.712	594.903
409.438	17.582	790.642	595.162
410.453	17.553	789.883	594.435
411.467	17.575	789.689	594.315
412.482	17.638	788.957	593.931
413.496	17.674	788.660	593.780
414.511	17.731	788.045	593.462
415.526	17.882	787.024	593.168
416.540	17.732	787.631	593.050
417.555	17.796	786.815	592.606
418.569	17.706	786.613	592.089
419.584	17.681	786.081	591.549
420.599	17.663	785.680	591.133
421.613	112.184	1292.435	1477.694
422.628	96.293	1366.260	1477.794
