DTS Sentinel unit serial number:	SN413079Multiplexer serial number:	ORYXHardware model number:	OX4-SRSoftware version number:	ORYX F/W v4.00 Oryx Data Collector v3.7.2.0data status	okinstallation	princeton_trtdifferential loss correction	single-endedforward channel	channel 3reverse channel	N/Adate	2019/09/17time	19:16:35forward acquisition time	60.00reverse acquisition time	0.00gamma	496.2192k internal	0.2300k external	0.2300temperature offset calibration	0.9947default loss term (dB/km)	0.3790temperature slope calibration	1.0000multiplexer offset coefficient	1.0000multiplexer slope coefficient	1.0000fibre end	0.00T internal ref (°C)	38.50T ext. ref 1 (°C)	0.27T ext. ref 2 (°C)	26.80length (m)	temperature (°C)	Stokes	anti-Stokes-747.200	-200.000	-0.027	0.414
-746.185	-200.000	0.035	-0.188
-745.171	-36.879	0.071	-0.039
-744.156	-200.000	0.051	0.425
-743.142	-157.053	-0.313	-0.019
-742.127	518.860	-0.167	0.399
-741.112	11.585	-0.045	0.035
-740.098	-121.933	-0.118	-0.020
-739.083	281.831	0.049	0.089
-738.069	74.506	-0.148	-0.159
-737.054	-61.395	-0.033	-0.014
-736.039	137.476	0.079	0.106
-735.025	189.781	-0.040	0.061
-734.010	708.399	-0.066	-0.177
-732.996	-200.000	-0.011	-0.225
-731.981	-6.545	-0.192	0.134
-730.966	-75.070	0.231	0.084
-729.952	145.051	-0.139	-0.190
-728.937	95.052	-0.188	-0.218
-727.923	-156.064	-0.256	-0.016
-726.908	-22.981	-0.085	-0.052
-725.894	-168.038	-0.142	-0.006
-724.879	-200.000	0.024	-0.110
-723.864	102.078	0.111	-0.132
-722.850	-114.244	-0.170	-0.033
-721.835	800.000	-0.038	-0.170
-720.821	45.383	-0.212	-0.200
-719.806	515.778	-0.098	-0.234
-718.791	-76.858	-0.136	0.048
-717.777	160.125	-0.104	0.148
-716.762	174.606	0.068	0.100
-715.748	310.251	-0.158	0.302
-714.733	40.870	0.094	-0.087
-713.718	800.000	0.021	-0.071
-712.704	501.863	0.032	0.074
-711.689	591.577	0.122	-0.306
-710.675	-155.264	0.143	-0.010
-709.660	800.000	0.061	-0.242
-708.645	-10.663	-0.134	0.090
-707.631	50.574	0.044	0.043
-706.616	-200.000	0.000	0.115
-705.602	-84.405	0.144	-0.046
-704.587	-87.723	-0.305	0.094
-703.572	-200.000	0.031	0.163
-702.558	124.661	0.156	0.200
-701.543	800.000	0.007	-0.019
-700.529	-45.306	0.382	0.193
-699.514	-136.020	-0.140	0.017
-698.499	-11.595	-0.030	0.020
-697.485	-200.000	-0.003	0.073
-696.470	800.000	-0.037	0.150
-695.456	800.000	-0.036	0.145
-694.441	-30.454	-0.083	-0.048
-693.426	-82.560	0.291	0.096
-692.412	-53.691	-0.276	0.128
-691.397	-133.250	-0.242	0.031
-690.383	95.517	0.210	-0.244
-689.368	280.699	0.070	-0.127
-688.354	98.919	-0.250	0.294
-687.339	682.719	0.043	0.114
-686.324	-3.212	-0.050	0.036
-685.310	74.461	0.115	0.123
-684.295	285.005	0.164	0.300
-683.281	103.681	0.028	-0.033
-682.266	-27.128	-0.042	-0.025
-681.251	800.000	0.073	-0.287
-680.237	213.656	-0.092	-0.148
-679.222	-115.612	-0.081	-0.015
-678.208	-144.959	0.427	-0.040
-677.193	-200.000	0.020	-0.204
-676.178	795.352	0.042	-0.119
-675.164	-37.087	-0.090	-0.049
-674.149	-22.278	-0.175	0.108
-673.135	111.503	-0.188	0.231
-672.120	-200.000	-0.010	-0.202
-671.105	-161.778	-0.029	-0.002
-670.091	-17.595	-0.231	0.148
-669.076	-116.068	0.372	-0.070
-668.062	-32.720	0.091	-0.052
-667.047	751.855	-0.047	-0.129
-666.032	-127.347	-0.382	-0.057
-665.018	-200.000	0.011	0.082
-664.003	-128.756	0.321	-0.046
-662.989	-134.391	-0.106	-0.013
-661.974	-200.000	0.012	-0.115
-660.959	-74.530	0.180	-0.066
-659.945	-100.630	0.132	0.033
-658.930	-189.259	0.405	0.005
-657.916	87.828	-0.032	0.036
-656.901	800.000	-0.088	-0.341
-655.886	-200.000	0.015	-0.197
-654.872	-9.366	-0.201	-0.137
-653.857	-60.873	-0.159	-0.069
-652.843	-131.621	0.284	-0.038
-651.828	-80.811	-0.098	0.033
-650.814	-113.618	-0.019	0.004
-649.799	-141.481	-0.143	0.015
-648.784	605.621	-0.066	0.166
-647.770	351.871	0.121	0.244
-646.755	-200.000	-0.061	0.438
-645.741	-66.086	0.276	0.112
-644.726	69.694	-0.147	0.154
-643.711	-110.099	-0.383	-0.081
-642.697	-161.181	0.134	0.007
-641.682	-200.000	-0.026	-0.142
-640.668	800.000	-0.044	-0.153
-639.653	96.409	-0.193	-0.224
-638.638	-114.830	-0.342	-0.066
-637.624	800.000	-0.002	0.005
-636.609	-73.776	0.114	0.042
-635.595	695.585	0.125	-0.333
-634.580	-200.000	-0.032	-0.286
-633.565	-200.000	0.008	0.050
-632.551	56.546	-0.073	-0.072
-631.536	32.114	0.223	0.196
-630.522	-92.999	0.071	0.020
-629.507	123.543	-0.134	0.170
-628.492	-72.967	0.193	-0.072
-627.478	154.262	-0.026	0.036
-626.463	93.747	-0.269	-0.310
-625.449	800.000	-0.043	0.188
-624.434	-200.000	-0.032	-0.280
-623.419	-14.998	0.371	-0.242
-622.405	-200.000	0.041	-0.224
-621.390	1.068	0.297	0.216
-620.376	120.190	-0.068	0.085
-619.361	-20.935	0.171	-0.106
-618.346	-16.796	-0.302	-0.194
-617.332	-61.646	0.122	-0.052
-616.317	-200.000	-0.029	0.248
-615.303	-123.258	0.090	-0.015
-614.288	-104.219	-0.239	-0.056
-613.273	-200.000	0.042	-0.193
-612.259	508.326	-0.052	-0.123
-611.244	-99.683	-0.343	0.087
-610.230	13.325	-0.213	0.167
-609.215	169.883	-0.136	-0.197
-608.201	-58.426	0.147	0.065
-607.186	-189.968	0.235	-0.003
-606.171	8.164	0.398	-0.303
-605.157	168.707	-0.163	0.235
-604.142	-33.841	-0.376	-0.210
-603.128	103.750	-0.140	0.167
-602.113	-53.179	0.331	0.154
-601.098	114.074	-0.170	0.209
-600.084	-200.000	-0.040	0.220
-599.069	-80.120	-0.069	0.024
-598.055	-68.781	0.223	-0.088
-597.040	-139.239	0.279	-0.030
-596.025	800.000	0.017	0.073
-595.011	-97.666	-0.243	-0.064
-593.996	-200.000	-0.003	0.121
-592.982	800.000	-0.089	0.311
-591.967	7.378	0.045	0.034
-590.952	-0.912	-0.222	0.159
-589.938	-139.827	0.271	-0.029
-588.923	-21.013	0.077	0.048
-587.909	197.095	0.060	0.093
-586.894	-47.645	-0.205	-0.101
-585.879	41.545	-0.273	0.250
-584.865	-93.786	-0.124	-0.035
-583.850	493.872	-0.130	-0.303
-582.836	-138.366	-0.247	0.028
-581.821	91.612	0.077	-0.088
-580.806	-55.633	-0.084	0.038
-579.792	-143.342	0.252	0.024
-578.777	-67.156	0.112	0.045
-577.763	-37.102	-0.104	0.056
-576.748	-69.575	0.119	-0.046
-575.733	-150.479	-0.068	0.005
-574.719	546.373	0.258	-0.626
-573.704	-9.031	-0.155	-0.105
-572.690	206.187	0.042	0.066
-571.675	215.395	-0.072	-0.116
-570.661	-18.583	-0.161	-0.102
-569.646	-71.393	0.139	-0.053
-568.631	178.406	0.078	0.115
-567.617	800.000	-0.054	-0.193
-566.602	-34.963	0.167	0.092
-565.588	-110.539	0.035	0.007
-564.573	7.850	0.206	0.157
-563.558	800.000	-0.091	0.402
-562.544	8.283	-0.235	-0.179
-561.529	-200.000	-0.027	-0.180
-560.515	-91.326	0.227	-0.066
-559.500	-200.000	-0.002	0.093
-558.485	-200.000	0.055	0.382
-557.471	-200.000	0.032	0.208
-556.456	-200.000	-0.068	0.302
-555.442	618.520	-0.041	0.105
-554.427	-200.000	0.038	0.238
-553.412	-169.314	-0.156	-0.006
-552.398	-54.428	-0.054	0.025
-551.383	-82.808	-0.125	-0.041
-550.369	383.354	0.162	-0.338
-549.354	-200.000	-0.003	0.175
-548.339	41.950	-0.037	-0.034
-547.325	-200.000	0.002	-0.105
-546.310	-200.000	-0.076	-0.361
-545.296	3.167	-0.167	-0.123
-544.281	800.000	-0.090	-0.288
-543.266	160.414	0.027	0.039
-542.252	-137.584	-0.444	-0.051
-541.237	88.161	-0.128	-0.144
-540.223	242.072	0.088	0.148
-539.208	50.366	-0.088	-0.084
-538.193	434.610	-0.091	0.200
-537.179	-35.757	-0.123	0.067
-536.164	-20.108	-0.328	-0.205
-535.150	-200.000	0.047	-0.250
-534.135	-8.118	0.104	0.071
-533.121	-200.000	-0.019	0.132
-532.106	-104.968	0.190	-0.044
-531.091	411.563	-0.176	-0.379
-530.077	800.000	0.069	0.261
-529.062	495.557	0.092	-0.215
-528.048	-16.554	0.190	0.122
-527.033	229.665	-0.322	-0.532
-526.018	123.085	-0.389	0.492
-525.004	-70.690	-0.095	-0.036
-523.989	-200.000	0.007	-0.308
-522.975	278.587	-0.095	0.171
-521.960	-200.000	0.026	-0.159
-520.945	-71.396	-0.334	-0.127
-519.931	455.976	-0.045	-0.101
-518.916	800.000	0.049	-0.161
-517.902	57.634	-0.335	0.331
-516.887	110.678	0.110	0.134
-515.872	111.988	-0.096	-0.118
-514.858	-7.773	0.148	-0.101
-513.843	800.000	0.035	-0.135
-512.829	-34.073	0.164	-0.091
-511.814	-2.486	0.111	0.079
-510.799	-14.997	0.223	-0.144
-509.785	800.000	0.063	-0.235
-508.770	48.631	0.170	-0.161
-507.756	291.230	-0.061	-0.111
-506.741	-155.796	0.186	0.012
-505.726	428.796	0.110	0.241
-504.712	-200.000	0.002	-0.214
-503.697	-200.000	0.008	-0.238
-502.683	101.778	-0.149	-0.175
-501.668	440.314	-0.085	-0.189
-500.653	-13.262	-0.151	-0.099
-499.639	-138.372	-0.245	-0.027
-498.624	-69.616	-0.321	-0.124
-497.610	-200.000	-0.088	-0.486
-496.595	43.024	-0.238	0.219
-495.581	-24.782	-0.067	-0.040
-494.566	-73.813	0.197	0.072
-493.551	-76.612	-0.227	-0.081
-492.537	310.747	0.156	0.294
-491.522	-6.869	0.072	-0.049
-490.508	69.260	0.139	-0.145
-489.493	-31.627	-0.273	0.155
-488.478	-22.070	-0.112	0.069
-487.464	17.005	0.060	-0.048
-486.449	-200.000	-0.000	0.145
-485.435	253.971	0.149	0.256
-484.420	-104.151	-0.128	-0.030
-483.405	-200.000	0.046	-0.231
-482.391	-41.383	-0.207	0.108
-481.376	-100.188	0.085	0.021
-480.362	46.901	0.122	-0.114
-479.347	-54.207	0.019	0.009
-478.332	800.000	-0.060	-0.219
-477.318	81.360	-0.153	-0.166
-476.303	-70.509	-0.130	-0.050
-475.289	-200.000	-0.027	-0.258
-474.274	-200.000	-0.010	-0.071
-473.259	-36.991	-0.277	0.150
-472.245	333.691	-0.075	-0.146
-471.230	309.600	-0.037	-0.070
-470.216	-76.761	0.378	-0.133
-469.201	49.350	-0.197	-0.187
-468.186	-108.919	-0.218	0.047
-467.172	137.955	-0.116	-0.154
-466.157	-160.628	0.370	-0.020
-465.143	-45.829	-0.063	-0.031
-464.128	-200.000	0.040	0.277
-463.113	-4.778	0.280	0.195
-462.099	-61.150	0.246	-0.105
-461.084	-110.065	-0.205	0.043
-460.070	135.210	0.203	-0.267
-459.055	-52.866	0.053	-0.024
-458.040	-133.059	-0.256	0.033
-457.026	-200.000	-0.003	-0.275
-456.011	-14.076	-0.187	-0.122
-454.997	-200.000	0.001	-0.270
-453.982	129.710	-0.155	-0.200
-452.968	800.000	-0.086	0.250
-451.953	-115.917	-0.173	0.033
-450.938	-200.000	-0.013	0.122
-449.924	-200.000	-0.031	0.209
-448.909	102.598	0.161	0.190
-447.895	-200.000	0.084	-0.432
-446.880	-200.000	-0.000	-0.157
-445.865	539.692	0.123	0.294
-444.851	-200.000	-0.070	0.364
-443.836	-200.000	-0.032	0.145
-442.822	-200.000	0.029	0.262
-441.807	647.983	-0.107	0.275
-440.792	-200.000	0.011	-0.128
-439.778	-200.000	-0.035	-0.443
-438.763	154.169	0.071	-0.099
-437.749	-200.000	-0.010	-0.108
-436.734	341.423	0.124	0.244
-435.719	-60.065	0.201	0.086
-434.705	-86.303	0.350	-0.108
-433.690	130.520	0.147	0.189
-432.676	-200.000	-0.009	0.193
-431.661	-102.032	0.142	-0.035
-430.646	33.603	0.123	0.108
-429.632	-68.981	0.297	-0.115
-428.617	285.144	0.126	0.229
-427.603	-105.145	-0.456	0.105
-426.588	-200.000	0.026	0.156
-425.573	-24.376	-0.290	0.174
-424.559	161.873	-0.104	-0.147
-423.544	-8.169	-0.119	0.081
-422.530	311.102	-0.085	0.160
-421.515	108.148	-0.149	-0.179
-420.500	-200.000	0.024	-0.232
-419.486	-0.799	0.154	-0.110
-418.471	800.000	-0.079	0.275
-417.457	-71.001	-0.277	-0.105
-416.442	171.329	0.194	-0.280
-415.428	800.000	0.037	0.155
-414.413	-55.626	0.342	0.154
-413.398	-179.807	0.403	0.009
-412.384	-103.741	-0.204	-0.048
-411.369	413.050	-0.131	-0.280
-410.355	695.616	-0.190	-0.502
-409.340	610.525	0.119	0.299
-408.325	166.618	-0.232	0.331
-407.311	-200.000	-0.029	0.320
-406.296	58.806	-0.105	0.104
-405.282	-87.468	0.297	0.090
-404.267	-16.767	0.165	-0.105
-403.252	800.000	0.068	0.204
-402.238	-200.000	0.017	-0.214
-401.223	99.891	0.236	-0.275
-400.209	-200.000	-0.005	-0.180
-399.194	-104.385	-0.211	0.049
-398.179	210.845	0.121	0.192
-397.165	5.482	-0.077	-0.057
-396.150	-116.681	-0.244	0.045
-395.136	-200.000	0.071	-0.316
-394.121	344.168	0.108	-0.213
-393.106	179.897	0.091	0.134
-392.092	-200.000	0.009	-0.050
-391.077	-60.598	-0.182	0.078
-390.063	-200.000	-0.076	0.362
-389.048	629.172	0.079	0.202
-388.033	670.868	-0.012	0.030
-387.019	-200.000	0.063	0.337
-386.004	-200.000	0.024	0.416
-384.990	800.000	0.109	-0.397
-383.975	-116.752	-0.248	-0.046
-382.960	21.096	-0.114	-0.093
-381.946	-104.342	0.259	0.060
-380.931	57.238	-0.097	0.095
-379.917	-14.332	-0.133	-0.086
-378.902	800.000	0.029	-0.116
-377.888	776.736	-0.078	0.213
-376.873	800.000	-0.113	-0.313
-375.858	290.159	0.121	0.221
-374.844	754.980	-0.117	0.317
-373.829	-187.910	-0.090	0.001
-372.815	-23.303	-0.160	0.096
-371.800	-200.000	-0.006	0.064
-370.785	60.953	0.142	-0.142
-369.771	29.430	0.239	0.204
-368.756	-15.015	0.027	-0.017
-367.742	533.239	0.031	0.075
-366.727	-200.000	0.074	0.000
-365.712	106.628	0.171	-0.203
-364.698	-129.725	0.133	0.018
-363.683	800.000	0.052	-0.178
-362.669	800.000	-0.072	-0.260
-361.654	198.383	0.065	-0.099
-360.639	-74.764	0.120	-0.043
-359.625	537.212	0.083	-0.198
-358.610	361.592	0.048	-0.096
-357.596	358.069	-0.127	0.255
-356.581	-150.664	-0.246	-0.019
-355.566	371.387	-0.018	-0.038
-354.552	-200.000	-0.012	-0.104
-353.537	-103.134	0.205	-0.049
-352.523	32.845	-0.091	-0.079
-351.508	9.641	-0.096	0.073
-350.493	-70.287	0.271	-0.103
-349.479	-96.627	-0.313	-0.083
-348.464	109.518	-0.083	-0.099
-347.450	-200.000	0.043	0.364
-346.435	-200.000	0.014	-0.126
-345.420	181.194	-0.096	0.142
-344.406	-121.689	-0.203	0.034
-343.391	100.535	0.154	0.180
-342.377	-200.000	0.160	-0.000
-341.362	-60.795	-0.162	-0.069
-340.348	173.118	0.248	0.358
-339.333	-98.158	0.064	-0.016
-338.318	-26.923	-0.132	0.077
-337.304	3.752	0.089	0.065
-336.289	800.000	-0.022	-0.093
-335.275	-1.415	-0.302	-0.214
-334.260	-78.929	0.093	0.032
-333.245	281.867	0.086	0.155
-332.231	-113.178	-0.304	-0.060
-331.216	675.016	-0.065	-0.168
-330.202	-29.928	-0.249	0.142
-329.187	-108.735	0.262	-0.056
-328.172	0.356	-0.127	0.091
-327.158	-43.129	-0.278	-0.142
-326.143	-115.958	-0.122	0.023
-325.129	513.179	0.044	-0.103
-324.114	256.575	-0.155	-0.267
-323.099	136.929	-0.101	-0.133
-322.085	-125.612	0.378	-0.058
-321.070	408.718	0.046	-0.098
-320.056	336.091	-0.125	-0.244
-319.041	800.000	0.048	0.149
-318.026	-200.000	0.007	0.042
-317.012	-200.000	0.005	0.107
-315.997	70.170	0.068	-0.071
-314.983	87.100	0.171	-0.189
-313.968	-200.000	0.038	0.295
-312.953	17.907	-0.048	0.039
-311.939	18.247	-0.083	-0.066
-310.924	-200.000	0.053	-0.398
-309.910	144.165	0.293	0.392
-308.895	-141.697	-0.165	0.017
-307.880	516.380	0.060	-0.140
-306.866	147.791	0.145	-0.196
-305.851	800.000	-0.151	0.419
-304.837	-200.000	0.010	-0.074
-303.822	126.013	0.156	-0.197
-302.807	-99.769	0.251	-0.063
-301.793	76.361	0.216	0.229
-300.778	2.079	-0.065	-0.047
-299.764	640.557	-0.040	0.102
-298.749	-200.000	0.009	0.341
-297.735	48.524	0.113	-0.106
-296.720	21.875	-0.263	-0.215
-295.705	662.040	-0.044	0.115
-294.691	11.260	0.101	-0.077
-293.676	-51.994	-0.215	0.100
-292.662	-27.601	-0.103	-0.060
-291.647	-121.910	-0.125	-0.021
-290.632	-200.000	-0.015	-0.102
-289.618	-24.851	-0.404	-0.240
-288.603	-200.000	0.065	-0.371
-287.589	228.575	0.094	0.153
-286.574	-109.676	0.079	-0.017
-285.559	88.701	0.161	-0.179
-284.545	-13.699	0.249	0.162
-283.530	-90.433	-0.108	0.031
-282.516	-67.052	-0.145	-0.057
-281.501	800.000	0.135	-0.409
-280.486	-200.000	0.044	-0.382
-279.472	329.060	0.081	0.155
-278.457	-91.581	-0.101	0.029
-277.443	-162.824	0.303	0.015
-276.428	-42.806	-0.137	-0.070
-275.413	-42.239	-0.224	-0.115
-274.399	-69.316	-0.194	-0.074
-273.384	-200.000	-0.000	0.071
-272.370	58.431	-0.040	0.039
-271.355	27.181	-0.027	0.023
-270.340	158.753	-0.127	0.177
-269.326	62.547	0.164	-0.164
-268.311	-200.000	-0.026	0.408
-267.297	-72.836	-0.116	0.043
-266.282	-45.883	0.367	-0.181
-265.267	-200.000	-0.012	0.366
-264.253	-20.320	-0.106	-0.065
-263.238	154.606	0.081	-0.111
-262.224	-71.639	-0.179	-0.067
-261.209	-50.005	0.228	-0.108
-260.195	226.390	0.125	-0.203
-259.180	11.773	-0.174	-0.133
-258.165	-184.573	-0.322	-0.005
-257.151	333.487	-0.138	0.267
-256.136	-101.563	0.226	0.055
-255.122	34.926	-0.199	0.174
-254.107	-139.863	-0.296	-0.031
-253.092	-58.206	-0.173	0.075
-252.078	-200.000	0.023	0.132
-251.063	-66.452	0.240	0.095
-250.049	-22.027	-0.162	-0.098
-249.034	-114.871	-0.171	0.033
-248.019	47.102	0.166	0.154
-247.005	-77.564	0.173	-0.060
-245.990	800.000	-0.052	-0.158
-244.976	-147.127	-0.123	0.011
-243.961	84.992	-0.073	0.080
-242.946	800.000	0.066	0.224
-241.932	-81.436	0.189	0.062
-240.917	38.323	0.409	-0.365
-239.903	265.762	0.116	0.202
-238.888	256.748	0.024	-0.041
-237.873	-173.556	-0.360	0.011
-236.859	54.576	0.184	0.177
-235.844	-200.000	0.012	0.130
-234.830	140.165	-0.085	-0.112
-233.815	91.339	0.139	-0.156
-232.800	325.878	-0.091	0.175
-231.786	63.597	0.074	-0.074
-230.771	41.048	-0.177	-0.160
-229.757	335.727	-0.095	-0.184
-228.742	800.000	-0.099	-0.342
-227.727	-52.409	0.436	0.202
-226.713	-91.042	-0.197	-0.057
-225.698	36.676	0.189	0.167
-224.684	-22.685	0.284	0.172
-223.669	73.363	-0.092	0.096
-222.655	-200.000	0.038	-0.252
-221.640	130.896	-0.067	0.086
-220.625	-200.000	-0.056	0.385
-219.611	800.000	0.043	-0.185
-218.596	198.567	0.170	0.260
-217.582	-72.699	0.256	-0.094
-216.567	-200.000	-0.007	0.125
-215.552	800.000	0.046	0.163
-214.538	350.928	0.167	0.331
-213.523	127.821	0.087	0.110
-212.509	429.411	-0.027	0.059
-211.494	2.056	-0.136	0.098
-210.479	-28.399	0.189	0.109
-209.465	-200.000	0.004	-0.293
-208.450	800.000	0.092	-0.340
-207.436	-137.473	-0.138	-0.016
-206.421	269.954	-0.039	-0.069
-205.406	-25.225	0.305	-0.180
-204.392	-53.711	0.274	-0.125
-203.377	-91.371	0.416	-0.119
-202.363	-200.000	-0.045	0.239
-201.348	15.391	-0.100	-0.078
-200.333	-200.000	0.070	0.410
-199.319	-170.390	0.132	-0.005
-198.304	301.663	-0.257	0.474
-197.290	6.679	0.149	-0.111
-196.275	-119.154	0.496	0.086
-195.260	74.384	-0.086	0.090
-194.246	-95.688	0.117	0.031
-193.231	223.598	0.193	-0.310
-192.217	-21.797	-0.053	-0.032
-191.202	78.028	-0.157	0.167
-190.187	800.000	-0.037	0.105
-189.173	-200.000	0.013	-0.076
-188.158	1.321	0.061	0.044
-187.144	55.189	-0.406	0.391
-186.129	-150.176	0.211	0.016
-185.114	106.537	0.247	0.293
-184.100	-89.849	-0.136	-0.040
-183.085	308.948	0.101	-0.188
-182.071	316.131	0.079	-0.149
-181.056	-200.000	0.027	0.235
-180.042	60.658	0.284	0.281
-179.027	-52.430	-0.076	-0.035
-178.012	17.630	0.187	-0.148
-176.998	-13.706	-0.293	0.189
-175.983	-18.842	0.259	-0.161
-174.969	204.727	0.126	-0.195
-173.954	800.000	-0.164	0.523
-172.939	-200.000	0.014	0.156
-171.925	47.660	-0.304	0.283
-170.910	82.348	0.237	-0.256
-169.896	-167.245	0.409	-0.016
-168.881	480.475	-0.037	0.084
-167.866	-200.000	-0.038	0.340
-166.852	-84.376	0.309	0.097
-165.837	-82.834	0.301	-0.097
-164.823	800.000	-0.060	0.256
-163.808	128.765	-0.064	0.082
-162.793	-80.649	-0.200	-0.066
-161.779	-200.000	-0.008	0.131
-160.764	-48.541	0.201	0.096
-159.750	-162.508	0.127	-0.006
-158.735	66.882	-0.102	0.103
-157.720	2.577	-0.092	-0.066
-156.706	-38.047	0.466	-0.246
-155.691	84.948	-0.109	0.119
-154.677	-200.000	0.084	0.383
-153.662	-143.742	-0.265	0.025
-152.647	323.102	-0.048	-0.091
-151.633	-45.859	0.153	-0.075
-150.618	253.857	0.045	0.077
-149.604	103.534	0.087	0.101
-148.589	-46.933	-0.242	0.118
-147.574	-200.000	-0.038	0.378
-146.560	800.000	0.038	0.153
-145.545	800.000	-0.138	-0.413
-144.531	24.224	-0.159	0.131
-143.516	1.903	0.074	0.053
-142.502	-55.240	0.392	-0.175
-141.487	-109.193	-0.231	-0.049
-140.472	143.577	0.203	-0.269
-139.458	-99.120	-0.201	-0.051
-138.443	-75.880	0.283	-0.100
-137.429	132.629	0.119	0.153
-136.414	-65.866	-0.321	0.128
-135.399	-200.000	0.009	-0.066
-134.385	-200.000	-0.005	0.079
-133.370	112.875	-0.128	0.154
-132.356	-141.124	0.233	-0.024
-131.341	-54.215	0.274	0.124
-130.326	103.277	0.095	-0.111
-129.312	169.566	0.260	-0.370
-128.297	21.329	0.091	0.074
-127.283	-60.413	0.389	-0.165
-126.268	-171.663	0.402	0.013
-125.253	397.638	-0.100	-0.207
-124.239	-200.000	0.000	0.062
-123.224	800.000	0.019	0.077
-122.210	132.494	-0.137	0.176
-121.195	-77.141	-0.430	-0.149
-120.180	-58.504	0.045	0.020
-119.166	-111.493	-0.113	-0.023
-118.151	59.962	-0.112	0.110
-117.137	-200.000	0.016	0.195
-116.122	-32.309	-0.429	0.238
-115.107	320.924	0.184	0.347
-114.093	-6.132	0.122	-0.083
-113.078	-114.293	0.169	0.032
-112.064	138.892	-0.184	-0.241
-111.049	181.275	0.074	-0.108
-110.034	800.000	-0.086	-0.241
-109.020	113.597	-0.061	0.074
-108.005	-170.757	-0.390	0.013
-106.991	117.953	0.104	0.127
-105.976	-90.596	-0.179	-0.051
-104.962	-200.000	-0.033	0.275
-103.947	123.445	0.198	-0.247
-102.932	25.492	0.131	-0.108
-101.918	-200.000	0.022	0.408
-100.903	429.686	0.074	0.159
-99.889	414.036	-0.174	-0.369
-98.874	229.781	0.001	-0.001
-97.859	336.572	0.169	-0.326
-96.845	20.871	0.142	-0.114
-95.830	171.139	0.063	0.090
-94.816	305.892	0.043	-0.079
-93.801	-120.783	0.024	-0.004
-92.786	-92.382	0.154	-0.043
-91.772	596.660	0.072	0.178
-90.757	10.614	-0.116	0.088
-89.743	17.761	0.225	-0.178
-88.728	800.000	-0.056	-0.216
-87.713	124.936	0.146	-0.183
-86.699	25.920	0.092	-0.076
-85.684	237.963	0.180	-0.296
-84.670	-92.095	-0.141	0.040
-83.655	252.729	-0.207	0.351
-82.640	-200.000	0.004	0.207
-81.626	-68.612	-0.315	-0.121
-80.611	-200.000	-0.046	-0.203
-79.597	468.734	0.065	0.145
-78.582	17.381	0.176	0.139
-77.567	-146.272	0.312	-0.027
-76.553	-84.976	-0.241	-0.075
-75.538	163.433	-0.072	-0.100
-74.524	246.784	-0.075	-0.126
-73.509	198.399	0.271	-0.412
-72.494	208.106	-0.058	-0.090
-71.480	-200.000	0.006	0.098
-70.465	43.050	0.378	0.342
-69.451	391.050	0.085	0.174
-68.436	214.152	-0.098	0.154
-67.422	346.282	-0.011	0.021
-66.407	126.164	0.078	0.098
-65.392	747.352	-0.126	0.338
-64.378	385.732	0.161	0.330
-63.363	800.000	-0.090	-0.316
-62.349	-200.000	-0.016	0.265
-61.334	-6.573	-1.142	-0.772
-60.319	800.000	0.095	0.277
-59.305	-200.000	0.111	-0.648
-58.290	111.525	0.538	0.644
-57.276	800.000	0.429	1.499
-56.261	-200.000	89.620	521.094
-55.246	499.522	1366.177	3126.545
-54.232	152.008	2560.564	3466.594
-53.217	115.166	2213.657	2682.677
-52.203	48.894	1747.309	1627.815
-51.188	41.681	1553.744	1397.228
-50.173	39.183	1525.830	1354.884
-49.159	55.713	1572.804	1512.635
-48.144	59.876	1591.802	1559.992
-47.130	42.040	1549.238	1395.455
-46.115	38.726	1533.791	1358.569
-45.100	38.530	1530.084	1353.878
-44.086	38.539	1527.977	1352.018
-43.071	38.396	1526.643	1349.796
-42.057	38.407	1524.861	1348.246
-41.042	38.351	1523.938	1346.987
-40.027	38.367	1522.456	1345.738
-39.013	38.430	1520.700	1344.567
-37.998	38.438	1519.114	1343.160
-36.984	38.422	1518.412	1342.380
-35.969	38.422	1516.738	1340.843
-34.954	38.526	1515.338	1340.269
-33.940	38.465	1513.858	1338.488
-32.925	38.608	1511.922	1337.697
-31.911	38.495	1510.951	1336.014
-30.896	38.527	1509.461	1334.862
-29.881	38.674	1508.160	1334.658
-28.867	38.651	1506.375	1332.873
-27.852	38.551	1504.988	1330.915
-26.838	38.420	1504.289	1329.351
-25.823	38.518	1502.258	1328.168
-24.809	38.501	1500.513	1326.459
-23.794	38.613	1499.113	1325.926
-22.779	38.525	1498.051	1324.336
-21.765	38.521	1497.259	1323.557
-20.750	38.500	1495.782	1322.063
-19.736	38.601	1494.342	1321.416
-18.721	38.595	1493.611	1320.675
-17.706	38.521	1492.355	1319.013
-16.692	38.441	1491.401	1317.580
-15.677	38.535	1490.288	1317.179
-14.663	38.433	1489.537	1315.775
-13.648	38.469	1488.297	1314.868
-12.633	38.440	1487.353	1313.787
-11.619	38.450	1486.489	1313.043
-10.604	38.448	1485.492	1312.094
-9.590	38.452	1484.324	1311.036
-8.575	38.577	1483.547	1311.137
-7.560	38.472	1482.771	1309.696
-6.546	38.512	1481.732	1308.992
-5.531	38.499	1481.150	1308.340
-4.517	38.552	1479.807	1307.455
-3.502	38.477	1479.046	1306.230
-2.487	38.570	1477.625	1305.547
-1.473	38.617	1476.769	1305.050
-0.458	38.588	1475.326	1303.530
0.556	36.028	1464.411	1285.670
1.571	30.557	1433.487	1222.550
2.586	24.073	1365.706	1123.861
3.600	20.676	1278.523	1031.908
4.615	18.510	1230.570	980.741
5.629	15.918	1174.923	922.135
6.644	8.409	1090.145	817.238
7.659	1.577	1047.026	751.186
8.673	0.458	1041.382	741.574
9.688	0.283	1038.469	738.575
10.702	0.155	1036.906	736.771
11.717	0.195	1035.046	735.578
12.731	2.506	1037.004	748.206
13.746	9.919	1047.110	791.896
14.761	16.052	1054.786	827.841
15.775	17.121	1055.432	833.527
16.790	16.576	1053.801	829.492
17.804	15.583	1051.328	822.611
18.819	14.658	1049.583	816.651
19.834	14.139	1048.442	813.156
20.848	13.833	1047.086	810.538
21.863	13.649	1046.224	808.902
22.877	13.439	1045.919	807.570
23.892	13.097	1045.174	805.255
24.907	13.040	1044.180	804.139
25.921	12.972	1043.200	802.982
26.936	13.208	1042.710	803.684
27.950	13.246	1041.862	803.142
28.965	13.210	1041.400	802.541
29.980	13.194	1040.565	801.751
30.994	13.278	1039.568	801.317
32.009	13.304	1038.348	800.430
33.023	13.310	1038.066	800.175
34.038	13.323	1037.270	799.551
35.053	13.233	1036.546	798.487
36.067	13.242	1035.583	797.717
37.082	13.285	1034.621	797.111
38.096	13.156	1034.260	796.142
39.111	13.276	1033.126	795.775
40.126	13.283	1032.414	795.193
41.140	13.323	1030.920	794.164
42.155	13.161	1030.514	793.002
43.169	13.094	1029.542	791.862
44.184	12.944	1028.597	790.347
45.199	13.029	1027.405	789.771
46.213	13.079	1026.061	788.904
47.228	13.049	1025.341	788.138
48.242	13.147	1024.096	787.578
49.257	13.272	1022.855	787.147
50.271	13.216	1022.460	786.508
51.286	13.072	1021.376	784.920
52.301	13.225	1020.617	784.997
53.315	13.253	1019.704	784.357
54.330	13.256	1018.863	783.657
55.344	13.183	1018.624	783.057
56.359	13.093	1017.355	781.583
57.374	13.179	1016.281	781.096
58.388	13.133	1015.464	780.185
59.403	13.165	1014.839	779.788
60.417	13.083	1013.997	778.684
61.432	13.136	1013.428	778.425
62.447	13.065	1012.563	777.357
63.461	13.100	1011.474	776.618
64.476	13.014	1011.046	775.816
65.490	13.102	1010.070	775.412
66.505	13.093	1009.064	774.529
67.520	13.059	1008.993	774.248
68.534	13.052	1007.635	773.105
69.549	13.002	1007.005	772.317
70.563	13.123	1006.118	772.133
71.578	13.169	1005.391	771.723
72.593	13.008	1004.483	770.206
73.607	12.932	1003.762	769.230
74.622	13.081	1002.377	768.794
75.636	12.882	1001.953	767.478
76.651	12.970	1001.031	767.114
77.666	12.923	1000.366	766.316
78.680	13.079	999.658	766.430
79.695	12.916	999.103	765.179
80.709	13.012	998.519	765.113
81.724	13.083	997.189	764.355
82.739	13.038	996.855	763.820
83.753	13.143	995.978	763.568
84.768	13.234	995.177	763.305
85.782	13.288	994.444	762.926
86.797	13.265	993.591	762.097
87.812	13.231	993.278	761.632
88.826	13.062	992.858	760.464
89.841	13.204	991.398	759.934
90.855	13.177	990.298	758.897
91.870	13.282	989.392	758.617
92.884	13.322	988.814	758.290
93.899	13.265	988.052	757.378
94.914	13.264	988.083	757.331
95.928	13.416	987.248	757.317
96.943	13.420	986.331	756.567
97.957	13.327	985.452	755.400
98.972	13.291	984.801	754.672
99.987	13.263	984.223	754.032
101.001	13.355	983.072	753.503
102.016	13.356	982.166	752.749
103.030	13.378	981.237	752.069
104.045	13.263	980.477	750.898
105.060	13.334	979.028	750.044
106.074	13.256	978.402	749.143
107.089	13.281	977.463	748.473
108.103	13.080	976.725	746.934
109.118	13.171	975.649	746.454
110.133	13.101	975.091	745.643
111.147	13.173	974.182	745.207
112.162	13.124	973.466	744.373
113.176	13.209	972.048	743.608
114.191	13.191	971.555	743.081
115.206	13.259	970.830	742.767
116.220	13.132	970.014	741.507
117.235	13.305	968.984	741.432
118.249	13.160	968.407	740.273
119.264	13.187	967.471	739.616
120.279	13.179	966.552	738.811
121.293	13.241	965.759	738.417
122.308	13.235	964.857	737.632
123.322	13.153	964.221	736.714
124.337	13.248	962.967	736.118
125.352	13.201	962.221	735.270
126.366	13.240	960.503	734.069
127.381	13.200	959.706	733.214
128.395	13.178	959.074	732.570
129.410	13.210	957.853	731.715
130.424	13.164	957.086	730.862
131.439	13.114	956.155	729.865
132.454	13.225	955.461	729.761
133.468	13.287	954.560	729.282
134.483	13.222	954.178	728.637
135.497	13.259	953.494	728.212
136.512	13.375	952.481	727.887
137.527	13.211	951.932	726.681
138.541	13.244	950.888	725.965
139.556	13.285	949.934	725.351
140.570	13.263	949.569	724.913
141.585	13.420	948.298	724.565
142.600	13.197	947.884	723.210
143.614	13.371	947.453	723.577
144.629	13.338	946.548	722.678
145.643	13.506	945.440	722.503
146.658	13.396	944.559	721.287
147.673	13.416	943.588	720.566
148.687	13.487	942.465	719.956
149.702	13.288	942.516	719.064
150.716	13.344	941.167	718.213
151.731	13.249	940.886	717.525
152.746	13.231	939.878	716.614
153.760	13.266	939.375	716.319
154.775	13.274	938.365	715.518
155.789	13.292	937.714	715.040
156.804	13.360	936.814	714.582
157.819	13.489	936.031	714.476
158.833	13.546	935.196	714.022
159.848	13.541	934.474	713.388
160.862	13.568	934.107	713.158
161.877	13.559	933.794	712.818
162.892	13.444	933.132	711.757
163.906	13.385	932.093	710.646
164.921	13.341	931.188	709.704
165.935	13.525	929.673	709.278
166.950	13.413	929.313	708.460
167.964	13.443	928.300	707.752
168.979	13.495	927.188	707.063
169.994	13.391	926.198	705.801
171.008	13.423	925.763	705.545
172.023	13.403	924.914	704.751
173.037	13.518	924.052	704.522
174.052	13.481	923.535	703.909
175.067	13.674	922.592	703.945
176.081	13.486	922.111	702.719
177.096	13.517	921.001	701.943
178.110	13.532	920.008	701.188
179.125	13.517	919.755	700.868
180.140	13.517	918.985	700.218
181.154	13.605	918.418	700.100
182.169	13.638	917.275	699.305
183.183	13.646	916.807	698.917
184.198	13.592	916.216	698.180
185.213	13.745	914.976	697.816
186.227	13.784	914.274	697.382
187.242	13.582	914.432	696.592
188.256	13.802	913.476	696.725
189.271	13.704	912.891	695.807
190.286	13.646	911.867	694.724
191.300	13.686	911.221	694.338
192.315	13.691	910.521	693.761
193.329	13.597	909.823	692.778
194.344	13.687	909.064	692.514
195.359	13.609	908.741	691.880
196.373	13.767	908.171	692.044
197.388	13.709	907.621	691.321
198.402	13.804	907.025	691.203
199.417	13.876	906.684	691.179
200.432	13.899	906.342	690.955
201.446	14.044	905.487	690.844
202.461	13.974	905.175	690.253
203.475	14.037	904.891	690.238
204.490	13.990	903.680	689.060
205.504	13.937	903.141	688.366
206.519	14.085	902.020	688.066
207.534	14.068	901.522	687.552
208.548	13.946	900.912	686.522
209.563	13.949	900.495	686.156
210.577	14.126	899.219	685.856
211.592	13.957	899.074	684.985
212.607	14.124	898.416	685.113
213.621	14.107	897.756	684.479
214.636	14.013	897.225	683.627
215.650	14.055	896.547	683.222
216.665	14.092	895.783	682.730
217.680	14.192	895.401	682.789
218.694	14.078	895.152	682.072
219.709	14.148	894.222	681.588
220.723	14.169	893.588	681.133
221.738	14.021	893.087	680.085
222.753	14.168	892.214	679.962
223.767	14.267	891.338	679.639
224.782	14.286	890.666	679.140
225.796	14.308	890.073	678.718
226.811	14.394	889.054	678.233
227.826	14.252	888.801	677.401
228.840	14.264	887.910	676.711
229.855	14.385	887.113	676.537
230.869	14.333	886.424	675.739
231.884	14.231	886.192	675.088
232.899	14.244	885.155	674.291
233.913	14.210	884.462	673.564
234.928	14.275	883.861	673.311
235.942	14.411	882.909	673.076
236.957	14.282	882.506	672.190
237.972	14.210	881.865	671.350
238.986	14.256	881.224	670.990
240.001	14.264	880.743	670.595
241.015	14.273	879.862	669.901
242.030	14.235	879.246	669.220
243.045	14.379	878.645	669.281
244.059	14.445	877.930	668.942
245.074	14.458	877.272	668.435
246.088	14.390	876.747	667.701
247.103	14.472	875.805	667.256
248.117	14.472	875.331	666.833
249.132	14.529	875.146	666.861
250.147	14.557	874.776	666.632
251.161	14.589	873.730	665.906
252.176	14.713	873.132	665.885
253.190	14.581	872.518	664.831
254.205	14.768	871.607	664.825
255.220	14.962	870.888	664.987
256.234	14.854	870.127	663.918
257.249	14.856	869.554	663.429
258.263	14.765	869.128	662.685
259.278	14.819	868.555	662.404
260.293	14.809	868.263	662.083
261.307	14.708	867.903	661.352
262.322	14.918	866.906	661.361
263.336	14.915	866.397	660.904
264.351	14.871	865.975	660.349
265.366	14.813	865.300	659.548
266.380	14.929	864.349	659.222
267.395	15.085	863.477	659.114
268.409	14.932	862.857	657.978
269.424	14.991	862.459	657.850
270.439	15.090	861.894	657.750
271.453	15.063	860.894	656.822
272.468	14.985	860.196	655.927
273.482	14.910	859.926	655.367
274.497	14.901	859.416	654.884
275.512	14.929	858.751	654.429
276.526	14.819	858.211	653.530
277.541	15.032	857.007	653.387
278.555	15.052	856.431	652.971
279.570	14.896	856.477	652.339
280.585	15.177	855.427	652.575
281.599	15.205	854.974	652.282
282.614	15.230	854.299	651.807
283.628	15.258	853.479	651.231
284.643	15.279	852.773	650.717
285.657	15.211	852.718	650.353
286.672	15.214	852.028	649.778
287.687	15.126	851.920	649.300
288.701	15.234	850.866	648.856
289.716	15.233	850.408	648.445
290.730	15.430	850.008	648.846
291.745	15.411	849.301	648.176
292.760	15.358	848.584	647.364
293.774	15.475	847.747	647.122
294.789	15.445	847.480	646.745
295.803	15.385	847.052	646.128
296.818	15.389	846.546	645.701
297.833	15.429	845.557	645.045
298.847	15.266	845.135	644.037
299.862	15.472	843.939	643.861
300.876	15.390	843.602	643.234
301.891	15.509	842.795	643.017
302.906	15.554	842.290	642.746
303.920	15.499	841.595	641.949
304.935	15.571	840.976	641.694
305.949	15.656	840.316	641.457
306.964	15.636	839.895	641.002
307.979	15.549	839.425	640.258
308.993	15.485	838.977	639.613
310.008	15.625	838.180	639.483
311.022	15.657	837.801	639.258
312.037	15.590	837.287	638.555
313.052	15.580	836.935	638.191
314.066	15.440	836.491	637.266
315.081	15.643	835.200	636.996
316.095	15.558	834.977	636.449
317.110	15.652	834.086	636.068
318.125	15.693	833.692	635.866
319.139	15.495	833.808	635.148
320.154	15.703	833.001	635.262
321.168	15.569	832.362	634.214
322.183	15.647	831.661	633.920
323.197	15.757	831.233	633.949
324.212	15.648	830.700	633.077
325.227	15.836	830.096	633.268
326.241	15.739	829.635	632.496
327.256	15.699	829.188	631.950
328.270	15.679	828.712	631.456
329.285	15.725	827.924	630.970
330.300	15.750	827.358	630.579
331.314	15.716	827.016	630.135
332.329	15.701	826.279	629.460
333.343	15.932	825.142	629.402
334.358	15.956	824.883	629.241
335.373	15.814	824.741	628.545
336.387	15.912	823.832	628.162
337.402	15.858	823.433	627.602
338.416	15.876	822.982	627.270
339.431	15.789	822.569	626.575
340.446	16.053	821.915	627.003
341.460	16.147	821.066	626.650
342.475	16.065	820.721	626.027
343.489	15.989	820.181	625.276
344.504	16.163	819.211	625.128
345.519	16.121	819.224	624.925
346.533	16.210	818.529	624.668
347.548	16.134	817.950	623.891
348.562	16.157	817.545	623.611
349.577	16.269	816.792	623.395
350.592	16.074	816.576	622.455
351.606	16.088	816.206	622.170
352.621	16.028	815.488	621.347
353.635	16.075	815.078	621.154
354.650	16.054	814.849	620.846
355.665	16.128	814.204	620.573
356.679	16.231	813.803	620.589
357.694	16.273	813.324	620.324
358.708	16.271	812.960	619.983
359.723	16.226	812.283	619.249
360.738	16.405	811.460	619.221
361.752	16.364	810.920	618.604
362.767	16.168	810.932	617.841
363.781	16.411	810.217	618.130
364.796	16.419	810.046	617.974
365.810	16.490	809.612	617.849
366.825	16.468	809.212	617.410
367.840	16.512	808.899	617.276
368.854	16.308	808.680	616.309
369.869	16.417	808.156	616.254
370.883	16.462	807.363	615.757
371.898	16.568	806.669	615.560
372.913	16.553	806.058	614.987
373.927	16.610	805.390	614.627
374.942	16.509	805.086	613.976
375.956	16.514	804.425	613.433
376.971	16.721	803.528	613.447
377.986	16.581	803.114	612.569
379.000	16.690	802.457	612.407
380.015	16.742	802.106	612.272
381.029	16.808	801.731	612.172
382.044	16.763	801.370	611.681
383.059	16.648	800.802	610.778
384.073	16.691	800.037	610.296
385.088	16.633	799.813	609.861
386.102	16.723	798.930	609.457
387.117	16.823	798.384	609.345
388.132	16.793	797.934	608.840
389.146	16.710	797.602	608.235
390.161	16.870	797.308	608.532
391.175	16.921	796.898	608.349
392.190	16.915	796.680	608.108
393.205	16.849	796.555	607.719
394.219	16.765	795.877	606.848
395.234	16.724	795.145	606.091
396.248	16.933	794.675	606.425
397.263	16.810	794.305	605.652
398.278	16.770	793.723	605.010
399.292	16.777	793.144	604.541
400.307	16.793	792.883	604.345
401.321	16.857	792.527	604.249
402.336	16.926	791.884	603.951
403.350	16.840	791.652	603.413
404.365	16.859	791.415	603.249
405.380	17.032	790.711	603.271
406.394	17.025	790.290	602.874
407.409	17.053	790.155	602.815
408.423	17.106	789.305	602.303
409.438	17.137	788.976	602.106
410.453	17.186	788.455	601.832
411.467	17.182	788.029	601.439
412.482	17.139	787.324	600.693
413.496	17.244	787.171	600.895
414.511	17.136	786.959	600.300
415.526	17.079	786.911	600.009
416.540	17.210	786.363	599.998
417.555	17.149	785.871	599.355
418.569	17.339	785.085	599.373
419.584	17.087	785.025	598.385
420.599	17.340	784.271	598.651
421.613	99.336	1276.059	1418.560
422.628	84.699	1347.736	1418.659
