DTS Sentinel unit serial number:	SN413079Multiplexer serial number:	ORYXHardware model number:	OX4-SRSoftware version number:	ORYX F/W v4.00 Oryx Data Collector v3.7.2.0data status	okinstallation	princeton_trtdifferential loss correction	single-endedforward channel	channel 3reverse channel	N/Adate	2019/09/14time	22:44:34forward acquisition time	60.00reverse acquisition time	0.00gamma	496.2192k internal	0.2318k external	0.2318temperature offset calibration	0.9988default loss term (dB/km)	0.3790temperature slope calibration	1.0000multiplexer offset coefficient	1.0000multiplexer slope coefficient	1.0000fibre end	0.00T internal ref (°C)	32.50T ext. ref 1 (°C)	4.68T ext. ref 2 (°C)	27.49length (m)	temperature (°C)	Stokes	anti-Stokes-747.200	52.478	0.025	0.024
-746.185	263.414	-0.112	0.196
-745.171	-15.588	0.348	-0.224
-744.156	-147.864	-0.040	0.003
-743.142	-100.730	0.364	-0.091
-742.127	376.421	-0.144	0.298
-741.112	22.646	0.137	0.114
-740.098	86.370	-0.066	0.074
-739.083	-80.439	0.271	0.092
-738.069	571.623	-0.088	-0.217
-737.054	208.156	-0.102	-0.162
-736.039	-99.579	-0.186	-0.047
-735.025	-25.423	-0.033	-0.019
-734.010	448.293	-0.114	0.254
-732.996	264.561	-0.150	-0.265
-731.981	-200.000	0.003	-0.112
-730.966	389.402	-0.168	-0.351
-729.952	31.557	0.067	-0.058
-728.937	-72.269	0.218	0.082
-727.923	49.099	-0.082	0.077
-726.908	140.427	0.025	-0.033
-725.894	98.485	-0.089	-0.104
-724.879	-170.280	-0.422	-0.015
-723.864	-89.043	0.153	-0.046
-722.850	-29.446	-0.039	0.023
-721.835	-123.314	-0.147	0.024
-720.821	-136.779	0.304	0.035
-719.806	-131.221	-0.077	0.010
-718.791	-150.005	-0.068	-0.005
-717.777	-200.000	0.035	-0.226
-716.762	-4.129	-0.201	0.141
-715.748	578.335	-0.096	0.237
-714.733	199.936	-0.083	-0.129
-713.718	-128.472	-0.136	0.020
-712.704	-19.664	-0.092	-0.058
-711.689	8.149	-0.102	0.077
-710.675	-200.000	0.042	0.000
-709.660	88.684	-0.100	-0.112
-708.645	-21.498	0.199	-0.123
-707.631	-200.000	-0.035	-0.160
-706.616	281.970	0.038	0.068
-705.602	-13.275	-0.136	0.089
-704.587	-143.499	0.231	-0.022
-703.572	-97.944	-0.190	-0.050
-702.558	222.484	-0.050	0.081
-701.543	71.693	-0.123	-0.129
-700.529	800.000	-0.095	-0.269
-699.514	-20.837	-0.211	0.131
-698.499	-17.775	-0.022	0.014
-697.485	621.593	-0.142	0.361
-696.470	-138.648	-0.333	-0.037
-695.456	-200.000	0.036	-0.168
-694.441	-41.601	0.106	-0.055
-693.426	-167.519	0.428	0.017
-692.412	460.909	-0.109	-0.245
-691.397	-200.000	-0.056	-0.314
-690.383	-200.000	0.008	0.305
-689.368	412.669	-0.112	0.241
-688.354	209.220	0.092	-0.145
-687.339	24.619	0.063	0.052
-686.324	-30.826	-0.279	-0.159
-685.310	118.946	-0.268	-0.335
-684.295	-107.465	-0.317	0.070
-683.281	242.582	0.140	-0.237
-682.266	82.634	-0.181	0.199
-681.251	-26.867	0.287	-0.169
-680.237	-105.466	-0.205	-0.047
-679.222	105.754	-0.145	0.173
-678.208	-123.495	-0.140	-0.022
-677.193	198.936	0.092	-0.142
-676.178	-99.218	-0.351	-0.089
-675.164	-14.860	-0.236	0.153
-674.149	-76.799	0.066	-0.023
-673.135	424.580	0.056	-0.121
-672.120	168.359	-0.084	0.121
-671.105	34.432	-0.049	-0.043
-670.091	66.701	0.212	-0.217
-669.076	150.083	-0.097	-0.132
-668.062	210.990	-0.129	-0.204
-667.047	800.000	0.112	0.316
-666.032	800.000	0.074	-0.284
-665.018	-187.187	-0.329	0.005
-664.003	-53.859	0.123	-0.057
-662.989	156.925	-0.130	0.181
-661.974	-60.295	-0.311	-0.134
-660.959	-134.293	-0.194	0.024
-659.945	800.000	-0.021	0.069
-658.930	159.097	-0.116	-0.163
-657.916	9.554	-0.233	-0.178
-656.901	-29.964	0.126	-0.072
-655.886	800.000	-0.121	-0.363
-654.872	-61.488	-0.243	0.103
-653.857	-154.552	0.274	-0.018
-652.843	-89.803	0.148	0.044
-651.828	-200.000	-0.005	-0.260
-650.814	-131.473	0.364	-0.048
-649.799	-126.153	-0.219	-0.033
-648.784	-37.861	0.185	0.099
-647.770	-63.142	-0.173	0.072
-646.755	3.172	0.138	-0.101
-645.741	800.000	0.016	-0.061
-644.726	-200.000	-0.175	0.001
-643.711	-48.658	-0.402	-0.194
-642.697	-52.115	-0.037	0.017
-641.682	800.000	-0.034	-0.108
-640.668	-200.000	-0.078	-0.550
-639.653	-166.048	0.264	-0.011
-638.638	222.654	0.096	0.155
-637.624	-165.060	-0.171	0.008
-636.609	-72.384	-0.108	-0.040
-635.595	-46.722	-0.201	-0.099
-634.580	800.000	-0.014	-0.057
-633.565	112.150	0.095	0.115
-632.551	15.577	-0.156	0.124
-631.536	401.349	-0.053	-0.112
-630.522	-110.048	0.147	0.031
-629.507	36.479	-0.084	-0.075
-628.492	-59.560	0.051	-0.022
-627.478	-122.267	0.221	-0.036
-626.463	395.461	-0.053	-0.112
-625.449	258.705	-0.151	-0.261
-624.434	-48.877	0.165	-0.080
-623.419	-200.000	0.048	0.230
-622.405	-29.836	-0.318	0.183
-621.390	800.000	-0.043	0.164
-620.376	-84.016	-0.270	0.086
-619.361	122.254	0.167	-0.210
-618.346	-78.788	-0.198	0.068
-617.332	-200.000	0.039	-0.272
-616.317	800.000	-0.068	0.232
-615.303	527.232	0.016	-0.037
-614.288	-50.751	0.167	-0.079
-613.273	303.405	0.059	-0.110
-612.259	-46.103	0.288	0.143
-611.244	-89.270	-0.054	-0.016
-610.230	-9.919	0.189	-0.126
-609.215	106.887	0.100	-0.120
-608.201	268.999	-0.120	-0.212
-607.186	124.947	-0.177	-0.224
-606.171	-3.612	0.134	0.094
-605.157	-87.434	-0.192	0.059
-604.142	-200.000	-0.028	0.163
-603.128	-106.733	-0.041	0.009
-602.113	35.960	0.310	-0.275
-601.098	345.213	0.044	0.087
-600.084	16.564	-0.273	-0.217
-599.069	-200.000	0.053	-0.246
-598.055	82.116	0.078	0.085
-597.040	-109.311	0.107	0.023
-596.025	-43.839	-0.126	-0.064
-595.011	-200.000	0.054	-0.347
-593.996	120.838	-0.174	-0.218
-592.982	131.662	-0.116	0.150
-591.967	46.867	-0.083	-0.078
-590.952	-157.905	0.108	-0.006
-589.938	254.854	-0.025	-0.044
-588.923	5.027	0.106	-0.079
-587.909	167.530	0.083	0.118
-586.894	24.605	0.081	0.068
-585.879	108.062	-0.104	-0.125
-584.865	56.245	-0.361	-0.353
-583.850	252.971	-0.087	-0.149
-582.836	294.820	-0.111	0.205
-581.821	800.000	0.018	0.073
-580.806	89.120	-0.028	0.032
-579.792	-144.229	-0.114	-0.011
-578.777	-104.626	-0.139	0.032
-577.763	-112.232	0.090	-0.018
-576.748	231.310	0.114	0.188
-575.733	-109.941	-0.041	0.009
-574.719	127.019	-0.160	-0.204
-573.704	446.414	-0.058	0.129
-572.690	-200.000	-0.028	-0.262
-571.675	800.000	-0.100	-0.337
-570.661	-144.609	-0.105	0.010
-569.646	-46.259	-0.093	-0.046
-568.631	56.455	0.078	-0.076
-567.617	69.670	-0.298	0.309
-566.602	-74.454	-0.149	-0.054
-565.588	-200.000	-0.019	-0.164
-564.573	-142.295	0.343	-0.034
-563.558	-40.296	0.124	-0.065
-562.544	-98.020	-0.161	-0.042
-561.529	-200.000	0.027	-0.142
-560.515	12.101	0.056	-0.043
-559.500	47.228	0.027	-0.025
-558.485	729.265	-0.073	0.196
-557.471	-200.000	0.023	0.327
-556.456	-33.057	-0.193	0.107
-555.442	-24.393	0.104	0.062
-554.427	260.087	0.161	0.279
-553.412	800.000	0.065	-0.182
-552.398	-124.217	-0.047	0.007
-551.383	-22.132	0.257	0.157
-550.369	-200.000	0.002	0.056
-549.354	-9.767	-0.157	0.105
-548.339	2.025	0.232	-0.168
-547.325	-165.260	0.159	-0.007
-546.310	-158.647	0.361	0.021
-545.296	326.031	-0.075	-0.145
-544.281	765.296	-0.029	-0.078
-543.266	-200.000	-0.013	-0.231
-542.252	83.152	-0.115	0.126
-541.237	29.688	-0.251	-0.215
-540.223	800.000	-0.024	0.069
-539.208	-200.000	0.023	-0.243
-538.193	365.537	0.105	0.213
-537.179	-146.150	-0.262	-0.023
-536.164	-200.000	-0.020	0.119
-535.150	3.352	-0.272	-0.199
-534.135	321.197	-0.066	-0.126
-533.121	29.279	-0.137	-0.117
-532.106	-11.077	0.145	-0.096
-531.091	-148.871	0.242	0.020
-530.077	185.380	0.142	-0.212
-529.062	-200.000	0.021	-0.096
-528.048	-15.692	0.292	-0.187
-527.033	-9.503	-0.172	0.115
-526.018	209.185	-0.112	0.177
-525.004	-145.459	0.182	-0.016
-523.989	-200.000	0.067	-0.296
-522.975	-83.442	0.188	0.060
-521.960	77.391	-0.254	0.271
-520.945	158.897	-0.097	0.135
-519.931	389.023	-0.094	-0.195
-518.916	15.813	0.160	0.126
-517.902	800.000	-0.072	0.227
-516.887	152.890	0.076	-0.104
-515.872	-139.272	0.318	-0.034
-514.858	800.000	0.067	0.262
-513.843	800.000	0.057	0.197
-512.829	800.000	-0.100	0.310
-511.814	8.461	-0.131	-0.099
-510.799	800.000	-0.038	0.137
-509.785	663.095	-0.022	0.058
-508.770	-114.273	-0.305	0.059
-507.756	785.438	0.103	-0.284
-506.741	-94.833	-0.312	0.085
-505.726	-194.566	0.217	0.002
-504.712	211.776	0.089	0.140
-503.697	60.962	0.140	-0.139
-502.683	-142.439	-0.329	0.032
-501.668	-158.064	0.163	0.010
-500.653	34.034	0.120	0.105
-499.639	800.000	0.027	0.088
-498.624	187.312	0.133	-0.198
-497.610	800.000	-0.050	0.161
-496.595	-200.000	0.006	0.158
-495.581	9.458	-0.144	0.110
-494.566	800.000	-0.078	-0.282
-493.551	422.058	-0.051	0.109
-492.537	-59.508	0.227	0.098
-491.522	-200.000	-0.034	0.187
-490.508	800.000	0.089	0.352
-489.493	177.447	-0.107	-0.156
-488.478	-200.000	0.014	0.137
-487.464	-200.000	-0.008	-0.188
-486.449	-37.080	-0.061	0.033
-485.435	138.859	-0.054	0.072
-484.420	-200.000	-0.019	-0.083
-483.405	-55.862	0.291	-0.130
-482.391	-157.062	-0.156	-0.010
-481.376	146.093	-0.183	-0.246
-480.362	-6.666	0.214	-0.146
-479.347	800.000	-0.072	-0.252
-478.332	-55.141	-0.207	0.093
-477.318	-200.000	-0.003	0.072
-476.303	208.459	-0.078	0.122
-475.289	172.392	0.171	-0.247
-474.274	7.041	-0.149	0.112
-473.259	362.693	-0.062	0.124
-472.245	-54.978	-0.180	-0.081
-471.230	273.025	0.065	0.114
-470.216	-200.000	0.006	-0.030
-469.201	800.000	-0.187	0.542
-468.186	800.000	-0.121	0.495
-467.172	-57.811	0.022	0.009
-466.157	455.577	-0.095	0.210
-465.143	79.131	-0.228	0.244
-464.128	57.474	0.076	0.075
-463.113	800.000	0.042	0.124
-462.099	18.973	0.104	0.083
-461.084	-200.000	0.014	-0.193
-460.070	800.000	-0.032	0.127
-459.055	-200.000	-0.029	-0.151
-458.040	-32.727	0.060	-0.033
-457.026	-200.000	0.001	0.162
-456.011	-200.000	0.025	-0.151
-454.997	-200.000	-0.017	-0.091
-453.982	54.644	0.120	0.116
-452.968	162.444	-0.042	0.059
-451.953	88.312	-0.100	0.111
-450.938	84.235	-0.152	-0.166
-449.924	106.217	-0.192	-0.227
-448.909	-200.000	0.009	0.204
-447.895	-200.000	-0.016	0.236
-446.880	-69.551	0.117	-0.045
-445.865	-120.301	-0.226	0.038
-444.851	16.902	0.053	0.042
-443.836	-67.961	-0.230	0.090
-442.822	800.000	0.062	-0.182
-441.807	179.850	0.092	-0.135
-440.792	800.000	0.130	-0.429
-439.778	258.058	0.201	0.346
-438.763	800.000	-0.056	0.179
-437.749	-10.247	0.069	0.046
-436.734	99.250	-0.298	0.344
-435.719	5.960	0.311	0.230
-434.705	-112.616	0.411	0.082
-433.690	800.000	-0.040	-0.120
-432.676	-200.000	0.004	0.077
-431.661	3.581	0.077	0.056
-430.646	-200.000	0.059	0.511
-429.632	-38.390	0.105	0.056
-428.617	-104.179	-0.346	0.080
-427.603	109.314	0.130	-0.156
-426.588	-200.000	-0.007	0.205
-425.573	-30.773	0.141	-0.080
-424.559	-190.871	0.051	0.001
-423.544	-13.493	-0.137	0.088
-422.530	-200.000	0.028	0.122
-421.515	69.648	-0.088	0.091
-420.500	-200.000	-0.021	0.097
-419.486	-200.000	0.009	0.327
-418.471	38.119	0.065	-0.058
-417.457	-49.630	-0.456	-0.217
-416.442	-32.424	0.168	-0.093
-415.428	42.161	-0.164	0.149
-414.413	79.556	0.227	-0.243
-413.398	145.145	0.328	-0.439
-412.384	800.000	0.076	0.259
-411.369	-96.920	0.338	0.088
-410.355	270.420	0.113	-0.199
-409.340	-103.926	0.404	0.094
-408.325	-200.000	0.018	-0.108
-407.311	-200.000	-0.099	0.435
-406.296	-111.639	-0.330	0.067
-405.282	-76.559	-0.144	-0.050
-404.267	124.725	0.129	-0.162
-403.252	-200.000	-0.061	-0.411
-402.238	-200.000	0.016	0.249
-401.223	-38.171	-0.216	-0.114
-400.209	-21.159	0.285	-0.174
-399.194	14.590	-0.163	0.127
-398.179	-200.000	0.039	-0.249
-397.165	-57.426	0.118	-0.052
-396.150	2.686	0.265	-0.192
-395.136	-200.000	0.007	-0.114
-394.121	188.133	0.065	-0.096
-393.106	107.851	0.063	0.075
-392.092	90.626	-0.215	-0.240
-391.077	532.201	0.035	-0.084
-390.063	386.956	-0.053	-0.108
-389.048	150.252	0.169	-0.229
-388.033	-120.604	-0.105	0.018
-387.019	410.179	-0.081	0.170
-386.004	-91.059	0.120	0.034
-384.990	-200.000	0.020	0.264
-383.975	387.659	0.070	-0.144
-382.960	118.687	0.086	-0.106
-381.946	-200.000	-0.056	0.298
-380.931	-131.773	0.206	0.027
-379.917	267.426	0.194	-0.339
-378.902	-102.729	-0.139	-0.033
-377.888	800.000	0.031	-0.132
-376.873	12.666	0.060	-0.046
-375.858	124.873	0.315	0.396
-374.844	-31.013	-0.133	-0.075
-373.829	-121.251	0.403	0.067
-372.815	-8.865	-0.066	-0.044
-371.800	-69.806	0.160	-0.061
-370.785	457.612	0.042	0.094
-369.771	37.270	0.163	-0.144
-368.756	173.896	-0.188	-0.271
-367.742	-47.518	-0.196	-0.095
-366.727	-116.633	-0.266	0.049
-365.712	68.700	-0.171	-0.175
-364.698	-71.998	-0.109	-0.040
-363.683	446.070	0.148	0.324
-362.669	800.000	0.053	0.228
-361.654	163.583	0.061	0.086
-360.639	-184.205	0.148	-0.002
-359.625	-200.000	0.006	-0.083
-358.610	-103.491	0.360	-0.084
-357.596	-177.305	0.094	0.002
-356.581	432.300	0.092	0.200
-355.566	-115.987	0.360	-0.067
-354.552	38.691	0.092	-0.082
-353.537	115.080	0.087	0.106
-352.523	-35.951	-0.128	0.069
-351.508	-92.637	0.253	-0.071
-350.493	-61.553	0.377	-0.158
-349.479	4.700	-0.212	0.156
-348.464	61.170	0.122	-0.121
-347.450	570.359	-0.092	-0.222
-346.435	95.107	0.256	-0.291
-345.420	-141.241	-0.142	-0.014
-344.406	50.921	0.049	-0.046
-343.391	114.835	-0.179	0.218
-342.377	-200.000	0.084	0.396
-341.362	-14.592	-0.340	0.218
-340.348	-63.367	0.212	0.087
-339.333	-200.000	0.015	0.132
-338.318	278.973	0.029	-0.051
-337.304	53.358	-0.304	0.291
-336.289	-200.000	-0.058	-0.297
-335.275	196.050	-0.147	-0.223
-334.260	407.624	0.209	-0.441
-333.245	-2.638	0.189	-0.132
-332.231	800.000	0.066	-0.238
-331.216	273.778	0.051	-0.090
-330.202	284.045	-0.005	-0.010
-329.187	599.574	0.077	0.190
-328.172	-142.422	-0.367	0.036
-327.158	266.954	-0.119	0.208
-326.143	237.514	0.102	-0.168
-325.129	-62.087	-0.190	-0.079
-324.114	26.574	0.055	0.046
-323.099	3.744	0.179	0.130
-322.085	-151.824	-0.263	-0.019
-321.070	636.073	-0.064	-0.163
-320.056	-31.697	0.319	0.178
-319.041	-2.694	-0.088	0.061
-318.026	0.407	0.184	-0.131
-317.012	-103.754	0.268	0.062
-315.997	-3.389	-0.248	0.172
-314.983	-109.070	-0.105	-0.022
-313.968	-154.188	0.116	0.008
-312.953	528.968	0.057	0.134
-311.939	119.338	-0.155	-0.191
-310.924	-60.646	-0.259	-0.109
-309.910	92.471	-0.215	0.241
-308.895	800.000	-0.076	-0.211
-307.880	-127.677	-0.269	0.039
-306.866	800.000	-0.041	-0.175
-305.851	-127.089	0.263	-0.038
-304.837	7.470	-0.103	-0.076
-303.822	-200.000	0.005	0.130
-302.807	79.157	0.197	0.210
-301.793	-138.924	-0.071	0.008
-300.778	113.916	0.057	-0.069
-299.764	-14.485	-0.145	-0.093
-298.749	-200.000	-0.223	0.001
-297.735	-200.000	-0.314	-0.001
-296.720	-200.000	-0.033	0.416
-295.705	-172.929	0.257	-0.008
-294.691	800.000	-0.091	-0.368
-293.676	147.397	0.142	0.190
-292.662	-200.000	-0.004	0.273
-291.647	432.053	0.015	0.032
-290.632	12.070	0.280	0.214
-289.618	-91.688	-0.151	-0.043
-288.603	-85.940	0.288	-0.089
-287.589	-200.000	0.033	-0.322
-286.574	4.767	-0.058	-0.042
-285.559	-200.000	0.065	0.313
-284.545	-200.000	-0.027	-0.146
-283.530	-85.739	-0.116	-0.036
-282.516	-72.362	-0.290	0.107
-281.501	-77.550	-0.118	0.041
-280.486	125.417	-0.110	0.138
-279.472	375.349	0.026	0.053
-278.457	146.028	0.120	-0.160
-277.443	-200.000	-0.010	0.073
-276.428	-144.045	0.246	0.023
-275.413	-57.863	0.580	0.252
-274.399	321.717	-0.105	0.199
-273.384	126.559	-0.112	-0.141
-272.370	175.154	0.116	-0.167
-271.355	800.000	-0.061	-0.169
-270.340	-200.000	0.022	0.168
-269.326	209.123	0.100	0.156
-268.311	-3.597	0.058	0.040
-267.297	-106.505	-0.375	0.083
-266.282	-163.313	-0.133	0.006
-265.267	56.639	0.104	0.100
-264.253	-57.826	-0.208	0.090
-263.238	256.107	0.043	0.074
-262.224	-200.000	0.080	0.372
-261.209	170.659	0.143	-0.204
-260.195	-40.850	0.096	0.049
-259.180	-200.000	-0.001	-0.090
-258.165	-160.066	-0.347	0.019
-257.151	-33.648	-0.104	-0.057
-256.136	202.963	-0.025	-0.039
-255.122	126.908	0.057	-0.071
-254.107	-200.000	-0.040	-0.218
-253.092	-83.321	0.195	0.062
-252.078	-4.325	0.257	0.176
-251.063	106.119	-0.203	0.239
-250.049	66.585	0.158	-0.159
-249.034	800.000	-0.113	-0.450
-248.019	-80.756	0.048	0.016
-247.005	556.565	-0.093	-0.223
-245.990	6.365	-0.049	-0.036
-244.976	-33.430	0.183	-0.100
-243.961	693.990	-0.150	-0.391
-242.946	-200.000	0.025	0.324
-241.932	-154.485	-0.156	0.010
-240.917	-71.012	0.210	0.078
-239.903	100.445	-0.276	0.318
-238.888	-47.474	-0.225	0.109
-237.873	66.936	-0.113	0.114
-236.859	324.758	0.127	-0.241
-235.844	-43.142	-0.173	-0.087
-234.830	800.000	0.180	0.544
-233.815	150.409	-0.180	0.242
-232.800	425.672	-0.084	-0.180
-231.786	88.122	0.181	0.199
-230.771	800.000	0.106	-0.295
-229.757	-105.791	0.434	-0.097
-228.742	-145.688	0.376	-0.033
-227.727	38.674	-0.090	0.080
-226.713	-33.294	0.239	0.131
-225.698	-65.425	0.244	0.097
-224.684	-200.000	0.002	-0.106
-223.669	-200.000	0.006	-0.066
-222.655	-155.404	0.403	0.026
-221.640	6.150	-0.245	-0.180
-220.625	-200.000	-0.032	-0.235
-219.611	-116.784	0.266	0.048
-218.596	800.000	-0.021	0.088
-217.582	-200.000	-0.061	0.332
-216.567	361.567	-0.171	0.340
-215.552	110.670	0.084	-0.100
-214.538	136.584	0.103	0.133
-213.523	511.322	-0.115	0.264
-212.509	134.578	0.107	-0.138
-211.494	14.754	0.389	-0.301
-210.479	-60.178	-0.046	0.019
-209.465	-123.111	-0.234	-0.037
-208.450	237.029	-0.076	-0.125
-207.436	227.627	-0.086	-0.139
-206.421	800.000	-0.038	0.116
-205.406	213.531	-0.124	-0.194
-204.392	-19.403	0.168	0.103
-203.377	28.138	-0.191	0.160
-202.363	-147.996	0.118	0.010
-201.348	-200.000	-0.009	0.062
-200.333	97.268	-0.123	-0.140
-199.319	-176.189	0.276	-0.007
-198.304	-200.000	0.011	-0.145
-197.290	-66.801	-0.304	-0.119
-196.275	-46.308	-0.050	0.025
-195.260	14.247	0.016	0.012
-194.246	800.000	-0.037	0.114
-193.231	-21.943	-0.200	0.121
-192.217	46.814	-0.172	-0.158
-191.202	-76.361	0.154	0.054
-190.187	-200.000	0.009	-0.156
-189.173	323.022	-0.031	0.059
-188.158	-19.753	-0.168	-0.103
-187.144	-200.000	-0.020	-0.236
-186.129	-120.173	0.241	0.041
-185.114	800.000	0.050	-0.155
-184.100	-23.183	-0.242	-0.144
-183.085	344.186	-0.056	-0.108
-182.071	-166.205	-0.048	-0.002
-181.056	-101.759	0.268	0.064
-180.042	43.898	-0.045	0.041
-179.027	117.778	-0.316	0.385
-178.012	-124.670	0.250	-0.038
-176.998	-163.633	0.310	0.014
-175.983	373.765	-0.016	-0.032
-174.969	10.516	-0.187	0.141
-173.954	-200.000	0.132	0.000
-172.939	-156.593	-0.122	0.008
-171.925	-59.875	-0.139	-0.059
-170.910	-200.000	0.001	0.068
-169.896	223.468	-0.159	0.254
-168.881	53.768	-0.159	-0.151
-167.866	-48.119	0.249	-0.119
-166.852	-115.413	-0.056	0.010
-165.837	800.000	-0.065	-0.222
-164.823	218.778	-0.034	0.054
-163.808	279.190	-0.079	0.140
-162.793	800.000	0.048	-0.199
-161.779	235.981	-0.069	-0.113
-160.764	-200.000	0.305	-0.000
-159.750	71.047	-0.097	-0.100
-158.735	43.929	-0.108	-0.098
-157.720	195.197	-0.147	0.220
-156.706	-130.121	-0.113	0.015
-155.691	-51.727	0.045	0.021
-154.677	459.734	0.066	0.146
-153.662	-123.825	-0.376	0.059
-152.647	-119.950	-0.125	0.021
-151.633	-112.804	0.233	-0.046
-150.618	-200.000	-0.005	-0.165
-149.604	-200.000	0.043	-0.344
-148.589	-135.731	0.340	-0.040
-147.574	-134.897	-0.268	0.032
-146.560	800.000	-0.064	-0.213
-145.545	492.708	0.058	-0.131
-144.531	75.050	-0.077	-0.081
-143.516	78.095	-0.178	-0.188
-142.502	18.947	-0.180	-0.143
-141.487	800.000	0.081	-0.330
-140.472	665.210	0.032	0.082
-139.458	-200.000	0.001	-0.027
-138.443	168.366	0.191	-0.270
-137.429	453.607	-0.066	-0.144
-136.414	-136.475	-0.146	0.017
-135.399	800.000	-0.088	0.285
-134.385	17.108	0.145	0.114
-133.370	188.516	0.170	0.252
-132.356	-86.477	0.343	-0.104
-131.341	-200.000	0.032	-0.159
-130.326	65.599	0.102	0.102
-129.312	800.000	-0.070	-0.193
-128.297	-25.587	-0.111	0.065
-127.283	-200.000	-0.010	-0.102
-126.268	-50.907	0.390	-0.181
-125.253	168.522	-0.069	0.098
-124.239	104.531	0.147	0.172
-123.224	800.000	0.097	0.369
-122.210	40.955	-0.152	0.135
-121.195	269.806	0.042	0.072
-120.180	96.448	0.117	0.132
-119.166	36.661	0.048	-0.042
-118.151	251.038	0.199	-0.334
-117.137	800.000	-0.125	0.348
-116.122	27.155	-0.347	-0.288
-115.107	57.659	-0.040	0.039
-114.093	-192.503	-0.268	0.002
-113.078	-27.371	0.195	0.112
-112.064	-16.461	0.340	0.213
-111.049	121.871	0.234	0.288
-110.034	-62.835	0.091	0.037
-109.020	0.669	-0.150	-0.106
-108.005	37.627	0.231	-0.202
-106.991	113.672	0.207	0.248
-105.976	800.000	-0.056	0.196
-104.962	106.110	0.183	0.214
-103.947	256.830	-0.052	0.089
-102.932	800.000	0.041	-0.123
-101.918	33.777	0.115	0.099
-100.903	82.696	0.046	-0.049
-99.889	-85.199	0.112	0.035
-98.874	448.499	0.110	-0.240
-97.859	800.000	0.101	-0.339
-96.845	-120.389	0.265	0.045
-95.830	340.151	0.057	0.110
-94.816	-116.320	0.384	-0.070
-93.801	-149.902	0.051	0.004
-92.786	800.000	0.106	0.288
-91.772	-68.543	0.233	0.089
-90.757	51.146	-0.227	-0.213
-89.743	-200.000	0.006	-0.076
-88.728	-154.472	0.230	0.015
-87.713	800.000	0.036	0.106
-86.699	-101.418	-0.188	-0.045
-85.684	-128.832	0.139	-0.019
-84.670	-48.183	-0.177	-0.084
-83.655	205.064	0.080	0.122
-82.640	-200.000	0.039	-0.200
-81.626	-108.601	0.029	-0.006
-80.611	-200.000	0.033	0.262
-79.597	276.514	0.095	-0.166
-78.582	211.912	0.075	0.117
-77.567	-93.126	0.259	-0.071
-76.553	-51.740	0.296	-0.136
-75.538	800.000	-0.017	0.070
-74.524	-200.000	-0.017	-0.083
-73.509	88.414	0.139	-0.152
-72.494	492.495	0.099	0.224
-71.480	-66.416	-0.093	0.037
-70.465	-46.007	-0.217	-0.105
-69.451	-79.570	-0.285	-0.095
-68.436	266.395	-0.051	-0.088
-67.422	-200.000	0.021	-0.252
-66.407	-101.454	-0.143	0.034
-65.392	556.383	0.023	0.054
-64.378	-200.000	-0.009	0.342
-63.363	-200.000	-0.004	-0.051
-62.349	125.339	-0.218	-0.271
-61.334	188.610	-0.822	-1.211
-60.319	-37.386	0.352	0.185
-59.305	-200.000	-0.102	-0.881
-58.290	142.504	0.685	0.896
-57.276	800.000	0.428	1.619
-56.261	-200.000	94.811	579.842
-55.246	660.922	1369.424	3474.683
-54.232	199.800	2541.033	3840.822
-53.217	119.445	2160.024	2633.853
-52.203	43.205	1707.044	1534.875
-51.188	35.756	1520.329	1316.197
-50.173	33.322	1493.400	1276.447
-49.159	52.160	1541.962	1447.448
-48.144	54.084	1559.361	1476.907
-47.130	35.941	1519.967	1316.942
-46.115	32.703	1505.191	1282.107
-45.100	32.581	1501.817	1278.356
-44.086	32.595	1499.930	1276.797
-43.071	32.503	1498.347	1274.774
-42.057	32.569	1496.386	1273.501
-41.042	32.447	1495.129	1271.559
-40.027	32.579	1493.226	1270.779
-39.013	32.497	1492.148	1269.260
-37.998	32.424	1491.198	1267.906
-36.984	32.569	1489.431	1267.332
-35.969	32.489	1488.456	1265.913
-34.954	32.463	1487.241	1264.653
-33.940	32.567	1485.547	1263.862
-32.925	32.642	1483.810	1262.835
-31.911	32.540	1482.926	1261.353
-30.896	32.558	1481.553	1260.253
-29.881	32.724	1479.418	1259.495
-28.867	32.541	1478.605	1257.531
-27.852	32.529	1477.291	1256.283
-26.838	32.605	1476.176	1255.794
-25.823	32.591	1474.031	1253.825
-24.809	32.491	1472.336	1251.669
-23.794	32.457	1471.449	1250.639
-22.779	32.479	1470.185	1249.662
-21.765	32.502	1468.769	1248.559
-20.750	32.596	1467.413	1247.982
-19.736	32.581	1465.997	1246.627
-18.721	32.483	1465.238	1245.284
-17.706	32.440	1464.937	1244.697
-16.692	32.466	1463.412	1243.521
-15.677	32.482	1462.570	1242.863
-14.663	32.525	1461.246	1241.975
-13.648	32.503	1460.164	1240.862
-12.633	32.419	1459.707	1239.866
-11.619	32.373	1458.681	1238.642
-10.604	32.460	1457.735	1238.365
-9.590	32.400	1456.877	1237.194
-8.575	32.448	1456.594	1237.219
-7.560	32.485	1455.534	1236.513
-6.546	32.435	1454.411	1235.183
-5.531	32.479	1453.530	1234.673
-4.517	32.462	1451.976	1233.194
-3.502	32.410	1451.833	1232.682
-2.487	32.435	1450.213	1231.421
-1.473	32.469	1449.017	1230.579
-0.458	32.455	1447.818	1229.421
0.556	31.558	1438.291	1218.799
1.571	28.637	1412.134	1177.811
2.586	25.232	1352.211	1106.769
3.600	23.510	1269.850	1029.282
4.615	22.040	1224.165	983.938
5.629	19.045	1168.158	922.798
6.644	11.414	1084.770	818.702
7.659	5.522	1044.959	760.039
8.673	4.717	1039.941	752.435
9.688	4.631	1037.210	749.978
10.702	4.711	1035.021	748.711
11.717	4.660	1033.322	747.173
12.731	6.666	1035.109	758.041
13.746	13.790	1044.675	799.412
14.761	18.832	1051.187	828.707
15.775	18.757	1049.905	827.264
16.790	17.752	1047.721	820.635
17.804	16.674	1045.454	813.607
18.819	15.737	1043.769	807.728
19.834	15.331	1041.847	804.222
20.848	15.020	1041.230	802.184
21.863	14.735	1040.813	800.426
22.877	14.676	1039.898	799.366
23.892	14.465	1039.111	797.681
24.907	14.273	1038.391	796.143
25.921	14.288	1037.474	795.438
26.936	14.326	1036.655	794.924
27.950	14.303	1036.168	794.371
28.965	14.392	1034.848	793.711
29.980	14.491	1033.438	793.029
30.994	14.570	1032.439	792.570
32.009	14.720	1031.631	792.589
33.023	14.640	1031.259	791.853
34.038	14.571	1030.362	790.769
35.053	14.528	1029.398	789.757
36.067	14.506	1028.110	788.595
37.082	14.580	1026.988	788.013
38.096	14.503	1026.443	787.162
39.111	14.550	1025.783	786.808
40.126	14.488	1025.492	786.221
41.140	14.618	1023.508	785.242
42.155	14.447	1022.302	783.443
43.169	14.281	1021.273	781.807
44.184	14.238	1020.442	780.901
45.199	14.266	1019.228	780.035
46.213	14.359	1018.156	779.581
47.228	14.250	1017.783	778.716
48.242	14.426	1016.508	778.493
49.257	14.394	1015.842	777.763
50.271	14.383	1015.020	777.013
51.286	14.415	1014.307	776.547
52.301	14.403	1013.591	775.875
53.315	14.354	1012.460	774.715
54.330	14.340	1011.622	773.941
55.344	14.454	1010.113	773.246
56.359	14.303	1009.622	772.102
57.374	14.344	1008.759	771.562
58.388	14.251	1007.594	770.173
59.403	14.189	1007.028	769.384
60.417	14.140	1006.380	768.598
61.432	14.029	1005.966	767.700
62.447	14.272	1004.798	767.861
63.461	14.248	1003.951	767.033
64.476	14.235	1002.875	766.084
65.490	14.113	1002.188	764.931
66.505	14.226	1001.151	764.593
67.520	14.133	1000.698	763.749
68.534	14.203	999.741	763.272
69.549	14.048	999.510	762.321
70.563	14.240	998.103	762.057
71.578	14.191	997.676	761.441
72.593	14.077	996.704	760.108
73.607	14.194	995.674	759.792
74.622	14.013	994.967	758.358
75.636	14.123	993.583	757.738
76.651	14.018	993.276	756.957
77.666	14.208	992.361	757.058
78.680	14.055	991.800	755.867
79.695	14.067	991.503	755.628
80.709	14.170	990.476	755.248
81.724	14.169	989.267	754.254
82.739	14.268	988.622	754.142
83.753	14.257	988.421	753.873
84.768	14.398	987.662	753.869
85.782	14.521	986.809	753.707
86.797	14.540	986.278	753.321
87.812	14.586	985.518	752.878
88.826	14.455	984.354	751.335
89.841	14.265	983.865	750.038
90.855	14.493	982.694	750.104
91.870	14.569	982.249	750.039
92.884	14.579	981.676	749.581
93.899	14.591	980.911	748.987
94.914	14.586	980.155	748.318
95.928	14.583	979.630	747.836
96.943	14.677	978.547	747.368
97.957	14.581	978.009	746.460
98.972	14.521	976.888	745.269
99.987	14.467	976.293	744.506
101.001	14.592	975.354	744.283
102.016	14.450	974.616	743.021
103.030	14.603	973.955	743.133
104.045	14.648	972.796	742.382
105.060	14.515	972.115	741.206
106.074	14.615	970.802	740.586
107.089	14.428	970.091	739.146
108.103	14.364	968.918	737.906
109.118	14.251	968.017	736.655
110.133	14.287	967.382	736.262
111.147	14.130	966.562	734.883
112.162	14.273	965.352	734.527
113.176	14.293	965.142	734.391
114.191	14.240	964.500	733.602
115.206	14.312	963.197	732.865
116.220	14.322	962.528	732.334
117.235	14.288	961.673	731.471
118.249	14.267	960.904	730.727
119.264	14.370	959.813	730.287
120.279	14.364	958.956	729.541
121.293	14.218	958.653	728.607
122.308	14.276	957.713	728.085
123.322	14.355	956.570	727.493
124.337	14.115	956.093	726.019
125.352	14.031	954.991	724.751
126.366	14.013	954.109	723.940
127.381	14.097	952.721	723.191
128.395	14.011	951.986	722.195
129.410	14.171	950.415	721.634
130.424	14.259	949.825	721.499
131.439	14.196	949.076	720.594
132.454	14.234	947.956	719.848
133.468	14.421	947.154	719.981
134.483	14.353	947.084	719.570
135.497	14.355	946.054	718.735
136.512	14.415	945.321	718.372
137.527	14.308	944.684	717.363
138.541	14.368	943.734	716.834
139.556	14.217	943.629	716.043
140.570	14.394	942.456	715.851
141.585	14.537	941.365	715.571
142.600	14.608	941.180	715.673
143.614	14.626	940.243	714.973
144.629	14.619	939.865	714.594
145.643	14.516	939.540	713.840
146.658	14.671	938.153	713.389
147.673	14.476	937.352	711.882
148.687	14.404	936.587	710.932
149.702	14.264	935.525	709.464
150.716	14.294	934.942	709.090
151.731	14.302	934.126	708.443
152.746	14.373	933.220	707.991
153.760	14.515	932.609	708.069
154.775	14.484	931.648	707.145
155.789	14.368	931.642	706.586
156.804	14.612	930.123	706.407
157.819	14.534	929.388	705.453
158.833	14.612	928.816	705.288
159.848	14.818	928.076	705.535
160.862	14.698	927.717	704.694
161.877	14.713	927.068	704.201
162.892	14.527	926.348	702.809
163.906	14.498	925.291	701.819
164.921	14.398	924.331	700.609
165.935	14.456	923.547	700.197
166.950	14.423	922.600	699.277
167.964	14.560	921.567	699.006
168.979	14.517	920.593	698.029
169.994	14.548	919.593	697.339
171.008	14.514	918.824	696.552
172.023	14.634	918.050	696.402
173.037	14.690	917.329	696.028
174.052	14.766	916.700	695.805
175.067	14.676	915.948	694.799
176.081	14.579	914.987	693.603
177.096	14.483	914.680	692.912
178.110	14.439	913.338	691.652
179.125	14.563	912.570	691.522
180.140	14.636	911.965	691.305
181.154	14.634	911.460	690.854
182.169	14.779	910.513	690.671
183.183	14.825	910.070	690.468
184.198	14.886	909.360	690.120
185.213	14.910	908.627	689.600
186.227	14.712	908.375	688.531
187.242	14.805	907.780	688.401
188.256	14.904	907.182	688.294
189.271	14.860	906.459	687.506
190.286	15.049	906.030	687.895
191.300	14.768	905.050	685.937
192.315	14.564	904.218	684.411
193.329	14.470	903.490	683.411
194.344	14.577	902.953	683.384
195.359	14.633	902.321	683.074
196.373	14.724	901.766	682.966
197.388	14.850	901.236	683.017
198.402	14.938	900.753	682.951
199.417	15.101	900.501	683.365
200.432	15.088	900.218	683.037
201.446	15.247	899.457	683.050
202.461	15.195	899.121	682.520
203.475	15.164	898.461	681.834
204.490	15.324	897.826	681.941
205.504	15.188	896.586	680.388
206.519	14.972	896.609	679.469
207.534	15.080	895.379	678.911
208.548	15.015	894.698	678.074
209.563	15.038	894.173	677.707
210.577	14.989	893.442	676.898
211.592	15.072	892.973	676.816
212.607	15.215	892.338	676.854
213.621	15.250	892.150	676.793
214.636	15.337	891.102	676.289
215.650	15.136	890.369	674.863
216.665	15.276	889.814	674.945
217.680	15.339	889.270	674.726
218.694	15.307	889.026	674.354
219.709	15.370	888.637	674.250
220.723	15.348	887.923	673.561
221.738	15.299	887.161	672.726
222.753	15.352	886.012	672.007
223.767	15.275	885.946	671.592
224.782	15.400	884.862	671.211
225.796	15.395	884.150	670.588
226.811	15.462	883.477	670.289
227.826	15.461	882.726	669.653
228.840	15.391	882.064	668.813
229.855	15.289	881.701	668.074
230.869	15.380	881.572	668.281
231.884	15.239	880.746	667.033
232.899	15.222	879.778	666.173
233.913	15.307	878.896	665.784
234.928	15.394	878.404	665.698
235.942	15.311	877.398	664.547
236.957	15.322	876.385	663.765
237.972	15.332	876.225	663.622
238.986	15.363	875.641	663.247
240.001	15.259	875.337	662.547
241.015	15.295	874.572	662.049
242.030	15.263	873.670	661.181
243.045	15.450	872.861	661.249
244.059	15.498	872.621	661.198
245.074	15.671	871.287	660.808
246.088	15.598	871.094	660.315
247.103	15.499	870.842	659.677
248.117	15.764	870.080	660.083
249.132	15.641	870.108	659.564
250.147	15.763	869.147	659.255
251.161	15.845	868.687	659.168
252.176	15.918	868.132	658.975
253.190	16.008	867.304	658.638
254.205	15.850	867.293	657.956
255.220	16.067	866.190	657.908
256.234	15.997	865.545	657.086
257.249	15.990	864.747	656.393
258.263	16.100	864.526	656.599
259.278	15.975	864.119	655.743
260.293	15.958	863.530	655.173
261.307	16.008	862.956	654.871
262.322	16.137	861.949	654.551
263.336	16.084	861.629	654.045
264.351	16.193	860.826	653.799
265.366	16.108	860.247	652.974
266.380	16.036	860.018	652.463
267.395	16.132	858.896	651.927
268.409	16.236	858.116	651.679
269.424	16.076	858.108	650.994
270.439	16.139	856.853	650.230
271.453	16.164	855.986	649.609
272.468	16.070	855.166	648.569
273.482	16.132	854.630	648.342
274.497	16.357	854.140	648.780
275.512	16.168	853.630	647.608
276.526	16.088	852.746	646.573
277.541	16.041	852.294	645.992
278.555	16.048	851.776	645.570
279.570	16.120	851.481	645.565
280.585	16.286	850.824	645.644
281.599	16.405	850.271	645.622
282.614	16.369	849.327	644.710
283.628	16.254	848.930	643.915
284.643	16.227	848.294	643.271
285.657	16.234	847.962	642.989
286.672	16.199	847.536	642.475
287.687	16.227	847.082	642.181
288.701	16.328	846.653	642.185
289.716	16.234	845.867	641.175
290.730	16.251	845.385	640.816
291.745	16.466	844.589	640.972
292.760	16.453	843.979	640.402
293.774	16.526	843.075	639.937
294.789	16.642	842.506	639.886
295.803	16.575	841.879	639.101
296.818	16.465	841.730	638.517
297.833	16.362	840.980	637.500
298.847	16.429	840.001	636.956
299.862	16.500	839.654	636.905
300.876	16.408	838.858	635.898
301.891	16.573	838.304	636.042
302.906	16.610	837.666	635.638
303.920	16.739	836.953	635.528
304.935	16.761	836.781	635.422
305.949	16.798	836.207	635.070
306.964	16.785	835.472	634.407
307.979	16.795	834.426	633.594
308.993	16.756	834.217	633.233
310.008	16.622	834.347	632.772
311.022	16.896	833.294	632.942
312.037	16.889	832.734	632.437
313.052	16.707	832.141	631.251
314.066	16.743	831.261	630.661
315.081	16.594	831.027	629.873
316.095	16.628	830.586	629.609
317.110	16.723	829.700	629.234
318.125	16.562	829.116	628.138
319.139	16.618	828.919	628.141
320.154	16.660	828.459	627.893
321.168	16.578	828.033	627.211
322.183	16.802	827.041	627.233
323.197	16.688	826.724	626.515
324.212	16.881	825.993	626.620
325.227	16.811	825.332	625.805
326.241	16.781	825.145	625.497
327.256	16.797	824.509	625.018
328.270	16.812	823.930	624.579
329.285	16.796	823.375	624.045
330.300	16.782	822.571	623.329
331.314	16.673	822.334	622.692
332.329	16.719	821.686	622.317
333.343	16.977	820.685	622.450
334.358	16.928	820.494	622.072
335.373	16.791	820.183	621.277
336.387	16.883	819.214	620.824
337.402	16.899	819.235	620.843
338.416	17.018	818.448	620.627
339.431	17.144	818.042	620.726
340.446	17.147	817.440	620.226
341.460	17.329	816.651	620.235
342.475	17.242	816.582	619.811
343.489	17.302	815.392	619.070
344.504	17.276	814.941	618.579
345.519	17.336	814.792	618.631
346.533	17.466	814.186	618.589
347.548	17.382	813.746	617.894
348.562	17.243	813.359	617.042
349.577	17.293	812.501	616.518
350.592	17.189	812.002	615.705
351.606	17.148	811.604	615.199
352.621	17.089	811.192	614.621
353.635	17.190	810.695	614.556
354.650	17.173	810.252	614.104
355.665	17.128	810.015	613.709
356.679	17.185	809.984	613.837
357.694	17.344	809.053	613.650
358.708	17.395	808.157	613.100
359.723	17.392	807.734	612.714
360.738	17.247	807.400	611.884
361.752	17.387	807.072	612.083
362.767	17.340	806.625	611.522
363.781	17.352	806.655	611.534
364.796	17.499	805.579	611.193
365.810	17.498	805.367	610.974
366.825	17.647	804.855	611.065
367.840	17.770	804.409	611.112
368.854	17.794	803.978	610.818
369.869	17.584	803.950	609.989
370.883	17.671	803.032	609.550
371.898	17.637	802.300	608.819
372.913	17.587	802.049	608.396
373.927	17.703	801.174	608.092
374.942	17.790	800.848	608.103
375.956	17.932	799.699	607.682
376.971	17.719	799.489	606.709
377.986	17.710	799.182	606.393
379.000	17.856	799.087	606.785
380.015	17.879	798.112	606.074
381.029	17.994	797.530	605.985
382.044	17.794	797.281	605.032
383.059	17.939	796.305	604.752
384.073	18.003	796.073	604.748
385.088	17.949	795.381	603.978
386.102	17.736	795.030	602.907
387.117	17.720	794.568	602.448
388.132	17.833	794.209	602.518
389.146	17.842	793.054	601.622
390.161	17.909	792.989	601.757
391.175	17.739	793.061	601.158
392.190	17.919	792.455	601.277
393.205	17.877	791.958	600.701
394.219	17.834	791.414	600.082
395.234	17.960	790.816	600.018
396.248	17.889	790.443	599.434
397.263	17.793	789.641	598.437
398.278	17.684	789.321	597.760
399.292	17.869	788.687	597.874
400.307	17.745	788.682	597.384
401.321	17.737	788.297	597.009
402.336	17.771	788.075	596.908
403.350	17.827	787.643	596.726
404.365	17.800	787.364	596.367
405.380	17.968	786.586	596.309
406.394	18.019	786.102	596.070
407.409	18.208	786.010	596.606
408.423	18.257	785.132	596.058
409.438	18.298	784.916	595.981
410.453	18.168	784.499	595.161
411.467	18.442	783.773	595.509
412.482	18.297	783.630	594.846
413.496	18.480	783.154	595.068
414.511	18.385	782.747	594.376
415.526	18.476	782.435	594.402
416.540	18.402	782.397	594.064
417.555	18.238	781.788	592.979
418.569	18.290	780.994	592.503
419.584	18.555	780.530	593.018
420.599	18.451	780.405	592.509
421.613	156.069	1369.148	1793.668
422.628	134.685	1454.935	1793.784
