DTS Sentinel unit serial number:	SN413079Multiplexer serial number:	ORYXHardware model number:	OX4-SRSoftware version number:	ORYX F/W v4.00 Oryx Data Collector v3.7.2.0data status	okinstallation	princeton_trtdifferential loss correction	single-endedforward channel	channel 3reverse channel	N/Adate	2019/09/10time	22:50:10forward acquisition time	60.00reverse acquisition time	0.00gamma	496.2192k internal	0.2331k external	0.2331temperature offset calibration	0.9920default loss term (dB/km)	0.3790temperature slope calibration	1.0000multiplexer offset coefficient	1.0000multiplexer slope coefficient	1.0000fibre end	0.00T internal ref (°C)	30.14T ext. ref 1 (°C)	-0.31T ext. ref 2 (°C)	23.50length (m)	temperature (°C)	Stokes	anti-Stokes-747.200	-200.000	-0.013	-0.097
-746.185	293.307	-0.134	0.247
-745.171	-114.237	-0.181	-0.035
-744.156	214.863	-0.085	0.136
-743.142	-108.472	-0.222	-0.048
-742.127	800.000	0.125	0.356
-741.112	-44.012	0.191	-0.097
-740.098	-28.920	-0.133	0.077
-739.083	288.175	-0.083	-0.152
-738.069	-200.000	-0.029	0.293
-737.054	71.732	-0.196	0.205
-736.039	166.365	0.131	0.186
-735.025	656.437	-0.044	0.115
-734.010	362.784	-0.103	0.208
-732.996	10.276	-0.221	0.169
-731.981	-200.000	0.006	0.283
-730.966	-185.118	0.105	0.002
-729.952	-172.237	-0.361	0.012
-728.937	-34.518	-0.251	0.139
-727.923	800.000	-0.100	0.318
-726.908	-168.460	-0.161	-0.006
-725.894	800.000	-0.125	-0.372
-724.879	173.832	-0.206	-0.298
-723.864	-84.606	0.311	-0.099
-722.850	78.026	-0.224	-0.240
-721.835	580.510	0.126	-0.310
-720.821	-144.650	-0.323	-0.030
-719.806	800.000	-0.017	0.065
-718.791	-200.000	-0.023	-0.365
-717.777	-12.496	-0.227	-0.149
-716.762	800.000	0.124	0.349
-715.748	-78.553	-0.265	0.091
-714.733	-31.333	-0.238	-0.134
-713.718	-123.138	0.213	-0.034
-712.704	-71.253	0.215	-0.081
-711.689	800.000	0.095	0.276
-710.675	567.455	0.020	0.049
-709.660	-66.228	0.171	0.068
-708.645	-43.757	0.406	0.205
-707.631	-114.183	0.316	0.061
-706.616	800.000	0.029	-0.113
-705.602	425.930	-0.132	0.286
-704.587	189.858	-0.173	-0.261
-703.572	-167.664	-0.069	0.003
-702.558	46.142	0.156	0.145
-701.543	800.000	-0.009	0.026
-700.529	151.090	-0.183	0.250
-699.514	268.562	0.089	-0.156
-698.499	436.827	0.106	0.232
-697.485	364.355	0.079	-0.160
-696.470	318.386	0.098	-0.187
-695.456	190.272	0.127	-0.192
-694.441	-65.400	0.393	-0.159
-693.426	-53.085	0.029	-0.014
-692.412	-37.023	0.244	-0.132
-691.397	800.000	0.075	-0.305
-690.383	-200.000	-0.021	0.099
-689.368	-51.958	0.056	0.026
-688.354	-200.000	-0.014	-0.100
-687.339	-98.779	0.199	0.051
-686.324	-173.423	-0.043	-0.001
-685.310	23.187	0.096	0.079
-684.295	-200.000	-0.056	-0.254
-683.281	705.043	0.138	-0.365
-682.266	-195.379	-0.002	0.000
-681.251	-146.504	0.284	0.025
-680.237	-200.000	0.009	0.196
-679.222	-20.723	-0.164	0.101
-678.208	800.000	0.073	-0.251
-677.193	-96.646	0.385	-0.102
-676.178	-200.000	-0.001	-0.296
-675.164	-200.000	-0.016	-0.147
-674.149	-200.000	0.019	-0.090
-673.135	269.035	0.113	-0.198
-672.120	-68.883	-0.341	0.132
-671.105	800.000	0.043	0.138
-670.091	32.122	0.148	0.128
-669.076	-84.219	-0.156	-0.050
-668.062	-127.929	0.099	0.014
-667.047	800.000	-0.136	0.407
-666.032	715.879	-0.015	0.040
-665.018	800.000	-0.116	0.365
-664.003	97.968	-0.108	-0.124
-662.989	-87.355	0.574	0.174
-661.974	-158.077	-0.109	0.006
-660.959	264.680	-0.131	0.228
-659.945	800.000	0.101	-0.411
-658.930	-2.450	0.033	0.023
-657.916	-56.971	0.137	0.061
-656.901	-114.067	-0.175	0.034
-655.886	108.811	0.259	0.310
-654.872	-59.315	-0.326	0.141
-653.857	158.282	-0.145	-0.201
-652.843	-21.495	-0.166	0.102
-651.828	-51.785	0.056	0.026
-650.814	-46.476	0.134	-0.066
-649.799	236.070	-0.051	-0.085
-648.784	173.678	-0.115	0.167
-647.770	-200.000	-0.035	0.156
-646.755	-200.000	-0.014	-0.169
-645.741	-69.647	0.178	-0.068
-644.726	72.624	-0.238	-0.249
-643.711	172.965	-0.186	-0.269
-642.697	387.283	-0.105	-0.217
-641.682	-75.197	0.252	0.090
-640.668	800.000	0.089	-0.304
-639.653	-177.630	-0.109	-0.003
-638.638	-72.714	0.121	0.045
-637.624	-126.715	0.075	-0.011
-636.609	634.348	-0.050	-0.126
-635.595	-2.423	-0.167	-0.117
-634.580	-200.000	0.014	-0.370
-633.565	191.525	-0.078	-0.117
-632.551	-200.000	-0.022	-0.169
-631.536	-162.584	-0.138	-0.007
-630.522	-49.498	-0.127	0.061
-629.507	-200.000	-0.006	-0.384
-628.492	368.108	-0.023	0.047
-627.478	7.935	-0.173	0.130
-626.463	-105.259	-0.224	-0.051
-625.449	-63.475	-0.102	-0.042
-624.434	-200.000	-0.007	-0.098
-623.419	624.899	-0.186	-0.469
-622.405	186.450	-0.126	-0.188
-621.390	156.932	0.116	0.160
-620.376	125.281	0.070	0.088
-619.361	-95.503	-0.165	0.044
-618.346	-157.341	-0.097	-0.006
-617.332	407.991	0.114	-0.241
-616.317	-20.837	-0.075	0.046
-615.303	65.796	-0.084	0.085
-614.288	589.308	0.038	0.095
-613.273	800.000	-0.074	0.241
-612.259	737.787	0.076	0.204
-611.244	392.915	-0.084	0.175
-610.230	-85.367	-0.413	-0.129
-609.215	-149.227	-0.267	-0.021
-608.201	-200.000	-0.007	-0.161
-607.186	-53.776	-0.167	0.076
-606.171	76.314	-0.122	-0.130
-605.157	477.369	-0.219	-0.496
-604.142	-94.548	-0.103	0.028
-603.128	51.382	-0.077	-0.074
-602.113	75.254	0.094	-0.100
-601.098	-11.244	-0.035	0.023
-600.084	280.918	0.192	-0.343
-599.069	483.933	-0.025	0.057
-598.055	81.349	-0.028	-0.031
-597.040	-11.868	0.144	0.094
-596.025	-103.772	-0.189	0.044
-595.011	-37.232	-0.168	0.090
-593.996	-43.669	0.319	-0.161
-592.982	-190.393	-0.257	-0.003
-591.967	800.000	0.086	-0.239
-590.952	800.000	0.071	-0.274
-589.938	-155.798	0.082	-0.005
-588.923	-150.322	0.231	0.018
-587.909	-118.341	-0.181	-0.032
-586.894	154.901	-0.115	-0.158
-585.879	-59.246	-0.183	-0.079
-584.865	-200.000	0.008	0.488
-583.850	752.567	0.115	-0.310
-582.836	-61.765	-0.047	0.020
-581.821	-46.881	-0.112	0.055
-580.806	-200.000	0.018	-0.114
-579.792	-162.572	-0.089	-0.004
-578.777	204.001	0.157	-0.243
-577.763	-96.750	0.209	0.055
-576.748	77.456	0.060	-0.063
-575.733	800.000	0.055	0.236
-574.719	29.991	-0.110	-0.094
-573.704	-200.000	-0.020	0.266
-572.690	117.046	0.052	0.064
-571.675	195.437	0.026	0.039
-570.661	381.545	0.021	0.044
-569.646	-139.422	-0.189	-0.020
-568.631	-197.800	-0.199	0.001
-567.617	-11.749	-0.248	0.163
-566.602	-111.439	-0.247	-0.050
-565.588	236.073	0.033	-0.054
-564.573	800.000	0.021	0.070
-563.558	-154.119	-0.113	0.008
-562.544	-200.000	-0.021	-0.159
-561.529	800.000	-0.063	0.202
-560.515	-131.859	-0.222	0.029
-559.500	422.268	-0.001	0.002
-558.485	800.000	0.101	-0.367
-557.471	191.291	-0.181	-0.272
-556.456	260.901	-0.170	0.294
-555.442	-12.927	-0.345	0.224
-554.427	-47.014	0.214	-0.105
-553.412	93.032	0.069	-0.078
-552.398	103.801	-0.169	0.198
-551.383	280.605	-0.088	0.158
-550.369	-31.807	-0.181	0.101
-549.354	-4.690	-0.122	-0.084
-548.339	26.383	0.351	-0.293
-547.325	-109.713	0.338	-0.071
-546.310	18.765	0.136	-0.109
-545.296	-200.000	0.016	0.235
-544.281	-49.606	0.135	0.064
-543.266	-26.466	0.117	-0.069
-542.252	286.659	0.089	-0.161
-541.237	800.000	-0.059	0.184
-540.223	63.858	0.027	-0.027
-539.208	-41.485	-0.289	-0.148
-538.193	302.496	0.042	0.078
-537.179	-200.000	-0.012	0.129
-536.164	207.032	-0.132	0.206
-535.150	-44.768	-0.255	-0.127
-534.135	-37.588	-0.525	-0.279
-533.121	241.116	-0.105	-0.176
-532.106	249.887	0.228	-0.386
-531.091	41.621	0.121	0.110
-530.077	80.380	0.052	0.055
-529.062	157.153	-0.089	-0.123
-528.048	-200.000	0.002	-0.070
-527.033	-130.294	-0.268	0.036
-526.018	-116.217	0.272	0.050
-525.004	102.432	-0.262	-0.305
-523.989	-200.000	-0.042	-0.202
-522.975	-79.051	-0.415	-0.141
-521.960	800.000	0.123	0.409
-520.945	33.625	0.118	0.102
-519.931	363.173	-0.245	0.491
-518.916	23.690	-0.136	-0.111
-517.902	-200.000	0.045	-0.386
-516.887	-107.031	-0.441	-0.097
-515.872	800.000	-0.040	0.131
-514.858	800.000	-0.048	0.147
-513.843	214.765	-0.253	0.399
-512.829	86.859	-0.108	-0.119
-511.814	182.469	-0.125	0.184
-510.799	-200.000	-0.140	0.001
-509.785	631.223	0.153	0.387
-508.770	-12.091	0.381	0.249
-507.756	183.086	0.045	0.066
-506.741	381.986	-0.076	0.156
-505.726	-96.475	-0.011	-0.003
-504.712	-200.000	-0.016	-0.117
-503.697	-200.000	-0.026	-0.347
-502.683	-6.876	-0.126	-0.085
-501.668	800.000	-0.037	0.127
-500.653	-141.108	-0.366	-0.037
-499.639	153.372	-0.220	-0.300
-498.624	140.005	-0.151	0.198
-497.610	90.570	0.157	0.175
-496.595	-115.443	0.380	0.071
-495.581	692.680	0.041	0.107
-494.566	-200.000	0.004	0.162
-493.551	-200.000	0.024	0.245
-492.537	-26.782	0.335	-0.195
-491.522	-70.917	0.102	0.038
-490.508	-170.469	-0.395	0.014
-489.493	800.000	-0.040	0.166
-488.478	203.017	-0.070	0.108
-487.464	-12.874	0.144	0.093
-486.449	800.000	-0.014	-0.048
-485.435	-200.000	0.001	-0.113
-484.420	-140.342	0.276	-0.029
-483.405	756.986	-0.120	0.323
-482.391	221.839	-0.046	-0.074
-481.376	-200.000	-0.033	-0.276
-480.362	-113.757	0.305	0.059
-479.347	95.299	-0.168	-0.191
-478.332	82.667	-0.121	0.131
-477.318	-122.553	-0.394	-0.064
-476.303	-148.278	-0.118	0.010
-475.289	-157.567	0.329	0.020
-474.274	-200.000	0.016	-0.089
-473.259	185.300	-0.054	0.080
-472.245	-5.152	0.269	0.184
-471.230	800.000	0.145	0.530
-470.216	66.512	-0.056	-0.057
-469.201	-81.986	0.236	0.077
-468.186	-35.430	-0.328	-0.177
-467.172	-6.143	-0.126	-0.086
-466.157	-101.679	0.087	0.021
-465.143	800.000	-0.031	0.127
-464.128	800.000	-0.004	-0.016
-463.113	-143.155	0.247	-0.024
-462.099	-68.500	0.188	-0.073
-461.084	-108.582	0.052	0.011
-460.070	-200.000	-0.008	0.037
-459.055	54.755	-0.144	-0.139
-458.040	219.325	0.120	0.191
-457.026	-95.120	-0.051	0.014
-456.011	219.588	-0.079	-0.125
-454.997	228.371	0.020	-0.033
-453.982	-192.916	0.255	-0.002
-452.968	800.000	-0.034	0.130
-451.953	-0.979	-0.185	-0.130
-450.938	-35.237	-0.413	-0.224
-449.924	380.108	0.069	0.140
-448.909	264.389	-0.118	0.205
-447.895	-31.653	-0.272	0.152
-446.880	800.000	0.100	0.308
-445.865	-138.076	-0.136	0.015
-444.851	-200.000	-0.003	0.175
-443.836	-200.000	0.034	0.281
-442.822	143.455	0.162	0.215
-441.807	6.116	0.210	-0.155
-440.792	226.118	-0.115	-0.185
-439.778	-117.169	-0.216	-0.039
-438.763	188.031	-0.129	0.191
-437.749	800.000	-0.096	0.295
-436.734	-63.830	0.465	0.189
-435.719	-142.988	-0.169	0.016
-434.705	800.000	-0.063	-0.208
-433.690	2.390	0.473	0.341
-432.676	671.437	0.099	-0.255
-431.661	419.210	0.034	-0.072
-430.646	-157.818	0.247	0.015
-429.632	-15.093	-0.088	-0.056
-428.617	800.000	-0.047	0.197
-427.603	-174.914	0.131	0.004
-426.588	-90.275	-0.448	-0.129
-425.573	-30.404	0.201	-0.113
-424.559	207.658	-0.037	-0.057
-423.544	-26.620	0.184	0.107
-422.530	321.927	0.022	0.042
-421.515	-200.000	0.000	-0.022
-420.500	23.044	-0.036	-0.029
-419.486	-99.524	0.536	-0.134
-418.471	-104.742	-0.301	-0.069
-417.457	-38.776	-0.282	0.148
-416.442	800.000	0.024	0.076
-415.428	800.000	0.063	0.180
-414.413	-200.000	0.100	0.524
-413.398	-36.474	0.230	0.123
-412.384	33.300	0.194	-0.167
-411.369	-101.510	-0.092	0.022
-410.355	-124.126	0.231	0.036
-409.340	-131.023	0.118	0.016
-408.325	325.303	0.096	0.183
-407.311	64.457	-0.121	-0.121
-406.296	230.974	-0.091	-0.149
-405.282	800.000	0.104	0.351
-404.267	12.539	-0.068	-0.052
-403.252	197.619	-0.097	0.147
-402.238	331.157	0.091	0.173
-401.223	21.620	-0.275	-0.222
-400.209	-94.077	0.459	0.125
-399.194	77.731	0.160	0.170
-398.179	663.686	-0.094	-0.242
-397.165	-98.575	-0.150	0.038
-396.150	419.087	-0.134	-0.286
-395.136	193.388	0.120	-0.181
-394.121	-200.000	0.090	0.488
-393.106	199.074	0.037	-0.057
-392.092	-107.871	0.156	-0.034
-391.077	-0.580	0.130	-0.092
-390.063	-200.000	0.016	-0.073
-389.048	800.000	-0.042	-0.180
-388.033	79.123	0.094	0.100
-387.019	31.394	-0.201	0.172
-386.004	-200.000	-0.036	0.228
-384.990	-200.000	-0.019	-0.372
-383.975	-154.650	-0.229	0.015
-382.960	-200.000	0.017	-0.123
-381.946	-120.854	-0.140	0.023
-380.931	262.447	0.027	0.046
-379.917	-200.000	-0.028	0.156
-378.902	79.986	-0.017	0.018
-377.888	83.818	0.019	0.021
-376.873	13.575	0.073	0.056
-375.858	-200.000	-0.005	0.138
-374.844	800.000	0.123	0.354
-373.829	-30.592	0.391	-0.220
-372.815	396.099	-0.206	-0.426
-371.800	741.288	0.058	-0.154
-370.785	800.000	0.087	0.296
-369.771	-200.000	-0.002	0.102
-368.756	-58.740	0.190	-0.082
-367.742	800.000	-0.087	0.251
-366.727	-7.658	0.262	-0.175
-365.712	-200.000	0.012	-0.270
-364.698	9.834	0.216	-0.162
-363.683	-31.345	0.149	-0.083
-362.669	602.563	-0.060	0.147
-361.654	-200.000	-0.030	-0.196
-360.639	-140.920	-0.124	-0.013
-359.625	-200.000	0.033	0.284
-358.610	-200.000	0.039	0.224
-357.596	18.790	0.199	-0.158
-356.581	388.886	-0.042	0.086
-355.566	97.706	0.156	0.178
-354.552	195.468	-0.148	-0.222
-353.537	800.000	-0.067	-0.215
-352.523	300.808	0.247	0.452
-351.508	-102.548	0.098	0.023
-350.493	-100.245	-0.431	-0.106
-349.479	-46.745	0.341	-0.165
-348.464	800.000	0.025	0.095
-347.450	800.000	-0.043	0.139
-346.435	-200.000	0.031	0.363
-345.420	44.710	0.085	0.078
-344.406	-162.334	-0.182	0.009
-343.391	66.133	-0.085	-0.085
-342.377	-118.187	0.180	0.032
-341.362	-153.532	-0.111	0.008
-340.348	-152.523	0.037	0.003
-339.333	-200.000	0.049	0.481
-338.318	-106.064	0.136	-0.030
-337.304	-200.000	0.001	-0.095
-336.289	-52.515	0.326	-0.149
-335.275	380.749	-0.011	-0.023
-334.260	-200.000	-0.092	0.406
-333.245	85.499	0.089	0.097
-332.231	-83.403	-0.374	0.119
-331.216	-124.882	0.191	-0.029
-330.202	53.582	-0.084	-0.080
-329.187	610.671	0.089	-0.221
-328.172	-137.320	0.142	-0.016
-327.158	-127.506	0.493	-0.071
-326.143	134.395	0.040	0.051
-325.129	47.561	0.255	0.236
-324.114	-93.280	-0.285	0.078
-323.099	800.000	-0.063	-0.270
-322.085	501.139	-0.082	0.188
-321.070	90.063	0.310	0.342
-320.056	-200.000	0.027	0.144
-319.041	61.722	-0.151	-0.149
-318.026	370.968	-0.039	0.077
-317.012	-125.739	0.310	-0.046
-315.997	81.842	0.067	-0.072
-314.983	54.230	0.095	-0.090
-313.968	-64.716	-0.295	0.118
-312.953	-200.000	0.013	-0.184
-311.939	101.454	-0.192	0.221
-310.924	-200.000	0.008	-0.135
-309.910	-108.422	-0.145	-0.031
-308.895	-67.487	-0.187	0.073
-307.880	-77.143	0.590	-0.204
-306.866	-8.152	-0.022	0.014
-305.851	-187.278	0.016	-0.000
-304.837	-98.108	-0.137	-0.035
-303.822	-128.340	0.098	0.014
-302.807	-200.000	-0.040	-0.262
-301.793	57.122	-0.064	-0.062
-300.778	798.358	-0.051	-0.140
-299.764	35.656	-0.236	0.205
-298.749	-151.584	-0.304	-0.022
-297.735	800.000	0.173	0.498
-296.720	94.560	-0.172	0.193
-295.705	-200.000	0.008	0.069
-294.691	-165.108	0.054	0.002
-293.676	-169.180	0.314	0.011
-292.662	-175.108	-0.125	0.003
-291.647	17.873	0.265	0.209
-290.632	-115.789	-0.264	-0.049
-289.618	800.000	-0.016	0.051
-288.603	268.148	0.220	0.381
-287.589	-116.376	-0.073	-0.013
-286.574	349.565	-0.061	-0.119
-285.559	-99.131	0.255	0.064
-284.545	-161.464	-0.155	0.008
-283.530	-200.000	-0.038	-0.331
-282.516	-49.088	0.307	-0.145
-281.501	-73.971	-0.250	-0.090
-280.486	-161.985	-0.235	-0.012
-279.472	143.673	-0.073	0.097
-278.457	-200.000	-0.056	0.336
-277.443	-200.000	-0.014	0.238
-276.428	126.665	-0.023	-0.029
-275.413	787.052	-0.100	-0.270
-274.399	106.005	-0.139	-0.163
-273.384	-200.000	0.018	-0.093
-272.370	280.487	-0.055	-0.097
-271.355	-137.991	0.251	-0.028
-270.340	-200.000	0.001	0.066
-269.326	-115.325	0.360	-0.067
-268.311	800.000	-0.059	0.177
-267.297	141.298	0.196	0.256
-266.282	-200.000	0.016	0.156
-265.267	-77.871	-0.231	-0.079
-264.253	-83.339	0.134	-0.042
-263.238	-90.480	-0.216	-0.062
-262.224	1.960	0.306	-0.218
-261.209	-80.775	0.269	-0.088
-260.195	-200.000	-0.049	0.241
-259.180	-185.561	0.104	-0.002
-258.165	182.058	-0.078	0.114
-257.151	-200.000	0.012	-0.429
-256.136	70.253	0.102	-0.104
-255.122	378.356	-0.006	0.013
-254.107	126.622	0.013	0.016
-253.092	-92.143	0.036	0.010
-252.078	-200.000	0.013	-0.131
-251.063	-174.400	0.097	0.003
-250.049	418.919	0.033	0.069
-249.034	391.737	-0.279	-0.571
-248.019	-156.687	0.158	-0.010
-247.005	-141.853	0.221	-0.022
-245.990	53.537	-0.256	-0.242
-244.976	-117.934	0.071	0.013
-243.961	158.912	0.092	-0.126
-242.946	-116.793	0.191	-0.035
-241.932	298.516	-0.176	-0.319
-240.917	800.000	0.025	-0.076
-239.903	26.337	-0.121	0.100
-238.888	-51.910	-0.346	-0.159
-237.873	-200.000	-0.009	-0.131
-236.859	800.000	-0.065	-0.247
-235.844	21.768	-0.171	-0.138
-234.830	111.320	-0.134	0.159
-233.815	-20.688	0.361	0.219
-232.800	-48.082	0.083	-0.040
-231.786	-200.000	0.013	0.177
-230.771	-79.470	0.312	0.104
-229.757	-200.000	-0.029	-0.210
-228.742	255.304	0.046	-0.078
-227.727	224.418	0.152	-0.243
-226.713	-200.000	0.006	-0.223
-225.698	56.303	0.072	-0.069
-224.684	-86.879	0.304	-0.092
-223.669	-102.342	-0.028	0.007
-222.655	-200.000	-0.071	0.327
-221.640	95.671	-0.213	0.239
-220.625	-200.000	-0.021	-0.338
-219.611	800.000	0.099	-0.278
-218.596	-200.000	0.080	0.449
-217.582	-139.307	-0.209	0.022
-216.567	-27.630	0.197	-0.112
-215.552	175.768	-0.043	-0.061
-214.538	-38.495	0.087	0.045
-213.523	-119.915	-0.032	-0.005
-212.509	155.919	0.070	-0.095
-211.494	637.381	-0.047	0.117
-210.479	-87.594	0.174	-0.052
-209.465	-200.000	-0.031	-0.160
-208.450	145.912	0.062	0.082
-207.436	-142.354	-0.199	0.019
-206.421	-200.000	-0.001	-0.223
-205.406	120.620	-0.089	-0.109
-204.392	800.000	-0.006	0.018
-203.377	-88.554	-0.348	0.102
-202.363	-49.539	0.478	0.224
-201.348	-200.000	-0.014	-0.089
-200.333	-88.638	-0.144	0.042
-199.319	-135.945	0.252	0.029
-198.304	800.000	-0.076	0.208
-197.290	-200.000	0.004	0.059
-196.275	-89.490	-0.089	0.026
-195.260	-200.000	-0.019	0.107
-194.246	215.130	0.137	0.214
-193.231	-151.358	0.257	0.019
-192.217	87.006	0.112	0.122
-191.202	-13.820	0.030	-0.019
-190.187	-200.000	0.034	0.182
-189.173	-131.105	0.033	-0.004
-188.158	577.433	-0.103	-0.248
-187.144	800.000	0.023	-0.069
-186.129	-200.000	-0.029	-0.179
-185.114	109.587	0.046	-0.054
-184.100	-90.247	0.419	-0.120
-183.085	-76.756	-0.047	-0.016
-182.071	-200.000	-0.008	-0.146
-181.056	-142.838	0.345	-0.033
-180.042	573.067	0.100	-0.241
-179.027	-57.696	-0.119	-0.051
-178.012	-45.972	0.240	0.116
-176.998	-200.000	0.033	0.328
-175.983	-83.106	0.110	-0.035
-174.969	-200.000	-0.002	0.244
-173.954	240.456	-0.230	0.378
-172.939	-60.524	0.127	-0.053
-171.925	5.803	-0.163	-0.118
-170.910	110.709	-0.083	-0.099
-169.896	800.000	0.131	0.445
-168.881	7.041	0.091	0.067
-167.866	50.405	0.120	0.112
-166.852	-200.000	0.037	0.217
-165.837	-110.853	-0.242	-0.049
-164.823	-200.000	0.029	-0.515
-163.808	6.164	-0.008	-0.006
-162.793	461.155	-0.090	-0.198
-161.779	-167.785	0.246	-0.010
-160.764	48.664	0.250	0.230
-159.750	-30.364	0.191	0.107
-158.735	349.250	0.098	-0.191
-157.720	344.353	-0.085	-0.163
-156.706	-200.000	0.012	0.138
-155.691	5.500	-0.179	-0.130
-154.677	-100.522	-0.083	-0.020
-153.662	-49.485	0.045	0.021
-152.647	545.313	0.101	-0.238
-151.633	800.000	-0.043	-0.149
-150.618	58.452	0.090	-0.087
-149.604	413.720	0.079	-0.166
-148.589	305.423	-0.058	0.106
-147.574	-28.627	-0.122	0.069
-146.560	-131.934	0.201	0.026
-145.545	-185.348	0.162	0.002
-144.531	800.000	-0.076	-0.268
-143.516	-62.018	-0.124	-0.051
-142.502	9.825	0.220	-0.164
-141.487	-39.971	0.249	0.128
-140.472	-200.000	-0.015	0.131
-139.458	-200.000	-0.002	-0.061
-138.443	-71.403	-0.229	-0.084
-137.429	-30.870	0.174	0.097
-136.414	-14.006	0.089	-0.056
-135.399	-200.000	-0.041	-0.265
-134.385	154.384	-0.174	0.234
-133.370	216.869	0.240	0.375
-132.356	-84.432	-0.059	0.018
-131.341	314.664	-0.034	0.063
-130.326	56.966	0.063	0.061
-129.312	386.088	0.145	-0.293
-128.297	-117.883	0.237	0.042
-127.283	-200.000	0.003	0.060
-126.268	549.834	0.062	0.146
-125.253	98.074	-0.165	0.187
-124.239	-200.000	-0.028	0.342
-123.224	-131.842	0.274	0.035
-122.210	-21.823	-0.246	0.147
-121.195	8.359	-0.157	0.116
-120.180	205.506	-0.241	-0.368
-119.166	800.000	0.069	0.214
-118.151	240.026	-0.041	0.067
-117.137	-200.000	-0.013	0.088
-116.122	461.637	0.075	0.163
-115.107	-128.789	0.438	-0.061
-114.093	-200.000	0.017	0.171
-113.078	75.951	0.117	0.122
-112.064	73.431	-0.403	-0.414
-111.049	-80.803	0.079	-0.026
-110.034	-129.549	0.216	-0.029
-109.020	266.068	0.280	0.479
-108.005	583.225	-0.065	0.157
-106.991	-167.635	0.135	-0.005
-105.976	-94.781	0.114	0.030
-104.962	-151.236	0.294	-0.022
-103.947	70.737	0.055	0.055
-102.932	-200.000	0.011	0.121
-101.918	-168.193	0.086	0.003
-100.903	800.000	0.046	0.138
-99.889	116.421	-0.243	0.292
-98.874	78.154	0.269	0.282
-97.859	-54.934	-0.339	0.150
-96.845	-163.666	-0.274	0.013
-95.830	-9.296	0.174	0.114
-94.816	61.897	-0.088	0.086
-93.801	800.000	0.009	0.031
-92.786	-37.991	0.158	0.082
-91.772	7.442	0.087	-0.064
-90.757	-37.262	-0.353	0.185
-89.743	-6.633	0.048	-0.032
-88.728	12.709	-0.093	0.070
-87.713	481.525	-0.038	-0.085
-86.699	37.532	-0.194	0.169
-85.684	390.344	0.254	0.517
-84.670	32.635	-0.101	0.085
-83.655	203.371	0.090	0.137
-82.640	239.387	0.044	0.072
-81.626	-200.000	-0.014	-0.093
-80.611	363.911	-0.038	-0.075
-79.597	323.648	0.186	-0.349
-78.582	800.000	-0.024	-0.087
-77.567	481.120	0.009	0.020
-76.553	-31.917	0.282	-0.155
-75.538	800.000	0.048	-0.194
-74.524	-105.736	-0.109	-0.024
-73.509	-74.034	0.130	0.046
-72.494	371.050	0.048	-0.095
-71.480	610.027	0.088	0.217
-70.465	-16.695	0.032	-0.020
-69.451	168.397	-0.090	0.126
-68.436	-200.000	-0.001	0.163
-67.422	-115.842	-0.159	-0.029
-66.407	113.052	-0.208	0.247
-65.392	-88.242	-0.152	-0.045
-64.378	82.289	-0.082	0.087
-63.363	-200.000	0.009	0.170
-62.349	-200.000	-0.013	0.300
-61.334	72.077	-1.040	-1.060
-60.319	18.332	0.611	0.478
-59.305	-200.000	-0.124	-1.025
-58.290	199.545	0.607	0.911
-57.276	445.078	0.532	1.143
-56.261	-200.000	104.221	613.886
-55.246	518.296	1481.711	3397.401
-54.232	180.633	2674.683	3846.124
-53.217	113.235	2172.616	2581.531
-52.203	40.837	1694.440	1497.269
-51.188	33.335	1503.798	1278.338
-50.173	30.897	1477.651	1239.863
-49.159	51.473	1532.574	1426.038
-48.144	52.375	1549.204	1447.577
-47.130	33.544	1505.106	1280.661
-46.115	30.409	1490.314	1247.010
-45.100	30.202	1486.769	1242.607
-44.086	30.224	1484.862	1241.113
-43.071	30.056	1483.300	1238.636
-42.057	30.104	1481.283	1237.222
-41.042	30.107	1479.996	1236.114
-40.027	30.143	1478.255	1234.853
-39.013	30.164	1476.605	1233.570
-37.998	30.041	1475.861	1232.080
-36.984	30.071	1474.559	1231.138
-35.969	30.094	1473.271	1230.171
-34.954	30.132	1471.629	1229.005
-33.940	30.046	1470.700	1227.610
-32.925	30.164	1469.037	1226.954
-31.911	30.179	1467.705	1225.893
-30.896	30.258	1466.241	1225.138
-29.881	30.127	1465.132	1223.299
-28.867	30.328	1463.201	1222.960
-27.852	30.212	1462.597	1221.643
-26.838	30.266	1461.022	1220.637
-25.823	30.278	1459.554	1219.443
-24.809	30.188	1457.906	1217.423
-23.794	30.196	1456.900	1216.593
-22.779	30.115	1455.455	1214.801
-21.765	30.153	1454.356	1214.088
-20.750	30.200	1453.430	1213.571
-19.736	30.227	1452.252	1212.720
-18.721	30.177	1451.580	1211.785
-17.706	30.103	1450.136	1210.044
-16.692	30.141	1449.019	1209.314
-15.677	30.239	1447.882	1208.954
-14.663	30.184	1446.907	1207.732
-13.648	30.117	1445.728	1206.268
-12.633	30.009	1445.502	1205.326
-11.619	30.076	1444.609	1204.968
-10.604	30.077	1443.336	1203.869
-9.590	30.045	1442.392	1202.825
-8.575	30.108	1441.345	1202.314
-7.560	30.055	1440.739	1201.416
-6.546	30.142	1439.626	1201.001
-5.531	30.108	1438.848	1200.085
-4.517	29.998	1438.335	1198.899
-3.502	30.059	1437.038	1198.167
-2.487	30.098	1436.129	1197.612
-1.473	30.134	1434.810	1196.696
-0.458	30.149	1433.388	1195.558
0.556	27.837	1424.114	1184.205
1.571	24.711	1399.593	1143.751
2.586	21.290	1340.221	1074.141
3.600	19.750	1259.318	1000.309
4.615	18.628	1215.247	958.947
5.629	15.931	1161.400	901.953
6.644	7.646	1077.765	795.596
7.659	0.870	1037.953	733.376
8.673	-0.140	1032.321	724.465
9.688	-0.331	1029.287	721.353
10.702	-0.375	1027.589	719.890
11.717	-0.414	1025.676	718.297
12.731	2.472	1028.894	734.344
13.746	11.367	1040.750	785.748
14.761	18.162	1049.546	825.214
15.775	19.582	1050.607	832.829
16.790	19.691	1050.035	832.826
17.804	19.478	1049.695	831.456
18.819	19.257	1048.541	829.407
19.834	19.452	1047.846	829.721
20.848	19.418	1047.558	829.255
21.863	19.465	1047.214	829.137
22.877	19.393	1046.730	828.331
23.892	19.450	1046.008	827.959
24.907	19.396	1045.186	826.977
25.921	19.414	1044.771	826.661
26.936	19.492	1043.276	825.779
27.950	19.514	1042.345	825.078
28.965	19.414	1041.199	823.619
29.980	19.339	1039.650	821.963
30.994	19.364	1037.908	820.629
32.009	19.413	1037.491	820.460
33.023	19.516	1036.535	820.123
34.038	19.237	1035.713	818.075
35.053	19.279	1034.855	817.526
36.067	19.417	1034.270	817.644
37.082	19.433	1033.383	816.945
38.096	19.557	1032.365	816.658
39.111	19.749	1031.367	816.703
40.126	19.855	1030.868	816.736
41.140	19.815	1029.500	815.391
42.155	19.372	1028.285	812.270
43.169	19.216	1026.395	809.971
44.184	19.147	1025.783	809.093
45.199	19.286	1024.900	808.978
46.213	19.257	1023.292	807.501
47.228	19.228	1022.655	806.791
48.242	19.243	1022.002	806.275
49.257	19.305	1020.840	805.578
50.271	19.483	1019.740	805.468
51.286	19.507	1019.323	805.176
52.301	19.565	1018.533	804.754
53.315	19.383	1018.213	803.580
54.330	19.469	1017.224	803.129
55.344	19.427	1015.947	801.855
56.359	19.499	1014.806	801.219
57.374	19.561	1013.761	800.610
58.388	19.331	1013.008	798.880
59.403	19.347	1012.269	798.298
60.417	19.298	1011.785	797.620
61.432	19.022	1011.411	795.980
62.447	19.148	1010.287	795.605
63.461	19.374	1009.586	796.028
64.476	19.374	1008.948	795.451
65.490	19.331	1007.818	794.294
66.505	19.256	1006.954	793.196
67.520	19.279	1006.023	792.499
68.534	19.333	1004.976	791.851
69.549	19.174	1004.366	790.570
70.563	18.920	1003.272	788.477
71.578	18.860	1002.138	787.240
72.593	18.984	1001.157	786.969
73.607	18.861	1000.179	785.568
74.622	18.813	999.344	784.620
75.636	19.131	998.740	785.529
76.651	19.177	997.987	785.079
77.666	19.129	996.996	784.012
78.680	18.919	996.178	782.341
79.695	19.033	995.350	782.138
80.709	19.085	994.979	782.015
81.724	19.297	993.853	782.026
82.739	19.208	992.844	780.759
83.753	19.092	992.044	779.534
84.768	19.396	991.492	780.406
85.782	19.639	991.325	781.305
86.797	19.767	990.115	780.860
87.812	19.788	988.900	779.929
88.826	19.520	988.387	778.248
89.841	19.613	987.774	778.114
90.855	19.804	986.084	777.572
91.870	19.741	985.688	776.906
92.884	19.755	985.177	776.499
93.899	19.446	984.196	774.273
94.914	19.531	983.056	773.685
95.928	19.630	982.491	773.617
96.943	19.655	981.635	772.987
97.957	19.427	980.131	770.714
98.972	19.177	979.413	768.969
99.987	19.029	978.061	767.175
101.001	19.079	977.749	767.089
102.016	19.486	977.060	768.292
103.030	19.386	976.468	767.314
104.045	19.385	974.751	765.894
105.060	19.048	973.925	763.681
106.074	19.152	972.483	762.940
107.089	19.092	972.172	762.364
108.103	19.579	971.729	764.105
109.118	19.686	970.568	763.599
110.133	19.521	969.065	761.621
111.147	19.351	968.613	760.446
112.162	19.346	967.114	759.183
113.176	18.992	966.211	756.848
114.191	18.999	966.123	756.743
115.206	19.284	964.079	756.327
116.220	19.013	963.093	754.297
117.235	18.871	962.369	753.043
118.249	18.976	961.759	752.957
119.264	19.066	960.756	752.500
120.279	19.027	959.744	751.471
121.293	19.058	958.961	750.925
122.308	18.981	958.705	750.321
123.322	19.081	957.558	749.795
124.337	19.066	956.254	748.641
125.352	19.085	954.425	747.224
126.366	18.668	953.652	744.745
127.381	18.361	951.919	741.996
128.395	18.884	951.606	743.949
129.410	19.446	950.885	745.751
130.424	19.509	950.315	745.512
131.439	19.487	949.025	744.335
132.454	19.509	948.000	743.563
133.468	19.423	947.283	742.565
134.483	19.473	946.347	741.981
135.497	19.427	945.863	741.336
136.512	19.643	945.336	741.786
137.527	19.571	944.932	741.096
138.541	19.734	943.671	740.737
139.556	19.587	943.053	739.559
140.570	19.670	942.497	739.413
141.585	19.824	940.769	738.648
142.600	19.724	940.169	737.684
143.614	19.653	939.515	736.805
144.629	19.629	938.872	736.134
145.643	19.989	937.966	736.890
146.658	19.807	937.046	735.328
147.673	19.691	936.406	734.266
148.687	19.619	934.871	732.691
149.702	19.569	933.790	731.570
150.716	19.481	932.620	730.215
151.731	19.506	931.779	729.600
152.746	19.621	931.347	729.681
153.760	19.853	930.463	729.903
154.775	19.801	929.810	729.107
155.789	19.895	929.211	728.967
156.804	19.799	928.189	727.697
157.819	19.806	927.037	726.759
158.833	19.765	926.245	725.903
159.848	19.719	926.095	725.527
160.862	20.029	924.257	725.322
161.877	19.767	923.461	723.538
162.892	19.770	923.082	723.187
163.906	19.984	922.314	723.419
164.921	19.855	921.329	722.042
165.935	19.960	920.091	721.444
166.950	19.921	918.880	720.269
167.964	19.932	918.015	719.575
168.979	19.890	917.259	718.743
169.994	19.818	916.061	717.443
171.008	19.588	915.331	715.856
172.023	19.813	914.387	715.985
173.037	20.022	913.655	716.212
174.052	19.710	912.700	714.110
175.067	19.538	911.800	712.633
176.081	19.631	910.960	712.297
177.096	19.751	910.291	712.205
178.110	19.709	909.456	711.317
179.125	19.512	908.274	709.520
180.140	19.247	907.171	707.509
181.154	19.272	907.025	707.433
182.169	19.371	906.237	707.162
183.183	19.565	906.024	707.729
184.198	19.845	905.253	708.209
185.213	19.853	904.108	707.286
186.227	19.711	903.842	706.432
187.242	19.804	903.774	706.697
188.256	19.859	902.539	705.894
189.271	19.865	901.821	705.296
190.286	19.933	901.136	704.972
191.300	19.745	900.650	703.768
192.315	19.266	899.385	700.765
193.329	18.720	897.718	697.192
194.344	18.361	896.592	694.796
195.359	18.909	897.148	697.389
196.373	19.621	897.538	700.520
197.388	19.934	896.704	701.075
198.402	19.602	896.005	699.125
199.417	19.560	895.763	698.702
200.432	19.779	894.944	698.887
201.446	19.565	894.007	697.229
202.461	19.002	893.779	694.717
203.475	19.278	892.620	694.869
204.490	18.846	891.662	692.319
205.504	17.808	889.573	686.462
206.519	18.339	889.220	688.266
207.534	19.237	889.341	691.907
208.548	19.291	889.459	692.154
209.563	19.594	888.746	692.751
210.577	19.771	887.814	692.674
211.592	19.387	887.254	690.638
212.607	19.915	886.885	692.401
213.621	19.939	886.341	692.011
214.636	19.785	885.896	690.990
215.650	19.921	885.263	690.977
216.665	19.884	884.607	690.255
217.680	19.994	884.008	690.165
218.694	19.944	884.022	689.916
219.709	19.616	882.494	687.357
220.723	19.283	881.374	685.103
221.738	19.468	881.188	685.630
222.753	19.715	880.505	686.021
223.767	19.675	879.809	685.258
224.782	19.763	878.808	684.766
225.796	19.891	878.285	684.807
226.811	20.051	877.977	685.137
227.826	19.615	877.005	682.595
228.840	18.800	875.556	678.192
229.855	18.833	874.720	677.611
230.869	19.158	874.289	678.499
231.884	18.846	873.367	676.496
232.899	18.813	872.879	675.930
233.913	19.579	873.212	679.141
234.928	19.840	872.605	679.634
235.942	19.688	871.901	678.428
236.957	19.815	870.921	678.105
237.972	19.615	869.991	676.536
238.986	19.426	869.566	675.408
240.001	19.585	868.828	675.394
241.015	19.495	868.110	674.425
242.030	19.525	867.708	674.169
243.045	19.776	867.007	674.544
244.059	19.697	866.949	674.133
245.074	19.955	865.971	674.319
246.088	19.816	865.434	673.300
247.103	19.535	864.181	671.172
248.117	19.534	863.514	670.591
249.132	20.169	863.557	673.029
250.147	20.322	863.322	673.380
251.161	20.207	862.745	672.427
252.176	20.552	861.732	672.911
253.190	20.493	861.302	672.287
254.205	20.644	860.811	672.430
255.220	20.780	860.143	672.374
256.234	20.594	859.864	671.378
257.249	20.513	859.489	670.714
258.263	20.532	858.142	669.677
259.278	20.538	857.668	669.272
260.293	20.563	857.602	669.256
261.307	20.580	856.695	668.555
262.322	20.478	856.022	667.578
263.336	20.340	855.166	666.321
264.351	19.815	853.949	663.300
265.366	18.757	852.057	657.725
266.380	18.283	851.324	655.287
267.395	19.416	851.413	659.633
268.409	20.113	851.484	662.290
269.424	20.078	850.947	661.683
270.439	20.226	850.171	661.583
271.453	20.271	849.929	661.509
272.468	20.344	849.036	661.033
273.482	20.453	848.675	661.110
274.497	20.841	847.702	661.767
275.512	20.641	846.724	660.187
276.526	20.051	845.536	656.966
277.541	20.111	844.967	656.692
278.555	20.462	844.525	657.619
279.570	20.172	844.406	656.370
280.585	20.037	842.967	654.684
281.599	20.146	842.610	654.761
282.614	20.321	842.357	655.167
283.628	19.998	841.285	653.055
284.643	19.504	840.599	650.606
285.657	20.019	840.269	652.230
286.672	19.891	839.241	650.896
287.687	19.393	838.407	648.319
288.701	19.726	838.255	649.393
289.716	20.128	838.038	650.680
290.730	19.780	837.252	648.704
291.745	19.854	835.967	647.930
292.760	19.647	835.413	646.666
293.774	19.428	834.845	645.354
294.789	20.300	835.282	648.897
295.803	20.976	835.102	651.223
296.818	20.804	835.320	650.693
297.833	21.076	834.203	650.779
298.847	20.833	833.139	648.986
299.862	20.410	832.551	646.897
300.876	20.660	831.858	647.231
301.891	20.998	831.017	647.774
302.906	20.977	830.648	647.353
303.920	20.628	829.329	644.975
304.935	20.409	828.675	643.596
305.949	20.783	828.386	644.702
306.964	20.870	827.891	644.579
307.979	20.583	827.293	642.996
308.993	20.580	827.038	642.730
310.008	21.088	826.628	644.230
311.022	21.025	826.285	643.675
312.037	20.877	825.669	642.590
313.052	20.750	824.717	641.325
314.066	20.667	824.257	640.606
315.081	20.000	822.934	637.068
316.095	19.337	821.918	633.790
317.110	19.940	821.951	635.973
318.125	20.706	821.880	638.676
319.139	20.290	820.864	636.304
320.154	19.320	819.373	631.539
321.168	18.922	818.187	629.114
322.183	19.423	818.844	631.398
323.197	20.432	818.744	634.953
324.212	20.574	818.531	635.252
325.227	20.733	818.192	635.514
326.241	20.876	817.921	635.770
327.256	20.720	817.218	634.598
328.270	20.688	816.639	633.976
329.285	20.646	815.958	633.237
330.300	20.376	815.430	631.791
331.314	20.273	814.627	630.738
332.329	20.270	813.987	630.174
333.343	20.658	813.626	631.247
334.358	20.856	812.953	631.385
335.373	20.834	812.388	630.812
336.387	21.003	811.566	630.730
337.402	21.262	811.220	631.342
338.416	21.216	811.110	631.033
339.431	21.125	810.543	630.207
340.446	21.163	809.499	629.479
341.460	21.423	809.418	630.297
342.475	21.288	808.849	629.313
343.489	21.113	808.193	628.116
344.504	21.032	807.814	627.474
345.519	21.345	807.656	628.423
346.533	21.453	807.166	628.373
347.548	21.655	806.387	628.437
348.562	21.746	805.963	628.375
349.577	21.557	805.738	627.468
350.592	21.390	805.461	626.596
351.606	21.643	804.492	626.694
352.621	21.621	803.935	626.126
353.635	21.496	803.348	625.166
354.650	21.415	802.982	624.538
355.665	21.076	801.985	622.499
356.679	20.129	800.359	617.808
357.694	20.090	799.981	617.320
358.708	20.613	799.624	618.851
359.723	20.608	799.397	618.605
360.738	20.677	799.409	618.805
361.752	21.173	799.074	620.253
362.767	21.297	798.867	620.476
363.781	21.531	798.581	621.032
364.796	21.742	798.051	621.313
365.810	21.854	797.812	621.468
366.825	21.876	797.403	621.171
367.840	21.821	796.954	620.572
368.854	21.614	796.531	619.456
369.869	21.333	795.553	617.649
370.883	21.179	795.230	616.799
371.898	21.356	794.359	616.694
372.913	21.248	793.213	615.369
373.927	21.299	792.936	615.280
374.942	21.311	792.499	614.927
375.956	21.654	791.859	615.583
376.971	21.596	791.486	615.036
377.986	21.531	791.223	614.546
379.000	21.873	790.841	615.397
380.015	21.767	790.289	614.540
381.029	21.748	789.469	613.780
382.044	21.608	788.692	612.633
383.059	21.875	788.490	613.355
384.073	21.891	787.966	612.949
385.088	21.884	787.351	612.393
386.102	21.845	787.001	611.929
387.117	21.767	786.246	611.019
388.132	21.701	785.800	610.385
389.146	21.480	785.002	608.944
390.161	21.013	784.376	606.779
391.175	21.063	784.191	606.757
392.190	21.424	784.135	607.915
393.205	21.508	783.506	607.667
394.219	20.654	781.811	603.337
395.234	19.151	779.779	596.512
396.248	18.574	778.750	593.675
397.263	19.598	779.564	597.791
398.278	21.299	780.712	604.506
399.292	21.861	780.645	606.344
400.307	21.432	779.973	604.287
401.321	21.287	779.501	603.370
402.336	21.372	779.529	603.629
403.350	21.563	779.089	603.895
404.365	21.922	779.178	605.148
405.380	22.246	778.875	605.976
406.394	22.507	778.442	606.484
407.409	22.450	777.963	605.863
408.423	22.596	777.306	605.796
409.438	22.530	776.618	604.981
410.453	22.237	776.484	603.819
411.467	22.418	776.306	604.246
412.482	22.498	775.532	603.867
413.496	22.573	774.836	603.529
414.511	22.572	774.560	603.254
415.526	22.617	774.474	603.289
416.540	22.446	774.163	602.408
417.555	22.498	773.439	601.968
418.569	22.189	772.894	600.436
419.584	22.118	772.487	599.824
420.599	22.221	771.629	599.459
421.613	159.053	1360.956	1799.464
422.628	137.243	1446.806	1799.583
