DTS Sentinel unit serial number:	SN413079Multiplexer serial number:	ORYXHardware model number:	OX4-SRSoftware version number:	ORYX F/W v4.00 Oryx Data Collector v3.7.2.0data status	okinstallation	princeton_trtdifferential loss correction	single-endedforward channel	channel 3reverse channel	N/Adate	2019/09/13time	02:20:35forward acquisition time	60.00reverse acquisition time	0.00gamma	496.2192k internal	0.2334k external	0.2334temperature offset calibration	1.0136default loss term (dB/km)	0.3790temperature slope calibration	1.0000multiplexer offset coefficient	1.0000multiplexer slope coefficient	1.0000fibre end	0.00T internal ref (°C)	27.52T ext. ref 1 (°C)	3.94T ext. ref 2 (°C)	22.30length (m)	temperature (°C)	Stokes	anti-Stokes-747.200	-15.803	-0.219	0.140
-746.185	-157.536	-0.229	0.014
-745.171	195.402	-0.189	-0.288
-744.156	-61.295	0.118	0.050
-743.142	-100.976	0.160	0.039
-742.127	-162.277	-0.290	-0.015
-741.112	-18.429	0.317	-0.199
-740.098	287.069	0.129	0.235
-739.083	4.672	0.163	-0.121
-738.069	-169.409	-0.576	-0.021
-737.054	-49.895	0.120	-0.057
-736.039	-53.601	-0.177	0.081
-735.025	4.081	0.292	0.215
-734.010	110.706	-0.139	-0.168
-732.996	377.672	0.046	0.095
-731.981	192.998	0.128	0.195
-730.966	-166.374	-0.015	-0.001
-729.952	-200.000	-0.021	-0.252
-728.937	-91.444	0.217	-0.062
-727.923	170.704	0.090	0.130
-726.908	-0.961	-0.145	0.103
-725.894	-33.892	-0.265	0.147
-724.879	-200.000	-0.024	0.182
-723.864	567.977	0.059	0.143
-722.850	8.963	0.046	0.035
-721.835	326.109	0.075	-0.145
-720.821	-176.487	0.150	-0.004
-719.806	800.000	-0.046	0.166
-718.791	789.767	0.078	0.214
-717.777	-76.420	-0.277	-0.098
-716.762	-43.927	0.231	0.117
-715.748	98.176	-0.192	0.222
-714.733	518.026	-0.046	0.108
-713.718	184.086	-0.082	0.122
-712.704	-143.751	0.257	0.024
-711.689	29.604	-0.096	-0.082
-710.675	56.503	-0.089	0.087
-709.660	800.000	-0.034	0.148
-708.645	-180.840	0.165	0.003
-707.631	-0.279	-0.387	0.276
-706.616	-200.000	-0.015	-0.095
-705.602	292.286	0.129	-0.236
-704.587	-159.306	0.123	0.007
-703.572	-109.533	0.102	-0.022
-702.558	-200.000	0.002	0.113
-701.543	-167.028	-0.315	-0.013
-700.529	-17.619	0.223	-0.141
-699.514	304.895	0.110	-0.205
-698.499	68.196	-0.177	0.182
-697.485	-23.444	0.348	-0.210
-696.470	161.121	0.090	-0.126
-695.456	-200.000	0.043	-0.349
-694.441	-103.878	-0.076	0.018
-693.426	-12.243	0.227	-0.149
-692.412	18.339	0.073	-0.058
-691.397	173.292	-0.275	-0.398
-690.383	405.000	0.156	-0.330
-689.368	-123.587	-0.365	0.058
-688.354	248.287	-0.164	-0.279
-687.339	-74.089	-0.182	0.066
-686.324	-14.903	0.196	-0.126
-685.310	117.460	-0.144	0.178
-684.295	28.253	0.093	0.079
-683.281	55.612	-0.128	-0.124
-682.266	-200.000	0.014	0.086
-681.251	-12.437	0.102	0.067
-680.237	-70.242	-0.289	-0.110
-679.222	-97.702	-0.223	-0.058
-678.208	85.058	0.166	-0.183
-677.193	141.800	0.150	-0.200
-676.178	-50.986	0.296	-0.139
-675.164	800.000	0.062	-0.229
-674.149	-200.000	0.019	0.113
-673.135	-91.153	-0.140	0.040
-672.120	87.774	0.124	-0.138
-671.105	-200.000	-0.015	0.220
-670.091	261.441	-0.164	0.285
-669.076	43.383	0.276	-0.253
-668.062	-200.000	0.013	-0.236
-667.047	-200.000	-0.031	-0.346
-666.032	179.573	-0.207	-0.304
-665.018	-21.005	-0.150	0.092
-664.003	-134.834	0.290	0.035
-662.989	-200.000	-0.019	-0.105
-661.974	175.611	0.177	-0.257
-660.959	-71.050	0.057	0.021
-659.945	-124.670	-0.114	0.018
-658.930	800.000	-0.091	-0.364
-657.916	37.714	-0.344	-0.306
-656.901	39.610	0.098	-0.088
-655.886	-168.139	-0.239	0.009
-654.872	-200.000	0.072	0.347
-653.857	-75.202	-0.045	0.016
-652.843	234.058	0.160	-0.264
-651.828	146.182	0.136	-0.182
-650.814	195.725	-0.034	0.052
-649.799	-200.000	0.023	0.195
-648.784	430.408	-0.187	0.406
-647.770	-200.000	-0.106	0.475
-646.755	-79.042	0.181	-0.062
-645.741	-100.446	-0.213	-0.053
-644.726	229.132	-0.169	0.275
-643.711	-154.657	-0.192	-0.013
-642.697	-174.303	-0.235	-0.007
-641.682	11.323	0.167	0.128
-640.668	-107.676	-0.220	0.048
-639.653	121.401	-0.128	0.159
-638.638	482.790	-0.102	-0.231
-637.624	132.178	-0.157	0.203
-636.609	256.483	0.087	-0.150
-635.595	-200.000	-0.019	-0.109
-634.580	230.957	-0.186	-0.304
-633.565	-146.182	-0.161	0.014
-632.551	-104.974	-0.411	0.094
-631.536	-200.000	-0.023	-0.277
-630.522	-200.000	0.020	0.158
-629.507	-10.319	0.350	-0.233
-628.492	-200.000	0.012	-0.109
-627.478	-130.040	0.220	0.030
-626.463	-168.898	0.209	0.008
-625.449	-101.599	0.208	0.051
-624.434	800.000	0.036	-0.119
-623.419	-109.842	0.418	-0.088
-622.405	-200.000	-0.004	0.120
-621.390	-200.000	-0.027	-0.195
-620.376	343.954	-0.052	0.103
-619.361	-123.139	0.149	0.024
-618.346	51.099	-0.106	0.101
-617.332	98.115	-0.175	0.201
-616.317	33.319	0.161	0.140
-615.303	137.843	-0.047	0.061
-614.288	19.164	-0.191	0.153
-613.273	-130.160	-0.075	0.010
-612.259	-132.928	0.195	0.025
-611.244	800.000	0.085	-0.245
-610.230	800.000	0.112	-0.344
-609.215	-79.767	-0.270	0.091
-608.201	301.684	0.086	-0.159
-607.186	-200.000	0.053	-0.371
-606.171	475.020	-0.108	-0.244
-605.157	46.309	-0.113	-0.104
-604.142	32.499	0.233	0.201
-603.128	800.000	-0.065	0.280
-602.113	72.016	0.214	0.222
-601.098	-90.210	-0.328	0.095
-600.084	-200.000	-0.064	-0.301
-599.069	441.924	-0.048	-0.104
-598.055	-65.790	-0.346	-0.138
-597.040	-200.000	-0.022	0.272
-596.025	800.000	-0.143	-0.543
-595.011	81.466	0.033	0.035
-593.996	-200.000	0.064	0.327
-592.982	-91.208	-0.150	-0.043
-591.967	-18.338	0.395	0.247
-590.952	-27.819	0.213	-0.123
-589.938	24.448	-0.174	-0.144
-588.923	69.117	0.048	0.049
-587.909	605.281	0.180	0.447
-586.894	-200.000	-0.052	0.320
-585.879	-200.000	0.005	-0.325
-584.865	-32.461	-0.070	-0.039
-583.850	156.135	0.144	-0.199
-582.836	156.712	0.208	-0.287
-581.821	248.857	-0.071	-0.121
-580.806	-31.838	0.093	-0.052
-579.792	25.023	0.287	-0.238
-578.777	-20.567	0.185	-0.114
-577.763	-125.079	-0.385	0.059
-576.748	-24.293	-0.059	-0.035
-575.733	-200.000	0.034	-0.203
-574.719	-16.025	0.131	0.083
-573.704	80.360	-0.185	0.198
-572.690	-41.889	-0.275	-0.141
-571.675	-35.107	0.269	-0.147
-570.661	65.929	0.231	-0.234
-569.646	236.494	-0.068	-0.113
-568.631	-113.792	-0.144	-0.028
-567.617	-100.909	-0.187	-0.046
-566.602	-181.346	-0.440	-0.009
-565.588	-103.641	0.276	0.065
-564.573	124.073	-0.209	-0.262
-563.558	103.739	-0.208	-0.244
-562.544	405.790	-0.189	-0.397
-561.529	-63.195	-0.382	-0.157
-560.515	-200.000	0.013	0.189
-559.500	-157.645	-0.286	0.017
-558.485	374.551	0.091	0.184
-557.471	-82.820	-0.321	0.103
-556.456	-162.917	0.044	-0.002
-555.442	-165.018	0.277	-0.012
-554.427	348.649	-0.057	0.113
-553.412	117.264	0.168	0.206
-552.398	-48.430	-0.301	0.145
-551.383	-50.698	0.235	0.110
-550.369	-90.948	0.259	0.074
-549.354	310.980	-0.150	-0.281
-548.339	-200.000	0.009	-0.335
-547.325	-119.963	0.139	0.024
-546.310	-178.561	-0.221	-0.005
-545.296	800.000	0.087	0.331
-544.281	-9.886	-0.112	-0.074
-543.266	-165.452	-0.286	-0.012
-542.252	-200.000	-0.026	0.161
-541.237	379.747	-0.083	0.170
-540.223	800.000	0.055	-0.239
-539.208	188.578	0.092	-0.137
-538.193	6.598	-0.257	0.191
-537.179	-100.817	0.186	-0.046
-536.164	800.000	0.018	0.051
-535.150	599.844	-0.090	0.222
-534.135	-70.525	0.163	-0.061
-533.121	-78.159	0.103	0.035
-532.106	-158.728	0.402	0.023
-531.091	-180.431	0.165	-0.003
-530.077	391.835	-0.179	0.372
-529.062	-99.681	0.162	-0.040
-528.048	-155.070	-0.433	0.028
-527.033	51.935	-0.191	0.182
-526.018	-31.552	0.294	0.164
-525.004	3.273	-0.127	0.092
-523.989	70.203	-0.228	0.234
-522.975	800.000	-0.059	0.223
-521.960	379.554	0.191	-0.391
-520.945	224.636	-0.182	0.293
-519.931	-200.000	-0.001	-0.081
-518.916	71.361	0.117	-0.121
-517.902	800.000	0.054	0.170
-516.887	34.985	0.310	-0.270
-515.872	-4.023	0.318	-0.220
-514.858	35.988	0.098	-0.086
-513.843	66.326	-0.096	0.097
-512.829	800.000	0.089	0.246
-511.814	-41.309	0.114	0.058
-510.799	-136.224	0.158	0.018
-509.785	-20.149	0.151	-0.093
-508.770	-57.584	0.056	-0.025
-507.756	-200.000	-0.023	0.139
-506.741	-200.000	0.045	0.460
-505.726	89.469	-0.020	0.022
-504.712	90.698	-0.258	-0.288
-503.697	37.593	-0.163	-0.144
-502.683	-23.949	-0.085	-0.050
-501.668	272.383	0.173	-0.304
-500.653	-53.974	-0.176	0.080
-499.639	-200.000	-0.039	-0.228
-498.624	743.182	0.148	-0.395
-497.610	-200.000	-0.002	-0.140
-496.595	-89.767	-0.042	0.012
-495.581	800.000	0.060	0.234
-494.566	-28.292	0.231	-0.133
-493.551	586.292	0.118	-0.289
-492.537	-126.073	0.152	0.023
-491.522	-55.813	-0.116	0.052
-490.508	-90.989	-0.363	0.104
-489.493	191.928	-0.132	0.198
-488.478	108.957	-0.050	0.060
-487.464	297.670	-0.123	0.224
-486.449	184.827	-0.128	-0.189
-485.435	-200.000	-0.026	0.149
-484.420	-70.863	0.162	-0.061
-483.405	70.173	0.085	0.087
-482.391	192.324	0.033	0.049
-481.376	380.995	0.015	-0.031
-480.362	295.683	0.105	0.192
-479.347	800.000	-0.031	-0.124
-478.332	486.033	0.144	-0.327
-477.318	-145.761	0.134	-0.012
-476.303	-70.889	-0.155	0.058
-475.289	399.497	-0.064	-0.134
-474.274	340.450	0.064	0.124
-473.259	-6.159	-0.168	0.114
-472.245	176.100	0.063	-0.091
-471.230	82.697	0.168	-0.182
-470.216	313.437	0.106	0.199
-469.201	-200.000	0.027	0.236
-468.186	-97.283	0.195	0.051
-467.172	-133.142	-0.244	-0.031
-466.157	-88.494	0.135	-0.040
-465.143	-42.222	-0.289	0.147
-464.128	-200.000	-0.017	-0.118
-463.113	800.000	0.097	0.328
-462.099	148.794	-0.017	-0.023
-461.084	-200.000	-0.069	-0.345
-460.070	501.573	0.073	0.168
-459.055	178.884	0.161	-0.235
-458.040	-200.000	-0.035	-0.232
-457.026	-152.689	-0.253	0.018
-456.011	-31.143	-0.171	-0.096
-454.997	-18.460	0.165	0.102
-453.982	85.732	0.242	0.264
-452.968	-48.144	0.076	0.036
-451.953	724.250	0.091	-0.240
-450.938	398.925	-0.075	0.156
-449.924	-93.381	-0.190	-0.052
-448.909	-200.000	-0.002	-0.174
-447.895	9.113	-0.280	0.210
-446.880	-200.000	0.035	-0.314
-445.865	-53.434	-0.131	0.060
-444.851	-200.000	-0.008	0.181
-443.836	204.347	0.158	-0.243
-442.822	-102.011	-0.185	-0.044
-441.807	-109.743	-0.134	0.028
-440.792	800.000	-0.028	-0.082
-439.778	-166.246	-0.216	0.009
-438.763	82.094	0.170	0.183
-437.749	-112.371	-0.207	-0.041
-436.734	-81.271	0.087	0.029
-435.719	-200.000	-0.002	-0.050
-434.705	-68.409	-0.426	-0.164
-433.690	80.113	-0.092	0.098
-432.676	-200.000	0.044	-0.352
-431.661	270.555	0.152	-0.265
-430.646	-138.263	-0.135	-0.015
-429.632	-100.190	-0.142	-0.035
-428.617	260.311	0.073	0.126
-427.603	54.306	0.135	-0.129
-426.588	-66.631	0.062	0.024
-425.573	-3.884	0.122	0.084
-424.559	78.998	0.249	-0.264
-423.544	800.000	0.006	-0.023
-422.530	-132.854	-0.348	-0.044
-421.515	-102.448	0.318	-0.076
-420.500	-2.867	0.100	0.069
-419.486	-1.308	-0.137	0.096
-418.471	800.000	0.091	0.271
-417.457	105.113	-0.108	-0.126
-416.442	458.306	0.054	0.120
-415.428	-57.583	-0.197	0.086
-414.413	207.614	-0.156	0.241
-413.398	-173.682	-0.085	0.003
-412.384	-16.832	0.152	-0.095
-411.369	234.156	-0.082	-0.134
-410.355	217.080	0.069	-0.110
-409.340	-200.000	-0.007	-0.075
-408.325	103.136	-0.115	0.133
-407.311	-200.000	0.045	0.227
-406.296	35.986	0.112	0.098
-405.282	177.285	0.242	0.349
-404.267	800.000	0.141	0.404
-403.252	77.464	-0.140	0.147
-402.238	-1.281	0.211	-0.148
-401.223	-109.330	-0.380	-0.080
-400.209	-200.000	-0.037	0.239
-399.194	111.583	-0.186	-0.222
-398.179	-47.760	-0.167	0.080
-397.165	-200.000	0.005	0.153
-396.150	-106.743	0.023	0.005
-395.136	-200.000	0.013	-0.259
-394.121	30.850	-0.094	0.080
-393.106	-200.000	-0.001	0.033
-392.092	25.519	-0.101	-0.084
-391.077	-200.000	0.027	-0.312
-390.063	20.133	-0.142	-0.114
-389.048	-110.412	0.232	-0.048
-388.033	-144.261	-0.172	-0.016
-387.019	-165.910	0.105	-0.004
-386.004	29.103	-0.182	0.153
-384.990	-139.579	0.386	-0.041
-383.975	-130.939	-0.119	0.016
-382.960	8.983	-0.082	0.061
-381.946	-200.000	-0.013	0.491
-380.931	-148.468	-0.101	-0.008
-379.917	29.384	-0.211	0.177
-378.902	240.538	-0.108	-0.179
-377.888	800.000	-0.080	0.227
-376.873	277.857	0.161	0.284
-375.858	-200.000	-0.033	0.183
-374.844	-154.370	-0.481	-0.032
-373.829	-70.749	0.417	-0.156
-372.815	197.172	0.096	0.145
-371.800	-105.758	0.187	0.042
-370.785	-76.874	-0.171	0.059
-369.771	-53.308	-0.240	-0.109
-368.756	-98.251	0.372	-0.094
-367.742	-77.563	0.110	0.038
-366.727	-200.000	-0.056	0.323
-365.712	138.774	-0.078	0.101
-364.698	-200.000	-0.003	-0.299
-363.683	148.336	0.029	0.039
-362.669	-200.000	0.005	0.079
-361.654	-200.000	-0.026	0.343
-360.639	-4.075	-0.313	0.215
-359.625	90.618	0.080	0.089
-358.610	-171.807	-0.064	0.002
-357.596	-57.533	0.082	-0.035
-356.581	53.309	-0.127	0.120
-355.566	-29.440	0.208	0.118
-354.552	360.971	-0.077	-0.153
-353.537	-56.860	0.197	0.086
-352.523	-75.658	0.377	0.132
-351.508	-39.772	0.258	0.134
-350.493	-123.866	-0.327	0.051
-349.479	-73.702	0.332	-0.120
-348.464	800.000	0.028	0.077
-347.450	-31.978	0.138	0.076
-346.435	180.236	0.167	-0.242
-345.420	132.053	-0.141	-0.180
-344.406	-115.782	0.163	0.030
-343.391	2.997	-0.050	0.036
-342.377	800.000	0.056	0.236
-341.362	-99.005	0.215	-0.054
-340.348	-37.707	0.276	-0.145
-339.333	-200.000	-0.014	-0.114
-338.318	94.867	0.147	0.166
-337.304	32.400	-0.138	0.118
-336.289	-165.260	0.262	-0.011
-335.275	468.128	0.078	0.174
-334.260	-101.409	-0.156	0.038
-333.245	-80.284	-0.345	-0.114
-332.231	-138.404	0.340	-0.037
-331.216	377.175	0.099	0.200
-330.202	-50.085	0.339	0.159
-329.187	-99.209	0.144	0.036
-328.172	-200.000	-0.012	-0.188
-327.158	59.942	0.047	0.045
-326.143	27.457	-0.109	0.091
-325.129	449.118	-0.215	-0.469
-324.114	-47.427	0.109	-0.052
-323.099	-200.000	0.002	-0.154
-322.085	59.959	-0.126	0.123
-321.070	-135.870	-0.028	0.003
-320.056	-200.000	-0.015	-0.234
-319.041	110.562	-0.138	-0.164
-318.026	800.000	-0.029	0.121
-317.012	-15.491	-0.183	0.115
-315.997	357.146	0.042	0.084
-314.983	-200.000	0.021	-0.242
-313.968	-57.174	-0.180	-0.078
-312.953	-60.361	-0.338	-0.142
-311.939	-200.000	0.003	0.041
-310.924	-75.718	0.387	-0.136
-309.910	-200.000	0.056	0.246
-308.895	-132.585	-0.294	-0.037
-307.880	9.854	-0.097	-0.073
-306.866	248.339	0.118	0.197
-305.851	-127.955	-0.467	-0.066
-304.837	0.511	-0.154	0.109
-303.822	-24.464	0.248	0.146
-302.807	197.063	-0.169	0.255
-301.793	85.599	0.040	-0.043
-300.778	128.808	-0.150	-0.189
-299.764	800.000	-0.138	0.389
-298.749	237.726	-0.134	-0.219
-297.735	-200.000	0.054	-0.427
-296.720	-127.354	0.202	-0.029
-295.705	-58.558	-0.245	0.105
-294.691	800.000	0.075	-0.319
-293.676	-1.087	0.155	0.109
-292.662	28.459	-0.094	0.078
-291.647	-200.000	0.008	0.120
-290.632	414.919	-0.144	-0.302
-289.618	800.000	0.051	-0.159
-288.603	-200.000	0.021	0.149
-287.589	-108.373	-0.363	-0.077
-286.574	-200.000	0.000	-0.069
-285.559	528.968	0.034	0.078
-284.545	-29.319	-0.120	0.068
-283.530	81.812	-0.104	0.111
-282.516	365.388	0.132	0.262
-281.501	27.352	0.097	-0.080
-280.486	202.035	-0.126	-0.192
-279.472	17.151	0.123	-0.096
-278.457	-73.072	0.216	-0.078
-277.443	-97.050	0.276	0.071
-276.428	-16.230	0.195	-0.122
-275.413	-31.971	0.323	0.179
-274.399	-33.848	0.421	-0.229
-273.384	-200.000	-0.005	0.184
-272.370	-103.760	0.204	-0.047
-271.355	221.254	-0.077	0.121
-270.340	800.000	0.030	-0.097
-269.326	-200.000	0.020	0.298
-268.311	245.088	-0.134	0.222
-267.297	-3.190	0.191	0.131
-266.282	-179.079	0.176	-0.004
-265.267	423.723	0.131	-0.278
-264.253	800.000	-0.117	-0.451
-263.238	-47.284	-0.275	-0.132
-262.224	-65.653	0.166	0.066
-261.209	-51.792	0.279	-0.128
-260.195	7.017	0.247	0.181
-259.180	800.000	0.067	-0.261
-258.165	47.378	0.184	-0.169
-257.151	-49.481	0.233	0.109
-256.136	15.916	-0.059	-0.046
-255.122	-200.000	0.053	-0.271
-254.107	155.033	0.145	0.196
-253.092	262.958	0.106	-0.181
-252.078	800.000	0.042	-0.115
-251.063	107.388	-0.138	0.161
-250.049	-179.072	0.264	-0.006
-249.034	84.465	-0.082	0.088
-248.019	-185.376	-0.209	-0.003
-247.005	65.864	-0.194	-0.194
-245.990	-113.842	-0.291	0.056
-244.976	138.928	-0.080	0.104
-243.961	5.357	0.325	0.236
-242.946	237.663	0.049	-0.081
-241.932	-200.000	0.022	-0.176
-240.917	-128.876	0.212	0.029
-239.903	178.452	-0.101	0.145
-238.888	430.380	0.058	0.123
-237.873	-137.591	-0.063	-0.007
-236.859	-9.245	0.211	-0.139
-235.844	324.280	-0.087	-0.164
-234.830	135.077	0.215	0.275
-233.815	-157.575	0.117	0.007
-232.800	-87.047	-0.188	0.057
-231.786	-130.869	0.368	-0.049
-230.771	-143.769	0.228	0.021
-229.757	-66.613	-0.313	-0.122
-228.742	-123.719	0.256	-0.040
-227.727	-26.573	0.128	0.074
-226.713	-0.907	-0.141	-0.098
-225.698	-81.744	0.148	-0.048
-224.684	-93.055	-0.172	-0.047
-223.669	238.357	0.069	-0.112
-222.655	800.000	0.081	-0.322
-221.640	-17.458	0.185	0.115
-220.625	-200.000	-0.042	-0.288
-219.611	746.757	-0.104	-0.277
-218.596	-164.331	0.237	-0.011
-217.582	-56.943	0.157	-0.068
-216.567	-140.430	-0.332	-0.034
-215.552	356.364	0.179	-0.350
-214.538	109.226	-0.353	0.416
-213.523	-87.855	-0.081	0.024
-212.509	-200.000	0.018	0.163
-211.494	193.075	-0.064	-0.095
-210.479	-153.577	-0.083	-0.006
-209.465	118.317	-0.146	0.177
-208.450	-128.332	0.450	-0.063
-207.436	-200.000	0.022	0.155
-206.421	527.968	-0.052	-0.121
-205.406	-200.000	0.035	0.477
-204.392	-200.000	0.023	-0.127
-203.377	324.321	0.118	0.222
-202.363	-145.607	-0.340	0.030
-201.348	800.000	-0.030	0.090
-200.333	800.000	-0.060	-0.192
-199.319	-34.796	-0.184	0.099
-198.304	-170.026	0.220	-0.008
-197.290	-200.000	0.034	-0.289
-196.275	19.482	0.233	0.184
-195.260	-139.599	0.097	-0.010
-194.246	-134.561	-0.162	-0.019
-193.231	800.000	0.066	-0.210
-192.217	14.650	-0.157	0.121
-191.202	-144.016	-0.471	0.044
-190.187	-145.097	0.148	0.013
-189.173	-114.850	-0.405	-0.076
-188.158	-21.581	0.027	-0.016
-187.144	-186.023	-0.269	-0.004
-186.129	-200.000	0.003	0.317
-185.114	-200.000	0.008	-0.081
-184.100	3.353	-0.155	-0.111
-183.085	-200.000	-0.033	-0.294
-182.071	-55.062	-0.052	-0.023
-181.056	-36.244	0.371	0.197
-180.042	-200.000	0.041	-0.503
-179.027	168.211	0.087	-0.121
-178.012	276.060	-0.122	-0.213
-176.998	-200.000	-0.015	-0.235
-175.983	800.000	0.066	0.188
-174.969	306.191	-0.040	-0.074
-173.954	-200.000	-0.031	-0.297
-172.939	-157.466	0.404	0.024
-171.925	-129.901	0.072	-0.010
-170.910	155.192	-0.201	0.271
-169.896	410.322	0.094	0.195
-168.881	800.000	0.024	0.067
-167.866	-164.409	-0.423	-0.019
-166.852	-200.000	-0.023	0.152
-165.837	40.721	0.228	0.202
-164.823	-200.000	0.043	-0.208
-163.808	41.844	-0.117	-0.104
-162.793	91.185	-0.016	-0.018
-161.779	-78.752	-0.338	-0.113
-160.764	76.244	-0.213	0.221
-159.750	159.205	0.191	0.261
-158.735	-26.943	-0.038	0.022
-157.720	223.117	0.105	0.167
-156.706	-56.501	0.368	-0.160
-155.691	-100.248	-0.322	0.079
-154.677	-200.000	-0.045	0.250
-153.662	-200.000	-0.000	0.059
-152.647	-42.663	0.145	-0.073
-151.633	-98.990	0.090	0.022
-150.618	-75.896	0.066	0.023
-149.604	-200.000	-0.011	-0.184
-148.589	-166.050	0.502	0.021
-147.574	800.000	0.049	-0.134
-146.560	-200.000	-0.020	-0.094
-145.545	70.126	0.139	-0.141
-144.531	148.159	0.127	0.168
-143.516	23.404	0.209	0.169
-142.502	53.810	-0.277	0.261
-141.487	272.107	0.197	0.340
-140.472	-60.973	-0.368	0.153
-139.458	151.738	0.105	-0.140
-138.443	-68.015	0.141	-0.054
-137.429	-200.000	-0.002	-0.108
-136.414	-66.566	0.171	0.067
-135.399	27.727	0.181	-0.149
-134.385	529.145	-0.122	0.283
-133.370	77.840	0.148	-0.155
-132.356	390.295	-0.073	-0.148
-131.341	14.647	-0.236	0.181
-130.326	-119.655	-0.251	-0.043
-129.312	257.120	-0.054	-0.092
-128.297	-55.478	-0.408	0.179
-127.283	46.381	-0.093	0.085
-126.268	-130.367	-0.086	-0.011
-125.253	-116.019	-0.151	0.028
-124.239	437.359	-0.048	-0.102
-123.224	-100.482	-0.169	0.041
-122.210	49.813	0.244	-0.225
-121.195	800.000	-0.086	0.241
-120.180	70.825	-0.174	-0.176
-119.166	-88.182	-0.040	-0.012
-118.151	-200.000	-0.043	0.306
-117.137	-171.263	0.337	-0.011
-116.122	-90.924	0.236	0.067
-115.107	-200.000	-0.031	0.413
-114.093	800.000	-0.062	-0.200
-113.078	656.367	0.062	-0.157
-112.064	-200.000	0.088	0.442
-111.049	-45.663	0.035	-0.017
-110.034	-47.442	-0.212	-0.101
-109.020	800.000	-0.036	-0.141
-108.005	142.439	-0.081	0.105
-106.991	-47.045	0.177	0.085
-105.976	-150.701	0.140	0.010
-104.962	-72.816	0.378	-0.136
-103.947	-148.494	-0.550	-0.044
-102.932	188.201	0.187	-0.275
-101.918	-1.067	-0.147	0.102
-100.903	248.767	0.020	-0.033
-99.889	64.118	0.569	0.562
-98.874	-55.802	0.140	-0.061
-97.859	-200.000	0.009	0.045
-96.845	800.000	0.049	-0.148
-95.830	800.000	-0.035	-0.103
-94.816	20.604	0.015	0.012
-93.801	-200.000	0.008	-0.078
-92.786	-200.000	0.003	-0.218
-91.772	195.053	0.022	0.032
-90.757	-43.109	-0.103	-0.051
-89.743	-95.370	0.174	0.046
-88.728	-154.505	-0.290	0.019
-87.713	609.743	0.091	0.224
-86.699	800.000	0.055	0.191
-85.684	-96.918	0.365	-0.094
-84.670	-200.000	-0.076	0.550
-83.655	-200.000	-0.056	-0.342
-82.640	712.775	-0.089	0.230
-81.626	-200.000	-0.011	0.071
-80.611	662.285	0.073	0.184
-79.597	-112.067	-0.210	-0.041
-78.582	-163.528	0.189	0.009
-77.567	49.291	-0.041	-0.037
-76.553	205.319	0.051	-0.078
-75.538	-95.422	0.372	-0.098
-74.524	-107.594	-0.239	0.051
-73.509	-24.912	0.244	-0.142
-72.494	-14.528	0.118	0.074
-71.480	-53.661	0.182	0.082
-70.465	-34.547	0.351	-0.188
-69.451	800.000	-0.021	-0.066
-68.436	101.012	-0.085	0.096
-67.422	-47.564	0.405	-0.192
-66.407	-200.000	-0.030	-0.145
-65.392	-76.195	-0.290	-0.100
-64.378	-200.000	0.006	0.376
-63.363	-200.000	-0.004	-0.025
-62.349	-25.962	0.205	0.118
-61.334	81.626	-1.075	-1.139
-60.319	-200.000	0.112	0.684
-59.305	234.055	-0.647	-1.042
-58.290	304.465	0.567	1.029
-57.276	519.729	0.655	1.501
-56.261	-200.000	113.831	650.248
-55.246	538.014	1522.822	3540.952
-54.232	179.119	2687.450	3845.655
-53.217	108.348	2171.353	2534.827
-52.203	38.068	1697.690	1477.386
-51.188	30.630	1516.806	1269.387
-50.173	28.372	1492.707	1233.983
-49.159	52.138	1551.332	1446.241
-48.144	50.743	1567.067	1451.282
-47.130	30.911	1522.424	1275.810
-46.115	27.806	1507.818	1242.422
-45.100	27.543	1504.811	1238.109
-44.086	27.560	1502.805	1236.523
-43.071	27.518	1500.621	1234.395
-42.057	27.478	1499.603	1233.234
-41.042	27.549	1497.668	1232.074
-40.027	27.486	1496.479	1230.623
-39.013	27.446	1494.401	1228.595
-37.998	27.423	1493.376	1227.554
-36.984	27.508	1492.598	1227.438
-35.969	27.483	1490.822	1225.760
-34.954	27.602	1489.290	1225.246
-33.940	27.491	1488.324	1223.660
-32.925	27.516	1486.786	1222.512
-31.911	27.550	1485.325	1221.492
-30.896	27.451	1484.336	1219.967
-29.881	27.524	1482.734	1219.091
-28.867	27.592	1481.735	1218.679
-27.852	27.588	1480.400	1217.500
-26.838	27.517	1479.124	1215.935
-25.823	27.589	1477.736	1215.220
-24.809	27.517	1475.947	1213.224
-23.794	27.610	1474.550	1212.644
-22.779	27.525	1473.708	1211.342
-21.765	27.523	1472.525	1210.308
-20.750	27.567	1471.513	1209.716
-19.736	27.567	1470.248	1208.630
-18.721	27.521	1468.815	1207.102
-17.706	27.525	1468.007	1206.414
-16.692	27.529	1466.975	1205.548
-15.677	27.486	1466.230	1204.602
-14.663	27.434	1465.358	1203.491
-13.648	27.471	1464.293	1202.813
-12.633	27.469	1463.765	1202.318
-11.619	27.552	1462.887	1202.102
-10.604	27.580	1461.948	1201.461
-9.590	27.559	1460.495	1200.085
-8.575	27.493	1460.076	1199.258
-7.560	27.542	1459.396	1198.973
-6.546	27.494	1458.585	1197.944
-5.531	27.524	1457.373	1197.097
-4.517	27.551	1456.332	1196.370
-3.502	27.585	1455.564	1195.915
-2.487	27.541	1454.267	1194.518
-1.473	27.457	1453.372	1193.181
-0.458	27.522	1451.696	1192.185
0.556	29.137	1442.519	1180.893
1.571	26.182	1417.629	1141.763
2.586	22.810	1360.028	1074.781
3.600	21.035	1279.348	1000.759
4.615	19.811	1232.954	957.609
5.629	17.248	1177.028	900.528
6.644	10.371	1094.044	802.984
7.659	4.812	1057.041	749.073
8.673	4.197	1051.520	742.150
9.688	3.961	1048.287	738.676
10.702	3.770	1046.633	736.535
11.717	3.853	1044.653	735.473
12.731	6.457	1046.304	748.959
13.746	13.872	1057.386	792.333
14.761	20.658	1065.876	831.160
15.775	22.770	1067.946	842.797
16.790	22.438	1066.519	840.013
17.804	21.494	1064.416	833.784
18.819	20.747	1062.640	828.767
19.834	20.454	1061.482	826.394
20.848	20.359	1061.125	825.595
21.863	20.375	1060.877	825.401
22.877	20.300	1060.074	824.348
23.892	20.232	1058.698	822.882
24.907	19.999	1058.609	821.638
25.921	19.908	1057.855	820.548
26.936	19.807	1056.833	819.205
27.950	19.994	1055.362	818.876
28.965	19.849	1054.612	817.538
29.980	19.720	1053.877	816.285
30.994	20.081	1052.585	816.913
32.009	20.168	1051.883	816.708
33.023	20.298	1051.197	816.712
34.038	20.390	1050.256	816.341
35.053	20.245	1049.197	814.768
36.067	20.071	1048.201	813.106
37.082	19.953	1047.060	811.594
38.096	20.003	1046.546	811.359
39.111	20.043	1045.994	811.044
40.126	20.305	1044.914	811.359
41.140	20.009	1043.807	809.048
42.155	19.805	1042.040	806.653
43.169	19.431	1041.049	804.073
44.184	19.340	1040.467	803.128
45.199	19.427	1039.243	802.517
46.213	19.313	1038.701	801.498
47.228	19.680	1037.165	801.944
48.242	20.083	1036.658	803.353
49.257	20.019	1036.286	802.694
50.271	19.982	1035.773	802.055
51.286	19.961	1034.595	800.974
52.301	20.109	1033.766	800.945
53.315	20.059	1033.214	800.218
54.330	19.939	1032.158	798.775
55.344	19.835	1031.310	797.569
56.359	19.719	1030.005	795.954
57.374	19.677	1029.624	795.398
58.388	19.659	1028.628	794.476
59.403	19.474	1027.686	792.825
60.417	19.428	1027.099	792.091
61.432	19.428	1026.327	791.428
62.447	19.461	1025.424	790.810
63.461	19.395	1024.661	789.852
64.476	19.326	1023.873	788.861
65.490	19.366	1022.742	788.099
66.505	19.208	1022.228	786.911
67.520	19.313	1021.288	786.597
68.534	19.413	1020.548	786.413
69.549	19.268	1019.685	785.018
70.563	19.107	1019.326	783.942
71.578	19.064	1018.322	782.902
72.593	19.024	1017.056	781.677
73.607	18.904	1016.035	780.281
74.622	18.839	1015.193	779.271
75.636	19.025	1014.279	779.341
76.651	19.005	1013.728	778.759
77.666	19.066	1012.915	778.340
78.680	19.110	1012.185	777.910
79.695	19.104	1011.907	777.599
80.709	19.237	1010.808	777.288
81.724	19.309	1010.636	777.410
82.739	19.468	1010.123	777.665
83.753	19.673	1008.870	777.553
84.768	19.765	1008.783	777.833
85.782	20.156	1008.216	779.081
86.797	20.434	1008.242	780.285
87.812	20.568	1006.989	779.845
88.826	20.254	1005.970	777.580
89.841	20.152	1005.315	776.549
90.855	20.274	1004.578	776.457
91.870	20.197	1004.142	775.705
92.884	20.468	1003.125	776.061
93.899	20.285	1002.466	774.667
94.914	20.331	1001.039	773.702
95.928	20.450	1000.623	773.841
96.943	20.525	999.563	773.288
97.957	20.382	998.523	771.777
98.972	20.202	997.759	770.319
99.987	20.163	997.388	769.791
101.001	20.272	996.688	769.666
102.016	20.301	995.832	769.065
103.030	20.100	994.967	767.440
104.045	20.210	993.997	767.110
105.060	20.335	992.682	766.581
106.074	20.144	991.734	764.940
107.089	19.923	990.459	762.914
108.103	19.549	989.496	760.459
109.118	19.389	988.119	758.627
110.133	19.382	987.257	757.869
111.147	19.143	986.692	756.318
112.162	19.192	985.276	755.381
113.176	19.348	984.437	755.353
114.191	19.293	984.576	755.153
115.206	19.560	983.497	755.427
116.220	19.495	982.826	754.561
117.235	19.291	982.313	753.207
118.249	19.389	980.927	752.505
119.264	19.300	980.274	751.550
120.279	19.194	979.320	750.291
121.293	19.259	978.368	749.777
122.308	19.145	977.516	748.564
123.322	18.960	976.960	747.268
124.337	18.887	975.485	745.758
125.352	18.900	973.940	744.566
126.366	18.827	973.204	743.623
127.381	18.985	972.385	743.614
128.395	18.963	971.595	742.849
129.410	19.052	970.506	742.335
130.424	18.975	970.116	741.638
131.439	19.076	969.020	741.170
132.454	19.372	968.141	741.706
133.468	19.501	967.601	741.779
134.483	19.327	967.221	740.677
135.497	19.538	966.549	740.999
136.512	19.471	965.781	740.061
137.527	19.415	964.983	739.143
138.541	19.453	964.196	738.638
139.556	19.516	963.607	738.391
140.570	19.526	963.191	738.048
141.585	19.687	962.765	738.344
142.600	19.938	962.193	738.912
143.614	19.969	961.529	738.470
144.629	20.244	960.491	738.779
145.643	20.293	960.143	738.652
146.658	20.229	958.903	737.360
147.673	20.022	957.942	735.679
148.687	19.787	956.583	733.574
149.702	19.541	955.748	731.826
150.716	19.519	954.827	730.962
151.731	19.449	953.878	729.875
152.746	19.508	953.338	729.647
153.760	19.569	952.502	729.199
154.775	19.606	952.021	728.923
155.789	19.766	951.091	728.819
156.804	19.827	950.152	728.296
157.819	19.842	949.694	727.944
158.833	19.922	948.644	727.408
159.848	20.020	948.813	727.887
160.862	20.270	948.112	728.333
161.877	20.195	947.065	727.150
162.892	19.816	945.612	724.384
163.906	19.594	944.576	722.598
164.921	19.489	943.714	721.433
165.935	19.467	942.735	720.528
166.950	19.567	942.213	720.484
167.964	19.692	941.260	720.213
168.979	19.646	940.625	719.472
169.994	19.646	938.998	718.162
171.008	19.661	937.743	717.204
172.023	19.727	937.244	717.034
173.037	19.959	936.646	717.474
174.052	20.063	936.661	717.852
175.067	20.017	935.795	716.933
176.081	19.755	934.398	714.718
177.096	19.441	933.347	712.554
178.110	19.421	932.763	711.963
179.125	19.437	932.112	711.470
180.140	19.453	931.248	710.811
181.154	19.527	930.841	710.742
182.169	19.799	930.449	711.501
183.183	20.053	929.962	712.109
184.198	20.096	929.308	711.722
185.213	19.991	928.439	710.560
186.227	20.185	927.825	710.824
187.242	20.147	927.334	710.230
188.256	20.195	926.667	709.854
189.271	20.339	925.983	709.853
190.286	20.373	925.506	709.565
191.300	20.177	923.927	707.490
192.315	19.458	923.156	703.905
193.329	19.182	922.251	702.031
194.344	19.260	921.505	701.719
195.359	19.553	920.906	702.391
196.373	19.663	920.831	702.719
197.388	19.799	920.508	702.965
198.402	19.943	920.253	703.292
199.417	20.206	919.918	704.042
200.432	20.376	919.684	704.488
201.446	20.713	918.958	705.238
202.461	20.786	918.755	705.315
203.475	20.766	918.587	705.041
204.490	20.635	917.838	703.874
205.504	20.426	916.024	701.576
206.519	20.146	915.317	699.845
207.534	20.088	914.969	699.281
208.548	20.010	914.068	698.214
209.563	19.924	913.505	697.379
210.577	20.103	912.495	697.264
211.592	20.126	912.161	697.043
212.607	20.382	911.940	697.839
213.621	20.537	911.620	698.157
214.636	20.544	910.787	697.483
215.650	20.348	909.974	696.015
216.665	20.531	909.453	696.286
217.680	20.559	908.756	695.803
218.694	20.669	908.665	696.114
219.709	20.724	908.451	696.105
220.723	20.689	907.032	694.820
221.738	20.568	906.331	693.736
222.753	20.498	906.015	693.154
223.767	20.470	905.504	692.592
224.782	20.449	904.904	691.989
225.796	20.737	903.949	692.342
226.811	20.664	903.345	691.528
227.826	20.864	902.582	691.677
228.840	20.506	901.776	689.576
229.855	20.197	901.211	687.859
230.869	20.455	900.389	688.193
231.884	20.241	900.092	687.058
232.899	20.202	899.163	686.134
233.913	20.180	898.230	685.274
234.928	20.027	897.510	684.061
235.942	20.068	896.681	683.531
236.957	19.993	895.858	682.547
237.972	19.922	895.534	681.959
238.986	20.105	894.808	682.066
240.001	19.975	894.382	681.167
241.015	20.062	893.361	680.672
242.030	20.054	892.664	680.050
243.045	20.160	892.359	680.175
244.059	20.304	891.926	680.347
245.074	20.343	891.264	679.937
246.088	20.568	890.205	679.947
247.103	20.736	890.155	680.505
248.117	20.607	889.907	679.753
249.132	20.968	889.479	680.777
250.147	21.187	889.333	681.456
251.161	21.403	889.094	682.058
252.176	21.733	888.019	682.456
253.190	21.623	887.868	681.851
254.205	21.531	887.223	680.940
255.220	21.554	886.863	680.693
256.234	21.720	885.736	680.413
257.249	21.454	885.362	679.030
258.263	21.625	884.456	678.941
259.278	21.539	883.804	678.045
260.293	21.412	883.530	677.282
261.307	21.481	882.928	677.030
262.322	21.570	882.747	677.176
263.336	21.702	882.287	677.272
264.351	21.718	880.862	676.179
265.366	21.722	880.494	675.855
266.380	21.544	880.135	674.833
267.395	21.692	879.062	674.520
268.409	21.512	878.465	673.310
269.424	21.406	877.547	672.138
270.439	21.415	876.973	671.675
271.453	21.300	876.050	670.468
272.468	21.118	875.479	669.272
273.482	21.133	874.444	668.479
274.497	21.107	874.171	668.113
275.512	21.190	873.461	667.827
276.526	21.199	872.566	667.116
277.541	21.092	872.345	666.481
278.555	21.233	871.376	666.221
279.570	21.597	870.800	667.108
280.585	21.773	870.502	667.492
281.599	21.768	870.455	667.376
282.614	21.458	869.901	665.714
283.628	21.311	868.446	663.984
284.643	21.123	868.316	663.110
285.657	21.248	867.561	662.948
286.672	21.258	867.129	662.599
287.687	21.334	866.705	662.505
288.701	21.351	865.835	661.847
289.716	21.306	865.827	661.610
290.730	21.379	864.832	661.067
291.745	21.457	864.250	660.857
292.760	21.360	863.377	659.765
293.774	21.449	863.367	660.035
294.789	21.824	862.856	661.001
295.803	21.839	861.971	660.322
296.818	21.595	861.076	658.659
297.833	21.436	860.658	657.685
298.847	21.370	859.772	656.699
299.862	21.323	859.449	656.217
300.876	21.335	858.761	655.682
301.891	21.462	858.297	655.743
302.906	21.820	857.730	656.594
303.920	21.851	857.436	656.426
304.935	22.055	856.649	656.531
305.949	22.171	856.335	656.663
306.964	22.003	855.785	655.556
307.979	21.944	854.610	654.378
308.993	21.904	854.250	653.895
310.008	21.801	854.057	653.307
311.022	22.067	853.397	653.735
312.037	21.984	852.956	653.029
313.052	21.759	851.920	651.342
314.066	21.615	851.096	650.121
315.081	21.379	850.425	648.677
316.095	21.352	849.826	648.061
317.110	21.376	849.290	647.682
318.125	21.428	848.774	647.423
319.139	21.380	847.962	646.571
320.154	21.258	847.730	645.886
321.168	21.405	847.287	646.035
322.183	21.263	846.942	645.190
323.197	21.563	846.021	645.537
324.212	21.652	845.822	645.658
325.227	21.577	845.225	644.868
326.241	21.503	844.547	644.021
327.256	21.465	843.666	643.151
328.270	21.546	843.401	643.189
329.285	21.562	842.832	642.760
330.300	21.362	842.680	641.851
331.314	21.317	841.869	641.011
332.329	21.349	841.434	640.742
333.343	21.673	840.663	641.285
334.358	21.861	840.400	641.715
335.373	21.880	839.859	641.316
336.387	21.932	839.293	641.015
337.402	21.912	838.860	640.554
338.416	22.064	838.223	640.565
339.431	22.109	837.668	640.248
340.446	22.389	837.452	641.046
341.460	22.382	837.113	640.707
342.475	22.517	836.316	640.529
343.489	22.500	835.980	640.154
344.504	22.671	835.456	640.317
345.519	22.664	835.171	640.016
346.533	22.768	834.521	639.839
347.548	22.749	833.926	639.257
348.562	22.440	833.294	637.597
349.577	22.109	832.416	635.674
350.592	22.043	831.486	634.665
351.606	21.947	830.834	633.768
352.621	21.929	830.092	633.079
353.635	21.988	830.217	633.330
354.650	21.973	829.850	632.940
355.665	21.918	829.835	632.675
356.679	22.085	829.149	632.699
357.694	22.180	828.406	632.417
358.708	22.154	828.124	632.052
359.723	22.082	827.267	631.083
360.738	22.183	826.858	631.079
361.752	22.149	826.464	630.601
362.767	22.182	826.106	630.390
363.781	22.343	826.062	630.878
364.796	22.594	825.708	631.451
365.810	22.824	824.905	631.602
366.825	22.961	824.649	631.841
367.840	22.903	824.581	631.527
368.854	22.831	824.037	630.797
369.869	22.747	823.376	629.936
370.883	22.613	822.689	628.876
371.898	22.602	821.970	628.230
372.913	22.804	821.033	628.178
373.927	22.844	821.052	628.279
374.942	22.859	819.961	627.443
375.956	22.706	819.393	626.410
376.971	22.873	818.920	626.584
377.986	22.802	819.080	626.400
379.000	23.051	818.354	626.671
380.015	23.113	817.546	626.219
381.029	23.100	817.010	625.704
382.044	22.946	816.862	624.992
383.059	23.093	816.063	624.845
384.073	22.977	815.401	623.873
385.088	23.136	814.872	623.975
386.102	22.630	814.314	621.706
387.117	22.497	813.451	620.523
388.132	22.550	812.259	619.747
389.146	22.410	812.433	619.332
390.161	22.575	812.214	619.691
391.175	22.693	812.032	619.912
392.190	23.002	811.864	620.813
393.205	22.902	810.937	619.701
394.219	22.694	810.432	618.529
395.234	22.607	809.670	617.589
396.248	22.308	809.162	616.099
397.263	22.204	808.717	615.343
398.278	22.303	807.807	614.941
399.292	22.182	807.571	614.285
400.307	22.145	806.985	613.656
401.321	22.237	806.680	613.691
402.336	22.186	806.332	613.193
403.350	22.458	805.771	613.660
404.365	22.690	805.719	614.375
405.380	22.820	805.219	614.392
406.394	23.012	805.151	614.955
407.409	23.086	804.955	615.006
408.423	23.289	804.527	615.330
409.438	23.317	804.158	615.091
410.453	23.382	803.381	614.667
411.467	23.520	803.175	614.936
412.482	23.415	802.671	614.129
413.496	23.625	802.092	614.361
414.511	23.718	802.088	614.625
415.526	23.580	801.756	613.838
416.540	23.358	801.228	612.613
417.555	23.425	800.485	612.221
418.569	23.241	800.189	611.306
419.584	23.309	799.535	610.985
420.599	23.296	799.057	610.522
421.613	165.044	1370.637	1799.565
422.628	143.405	1453.889	1799.658
