DTS Sentinel unit serial number:	SN413079Multiplexer serial number:	ORYXHardware model number:	OX4-SRSoftware version number:	ORYX F/W v4.00 Oryx Data Collector v3.7.2.0data status	okinstallation	princeton_trtdifferential loss correction	single-endedforward channel	channel 3reverse channel	N/Adate	2019/09/19time	07:08:34forward acquisition time	60.00reverse acquisition time	0.00gamma	496.2192k internal	0.2348k external	0.2348temperature offset calibration	0.9983default loss term (dB/km)	0.3790temperature slope calibration	1.0000multiplexer offset coefficient	1.0000multiplexer slope coefficient	1.0000fibre end	0.00T internal ref (°C)	19.02T ext. ref 1 (°C)	0.56T ext. ref 2 (°C)	13.30length (m)	temperature (°C)	Stokes	anti-Stokes-747.200	-128.099	-0.239	-0.034
-746.185	176.538	0.061	-0.088
-745.171	-200.000	0.030	0.300
-744.156	-53.188	0.419	0.192
-743.142	-164.955	0.089	0.004
-742.127	-105.909	-0.331	-0.075
-741.112	-116.537	0.368	-0.068
-740.098	-200.000	-0.011	0.323
-739.083	306.108	0.102	0.189
-738.069	38.529	0.105	-0.093
-737.054	-200.000	-0.074	0.468
-736.039	3.924	-0.168	0.122
-735.025	8.200	0.301	0.226
-734.010	-148.374	-0.397	0.033
-732.996	800.000	-0.004	0.017
-731.981	462.496	0.038	-0.084
-730.966	275.294	0.096	-0.170
-729.952	-91.991	-0.243	0.069
-728.937	800.000	0.015	0.046
-727.923	-71.390	-0.186	-0.070
-726.908	-66.681	-0.092	-0.037
-725.894	-70.750	-0.185	-0.070
-724.879	-2.601	-0.329	-0.230
-723.864	-200.000	-0.039	-0.219
-722.850	-52.550	0.066	-0.031
-721.835	340.544	-0.155	-0.303
-720.821	-38.565	0.327	-0.173
-719.806	339.712	-0.121	-0.236
-718.791	265.060	0.250	-0.434
-717.777	-200.000	-0.081	-0.376
-716.762	-146.201	-0.256	-0.022
-715.748	-1.453	-0.209	-0.147
-714.733	-200.000	0.002	0.277
-713.718	306.639	0.037	-0.069
-712.704	-54.411	-0.408	0.184
-711.689	605.535	-0.094	-0.235
-710.675	-57.636	0.072	0.032
-709.660	39.405	0.091	0.081
-708.645	130.964	0.025	0.031
-707.631	-96.824	-0.315	-0.083
-706.616	-77.736	0.434	-0.150
-705.602	-3.716	-0.278	0.193
-704.587	-100.676	0.295	-0.073
-703.572	-4.268	-0.197	-0.136
-702.558	145.252	0.081	-0.108
-701.543	-200.000	0.030	-0.171
-700.529	20.776	0.266	0.215
-699.514	-200.000	-0.006	0.026
-698.499	20.589	-0.126	-0.102
-697.485	-200.000	-0.082	-0.386
-696.470	-159.331	-0.079	0.004
-695.456	-200.000	0.037	-0.440
-694.441	81.405	-0.290	-0.313
-693.426	-200.000	-0.089	-0.391
-692.412	29.067	-0.102	0.086
-691.397	24.919	0.100	-0.083
-690.383	-121.338	-0.231	-0.038
-689.368	245.055	0.055	0.093
-688.354	-200.000	0.023	-0.164
-687.339	-131.591	-0.228	-0.030
-686.324	16.942	0.134	0.106
-685.310	186.689	-0.062	-0.093
-684.295	-200.000	-0.010	0.098
-683.281	800.000	0.024	0.071
-682.266	214.507	0.136	0.215
-681.251	-102.433	-0.257	-0.061
-680.237	800.000	-0.033	-0.121
-679.222	190.652	0.073	-0.110
-678.208	-200.000	-0.046	-0.232
-677.193	800.000	0.053	0.177
-676.178	-22.425	-0.048	-0.029
-675.164	377.004	0.098	-0.198
-674.149	-200.000	-0.040	-0.380
-673.135	-71.570	-0.106	-0.039
-672.120	788.946	0.075	-0.205
-671.105	-200.000	-0.045	0.274
-670.091	-200.000	0.005	0.160
-669.076	241.162	0.071	0.118
-668.062	-132.145	0.380	-0.049
-667.047	800.000	0.067	-0.206
-666.032	-139.024	0.295	0.032
-665.018	-200.000	-0.001	-0.036
-664.003	-200.000	-0.035	-0.257
-662.989	62.181	-0.240	-0.239
-661.974	-200.000	-0.016	-0.097
-660.959	-200.000	0.010	0.205
-659.945	296.572	-0.015	0.028
-658.930	-200.000	-0.013	0.199
-657.916	-200.000	0.004	0.023
-656.901	-67.093	0.164	0.064
-655.886	-70.988	0.351	0.132
-654.872	115.617	0.061	-0.074
-653.857	477.871	-0.020	-0.045
-652.843	-53.292	0.173	0.079
-651.828	-200.000	0.056	-0.307
-650.814	272.885	-0.091	-0.159
-649.799	33.172	0.065	0.056
-648.784	-71.653	-0.077	-0.029
-647.770	-124.123	-0.226	0.035
-646.755	181.620	-0.059	0.087
-645.741	-116.838	0.302	-0.055
-644.726	65.720	-0.189	-0.191
-643.711	800.000	-0.025	0.098
-642.697	-200.000	0.001	0.318
-641.682	800.000	-0.037	-0.146
-640.668	-128.986	0.191	0.027
-639.653	363.584	-0.106	0.213
-638.638	-200.000	-0.047	-0.219
-637.624	-107.242	-0.160	0.035
-636.609	800.000	-0.042	-0.142
-635.595	-151.244	0.049	-0.004
-634.580	343.117	0.057	-0.111
-633.565	21.405	0.221	0.179
-632.551	317.576	-0.145	-0.273
-631.536	800.000	0.076	0.311
-630.522	257.475	-0.189	0.323
-629.507	-200.000	-0.035	-0.313
-628.492	119.420	-0.086	-0.106
-627.478	-82.967	-0.101	-0.032
-626.463	-137.335	-0.128	-0.014
-625.449	217.681	0.204	0.323
-624.434	46.358	-0.137	0.126
-623.419	-200.000	0.038	-0.217
-622.405	800.000	0.113	-0.347
-621.390	37.779	0.178	-0.157
-620.376	64.853	0.152	-0.153
-619.361	-200.000	-0.018	-0.143
-618.346	182.308	-0.084	0.124
-617.332	-39.992	0.422	0.219
-616.317	71.988	-0.293	0.303
-615.303	-43.844	0.275	-0.137
-614.288	261.222	-0.159	0.274
-613.273	-83.408	0.166	0.053
-612.259	-200.000	-0.029	-0.131
-611.244	800.000	-0.047	-0.190
-610.230	-80.865	0.358	-0.118
-609.215	-76.250	-0.056	0.020
-608.201	555.032	-0.088	-0.210
-607.186	800.000	0.089	0.254
-606.171	393.189	-0.032	0.066
-605.157	136.924	-0.201	0.261
-604.142	2.131	-0.233	0.168
-603.128	-56.501	0.175	0.077
-602.113	-97.358	0.379	0.098
-601.098	403.341	0.031	-0.064
-600.084	-153.584	-0.209	0.014
-599.069	-80.357	-0.344	0.114
-598.055	-54.301	-0.419	0.189
-597.040	-200.000	-0.001	-0.267
-596.025	116.035	-0.049	0.060
-595.011	343.309	-0.115	0.224
-593.996	20.795	-0.078	0.063
-592.982	-200.000	-0.024	0.373
-591.967	330.822	-0.078	0.149
-590.952	118.846	-0.214	0.263
-589.938	-122.977	-0.251	-0.040
-588.923	-99.274	0.113	0.028
-587.909	-35.339	-0.050	0.027
-586.894	798.593	-0.187	0.512
-585.879	-200.000	-0.045	0.336
-584.865	-52.192	-0.093	0.043
-583.850	-200.000	-0.029	0.322
-582.836	56.012	0.183	-0.176
-581.821	800.000	-0.099	-0.329
-580.806	328.860	-0.087	-0.166
-579.792	-115.929	-0.141	0.026
-578.777	800.000	-0.027	0.083
-577.763	-27.014	0.119	0.069
-576.748	-118.086	0.257	0.046
-575.733	20.211	0.165	-0.132
-574.719	-200.000	-0.019	-0.234
-573.704	-200.000	0.075	-0.399
-572.690	-200.000	-0.010	0.128
-571.675	-76.613	0.065	0.022
-570.661	-9.302	0.034	-0.023
-569.646	-137.681	0.347	-0.039
-568.631	147.476	0.060	0.080
-567.617	20.570	0.162	0.130
-566.602	48.211	0.138	0.128
-565.588	-91.510	0.256	0.072
-564.573	508.559	-0.038	0.088
-563.558	306.564	0.157	0.289
-562.544	129.046	-0.109	0.138
-561.529	-52.117	-0.114	-0.053
-560.515	173.283	0.090	-0.128
-559.500	-26.762	0.147	-0.085
-558.485	148.025	-0.042	0.056
-557.471	181.619	0.124	0.180
-556.456	-200.000	-0.021	0.161
-555.442	-200.000	0.033	-0.307
-554.427	266.655	-0.280	0.485
-553.412	56.460	0.095	0.092
-552.398	-55.259	-0.080	0.036
-551.383	273.379	-0.093	-0.163
-550.369	-127.373	0.164	0.024
-549.354	800.000	0.046	-0.152
-548.339	-34.616	-0.099	-0.054
-547.325	-21.983	-0.140	0.084
-546.310	-200.000	-0.055	-0.372
-545.296	-84.207	-0.087	0.027
-544.281	-33.951	0.128	0.070
-543.266	-200.000	-0.034	0.377
-542.252	-200.000	0.078	0.422
-541.237	470.758	0.063	0.139
-540.223	-90.720	-0.105	-0.030
-539.208	-75.893	-0.393	0.138
-538.193	800.000	-0.030	-0.128
-537.179	-65.601	0.165	-0.066
-536.164	374.058	-0.121	0.243
-535.150	668.256	-0.079	0.203
-534.135	800.000	0.099	-0.281
-533.121	-109.562	-0.162	0.034
-532.106	-109.153	0.132	-0.028
-531.091	-175.912	0.086	-0.002
-530.077	-96.455	-0.050	0.013
-529.062	-175.352	-0.149	-0.004
-528.048	-200.000	-0.005	-0.088
-527.033	110.819	0.135	-0.161
-526.018	-4.724	0.288	0.197
-525.004	-22.718	0.074	-0.044
-523.989	800.000	0.057	-0.218
-522.975	-32.463	0.194	-0.107
-521.960	800.000	0.045	0.152
-520.945	457.344	0.125	0.275
-519.931	-200.000	-0.288	0.000
-518.916	78.099	0.097	0.103
-517.902	-200.000	-0.012	-0.135
-516.887	-22.577	0.223	-0.133
-515.872	74.139	0.127	-0.132
-514.858	63.550	-0.094	0.094
-513.843	-79.583	-0.181	-0.060
-512.829	8.150	-0.041	-0.030
-511.814	-194.097	-0.261	-0.002
-510.799	-182.166	-0.178	-0.003
-509.785	-200.000	-0.084	-0.397
-508.770	-200.000	0.028	-0.168
-507.756	-200.000	0.057	0.319
-506.741	-173.181	0.096	0.003
-505.726	91.605	0.109	-0.122
-504.712	82.014	0.168	0.180
-503.697	-86.515	0.086	-0.026
-502.683	154.481	0.105	0.143
-501.668	-25.184	-0.286	-0.168
-500.653	-35.880	-0.299	0.160
-499.639	128.628	-0.099	-0.124
-498.624	-139.855	0.025	-0.003
-497.610	800.000	-0.032	0.135
-496.595	-200.000	0.033	0.196
-495.581	79.140	-0.185	0.196
-494.566	-200.000	0.009	-0.265
-493.551	77.616	0.139	0.147
-492.537	800.000	0.088	0.339
-491.522	431.868	0.140	-0.301
-490.508	-84.193	0.303	-0.095
-489.493	288.221	-0.194	-0.347
-488.478	-37.903	0.117	0.061
-487.464	-95.034	-0.147	0.039
-486.449	-150.177	-0.365	0.028
-485.435	-200.000	0.036	0.235
-484.420	16.550	0.313	0.245
-483.405	11.613	-0.197	0.149
-482.391	370.247	-0.122	-0.244
-481.376	-93.731	-0.254	0.069
-480.362	-19.887	-0.049	0.030
-479.347	280.707	-0.169	-0.299
-478.332	800.000	-0.022	-0.088
-477.318	-1.648	0.095	-0.066
-476.303	433.990	-0.068	-0.145
-475.289	-93.196	-0.078	-0.022
-474.274	-44.639	-0.221	0.109
-473.259	-200.000	0.019	-0.289
-472.245	-62.778	-0.166	0.068
-471.230	133.747	0.163	-0.209
-470.216	800.000	-0.026	-0.070
-469.201	205.844	-0.073	-0.112
-468.186	800.000	0.018	0.059
-467.172	12.200	0.060	-0.045
-466.157	-42.380	-0.065	0.033
-465.143	454.673	-0.072	0.157
-464.128	-200.000	0.002	-0.036
-463.113	68.088	-0.175	-0.177
-462.099	-69.474	0.449	0.170
-461.084	-79.278	-0.196	0.065
-460.070	413.113	0.117	0.245
-459.055	-148.200	0.168	0.014
-458.040	793.654	0.005	0.013
-457.026	-200.000	-0.010	-0.128
-456.011	-200.000	0.013	-0.134
-454.997	-100.826	-0.216	0.053
-453.982	768.050	0.082	0.219
-452.968	154.812	-0.097	0.132
-451.953	517.346	-0.127	0.294
-450.938	-200.000	0.014	0.065
-449.924	-200.000	-0.037	0.254
-448.909	-139.056	0.024	-0.003
-447.895	-200.000	-0.024	0.269
-446.880	7.693	-0.214	-0.158
-445.865	-200.000	-0.006	-0.068
-444.851	488.319	-0.048	0.109
-443.836	440.576	-0.135	-0.291
-442.822	241.630	0.064	-0.106
-441.807	13.576	-0.154	-0.118
-440.792	-97.030	0.079	-0.020
-439.778	-106.263	-0.309	-0.068
-438.763	-200.000	-0.020	0.239
-437.749	-69.212	-0.381	0.145
-436.734	-116.727	0.503	-0.091
-435.719	341.539	-0.151	-0.291
-434.705	-104.486	0.032	-0.007
-433.690	800.000	-0.016	0.059
-432.676	-178.263	0.194	-0.005
-431.661	629.109	-0.068	0.171
-430.646	36.339	0.098	-0.085
-429.632	-124.688	-0.102	0.016
-428.617	-200.000	-0.006	-0.082
-427.603	-73.971	0.065	0.023
-426.588	-80.087	-0.296	-0.098
-425.573	-12.722	-0.222	0.143
-424.559	800.000	0.050	0.166
-423.544	84.032	-0.244	-0.263
-422.530	-200.000	0.017	-0.132
-421.515	800.000	-0.045	0.164
-420.500	10.961	-0.281	-0.212
-419.486	126.341	0.066	0.082
-418.471	-153.116	-0.096	0.007
-417.457	-200.000	0.005	0.037
-416.442	371.032	-0.165	-0.331
-415.428	-60.264	-0.111	0.047
-414.413	39.132	0.264	-0.233
-413.398	-81.940	-0.287	-0.093
-412.384	396.311	0.073	0.149
-411.369	800.000	0.021	0.079
-410.355	324.731	-0.158	-0.298
-409.340	-200.000	0.003	-0.017
-408.325	129.673	-0.062	0.078
-407.311	-48.232	-0.481	-0.229
-406.296	57.331	-0.248	-0.239
-405.282	322.035	-0.094	-0.176
-404.267	-6.115	-0.087	0.059
-403.252	-94.886	-0.256	-0.068
-402.238	-91.996	0.149	0.042
-401.223	365.256	0.235	-0.467
-400.209	-200.000	-0.040	-0.251
-399.194	-59.198	-0.147	-0.062
-398.179	-200.000	-0.017	0.341
-397.165	-93.544	0.148	0.040
-396.150	188.655	-0.197	0.291
-395.136	-200.000	0.026	-0.189
-394.121	-151.761	-0.169	0.012
-393.106	-200.000	-0.007	-0.124
-392.092	133.296	0.128	0.163
-391.077	800.000	-0.209	-0.663
-390.063	240.765	0.221	-0.363
-389.048	-97.372	0.068	0.017
-388.033	17.433	-0.197	0.154
-387.019	179.406	-0.041	-0.059
-386.004	-200.000	-0.004	-0.058
-384.990	-122.162	-0.205	0.033
-383.975	274.560	-0.026	-0.046
-382.960	-4.863	-0.171	0.116
-381.946	-200.000	0.063	-0.309
-380.931	-65.377	0.331	-0.131
-379.917	172.529	-0.021	-0.030
-378.902	79.618	-0.301	0.318
-377.888	173.378	0.143	0.204
-376.873	26.461	0.122	-0.101
-375.858	178.334	-0.041	-0.059
-374.844	-200.000	0.033	0.145
-373.829	62.103	-0.137	-0.134
-372.815	-89.430	0.409	-0.118
-371.800	-200.000	0.004	-0.330
-370.785	353.320	-0.040	0.078
-369.771	25.967	0.309	-0.254
-368.756	-131.265	-0.338	0.044
-367.742	23.787	-0.295	-0.239
-366.727	-66.448	-0.158	-0.062
-365.712	-47.456	0.163	0.078
-364.698	222.387	-0.133	-0.211
-363.683	800.000	-0.017	-0.054
-362.669	800.000	-0.018	-0.076
-361.654	41.247	0.287	-0.255
-360.639	-200.000	0.031	-0.226
-359.625	800.000	0.031	0.108
-358.610	-200.000	0.020	0.148
-357.596	6.076	0.257	0.188
-356.581	800.000	-0.080	-0.245
-355.566	39.471	-0.046	-0.040
-354.552	543.015	-0.112	-0.263
-353.537	86.400	0.137	-0.148
-352.523	-0.140	0.384	-0.269
-351.508	23.419	-0.253	0.205
-350.493	300.316	-0.299	-0.543
-349.479	289.139	-0.183	-0.326
-348.464	-200.000	0.046	-0.257
-347.450	90.174	-0.075	0.083
-346.435	-200.000	0.039	-0.251
-345.420	126.520	0.177	0.221
-344.406	-79.671	-0.104	0.034
-343.391	800.000	0.112	-0.391
-342.377	800.000	0.073	0.311
-341.362	-200.000	0.012	-0.056
-340.348	-200.000	0.001	0.121
-339.333	-92.060	-0.037	0.010
-338.318	-200.000	-0.022	0.183
-337.304	102.686	0.311	-0.358
-336.289	-136.755	-0.166	0.019
-335.275	663.643	-0.138	0.349
-334.260	-119.294	0.126	0.022
-333.245	309.496	-0.154	-0.284
-332.231	17.194	0.148	-0.116
-331.216	7.220	-0.163	0.119
-330.202	-152.865	0.335	-0.023
-329.187	-21.457	0.106	0.064
-328.172	95.984	-0.240	0.269
-327.158	253.759	0.151	-0.254
-326.143	-34.609	-0.170	-0.092
-325.129	54.071	0.179	-0.169
-324.114	50.659	0.224	-0.208
-323.099	23.718	0.102	-0.083
-322.085	-63.849	-0.181	-0.073
-321.070	321.058	-0.114	-0.213
-320.056	-200.000	-0.040	-0.175
-319.041	-94.108	-0.062	-0.017
-318.026	800.000	-0.051	-0.204
-317.012	-49.551	0.203	-0.095
-315.997	-84.919	0.291	-0.090
-314.983	800.000	-0.057	0.166
-313.968	800.000	0.053	-0.200
-312.953	-128.733	-0.145	0.020
-311.939	-37.337	0.175	0.092
-310.924	23.922	-0.225	0.182
-309.910	800.000	0.029	0.115
-308.895	-91.606	0.147	-0.041
-307.880	54.455	-0.207	0.196
-306.866	-94.409	-0.250	0.067
-305.851	27.810	-0.272	0.226
-304.837	39.973	-0.209	0.185
-303.822	45.628	0.120	-0.109
-302.807	554.519	-0.085	0.201
-301.793	-40.786	0.215	0.109
-300.778	61.311	0.195	0.191
-299.764	100.574	0.208	-0.237
-298.749	254.152	-0.030	-0.050
-297.735	-191.853	-0.380	0.004
-296.720	800.000	-0.036	0.150
-295.705	-49.162	-0.218	-0.102
-294.691	-76.974	-0.271	-0.093
-293.676	16.351	0.142	0.110
-292.662	-156.698	0.130	-0.008
-291.647	-200.000	0.019	-0.098
-290.632	267.373	-0.069	-0.119
-289.618	-200.000	-0.025	0.325
-288.603	-52.176	0.187	0.085
-287.589	800.000	-0.056	-0.188
-286.574	-161.927	-0.121	-0.006
-285.559	92.669	-0.077	0.086
-284.545	-36.887	0.095	0.050
-283.530	97.025	0.078	0.088
-282.516	-200.000	0.044	0.336
-281.501	-120.158	-0.227	-0.038
-280.486	-18.719	0.150	0.092
-279.472	-140.758	0.376	0.038
-278.457	-200.000	-0.076	-0.434
-277.443	43.594	-0.052	-0.047
-276.428	-103.389	-0.065	0.015
-275.413	-14.859	0.133	-0.084
-274.399	-127.725	-0.228	-0.032
-273.384	-196.280	0.278	0.002
-272.370	5.383	0.431	-0.312
-271.355	351.489	0.044	0.086
-270.340	208.242	-0.298	0.456
-269.326	-108.134	-0.188	0.040
-268.311	-200.000	-0.020	-0.266
-267.297	-200.000	-0.035	0.303
-266.282	-56.178	0.031	0.014
-265.267	800.000	-0.043	-0.119
-264.253	351.053	0.083	-0.160
-263.238	-200.000	0.000	-0.431
-262.224	800.000	-0.031	-0.103
-261.209	146.990	-0.129	-0.170
-260.195	-74.603	0.214	-0.076
-259.180	32.414	-0.083	-0.071
-258.165	184.676	0.136	0.197
-257.151	-18.354	-0.171	-0.105
-256.136	-105.888	0.167	-0.037
-255.122	-44.016	0.112	0.055
-254.107	-34.410	-0.160	0.086
-253.092	800.000	0.078	-0.262
-252.078	-167.311	0.149	0.006
-251.063	34.334	0.289	-0.247
-250.049	31.393	-0.093	-0.079
-249.034	11.990	0.145	-0.109
-248.019	-94.398	-0.269	0.072
-247.005	-128.689	-0.170	0.024
-245.990	800.000	0.122	0.469
-244.976	-16.385	0.105	0.065
-243.961	410.566	0.115	0.238
-242.946	-156.910	0.216	-0.013
-241.932	-160.661	0.076	0.004
-240.917	-200.000	-0.009	0.238
-239.903	-200.000	0.021	-0.310
-238.888	61.429	0.074	0.072
-237.873	-119.213	0.307	0.052
-236.859	-55.955	0.164	0.072
-235.844	25.299	0.176	-0.143
-234.830	-27.802	0.445	-0.252
-233.815	800.000	0.091	0.380
-232.800	38.930	-0.100	0.087
-231.786	-200.000	-0.036	0.269
-230.771	-200.000	-0.041	-0.211
-229.757	-200.000	0.015	0.335
-228.742	800.000	-0.086	0.301
-227.727	-200.000	-0.025	0.189
-226.713	-55.201	0.186	0.082
-225.698	-200.000	0.048	0.368
-224.684	156.309	-0.067	0.090
-223.669	-17.812	-0.098	-0.060
-222.655	-111.349	0.360	-0.072
-221.640	381.778	0.097	0.196
-220.625	-8.542	0.126	0.083
-219.611	165.798	-0.235	0.325
-218.596	314.288	0.027	-0.050
-217.582	-104.545	0.243	0.055
-216.567	131.097	0.309	0.388
-215.552	358.401	-0.125	-0.244
-214.538	-118.386	0.352	0.061
-213.523	-89.635	-0.190	0.055
-212.509	-92.514	0.266	0.073
-211.494	-200.000	-0.031	0.192
-210.479	541.659	0.147	0.343
-209.465	-3.278	-0.099	0.068
-208.450	800.000	-0.032	-0.088
-207.436	-200.000	-0.008	-0.062
-206.421	334.503	0.036	0.068
-205.406	467.692	-0.090	0.198
-204.392	-75.755	0.124	0.043
-203.377	13.943	0.158	-0.120
-202.363	-24.715	-0.354	0.206
-201.348	100.871	-0.264	-0.300
-200.333	281.468	-0.160	0.281
-199.319	27.991	0.224	-0.185
-198.304	636.851	0.089	-0.222
-197.290	-150.519	-0.185	0.014
-196.275	187.170	0.157	0.228
-195.260	625.063	0.078	-0.194
-194.246	-1.407	-0.249	-0.172
-193.231	-118.692	0.216	0.037
-192.217	11.587	-0.225	0.169
-191.202	-21.732	0.508	-0.302
-190.187	-23.291	-0.154	0.091
-189.173	-78.150	-0.253	0.085
-188.158	-37.420	-0.233	-0.122
-187.144	-200.000	0.028	-0.293
-186.129	-48.953	0.304	-0.143
-185.114	230.799	0.158	0.253
-184.100	-158.557	0.196	-0.011
-183.085	21.924	0.086	0.068
-182.071	800.000	-0.070	0.224
-181.056	60.781	-0.055	-0.053
-180.042	-200.000	0.043	0.247
-179.027	-200.000	-0.018	0.139
-178.012	41.690	-0.161	-0.142
-176.998	-200.000	0.002	-0.454
-175.983	586.448	0.136	-0.327
-174.969	-94.422	-0.038	0.010
-173.954	800.000	-0.124	0.436
-172.939	425.189	0.109	0.229
-171.925	-200.000	0.049	-0.311
-170.910	140.151	-0.306	-0.395
-169.896	-112.343	0.147	-0.029
-168.881	-36.241	-0.314	0.165
-167.866	-108.540	0.241	0.051
-166.852	-135.829	0.276	0.032
-165.837	800.000	0.068	-0.210
-164.823	421.738	-0.132	0.277
-163.808	800.000	0.089	0.288
-162.793	335.319	0.117	0.221
-161.779	-68.476	0.346	-0.131
-160.764	189.722	0.042	-0.062
-159.750	-114.679	0.269	0.050
-158.735	178.131	0.162	0.230
-157.720	-54.718	0.253	0.112
-156.706	578.590	0.106	-0.253
-155.691	116.572	-0.188	0.225
-154.677	-25.946	0.191	-0.110
-153.662	-46.344	0.246	-0.118
-152.647	-23.108	-0.164	-0.097
-151.633	-200.000	0.014	-0.222
-150.618	800.000	0.102	-0.281
-149.604	800.000	-0.094	-0.289
-148.589	-200.000	0.014	-0.219
-147.574	354.507	0.100	0.194
-146.560	-7.359	0.031	-0.021
-145.545	800.000	0.121	-0.336
-144.531	-200.000	-0.074	-0.453
-143.516	-200.000	-0.014	0.222
-142.502	35.477	-0.175	0.150
-141.487	-148.366	-0.123	-0.010
-140.472	-119.489	-0.336	-0.057
-139.458	-56.577	-0.288	0.125
-138.443	484.355	-0.169	0.376
-137.429	800.000	-0.060	-0.205
-136.414	-200.000	0.039	-0.475
-135.399	-86.485	-0.226	0.068
-134.385	-148.791	0.149	0.012
-133.370	-72.982	-0.313	0.112
-132.356	-200.000	-0.035	-0.464
-131.341	-200.000	0.055	-0.239
-130.326	-138.977	-0.149	-0.016
-129.312	-200.000	-0.042	0.259
-128.297	-31.273	-0.108	-0.059
-127.283	-92.535	-0.293	-0.080
-126.268	-200.000	0.002	-0.110
-125.253	-200.000	-0.005	-0.215
-124.239	-53.966	-0.360	-0.160
-123.224	-18.677	0.045	-0.028
-122.210	551.105	-0.020	-0.048
-121.195	800.000	0.049	-0.137
-120.180	-200.000	-0.004	-0.121
-119.166	800.000	0.078	0.332
-118.151	-62.123	0.105	-0.043
-117.137	-26.344	-0.075	-0.043
-116.122	-104.029	-0.135	-0.031
-115.107	67.227	0.312	-0.310
-114.093	-6.833	0.070	-0.047
-113.078	800.000	0.099	0.272
-112.064	55.139	-0.065	-0.061
-111.049	-167.592	0.154	-0.006
-110.034	580.854	0.117	0.279
-109.020	800.000	0.095	0.361
-108.005	167.138	-0.044	-0.061
-106.991	800.000	-0.119	-0.470
-105.976	-200.000	-0.002	0.139
-104.962	-107.906	0.397	-0.084
-103.947	-113.228	0.109	0.021
-102.932	-16.117	-0.472	0.292
-101.918	-200.000	0.028	-0.161
-100.903	-85.621	-0.053	0.016
-99.889	-25.837	-0.084	-0.048
-98.874	259.626	-0.248	0.418
-97.859	-70.794	0.199	0.073
-96.845	-200.000	0.028	0.237
-95.830	494.159	0.033	0.075
-94.816	-158.698	-0.386	-0.022
-93.801	-31.926	0.391	-0.213
-92.786	157.299	-0.110	0.148
-91.772	-108.782	-0.176	0.037
-90.757	-10.107	-0.239	-0.155
-89.743	41.604	0.324	-0.286
-88.728	-61.470	0.104	-0.042
-87.713	-200.000	-0.028	0.212
-86.699	11.927	-0.174	-0.130
-85.684	30.810	-0.143	-0.119
-84.670	800.000	0.041	0.168
-83.655	-200.000	-0.044	0.212
-82.640	56.628	0.260	-0.247
-81.626	128.498	-0.091	0.113
-80.611	154.718	0.215	-0.288
-79.597	65.487	0.152	-0.150
-78.582	-119.202	0.074	-0.013
-77.567	-117.672	0.417	0.073
-76.553	110.735	-0.103	0.121
-75.538	-123.257	0.143	0.022
-74.524	-23.772	-0.079	-0.046
-73.509	-200.000	-0.017	-0.270
-72.494	800.000	-0.068	0.223
-71.480	230.029	0.035	0.055
-70.465	800.000	0.089	-0.367
-69.451	-17.734	-0.145	0.088
-68.436	-114.157	-0.185	0.035
-67.422	-15.666	-0.058	0.036
-66.407	48.751	0.097	-0.089
-65.392	-156.564	-0.137	0.008
-64.378	-32.091	-0.171	0.093
-63.363	-200.000	-0.039	-0.290
-62.349	-38.499	-0.061	0.031
-61.334	47.850	-1.342	-1.219
-60.319	58.586	1.057	1.010
-59.305	193.656	-1.002	-1.475
-58.290	142.531	1.014	1.310
-57.276	151.930	1.043	1.383
-56.261	-200.000	135.692	627.053
-55.246	346.799	1634.275	3128.310
-54.232	138.054	2772.538	3534.910
-53.217	80.950	2178.841	2286.619
-52.203	28.755	1698.525	1398.957
-51.188	21.933	1523.837	1208.232
-50.173	20.511	1503.152	1182.123
-49.159	43.749	1579.358	1405.836
-48.144	39.416	1590.667	1385.448
-47.130	21.829	1539.223	1219.514
-46.115	19.292	1523.686	1189.671
-45.100	19.108	1520.028	1185.499
-44.086	18.999	1518.560	1183.558
-43.071	19.006	1516.516	1181.968
-42.057	19.037	1514.480	1180.541
-41.042	19.025	1513.289	1179.484
-40.027	19.066	1511.753	1178.525
-39.013	18.977	1510.262	1176.706
-37.998	18.985	1508.644	1175.449
-36.984	18.913	1508.627	1174.902
-35.969	18.979	1506.755	1173.848
-34.954	18.904	1505.620	1172.405
-33.940	19.030	1503.616	1171.656
-32.925	18.925	1503.379	1170.708
-31.911	18.944	1501.402	1169.252
-30.896	19.053	1499.846	1168.736
-29.881	19.055	1498.840	1167.916
-28.867	19.098	1497.298	1166.964
-27.852	19.033	1496.246	1165.654
-26.838	19.016	1494.741	1164.320
-25.823	19.031	1493.290	1163.246
-24.809	19.102	1491.465	1162.255
-23.794	19.029	1490.833	1161.225
-22.779	19.059	1489.580	1160.406
-21.765	19.065	1488.000	1159.167
-20.750	19.165	1486.781	1158.849
-19.736	19.104	1485.623	1157.486
-18.721	19.111	1484.571	1156.669
-17.706	18.993	1483.689	1155.148
-16.692	18.978	1483.084	1154.528
-15.677	19.109	1481.732	1154.307
-14.663	19.043	1480.829	1153.118
-13.648	18.911	1479.890	1151.456
-12.633	18.924	1478.751	1150.607
-11.619	19.008	1477.806	1150.389
-10.604	19.041	1476.880	1149.847
-9.590	18.973	1476.219	1148.829
-8.575	19.033	1475.736	1148.806
-7.560	18.999	1474.928	1147.910
-6.546	19.100	1473.629	1147.523
-5.531	19.067	1472.470	1146.358
-4.517	18.950	1471.750	1144.971
-3.502	18.905	1470.641	1143.764
-2.487	19.057	1469.624	1143.937
-1.473	19.002	1468.567	1142.706
-0.458	18.979	1467.410	1141.609
0.556	17.954	1457.023	1130.359
1.571	14.878	1433.863	1092.227
2.586	11.728	1372.687	1025.810
3.600	10.310	1289.242	955.005
4.615	9.482	1246.455	918.509
5.629	8.516	1189.980	871.549
6.644	4.405	1110.270	792.153
7.659	1.031	1077.083	751.689
8.673	0.640	1071.902	746.075
9.688	0.462	1068.932	743.065
10.702	0.577	1067.047	742.254
11.717	0.541	1064.211	740.041
12.731	1.903	1064.340	746.737
13.746	6.867	1071.131	775.855
14.761	13.132	1079.848	813.028
15.775	16.628	1083.993	833.322
16.790	16.757	1083.052	833.159
17.804	15.947	1080.785	827.365
18.819	14.998	1079.106	821.348
19.834	14.511	1077.467	817.642
20.848	14.317	1076.935	816.216
21.863	14.030	1076.170	814.157
22.877	13.903	1075.553	812.998
23.892	13.674	1074.353	810.896
24.907	13.610	1073.541	809.903
25.921	13.618	1072.612	809.165
26.936	13.599	1072.600	808.997
27.950	13.635	1071.342	808.151
28.965	13.664	1070.470	807.562
29.980	13.659	1069.817	806.970
30.994	13.720	1068.828	806.451
32.009	13.792	1068.020	806.120
33.023	13.764	1067.621	805.611
34.038	13.793	1066.819	805.076
35.053	13.834	1065.686	804.347
36.067	13.738	1064.505	802.921
37.082	13.836	1064.045	802.976
38.096	13.793	1063.174	802.044
39.111	13.681	1062.573	800.977
40.126	13.808	1061.260	800.526
41.140	13.674	1060.412	799.173
42.155	13.670	1059.326	798.262
43.169	13.670	1058.543	797.604
44.184	13.664	1057.406	796.648
45.199	13.448	1056.637	794.962
46.213	13.475	1055.829	794.411
47.228	13.597	1054.432	793.876
48.242	13.585	1053.617	793.131
49.257	13.736	1052.248	792.752
50.271	13.679	1051.172	791.601
51.286	13.563	1050.686	790.610
52.301	13.780	1049.439	790.639
53.315	13.702	1048.825	789.735
54.330	13.810	1047.671	789.308
55.344	13.755	1046.838	788.350
56.359	13.704	1045.794	787.254
57.374	13.756	1044.993	786.824
58.388	13.629	1044.540	785.814
59.403	13.599	1043.751	785.005
60.417	13.637	1042.963	784.525
61.432	13.660	1041.656	783.581
62.447	13.585	1041.421	782.980
63.461	13.579	1040.473	782.169
64.476	13.531	1039.549	781.181
65.490	13.648	1038.643	780.984
66.505	13.541	1037.873	779.831
67.520	13.548	1037.215	779.302
68.534	13.584	1036.147	778.597
69.549	13.643	1035.702	778.471
70.563	13.584	1035.180	777.735
71.578	13.593	1033.923	776.761
72.593	13.595	1033.017	776.021
73.607	13.562	1032.137	775.137
74.622	13.479	1031.530	774.224
75.636	13.452	1030.519	773.271
76.651	13.554	1029.582	772.977
77.666	13.489	1028.824	772.037
78.680	13.513	1027.939	771.418
79.695	13.617	1027.416	771.441
80.709	13.465	1027.330	770.600
81.724	13.658	1025.865	770.327
82.739	13.562	1025.262	769.363
83.753	13.722	1024.072	769.143
84.768	13.626	1023.832	768.451
85.782	13.812	1022.403	768.170
86.797	13.663	1021.803	766.960
87.812	13.840	1020.709	766.890
88.826	13.741	1020.464	766.183
89.841	13.770	1019.361	765.417
90.855	13.691	1018.544	764.373
91.870	13.724	1017.858	763.941
92.884	13.760	1017.180	763.535
93.899	13.721	1016.767	762.975
94.914	13.646	1015.922	761.931
95.928	13.796	1015.036	761.887
96.943	13.859	1014.482	761.694
97.957	13.736	1013.825	760.565
98.972	13.762	1012.537	759.654
99.987	13.841	1011.761	759.365
101.001	13.848	1011.166	758.882
102.016	13.872	1009.583	757.740
103.030	13.744	1009.375	756.928
104.045	13.698	1008.533	756.023
105.060	13.719	1007.514	755.289
106.074	13.801	1006.221	754.624
107.089	13.800	1005.478	753.997
108.103	13.718	1004.483	752.808
109.118	13.597	1003.973	751.811
110.133	13.684	1003.035	751.437
111.147	13.652	1002.020	750.466
112.162	13.636	1000.988	749.556
113.176	13.677	1000.584	749.370
114.191	13.826	999.366	749.067
115.206	13.774	998.760	748.310
116.220	13.785	997.494	747.345
117.235	13.817	996.927	746.999
118.249	13.758	995.955	745.939
119.264	13.803	995.142	745.467
120.279	13.839	994.289	744.920
121.293	13.870	993.147	744.139
122.308	13.707	992.597	742.932
123.322	13.642	992.105	742.205
124.337	13.677	990.516	741.109
125.352	13.649	989.494	740.155
126.366	13.608	988.393	739.082
127.381	13.742	986.921	738.515
128.395	13.544	986.610	737.333
129.410	13.767	984.945	737.014
130.424	13.682	984.469	736.215
131.439	13.693	983.376	735.380
132.454	13.708	982.739	734.905
133.468	13.727	982.120	734.464
134.483	13.729	981.468	733.921
135.497	13.593	981.270	733.103
136.512	13.789	979.451	732.544
137.527	13.728	978.982	731.860
138.541	13.795	978.039	731.385
139.556	13.749	977.841	730.972
140.570	13.824	976.970	730.586
141.585	13.875	975.871	729.923
142.600	13.835	975.446	729.365
143.614	13.962	974.721	729.317
144.629	13.951	973.781	728.501
145.643	13.870	973.209	727.651
146.658	13.946	971.943	726.974
147.673	13.860	971.539	726.231
148.687	13.938	970.290	725.575
149.702	13.896	969.436	724.689
150.716	13.889	968.407	723.823
151.731	13.829	968.028	723.216
152.746	13.837	967.164	722.542
153.760	13.924	966.294	722.206
154.775	13.934	965.491	721.587
155.789	13.977	965.100	721.414
156.804	13.933	964.241	720.521
157.819	14.056	963.123	720.151
158.833	14.097	962.230	719.599
159.848	14.119	961.691	719.228
160.862	14.056	961.484	718.734
161.877	14.048	960.560	717.945
162.892	14.064	959.532	717.183
163.906	13.948	959.127	716.319
164.921	14.074	957.891	715.877
165.935	13.943	957.380	714.864
166.950	13.950	956.405	714.102
167.964	14.024	955.078	713.368
168.979	14.071	954.111	712.786
169.994	14.035	953.330	711.982
171.008	14.162	952.137	711.573
172.023	14.103	951.375	710.687
173.037	14.076	950.865	710.128
174.052	14.150	949.897	709.660
175.067	14.229	949.117	709.349
176.081	14.088	948.949	708.560
177.096	14.049	948.128	707.720
178.110	14.019	947.591	707.130
179.125	14.050	946.346	706.266
180.140	14.104	945.750	705.989
181.154	14.213	944.542	705.487
182.169	14.183	944.287	705.108
183.183	14.204	943.657	704.663
184.198	14.282	942.746	704.253
185.213	14.361	942.286	704.178
186.227	14.320	941.497	703.356
187.242	14.320	941.260	703.115
188.256	14.354	940.610	702.711
189.271	14.454	939.414	702.177
190.286	14.367	938.738	701.243
191.300	14.235	937.950	700.039
192.315	14.351	937.328	699.999
193.329	14.186	936.617	698.714
194.344	14.146	935.978	698.007
195.359	14.312	935.128	698.007
196.373	14.273	934.577	697.371
197.388	14.360	934.407	697.546
198.402	14.304	934.027	696.965
199.417	14.463	933.662	697.298
200.432	14.445	932.887	696.581
201.446	14.607	931.856	696.425
202.461	14.493	931.851	695.886
203.475	14.690	930.995	696.006
204.490	14.585	930.758	695.327
205.504	14.619	929.826	694.714
206.519	14.630	928.612	693.791
207.534	14.467	928.700	693.115
208.548	14.595	926.898	692.241
209.563	14.527	926.717	691.765
210.577	14.541	926.207	691.380
211.592	14.602	925.405	690.972
212.607	14.741	924.536	690.837
213.621	14.688	923.962	690.127
214.636	14.754	923.067	689.671
215.650	14.696	922.662	689.069
216.665	14.735	922.317	688.911
217.680	14.785	921.424	688.388
218.694	14.877	920.981	688.375
219.709	14.884	920.421	687.927
220.723	14.766	920.140	687.167
221.738	14.769	919.094	686.340
222.753	14.724	918.519	685.662
223.767	14.814	917.325	685.082
224.782	14.939	916.387	684.831
225.796	14.853	916.308	684.359
226.811	14.974	914.966	683.790
227.826	14.911	914.680	683.258
228.840	14.977	914.152	683.076
229.855	14.837	913.220	681.747
230.869	14.874	912.931	681.620
231.884	14.905	911.887	680.909
232.899	14.842	911.320	680.169
233.913	14.883	910.810	679.895
234.928	14.814	910.062	678.994
235.942	14.773	909.146	678.083
236.957	15.009	908.368	678.401
237.972	14.953	907.643	677.574
238.986	15.004	907.015	677.252
240.001	14.931	906.322	676.380
241.015	14.946	906.007	676.142
242.030	14.964	905.182	675.540
243.045	14.998	904.692	675.251
244.059	14.969	904.136	674.659
245.074	15.022	903.517	674.353
246.088	15.063	902.248	673.513
247.103	15.111	901.939	673.416
248.117	15.089	901.014	672.574
249.132	15.233	900.752	672.897
250.147	15.218	900.105	672.295
251.161	15.434	899.073	672.330
252.176	15.309	898.603	671.421
253.190	15.286	897.774	670.648
254.205	15.432	897.198	670.742
255.220	15.445	896.698	670.361
256.234	15.467	896.122	669.959
257.249	15.339	895.499	668.924
258.263	15.463	894.584	668.675
259.278	15.416	894.842	668.621
260.293	15.455	894.240	668.266
261.307	15.571	893.026	667.764
262.322	15.638	892.443	667.534
263.336	15.526	892.193	666.843
264.351	15.530	891.568	666.331
265.366	15.454	890.961	665.518
266.380	15.677	889.907	665.556
267.395	15.523	889.426	664.528
268.409	15.721	888.695	664.707
269.424	15.607	888.042	663.706
270.439	15.465	887.533	662.708
271.453	15.660	886.633	662.746
272.468	15.575	885.729	661.678
273.482	15.596	885.568	661.580
274.497	15.472	885.219	660.776
275.512	15.654	883.633	660.248
276.526	15.749	882.924	660.029
277.541	15.619	882.540	659.177
278.555	15.803	881.808	659.292
279.570	15.764	881.489	658.842
280.585	15.672	881.000	658.058
281.599	15.588	880.651	657.409
282.614	15.755	879.574	657.201
283.628	15.817	878.868	656.860
284.643	15.835	878.375	656.502
285.657	15.734	878.403	656.071
286.672	15.778	877.575	655.566
287.687	15.911	876.700	655.372
288.701	15.898	876.340	654.994
289.716	15.964	875.751	654.751
290.730	15.880	875.270	654.007
291.745	15.943	874.344	653.503
292.760	15.943	873.434	652.764
293.774	16.060	873.171	652.965
294.789	16.057	872.814	652.627
295.803	16.064	872.123	652.080
296.818	16.095	871.525	651.696
297.833	15.986	870.529	650.473
298.847	16.050	869.804	650.121
299.862	16.109	869.208	649.845
300.876	16.034	868.642	649.076
301.891	15.976	868.159	648.432
302.906	16.154	867.128	648.291
303.920	16.032	866.535	647.318
304.935	16.302	865.834	647.775
305.949	16.216	865.076	646.823
306.964	16.162	864.578	646.184
307.979	16.249	864.105	646.105
308.993	16.274	863.514	645.704
310.008	16.240	863.297	645.353
311.022	16.391	862.697	645.427
312.037	16.396	861.746	644.677
313.052	16.330	861.575	644.239
314.066	16.335	860.807	643.628
315.081	16.316	860.201	643.046
316.095	16.253	859.736	642.401
317.110	16.510	859.034	642.794
318.125	16.223	859.063	641.669
319.139	16.366	858.375	641.643
320.154	16.340	857.745	641.015
321.168	16.436	856.772	640.596
322.183	16.370	856.483	640.073
323.197	16.379	855.844	639.573
324.212	16.350	855.501	639.152
325.227	16.423	854.896	638.916
326.241	16.375	854.364	638.283
327.256	16.350	853.657	637.602
328.270	16.332	853.146	637.099
329.285	16.327	852.455	636.508
330.300	16.433	851.814	636.369
331.314	16.500	851.404	636.258
332.329	16.498	850.806	635.750
333.343	16.468	850.008	634.982
334.358	16.448	849.417	634.411
335.373	16.477	849.185	634.292
336.387	16.667	848.367	634.335
337.402	16.600	848.126	633.847
338.416	16.772	847.033	633.621
339.431	16.652	846.901	633.014
340.446	16.780	845.970	632.740
341.460	16.810	845.341	632.326
342.475	16.864	844.892	632.135
343.489	16.841	844.201	631.476
344.504	16.715	844.209	630.957
345.519	16.906	843.578	631.143
346.533	16.922	842.851	630.603
347.548	17.000	842.595	630.644
348.562	16.790	842.304	629.592
349.577	16.766	841.669	628.973
350.592	17.001	840.366	628.811
351.606	16.911	840.288	628.363
352.621	16.828	840.048	627.823
353.635	16.959	839.233	627.644
354.650	16.860	838.964	627.018
355.665	16.924	838.882	627.139
356.679	16.763	838.214	625.991
357.694	16.870	837.820	626.035
358.708	17.045	836.627	625.735
359.723	16.819	836.405	624.679
360.738	16.878	835.960	624.508
361.752	16.913	835.698	624.389
362.767	16.925	835.249	624.041
363.781	17.080	834.569	624.047
364.796	16.997	834.288	623.478
365.810	17.093	833.729	623.356
366.825	17.104	833.437	623.123
367.840	17.239	832.846	623.122
368.854	17.030	832.399	621.965
369.869	17.151	832.232	622.227
370.883	17.100	831.622	621.532
371.898	17.248	830.322	621.044
372.913	17.035	830.538	620.372
373.927	17.211	829.624	620.277
374.942	17.137	829.030	619.511
375.956	17.242	828.267	619.267
376.971	17.227	827.713	618.743
377.986	17.538	827.060	619.333
379.000	17.382	826.506	618.294
380.015	17.363	826.088	617.859
381.029	17.426	825.758	617.787
382.044	17.358	825.296	617.140
383.059	17.461	824.139	616.594
384.073	17.321	824.280	616.137
385.088	17.501	823.239	615.955
386.102	17.308	823.243	615.206
387.117	17.600	822.025	615.296
388.132	17.414	821.737	614.353
389.146	17.390	821.487	614.027
390.161	17.507	821.412	614.338
391.175	17.548	820.994	614.119
392.190	17.575	820.309	613.649
393.205	17.713	819.709	613.643
394.219	17.507	819.722	612.856
395.234	17.541	819.053	612.425
396.248	17.544	818.387	611.883
397.263	17.455	817.852	611.109
398.278	17.558	817.010	610.795
399.292	17.496	817.035	610.538
400.307	17.570	816.410	610.284
401.321	17.453	816.384	609.791
402.336	17.496	815.699	609.377
403.350	17.505	815.425	609.150
404.365	17.736	814.926	609.550
405.380	17.649	814.389	608.783
406.394	17.618	813.921	608.269
407.409	17.626	813.794	608.151
408.423	17.686	812.896	607.638
409.438	17.842	812.041	607.500
410.453	17.873	811.921	607.468
411.467	17.771	811.541	606.768
412.482	17.829	811.280	606.724
413.496	18.027	810.518	606.805
414.511	17.930	810.348	606.278
415.526	17.925	810.175	606.078
416.540	18.030	809.513	605.901
417.555	17.913	809.548	605.458
418.569	17.807	808.734	604.421
419.584	18.047	807.836	604.544
420.599	18.119	807.342	604.379
421.613	115.660	1300.296	1492.345
422.628	100.001	1372.030	1492.427
