DTS Sentinel unit serial number:	SN413079Multiplexer serial number:	ORYXHardware model number:	OX4-SRSoftware version number:	ORYX F/W v4.00 Oryx Data Collector v3.7.2.0data status	okinstallation	princeton_trtdifferential loss correction	single-endedforward channel	channel 3reverse channel	N/Adate	2019/09/13time	16:52:34forward acquisition time	60.00reverse acquisition time	0.00gamma	496.2192k internal	0.2305k external	0.2305temperature offset calibration	1.0143default loss term (dB/km)	0.3790temperature slope calibration	1.0000multiplexer offset coefficient	1.0000multiplexer slope coefficient	1.0000fibre end	0.00T internal ref (°C)	34.87T ext. ref 1 (°C)	4.93T ext. ref 2 (°C)	30.30length (m)	temperature (°C)	Stokes	anti-Stokes-747.200	256.121	-0.081	0.142
-746.185	399.456	0.065	0.139
-745.171	88.141	-0.117	0.133
-744.156	-200.000	-0.056	0.531
-743.142	-200.000	-0.038	0.294
-742.127	-65.556	-0.307	-0.125
-741.112	-144.049	0.389	-0.037
-740.098	118.218	-0.129	0.161
-739.083	-160.830	-0.165	0.009
-738.069	-98.009	-0.167	-0.044
-737.054	54.385	0.064	-0.062
-736.039	-126.572	-0.440	0.066
-735.025	-87.935	0.415	0.127
-734.010	-3.922	-0.081	0.057
-732.996	379.585	0.095	0.197
-731.981	-200.000	-0.025	-0.124
-730.966	800.000	0.027	-0.078
-729.952	90.562	0.083	-0.095
-728.937	-71.864	0.087	0.033
-727.923	298.808	-0.130	-0.243
-726.908	-200.000	-0.047	-0.410
-725.894	37.010	-0.037	0.033
-724.879	16.590	-0.180	0.144
-723.864	-148.858	-0.218	-0.018
-722.850	167.516	0.168	0.243
-721.835	174.918	-0.186	-0.274
-720.821	201.940	0.070	-0.109
-719.806	-200.000	-0.037	-0.278
-718.791	-200.000	0.099	-0.546
-717.777	278.301	0.139	-0.251
-716.762	-85.983	0.120	-0.038
-715.748	800.000	0.019	0.074
-714.733	-111.869	-0.232	-0.048
-713.718	-1.885	-0.236	-0.169
-712.704	657.555	-0.192	-0.501
-711.689	-113.418	0.447	-0.089
-710.675	141.007	-0.154	0.207
-709.660	100.315	0.036	0.042
-708.645	-80.538	-0.136	0.046
-707.631	147.871	0.132	-0.180
-706.616	208.515	-0.179	0.284
-705.602	-200.000	0.004	0.372
-704.587	-200.000	0.028	0.138
-703.572	-3.693	0.253	0.178
-702.558	580.815	0.107	-0.265
-701.543	-166.422	-0.377	0.016
-700.529	255.382	0.090	0.157
-699.514	-71.243	0.310	-0.118
-698.499	60.656	-0.047	-0.047
-697.485	800.000	-0.099	-0.306
-696.470	-13.640	0.446	-0.293
-695.456	-41.864	0.314	0.163
-694.441	-200.000	0.001	0.098
-693.426	612.906	-0.040	0.101
-692.412	13.384	0.084	-0.066
-691.397	-1.045	-0.101	-0.073
-690.383	101.593	0.148	-0.175
-689.368	-101.350	0.422	-0.105
-688.354	-22.476	0.106	-0.065
-687.339	-78.566	-0.219	-0.076
-686.324	-84.815	0.217	-0.069
-685.310	-78.318	-0.158	0.055
-684.295	268.342	0.065	0.115
-683.281	-200.000	0.021	0.124
-682.266	13.288	-0.191	-0.150
-681.251	-200.000	-0.015	0.129
-680.237	-23.244	-0.198	0.121
-679.222	-20.695	-0.129	-0.081
-678.208	248.690	0.123	-0.211
-677.193	800.000	0.074	-0.289
-676.178	-109.823	-0.129	0.028
-675.164	63.751	-0.051	-0.052
-674.149	-47.341	-0.144	-0.071
-673.135	800.000	-0.061	-0.227
-672.120	44.934	0.108	-0.101
-671.105	203.227	0.111	0.174
-670.091	800.000	0.085	-0.242
-669.076	204.222	-0.196	0.308
-668.062	800.000	-0.119	0.337
-667.047	-200.000	-0.038	-0.249
-666.032	-127.455	-0.277	-0.041
-665.018	-200.000	-0.011	-0.137
-664.003	118.689	0.176	-0.221
-662.989	-157.703	0.034	-0.002
-661.974	800.000	-0.122	0.407
-660.959	91.518	-0.117	-0.134
-659.945	800.000	-0.050	-0.151
-658.930	312.395	0.123	-0.234
-657.916	-139.100	-0.209	0.023
-656.901	-145.477	-0.151	-0.014
-655.886	-101.590	0.260	0.064
-654.872	41.275	-0.315	-0.289
-653.857	683.721	-0.153	0.405
-652.843	-133.692	0.062	0.008
-651.828	-9.182	-0.152	-0.103
-650.814	800.000	-0.027	-0.111
-649.799	96.593	-0.023	-0.027
-648.784	-40.931	-0.061	0.032
-647.770	93.071	-0.153	-0.176
-646.755	39.538	0.104	-0.095
-645.741	-200.000	-0.036	-0.258
-644.726	91.934	-0.217	-0.248
-643.711	111.080	0.109	0.133
-642.697	-21.336	-0.255	0.158
-641.682	40.303	0.047	-0.042
-640.668	-200.000	0.035	0.172
-639.653	-49.031	-0.098	-0.048
-638.638	118.691	0.054	-0.068
-637.624	-1.362	0.186	-0.133
-636.609	-132.998	0.131	-0.017
-635.595	-51.929	-0.067	0.031
-634.580	33.259	-0.209	-0.184
-633.565	621.887	-0.111	-0.282
-632.551	309.632	0.112	-0.212
-631.536	20.999	0.162	0.133
-630.522	800.000	-0.091	0.298
-629.507	-200.000	0.002	-0.062
-628.492	-63.741	-0.140	0.058
-627.478	-35.122	-0.193	-0.107
-626.463	-47.695	0.213	0.105
-625.449	-105.082	-0.051	-0.012
-624.434	-145.266	0.259	-0.024
-623.419	-92.773	-0.223	0.063
-622.405	24.663	0.138	-0.116
-621.390	-200.000	0.008	0.300
-620.376	25.397	-0.346	-0.291
-619.361	-200.000	0.038	-0.324
-618.346	-187.222	-0.228	0.003
-617.332	-69.859	0.073	0.028
-616.317	613.651	-0.098	0.250
-615.303	182.481	-0.144	-0.215
-614.288	302.886	-0.073	-0.137
-613.273	-36.729	-0.198	-0.108
-612.259	-104.430	-0.112	0.026
-611.244	77.123	-0.133	-0.143
-610.230	-49.692	0.300	0.144
-609.215	-200.000	-0.036	-0.415
-608.201	-4.741	0.269	-0.188
-607.186	82.349	-0.157	-0.172
-606.171	-33.917	-0.177	0.099
-605.157	-66.967	-0.086	-0.034
-604.142	80.241	-0.074	-0.081
-603.128	-200.000	-0.066	-0.431
-602.113	-29.750	-0.075	-0.043
-601.098	-63.309	-0.184	-0.077
-600.084	-53.980	-0.067	-0.031
-599.069	-6.718	-0.278	0.191
-598.055	213.862	-0.106	0.170
-597.040	717.113	0.104	0.280
-596.025	-81.328	0.211	-0.070
-595.011	323.784	0.148	0.287
-593.996	-166.713	-0.279	-0.012
-592.982	800.000	0.003	0.010
-591.967	146.879	-0.066	0.090
-590.952	-86.523	-0.411	0.127
-589.938	-46.271	-0.176	0.088
-588.923	-60.320	0.421	-0.181
-587.909	494.074	-0.085	0.198
-586.894	-78.798	0.357	0.123
-585.879	176.155	-0.217	-0.318
-584.865	-200.000	0.012	0.071
-583.850	-45.573	0.317	0.159
-582.836	85.820	-0.152	0.170
-581.821	-170.338	0.179	-0.006
-580.806	-70.127	-0.046	-0.018
-579.792	-108.204	-0.287	0.063
-578.777	-118.879	0.040	-0.007
-577.763	-166.443	0.386	0.016
-576.748	168.741	0.098	-0.141
-575.733	-6.539	-0.178	-0.123
-574.719	236.148	-0.195	0.327
-573.704	-200.000	-0.002	0.295
-572.690	83.830	-0.124	-0.136
-571.675	442.374	-0.046	-0.102
-570.661	-68.701	0.178	-0.070
-569.646	184.471	-0.065	0.098
-568.631	-155.857	0.072	-0.005
-567.617	136.010	0.166	0.218
-566.602	220.186	0.113	-0.182
-565.588	-53.495	-0.136	0.063
-564.573	38.157	0.060	-0.054
-563.558	-200.000	0.082	0.511
-562.544	-41.868	-0.234	-0.122
-561.529	-110.936	-0.241	0.050
-560.515	179.581	0.155	0.230
-559.500	-200.000	0.022	0.116
-558.485	94.669	0.115	0.133
-557.471	800.000	-0.050	-0.142
-556.456	-37.586	-0.187	0.101
-555.442	110.004	-0.262	-0.318
-554.427	-102.208	0.019	-0.005
-553.412	68.149	0.023	0.023
-552.398	-200.000	0.007	0.181
-551.383	29.120	-0.238	-0.204
-550.369	-110.636	0.325	-0.068
-549.354	-200.000	0.001	-0.404
-548.339	588.167	0.101	-0.252
-547.325	385.541	-0.066	0.137
-546.310	-200.000	-0.035	-0.213
-545.296	-139.898	-0.287	-0.031
-544.281	127.615	-0.070	-0.090
-543.266	94.931	0.130	0.150
-542.252	-56.714	-0.226	0.101
-541.237	89.436	0.101	-0.114
-540.223	-10.356	-0.296	-0.198
-539.208	8.855	0.196	0.150
-538.193	-60.402	0.262	-0.112
-537.179	80.349	-0.193	0.210
-536.164	627.911	0.075	0.191
-535.150	781.135	0.093	0.257
-534.135	117.141	-0.278	0.345
-533.121	81.853	-0.082	-0.090
-532.106	-154.382	-0.125	-0.008
-531.091	574.241	0.127	-0.313
-530.077	-189.721	-0.381	0.004
-529.062	115.463	0.068	-0.084
-528.048	53.374	-0.146	-0.141
-527.033	-35.711	0.264	0.144
-526.018	-69.462	-0.408	0.158
-525.004	-200.000	0.002	0.227
-523.989	80.567	-0.071	0.077
-522.975	103.483	0.101	-0.120
-521.960	-154.582	-0.037	0.002
-520.945	-176.985	0.361	-0.009
-519.931	-52.260	-0.240	-0.112
-518.916	-167.578	-0.122	0.005
-517.902	37.047	-0.127	0.113
-516.887	220.604	0.217	-0.351
-515.872	121.645	0.257	-0.324
-514.858	-200.000	-0.024	0.120
-513.843	257.280	0.085	-0.148
-512.829	800.000	-0.037	-0.144
-511.814	-105.272	0.471	0.108
-510.799	-200.000	-0.028	0.165
-509.785	333.469	-0.154	0.300
-508.770	65.381	0.116	-0.118
-507.756	-200.000	0.033	-0.227
-506.741	-50.245	0.243	0.116
-505.726	255.810	-0.018	-0.030
-504.712	-43.967	0.510	-0.259
-503.697	512.204	0.074	0.173
-502.683	-111.257	-0.093	-0.019
-501.668	210.369	0.066	0.104
-500.653	-100.431	-0.340	0.085
-499.639	-19.281	0.099	0.062
-498.624	-200.000	-0.030	-0.244
-497.610	-83.246	0.113	0.037
-496.595	-103.750	-0.328	-0.078
-495.581	800.000	-0.059	0.221
-494.566	19.792	0.081	0.066
-493.551	-46.031	-0.224	-0.111
-492.537	-184.060	-0.254	-0.004
-491.522	-200.000	-0.304	0.001
-490.508	85.059	-0.122	-0.135
-489.493	406.717	0.061	0.130
-488.478	100.095	-0.280	-0.327
-487.464	-200.000	-0.005	-0.306
-486.449	169.949	-0.225	-0.324
-485.435	-200.000	0.011	-0.306
-484.420	800.000	0.120	0.487
-483.405	800.000	0.103	-0.386
-482.391	-200.000	0.033	0.181
-481.376	-127.592	0.123	-0.018
-480.362	568.104	0.077	-0.189
-479.347	-36.191	0.176	0.095
-478.332	-200.000	-0.049	-0.230
-477.318	-200.000	-0.043	-0.229
-476.303	20.491	0.312	0.254
-475.289	-50.272	-0.284	0.135
-474.274	-200.000	-0.012	0.125
-473.259	482.789	-0.006	-0.013
-472.245	-23.474	0.175	0.106
-471.230	63.739	0.210	-0.212
-470.216	-200.000	-0.006	0.044
-469.201	-28.968	0.325	0.188
-468.186	-200.000	0.015	-0.083
-467.172	138.872	-0.200	0.265
-466.157	-200.000	0.006	0.120
-465.143	-96.475	-0.113	0.030
-464.128	57.647	0.186	0.183
-463.113	645.186	-0.086	0.220
-462.099	-200.000	0.047	0.244
-461.084	9.439	-0.249	0.190
-460.070	184.614	0.113	0.169
-459.055	501.329	-0.091	-0.211
-458.040	-16.750	0.128	-0.081
-457.026	8.631	-0.323	-0.245
-456.011	-160.845	-0.196	0.010
-454.997	657.733	0.033	-0.086
-453.982	-99.679	0.412	0.104
-452.968	-38.720	0.217	-0.115
-451.953	175.333	0.137	-0.200
-450.938	-79.453	0.095	0.032
-449.924	-127.129	-0.409	-0.060
-448.909	800.000	0.037	0.135
-447.895	-24.489	0.110	-0.066
-446.880	36.326	0.196	-0.174
-445.865	-200.000	-0.078	-0.436
-444.851	-73.262	0.074	0.027
-443.836	-114.866	0.155	0.030
-442.822	18.104	-0.013	-0.010
-441.807	752.372	-0.120	0.326
-440.792	18.591	-0.266	-0.214
-439.778	800.000	0.018	-0.064
-438.763	65.229	-0.028	-0.028
-437.749	767.179	-0.154	-0.422
-436.734	206.988	-0.106	-0.167
-435.719	-200.000	0.005	-0.214
-434.705	-75.872	-0.252	-0.090
-433.690	188.455	0.012	0.017
-432.676	-26.405	0.252	0.148
-431.661	34.693	-0.087	0.076
-430.646	-200.000	-0.049	-0.414
-429.632	800.000	-0.020	0.068
-428.617	169.162	-0.099	0.142
-427.603	-97.074	0.374	0.098
-426.588	-11.818	0.378	-0.250
-425.573	-200.000	0.005	0.064
-424.559	800.000	0.042	-0.181
-423.544	800.000	-0.014	-0.041
-422.530	-10.049	0.080	-0.054
-421.515	-36.851	0.214	-0.116
-420.500	-125.817	0.091	0.014
-419.486	-200.000	0.039	0.183
-418.471	-142.294	0.228	0.023
-417.457	800.000	-0.045	-0.126
-416.442	131.884	-0.244	0.316
-415.428	116.986	-0.147	0.181
-414.413	69.688	0.207	-0.214
-413.398	-99.724	0.179	0.045
-412.384	-127.582	0.086	-0.013
-411.369	800.000	-0.071	-0.262
-410.355	356.200	-0.153	-0.305
-409.340	-48.075	-0.242	-0.118
-408.325	299.095	0.185	0.343
-407.311	-52.472	0.213	0.099
-406.296	-186.075	-0.077	0.001
-405.282	83.206	0.165	-0.180
-404.267	-47.650	-0.346	0.169
-403.252	-15.344	-0.076	-0.049
-402.238	19.389	0.242	-0.196
-401.223	139.893	0.189	-0.250
-400.209	800.000	-0.060	0.216
-399.194	27.968	0.188	0.159
-398.179	800.000	-0.017	0.067
-397.165	-200.000	-0.022	0.248
-396.150	395.767	-0.089	0.187
-395.136	-200.000	0.010	0.074
-394.121	-8.831	0.101	-0.068
-393.106	800.000	-0.090	-0.260
-392.092	-74.380	-0.282	-0.102
-391.077	331.089	0.111	0.215
-390.063	-25.541	-0.225	0.134
-389.048	-132.540	-0.102	0.013
-388.033	-121.053	-0.375	-0.063
-387.019	-146.557	-0.238	-0.021
-386.004	527.945	0.007	-0.017
-384.990	-60.008	-0.259	-0.111
-383.975	-100.495	-0.074	0.018
-382.960	66.735	-0.124	-0.126
-381.946	51.308	0.093	-0.088
-380.931	-200.000	-0.000	-0.315
-379.917	-57.592	-0.314	-0.138
-378.902	-152.032	-0.393	-0.029
-377.888	61.755	0.100	-0.100
-376.873	220.140	-0.044	-0.070
-375.858	-58.308	0.486	0.212
-374.844	-62.956	-0.120	0.050
-373.829	-96.354	0.043	0.011
-372.815	132.612	-0.119	0.154
-371.800	17.816	0.220	-0.176
-370.785	-39.960	-0.166	0.087
-369.771	400.195	-0.078	0.164
-368.756	-9.012	0.260	-0.174
-367.742	118.645	-0.103	0.127
-366.727	355.774	-0.057	-0.114
-365.712	230.781	-0.037	0.060
-364.698	-80.702	-0.128	0.043
-363.683	265.459	0.229	-0.400
-362.669	39.118	0.145	0.130
-361.654	335.897	-0.076	-0.148
-360.639	-93.406	0.256	0.071
-359.625	321.244	-0.051	-0.097
-358.610	-200.000	0.033	0.374
-357.596	86.708	-0.105	0.117
-356.581	-67.744	-0.115	-0.045
-355.566	-77.020	0.158	-0.055
-354.552	-194.859	-0.131	-0.001
-353.537	800.000	0.038	-0.128
-352.523	488.433	0.206	0.471
-351.508	-93.199	0.047	-0.013
-350.493	-15.276	-0.108	0.069
-349.479	129.947	0.157	0.202
-348.464	575.682	0.097	-0.238
-347.450	172.557	0.048	0.069
-346.435	-23.397	-0.109	-0.065
-345.420	11.830	0.226	0.174
-344.406	-14.624	0.137	0.088
-343.391	52.508	0.175	0.168
-342.377	425.742	0.140	0.302
-341.362	-200.000	-0.035	0.257
-340.348	-100.159	-0.287	0.072
-339.333	119.051	-0.171	0.212
-338.318	-200.000	0.032	0.195
-337.304	128.326	-0.138	-0.176
-336.289	27.092	0.193	-0.162
-335.275	244.061	-0.083	-0.140
-334.260	372.036	-0.160	-0.325
-333.245	-67.571	-0.190	-0.075
-332.231	800.000	-0.086	0.306
-331.216	212.884	-0.021	-0.034
-330.202	341.672	0.099	-0.193
-329.187	62.811	0.111	-0.111
-328.172	18.969	0.183	-0.147
-327.158	611.926	-0.089	0.222
-326.143	-10.817	0.024	-0.016
-325.129	-200.000	-0.062	0.323
-324.114	-27.677	-0.117	-0.068
-323.099	-53.637	0.201	-0.092
-322.085	65.342	0.162	-0.164
-321.070	-96.930	-0.070	0.018
-320.056	-54.977	-0.127	0.057
-319.041	-196.644	0.237	0.002
-318.026	-96.797	-0.165	-0.043
-317.012	158.582	-0.142	-0.198
-315.997	800.000	-0.087	0.245
-314.983	-151.827	0.379	0.028
-313.968	346.173	-0.107	0.211
-312.953	800.000	-0.031	0.102
-311.939	179.285	-0.127	0.186
-310.924	-94.839	0.247	0.067
-309.910	800.000	-0.010	0.038
-308.895	45.625	0.191	0.176
-307.880	-14.412	-0.217	0.140
-306.866	-81.487	0.360	0.118
-305.851	-40.249	0.342	0.178
-304.837	-200.000	-0.035	0.156
-303.822	119.793	0.304	0.376
-302.807	-67.624	0.160	0.063
-301.793	-102.177	-0.347	-0.084
-300.778	121.210	0.341	0.425
-299.764	-59.942	0.233	-0.099
-298.749	-74.286	-0.328	-0.119
-297.735	81.782	0.106	0.115
-296.720	-200.000	-0.064	-0.350
-295.705	663.679	-0.175	-0.453
-294.691	-160.001	0.455	-0.025
-293.676	-200.000	0.025	-0.121
-292.662	191.745	0.043	-0.064
-291.647	-200.000	-0.044	-0.247
-290.632	132.471	0.138	0.178
-289.618	2.853	0.183	-0.133
-288.603	-74.387	-0.109	-0.039
-287.589	411.311	-0.146	0.310
-286.574	143.544	-0.224	-0.298
-285.559	-110.216	-0.145	-0.030
-284.545	-70.860	0.265	-0.100
-283.530	-116.784	0.184	0.034
-282.516	-200.000	0.034	-0.237
-281.501	105.342	0.166	0.196
-280.486	-70.288	-0.209	-0.079
-279.472	85.107	0.165	-0.181
-278.457	-87.367	0.116	-0.035
-277.443	-144.812	0.325	-0.030
-276.428	-98.277	0.332	0.085
-275.413	215.698	-0.142	0.225
-274.399	409.928	0.102	0.216
-273.384	456.184	0.096	0.214
-272.370	13.714	-0.098	-0.076
-271.355	-70.792	-0.300	-0.113
-270.340	-200.000	-0.024	0.183
-269.326	-125.407	0.302	0.046
-268.311	-117.414	-0.233	0.042
-267.297	-55.601	0.250	0.112
-266.282	-23.918	-0.133	0.079
-265.267	613.919	0.071	0.177
-264.253	800.000	0.019	0.080
-263.238	168.151	0.057	-0.081
-262.224	179.246	0.045	0.065
-261.209	-7.775	-0.133	0.089
-260.195	6.494	-0.105	-0.078
-259.180	-153.086	0.222	-0.016
-258.165	669.541	-0.114	-0.295
-257.151	-200.000	0.010	-0.129
-256.136	-156.555	0.103	-0.006
-255.122	-50.867	-0.266	0.125
-254.107	10.637	-0.271	0.206
-253.092	-26.901	0.177	0.103
-252.078	-200.000	0.060	-0.312
-251.063	-106.654	-0.123	-0.027
-250.049	-69.995	0.272	0.103
-249.034	-200.000	-0.017	-0.316
-248.019	-194.538	-0.174	-0.001
-247.005	95.746	0.047	-0.053
-245.990	175.638	0.068	-0.099
-244.976	394.315	0.053	0.110
-243.961	800.000	0.037	-0.145
-242.946	14.694	0.202	-0.157
-241.932	-200.000	-0.000	-0.154
-240.917	254.103	-0.335	-0.572
-239.903	-119.193	0.307	0.053
-238.888	-190.489	0.167	0.002
-237.873	-75.168	-0.019	0.007
-236.859	-165.695	-0.061	-0.003
-235.844	44.046	0.102	-0.093
-234.830	-136.837	0.143	-0.016
-233.815	-83.972	0.021	0.007
-232.800	-200.000	-0.007	-0.277
-231.786	-112.202	0.370	0.074
-230.771	-4.260	-0.104	0.072
-229.757	800.000	0.067	-0.205
-228.742	277.969	-0.160	0.284
-227.727	-59.847	0.078	-0.033
-226.713	20.798	-0.046	0.037
-225.698	111.852	-0.045	0.054
-224.684	108.289	0.031	0.037
-223.669	-200.000	-0.076	0.483
-222.655	800.000	0.047	-0.204
-221.640	635.492	-0.121	0.307
-220.625	-139.267	0.619	0.066
-219.611	298.538	0.139	-0.255
-218.596	375.183	-0.067	-0.136
-217.582	-9.011	0.222	-0.148
-216.567	411.729	-0.143	-0.302
-215.552	800.000	0.120	0.503
-214.538	-200.000	0.061	-0.465
-213.523	-200.000	-0.001	0.191
-212.509	800.000	0.117	0.407
-211.494	725.820	-0.040	0.107
-210.479	-73.532	0.172	0.063
-209.465	470.082	-0.173	0.388
-208.450	-176.684	-0.443	0.011
-207.436	800.000	-0.151	-0.480
-206.421	-52.038	0.219	0.102
-205.406	-200.000	0.008	0.145
-204.392	-6.239	-0.138	-0.094
-203.377	6.763	0.136	-0.101
-202.363	689.683	0.103	0.270
-201.348	800.000	-0.080	0.299
-200.333	530.973	-0.084	-0.198
-199.319	-83.472	-0.240	0.076
-198.304	278.838	0.143	0.253
-197.290	-10.949	0.179	-0.118
-196.275	66.602	0.103	0.105
-195.260	343.264	-0.088	0.171
-194.246	208.407	0.199	-0.310
-193.231	-200.000	-0.016	0.210
-192.217	477.797	-0.058	-0.131
-191.202	-108.424	-0.074	0.016
-190.187	-112.586	-0.241	0.048
-189.173	-152.897	0.044	0.003
-188.158	619.658	-0.027	-0.068
-187.144	-120.443	0.426	0.072
-186.129	-200.000	-0.026	-0.133
-185.114	-29.213	0.216	0.123
-184.100	-75.782	-0.361	-0.127
-183.085	-43.917	0.155	-0.078
-182.071	-200.000	-0.026	0.318
-181.056	-200.000	-0.019	0.083
-180.042	-89.623	0.244	0.071
-179.027	140.360	-0.198	-0.260
-178.012	150.147	0.093	0.125
-176.998	-200.000	-0.020	0.230
-175.983	58.133	-0.102	0.099
-174.969	-122.118	-0.254	-0.041
-173.954	149.093	0.269	-0.363
-172.939	-200.000	0.008	-0.050
-171.925	115.026	-0.097	-0.117
-170.910	52.746	-0.097	-0.092
-169.896	-200.000	0.008	0.182
-168.881	-33.247	-0.049	-0.027
-167.866	-55.921	-0.187	0.083
-166.852	-76.187	0.243	0.085
-165.837	14.174	-0.327	0.254
-164.823	59.353	-0.169	0.166
-163.808	-81.843	-0.215	-0.070
-162.793	24.638	-0.238	0.196
-161.779	-200.000	-0.073	0.331
-160.764	-143.691	-0.061	0.006
-159.750	3.362	0.113	-0.082
-158.735	120.011	-0.018	0.022
-157.720	-139.799	-0.343	0.036
-156.706	800.000	-0.074	0.283
-155.691	263.550	0.159	-0.275
-154.677	-200.000	-0.031	0.264
-153.662	10.902	0.199	0.151
-152.647	-200.000	-0.019	-0.107
-151.633	-56.622	0.170	-0.075
-150.618	-83.603	0.342	0.109
-149.604	-106.907	0.445	0.098
-148.589	-39.269	0.012	0.006
-147.574	-200.000	-0.016	0.215
-146.560	24.712	0.190	-0.157
-145.545	208.718	0.146	-0.227
-144.531	-24.032	-0.190	0.113
-143.516	135.543	-0.147	0.190
-142.502	-59.930	-0.182	0.077
-141.487	-34.071	0.300	0.164
-140.472	800.000	-0.082	0.267
-139.458	-138.665	0.131	0.014
-138.443	86.026	0.129	0.141
-137.429	121.406	-0.098	0.121
-136.414	-68.154	-0.180	-0.070
-135.399	800.000	0.084	-0.253
-134.385	-87.613	-0.100	0.030
-133.370	800.000	-0.022	0.097
-132.356	220.966	0.058	0.092
-131.341	152.603	-0.104	-0.142
-130.326	170.744	0.107	-0.152
-129.312	-39.664	-0.199	0.103
-128.297	-132.245	-0.067	-0.009
-127.283	-18.387	-0.098	0.061
-126.268	19.438	0.242	-0.193
-125.253	-190.065	-0.185	-0.002
-124.239	-200.000	0.015	-0.104
-123.224	-38.227	-0.063	-0.033
-122.210	-140.902	0.201	0.021
-121.195	-200.000	-0.013	0.224
-120.180	-55.683	0.043	0.019
-119.166	-16.355	0.311	-0.196
-118.151	-200.000	0.025	-0.270
-117.137	800.000	0.047	0.133
-116.122	35.295	-0.161	0.141
-115.107	274.993	0.022	-0.039
-114.093	288.507	0.049	0.087
-113.078	-39.169	0.094	-0.049
-112.064	-200.000	-0.059	0.346
-111.049	259.088	-0.149	-0.256
-110.034	-127.460	0.104	-0.015
-109.020	-112.811	0.417	0.082
-108.005	2.152	0.240	-0.172
-106.991	-41.742	-0.311	0.158
-105.976	-174.695	-0.346	0.010
-104.962	-0.873	-0.229	0.161
-103.947	-21.123	-0.139	-0.085
-102.932	-16.296	0.178	-0.112
-101.918	9.635	-0.040	0.030
-100.903	397.936	-0.142	0.295
-99.889	90.695	-0.159	-0.177
-98.874	-158.222	-0.061	-0.004
-97.859	-161.787	0.305	0.015
-96.845	98.425	-0.248	0.283
-95.830	-18.905	0.302	0.186
-94.816	800.000	-0.079	0.257
-93.801	554.164	-0.058	0.140
-92.786	-149.814	-0.105	0.008
-91.772	-200.000	-0.031	-0.196
-90.757	241.014	-0.103	-0.171
-89.743	-7.828	0.161	0.108
-88.728	68.344	0.092	0.093
-87.713	6.927	-0.176	0.130
-86.699	-200.000	0.021	-0.263
-85.684	-102.828	0.159	0.037
-84.670	173.577	-0.065	0.093
-83.655	-200.000	-0.003	0.093
-82.640	114.755	0.155	-0.188
-81.626	-43.883	0.035	0.017
-80.611	18.447	-0.203	-0.161
-79.597	468.428	0.039	0.088
-78.582	-54.368	-0.074	-0.033
-77.567	-156.980	0.266	0.016
-76.553	-72.512	0.047	-0.017
-75.538	26.649	-0.007	-0.006
-74.524	12.385	0.018	0.014
-73.509	84.716	0.036	0.039
-72.494	-145.328	-0.197	0.018
-71.480	-27.745	-0.372	-0.214
-70.465	-72.601	0.068	0.025
-69.451	46.747	-0.103	-0.095
-68.436	-107.183	0.177	0.039
-67.422	366.356	0.188	0.376
-66.407	800.000	-0.010	0.026
-65.392	-8.770	0.277	0.184
-64.378	-117.011	0.704	0.127
-63.363	332.004	-0.106	0.203
-62.349	-200.000	-0.014	0.353
-61.334	43.862	-0.817	-0.742
-60.319	800.000	0.135	0.543
-59.305	586.386	-0.292	-0.711
-58.290	48.651	0.601	0.558
-57.276	774.603	0.558	1.510
-56.261	-200.000	96.550	575.207
-55.246	649.554	1384.439	3510.348
-54.232	186.870	2599.018	3836.697
-53.217	122.214	2200.479	2722.930
-52.203	45.446	1734.973	1586.554
-51.188	37.984	1545.523	1361.436
-50.173	35.541	1518.072	1320.430
-49.159	54.282	1568.565	1495.775
-48.144	58.115	1587.418	1540.470
-47.130	38.411	1542.910	1361.891
-46.115	35.075	1527.147	1324.884
-45.100	34.972	1523.452	1320.915
-44.086	34.873	1521.965	1318.895
-43.071	34.907	1520.305	1317.639
-42.057	34.785	1518.713	1315.362
-41.042	34.884	1517.312	1314.777
-40.027	34.873	1515.760	1313.307
-39.013	34.841	1513.942	1311.459
-37.998	34.801	1513.155	1310.450
-36.984	34.913	1511.900	1310.082
-35.969	34.816	1510.895	1308.491
-34.954	34.820	1509.311	1307.095
-33.940	34.748	1507.940	1305.363
-32.925	34.883	1506.259	1304.781
-31.911	34.831	1505.158	1303.417
-30.896	34.897	1503.761	1302.605
-29.881	35.003	1502.275	1301.987
-28.867	34.897	1500.664	1299.823
-27.852	34.944	1499.251	1298.866
-26.838	34.891	1497.943	1297.324
-25.823	35.002	1496.128	1296.450
-24.809	34.898	1494.831	1294.574
-23.794	35.013	1493.318	1293.985
-22.779	34.856	1492.946	1292.551
-21.765	34.900	1491.528	1291.572
-20.750	35.050	1489.805	1291.041
-19.736	35.025	1488.885	1290.024
-18.721	34.867	1487.993	1288.136
-17.706	34.842	1487.038	1287.089
-16.692	34.778	1485.871	1285.597
-15.677	34.882	1484.527	1285.080
-14.663	34.885	1483.578	1284.227
-13.648	34.861	1482.606	1283.172
-12.633	34.835	1481.977	1282.405
-11.619	34.877	1480.949	1281.748
-10.604	34.824	1480.167	1280.666
-9.590	34.846	1478.907	1279.668
-8.575	34.889	1478.387	1279.457
-7.560	34.871	1477.360	1278.399
-6.546	34.862	1476.953	1277.930
-5.531	34.855	1475.880	1276.905
-4.517	34.872	1474.781	1276.017
-3.502	34.931	1473.775	1275.492
-2.487	34.904	1472.927	1274.528
-1.473	34.870	1471.800	1273.275
-0.458	34.780	1470.667	1271.645
0.556	36.854	1461.271	1261.036
1.571	33.670	1433.825	1216.859
2.586	29.402	1369.037	1135.569
3.600	27.009	1284.855	1051.806
4.615	24.694	1236.580	999.276
5.629	20.801	1179.782	932.490
6.644	12.637	1095.247	824.843
7.659	6.187	1054.129	762.611
8.673	5.111	1048.408	753.211
9.688	4.946	1044.978	749.889
10.702	4.681	1043.420	747.432
11.717	4.983	1042.089	747.859
12.731	8.115	1045.522	765.311
13.746	16.202	1056.033	812.005
14.761	21.760	1062.636	843.848
15.775	22.000	1062.579	844.884
16.790	21.304	1060.516	839.823
17.804	20.094	1058.851	832.621
18.819	19.243	1057.132	827.110
19.834	18.828	1055.918	824.099
20.848	18.681	1054.506	822.217
21.863	18.587	1054.231	821.484
22.877	18.402	1053.524	819.971
23.892	18.229	1052.793	818.503
24.907	18.042	1052.184	817.062
25.921	18.188	1050.598	816.457
26.936	18.032	1050.392	815.481
27.950	18.224	1048.974	815.223
28.965	18.091	1048.430	814.092
29.980	18.244	1046.518	813.266
30.994	18.385	1046.054	813.503
32.009	18.419	1045.100	812.850
33.023	18.471	1044.936	812.896
34.038	18.493	1043.566	811.863
35.053	18.367	1042.981	810.741
36.067	18.238	1041.739	809.091
37.082	18.245	1040.757	808.292
38.096	18.268	1040.372	808.031
39.111	18.385	1039.539	807.861
40.126	18.566	1038.462	807.808
41.140	18.265	1037.333	805.442
42.155	18.079	1036.246	803.650
43.169	18.040	1034.889	802.347
44.184	17.773	1034.544	800.752
45.199	17.902	1032.424	799.643
46.213	17.778	1031.992	798.658
47.228	17.981	1030.831	798.640
48.242	18.180	1030.214	799.019
49.257	18.258	1029.281	798.591
50.271	18.203	1028.284	797.489
51.286	18.220	1027.710	797.054
52.301	18.318	1026.955	796.855
53.315	18.216	1026.411	795.887
54.330	18.166	1025.442	794.830
55.344	17.934	1024.552	792.992
56.359	18.075	1022.712	792.153
57.374	18.080	1022.005	791.561
58.388	17.897	1021.512	790.258
59.403	17.952	1020.067	789.327
60.417	17.886	1019.831	788.768
61.432	17.936	1018.782	788.119
62.447	17.920	1018.196	787.521
63.461	17.682	1017.839	786.076
64.476	17.768	1016.292	785.212
65.490	17.712	1015.742	784.458
66.505	17.761	1014.416	783.590
67.520	17.762	1013.771	783.026
68.534	17.603	1013.313	781.873
69.549	17.803	1012.192	781.857
70.563	17.745	1011.461	780.958
71.578	17.625	1011.286	780.203
72.593	17.525	1010.325	778.935
73.607	17.429	1009.078	777.467
74.622	17.437	1008.447	776.948
75.636	17.575	1007.074	776.450
76.651	17.574	1006.244	775.739
77.666	17.525	1005.738	775.055
78.680	17.675	1004.757	774.915
79.695	17.584	1004.450	774.193
80.709	17.588	1003.948	773.757
81.724	17.786	1003.047	773.893
82.739	17.941	1002.274	773.932
83.753	18.017	1001.515	773.621
84.768	18.181	1000.897	773.818
85.782	18.398	1000.063	774.085
86.797	18.464	999.914	774.200
87.812	18.564	998.836	773.746
88.826	18.415	997.873	772.261
89.841	18.261	996.937	770.774
90.855	18.392	996.470	770.934
91.870	18.382	995.999	770.457
92.884	18.511	995.311	770.437
93.899	18.434	994.159	769.132
94.914	18.487	993.311	768.643
95.928	18.539	992.801	768.417
96.943	18.565	992.067	767.893
97.957	18.349	991.287	766.259
98.972	18.477	990.400	766.075
99.987	18.463	989.839	765.513
101.001	18.457	988.659	764.506
102.016	18.279	988.485	763.506
103.030	18.276	987.231	762.460
104.045	18.390	985.967	761.922
105.060	18.406	985.575	761.622
106.074	18.260	984.448	760.039
107.089	18.098	983.072	758.188
108.103	17.808	982.405	756.324
109.118	17.902	981.184	755.729
110.133	17.789	980.647	754.752
111.147	17.756	979.264	753.472
112.162	17.606	978.418	752.095
113.176	17.851	977.589	752.471
114.191	17.883	976.879	752.000
115.206	17.941	976.168	751.640
116.220	17.923	975.246	750.782
117.235	17.991	974.257	750.256
118.249	17.843	973.928	749.285
119.264	17.884	972.877	748.592
120.279	17.910	971.957	747.932
121.293	17.748	971.275	746.629
122.308	17.703	970.524	745.791
123.322	17.574	969.588	744.442
124.337	17.674	968.287	743.812
125.352	17.556	967.320	742.490
126.366	17.589	966.198	741.707
127.381	17.558	965.388	740.885
128.395	17.587	964.275	740.089
129.410	17.717	963.246	739.798
130.424	17.762	962.670	739.487
131.439	17.754	961.877	738.779
132.454	17.733	961.375	738.235
133.468	17.923	960.761	738.519
134.483	17.931	960.108	737.988
135.497	17.934	959.527	737.487
136.512	17.943	958.711	736.836
137.527	17.974	957.784	736.192
138.541	17.880	957.178	735.254
139.556	18.037	956.377	735.249
140.570	17.904	955.782	734.156
141.585	18.133	955.011	734.483
142.600	18.315	954.508	734.811
143.614	18.226	954.257	734.172
144.629	18.320	952.948	733.503
145.643	18.658	951.979	734.139
146.658	18.426	951.408	732.640
147.673	18.262	950.272	731.003
148.687	18.120	949.463	729.709
149.702	17.956	948.826	728.454
150.716	17.983	947.689	727.634
151.731	17.882	947.147	726.721
152.746	18.017	946.127	726.449
153.760	18.025	945.442	725.892
154.775	18.031	944.667	725.258
155.789	18.113	943.851	724.915
156.804	18.218	943.162	724.767
157.819	18.138	942.215	723.639
158.833	18.427	941.275	724.071
159.848	18.497	940.899	724.017
160.862	18.499	940.483	723.638
161.877	18.476	940.026	723.126
162.892	18.154	938.933	720.863
163.906	18.077	937.464	719.349
164.921	17.972	936.810	718.340
165.935	18.022	935.615	717.573
166.950	17.975	935.048	716.877
167.964	18.199	934.017	716.962
168.979	18.220	932.689	715.967
169.994	18.108	931.885	714.819
171.008	18.206	930.394	714.022
172.023	18.100	930.491	713.588
173.037	18.185	929.656	713.241
174.052	18.537	928.873	714.041
175.067	18.478	928.525	713.464
176.081	18.224	927.392	711.477
177.096	17.984	926.513	709.741
178.110	17.930	925.913	708.994
179.125	17.914	925.142	708.274
180.140	18.203	924.279	708.750
181.154	18.129	923.508	707.790
182.169	18.309	923.085	708.146
183.183	18.407	922.570	708.096
184.198	18.579	921.427	707.864
185.213	18.497	921.103	707.215
186.227	18.576	920.438	706.968
187.242	18.556	920.031	706.508
188.256	18.504	919.876	706.115
189.271	18.612	918.919	705.761
190.286	18.683	918.262	705.486
191.300	18.578	916.967	703.997
192.315	18.075	916.179	701.267
193.329	17.883	915.559	699.946
194.344	17.910	914.542	699.216
195.359	18.026	914.209	699.374
196.373	18.133	913.964	699.562
197.388	18.277	913.484	699.723
198.402	18.601	912.648	700.341
199.417	18.718	912.533	700.668
200.432	18.766	912.273	700.603
201.446	19.016	911.814	701.208
202.461	18.892	911.412	700.332
203.475	18.893	911.105	700.037
204.490	18.916	910.427	699.549
205.504	18.720	909.244	697.782
206.519	18.633	908.472	696.774
207.534	18.580	907.799	695.982
208.548	18.622	907.208	695.635
209.563	18.681	906.299	695.115
210.577	18.692	905.853	694.758
211.592	18.513	905.407	693.631
212.607	18.731	904.759	693.953
213.621	18.942	904.561	694.592
214.636	18.958	903.262	693.601
215.650	18.706	903.491	692.698
216.665	18.841	902.766	692.623
217.680	18.783	902.094	691.814
218.694	18.963	901.629	692.119
219.709	18.969	901.415	691.919
220.723	18.904	900.344	690.776
221.738	18.906	899.767	690.276
222.753	18.997	898.797	689.837
223.767	18.764	898.139	688.337
224.782	18.911	897.358	688.266
225.796	19.055	896.686	688.265
226.811	19.142	896.040	688.059
227.826	18.943	895.876	687.077
228.840	19.083	894.221	686.303
229.855	18.974	893.711	685.419
230.869	18.953	893.051	684.767
231.884	18.897	892.488	684.051
232.899	18.832	891.975	683.339
233.913	18.816	891.080	682.531
234.928	18.821	890.500	682.044
235.942	18.644	889.716	680.680
236.957	18.689	889.047	680.289
237.972	18.760	888.455	680.057
238.986	18.766	887.724	679.462
240.001	18.853	886.915	679.126
241.015	18.809	886.449	678.534
242.030	18.659	885.928	677.485
243.045	18.813	885.583	677.765
244.059	18.868	884.962	677.449
245.074	18.908	884.016	676.824
246.088	18.981	883.635	676.759
247.103	19.019	883.349	676.627
248.117	19.195	882.934	676.941
249.132	19.213	882.144	676.346
250.147	19.498	881.511	676.921
251.161	19.770	881.002	677.535
252.176	19.709	880.949	677.198
253.190	19.662	880.000	676.222
254.205	19.795	879.250	676.104
255.220	19.821	879.009	675.964
256.234	19.699	878.480	675.019
257.249	19.694	877.802	674.420
258.263	19.872	876.776	674.264
259.278	19.631	876.639	673.161
260.293	19.768	875.975	673.125
261.307	19.800	875.672	672.957
262.322	19.894	874.909	672.678
263.336	19.900	874.250	672.134
264.351	19.932	873.632	671.723
265.366	19.891	873.171	671.149
266.380	20.036	872.211	670.915
267.395	19.991	871.654	670.252
268.409	19.877	870.941	669.205
269.424	19.759	870.502	668.350
270.439	19.877	869.670	668.109
271.453	19.812	868.766	667.103
272.468	19.691	868.003	665.992
273.482	19.711	867.296	665.471
274.497	19.695	867.110	665.207
275.512	19.637	865.791	663.913
276.526	19.648	865.361	663.568
277.541	19.512	865.203	662.864
278.555	19.724	864.292	662.923
279.570	19.962	864.003	663.552
280.585	20.012	864.004	663.687
281.599	20.255	862.982	663.772
282.614	19.793	862.249	661.385
283.628	20.002	861.367	661.446
284.643	19.786	860.933	660.229
285.657	19.699	860.726	659.681
286.672	19.964	859.784	659.913
287.687	19.784	859.454	658.913
288.701	19.924	859.075	659.099
289.716	19.944	858.443	658.632
290.730	19.945	858.001	658.239
291.745	19.910	857.453	657.626
292.760	19.922	856.581	656.943
293.774	20.115	855.850	657.057
294.789	20.123	856.092	657.216
295.803	20.107	855.461	656.611
296.818	20.039	854.314	655.416
297.833	20.046	853.243	654.564
298.847	20.003	852.948	654.118
299.862	19.977	852.024	653.250
300.876	19.965	851.730	652.923
301.891	20.108	851.088	652.914
302.906	20.345	850.428	653.240
303.920	20.252	849.928	652.448
304.935	20.321	849.289	652.161
305.949	20.584	848.886	652.780
306.964	20.377	848.273	651.473
307.979	20.274	847.564	650.486
308.993	20.224	847.250	650.001
310.008	20.305	846.640	649.776
311.022	20.527	846.054	650.099
312.037	20.540	845.464	649.638
313.052	20.432	844.645	648.550
314.066	20.058	844.306	646.834
315.081	19.907	843.850	645.864
316.095	20.019	843.249	645.766
317.110	20.017	842.418	645.063
318.125	20.071	842.130	644.987
319.139	20.061	841.352	644.299
320.154	19.996	841.294	643.956
321.168	20.080	840.341	643.479
322.183	20.089	839.974	643.176
323.197	20.127	839.439	642.849
324.212	20.246	839.000	642.899
325.227	20.235	838.771	642.626
326.241	20.239	837.678	641.745
327.256	20.190	837.247	641.178
328.270	20.171	836.607	640.560
329.285	20.193	835.621	639.831
330.300	20.148	835.584	639.578
331.314	20.139	834.711	638.822
332.329	20.148	834.264	638.456
333.343	20.306	833.664	638.522
334.358	20.396	833.279	638.499
335.373	20.428	832.926	638.291
336.387	20.441	832.005	637.578
337.402	20.467	832.049	637.650
338.416	20.624	830.708	637.140
339.431	20.640	830.701	637.137
340.446	20.684	829.900	636.629
341.460	20.731	829.753	636.629
342.475	20.897	829.023	636.621
343.489	20.699	828.988	635.812
344.504	20.924	828.105	635.902
345.519	21.001	827.705	635.817
346.533	21.153	827.225	635.948
347.548	21.073	826.673	635.176
348.562	20.837	826.351	634.014
349.577	20.840	824.814	632.788
350.592	20.625	824.738	631.895
351.606	20.639	824.047	631.360
352.621	20.758	823.286	631.152
353.635	20.640	822.922	630.390
354.650	20.598	822.772	630.065
355.665	20.675	822.976	630.445
356.679	20.707	822.061	629.807
357.694	20.870	821.720	630.078
358.708	20.862	820.428	629.003
359.723	20.832	820.619	628.983
360.738	20.862	819.653	628.295
361.752	20.776	819.533	627.838
362.767	20.892	819.126	627.892
363.781	20.894	818.793	627.585
364.796	20.992	818.718	627.826
365.810	21.151	818.342	628.054
366.825	21.305	817.820	628.151
367.840	21.457	817.298	628.240
368.854	21.402	816.725	627.548
369.869	21.235	816.097	626.413
370.883	21.268	815.300	625.862
371.898	21.227	814.633	625.148
372.913	21.376	814.071	625.193
373.927	21.343	813.943	624.923
374.942	21.159	813.441	623.825
375.956	21.230	812.792	623.526
376.971	21.225	812.176	622.980
377.986	21.508	811.337	623.289
379.000	21.561	811.074	623.222
380.015	21.545	811.013	623.061
381.029	21.554	810.110	622.343
382.044	21.582	809.347	621.802
383.059	21.536	808.942	621.274
384.073	21.520	808.532	620.846
385.088	21.506	807.721	620.121
386.102	21.370	807.238	619.213
387.117	21.331	806.418	618.390
388.132	21.262	806.204	617.928
389.146	21.238	805.390	617.163
390.161	21.246	805.343	617.102
391.175	21.212	805.406	616.975
392.190	21.436	804.708	617.177
393.205	21.641	804.235	617.482
394.219	21.230	804.019	615.813
395.234	21.308	803.092	615.324
396.248	21.198	802.703	614.582
397.263	21.132	802.278	613.971
398.278	21.146	801.448	613.332
399.292	21.123	800.877	612.758
400.307	21.144	800.654	612.607
401.321	21.204	800.186	612.406
402.336	21.189	799.626	611.871
403.350	21.280	799.279	611.868
404.365	21.390	798.883	611.896
405.380	21.357	799.003	611.820
406.394	21.447	798.377	611.601
407.409	21.663	797.918	611.948
408.423	21.802	797.442	612.015
409.438	21.804	797.053	611.671
410.453	21.902	796.597	611.606
411.467	22.094	796.120	611.856
412.482	21.953	795.833	611.090
413.496	21.955	795.164	610.529
414.511	22.086	795.151	610.923
415.526	22.026	794.607	610.239
416.540	21.784	794.395	609.184
417.555	21.883	793.740	608.971
418.569	21.965	792.872	608.533
419.584	21.974	792.581	608.289
420.599	21.934	792.126	607.748
421.613	158.966	1368.148	1789.043
422.628	137.715	1452.087	1789.151
