DTS Sentinel unit serial number:	SN413079Multiplexer serial number:	ORYXHardware model number:	OX4-SRSoftware version number:	ORYX F/W v4.00 Oryx Data Collector v3.7.2.0data status	okinstallation	princeton_trtdifferential loss correction	single-endedforward channel	channel 3reverse channel	N/Adate	2019/09/18time	22:08:35forward acquisition time	60.00reverse acquisition time	0.00gamma	496.2192k internal	0.2344k external	0.2344temperature offset calibration	0.9992default loss term (dB/km)	0.3790temperature slope calibration	1.0000multiplexer offset coefficient	1.0000multiplexer slope coefficient	1.0000fibre end	0.00T internal ref (°C)	24.47T ext. ref 1 (°C)	0.81T ext. ref 2 (°C)	18.26length (m)	temperature (°C)	Stokes	anti-Stokes-747.200	800.000	-0.029	0.115
-746.185	-200.000	-0.021	-0.137
-745.171	-90.231	0.322	0.094
-744.156	-114.984	-0.250	0.048
-743.142	72.753	-0.272	0.284
-742.127	-200.000	-0.004	0.417
-741.112	10.936	0.108	-0.083
-740.098	-113.909	-0.031	0.006
-739.083	-21.016	0.174	0.106
-738.069	-80.263	-0.224	-0.075
-737.054	800.000	0.085	0.241
-736.039	59.944	-0.148	-0.146
-735.025	-200.000	0.003	0.223
-734.010	74.332	0.139	0.147
-732.996	-171.444	-0.331	-0.011
-731.981	195.176	-0.176	0.268
-730.966	-200.000	-0.019	-0.180
-729.952	-89.491	-0.228	0.067
-728.937	74.574	-0.283	0.297
-727.923	-183.823	-0.139	-0.002
-726.908	95.418	-0.159	0.182
-725.894	-200.000	0.029	0.147
-724.879	18.012	-0.080	0.064
-723.864	410.131	-0.156	-0.331
-722.850	-74.958	-0.286	-0.102
-721.835	-184.443	0.126	-0.002
-720.821	231.298	-0.159	-0.260
-719.806	-200.000	0.010	-0.273
-718.791	9.928	-0.189	-0.143
-717.777	-200.000	-0.025	0.250
-716.762	170.716	0.283	0.405
-715.748	-200.000	0.006	0.095
-714.733	-66.912	-0.245	0.097
-713.718	-77.790	-0.184	-0.064
-712.704	99.031	-0.276	-0.319
-711.689	796.657	0.073	0.202
-710.675	-200.000	0.045	-0.370
-709.660	141.275	-0.118	0.157
-708.645	26.440	0.381	-0.318
-707.631	-62.144	0.191	-0.080
-706.616	-85.801	-0.126	0.039
-705.602	14.835	-0.301	-0.235
-704.587	-138.605	0.109	0.012
-703.572	800.000	-0.031	-0.107
-702.558	-29.267	0.183	-0.104
-701.543	6.909	-0.010	0.008
-700.529	800.000	0.040	0.125
-699.514	-82.902	0.121	0.039
-698.499	103.378	0.134	0.157
-697.485	-143.970	0.085	-0.008
-696.470	-21.108	0.049	-0.030
-695.456	-200.000	-0.006	0.203
-694.441	-67.278	-0.055	-0.022
-693.426	-87.916	0.401	-0.121
-692.412	-200.000	-0.053	-0.319
-691.397	-114.554	-0.260	-0.050
-690.383	14.683	0.063	-0.049
-689.368	-171.411	-0.263	0.009
-688.354	-17.335	0.295	-0.186
-687.339	86.004	-0.181	0.199
-686.324	-7.313	-0.054	0.036
-685.310	-78.903	0.054	-0.018
-684.295	-200.000	0.101	-0.507
-683.281	22.203	-0.138	-0.112
-682.266	-173.448	-0.032	0.001
-681.251	-21.296	0.084	0.051
-680.237	-164.145	-0.433	0.020
-679.222	-200.000	-0.018	-0.188
-678.208	-131.357	-0.042	-0.006
-677.193	800.000	0.078	0.235
-676.178	800.000	0.004	0.012
-675.164	39.745	-0.086	-0.077
-674.149	539.838	-0.041	0.097
-673.135	-200.000	-0.040	-0.207
-672.120	-105.975	0.430	-0.097
-671.105	614.765	-0.045	-0.112
-670.091	87.658	0.125	0.138
-669.076	-131.468	-0.216	-0.028
-668.062	800.000	-0.030	-0.085
-667.047	-122.221	0.416	-0.068
-666.032	290.538	-0.108	0.196
-665.018	-160.829	0.228	0.012
-664.003	-33.454	-0.175	0.096
-662.989	-200.000	0.039	-0.300
-661.974	-10.222	-0.096	-0.063
-660.959	-61.922	0.172	0.072
-659.945	-128.082	-0.271	0.039
-658.930	-200.000	0.017	-0.314
-657.916	-52.378	-0.158	0.073
-656.901	800.000	0.096	-0.284
-655.886	74.470	0.168	0.176
-654.872	-38.854	0.163	0.085
-653.857	122.686	0.072	0.090
-652.843	-186.405	-0.247	-0.004
-651.828	78.237	-0.028	-0.030
-650.814	-26.745	-0.122	0.071
-649.799	-45.102	-0.129	-0.064
-648.784	19.351	0.114	-0.091
-647.770	-200.000	-0.008	-0.072
-646.755	-117.321	-0.250	-0.045
-645.741	95.044	0.114	-0.129
-644.726	-200.000	0.017	-0.094
-643.711	243.930	-0.069	0.116
-642.697	-60.486	0.253	-0.107
-641.682	-64.515	-0.123	-0.050
-640.668	-86.226	-0.076	0.023
-639.653	-200.000	-0.036	-0.159
-638.638	-17.312	-0.356	0.223
-637.624	-200.000	0.016	0.132
-636.609	-200.000	-0.029	-0.218
-635.595	-17.224	0.103	0.064
-634.580	800.000	-0.066	-0.231
-633.565	-200.000	-0.041	-0.201
-632.551	431.701	0.067	-0.145
-631.536	5.021	-0.222	0.162
-630.522	800.000	0.049	0.215
-629.507	317.144	0.144	0.271
-628.492	-124.860	-0.266	-0.041
-627.478	64.429	-0.147	0.147
-626.463	-79.830	-0.108	-0.036
-625.449	118.936	-0.135	0.166
-624.434	12.304	0.195	0.150
-623.419	800.000	-0.094	-0.262
-622.405	800.000	-0.087	-0.321
-621.390	-95.090	-0.215	0.058
-620.376	-200.000	-0.019	-0.314
-619.361	-94.578	0.082	-0.022
-618.346	-103.641	0.277	-0.065
-617.332	190.919	-0.072	-0.108
-616.317	800.000	-0.043	0.130
-615.303	3.342	-0.236	0.171
-614.288	143.873	-0.109	0.145
-613.273	-77.492	-0.408	-0.141
-612.259	12.785	-0.220	-0.169
-611.244	197.698	-0.287	0.436
-610.230	-95.756	0.375	0.100
-609.215	96.836	-0.099	0.112
-608.201	800.000	-0.109	-0.371
-607.186	-25.517	0.295	-0.173
-606.171	-109.250	-0.066	0.014
-605.157	-168.452	-0.310	0.012
-604.142	-200.000	-0.081	-0.501
-603.128	35.461	0.181	-0.158
-602.113	-77.050	0.140	0.049
-601.098	301.175	0.087	0.160
-600.084	-54.078	0.169	0.077
-599.069	-200.000	-0.047	-0.223
-598.055	185.679	-0.107	-0.159
-597.040	800.000	-0.071	0.195
-596.025	-123.271	0.212	-0.034
-595.011	52.453	-0.205	-0.194
-593.996	98.581	0.194	-0.223
-592.982	13.418	0.092	0.071
-591.967	161.869	-0.253	-0.352
-590.952	148.504	-0.125	0.168
-589.938	150.976	0.119	-0.161
-588.923	410.476	0.136	-0.286
-587.909	-199.437	0.061	0.000
-586.894	-67.784	-0.091	0.036
-585.879	-58.136	-0.129	-0.056
-584.865	-106.020	-0.252	-0.056
-583.850	-84.631	-0.151	-0.047
-582.836	9.585	0.018	0.013
-581.821	-99.432	0.122	0.031
-580.806	-106.976	-0.284	-0.062
-579.792	-200.000	0.011	0.115
-578.777	-121.947	0.167	-0.027
-577.763	124.608	0.101	-0.126
-576.748	-9.511	0.044	0.029
-575.733	-200.000	0.066	0.354
-574.719	-200.000	0.002	0.110
-573.704	800.000	-0.116	0.375
-572.690	-142.718	0.114	-0.011
-571.675	800.000	0.012	-0.053
-570.661	-167.499	-0.229	-0.009
-569.646	-189.527	-0.461	-0.005
-568.631	189.095	-0.054	-0.080
-567.617	-89.309	-0.359	-0.105
-566.602	717.363	0.252	-0.666
-565.588	-62.754	-0.093	-0.038
-564.573	-87.549	-0.061	-0.018
-563.558	-31.041	-0.213	0.120
-562.544	-74.452	0.180	0.064
-561.529	278.683	0.085	0.150
-560.515	-114.209	-0.204	-0.039
-559.500	-200.000	0.007	0.071
-558.485	800.000	-0.050	0.207
-557.471	800.000	-0.036	0.141
-556.456	-53.113	-0.098	0.045
-555.442	-12.930	0.127	-0.082
-554.427	-35.818	-0.141	0.076
-553.412	-200.000	-0.053	0.249
-552.398	-70.349	0.251	-0.095
-551.383	135.220	0.122	-0.158
-550.369	-85.451	-0.242	0.075
-549.354	-116.056	0.183	0.034
-548.339	-155.200	0.321	-0.021
-547.325	114.882	0.128	0.155
-546.310	-200.000	0.366	0.000
-545.296	-91.953	0.065	0.018
-544.281	278.067	-0.140	-0.248
-543.266	-69.920	0.185	0.070
-542.252	800.000	-0.108	-0.300
-541.237	124.086	-0.125	-0.156
-540.223	-37.758	0.326	-0.172
-539.208	508.926	-0.116	0.267
-538.193	-23.631	0.189	-0.112
-537.179	-50.609	0.261	-0.122
-536.164	-60.763	-0.152	-0.064
-535.150	100.588	-0.075	0.087
-534.135	-59.365	-0.312	0.133
-533.121	-177.191	0.079	0.002
-532.106	-103.416	0.101	0.024
-531.091	800.000	-0.084	-0.285
-530.077	-149.064	-0.208	0.017
-529.062	-184.984	0.321	-0.005
-528.048	800.000	0.031	0.123
-527.033	-183.884	0.326	-0.005
-526.018	-78.648	-0.201	-0.068
-525.004	-175.959	0.427	-0.011
-523.989	62.433	-0.120	0.119
-522.975	800.000	-0.081	-0.244
-521.960	-21.539	0.093	-0.056
-520.945	800.000	-0.071	-0.209
-519.931	380.106	-0.118	0.239
-518.916	332.842	0.232	-0.444
-517.902	800.000	-0.036	0.111
-516.887	-200.000	0.012	-0.158
-515.872	-19.414	-0.309	0.190
-514.858	-104.040	0.099	-0.023
-513.843	53.760	-0.111	-0.106
-512.829	800.000	-0.118	-0.495
-511.814	116.813	-0.198	-0.241
-510.799	-200.000	-0.070	-0.361
-509.785	-200.000	0.051	0.262
-508.770	56.238	-0.156	-0.150
-507.756	-71.423	0.320	-0.119
-506.741	-134.053	0.214	-0.026
-505.726	5.945	-0.289	-0.212
-504.712	-131.066	-0.306	0.041
-503.697	-102.297	0.199	0.047
-502.683	800.000	-0.062	0.180
-501.668	-39.400	-0.093	-0.048
-500.653	-200.000	-0.013	0.061
-499.639	21.807	0.215	-0.173
-498.624	-82.928	0.018	0.006
-497.610	42.928	-0.062	0.056
-496.595	331.192	0.090	0.172
-495.581	47.550	0.106	0.098
-494.566	-200.000	-0.019	0.153
-493.551	-31.422	0.152	-0.085
-492.537	56.522	-0.220	-0.212
-491.522	-36.186	0.341	-0.182
-490.508	-200.000	0.021	-0.130
-489.493	-200.000	0.018	-0.184
-488.478	800.000	0.064	0.234
-487.464	-114.502	-0.181	0.034
-486.449	-200.000	-0.006	-0.184
-485.435	800.000	0.081	-0.343
-484.420	162.543	-0.173	-0.240
-483.405	-87.561	-0.239	-0.072
-482.391	-200.000	0.015	0.245
-481.376	2.909	-0.149	0.107
-480.362	-90.798	-0.047	-0.013
-479.347	-80.638	0.129	-0.043
-478.332	-108.513	-0.296	0.063
-477.318	-136.101	-0.248	-0.029
-476.303	69.569	-0.212	0.216
-475.289	-26.795	-0.103	0.059
-474.274	-143.796	0.146	-0.014
-473.259	800.000	0.050	0.166
-472.245	-117.832	-0.113	-0.020
-471.230	-200.000	0.022	-0.108
-470.216	80.345	-0.204	0.218
-469.201	174.681	-0.281	-0.402
-468.186	-160.173	0.086	0.005
-467.172	668.830	-0.039	-0.101
-466.157	-109.878	-0.272	0.057
-465.143	-62.469	-0.127	0.052
-464.128	-85.810	-0.311	0.096
-463.113	-90.163	0.177	0.051
-462.099	744.383	-0.119	0.317
-461.084	-200.000	-0.011	0.329
-460.070	-91.820	-0.153	0.043
-459.055	-9.970	0.187	-0.123
-458.040	-200.000	-0.020	-0.120
-457.026	-157.352	-0.290	0.017
-456.011	100.481	0.181	0.208
-454.997	-179.439	0.146	-0.003
-453.982	-71.826	0.167	0.062
-452.968	746.317	-0.088	-0.235
-451.953	800.000	0.043	-0.119
-450.938	-200.000	0.002	-0.292
-449.924	781.260	-0.026	0.071
-448.909	96.461	-0.259	-0.293
-447.895	-16.224	0.049	-0.031
-446.880	-25.386	0.172	0.101
-445.865	110.060	-0.205	-0.243
-444.851	534.979	0.068	0.159
-443.836	1.706	0.201	-0.143
-442.822	-27.467	0.057	0.033
-441.807	-23.322	0.169	0.100
-440.792	290.476	-0.095	0.171
-439.778	-126.429	-0.035	0.005
-438.763	-43.683	0.219	0.109
-437.749	536.696	0.061	0.143
-436.734	19.797	-0.184	-0.146
-435.719	-3.603	0.162	0.112
-434.705	120.965	-0.036	0.045
-433.690	-200.000	-0.028	-0.186
-432.676	-200.000	-0.053	-0.311
-431.661	453.456	0.200	-0.437
-430.646	125.736	0.096	0.120
-429.632	-64.806	-0.060	0.024
-428.617	-146.168	0.043	-0.004
-427.603	-33.974	0.113	0.062
-426.588	16.299	-0.341	0.266
-425.573	218.797	-0.060	0.095
-424.559	173.833	0.229	0.326
-423.544	-172.090	-0.241	-0.008
-422.530	5.937	-0.237	0.174
-421.515	3.163	-0.041	0.029
-420.500	7.028	-0.118	-0.087
-419.486	-64.736	-0.328	0.131
-418.471	-106.638	0.157	0.034
-417.457	524.970	-0.037	-0.085
-416.442	103.032	0.115	0.133
-415.428	-126.398	0.102	-0.015
-414.413	169.647	-0.138	0.195
-413.398	371.653	0.162	-0.324
-412.384	-131.472	0.210	0.027
-411.369	-124.454	0.106	-0.016
-410.355	-200.000	-0.008	0.221
-409.340	271.223	0.174	-0.302
-408.325	18.658	0.038	0.030
-407.311	-167.244	0.064	0.003
-406.296	-103.914	0.161	0.037
-405.282	-112.293	-0.211	0.042
-404.267	-51.460	0.318	0.147
-403.252	-141.056	-0.299	-0.030
-402.238	61.541	0.304	0.298
-401.223	217.159	0.149	-0.235
-400.209	161.283	-0.084	-0.116
-399.194	6.353	-0.320	0.234
-398.179	-64.177	0.308	0.124
-397.165	315.020	0.110	0.205
-396.150	-200.000	-0.071	0.000
-395.136	800.000	-0.116	-0.357
-394.121	800.000	-0.103	0.336
-393.106	34.403	0.226	0.195
-392.092	-48.050	-0.301	-0.144
-391.077	474.070	-0.179	-0.398
-390.063	120.029	0.063	0.078
-389.048	174.072	0.093	-0.132
-388.033	800.000	0.066	0.273
-387.019	-63.812	0.065	-0.026
-386.004	4.454	0.090	-0.065
-384.990	-148.247	-0.157	0.013
-383.975	352.352	0.125	-0.245
-382.960	-75.173	-0.467	-0.165
-381.946	-200.000	-0.063	-0.496
-380.931	82.075	-0.125	0.134
-379.917	431.862	-0.025	0.054
-378.902	-86.609	-0.362	0.109
-377.888	-153.240	-0.130	-0.009
-376.873	-94.239	-0.078	0.021
-375.858	-200.000	-0.013	0.278
-374.844	-107.982	-0.033	0.007
-373.829	800.000	-0.066	-0.258
-372.815	60.739	0.279	0.273
-371.800	433.206	-0.052	-0.111
-370.785	56.964	0.070	-0.067
-369.771	-18.036	0.102	0.063
-368.756	284.203	-0.080	-0.142
-367.742	-57.698	-0.040	0.017
-366.727	-162.991	0.124	-0.006
-365.712	-134.129	0.219	-0.027
-364.698	5.065	-0.119	0.087
-363.683	42.258	0.304	0.272
-362.669	-106.943	-0.458	0.100
-361.654	-95.551	0.202	0.053
-360.639	265.464	0.100	-0.172
-359.625	216.153	-0.133	0.208
-358.610	11.372	-0.099	-0.074
-357.596	128.813	0.099	-0.124
-356.581	-104.423	-0.094	-0.021
-355.566	-190.966	-0.138	0.001
-354.552	800.000	0.125	0.517
-353.537	800.000	-0.083	0.245
-352.523	27.044	-0.149	0.124
-351.508	369.412	0.064	0.127
-350.493	-200.000	0.016	0.252
-349.479	-54.427	-0.261	-0.117
-348.464	25.539	-0.127	-0.104
-347.450	-54.426	0.399	0.178
-346.435	-175.616	-0.105	-0.003
-345.420	-200.000	-0.339	0.000
-344.406	-200.000	0.064	0.308
-343.391	7.798	-0.128	-0.095
-342.377	314.549	-0.071	0.132
-341.362	129.684	-0.057	0.072
-340.348	78.146	0.202	-0.213
-339.333	-200.000	-0.015	0.338
-338.318	96.103	0.182	-0.205
-337.304	110.195	0.126	0.149
-336.289	104.948	0.053	0.062
-335.275	229.840	0.165	-0.265
-334.260	-38.542	0.221	0.115
-333.245	108.052	0.065	0.077
-332.231	38.372	0.285	0.250
-331.216	-162.223	-0.113	0.006
-330.202	-56.845	-0.084	0.037
-329.187	-200.000	-0.038	-0.469
-328.172	636.752	-0.022	-0.055
-327.158	197.224	0.086	0.129
-326.143	800.000	0.061	0.179
-325.129	-200.000	-0.010	-0.123
-324.114	146.980	0.186	0.246
-323.099	260.383	-0.107	0.182
-322.085	138.375	0.035	0.045
-321.070	-200.000	0.056	-0.396
-320.056	-200.000	-0.025	-0.123
-319.041	66.227	0.329	-0.329
-318.026	-200.000	0.030	0.243
-317.012	486.811	0.093	0.208
-315.997	-200.000	-0.009	-0.237
-314.983	-73.157	-0.107	-0.039
-313.968	-47.602	-0.146	-0.070
-312.953	60.462	-0.210	-0.205
-311.939	-200.000	-0.011	-0.097
-310.924	-18.665	0.277	0.170
-309.910	-139.712	0.156	-0.016
-308.895	-200.000	0.032	-0.276
-307.880	-200.000	-0.053	0.370
-306.866	-117.312	0.183	0.033
-305.851	-200.000	-0.036	0.208
-304.837	-114.461	0.291	-0.055
-303.822	61.703	-0.097	0.095
-302.807	74.645	0.067	0.069
-301.793	36.476	0.153	0.132
-300.778	-200.000	-0.012	0.235
-299.764	-3.745	-0.275	0.188
-298.749	-200.000	0.005	-0.099
-297.735	399.101	-0.054	0.111
-296.720	800.000	0.054	0.189
-295.705	800.000	-0.054	-0.147
-294.691	174.162	-0.110	-0.156
-293.676	-200.000	0.054	0.251
-292.662	-70.459	0.287	0.107
-291.647	-156.517	-0.215	-0.013
-290.632	-45.886	0.285	0.138
-289.618	278.480	0.030	0.053
-288.603	177.810	0.118	0.170
-287.589	598.859	-0.033	-0.081
-286.574	-200.000	-0.055	0.309
-285.559	-200.000	-0.018	0.269
-284.545	-13.545	-0.033	-0.021
-283.530	-82.269	0.247	-0.079
-282.516	-54.079	-0.179	0.080
-281.501	800.000	-0.103	0.308
-280.486	-27.597	0.222	0.126
-279.472	-200.000	-0.011	-0.582
-278.457	-27.818	-0.181	-0.103
-277.443	335.790	-0.144	-0.275
-276.428	-34.798	-0.175	-0.094
-275.413	-118.352	0.046	0.008
-274.399	435.187	0.096	0.206
-273.384	800.000	0.031	0.104
-272.370	64.690	-0.205	-0.204
-271.355	-71.473	0.174	0.064
-270.340	459.074	0.075	-0.163
-269.326	800.000	-0.105	0.401
-268.311	62.759	-0.105	0.103
-267.297	109.079	0.123	-0.145
-266.282	363.983	0.139	-0.275
-265.267	2.799	-0.228	-0.163
-264.253	-103.152	0.431	-0.100
-263.238	-200.000	0.020	-0.155
-262.224	-200.000	-0.018	-0.185
-261.209	-51.867	-0.188	-0.086
-260.195	-33.722	0.034	0.019
-259.180	-92.236	-0.127	0.035
-258.165	800.000	0.082	-0.294
-257.151	590.957	-0.070	-0.169
-256.136	-87.973	-0.111	-0.033
-255.122	45.336	0.134	0.121
-254.107	219.122	-0.279	-0.439
-253.092	37.983	0.095	-0.083
-252.078	-200.000	0.017	0.293
-251.063	-70.508	0.380	-0.141
-250.049	49.949	0.313	0.289
-249.034	-200.000	-0.024	0.390
-248.019	-70.712	-0.145	0.054
-247.005	-134.998	0.354	0.042
-245.990	70.112	-0.199	0.202
-244.976	-13.830	0.207	0.132
-243.961	-200.000	-0.008	-0.342
-242.946	-129.574	0.271	0.037
-241.932	-200.000	0.078	-0.513
-240.917	32.915	-0.194	0.165
-239.903	-67.251	-0.382	0.147
-238.888	-200.000	0.050	-0.256
-237.873	800.000	0.031	0.098
-236.859	-152.841	0.156	0.011
-235.844	-78.961	0.328	-0.109
-234.830	800.000	0.040	0.155
-233.815	-117.118	0.057	0.010
-232.800	-200.000	-0.012	0.135
-231.786	377.719	0.074	-0.149
-230.771	138.027	0.059	0.075
-229.757	372.960	-0.039	-0.079
-228.742	-159.303	0.156	-0.009
-227.727	-16.521	-0.301	-0.187
-226.713	-79.640	0.297	-0.098
-225.698	202.689	-0.094	0.142
-224.684	63.575	0.283	0.279
-223.669	43.556	0.285	0.255
-222.655	638.402	-0.059	-0.146
-221.640	414.005	-0.122	-0.255
-220.625	-16.709	0.331	-0.205
-219.611	126.674	-0.084	0.104
-218.596	800.000	-0.047	-0.158
-217.582	-62.934	-0.072	0.029
-216.567	-200.000	0.024	-0.145
-215.552	421.356	0.081	0.170
-214.538	-43.535	0.267	0.132
-213.523	361.351	0.014	0.027
-212.509	216.929	0.165	0.257
-211.494	-105.732	-0.184	-0.041
-210.479	83.780	0.113	-0.120
-209.465	-7.739	-0.184	0.122
-208.450	-77.523	-0.374	-0.127
-207.436	329.518	-0.112	0.212
-206.421	-65.187	-0.282	-0.111
-205.406	89.365	-0.104	-0.113
-204.392	-6.043	-0.287	-0.192
-203.377	-200.000	0.047	0.413
-202.363	-200.000	0.001	0.164
-201.348	-200.000	0.016	0.281
-200.333	800.000	-0.067	0.239
-199.319	-142.801	0.307	-0.029
-198.304	-200.000	0.011	0.103
-197.290	386.599	-0.067	-0.135
-196.275	-200.000	0.012	0.084
-195.260	161.542	0.097	-0.132
-194.246	-130.743	-0.116	0.015
-193.231	-111.226	-0.094	-0.019
-192.217	-200.000	0.032	0.337
-191.202	33.472	-0.325	-0.276
-190.187	135.477	0.212	0.270
-189.173	-123.826	0.223	-0.034
-188.158	-200.000	0.022	0.289
-187.144	800.000	-0.055	0.164
-186.129	318.586	0.146	0.271
-185.114	98.966	-0.222	0.251
-184.100	173.868	0.028	0.039
-183.085	-95.582	0.509	0.134
-182.071	124.892	-0.089	0.110
-181.056	-200.000	-0.018	-0.274
-180.042	183.802	-0.075	-0.108
-179.027	-200.000	-0.007	0.268
-178.012	-85.056	0.170	0.052
-176.998	-34.971	-0.212	0.113
-175.983	173.545	0.083	-0.117
-174.969	-23.934	0.437	-0.256
-173.954	214.274	0.151	0.235
-172.939	211.670	0.233	-0.359
-171.925	169.174	-0.095	-0.132
-170.910	-103.539	0.241	-0.055
-169.896	-200.000	-0.008	-0.232
-168.881	224.341	0.116	0.183
-167.866	377.182	0.081	-0.162
-166.852	-98.625	0.139	-0.035
-165.837	219.294	0.219	0.343
-164.823	-146.424	-0.117	-0.010
-163.808	346.335	-0.114	-0.220
-162.793	143.465	0.094	0.123
-161.779	800.000	-0.122	-0.474
-160.764	344.173	0.057	0.109
-159.750	171.659	-0.165	0.232
-158.735	800.000	0.057	0.207
-157.720	235.060	-0.161	0.259
-156.706	-74.916	0.250	-0.088
-155.691	159.698	0.123	-0.168
-154.677	187.246	-0.057	-0.084
-153.662	613.309	-0.022	0.053
-152.647	-200.000	-0.004	0.206
-151.633	-86.302	0.230	0.069
-150.618	-200.000	-0.035	-0.318
-149.604	-162.445	0.171	-0.008
-148.589	386.745	0.088	-0.177
-147.574	-13.638	-0.191	0.121
-146.560	-15.068	-0.178	-0.112
-145.545	-124.431	-0.236	-0.036
-144.531	31.190	-0.179	-0.150
-143.516	119.211	0.075	0.091
-142.502	773.348	-0.048	-0.128
-141.487	-19.539	0.220	0.133
-140.472	684.074	0.133	0.339
-139.458	54.866	-0.041	0.038
-138.443	-73.723	-0.539	-0.192
-137.429	800.000	0.082	-0.291
-136.414	-200.000	0.013	-0.327
-135.399	800.000	0.060	0.166
-134.385	43.448	0.095	0.085
-133.370	-173.318	-0.076	0.002
-132.356	-125.859	-0.203	0.030
-131.341	-151.126	-0.211	0.015
-130.326	-200.000	0.027	0.148
-129.312	-200.000	-0.013	0.170
-128.297	-200.000	-0.005	-0.061
-127.283	266.560	0.087	-0.148
-126.268	-133.184	0.139	0.017
-125.253	-52.982	-0.314	0.141
-124.239	124.264	-0.086	-0.106
-123.224	416.597	0.050	-0.104
-122.210	-200.000	-0.023	-0.268
-121.195	76.625	0.302	-0.313
-120.180	-200.000	0.016	-0.223
-119.166	144.138	-0.082	0.106
-118.151	335.003	-0.278	0.526
-117.137	181.035	0.127	-0.183
-116.122	736.773	-0.054	0.141
-115.107	93.225	0.098	0.108
-114.093	47.624	0.197	-0.179
-113.078	23.709	0.191	0.153
-112.064	-200.000	-0.004	-0.380
-111.049	-200.000	0.025	-0.319
-110.034	16.803	-0.128	-0.099
-109.020	149.962	0.147	0.195
-108.005	-200.000	-0.002	-0.107
-106.991	81.837	-0.126	-0.133
-105.976	-200.000	0.055	0.303
-104.962	-69.388	-0.355	0.133
-103.947	800.000	-0.073	-0.226
-102.932	513.979	0.092	0.208
-101.918	-106.355	-0.281	-0.061
-100.903	15.320	0.306	0.234
-99.889	55.234	-0.342	0.323
-98.874	-8.443	0.156	0.103
-97.859	-16.209	0.308	-0.191
-96.845	-102.539	0.395	-0.092
-95.830	754.509	0.043	-0.114
-94.816	31.719	0.152	-0.128
-93.801	-120.623	0.110	-0.018
-92.786	-200.000	-0.008	-0.150
-91.772	-178.331	-0.199	0.005
-90.757	124.891	-0.049	-0.060
-89.743	616.712	-0.050	-0.121
-88.728	118.618	-0.193	0.233
-87.713	48.235	-0.143	-0.131
-86.699	285.530	0.119	-0.209
-85.684	-200.000	-0.005	0.158
-84.670	-32.865	-0.147	-0.080
-83.655	-200.000	0.042	-0.237
-82.640	-176.545	-0.196	0.005
-81.626	-49.502	0.442	-0.205
-80.611	-171.774	-0.260	0.008
-79.597	76.805	-0.314	0.325
-78.582	-78.476	0.190	0.063
-77.567	-75.572	0.063	0.022
-76.553	800.000	-0.075	0.251
-75.538	-91.770	-0.313	-0.087
-74.524	93.369	0.127	0.140
-73.509	501.465	-0.107	0.242
-72.494	-200.000	0.023	-0.458
-71.480	800.000	0.067	-0.255
-70.465	-31.973	0.119	-0.065
-69.451	-43.297	-0.232	0.115
-68.436	-200.000	-0.009	-0.297
-67.422	528.822	-0.113	0.260
-66.407	800.000	0.035	0.135
-65.392	-149.814	0.257	-0.020
-64.378	-107.995	-0.292	0.062
-63.363	-200.000	0.005	-0.285
-62.349	-136.037	0.395	0.045
-61.334	7.481	-1.307	-0.952
-60.319	197.576	0.661	0.983
-59.305	800.000	-0.509	-1.485
-58.290	398.328	0.729	1.486
-57.276	800.000	0.518	1.610
-56.261	-200.000	120.653	638.283
-55.246	433.554	1532.291	3240.490
-54.232	149.835	2677.987	3536.050
-53.217	98.239	2153.196	2415.426
-52.203	34.878	1680.935	1432.467
-51.188	27.556	1499.898	1228.974
-50.173	25.575	1476.021	1196.200
-49.159	48.384	1545.250	1408.862
-48.144	46.060	1558.806	1405.285
-47.130	27.534	1508.692	1235.834
-46.115	24.720	1493.008	1204.021
-45.100	24.508	1489.694	1199.875
-44.086	24.434	1488.355	1198.250
-43.071	24.347	1486.182	1195.867
-42.057	24.477	1484.288	1195.166
-41.042	24.475	1482.939	1194.021
-40.027	24.528	1481.327	1193.030
-39.013	24.471	1479.754	1191.336
-37.998	24.415	1478.270	1189.717
-36.984	24.368	1477.744	1188.937
-35.969	24.432	1475.753	1187.716
-34.954	24.468	1474.222	1186.675
-33.940	24.377	1473.375	1185.338
-32.925	24.437	1471.866	1184.474
-31.911	24.477	1470.471	1183.570
-30.896	24.428	1469.263	1182.230
-29.881	24.486	1468.012	1181.559
-28.867	24.567	1466.687	1180.985
-27.852	24.564	1465.532	1179.983
-26.838	24.486	1464.492	1178.588
-25.823	24.522	1462.937	1177.527
-24.809	24.500	1460.664	1175.502
-23.794	24.466	1459.686	1174.450
-22.779	24.506	1459.093	1174.188
-21.765	24.553	1457.494	1173.161
-20.750	24.469	1456.628	1171.864
-19.736	24.512	1455.190	1170.947
-18.721	24.506	1454.415	1170.236
-17.706	24.488	1453.261	1169.142
-16.692	24.464	1451.986	1167.916
-15.677	24.553	1450.619	1167.348
-14.663	24.458	1450.497	1166.586
-13.648	24.390	1449.500	1165.291
-12.633	24.551	1448.321	1165.348
-11.619	24.545	1447.621	1164.700
-10.604	24.391	1447.132	1163.256
-9.590	24.399	1446.204	1162.518
-8.575	24.447	1445.148	1161.933
-7.560	24.567	1443.852	1161.625
-6.546	24.489	1443.537	1160.818
-5.531	24.413	1442.809	1159.691
-4.517	24.473	1441.028	1158.605
-3.502	24.533	1440.307	1158.367
-2.487	24.479	1439.852	1157.605
-1.473	24.447	1438.625	1156.366
-0.458	24.395	1437.752	1155.282
0.556	23.448	1427.785	1143.767
1.571	20.316	1403.305	1104.163
2.586	16.534	1342.295	1033.008
3.600	14.890	1259.761	959.972
4.615	14.008	1216.714	922.198
5.629	12.448	1161.060	871.668
6.644	6.642	1080.827	782.629
7.659	1.586	1044.546	732.007
8.673	0.945	1039.567	725.382
9.688	0.830	1036.419	722.571
10.702	0.718	1034.737	720.802
11.717	0.748	1032.739	719.489
12.731	2.779	1033.986	729.963
13.746	9.154	1042.412	766.345
14.761	15.280	1049.957	801.182
15.775	17.467	1051.961	813.102
16.790	17.109	1050.840	810.454
17.804	16.006	1048.663	803.446
18.819	15.266	1046.887	798.491
19.834	14.772	1045.781	795.224
20.848	14.530	1044.492	793.023
21.863	14.273	1044.114	791.446
22.877	14.085	1043.019	789.656
23.892	13.830	1041.942	787.559
24.907	13.752	1041.370	786.689
25.921	13.710	1040.927	786.084
26.936	13.746	1040.228	785.657
27.950	13.925	1039.057	785.551
28.965	13.890	1038.564	784.941
29.980	13.972	1037.486	784.447
30.994	14.014	1036.692	783.971
32.009	14.024	1035.962	783.398
33.023	13.955	1035.697	782.803
34.038	14.046	1034.642	782.365
35.053	13.980	1033.882	781.412
36.067	13.932	1032.958	780.419
37.082	13.928	1032.230	779.778
38.096	13.787	1031.774	778.706
39.111	13.914	1030.922	778.590
40.126	13.946	1030.151	778.089
41.140	13.966	1028.961	777.215
42.155	13.836	1027.872	775.713
43.169	13.921	1026.996	775.382
44.184	13.783	1025.976	773.901
45.199	13.766	1025.230	773.190
46.213	13.624	1024.519	771.922
47.228	13.842	1022.778	771.557
48.242	13.876	1022.076	771.116
49.257	13.807	1021.536	770.322
50.271	14.006	1020.054	770.058
51.286	13.816	1019.358	768.584
52.301	13.914	1018.446	768.280
53.315	13.936	1017.730	767.774
54.330	13.912	1016.852	766.934
55.344	13.804	1016.315	765.963
56.359	13.861	1015.124	765.258
57.374	13.821	1014.142	764.266
58.388	13.919	1013.033	763.816
59.403	13.807	1012.571	762.883
60.417	13.847	1011.560	762.238
61.432	13.909	1010.881	761.945
62.447	13.750	1010.520	760.873
63.461	13.807	1009.805	760.529
64.476	13.722	1008.664	759.215
65.490	13.733	1007.989	758.689
66.505	13.848	1006.703	758.179
67.520	13.672	1006.715	757.319
68.534	13.741	1005.895	756.948
69.549	13.759	1004.996	756.288
70.563	13.867	1004.303	756.190
71.578	13.856	1003.402	755.394
72.593	13.736	1002.621	754.196
73.607	13.805	1001.714	753.762
74.622	13.815	1000.664	752.951
75.636	13.714	999.731	751.723
76.651	13.739	999.201	751.373
77.666	13.631	998.419	750.229
78.680	13.735	997.521	749.955
79.695	13.598	997.737	749.434
80.709	13.670	996.683	748.898
81.724	13.783	995.849	748.716
82.739	13.799	994.792	747.929
83.753	13.796	994.311	747.489
84.768	13.846	993.271	746.865
85.782	13.882	992.797	746.604
86.797	14.003	991.730	746.278
87.812	14.092	990.261	745.505
88.826	13.956	990.213	744.794
89.841	13.953	989.308	744.033
90.855	13.929	988.722	743.421
91.870	13.995	987.743	742.914
92.884	14.104	986.638	742.505
93.899	14.039	986.136	741.770
94.914	13.993	985.442	740.976
95.928	14.167	984.620	741.068
96.943	14.122	983.933	740.284
97.957	14.024	983.399	739.381
98.972	13.959	982.638	738.454
99.987	13.900	982.202	737.801
101.001	13.863	981.211	736.829
102.016	14.122	980.037	737.029
103.030	13.990	979.229	735.773
104.045	13.998	978.263	735.016
105.060	13.949	977.409	734.091
106.074	14.037	976.809	733.966
107.089	14.041	975.502	732.935
108.103	13.917	974.770	731.772
109.118	13.854	974.084	730.917
110.133	13.782	973.333	729.971
111.147	13.883	972.114	729.437
112.162	13.850	971.316	728.629
113.176	13.833	970.467	727.852
114.191	13.874	969.961	727.588
115.206	13.932	968.983	727.047
116.220	13.831	968.267	726.002
117.235	13.961	967.235	725.734
118.249	13.979	966.539	725.225
119.264	13.991	965.342	724.315
120.279	13.906	964.868	723.523
121.293	13.909	963.902	722.747
122.308	13.800	963.353	721.800
123.322	13.869	962.432	721.343
124.337	13.859	961.248	720.349
125.352	13.907	960.611	720.015
126.366	13.776	958.923	718.122
127.381	13.800	958.133	717.568
128.395	13.992	956.536	717.139
129.410	13.764	956.264	715.889
130.424	13.826	955.336	715.397
131.439	13.760	954.558	714.467
132.454	13.865	953.371	713.965
133.468	13.920	952.888	713.778
134.483	13.944	952.550	713.566
135.497	13.965	951.360	712.699
136.512	13.805	950.870	711.585
137.527	13.792	950.375	711.097
138.541	13.902	949.581	710.908
139.556	13.802	948.759	709.803
140.570	13.961	947.499	709.475
141.585	13.965	947.320	709.295
142.600	13.947	946.662	708.667
143.614	14.107	945.678	708.548
144.629	14.097	944.793	707.779
145.643	14.119	944.426	707.535
146.658	14.056	943.550	706.547
147.673	14.193	942.171	706.037
148.687	13.890	941.948	704.518
149.702	14.042	941.019	704.406
150.716	14.125	939.558	703.602
151.731	14.152	938.727	703.033
152.746	13.972	938.446	701.998
153.760	14.088	937.293	701.565
154.775	14.029	937.268	701.234
155.789	14.123	935.948	700.580
156.804	14.123	935.330	700.055
157.819	14.113	934.709	699.488
158.833	14.258	933.861	699.401
159.848	14.162	933.427	698.609
160.862	14.171	932.634	697.994
161.877	14.250	931.800	697.636
162.892	14.105	931.447	696.703
163.906	14.328	929.918	696.431
164.921	14.200	929.300	695.370
165.935	14.130	928.321	694.287
166.950	14.297	927.431	694.255
167.964	14.261	926.644	693.454
168.979	14.288	925.650	692.762
169.994	14.104	924.975	691.432
171.008	14.152	924.056	690.881
172.023	14.198	923.151	690.336
173.037	14.345	922.154	690.138
174.052	14.260	921.591	689.301
175.067	14.275	921.017	688.872
176.081	14.360	920.006	688.410
177.096	14.169	919.567	687.230
178.110	14.244	918.855	686.945
179.125	14.261	917.744	686.127
180.140	14.272	916.799	685.401
181.154	14.273	916.493	685.116
182.169	14.279	915.816	684.577
183.183	14.410	915.377	684.725
184.198	14.321	914.356	683.538
185.213	14.387	913.825	683.348
186.227	14.477	912.765	682.864
187.242	14.543	912.295	682.725
188.256	14.544	911.519	682.087
189.271	14.555	911.079	681.740
190.286	14.472	910.081	680.596
191.300	14.453	909.581	680.084
192.315	14.332	909.250	679.283
193.329	14.360	908.088	678.467
194.344	14.388	907.505	678.086
195.359	14.454	907.178	678.051
196.373	14.506	906.206	677.474
197.388	14.456	906.157	677.175
198.402	14.531	905.969	677.280
199.417	14.535	905.561	676.932
200.432	14.626	904.507	676.453
201.446	14.679	904.029	676.249
202.461	14.722	903.986	676.333
203.475	14.745	903.269	675.827
204.490	14.747	902.490	675.193
205.504	14.704	901.872	674.500
206.519	14.740	900.863	673.831
207.534	14.753	900.232	673.351
208.548	14.672	899.376	672.323
209.563	14.831	898.506	672.253
210.577	14.616	898.151	671.063
211.592	14.696	897.550	670.879
212.607	14.909	896.943	671.218
213.621	14.943	896.081	670.652
214.636	14.847	895.185	669.536
215.650	14.996	894.774	669.766
216.665	14.820	894.358	668.693
217.680	14.948	893.795	668.725
218.694	14.841	893.417	667.952
219.709	15.020	892.749	668.112
220.723	14.898	891.978	666.988
221.738	15.051	891.279	667.017
222.753	14.889	890.805	665.956
223.767	15.040	889.776	665.728
224.782	14.986	888.833	664.749
225.796	15.006	888.358	664.417
226.811	15.024	887.793	664.007
227.826	15.046	887.215	663.604
228.840	15.013	886.665	663.000
229.855	15.105	885.451	662.400
230.869	15.005	885.529	662.004
231.884	15.035	884.915	661.602
232.899	14.935	884.256	660.657
233.913	14.947	883.669	660.207
234.928	15.097	882.759	660.059
235.942	15.057	881.973	659.257
236.957	15.037	881.376	658.674
237.972	15.058	880.630	658.142
238.986	15.071	879.664	657.413
240.001	15.127	879.486	657.442
241.015	15.127	878.847	656.904
242.030	15.208	877.901	656.456
243.045	15.086	877.487	655.613
244.059	15.230	876.708	655.533
245.074	15.406	875.559	655.305
246.088	15.177	875.404	654.238
247.103	15.319	875.152	654.545
248.117	15.279	874.201	653.618
249.132	15.298	873.774	653.315
250.147	15.400	872.736	652.878
251.161	15.479	872.012	652.587
252.176	15.498	871.711	652.379
253.190	15.405	871.156	651.542
254.205	15.570	870.584	651.698
255.220	15.696	869.782	651.527
256.234	15.587	869.229	650.633
257.249	15.761	868.264	650.528
258.263	15.607	868.233	649.851
259.278	15.481	867.653	648.873
260.293	15.668	866.804	648.903
261.307	15.676	866.653	648.761
262.322	15.728	865.768	648.243
263.336	15.681	865.135	647.531
264.351	15.742	864.671	647.361
265.366	15.769	864.076	646.962
266.380	15.762	863.673	646.577
267.395	15.847	863.187	646.481
268.409	15.911	862.026	645.802
269.424	15.947	860.994	645.107
270.439	15.830	860.890	644.526
271.453	15.906	859.946	644.053
272.468	15.803	859.140	642.997
273.482	15.740	858.868	642.498
274.497	15.968	857.930	642.609
275.512	15.678	857.618	641.213
276.526	15.846	856.608	641.038
277.541	15.802	856.113	640.444
278.555	15.748	855.794	639.944
279.570	15.845	855.034	639.689
280.585	15.941	854.720	639.760
281.599	15.816	854.341	638.946
282.614	15.920	853.330	638.526
283.628	16.045	852.404	638.251
284.643	16.038	852.093	637.935
285.657	15.908	851.505	636.947
286.672	15.997	851.089	636.918
287.687	15.973	850.711	636.486
288.701	16.051	850.275	636.399
289.716	16.105	849.497	635.964
290.730	16.022	848.962	635.196
291.745	16.026	848.537	634.835
292.760	16.190	847.305	634.473
293.774	16.130	846.877	633.873
294.789	16.138	846.359	633.459
295.803	16.154	845.877	633.100
296.818	16.230	845.474	633.030
297.833	16.259	844.558	632.395
298.847	16.185	843.862	631.541
299.862	16.269	843.187	631.294
300.876	16.253	842.397	630.587
301.891	16.275	841.449	629.903
302.906	16.365	841.228	630.020
303.920	16.403	840.576	629.616
304.935	16.450	839.815	629.165
305.949	16.479	839.266	628.807
306.964	16.433	838.825	628.250
307.979	16.267	838.487	627.322
308.993	16.267	838.060	626.950
310.008	16.517	837.323	627.270
311.022	16.340	836.903	626.244
312.037	16.469	836.117	626.077
313.052	16.459	835.706	625.676
314.066	16.428	835.437	625.305
315.081	16.481	834.521	624.760
316.095	16.441	833.813	624.028
317.110	16.433	833.581	623.769
318.125	16.576	832.856	623.701
319.139	16.454	832.484	622.917
320.154	16.461	831.768	622.351
321.168	16.523	831.664	622.446
322.183	16.495	831.001	621.792
323.197	16.564	830.320	621.482
324.212	16.675	829.621	621.312
325.227	16.576	829.241	620.606
326.241	16.594	828.637	620.165
327.256	16.491	828.151	619.371
328.270	16.645	827.321	619.258
329.285	16.662	826.869	618.928
330.300	16.609	826.611	618.484
331.314	16.660	825.726	617.955
332.329	16.634	824.952	617.227
333.343	16.807	824.290	617.308
334.358	16.718	824.167	616.835
335.373	16.793	823.620	616.646
336.387	16.752	823.047	616.012
337.402	16.820	822.538	615.825
338.416	16.743	822.139	615.190
339.431	16.787	821.257	614.635
340.446	16.732	820.894	614.110
341.460	16.966	820.136	614.337
342.475	16.918	819.410	613.565
343.489	17.001	818.997	613.501
344.504	17.161	818.513	613.664
345.519	17.025	818.062	612.780
346.533	16.986	817.591	612.233
347.548	16.925	817.092	611.585
348.562	16.943	816.639	611.256
349.577	17.068	815.997	611.171
350.592	16.934	815.612	610.345
351.606	16.973	815.391	610.268
352.621	16.942	814.877	609.716
353.635	16.948	814.321	609.267
354.650	17.053	814.058	609.394
355.665	16.972	813.828	608.879
356.679	17.061	812.929	608.470
357.694	17.211	812.543	608.666
358.708	17.148	811.778	607.814
359.723	17.231	811.269	607.673
360.738	17.046	810.901	606.682
361.752	17.080	810.254	606.268
362.767	17.203	810.171	606.593
363.781	17.055	810.038	605.910
364.796	17.255	808.922	605.733
365.810	17.290	808.541	605.520
366.825	17.272	808.037	605.024
367.840	17.330	808.020	605.164
368.854	17.355	807.399	604.734
369.869	17.277	807.192	604.248
370.883	17.231	806.935	603.841
371.898	17.227	806.266	603.273
372.913	17.397	805.371	603.153
373.927	17.423	805.013	602.924
374.942	17.413	804.361	602.346
375.956	17.341	803.736	601.570
376.971	17.474	802.937	601.389
377.986	17.426	802.577	600.897
379.000	17.634	801.949	601.107
380.015	17.540	801.774	600.590
381.029	17.594	800.849	600.033
382.044	17.668	800.456	599.946
383.059	17.708	799.642	599.424
384.073	17.673	799.235	598.945
385.088	17.560	798.806	598.174
386.102	17.587	798.398	597.909
387.117	17.499	798.166	597.371
388.132	17.540	797.453	596.929
389.146	17.689	796.973	597.039
390.161	17.543	796.768	596.322
391.175	17.608	796.199	596.071
392.190	17.821	795.811	596.472
393.205	17.692	795.113	595.445
394.219	17.724	795.046	595.454
395.234	17.811	794.314	595.157
396.248	17.690	794.314	594.684
397.263	17.760	793.565	594.314
398.278	17.704	792.813	593.503
399.292	17.742	792.430	593.295
400.307	17.884	791.808	593.272
401.321	17.790	791.547	592.697
402.336	17.669	791.745	592.372
403.350	17.644	791.014	591.684
404.365	17.857	790.533	592.011
405.380	17.897	789.866	591.599
406.394	17.890	789.407	591.180
407.409	17.962	789.153	591.184
408.423	17.903	788.670	590.569
409.438	18.013	788.080	590.454
410.453	17.960	787.863	590.055
411.467	17.957	787.487	589.711
412.482	18.020	786.906	589.443
413.496	18.127	786.280	589.288
414.511	18.063	786.024	588.823
415.526	18.108	785.909	588.841
416.540	18.110	785.247	588.301
417.555	18.168	784.839	588.142
418.569	18.086	784.699	587.704
419.584	18.095	783.988	587.151
420.599	18.082	783.668	586.814
421.613	115.994	1295.186	1488.833
422.628	99.689	1369.674	1488.929
