DTS Sentinel unit serial number:	SN413079Multiplexer serial number:	ORYXHardware model number:	OX4-SRSoftware version number:	ORYX F/W v4.00 Oryx Data Collector v3.7.2.0data status	okinstallation	princeton_trtdifferential loss correction	single-endedforward channel	channel 3reverse channel	N/Adate	2019/09/19time	01:20:35forward acquisition time	60.00reverse acquisition time	0.00gamma	496.2192k internal	0.2348k external	0.2348temperature offset calibration	0.9990default loss term (dB/km)	0.3790temperature slope calibration	1.0000multiplexer offset coefficient	1.0000multiplexer slope coefficient	1.0000fibre end	0.00T internal ref (°C)	21.69T ext. ref 1 (°C)	0.70T ext. ref 2 (°C)	15.09length (m)	temperature (°C)	Stokes	anti-Stokes-747.200	40.071	-0.169	-0.152
-746.185	108.112	0.106	0.126
-745.171	-200.000	-0.012	-0.052
-744.156	-76.208	-0.141	0.050
-743.142	-64.306	0.217	0.088
-742.127	39.671	-0.241	0.216
-741.112	-200.000	0.030	-0.174
-740.098	-200.000	0.028	0.259
-739.083	198.981	0.021	-0.033
-738.069	296.671	-0.172	0.315
-737.054	-69.320	-0.333	-0.128
-736.039	-66.716	-0.334	0.132
-735.025	-8.192	0.138	0.093
-734.010	-132.727	-0.356	-0.046
-732.996	-135.677	-0.244	0.029
-731.981	295.736	0.135	0.247
-730.966	760.247	-0.118	0.319
-729.952	564.723	-0.191	-0.463
-728.937	27.833	-0.280	-0.236
-727.923	-200.000	-0.019	0.202
-726.908	756.718	-0.178	-0.482
-725.894	600.863	0.079	-0.196
-724.879	-100.489	-0.140	-0.035
-723.864	-131.439	0.093	-0.012
-722.850	-53.541	0.271	0.124
-721.835	285.697	-0.178	-0.320
-720.821	49.827	-0.205	-0.193
-719.806	-200.000	0.009	-0.129
-718.791	191.643	-0.127	-0.191
-717.777	-200.000	0.018	0.220
-716.762	63.923	-0.081	0.081
-715.748	172.957	-0.110	-0.158
-714.733	-19.370	0.287	0.178
-713.718	-35.749	0.217	-0.117
-712.704	-125.438	-0.117	0.018
-711.689	-124.877	-0.283	0.044
-710.675	-200.000	-0.038	-0.313
-709.660	245.315	-0.040	-0.068
-708.645	-51.174	-0.215	-0.100
-707.631	5.011	-0.165	0.121
-706.616	284.809	0.165	-0.297
-705.602	-200.000	0.028	-0.156
-704.587	800.000	0.122	-0.527
-703.572	136.003	0.040	0.052
-702.558	-200.000	0.037	0.233
-701.543	-158.418	-0.233	0.013
-700.529	-45.449	-0.290	0.144
-699.514	481.365	-0.097	-0.220
-698.499	-120.123	0.062	-0.011
-697.485	-200.000	-0.014	0.111
-696.470	-35.921	-0.040	-0.021
-695.456	800.000	0.055	0.161
-694.441	-130.467	-0.272	-0.037
-693.426	16.786	0.135	0.106
-692.412	30.722	0.299	0.255
-691.397	91.633	-0.073	-0.082
-690.383	305.201	-0.025	-0.046
-689.368	-22.865	-0.181	-0.109
-688.354	48.932	0.081	0.076
-687.339	-10.365	-0.191	0.126
-686.324	-200.000	0.009	-0.148
-685.310	239.834	0.098	-0.162
-684.295	-200.000	0.005	-0.025
-683.281	15.813	-0.278	0.218
-682.266	12.552	-0.224	0.172
-681.251	-200.000	-0.028	-0.323
-680.237	800.000	0.101	-0.282
-679.222	23.922	-0.299	0.246
-678.208	-200.000	0.030	0.268
-677.193	-20.804	-0.143	0.087
-676.178	-48.768	-0.178	-0.085
-675.164	800.000	-0.030	0.091
-674.149	-26.489	0.123	-0.072
-673.135	-118.264	-0.151	0.027
-672.120	-31.145	-0.114	-0.064
-671.105	-200.000	0.026	-0.211
-670.091	-200.000	0.050	-0.259
-669.076	20.679	-0.184	-0.149
-668.062	-148.390	-0.349	-0.029
-667.047	-200.000	-0.024	-0.202
-666.032	-200.000	0.027	-0.172
-665.018	-200.000	-0.030	-0.271
-664.003	441.346	-0.148	-0.323
-662.989	155.551	0.112	-0.154
-661.974	800.000	0.032	-0.105
-660.959	-200.000	-0.038	-0.305
-659.945	11.289	-0.171	-0.130
-658.930	73.752	0.262	-0.273
-657.916	369.833	0.145	-0.292
-656.901	194.508	0.156	0.236
-655.886	-172.053	0.020	-0.001
-654.872	-85.533	0.229	0.071
-653.857	-92.437	-0.351	-0.098
-652.843	-49.331	-0.110	-0.052
-651.828	-166.810	-0.038	0.002
-650.814	-83.657	-0.083	0.026
-649.799	-48.365	0.259	-0.124
-648.784	-8.776	0.098	0.065
-647.770	-94.036	-0.126	-0.034
-646.755	-131.134	-0.174	0.023
-645.741	-79.057	0.102	0.035
-644.726	-175.470	0.295	0.008
-643.711	-156.351	-0.168	0.010
-642.697	-200.000	0.010	-0.283
-641.682	417.801	0.118	0.251
-640.668	278.246	0.161	-0.286
-639.653	112.705	-0.048	-0.057
-638.638	-200.000	-0.031	0.177
-637.624	-57.901	0.161	-0.070
-636.609	-200.000	0.003	-0.118
-635.595	-46.694	-0.128	-0.062
-634.580	88.446	-0.234	-0.259
-633.565	28.737	0.079	0.067
-632.551	-164.028	-0.385	-0.018
-631.536	-61.126	0.184	-0.077
-630.522	781.698	-0.017	-0.046
-629.507	-200.000	-0.092	-0.597
-628.492	704.336	-0.160	-0.419
-627.478	-20.112	-0.058	-0.036
-626.463	-62.845	0.231	-0.095
-625.449	167.737	0.175	0.247
-624.434	-143.309	0.117	-0.011
-623.419	-200.000	0.016	-0.358
-622.405	198.560	0.110	0.167
-621.390	-56.082	-0.439	-0.194
-620.376	-179.237	-0.208	-0.005
-619.361	-57.944	0.084	0.036
-618.346	44.023	-0.028	0.025
-617.332	247.678	-0.108	-0.182
-616.317	800.000	-0.053	0.172
-615.303	229.070	-0.054	0.087
-614.288	198.780	0.172	0.261
-613.273	330.970	-0.051	0.097
-612.259	-75.437	0.120	0.043
-611.244	-61.779	-0.117	0.049
-610.230	558.446	-0.116	0.278
-609.215	126.648	0.135	-0.170
-608.201	-200.000	-0.009	0.135
-607.186	800.000	0.096	0.269
-606.171	-148.705	-0.035	-0.003
-605.157	-88.907	-0.132	-0.039
-604.142	88.558	-0.037	0.041
-603.128	74.682	0.160	0.167
-602.113	-200.000	0.184	0.000
-601.098	115.805	0.221	0.268
-600.084	98.179	-0.134	0.153
-599.069	66.441	0.061	-0.061
-598.055	800.000	-0.153	-0.431
-597.040	-66.352	0.462	-0.182
-596.025	-200.000	0.028	0.135
-595.011	-147.481	0.399	0.033
-593.996	-139.354	-0.370	-0.039
-592.982	-40.876	-0.070	-0.036
-591.967	-200.000	0.007	0.086
-590.952	-43.642	0.201	-0.101
-589.938	-75.318	0.164	0.058
-588.923	-118.873	0.199	0.035
-587.909	164.106	0.222	-0.311
-586.894	158.742	0.126	-0.174
-585.879	11.989	-0.071	0.054
-584.865	113.294	0.099	0.119
-583.850	159.874	-0.086	-0.119
-582.836	-200.000	0.024	0.159
-581.821	-200.000	-0.032	0.287
-580.806	450.717	0.080	0.176
-579.792	458.182	-0.186	0.410
-578.777	-200.000	-0.056	-0.423
-577.763	36.059	-0.089	0.078
-576.748	800.000	0.086	-0.373
-575.733	65.863	-0.193	-0.194
-574.719	-200.000	0.029	-0.248
-573.704	-59.838	0.146	-0.062
-572.690	583.280	-0.102	0.249
-571.675	351.229	0.109	0.213
-570.661	-96.263	-0.199	-0.052
-569.646	-88.845	0.227	-0.067
-568.631	-53.209	-0.149	0.068
-567.617	-66.672	-0.115	0.045
-566.602	198.278	0.028	-0.043
-565.588	-200.000	-0.019	-0.093
-564.573	800.000	0.087	0.242
-563.558	61.043	-0.193	-0.190
-562.544	400.812	-0.113	0.234
-561.529	32.583	0.155	-0.133
-560.515	56.194	-0.135	-0.130
-559.500	28.940	-0.271	0.228
-558.485	88.615	-0.092	-0.102
-557.471	-10.372	0.133	0.088
-556.456	242.602	0.035	0.058
-555.442	-108.569	-0.299	-0.064
-554.427	170.490	-0.187	0.265
-553.412	751.899	0.049	-0.131
-552.398	-67.870	-0.395	0.153
-551.383	-189.594	0.285	0.003
-550.369	231.592	0.091	-0.147
-549.354	-200.000	0.029	0.136
-548.339	800.000	-0.107	0.412
-547.325	21.122	-0.098	-0.079
-546.310	73.851	-0.182	-0.189
-545.296	-36.903	-0.257	-0.137
-544.281	-200.000	0.046	0.343
-543.266	441.009	-0.061	-0.131
-542.252	-200.000	-0.017	-0.079
-541.237	-116.918	-0.243	0.044
-540.223	54.359	-0.122	-0.116
-539.208	-35.782	0.191	0.103
-538.193	-200.000	-0.041	0.245
-537.179	189.334	0.241	-0.358
-536.164	-83.594	-0.141	0.045
-535.150	-76.436	-0.167	-0.058
-534.135	287.564	-0.164	0.294
-533.121	-86.218	-0.216	0.066
-532.106	-2.227	0.381	-0.265
-531.091	111.441	-0.092	-0.109
-530.077	-120.416	-0.458	-0.077
-529.062	262.664	0.169	0.290
-528.048	-84.138	-0.181	-0.057
-527.033	49.843	-0.040	0.037
-526.018	11.856	0.265	0.202
-525.004	49.037	-0.091	0.085
-523.989	800.000	0.075	-0.255
-522.975	288.198	-0.104	-0.187
-521.960	213.073	0.113	-0.176
-520.945	-34.213	-0.115	-0.063
-519.931	312.083	0.109	0.202
-518.916	-200.000	0.048	0.293
-517.902	16.196	0.230	0.180
-516.887	267.558	0.155	-0.269
-515.872	-200.000	0.062	-0.342
-514.858	-107.845	0.149	0.032
-513.843	800.000	0.034	0.112
-512.829	554.280	0.023	-0.056
-511.814	9.348	0.187	-0.140
-510.799	-5.435	0.079	0.054
-509.785	-40.824	-0.184	-0.094
-508.770	-200.000	-0.006	-0.149
-507.756	66.412	0.196	0.198
-506.741	207.264	0.048	-0.074
-505.726	98.028	0.044	0.050
-504.712	-132.124	-0.369	0.047
-503.697	163.606	-0.039	0.054
-502.683	800.000	-0.076	0.221
-501.668	-159.048	-0.062	0.003
-500.653	-152.401	0.456	0.032
-499.639	160.239	-0.030	-0.042
-498.624	282.959	0.077	0.137
-497.610	800.000	-0.034	-0.094
-496.595	800.000	-0.076	0.248
-495.581	-31.611	0.067	-0.037
-494.566	-22.323	0.317	-0.190
-493.551	267.847	-0.241	-0.417
-492.537	180.096	-0.110	0.159
-491.522	-153.095	0.415	-0.029
-490.508	-186.563	0.390	0.005
-489.493	-56.207	-0.080	-0.035
-488.478	26.457	0.129	-0.107
-487.464	92.330	0.021	-0.023
-486.449	225.468	-0.094	-0.150
-485.435	800.000	-0.002	0.005
-484.420	-107.441	0.153	-0.033
-483.405	-95.774	0.017	-0.004
-482.391	-144.790	0.185	0.017
-481.376	-200.000	-0.037	-0.222
-480.362	-200.000	-0.043	-0.197
-479.347	70.107	-0.133	-0.136
-478.332	167.259	-0.079	0.111
-477.318	-200.000	0.007	0.156
-476.303	800.000	0.071	-0.266
-475.289	-105.907	-0.088	0.020
-474.274	-84.890	0.105	-0.032
-473.259	-114.443	-0.241	0.046
-472.245	-200.000	-0.047	0.443
-471.230	-37.472	-0.130	0.069
-470.216	312.230	0.031	0.057
-469.201	800.000	-0.125	0.385
-468.186	-82.890	0.033	-0.010
-467.172	-100.445	0.151	0.037
-466.157	13.728	0.261	0.201
-465.143	-46.610	-0.229	-0.111
-464.128	-78.077	0.452	-0.154
-463.113	-79.547	-0.123	0.041
-462.099	800.000	0.053	-0.150
-461.084	-105.090	-0.294	-0.067
-460.070	-200.000	0.001	0.209
-459.055	102.074	0.138	0.159
-458.040	300.452	0.132	0.240
-457.026	411.045	0.118	-0.247
-456.011	-200.000	-0.055	0.411
-454.997	20.744	0.283	0.226
-453.982	-200.000	0.060	-0.314
-452.968	-113.753	0.195	-0.037
-451.953	-60.974	-0.209	0.087
-450.938	-164.396	0.087	0.004
-449.924	81.769	-0.086	-0.092
-448.909	-10.717	-0.188	0.123
-447.895	-165.874	-0.276	-0.012
-446.880	117.613	0.098	-0.120
-445.865	35.241	0.121	0.105
-444.851	42.336	-0.296	0.266
-443.836	116.386	0.174	-0.211
-442.822	800.000	-0.169	0.528
-441.807	-158.941	0.423	0.024
-440.792	-108.516	-0.187	0.040
-439.778	16.221	0.377	-0.293
-438.763	65.797	-0.323	-0.323
-437.749	-20.846	-0.302	-0.183
-436.734	-85.561	0.302	-0.093
-435.719	90.504	-0.203	0.225
-434.705	-176.716	0.238	-0.006
-433.690	315.180	-0.105	-0.195
-432.676	110.972	-0.171	-0.203
-431.661	528.157	-0.147	-0.342
-430.646	-13.416	0.296	-0.190
-429.632	29.797	-0.031	-0.026
-428.617	255.898	-0.046	0.078
-427.603	-42.413	-0.263	0.132
-426.588	800.000	-0.056	-0.180
-425.573	-129.253	0.137	0.019
-424.559	85.584	0.155	-0.168
-423.544	-79.077	0.037	0.012
-422.530	-128.716	-0.139	0.019
-421.515	134.571	0.116	-0.149
-420.500	-107.656	-0.242	0.052
-419.486	-31.415	-0.104	0.058
-418.471	226.232	0.096	0.153
-417.457	-145.298	-0.193	0.017
-416.442	486.068	0.060	0.135
-415.428	36.736	-0.103	-0.090
-414.413	-117.897	-0.375	-0.066
-413.398	113.782	-0.041	0.050
-412.384	-200.000	0.011	-0.186
-411.369	250.010	-0.107	0.180
-410.355	103.498	0.084	0.097
-409.340	-86.285	-0.299	0.091
-408.325	40.833	0.198	-0.176
-407.311	-200.000	-0.028	0.261
-406.296	33.173	0.081	0.069
-405.282	420.426	-0.059	-0.125
-404.267	-200.000	0.004	0.060
-403.252	-36.571	0.267	0.142
-402.238	-76.144	-0.251	-0.087
-401.223	-76.701	-0.143	0.049
-400.209	-37.340	-0.342	0.180
-399.194	800.000	-0.022	0.085
-398.179	154.591	0.165	0.223
-397.165	800.000	-0.107	0.305
-396.150	-200.000	0.011	-0.124
-395.136	-200.000	-0.008	0.050
-394.121	-140.726	0.098	0.010
-393.106	-37.576	0.095	-0.050
-392.092	-200.000	-0.027	-0.161
-391.077	-28.905	-0.232	0.131
-390.063	431.762	0.146	0.312
-389.048	-90.299	0.174	-0.050
-388.033	-124.864	-0.132	0.020
-387.019	3.431	0.113	0.081
-386.004	42.884	-0.007	0.007
-384.990	-146.504	-0.204	0.018
-383.975	174.945	0.126	-0.179
-382.960	311.611	0.279	-0.515
-381.946	69.901	-0.163	-0.165
-380.931	-125.767	0.392	0.058
-379.917	202.708	-0.076	-0.115
-378.902	148.091	-0.165	-0.220
-377.888	800.000	-0.087	-0.275
-376.873	-73.033	0.158	0.057
-375.858	332.221	-0.075	0.142
-374.844	-102.262	0.107	0.025
-373.829	-89.288	0.133	0.039
-372.815	210.868	-0.201	-0.311
-371.800	38.785	-0.141	0.124
-370.785	800.000	-0.045	0.128
-369.771	225.009	-0.192	0.306
-368.756	274.042	-0.092	-0.160
-367.742	19.640	-0.048	-0.038
-366.727	-164.484	0.145	0.007
-365.712	-200.000	0.070	0.553
-364.698	-27.639	-0.192	-0.110
-363.683	-0.496	0.241	0.169
-362.669	-85.905	0.101	0.031
-361.654	800.000	-0.118	-0.343
-360.639	-137.467	-0.223	-0.025
-359.625	4.610	0.167	0.121
-358.610	57.581	0.209	-0.201
-357.596	-90.671	-0.488	0.139
-356.581	-66.508	0.141	0.055
-355.566	-200.000	0.005	0.070
-354.552	-28.171	0.215	-0.122
-353.537	-200.000	0.004	0.127
-352.523	42.763	-0.176	-0.157
-351.508	22.535	0.167	-0.134
-350.493	144.016	-0.173	-0.227
-349.479	77.470	0.048	0.050
-348.464	-57.878	-0.142	0.061
-347.450	-200.000	-0.018	0.103
-346.435	123.840	0.219	0.271
-345.420	120.209	0.122	0.149
-344.406	-36.716	0.305	0.161
-343.391	-79.749	0.188	0.062
-342.377	13.146	-0.166	-0.126
-341.362	68.163	-0.164	0.165
-340.348	-48.652	0.278	0.131
-339.333	376.358	0.094	0.189
-338.318	-200.000	0.179	0.000
-337.304	784.053	0.037	-0.099
-336.289	344.105	0.087	0.168
-335.275	-83.407	-0.107	-0.034
-334.260	-43.017	0.150	-0.075
-333.245	-38.895	-0.107	-0.056
-332.231	-200.000	-0.056	0.360
-331.216	-200.000	-0.010	0.109
-330.202	446.605	0.159	-0.344
-329.187	30.765	0.224	-0.189
-328.172	-200.000	-0.016	0.092
-327.158	288.656	0.130	-0.232
-326.143	106.636	-0.148	0.173
-325.129	-141.961	-0.264	-0.026
-324.114	800.000	-0.079	-0.215
-323.099	-138.284	0.361	-0.039
-322.085	145.142	0.078	-0.103
-321.070	-138.556	0.090	-0.010
-320.056	173.528	-0.051	-0.073
-319.041	-89.233	0.314	-0.091
-318.026	131.353	0.219	0.276
-317.012	-200.000	-0.029	0.343
-315.997	146.713	-0.228	-0.301
-314.983	207.953	-0.207	-0.318
-313.968	800.000	0.074	0.207
-312.953	34.223	-0.055	0.047
-311.939	127.966	0.100	0.124
-310.924	-131.719	-0.223	-0.029
-309.910	800.000	-0.125	-0.399
-308.895	-78.783	-0.307	0.103
-307.880	461.391	0.053	0.116
-306.866	-98.668	-0.080	-0.020
-305.851	543.325	-0.111	0.260
-304.837	-200.000	-0.020	0.222
-303.822	9.594	0.041	0.030
-302.807	37.021	-0.063	-0.054
-301.793	85.510	-0.148	-0.159
-300.778	89.985	0.139	0.152
-299.764	-127.821	0.167	-0.024
-298.749	25.456	0.112	0.092
-297.735	695.519	0.084	-0.218
-296.720	-2.660	-0.306	0.210
-295.705	2.824	-0.101	0.072
-294.691	257.297	0.056	-0.094
-293.676	-174.991	-0.244	-0.007
-292.662	5.707	0.152	0.110
-291.647	88.154	0.306	0.333
-290.632	395.417	0.123	0.253
-289.618	78.915	-0.355	0.373
-288.603	204.780	0.113	0.172
-287.589	43.736	-0.138	-0.124
-286.574	154.687	-0.100	-0.135
-285.559	-65.268	0.218	-0.086
-284.545	531.172	0.153	-0.356
-283.530	-15.782	-0.143	-0.089
-282.516	-117.036	0.144	-0.026
-281.501	800.000	0.035	0.101
-280.486	111.918	0.210	-0.249
-279.472	800.000	0.042	0.145
-278.457	-200.000	0.013	-0.277
-277.443	-200.000	0.031	0.230
-276.428	117.894	0.149	0.181
-275.413	-116.065	0.032	0.006
-274.399	-126.455	0.269	0.039
-273.384	-167.577	-0.106	0.004
-272.370	-107.364	-0.168	-0.036
-271.355	-200.000	-0.001	0.305
-270.340	107.358	0.098	-0.114
-269.326	800.000	-0.006	0.025
-268.311	-200.000	-0.015	0.313
-267.297	-151.497	-0.033	0.002
-266.282	-66.986	0.171	0.066
-265.267	171.517	-0.057	-0.080
-264.253	89.151	-0.239	-0.261
-263.238	-148.025	0.295	-0.024
-262.224	-35.723	-0.019	-0.010
-261.209	-38.539	-0.286	-0.148
-260.195	-40.207	-0.306	-0.156
-259.180	-27.996	-0.189	-0.107
-258.165	-89.295	-0.388	-0.112
-257.151	800.000	0.089	-0.247
-256.136	-96.947	0.107	-0.028
-255.122	60.495	-0.084	-0.082
-254.107	-81.035	0.603	-0.196
-253.092	800.000	-0.049	0.186
-252.078	83.866	-0.125	-0.133
-251.063	-200.000	0.001	0.120
-250.049	-200.000	0.013	0.218
-249.034	-171.734	-0.263	-0.008
-248.019	-122.792	0.214	0.034
-247.005	47.849	0.269	-0.246
-245.990	141.229	0.116	0.150
-244.976	-200.000	-0.000	-0.093
-243.961	-7.329	0.092	0.061
-242.946	-21.310	-0.225	0.135
-241.932	7.479	0.052	-0.038
-240.917	-101.867	-0.086	-0.020
-239.903	198.260	0.201	-0.302
-238.888	34.095	-0.048	0.041
-237.873	-200.000	-0.029	0.193
-236.859	-8.519	0.040	-0.026
-235.844	-200.000	-0.029	0.215
-234.830	153.844	-0.240	0.322
-233.815	800.000	-0.099	-0.280
-232.800	-200.000	-0.019	0.131
-231.786	-119.345	0.325	-0.055
-230.771	-104.999	-0.210	0.047
-229.757	800.000	0.096	-0.301
-228.742	167.981	0.134	-0.186
-227.727	-32.785	0.207	-0.113
-226.713	-200.000	0.017	-0.216
-225.698	800.000	-0.122	-0.404
-224.684	224.789	-0.159	-0.252
-223.669	205.207	-0.097	-0.148
-222.655	800.000	-0.145	0.402
-221.640	-200.000	-0.039	0.207
-220.625	90.592	-0.124	0.136
-219.611	-11.509	-0.134	-0.086
-218.596	-107.740	-0.243	0.052
-217.582	74.631	-0.099	0.102
-216.567	93.286	-0.089	-0.099
-215.552	-94.284	-0.133	-0.036
-214.538	-80.666	0.157	-0.051
-213.523	-145.032	0.122	-0.011
-212.509	294.013	-0.130	-0.233
-211.494	230.753	-0.203	0.325
-210.479	-200.000	-0.019	0.208
-209.465	800.000	0.070	-0.219
-208.450	-117.456	0.366	-0.065
-207.436	-133.958	-0.091	0.011
-206.421	-200.000	-0.019	0.218
-205.406	48.960	-0.080	0.074
-204.392	-54.350	0.237	-0.105
-203.377	189.575	0.091	-0.133
-202.363	445.952	-0.072	-0.155
-201.348	-200.000	0.004	-0.241
-200.333	-200.000	0.034	0.264
-199.319	5.948	0.165	0.119
-198.304	112.470	-0.264	-0.312
-197.290	-158.927	0.098	0.005
-196.275	90.127	0.018	0.020
-195.260	115.020	-0.230	0.274
-194.246	-26.545	0.159	-0.091
-193.231	-93.522	0.084	-0.023
-192.217	547.482	0.073	-0.171
-191.202	-200.000	-0.027	0.172
-190.187	-80.517	0.259	0.085
-189.173	-200.000	-0.011	0.114
-188.158	-200.000	0.024	0.425
-187.144	-194.186	-0.398	-0.003
-186.129	79.009	-0.030	-0.031
-185.114	-200.000	-0.006	-0.029
-184.100	-21.891	0.190	0.113
-183.085	800.000	-0.021	0.087
-182.071	800.000	-0.044	0.155
-181.056	-97.415	0.138	-0.035
-180.042	166.286	0.121	0.167
-179.027	471.032	-0.046	0.101
-178.012	458.390	0.015	0.034
-176.998	-200.000	-0.034	-0.166
-175.983	117.070	0.066	-0.080
-174.969	90.464	-0.120	-0.131
-173.954	-50.706	0.047	0.022
-172.939	548.845	-0.082	0.192
-171.925	-182.224	0.138	0.003
-170.910	-81.126	0.187	0.060
-169.896	-200.000	0.006	-0.123
-168.881	64.178	0.098	-0.096
-167.866	175.198	-0.116	-0.163
-166.852	800.000	-0.057	-0.157
-165.837	251.789	0.107	-0.177
-164.823	-200.000	0.021	-0.262
-163.808	-39.308	-0.177	-0.091
-162.793	27.404	-0.191	0.157
-161.779	76.547	0.065	0.067
-160.764	-28.727	0.242	-0.136
-159.750	547.126	0.090	-0.210
-158.735	-200.000	-0.030	0.151
-157.720	40.195	-0.251	-0.220
-156.706	-200.000	0.012	-0.080
-155.691	800.000	-0.062	0.215
-154.677	174.527	0.068	0.096
-153.662	-166.270	0.083	0.003
-152.647	30.410	-0.354	0.295
-151.633	12.766	-0.029	-0.022
-150.618	-21.603	0.420	0.250
-149.604	55.706	-0.194	0.184
-148.589	800.000	-0.111	-0.464
-147.574	123.423	-0.194	0.238
-146.560	-5.037	-0.142	0.095
-145.545	91.904	0.139	0.153
-144.531	-200.000	-0.040	-0.194
-143.516	-20.389	-0.118	0.071
-142.502	156.326	0.132	0.178
-141.487	16.641	-0.100	-0.077
-140.472	163.593	0.078	0.107
-139.458	-99.606	0.185	0.045
-138.443	800.000	0.053	0.184
-137.429	-200.000	-0.054	0.313
-136.414	-81.929	-0.286	0.091
-135.399	263.823	-0.046	-0.078
-134.385	-170.920	-0.153	-0.005
-133.370	-200.000	-0.002	-0.209
-132.356	-120.393	0.114	0.019
-131.341	-200.000	0.013	-0.080
-130.326	-130.961	0.217	0.028
-129.312	158.118	-0.096	0.130
-128.297	329.193	-0.080	-0.149
-127.283	759.307	-0.035	-0.092
-126.268	114.628	-0.087	0.104
-125.253	800.000	-0.106	0.294
-124.239	-200.000	0.009	-0.370
-123.224	18.069	-0.181	0.141
-122.210	185.828	0.065	0.094
-121.195	800.000	0.049	-0.152
-120.180	-110.622	-0.400	-0.081
-119.166	-5.817	-0.044	-0.029
-118.151	-64.474	0.180	-0.071
-117.137	-200.000	0.016	0.233
-116.122	-151.384	0.115	-0.008
-115.107	-140.617	0.317	-0.032
-114.093	1.464	0.210	0.147
-113.078	85.693	0.345	-0.369
-112.064	33.866	0.230	0.195
-111.049	800.000	-0.072	-0.204
-110.034	53.281	0.054	-0.050
-109.020	-90.147	0.181	-0.051
-108.005	137.096	-0.069	0.088
-106.991	-124.023	-0.150	-0.023
-105.976	526.141	0.065	-0.148
-104.962	-200.000	0.002	0.097
-103.947	130.169	-0.048	0.060
-102.932	-139.206	0.058	-0.006
-101.918	178.988	-0.178	-0.254
-100.903	-66.140	-0.052	-0.020
-99.889	79.089	-0.180	0.187
-98.874	-11.369	0.184	-0.118
-97.859	-126.076	0.254	0.037
-96.845	-200.000	-0.009	0.038
-95.830	-174.966	0.281	0.008
-94.816	800.000	-0.061	-0.213
-93.801	13.906	0.169	-0.128
-92.786	387.719	-0.090	0.181
-91.772	-200.000	0.035	0.264
-90.757	657.912	-0.125	-0.312
-89.743	412.344	0.053	-0.109
-88.728	352.467	-0.262	0.506
-87.713	-200.000	-0.038	0.394
-86.699	39.600	0.039	-0.034
-85.684	-68.093	-0.184	0.070
-84.670	-194.913	-0.099	-0.001
-83.655	155.840	-0.174	-0.234
-82.640	-20.390	0.280	0.167
-81.626	-200.000	0.017	-0.167
-80.611	127.757	-0.171	-0.211
-79.597	46.651	-0.215	-0.195
-78.582	86.595	0.258	-0.277
-77.567	87.353	-0.152	0.164
-76.553	-82.727	0.225	0.071
-75.538	-93.164	-0.395	0.107
-74.524	114.920	0.299	-0.355
-73.509	-200.000	-0.028	0.365
-72.494	-200.000	-0.001	0.219
-71.480	173.267	0.160	0.224
-70.465	800.000	0.017	0.064
-69.451	-138.865	-0.206	-0.022
-68.436	118.360	-0.032	-0.039
-67.422	223.461	0.136	0.213
-66.407	160.821	-0.091	0.124
-65.392	800.000	0.053	0.206
-64.378	-104.556	-0.182	-0.041
-63.363	360.994	-0.037	0.073
-62.349	6.182	0.320	0.231
-61.334	92.270	-1.185	-1.299
-60.319	13.725	0.592	0.447
-59.305	203.952	-0.766	-1.155
-58.290	598.123	0.672	1.620
-57.276	800.000	0.462	1.481
-56.261	-200.000	134.584	686.044
-55.246	350.899	1667.001	3208.106
-54.232	134.761	2802.268	3538.542
-53.217	89.996	2191.713	2382.075
-52.203	31.820	1706.547	1429.119
-51.188	24.690	1528.699	1231.232
-50.173	23.035	1505.275	1201.084
-49.159	47.628	1581.529	1434.828
-48.144	44.316	1592.066	1421.204
-47.130	24.836	1539.973	1241.128
-46.115	22.040	1523.961	1208.950
-45.100	21.740	1520.798	1204.332
-44.086	21.745	1518.371	1202.401
-43.071	21.689	1516.788	1200.713
-42.057	21.572	1515.636	1198.950
-41.042	21.639	1514.139	1198.182
-40.027	21.643	1512.664	1196.990
-39.013	21.589	1510.507	1194.872
-37.998	21.602	1509.539	1194.142
-36.984	21.639	1508.700	1193.685
-35.969	21.686	1507.281	1192.836
-34.954	21.607	1505.926	1191.182
-33.940	21.540	1504.621	1189.646
-32.925	21.601	1503.294	1188.959
-31.911	21.674	1501.630	1188.092
-30.896	21.816	1499.802	1187.559
-29.881	21.744	1499.216	1186.560
-28.867	21.848	1497.533	1185.884
-27.852	21.715	1496.806	1184.366
-26.838	21.654	1495.064	1182.529
-25.823	21.634	1493.786	1181.336
-24.809	21.811	1491.352	1180.555
-23.794	21.699	1490.815	1179.331
-22.779	21.653	1489.541	1177.963
-21.765	21.690	1488.274	1177.164
-20.750	21.783	1487.016	1176.746
-19.736	21.772	1486.634	1176.323
-18.721	21.702	1485.013	1174.527
-17.706	21.694	1484.078	1173.688
-16.692	21.690	1483.127	1172.862
-15.677	21.661	1482.215	1171.903
-14.663	21.739	1481.226	1171.592
-13.648	21.692	1480.185	1170.411
-12.633	21.665	1479.105	1169.331
-11.619	21.690	1478.712	1169.137
-10.604	21.753	1477.233	1168.344
-9.590	21.656	1476.813	1167.319
-8.575	21.667	1475.945	1166.661
-7.560	21.674	1475.272	1166.130
-6.546	21.741	1474.449	1165.877
-5.531	21.813	1472.901	1165.081
-4.517	21.654	1471.945	1163.222
-3.502	21.666	1471.221	1162.689
-2.487	21.700	1470.026	1161.924
-1.473	21.631	1469.376	1160.904
-0.458	21.664	1467.947	1159.945
0.556	20.595	1457.330	1147.418
1.571	17.335	1433.640	1107.468
2.586	13.872	1370.607	1037.087
3.600	12.156	1286.218	963.080
4.615	11.231	1242.372	924.919
5.629	9.936	1185.583	875.548
6.644	5.238	1104.917	792.120
7.659	1.300	1070.151	747.759
8.673	0.800	1065.125	741.725
9.688	0.633	1062.120	738.754
10.702	0.693	1060.602	737.923
11.717	0.694	1058.280	736.249
12.731	2.194	1058.465	743.618
13.746	7.806	1065.955	776.260
14.761	13.950	1074.895	812.849
15.775	17.033	1077.261	829.664
16.790	16.938	1076.466	828.514
17.804	15.910	1074.408	821.843
18.819	15.132	1073.014	816.909
19.834	14.705	1071.317	813.465
20.848	14.477	1070.577	811.721
21.863	14.267	1069.297	809.659
22.877	13.986	1068.743	807.801
23.892	13.813	1067.769	806.151
24.907	13.693	1066.730	804.712
25.921	13.786	1065.901	804.467
26.936	13.649	1066.053	803.845
27.950	13.690	1065.432	803.507
28.965	13.736	1064.336	802.830
29.980	13.833	1063.201	802.371
30.994	13.927	1061.900	801.773
32.009	13.846	1061.721	801.180
33.023	13.807	1060.759	800.194
34.038	13.819	1060.085	799.670
35.053	13.816	1059.241	798.949
36.067	13.936	1057.770	798.345
37.082	13.765	1057.454	797.214
38.096	13.833	1056.641	796.857
39.111	13.912	1056.237	796.862
40.126	13.901	1055.157	795.924
41.140	13.807	1054.289	794.750
42.155	13.789	1053.262	793.816
43.169	13.749	1052.064	792.656
44.184	13.653	1051.148	791.433
45.199	13.766	1049.720	790.830
46.213	13.606	1049.070	789.505
47.228	13.672	1048.015	788.956
48.242	13.725	1047.261	788.571
49.257	13.873	1045.725	788.047
50.271	13.778	1045.057	787.024
51.286	13.783	1043.981	786.166
52.301	13.724	1043.795	785.678
53.315	13.757	1042.688	784.934
54.330	13.791	1041.742	784.311
55.344	13.774	1040.639	783.331
56.359	13.819	1039.544	782.649
57.374	13.881	1038.611	782.168
58.388	13.890	1037.715	781.467
59.403	13.782	1037.371	780.635
60.417	13.800	1036.158	779.737
61.432	13.623	1036.239	778.895
62.447	13.715	1034.789	778.167
63.461	13.797	1034.252	778.078
64.476	13.622	1033.787	776.840
65.490	13.652	1032.570	775.998
66.505	13.676	1031.784	775.452
67.520	13.748	1030.803	774.982
68.534	13.720	1030.437	774.508
69.549	13.688	1029.650	773.697
70.563	13.712	1028.499	772.875
71.578	13.758	1027.883	772.558
72.593	13.532	1027.332	771.027
73.607	13.667	1025.739	770.387
74.622	13.539	1025.378	769.454
75.636	13.609	1024.158	768.795
76.651	13.645	1023.146	768.136
77.666	13.635	1022.888	767.829
78.680	13.674	1021.589	766.964
79.695	13.733	1021.336	766.978
80.709	13.816	1020.730	766.842
81.724	13.718	1019.823	765.640
82.739	13.794	1018.690	765.073
83.753	13.877	1017.770	764.697
84.768	13.874	1016.792	763.878
85.782	13.936	1016.447	763.836
86.797	13.938	1015.675	763.196
87.812	13.855	1014.910	762.176
88.826	13.765	1014.150	761.122
89.841	13.810	1013.254	760.592
90.855	13.883	1012.518	760.304
91.870	13.862	1012.104	759.830
92.884	13.892	1010.912	759.006
93.899	13.884	1010.469	758.567
94.914	13.961	1009.726	758.295
95.928	14.068	1008.840	758.052
96.943	14.036	1008.301	757.431
97.957	14.055	1007.292	756.695
98.972	13.822	1006.733	755.146
99.987	13.918	1005.827	754.838
101.001	13.953	1005.175	754.441
102.016	13.979	1004.189	753.752
103.030	13.975	1002.884	752.688
104.045	14.053	1001.973	752.290
105.060	13.878	1001.187	750.842
106.074	13.943	1000.226	750.350
107.089	13.955	999.617	749.878
108.103	13.851	998.573	748.561
109.118	13.981	997.006	747.904
110.133	13.725	997.118	746.773
111.147	13.827	996.287	746.542
112.162	13.853	995.085	745.693
113.176	13.831	994.465	745.060
114.191	13.839	993.383	744.219
115.206	13.732	992.669	743.141
116.220	13.981	991.787	743.530
117.235	13.819	991.245	742.331
118.249	13.863	990.033	741.555
119.264	13.865	989.155	740.843
120.279	13.814	988.755	740.249
121.293	13.776	988.333	739.697
122.308	13.722	987.204	738.546
123.322	13.769	986.256	737.981
124.337	13.958	984.447	737.401
125.352	13.779	984.032	736.233
126.366	13.931	982.578	735.752
127.381	13.889	981.169	734.446
128.395	13.678	980.734	733.122
129.410	13.738	979.908	732.707
130.424	13.955	978.548	732.579
131.439	13.854	977.616	731.374
132.454	13.818	977.116	730.775
133.468	13.834	976.550	730.360
134.483	13.851	975.464	729.556
135.497	13.825	975.279	729.241
136.512	13.842	974.203	728.445
137.527	13.838	973.321	727.705
138.541	13.878	972.765	727.397
139.556	13.796	972.037	726.431
140.570	13.812	971.402	725.961
141.585	13.873	970.614	725.574
142.600	13.959	969.858	725.323
143.614	14.156	968.948	725.437
144.629	13.965	968.694	724.348
145.643	14.114	967.604	724.117
146.658	13.980	967.123	723.110
147.673	14.081	965.536	722.299
148.687	13.935	965.262	721.396
149.702	14.105	963.681	720.888
150.716	13.942	963.232	719.783
151.731	13.864	962.521	718.850
152.746	13.948	961.620	718.478
153.760	13.971	961.135	718.148
154.775	14.000	960.080	717.425
155.789	14.118	959.322	717.301
156.804	14.076	958.460	716.413
157.819	14.036	958.080	715.895
158.833	14.084	957.325	715.472
159.848	14.121	956.490	714.944
160.862	14.219	955.620	714.652
161.877	14.179	955.009	713.958
162.892	14.093	954.374	713.055
163.906	14.109	953.589	712.471
164.921	14.106	952.796	711.805
165.935	14.051	951.838	710.791
166.950	14.148	950.703	710.293
167.964	14.084	949.868	709.335
168.979	14.068	949.062	708.601
169.994	14.237	947.680	708.228
171.008	14.106	947.192	707.242
172.023	14.223	945.749	706.599
173.037	14.230	945.681	706.515
174.052	14.323	944.380	705.874
175.067	14.225	944.193	705.258
176.081	14.154	943.743	704.556
177.096	14.295	942.327	704.033
178.110	14.260	941.664	703.329
179.125	14.231	940.847	702.533
180.140	14.192	939.670	701.431
181.154	14.264	939.303	701.396
182.169	14.341	938.696	701.206
183.183	14.423	937.872	700.872
184.198	14.413	937.116	700.203
185.213	14.375	936.360	699.416
186.227	14.410	935.678	698.995
187.242	14.410	935.623	698.888
188.256	14.530	934.563	698.540
189.271	14.584	933.924	698.225
190.286	14.533	933.190	697.403
191.300	14.534	932.128	696.551
192.315	14.338	931.894	695.494
193.329	14.319	931.150	694.800
194.344	14.396	930.414	694.509
195.359	14.460	929.822	694.273
196.373	14.316	929.527	693.392
197.388	14.455	928.710	693.300
198.402	14.537	928.065	693.098
199.417	14.547	927.657	692.773
200.432	14.598	927.345	692.690
201.446	14.598	926.620	692.088
202.461	14.755	926.187	692.351
203.475	14.680	925.930	691.791
204.490	14.788	924.956	691.448
205.504	14.800	923.627	690.443
206.519	14.752	923.512	690.097
207.534	14.627	922.966	689.111
208.548	14.749	922.137	688.935
209.563	14.711	921.345	688.126
210.577	14.687	920.714	687.493
211.592	14.783	919.818	687.158
212.607	14.925	918.847	686.955
213.621	14.849	918.854	686.587
214.636	14.976	917.851	686.300
215.650	14.836	916.897	684.953
216.665	14.827	916.564	684.608
217.680	14.996	915.869	684.718
218.694	14.995	915.623	684.469
219.709	14.926	915.359	683.928
220.723	14.810	914.453	682.719
221.738	14.900	914.055	682.726
222.753	14.968	912.821	682.021
223.767	15.003	912.283	681.704
224.782	14.978	911.526	680.976
225.796	15.097	910.931	680.954
226.811	15.092	910.525	680.571
227.826	15.076	909.486	679.670
228.840	15.043	908.899	679.038
229.855	15.062	907.745	678.190
230.869	15.059	907.528	677.955
231.884	15.052	906.849	677.360
232.899	15.112	906.531	677.307
233.913	15.014	905.630	676.177
234.928	15.088	904.666	675.698
235.942	14.987	904.123	674.821
236.957	15.089	903.408	674.641
237.972	15.082	902.457	673.843
238.986	15.050	902.225	673.480
240.001	15.091	901.653	673.161
241.015	15.049	900.926	672.387
242.030	15.171	899.759	671.948
243.045	15.182	899.087	671.430
244.059	15.302	898.794	671.635
245.074	15.174	898.180	670.604
246.088	15.300	897.576	670.596
247.103	15.247	896.948	669.857
248.117	15.188	896.773	669.431
249.132	15.351	896.168	669.571
250.147	15.486	894.906	669.106
251.161	15.433	894.417	668.469
252.176	15.472	893.739	668.058
253.190	15.546	893.164	667.867
254.205	15.590	892.453	667.447
255.220	15.394	892.185	666.410
256.234	15.558	891.456	666.456
257.249	15.489	890.781	665.621
258.263	15.582	890.395	665.640
259.278	15.531	889.648	664.821
260.293	15.651	888.976	664.737
261.307	15.668	888.519	664.402
262.322	15.573	887.983	663.568
263.336	15.724	887.260	663.565
264.351	15.696	886.866	663.100
265.366	15.745	885.518	662.227
266.380	15.770	885.301	662.105
267.395	15.859	884.590	661.865
268.409	15.733	883.849	660.759
269.424	15.803	883.172	660.466
270.439	15.727	882.235	659.408
271.453	15.754	881.775	659.115
272.468	15.805	880.866	658.575
273.482	15.714	880.451	657.852
274.497	15.813	879.891	657.760
275.512	15.768	879.149	656.971
276.526	15.765	878.683	656.554
277.541	15.902	877.637	656.249
278.555	15.972	876.625	655.707
279.570	15.839	876.846	655.297
280.585	15.799	876.199	654.598
281.599	16.061	875.217	654.826
282.614	15.971	874.507	653.887
283.628	15.983	874.207	653.650
284.643	15.986	873.689	653.218
285.657	15.976	873.218	652.770
286.672	16.125	872.426	652.694
287.687	16.039	872.304	652.214
288.701	16.104	871.302	651.658
289.716	16.084	870.876	651.206
290.730	15.998	870.807	650.764
291.745	16.030	870.135	650.329
292.760	16.128	868.593	649.495
293.774	15.987	868.602	648.900
294.789	16.060	868.069	648.724
295.803	16.152	867.286	648.437
296.818	16.152	866.727	647.962
297.833	16.231	865.691	647.432
298.847	16.168	865.118	646.708
299.862	16.032	864.672	645.792
300.876	16.095	864.008	645.483
301.891	16.189	863.253	645.222
302.906	16.349	862.570	645.266
303.920	16.430	861.739	644.896
304.935	16.452	860.942	644.326
305.949	16.326	860.791	643.675
306.964	16.358	859.884	643.062
307.979	16.205	859.611	642.220
308.993	16.342	859.157	642.344
310.008	16.479	858.087	642.005
311.022	16.456	857.499	641.423
312.037	16.418	857.223	641.016
313.052	16.448	856.844	640.788
314.066	16.470	856.121	640.274
315.081	16.472	855.776	639.968
316.095	16.360	854.993	638.903
317.110	16.309	854.808	638.515
318.125	16.457	853.856	638.308
319.139	16.429	853.423	637.822
320.154	16.528	852.960	637.790
321.168	16.558	852.337	637.382
322.183	16.512	851.625	636.619
323.197	16.602	851.634	636.911
324.212	16.507	851.012	636.029
325.227	16.618	850.431	635.956
326.241	16.716	849.665	635.697
327.256	16.584	849.147	634.756
328.270	16.563	848.576	634.194
329.285	16.587	848.212	633.957
330.300	16.517	847.223	632.897
331.314	16.646	846.821	633.027
332.329	16.756	846.162	632.889
333.343	16.656	845.582	632.024
334.358	16.667	845.046	631.608
335.373	16.621	844.800	631.200
336.387	16.749	844.142	631.129
337.402	16.842	843.249	630.752
338.416	16.754	842.802	630.031
339.431	16.705	842.376	629.476
340.446	16.827	841.906	629.522
341.460	16.968	840.977	629.297
342.475	17.012	840.192	628.817
343.489	17.014	840.063	628.671
344.504	16.967	839.349	627.906
345.519	17.057	839.068	627.973
346.533	16.940	838.524	627.081
347.548	17.036	838.166	627.110
348.562	17.097	837.357	626.676
349.577	17.034	836.709	625.901
350.592	16.973	836.731	625.638
351.606	16.891	836.156	624.852
352.621	16.830	835.629	624.175
353.635	17.038	834.993	624.411
354.650	17.052	834.564	624.089
355.665	16.989	834.328	623.623
356.679	17.043	833.569	623.199
357.694	17.230	832.986	623.396
358.708	17.234	832.177	622.750
359.723	17.107	831.928	622.042
360.738	17.113	831.898	621.985
361.752	17.208	830.404	621.160
362.767	17.239	830.263	621.113
363.781	17.127	830.286	620.667
364.796	17.264	829.405	620.456
365.810	17.146	829.515	620.052
366.825	17.280	828.798	619.950
367.840	17.252	828.311	619.430
368.854	17.428	827.868	619.682
369.869	17.322	827.759	619.159
370.883	17.466	826.761	618.884
371.898	17.367	826.408	618.205
372.913	17.391	825.831	617.805
373.927	17.415	825.340	617.470
374.942	17.390	824.289	616.540
375.956	17.502	823.736	616.477
376.971	17.354	823.522	615.724
377.986	17.454	823.354	615.909
379.000	17.501	822.694	615.529
380.015	17.601	821.898	615.240
381.029	17.559	821.663	614.857
382.044	17.517	820.728	613.953
383.059	17.685	820.351	614.220
384.073	17.762	819.428	613.753
385.088	17.667	819.309	613.266
386.102	17.629	818.811	612.705
387.117	17.507	818.044	611.636
388.132	17.793	817.271	612.033
389.146	17.577	817.122	611.092
390.161	17.506	816.826	610.560
391.175	17.633	816.539	610.750
392.190	17.686	815.940	610.436
393.205	17.815	815.445	610.473
394.219	17.580	815.583	609.683
395.234	17.748	814.371	609.320
396.248	17.819	813.696	609.015
397.263	17.737	813.644	608.629
398.278	17.647	813.405	608.077
399.292	17.633	812.542	607.327
400.307	17.578	812.468	607.022
401.321	17.801	811.841	607.294
402.336	17.804	811.598	607.071
403.350	17.814	811.324	606.848
404.365	17.736	810.899	606.198
405.380	17.813	809.918	605.683
406.394	17.761	809.814	605.369
407.409	17.857	809.251	605.234
408.423	17.932	808.581	604.944
409.438	17.910	808.473	604.733
410.453	17.977	807.945	604.522
411.467	18.011	807.305	604.110
412.482	18.080	806.828	603.943
413.496	18.090	806.446	603.640
414.511	18.070	806.192	603.326
415.526	18.142	805.701	603.158
416.540	18.149	805.285	602.818
417.555	18.151	804.860	602.454
418.569	18.142	804.542	602.130
419.584	18.054	804.028	601.382
420.599	18.248	803.325	601.486
421.613	116.047	1299.014	1491.928
422.628	100.250	1371.201	1492.011
