DTS Sentinel unit serial number:	SN413079Multiplexer serial number:	ORYXHardware model number:	OX4-SRSoftware version number:	ORYX F/W v4.00 Oryx Data Collector v3.7.2.0data status	okinstallation	princeton_trtdifferential loss correction	single-endedforward channel	channel 3reverse channel	N/Adate	2019/09/12time	17:10:10forward acquisition time	60.00reverse acquisition time	0.00gamma	496.2192k internal	0.2313k external	0.2313temperature offset calibration	1.0081default loss term (dB/km)	0.3790temperature slope calibration	1.0000multiplexer offset coefficient	1.0000multiplexer slope coefficient	1.0000fibre end	0.00T internal ref (°C)	35.33T ext. ref 1 (°C)	2.76T ext. ref 2 (°C)	28.79length (m)	temperature (°C)	Stokes	anti-Stokes-747.200	736.678	-0.019	0.052
-746.185	20.721	-0.122	0.100
-745.171	-200.000	-0.023	0.179
-744.156	-25.589	-0.309	0.185
-743.142	88.432	-0.147	-0.166
-742.127	-200.000	-0.037	0.223
-741.112	-61.248	0.170	-0.073
-740.098	21.029	0.107	0.088
-739.083	-200.000	-0.010	0.094
-738.069	-200.000	-0.024	0.151
-737.054	19.164	0.136	0.111
-736.039	191.037	-0.115	0.176
-735.025	-200.000	-0.018	0.105
-734.010	-148.751	-0.209	0.017
-732.996	284.518	0.058	0.107
-731.981	-92.300	0.144	0.041
-730.966	-88.078	0.021	-0.006
-729.952	-68.696	0.058	0.023
-728.937	-90.980	-0.454	-0.132
-727.923	-137.088	0.179	0.021
-726.908	-56.584	0.092	0.041
-725.894	-75.928	-0.252	-0.090
-724.879	-200.000	0.021	0.372
-723.864	-47.913	-0.168	0.083
-722.850	176.699	-0.190	0.280
-721.835	44.855	0.117	0.110
-720.821	800.000	0.066	-0.248
-719.806	-136.689	-0.241	0.028
-718.791	-122.942	-0.394	0.064
-717.777	443.422	-0.186	-0.414
-716.762	-28.468	-0.108	0.063
-715.748	568.475	-0.022	0.054
-714.733	-7.437	0.172	-0.118
-713.718	800.000	0.079	0.337
-712.704	22.736	-0.076	-0.063
-711.689	56.604	-0.106	0.104
-710.675	276.781	0.049	0.088
-709.660	-200.000	0.038	0.339
-708.645	428.230	-0.097	-0.213
-707.631	800.000	-0.114	-0.428
-706.616	-137.462	-0.117	-0.013
-705.602	-200.000	-0.018	-0.246
-704.587	266.764	0.087	-0.155
-703.572	-200.000	-0.050	0.294
-702.558	-129.316	0.178	0.025
-701.543	-82.368	0.286	0.094
-700.529	-2.878	0.096	-0.068
-699.514	544.111	-0.087	0.209
-698.499	-200.000	-0.002	-0.139
-697.485	-85.462	-0.137	0.043
-696.470	-8.347	0.080	-0.054
-695.456	87.469	0.160	0.179
-694.441	-115.616	-0.246	0.047
-693.426	-200.000	-0.026	-0.167
-692.412	-73.194	-0.081	-0.030
-691.397	629.332	0.165	0.423
-690.383	-53.126	-0.138	-0.064
-689.368	188.781	-0.098	0.149
-688.354	800.000	0.043	-0.169
-687.339	-177.534	-0.191	0.005
-686.324	-4.056	-0.142	0.100
-685.310	-200.000	-0.004	0.463
-684.295	23.058	0.239	0.199
-683.281	40.843	0.214	-0.196
-682.266	-33.229	0.162	0.091
-681.251	-162.816	-0.718	-0.035
-680.237	-104.561	0.134	-0.031
-679.222	14.409	0.247	0.195
-678.208	143.509	-0.048	0.065
-677.193	66.687	-0.067	-0.069
-676.178	-76.355	-0.077	-0.027
-675.164	-131.086	-0.395	-0.053
-674.149	-98.497	-0.180	0.047
-673.135	-200.000	-0.048	0.274
-672.120	-80.553	-0.167	0.056
-671.105	181.671	0.139	0.207
-670.091	-7.745	-0.077	-0.053
-669.076	-141.911	-0.207	-0.021
-668.062	117.919	-0.041	-0.052
-667.047	25.190	0.120	-0.101
-666.032	800.000	-0.065	-0.248
-665.018	-87.935	-0.427	-0.130
-664.003	104.867	0.114	-0.136
-662.989	-8.119	0.429	-0.292
-661.974	3.605	-0.087	-0.064
-660.959	399.843	-0.086	0.181
-659.945	27.787	-0.059	-0.050
-658.930	256.764	0.039	-0.068
-657.916	-62.336	0.149	0.063
-656.901	-200.000	0.011	0.086
-655.886	-130.346	0.099	0.014
-654.872	-64.683	0.040	-0.016
-653.857	514.184	-0.053	-0.126
-652.843	-200.000	-0.005	-0.199
-651.828	73.176	-0.224	-0.237
-650.814	207.100	-0.345	-0.544
-649.799	-119.007	-0.070	0.012
-648.784	363.592	-0.056	0.114
-647.770	478.745	-0.128	0.293
-646.755	-107.713	0.200	0.044
-645.741	-100.305	-0.282	0.071
-644.726	800.000	-0.105	-0.398
-643.711	-145.236	-0.256	0.023
-642.697	-138.898	0.170	-0.019
-641.682	-200.000	-0.017	-0.255
-640.668	90.563	0.047	0.053
-639.653	-102.948	-0.143	-0.034
-638.638	-21.561	0.123	0.076
-637.624	81.813	0.130	-0.142
-636.609	800.000	0.078	0.280
-635.595	-85.573	0.068	0.021
-634.580	800.000	0.046	0.152
-633.565	102.480	0.073	-0.086
-632.551	3.377	-0.189	-0.139
-631.536	-200.000	-0.031	-0.274
-630.522	259.278	0.146	-0.255
-629.507	-200.000	0.018	0.117
-628.492	-200.000	-0.064	-0.352
-627.478	214.838	0.193	-0.309
-626.463	-24.875	-0.108	-0.065
-625.449	247.357	-0.108	0.184
-624.434	260.289	-0.221	-0.385
-623.419	-164.560	-0.326	0.015
-622.405	800.000	-0.047	-0.201
-621.390	649.396	-0.156	-0.403
-620.376	-155.473	-0.091	-0.006
-619.361	-125.299	-0.188	-0.029
-618.346	-53.509	0.096	0.044
-617.332	-80.801	-0.280	0.094
-616.317	326.079	-0.051	0.098
-615.303	-35.653	-0.212	-0.116
-614.288	-95.662	-0.081	-0.022
-613.273	141.847	0.028	0.038
-612.259	5.132	0.277	0.206
-611.244	-13.784	-0.092	-0.060
-610.230	74.539	-0.142	-0.150
-609.215	-112.816	-0.131	0.026
-608.201	-15.901	0.190	-0.122
-607.186	800.000	-0.045	-0.188
-606.171	290.265	-0.113	0.208
-605.157	-200.000	0.009	0.157
-604.142	-200.000	-0.035	0.261
-603.128	-200.000	-0.105	0.000
-602.113	21.908	-0.305	-0.251
-601.098	97.963	-0.115	-0.134
-600.084	-152.836	0.338	0.024
-599.069	-54.442	-0.231	-0.106
-598.055	-180.357	-0.178	-0.004
-597.040	-200.000	0.001	-0.016
-596.025	-200.000	0.027	-0.259
-595.011	-70.673	-0.123	-0.047
-593.996	32.960	-0.314	0.275
-592.982	224.774	-0.118	0.192
-591.967	-79.689	-0.370	-0.126
-590.952	138.630	0.298	-0.395
-589.938	-64.664	0.270	-0.110
-588.923	-66.819	-0.283	0.113
-587.909	184.844	0.096	0.144
-586.894	800.000	-0.033	-0.099
-585.879	800.000	-0.044	-0.137
-584.865	-200.000	-0.021	0.235
-583.850	305.298	0.032	-0.061
-582.836	405.243	0.114	0.241
-581.821	282.382	-0.150	0.271
-580.806	-47.636	-0.034	-0.017
-579.792	153.606	-0.229	-0.316
-578.777	-60.503	0.210	0.090
-577.763	800.000	-0.083	-0.278
-576.748	630.184	-0.168	-0.429
-575.733	414.421	-0.105	-0.226
-574.719	390.654	0.114	-0.238
-573.704	305.137	-0.132	-0.246
-572.690	18.459	0.109	-0.088
-571.675	443.895	-0.172	-0.380
-570.661	123.844	-0.182	0.230
-569.646	-111.189	0.316	0.065
-568.631	-42.774	0.093	-0.048
-567.617	67.382	-0.084	0.086
-566.602	67.334	-0.207	-0.213
-565.588	474.550	-0.069	-0.156
-564.573	-79.133	0.203	-0.069
-563.558	-117.124	-0.119	0.022
-562.544	581.725	-0.187	0.463
-561.529	-200.000	-0.094	0.516
-560.515	85.136	0.068	0.076
-559.500	14.254	0.066	0.052
-558.485	425.455	0.045	-0.098
-557.471	-18.646	-0.098	0.061
-556.456	59.161	0.068	-0.068
-555.442	-129.712	0.101	0.014
-554.427	-9.735	0.052	-0.035
-553.412	102.686	-0.144	-0.170
-552.398	-180.258	0.241	-0.005
-551.383	-200.000	-0.013	-0.282
-550.369	466.973	-0.070	0.157
-549.354	-45.373	-0.270	0.135
-548.339	760.056	-0.103	0.280
-547.325	-133.939	-0.388	0.048
-546.310	-81.817	0.346	-0.114
-545.296	34.592	-0.240	0.211
-544.281	-200.000	-0.014	-0.201
-543.266	198.467	-0.126	0.194
-542.252	-128.237	-0.086	0.012
-541.237	549.378	0.086	0.206
-540.223	-144.083	-0.209	0.020
-539.208	-38.454	0.222	-0.118
-538.193	-41.620	-0.148	-0.077
-537.179	-96.455	0.217	0.058
-536.164	287.701	-0.078	0.142
-535.150	-200.000	0.048	0.451
-534.135	-96.739	0.095	0.025
-533.121	25.854	0.344	0.288
-532.106	499.252	0.126	-0.293
-531.091	-118.670	0.241	-0.043
-530.077	-200.000	0.027	-0.184
-529.062	680.522	-0.041	-0.107
-528.048	421.496	0.064	0.138
-527.033	68.617	0.286	-0.295
-526.018	-200.000	-0.012	-0.147
-525.004	800.000	-0.067	-0.228
-523.989	-120.746	-0.160	0.027
-522.975	5.634	-0.112	-0.084
-521.960	-32.468	0.072	0.040
-520.945	800.000	0.034	0.098
-519.931	663.421	0.014	0.036
-518.916	800.000	-0.092	-0.380
-517.902	-65.294	0.223	0.090
-516.887	-146.814	0.408	0.035
-515.872	10.213	0.108	0.083
-514.858	-133.000	-0.103	0.013
-513.843	800.000	-0.103	-0.309
-512.829	-157.747	0.130	-0.008
-511.814	-99.982	0.191	0.048
-510.799	800.000	0.030	-0.127
-509.785	48.110	-0.155	0.146
-508.770	51.769	-0.194	0.185
-507.756	133.703	-0.133	-0.173
-506.741	518.463	-0.050	0.118
-505.726	-200.000	0.070	-0.436
-504.712	137.951	0.227	0.299
-503.697	-200.000	0.019	0.094
-502.683	800.000	-0.088	-0.330
-501.668	124.910	-0.163	0.206
-500.653	-136.232	-0.334	0.039
-499.639	20.181	0.089	-0.073
-498.624	-200.000	-0.044	0.315
-497.610	-200.000	0.005	0.133
-496.595	522.601	-0.085	0.199
-495.581	392.345	0.093	-0.195
-494.566	52.945	-0.242	-0.233
-493.551	-50.484	0.167	-0.079
-492.537	16.854	0.105	0.084
-491.522	-200.000	-0.007	-0.108
-490.508	-114.716	0.097	0.019
-489.493	-130.812	-0.411	0.055
-488.478	-110.505	-0.225	-0.047
-487.464	85.098	-0.134	-0.148
-486.449	324.828	0.146	-0.280
-485.435	21.402	0.095	-0.078
-484.420	-12.899	-0.172	-0.112
-483.405	-16.711	0.112	0.071
-482.391	-1.607	0.131	0.093
-481.376	256.146	-0.075	0.129
-480.362	-136.435	-0.071	-0.008
-479.347	-154.779	-0.206	-0.014
-478.332	-144.672	0.160	0.015
-477.318	212.429	0.100	-0.159
-476.303	694.383	-0.069	0.182
-475.289	800.000	0.097	0.332
-474.274	516.068	0.207	-0.486
-473.259	-49.792	0.137	-0.065
-472.245	27.999	0.076	-0.064
-471.230	-66.617	0.089	0.036
-470.216	-95.279	0.247	-0.067
-469.201	335.412	-0.061	0.119
-468.186	89.451	0.168	0.188
-467.172	-200.000	0.023	0.118
-466.157	-200.000	0.029	-0.160
-465.143	198.110	0.200	-0.307
-464.128	48.059	0.170	0.160
-463.113	145.831	-0.135	0.182
-462.099	800.000	0.147	0.614
-461.084	-126.900	-0.131	0.019
-460.070	-200.000	-0.047	-0.415
-459.055	-200.000	0.033	0.153
-458.040	-94.579	0.192	-0.052
-457.026	-105.816	0.270	-0.061
-456.011	-200.000	0.048	0.217
-454.997	-200.000	0.010	-0.244
-453.982	-112.144	-0.207	0.042
-452.968	-200.000	0.026	0.291
-451.953	-95.940	0.130	0.035
-450.938	-13.007	-0.189	0.123
-449.924	-123.803	-0.139	0.022
-448.909	52.683	0.117	-0.112
-447.895	139.535	0.018	0.024
-446.880	-120.526	0.327	0.056
-445.865	34.779	-0.136	-0.119
-444.851	-14.039	0.301	0.195
-443.836	800.000	0.026	-0.085
-442.822	800.000	0.032	0.119
-441.807	-93.496	0.168	0.047
-440.792	-200.000	-0.032	0.301
-439.778	179.534	-0.060	-0.089
-438.763	15.492	-0.385	-0.303
-437.749	-53.517	0.273	-0.125
-436.734	-200.000	0.076	0.383
-435.719	384.978	-0.139	0.287
-434.705	14.352	0.108	-0.084
-433.690	-123.548	-0.284	0.045
-432.676	57.991	-0.196	0.192
-431.661	158.953	0.078	-0.109
-430.646	-151.389	0.280	0.021
-429.632	273.122	0.202	-0.357
-428.617	-126.534	0.158	0.024
-427.603	-200.000	-0.003	-0.163
-426.588	33.092	0.354	-0.307
-425.573	-102.548	-0.326	0.078
-424.559	-124.574	0.226	0.035
-423.544	148.226	-0.101	-0.136
-422.530	-26.187	0.301	0.177
-421.515	-13.380	0.172	0.111
-420.500	109.103	-0.116	-0.140
-419.486	67.804	0.247	0.253
-418.471	0.779	-0.139	-0.100
-417.457	-180.083	0.334	0.007
-416.442	5.599	-0.226	0.167
-415.428	29.168	0.161	0.137
-414.413	762.568	0.146	0.397
-413.398	117.990	0.071	-0.088
-412.384	192.611	-0.037	-0.056
-411.369	-68.339	-0.113	-0.044
-410.355	-72.506	-0.179	0.066
-409.340	251.673	-0.035	-0.060
-408.325	-200.000	-0.010	-0.264
-407.311	3.550	0.243	0.178
-406.296	199.767	-0.014	0.021
-405.282	418.442	-0.174	-0.372
-404.267	134.228	-0.221	-0.287
-403.252	51.502	0.277	0.263
-402.238	-119.392	0.131	-0.023
-401.223	147.300	-0.130	0.175
-400.209	-34.404	-0.146	-0.080
-399.194	200.132	-0.029	-0.045
-398.179	161.423	0.128	-0.180
-397.165	15.297	-0.180	-0.141
-396.150	-26.379	-0.153	-0.090
-395.136	79.115	-0.336	0.360
-394.121	-200.000	-0.021	0.166
-393.106	517.469	0.053	-0.125
-392.092	-78.780	-0.289	0.099
-391.077	73.380	0.247	-0.259
-390.063	536.043	-0.048	-0.115
-389.048	385.432	-0.037	0.076
-388.033	438.366	0.110	-0.239
-387.019	5.389	0.164	-0.121
-386.004	800.000	0.046	-0.165
-384.990	-31.126	0.090	-0.051
-383.975	-159.686	0.335	0.018
-382.960	-200.000	0.011	-0.231
-381.946	94.235	-0.079	-0.089
-380.931	65.004	-0.269	-0.272
-379.917	-76.983	-0.223	-0.078
-378.902	-82.775	-0.257	-0.083
-377.888	-200.000	0.010	-0.196
-376.873	88.284	-0.188	-0.208
-375.858	-42.628	-0.141	-0.072
-374.844	173.958	0.101	-0.146
-373.829	117.887	0.073	0.089
-372.815	-118.862	0.380	0.067
-371.800	-8.806	0.167	-0.112
-370.785	-200.000	0.009	-0.195
-369.771	-200.000	0.044	-0.535
-368.756	381.278	0.091	0.186
-367.742	-114.965	0.400	0.076
-366.727	-12.467	0.137	0.090
-365.712	17.106	0.156	0.124
-364.698	460.759	-0.129	-0.287
-363.683	-42.088	-0.051	0.026
-362.669	-140.162	-0.397	0.042
-361.654	-200.000	-0.059	-0.269
-360.639	-110.838	0.333	0.068
-359.625	-200.000	-0.043	-0.216
-358.610	-150.964	-0.197	-0.015
-357.596	-96.303	0.243	-0.064
-356.581	-200.000	-0.046	-0.378
-355.566	-25.878	-0.032	0.019
-354.552	800.000	0.054	0.213
-353.537	-9.244	-0.041	0.027
-352.523	-47.203	-0.194	0.094
-351.508	481.630	0.103	-0.233
-350.493	467.137	-0.082	0.183
-349.479	381.427	0.081	-0.165
-348.464	-129.056	-0.203	-0.028
-347.450	84.512	-0.333	0.363
-346.435	93.300	-0.025	0.028
-345.420	-142.452	0.499	-0.049
-344.406	20.550	-0.136	-0.109
-343.391	-151.285	-0.208	0.016
-342.377	-4.172	-0.110	0.076
-341.362	-44.814	0.135	-0.067
-340.348	124.435	-0.167	0.210
-339.333	219.418	-0.201	0.320
-338.318	70.649	-0.085	0.087
-337.304	-64.300	-0.225	0.092
-336.289	-200.000	-0.037	0.372
-335.275	548.462	0.133	0.318
-334.260	-161.136	0.264	0.014
-333.245	74.324	0.286	-0.300
-332.231	-70.227	-0.179	0.068
-331.216	-200.000	-0.007	-0.212
-330.202	-200.000	-0.005	0.287
-329.187	800.000	0.111	0.384
-328.172	53.702	0.024	-0.023
-327.158	89.278	-0.130	0.144
-326.143	-81.885	-0.356	0.116
-325.129	30.558	0.101	-0.086
-324.114	-40.437	-0.362	0.188
-323.099	186.281	-0.063	-0.093
-322.085	-8.260	-0.210	-0.141
-321.070	41.692	-0.250	0.226
-320.056	-48.960	-0.096	-0.046
-319.041	-200.000	-0.004	0.239
-318.026	51.952	-0.232	0.220
-317.012	781.137	-0.096	0.261
-315.997	-141.327	0.608	0.062
-314.983	-29.351	-0.131	-0.075
-313.968	-34.475	-0.283	-0.155
-312.953	800.000	-0.047	-0.185
-311.939	-56.561	0.172	-0.076
-310.924	-200.000	-0.005	0.197
-309.910	573.988	0.045	-0.109
-308.895	45.785	0.008	-0.007
-307.880	-190.810	-0.060	-0.001
-306.866	44.698	0.122	-0.112
-305.851	366.121	0.089	-0.179
-304.837	800.000	0.062	0.217
-303.822	-122.713	0.352	0.057
-302.807	-200.000	-0.013	0.414
-301.793	-38.963	0.180	0.095
-300.778	-75.090	0.112	0.040
-299.764	34.725	-0.310	0.270
-298.749	-62.484	-0.246	0.102
-297.735	146.347	0.114	0.153
-296.720	198.112	0.073	-0.111
-295.705	12.165	0.164	-0.126
-294.691	-122.496	0.353	-0.057
-293.676	-1.966	-0.087	-0.061
-292.662	350.618	-0.074	0.145
-291.647	193.446	0.191	-0.289
-290.632	498.695	0.084	0.192
-289.618	800.000	-0.049	0.139
-288.603	800.000	-0.045	0.152
-287.589	23.586	-0.164	-0.134
-286.574	-93.010	-0.417	-0.116
-285.559	-200.000	0.001	-0.057
-284.545	7.928	0.067	0.050
-283.530	390.737	-0.121	0.250
-282.516	143.156	-0.199	-0.264
-281.501	77.266	0.367	-0.388
-280.486	116.822	0.055	0.067
-279.472	-200.000	0.004	-0.040
-278.457	103.602	0.233	-0.272
-277.443	-200.000	-0.086	0.473
-276.428	-200.000	0.014	-0.105
-275.413	-93.640	-0.424	0.117
-274.399	-96.247	-0.248	-0.065
-273.384	387.442	0.174	0.358
-272.370	800.000	0.097	0.300
-271.355	-200.000	-0.039	0.569
-270.340	-67.536	-0.316	0.123
-269.326	162.980	-0.108	0.151
-268.311	-138.993	0.313	0.034
-267.297	-51.648	-0.325	-0.151
-266.282	486.710	0.177	0.402
-265.267	-114.376	-0.172	-0.033
-264.253	-14.591	-0.317	-0.203
-263.238	-200.000	-0.003	-0.063
-262.224	252.343	-0.073	-0.124
-261.209	-76.462	0.387	-0.135
-260.195	-69.069	-0.157	0.060
-259.180	-6.939	-0.231	0.156
-258.165	-200.000	0.038	0.291
-257.151	800.000	0.059	0.227
-256.136	789.280	0.097	0.265
-255.122	-200.000	-0.018	-0.186
-254.107	-40.732	0.206	-0.106
-253.092	-123.774	0.170	0.027
-252.078	-89.993	0.120	0.035
-251.063	-84.828	0.410	-0.128
-250.049	-152.293	0.215	-0.015
-249.034	4.044	-0.186	-0.135
-248.019	-200.000	-0.019	0.181
-247.005	-75.282	-0.377	0.134
-245.990	-93.284	-0.307	-0.085
-244.976	-177.671	-0.349	0.008
-243.961	-174.111	-0.109	-0.003
-242.946	538.722	0.106	-0.252
-241.932	-74.127	0.101	0.036
-240.917	6.738	0.165	0.122
-239.903	800.000	0.074	0.220
-238.888	-123.441	0.477	-0.076
-237.873	-49.695	-0.096	0.046
-236.859	6.112	0.149	0.110
-235.844	86.107	0.185	-0.202
-234.830	141.804	0.167	0.220
-233.815	87.311	-0.254	0.280
-232.800	59.625	-0.159	-0.156
-231.786	-198.499	-0.149	0.001
-230.771	50.876	-0.197	0.186
-229.757	-200.000	0.079	0.378
-228.742	-9.578	0.231	0.153
-227.727	446.143	0.099	0.215
-226.713	-200.000	-0.012	-0.195
-225.698	18.481	0.196	-0.156
-224.684	61.012	0.085	-0.084
-223.669	-200.000	0.039	0.191
-222.655	-200.000	-0.003	-0.065
-221.640	-200.000	-0.041	-0.261
-220.625	-6.261	-0.141	0.096
-219.611	-151.752	0.318	0.023
-218.596	-93.765	0.241	0.066
-217.582	82.215	0.210	-0.226
-216.567	133.637	0.061	-0.079
-215.552	-200.000	-0.027	0.187
-214.538	35.756	0.300	0.262
-213.523	-75.746	0.214	0.075
-212.509	422.447	-0.015	0.033
-211.494	-178.603	-0.391	-0.009
-210.479	-67.035	0.129	0.051
-209.465	55.008	0.158	-0.151
-208.450	-10.075	0.180	-0.119
-207.436	-200.000	-0.030	-0.230
-206.421	-39.685	0.017	0.009
-205.406	-200.000	-0.006	-0.121
-204.392	-127.414	-0.265	-0.038
-203.377	-200.000	-0.016	-0.134
-202.363	151.259	0.110	-0.149
-201.348	90.766	-0.109	-0.121
-200.333	111.480	0.239	-0.286
-199.319	800.000	0.031	-0.108
-198.304	800.000	0.037	0.104
-197.290	-13.645	0.223	0.144
-196.275	-118.434	0.080	-0.014
-195.260	-99.310	-0.230	0.058
-194.246	-49.937	0.175	-0.082
-193.231	800.000	0.158	-0.459
-192.217	164.228	0.067	-0.094
-191.202	-200.000	-0.039	-0.192
-190.187	661.437	0.089	-0.229
-189.173	-133.113	0.104	-0.013
-188.158	-34.574	-0.052	-0.028
-187.144	-149.174	-0.066	-0.005
-186.129	-103.468	-0.092	0.021
-185.114	497.921	0.069	-0.158
-184.100	240.749	0.035	0.058
-183.085	-200.000	0.028	0.165
-182.071	56.200	-0.264	-0.255
-181.056	-64.215	-0.386	0.156
-180.042	471.482	-0.102	0.227
-179.027	212.458	0.152	-0.237
-178.012	155.240	0.058	0.079
-176.998	-135.979	0.449	0.052
-175.983	-29.808	0.163	-0.092
-174.969	181.483	0.123	0.180
-173.954	-83.248	-0.213	-0.068
-172.939	-182.002	-0.053	0.001
-171.925	-44.589	0.112	0.056
-170.910	-200.000	-0.045	0.295
-169.896	800.000	-0.130	0.520
-168.881	-38.107	-0.155	0.082
-167.866	21.206	0.187	0.150
-166.852	45.215	0.259	0.237
-165.837	-46.815	0.112	-0.054
-164.823	-200.000	0.037	-0.200
-163.808	-110.843	0.165	0.034
-162.793	695.976	0.034	0.088
-161.779	108.161	0.174	0.206
-160.764	-200.000	-0.009	0.039
-159.750	-31.471	-0.238	0.133
-158.735	-200.000	-0.055	-0.415
-157.720	124.276	-0.058	-0.072
-156.706	221.766	-0.278	0.442
-155.691	-42.241	-0.214	0.108
-154.677	-8.074	0.044	0.029
-153.662	137.635	0.062	0.081
-152.647	-200.000	0.022	0.098
-151.633	218.591	0.166	-0.263
-150.618	235.166	-0.005	0.008
-149.604	301.855	0.106	0.195
-148.589	-111.806	-0.199	-0.040
-147.574	151.068	0.139	0.188
-146.560	-200.000	-0.072	-0.392
-145.545	88.465	0.139	-0.153
-144.531	284.074	0.091	0.161
-143.516	-37.601	-0.149	-0.079
-142.502	-82.745	0.244	-0.078
-141.487	6.498	0.192	0.142
-140.472	-8.987	-0.257	0.170
-139.458	800.000	-0.068	-0.202
-138.443	-200.000	-0.017	0.088
-137.429	251.009	0.083	0.139
-136.414	-113.623	-0.078	0.015
-135.399	84.417	0.232	-0.251
-134.385	157.990	-0.159	-0.218
-133.370	6.405	0.150	0.111
-132.356	-120.780	0.187	-0.031
-131.341	-122.250	0.211	-0.034
-130.326	-200.000	-0.034	-0.275
-129.312	-22.926	0.179	-0.107
-128.297	-93.211	0.153	-0.042
-127.283	458.751	-0.064	0.142
-126.268	-81.791	-0.448	-0.145
-125.253	-200.000	0.048	-0.467
-124.239	289.616	0.178	-0.319
-123.224	60.920	0.123	-0.121
-122.210	8.359	-0.273	-0.203
-121.195	-64.757	-0.224	-0.090
-120.180	-200.000	-0.034	0.212
-119.166	269.277	0.036	0.062
-118.151	709.448	-0.058	0.151
-117.137	-49.346	0.074	0.035
-116.122	-84.049	-0.276	-0.087
-115.107	106.450	-0.230	0.270
-114.093	135.363	0.284	0.366
-113.078	110.295	0.169	0.201
-112.064	-92.732	0.326	0.090
-111.049	800.000	0.025	-0.074
-110.034	-200.000	-0.022	0.212
-109.020	-158.146	0.314	0.018
-108.005	93.549	0.177	0.198
-106.991	-153.815	-0.164	0.011
-105.976	-79.632	0.210	-0.070
-104.962	-200.000	0.043	0.256
-103.947	582.444	-0.055	0.134
-102.932	200.476	0.130	-0.197
-101.918	218.974	-0.018	0.028
-100.903	-88.259	-0.176	0.052
-99.889	800.000	0.138	0.514
-98.874	263.481	-0.150	-0.258
-97.859	56.986	-0.174	-0.168
-96.845	-88.800	-0.178	-0.052
-95.830	479.986	-0.017	0.038
-94.816	-8.152	0.119	-0.080
-93.801	20.341	0.060	0.048
-92.786	271.724	0.195	-0.340
-91.772	-200.000	0.006	-0.169
-90.757	311.735	0.068	0.125
-89.743	157.975	-0.024	-0.032
-88.728	46.480	-0.205	-0.188
-87.713	800.000	-0.106	0.323
-86.699	104.145	-0.144	0.167
-85.684	-12.038	-0.254	0.165
-84.670	800.000	0.106	0.328
-83.655	-134.831	0.079	0.009
-82.640	224.375	-0.184	0.294
-81.626	353.975	-0.266	0.523
-80.611	-139.531	-0.123	0.013
-79.597	112.767	0.088	-0.105
-78.582	-200.000	0.039	0.214
-77.567	-32.041	0.310	-0.171
-76.553	-75.391	-0.242	0.085
-75.538	-21.073	-0.231	0.140
-74.524	-99.217	0.258	-0.065
-73.509	290.321	0.127	0.228
-72.494	-115.373	-0.422	0.079
-71.480	-141.821	-0.189	-0.019
-70.465	-200.000	0.015	0.070
-69.451	-106.338	0.068	-0.015
-68.436	56.947	0.118	-0.114
-67.422	-110.510	-0.162	-0.033
-66.407	-200.000	0.057	0.360
-65.392	266.925	0.136	0.235
-64.378	-70.296	-0.315	-0.118
-63.363	-135.753	-0.238	-0.028
-62.349	-37.068	0.288	0.153
-61.334	44.033	-1.140	-1.032
-60.319	130.051	0.307	0.388
-59.305	-200.000	-0.187	-0.852
-58.290	121.269	0.825	1.014
-57.276	582.178	0.796	1.928
-56.261	-200.000	96.068	582.389
-55.246	565.531	1375.042	3292.057
-54.232	154.359	2574.603	3489.049
-53.217	115.220	2177.682	2625.255
-52.203	45.784	1717.225	1567.401
-51.188	38.504	1528.154	1344.986
-50.173	36.027	1500.584	1303.930
-49.159	55.540	1551.370	1482.760
-48.144	59.432	1570.740	1527.973
-47.130	38.850	1525.455	1344.772
-46.115	35.606	1510.154	1309.172
-45.100	35.457	1506.496	1304.935
-44.086	35.283	1505.279	1302.647
-43.071	35.369	1502.875	1301.096
-42.057	35.408	1500.811	1299.523
-41.042	35.254	1499.909	1297.646
-40.027	35.267	1498.612	1296.557
-39.013	35.350	1497.019	1295.689
-37.998	35.276	1495.853	1294.133
-36.984	35.316	1494.993	1293.605
-35.969	35.312	1493.584	1292.308
-34.954	35.344	1491.875	1290.991
-33.940	35.265	1490.504	1289.227
-32.925	35.339	1489.270	1288.602
-31.911	35.367	1488.195	1287.810
-30.896	35.322	1486.729	1286.189
-29.881	35.404	1485.256	1285.415
-28.867	35.367	1483.902	1283.945
-27.852	35.454	1482.324	1283.110
-26.838	35.462	1480.717	1281.722
-25.823	35.452	1479.124	1280.223
-24.809	35.327	1478.446	1278.752
-23.794	35.335	1476.392	1276.976
-22.779	35.407	1475.102	1276.288
-21.765	35.454	1473.748	1275.381
-20.750	35.383	1473.174	1274.360
-19.736	35.374	1472.132	1273.349
-18.721	35.332	1471.291	1272.296
-17.706	35.315	1469.910	1270.937
-16.692	35.252	1469.140	1269.803
-15.677	35.260	1468.284	1269.067
-14.663	35.333	1467.063	1268.445
-13.648	35.280	1466.106	1267.211
-12.633	35.314	1464.607	1266.092
-11.619	35.309	1464.112	1265.582
-10.604	35.251	1463.488	1264.612
-9.590	35.275	1462.629	1263.978
-8.575	35.276	1461.545	1262.995
-7.560	35.276	1461.091	1262.552
-6.546	35.299	1459.800	1261.536
-5.531	35.311	1458.542	1260.478
-4.517	35.411	1457.566	1260.244
-3.502	35.220	1457.020	1258.464
-2.487	35.240	1456.176	1257.819
-1.473	35.266	1455.174	1257.077
-0.458	35.304	1453.101	1255.484
0.556	35.899	1443.801	1243.105
1.571	32.288	1417.044	1197.023
2.586	28.068	1355.040	1118.784
3.600	25.965	1272.874	1038.752
4.615	24.288	1226.388	991.411
5.629	20.628	1170.016	926.305
6.644	11.277	1084.483	812.134
7.659	4.038	1042.934	746.166
8.673	3.011	1037.075	736.988
9.688	2.774	1033.541	733.277
10.702	2.577	1032.287	731.386
11.717	2.678	1030.775	730.731
12.731	5.533	1033.989	746.574
13.746	14.923	1047.062	801.120
14.761	23.262	1058.086	849.681
15.775	25.862	1060.317	863.878
16.790	26.325	1060.071	865.823
17.804	26.238	1059.511	864.871
18.819	25.986	1058.794	863.002
19.834	26.021	1058.276	862.672
20.848	26.195	1057.785	863.025
21.863	26.329	1057.227	863.132
22.877	26.411	1056.812	863.110
23.892	26.296	1056.182	861.972
24.907	26.268	1055.358	861.090
25.921	26.181	1055.018	860.322
26.936	26.174	1054.372	859.683
27.950	26.130	1053.462	858.659
28.965	26.227	1051.887	857.759
29.980	26.091	1050.278	855.727
30.994	26.046	1049.036	854.426
32.009	26.289	1048.423	855.001
33.023	26.326	1047.971	854.731
34.038	26.108	1046.846	852.707
35.053	26.098	1046.463	852.274
36.067	26.288	1045.709	852.478
37.082	26.229	1044.639	851.254
38.096	26.263	1044.137	850.929
39.111	26.385	1043.642	851.026
40.126	26.567	1042.736	851.069
41.140	26.457	1041.548	849.506
42.155	26.170	1039.677	846.560
43.169	25.688	1039.018	843.689
44.184	25.826	1037.482	843.011
45.199	25.904	1036.933	842.856
46.213	25.740	1035.864	841.149
47.228	25.821	1035.095	840.825
48.242	26.127	1033.969	841.265
49.257	26.038	1033.546	840.429
50.271	26.199	1032.665	840.389
51.286	26.310	1032.213	840.462
52.301	26.381	1031.532	840.166
53.315	26.365	1030.752	839.379
54.330	26.349	1030.000	838.621
55.344	26.134	1029.228	836.920
56.359	26.132	1028.443	836.198
57.374	26.225	1027.900	836.113
58.388	26.199	1026.335	834.647
59.403	26.001	1025.886	833.291
60.417	26.044	1024.851	832.577
61.432	25.641	1024.581	830.426
62.447	25.947	1023.635	830.996
63.461	26.101	1022.663	830.841
64.476	25.971	1022.396	829.950
65.490	26.077	1021.638	829.752
66.505	25.933	1020.823	828.356
67.520	25.809	1020.364	827.339
68.534	25.943	1019.351	827.059
69.549	25.801	1018.004	825.244
70.563	25.513	1017.018	823.050
71.578	25.362	1016.824	822.130
72.593	25.427	1015.450	821.246
73.607	25.338	1014.360	819.885
74.622	25.278	1013.372	818.738
75.636	25.580	1012.725	819.520
76.651	25.783	1012.043	819.821
77.666	25.733	1010.954	818.640
78.680	25.752	1010.073	817.937
79.695	25.599	1009.607	816.794
80.709	25.720	1008.647	816.495
81.724	25.718	1008.459	816.261
82.739	25.758	1007.692	815.748
83.753	25.735	1006.906	814.935
84.768	26.041	1006.287	815.745
85.782	26.384	1005.766	816.804
86.797	26.583	1005.146	817.126
87.812	26.607	1003.867	816.121
88.826	26.334	1003.383	814.427
89.841	26.407	1002.561	814.014
90.855	26.405	1001.842	813.350
91.870	26.474	1001.144	813.022
92.884	26.446	1000.414	812.229
93.899	26.458	999.103	811.150
94.914	26.353	998.234	809.899
95.928	26.399	997.528	809.462
96.943	26.507	996.842	809.318
97.957	26.141	995.861	806.813
98.972	25.962	994.618	804.934
99.987	25.659	993.825	802.872
101.001	25.868	993.161	803.196
102.016	26.300	992.826	804.775
103.030	26.184	992.062	803.571
104.045	26.133	990.741	802.205
105.060	25.945	990.041	800.733
106.074	25.823	988.783	799.102
107.089	25.906	987.831	798.630
108.103	26.161	987.429	799.364
109.118	26.368	986.613	799.549
110.133	25.896	985.997	796.890
111.147	25.920	984.640	795.831
112.162	25.765	983.244	793.946
113.176	25.577	982.483	792.432
114.191	25.759	981.527	792.393
115.206	25.981	980.723	792.653
116.220	25.614	979.506	789.984
117.235	25.306	979.181	788.300
118.249	25.601	978.137	788.682
119.264	25.503	977.577	787.733
120.279	25.522	976.509	786.888
121.293	25.450	975.928	786.032
122.308	25.685	974.876	786.143
123.322	25.569	974.255	785.066
124.337	25.555	973.314	784.179
125.352	25.427	972.434	782.843
126.366	25.059	970.631	779.722
127.381	24.743	969.354	777.251
128.395	25.235	969.258	779.245
129.410	25.936	968.907	781.937
130.424	26.035	968.699	782.126
131.439	26.069	967.430	781.181
132.454	26.043	966.597	780.327
133.468	26.138	965.661	779.912
134.483	26.005	964.974	778.713
135.497	25.874	964.727	777.879
136.512	26.247	963.840	778.704
137.527	26.335	963.038	778.365
138.541	26.457	962.039	778.016
139.556	26.339	961.450	776.962
140.570	26.349	960.769	776.386
141.585	26.295	960.482	775.855
142.600	26.604	959.066	775.968
143.614	26.396	958.137	774.255
144.629	26.544	957.448	774.264
145.643	26.671	956.961	774.342
146.658	26.590	955.744	772.947
147.673	26.485	954.611	771.512
148.687	26.258	953.786	769.812
149.702	26.152	952.507	768.260
150.716	26.291	951.212	767.737
151.731	25.949	950.781	765.870
152.746	26.150	949.757	765.830
153.760	26.369	949.360	766.371
154.775	26.496	948.681	766.293
155.789	26.509	947.736	765.517
156.804	26.435	947.026	764.562
157.819	26.466	945.543	763.428
158.833	26.514	945.196	763.284
159.848	26.571	944.600	762.976
160.862	26.642	944.147	762.838
161.877	26.650	942.523	761.495
162.892	26.404	942.347	760.248
163.906	26.448	941.229	759.466
164.921	26.507	940.076	758.713
165.935	26.466	938.834	757.476
166.950	26.571	937.885	757.081
167.964	26.527	937.444	756.474
168.979	26.532	936.320	755.522
169.994	26.365	935.115	753.784
171.008	26.218	934.189	752.361
172.023	26.429	933.563	752.666
173.037	26.510	933.005	752.487
174.052	26.449	931.734	751.142
175.067	26.114	930.789	748.926
176.081	26.095	930.247	748.344
177.096	26.325	929.239	748.419
178.110	26.346	928.560	747.895
179.125	26.045	927.586	745.798
180.140	25.815	926.539	743.940
181.154	25.912	925.601	743.522
182.169	26.005	925.652	743.880
183.183	26.088	925.642	744.147
184.198	26.535	924.972	745.388
185.213	26.499	924.239	744.581
186.227	26.378	923.563	743.471
187.242	26.462	923.237	743.490
188.256	26.402	922.739	742.776
189.271	26.249	922.079	741.553
190.286	26.623	920.926	742.092
191.300	26.348	920.218	740.328
192.315	26.001	918.513	737.475
193.329	24.993	917.091	732.148
194.344	24.592	916.306	729.819
195.359	25.265	916.410	732.584
196.373	26.173	916.777	736.521
197.388	26.513	916.365	737.512
198.402	26.277	916.012	736.201
199.417	26.320	915.193	735.650
200.432	26.456	914.570	735.639
201.446	26.263	914.256	734.537
202.461	25.946	913.377	732.478
203.475	26.047	912.964	732.492
204.490	25.597	911.636	729.538
205.504	24.445	909.315	722.952
206.519	24.854	909.454	724.656
207.534	25.801	909.675	728.601
208.548	25.989	908.941	728.705
209.563	26.259	908.830	729.645
210.577	26.245	908.140	728.968
211.592	26.060	907.276	727.464
212.607	26.380	907.345	728.747
213.621	26.693	906.585	729.330
214.636	26.515	906.137	728.190
215.650	26.473	905.879	727.751
216.665	26.442	905.350	727.137
217.680	26.459	904.680	726.602
218.694	26.566	904.549	726.861
219.709	26.280	903.322	724.664
220.723	25.905	902.314	722.287
221.738	26.115	901.717	722.587
222.753	26.313	901.464	723.113
223.767	26.267	900.734	722.278
224.782	26.460	899.563	722.046
225.796	26.499	899.628	722.192
226.811	26.607	899.117	722.146
227.826	26.394	897.398	719.854
228.840	25.514	895.933	715.118
229.855	25.310	895.875	714.197
230.869	25.687	895.181	715.078
231.884	25.354	894.391	713.064
232.899	25.333	893.838	712.477
233.913	26.155	893.877	715.703
234.928	26.315	893.704	716.134
235.942	26.205	893.091	715.147
236.957	26.253	892.095	714.474
237.972	25.927	891.412	712.577
238.986	25.922	890.663	711.894
240.001	25.941	889.894	711.293
241.015	25.901	889.267	710.572
242.030	26.020	888.859	710.651
243.045	26.133	888.227	710.527
244.059	26.294	887.777	710.736
245.074	26.491	887.139	710.936
246.088	26.646	886.136	710.678
247.103	26.056	885.789	708.021
248.117	26.020	885.634	707.693
249.132	26.716	885.004	709.856
250.147	26.989	884.902	710.781
251.161	27.136	884.430	710.914
252.176	27.270	884.021	711.045
253.190	27.293	883.421	710.592
254.205	27.201	883.225	710.009
255.220	27.533	882.539	710.693
256.234	27.450	882.136	709.980
257.249	27.251	881.638	708.743
258.263	27.136	880.884	707.626
259.278	27.125	880.565	707.264
260.293	27.253	879.894	707.160
261.307	27.298	879.239	706.745
262.322	27.381	878.374	706.309
263.336	27.021	878.283	704.778
264.351	26.685	876.657	702.110
265.366	25.616	874.615	696.277
266.380	25.119	873.823	693.659
267.395	26.044	874.238	697.508
268.409	26.827	874.253	700.482
269.424	26.602	874.108	699.435
270.439	26.826	873.558	699.799
271.453	26.932	872.980	699.682
272.468	27.085	871.854	699.308
273.482	27.282	871.332	699.583
274.497	27.309	871.263	699.573
275.512	27.219	870.043	698.183
276.526	26.611	868.501	694.554
277.541	26.676	868.508	694.746
278.555	27.209	868.334	696.588
279.570	26.869	867.817	694.813
280.585	26.844	866.858	693.886
281.599	26.879	866.593	693.746
282.614	27.013	865.691	693.475
283.628	26.551	864.911	691.026
284.643	26.026	864.224	688.411
285.657	26.582	864.325	690.551
286.672	26.323	863.914	689.174
287.687	25.907	862.295	686.242
288.701	26.188	862.320	687.269
289.716	26.650	862.043	688.744
290.730	26.276	861.350	686.707
291.745	26.324	860.136	685.862
292.760	26.076	859.553	684.397
293.774	26.003	858.853	683.501
294.789	26.807	859.716	687.177
295.803	27.465	859.846	689.711
296.818	27.716	858.841	689.794
297.833	27.683	858.570	689.391
298.847	27.440	857.478	687.536
299.862	26.913	856.611	684.792
300.876	27.092	856.472	685.296
301.891	27.508	855.508	686.029
302.906	27.757	854.817	686.351
303.920	27.271	854.080	683.871
304.935	27.150	853.448	682.852
305.949	27.401	853.598	683.855
306.964	27.651	852.929	684.195
307.979	27.425	851.911	682.472
308.993	27.369	851.414	681.805
310.008	27.555	851.386	682.419
311.022	27.753	851.104	682.873
312.037	27.670	850.074	681.675
313.052	27.369	849.630	680.133
314.066	27.252	848.966	679.106
315.081	26.526	847.359	675.052
316.095	25.569	846.302	670.584
317.110	26.189	846.549	673.032
318.125	27.096	846.893	676.627
319.139	26.803	845.490	674.355
320.154	25.671	843.910	668.832
321.168	25.072	843.102	665.908
322.183	25.911	842.954	668.848
323.197	26.809	843.854	672.836
324.212	27.087	843.312	673.376
325.227	27.201	843.043	673.523
326.241	27.407	842.466	673.764
327.256	27.395	841.640	673.000
328.270	27.130	841.120	671.544
329.285	26.987	840.580	670.525
330.300	26.874	840.045	669.623
331.314	26.440	839.504	667.530
332.329	26.806	838.726	668.201
333.343	27.176	838.592	669.401
334.358	27.481	837.923	669.928
335.373	27.375	837.488	669.130
336.387	27.522	836.698	668.982
337.402	27.645	836.732	669.401
338.416	27.856	836.205	669.693
339.431	27.818	835.700	669.090
340.446	27.890	835.111	668.824
341.460	28.088	834.854	669.284
342.475	28.045	834.057	668.429
343.489	27.800	833.324	666.887
344.504	27.800	833.248	666.765
345.519	28.075	832.424	667.051
346.533	28.134	832.533	667.294
347.548	28.307	831.930	667.384
348.562	28.303	831.449	666.923
349.577	28.287	830.574	666.104
350.592	28.245	830.436	665.781
351.606	28.233	829.676	665.070
352.621	28.189	829.267	664.523
353.635	28.096	828.929	663.856
354.650	27.928	828.612	662.934
355.665	27.790	826.987	661.076
356.679	26.812	825.305	656.135
357.694	26.413	825.037	654.421
358.708	27.317	824.964	657.574
359.723	27.183	824.599	656.740
360.738	27.446	823.944	657.112
361.752	27.767	824.226	658.437
362.767	27.914	823.931	658.673
363.781	28.202	823.611	659.395
364.796	28.714	823.062	660.741
365.810	28.419	823.281	659.795
366.825	28.598	822.869	660.051
367.840	28.502	822.773	659.570
368.854	28.416	822.038	658.614
369.869	28.050	820.810	656.260
370.883	27.866	820.003	654.894
371.898	28.107	819.433	655.247
372.913	27.996	818.835	654.311
373.927	27.971	818.350	653.778
374.942	28.004	817.795	653.395
375.956	28.115	817.792	653.731
376.971	28.266	816.897	653.497
377.986	28.292	816.784	653.441
379.000	28.414	816.339	653.461
380.015	28.696	815.303	653.580
381.029	28.610	814.658	652.698
382.044	28.402	814.304	651.617
383.059	28.482	813.869	651.497
384.073	28.607	813.164	651.317
385.088	28.620	812.860	651.063
386.102	28.464	812.546	650.200
387.117	28.292	811.930	649.041
388.132	28.172	810.958	647.782
389.146	28.062	810.367	646.861
390.161	27.387	809.711	643.893
391.175	27.501	809.301	643.914
392.190	28.141	809.283	646.104
393.205	28.308	808.596	646.090
394.219	27.335	806.429	640.874
395.234	25.489	804.381	632.698
396.248	24.732	803.599	629.365
397.263	25.915	804.396	634.097
398.278	27.706	805.688	641.365
399.292	28.094	805.578	642.583
400.307	27.884	804.832	641.196
401.321	27.844	804.467	640.705
402.336	27.890	804.246	640.634
403.350	28.076	804.177	641.176
404.365	28.569	803.941	642.657
405.380	28.889	803.808	643.615
406.394	29.220	803.723	644.647
407.409	29.386	803.333	644.860
408.423	29.346	802.805	644.239
409.438	29.171	802.346	643.203
410.453	29.306	801.824	643.197
411.467	29.393	801.388	643.094
412.482	29.270	800.906	642.224
413.496	29.176	800.217	641.285
414.511	29.300	799.908	641.413
415.526	29.353	799.665	641.345
416.540	29.390	798.903	640.808
417.555	29.274	798.522	640.042
418.569	28.845	798.014	638.089
419.584	28.807	797.318	637.344
420.599	28.827	796.988	637.092
421.613	107.988	1281.548	1441.019
422.628	92.952	1352.152	1441.118
