DTS Sentinel unit serial number:	SN413079Multiplexer serial number:	ORYXHardware model number:	OX4-SRSoftware version number:	ORYX F/W v4.00 Oryx Data Collector v3.7.2.0data status	okinstallation	princeton_trtdifferential loss correction	single-endedforward channel	channel 3reverse channel	N/Adate	2019/09/14time	23:56:34forward acquisition time	60.00reverse acquisition time	0.00gamma	496.2192k internal	0.2320k external	0.2320temperature offset calibration	0.9979default loss term (dB/km)	0.3790temperature slope calibration	1.0000multiplexer offset coefficient	1.0000multiplexer slope coefficient	1.0000fibre end	0.00T internal ref (°C)	32.25T ext. ref 1 (°C)	4.62T ext. ref 2 (°C)	27.11length (m)	temperature (°C)	Stokes	anti-Stokes-747.200	-200.000	0.009	-0.126
-746.185	635.007	-0.065	-0.167
-745.171	565.716	0.024	-0.060
-744.156	5.113	-0.226	0.168
-743.142	6.036	0.220	-0.165
-742.127	557.496	0.029	0.070
-741.112	-31.628	-0.121	-0.069
-740.098	33.810	-0.257	0.226
-739.083	-104.227	-0.236	0.055
-738.069	800.000	-0.103	0.296
-737.054	-123.108	-0.237	0.038
-736.039	-40.393	-0.163	0.086
-735.025	-129.940	0.335	0.046
-734.010	-32.467	-0.215	0.121
-732.996	-160.088	-0.333	0.018
-731.981	-32.639	0.132	0.074
-730.966	-200.000	-0.047	-0.292
-729.952	800.000	-0.077	-0.219
-728.937	119.583	0.176	0.220
-727.923	-89.738	-0.288	0.085
-726.908	31.320	-0.192	0.167
-725.894	-200.000	-0.018	0.179
-724.879	800.000	0.049	0.193
-723.864	362.675	-0.184	0.373
-722.850	233.833	0.100	0.166
-721.835	30.870	0.152	0.132
-720.821	329.366	-0.188	0.366
-719.806	-107.305	0.198	-0.044
-718.791	-104.045	-0.246	-0.058
-717.777	-127.126	0.159	0.024
-716.762	94.777	0.161	0.185
-715.748	349.938	0.152	-0.303
-714.733	44.755	0.163	-0.151
-713.718	-133.605	-0.045	-0.006
-712.704	-200.000	0.089	-0.569
-711.689	800.000	0.062	-0.229
-710.675	-200.000	0.012	0.308
-709.660	-200.000	-0.234	-0.001
-708.645	-86.413	-0.387	-0.120
-707.631	38.167	0.317	-0.285
-706.616	86.687	0.139	-0.155
-705.602	-78.145	-0.342	-0.119
-704.587	193.627	0.099	-0.151
-703.572	-46.118	-0.164	-0.082
-702.558	-100.051	0.191	-0.048
-701.543	-200.000	0.032	0.227
-700.529	204.087	-0.177	-0.277
-699.514	800.000	-0.044	0.165
-698.499	-55.817	-0.219	0.099
-697.485	-29.943	0.193	-0.111
-696.470	-86.111	-0.094	-0.029
-695.456	57.900	-0.172	-0.170
-694.441	-176.573	-0.369	0.010
-693.426	-74.197	-0.285	0.104
-692.412	-200.000	-0.024	0.179
-691.397	-200.000	0.015	-0.266
-690.383	-151.309	-0.058	-0.004
-689.368	-115.546	-0.292	-0.055
-688.354	-146.731	0.402	-0.035
-687.339	29.288	0.063	0.054
-686.324	32.460	0.218	-0.190
-685.310	-42.084	0.236	0.122
-684.295	30.303	-0.184	-0.158
-683.281	105.816	-0.145	0.173
-682.266	-200.000	-0.055	0.402
-681.251	800.000	-0.127	-0.445
-680.237	-154.564	0.125	0.008
-679.222	37.085	-0.026	0.024
-678.208	395.157	0.086	0.182
-677.193	-16.176	-0.156	0.100
-676.178	800.000	0.073	-0.244
-675.164	800.000	-0.037	-0.134
-674.149	742.609	-0.072	0.195
-673.135	800.000	-0.049	0.204
-672.120	-200.000	0.022	-0.110
-671.105	213.897	-0.025	-0.040
-670.091	155.605	-0.058	0.080
-669.076	800.000	0.058	-0.164
-668.062	-200.000	0.030	-0.298
-667.047	190.895	-0.032	-0.048
-666.032	64.654	-0.199	0.202
-665.018	286.963	-0.016	0.029
-664.003	-67.188	0.195	0.077
-662.989	-59.246	-0.276	-0.120
-661.974	-81.773	0.143	0.047
-660.959	473.103	-0.055	-0.124
-659.945	-1.130	0.149	0.106
-658.930	150.093	-0.105	0.144
-657.916	105.626	0.047	-0.056
-656.901	-126.275	-0.173	-0.026
-655.886	35.245	0.186	-0.164
-654.872	800.000	-0.040	-0.127
-653.857	-60.915	0.188	-0.080
-652.843	800.000	-0.080	0.259
-651.828	188.865	0.148	0.223
-650.814	355.232	0.069	-0.138
-649.799	88.847	0.136	-0.153
-648.784	-28.099	-0.104	0.060
-647.770	212.085	0.120	-0.190
-646.755	-200.000	-0.001	-0.439
-645.741	-200.000	-0.007	-0.264
-644.726	632.038	-0.076	-0.195
-643.711	613.568	-0.085	0.213
-642.697	-57.476	-0.363	-0.160
-641.682	329.247	0.039	0.075
-640.668	-29.825	0.125	0.072
-639.653	-69.080	-0.469	0.182
-638.638	480.670	0.143	-0.326
-637.624	-11.701	-0.221	-0.146
-636.609	-163.779	-0.151	-0.007
-635.595	208.924	0.039	0.061
-634.580	-49.059	-0.181	0.087
-633.565	-132.405	-0.380	-0.049
-632.551	-76.329	-0.491	-0.174
-631.536	-49.754	0.167	-0.080
-630.522	-200.000	0.009	-0.128
-629.507	800.000	-0.054	-0.177
-628.492	28.036	-0.186	-0.158
-627.478	-53.624	0.115	0.053
-626.463	-200.000	-0.024	0.117
-625.449	-120.874	0.185	-0.031
-624.434	-129.589	-0.404	0.056
-623.419	275.647	0.101	0.181
-622.405	148.843	-0.214	0.291
-621.390	-200.000	-0.012	-0.062
-620.376	35.907	-0.159	0.141
-619.361	-200.000	0.061	-0.344
-618.346	-89.367	-0.165	0.049
-617.332	800.000	0.077	0.309
-616.317	-0.745	-0.247	-0.176
-615.303	-53.302	-0.153	0.071
-614.288	18.444	0.098	-0.078
-613.273	71.886	-0.158	-0.165
-612.259	44.181	0.033	0.030
-611.244	-64.384	-0.413	0.169
-610.230	-41.463	0.184	0.095
-609.215	31.052	-0.198	0.171
-608.201	25.307	0.231	-0.193
-607.186	77.791	-0.150	-0.160
-606.171	88.998	-0.204	0.229
-605.157	11.167	-0.164	0.126
-604.142	225.228	-0.067	0.110
-603.128	-96.625	0.128	0.034
-602.113	-200.000	-0.017	-0.088
-601.098	-103.963	-0.270	-0.063
-600.084	66.683	-0.128	0.130
-599.069	-91.244	-0.254	-0.073
-598.055	321.968	-0.205	0.393
-597.040	-144.335	0.270	0.025
-596.025	-105.036	0.254	-0.059
-595.011	-168.224	-0.333	-0.013
-593.996	-200.000	-0.035	0.254
-592.982	106.169	0.094	-0.112
-591.967	-34.931	-0.190	0.104
-590.952	304.361	0.085	-0.158
-589.938	-29.067	0.189	0.109
-588.923	-95.323	-0.472	-0.128
-587.909	-63.354	0.372	0.154
-586.894	-200.000	0.016	-0.232
-585.879	309.691	0.085	0.160
-584.865	-200.000	-0.007	0.188
-583.850	800.000	-0.091	0.303
-582.836	217.448	0.109	-0.174
-581.821	800.000	-0.072	-0.258
-580.806	521.363	-0.142	-0.336
-579.792	316.699	0.125	-0.238
-578.777	800.000	0.017	0.052
-577.763	-111.399	-0.210	-0.043
-576.748	-173.992	0.524	-0.015
-575.733	-200.000	0.010	-0.202
-574.719	800.000	-0.039	0.155
-573.704	352.909	-0.141	-0.281
-572.690	228.827	0.093	-0.153
-571.675	51.310	0.208	0.199
-570.661	25.533	-0.194	-0.162
-569.646	-200.000	-0.004	-0.155
-568.631	33.707	-0.125	0.109
-567.617	800.000	-0.117	-0.380
-566.602	-54.604	0.241	-0.110
-565.588	-200.000	0.054	0.403
-564.573	-173.557	0.303	0.009
-563.558	800.000	-0.079	-0.300
-562.544	-22.092	0.223	0.136
-561.529	800.000	-0.026	-0.110
-560.515	28.181	-0.201	-0.170
-559.500	-62.007	-0.175	-0.073
-558.485	800.000	0.146	-0.460
-557.471	-64.369	0.340	-0.139
-556.456	800.000	-0.105	-0.294
-555.442	-35.326	-0.108	-0.059
-554.427	-117.607	-0.208	0.038
-553.412	-105.048	0.178	-0.041
-552.398	-57.518	0.321	-0.142
-551.383	-200.000	0.066	-0.336
-550.369	336.330	0.180	-0.351
-549.354	-17.648	-0.444	-0.280
-548.339	306.447	0.079	-0.149
-547.325	-200.000	0.009	-0.105
-546.310	34.930	-0.176	0.155
-545.296	400.511	0.079	0.166
-544.281	-51.392	0.293	0.138
-543.266	111.636	-0.191	0.232
-542.252	128.392	0.062	-0.079
-541.237	-108.287	-0.431	-0.093
-540.223	800.000	0.071	0.250
-539.208	-109.524	0.291	-0.062
-538.193	-100.851	0.221	-0.055
-537.179	-46.266	0.346	-0.171
-536.164	-71.598	-0.197	-0.074
-535.150	-50.607	-0.168	-0.080
-534.135	-9.263	0.056	-0.037
-533.121	-156.694	0.005	-0.000
-532.106	271.533	0.074	-0.130
-531.091	-200.000	-0.047	-0.348
-530.077	-73.118	-0.244	0.090
-529.062	800.000	0.052	-0.206
-528.048	40.025	-0.200	-0.180
-527.033	116.673	0.227	0.279
-526.018	-100.933	-0.298	0.073
-525.004	2.355	0.194	-0.141
-523.989	756.470	-0.099	-0.270
-522.975	501.935	-0.052	-0.120
-521.960	800.000	0.038	-0.122
-520.945	60.450	0.098	-0.098
-519.931	-148.248	0.175	0.014
-518.916	-55.496	-0.082	0.037
-517.902	56.711	0.139	-0.136
-516.887	-90.775	0.375	0.109
-515.872	-61.709	0.145	0.061
-514.858	-200.000	-0.040	0.346
-513.843	-77.552	0.197	-0.069
-512.829	-200.000	-0.008	-0.393
-511.814	345.466	0.061	-0.119
-510.799	183.413	0.234	-0.347
-509.785	200.073	0.131	-0.202
-508.770	-81.218	0.207	0.069
-507.756	-200.000	0.073	0.445
-506.741	-200.000	-0.027	0.249
-505.726	-8.376	-0.163	0.110
-504.712	-67.845	-0.122	-0.048
-503.697	-200.000	0.003	0.040
-502.683	-66.630	-0.262	0.104
-501.668	-200.000	0.008	0.090
-500.653	-200.000	0.015	-0.201
-499.639	-72.992	0.263	0.097
-498.624	800.000	-0.082	-0.256
-497.610	-45.834	-0.262	0.130
-496.595	661.218	0.012	0.031
-495.581	303.571	-0.024	-0.045
-494.566	-17.645	-0.162	0.102
-493.551	72.446	0.035	0.037
-492.537	108.255	-0.280	0.334
-491.522	-109.491	0.099	0.021
-490.508	34.684	-0.125	-0.109
-489.493	206.486	-0.040	0.063
-488.478	-36.292	0.067	-0.036
-487.464	-131.892	0.065	0.009
-486.449	-200.000	0.018	-0.134
-485.435	74.844	-0.037	-0.039
-484.420	239.181	-0.073	-0.122
-483.405	157.671	0.103	-0.143
-482.391	327.929	0.175	0.336
-481.376	19.451	-0.286	0.230
-480.362	17.196	0.080	0.063
-479.347	800.000	0.042	-0.136
-478.332	167.721	-0.092	-0.130
-477.318	-139.117	0.164	-0.018
-476.303	-175.412	0.309	0.008
-475.289	33.223	0.127	0.110
-474.274	223.701	-0.114	0.185
-473.259	101.649	-0.167	-0.195
-472.245	-200.000	0.027	-0.191
-471.230	-200.000	0.022	0.155
-470.216	-200.000	-0.070	0.326
-469.201	-106.026	0.131	0.029
-468.186	-3.845	-0.119	0.083
-467.172	-62.259	-0.077	0.032
-466.157	-59.334	-0.285	-0.122
-465.143	800.000	0.065	-0.272
-464.128	-172.825	0.081	0.003
-463.113	800.000	0.086	0.313
-462.099	-53.153	-0.193	-0.089
-461.084	-176.525	0.147	0.004
-460.070	-79.155	-0.161	-0.055
-459.055	19.493	0.189	-0.152
-458.040	-88.033	0.192	0.058
-457.026	-200.000	0.035	0.225
-456.011	-75.622	-0.202	-0.072
-454.997	61.725	0.157	-0.156
-453.982	800.000	-0.111	0.311
-452.968	-40.995	0.080	0.041
-451.953	-200.000	0.031	-0.301
-450.938	-194.607	0.311	0.002
-449.924	24.670	0.124	-0.103
-448.909	-21.393	-0.150	0.092
-447.895	70.718	0.064	0.066
-446.880	3.226	-0.129	0.094
-445.865	800.000	-0.090	0.294
-444.851	427.674	0.031	0.068
-443.836	-50.769	-0.392	-0.184
-442.822	4.027	0.347	-0.253
-441.807	-200.000	-0.016	-0.112
-440.792	-85.888	0.261	0.081
-439.778	-69.091	-0.475	-0.183
-438.763	800.000	-0.003	-0.011
-437.749	362.264	0.167	0.335
-436.734	-134.492	-0.162	-0.020
-435.719	-200.000	0.018	-0.236
-434.705	146.725	-0.346	-0.464
-433.690	254.120	0.088	0.150
-432.676	87.555	-0.202	-0.223
-431.661	164.962	0.081	-0.114
-430.646	47.085	0.087	0.081
-429.632	515.391	0.128	0.298
-428.617	130.810	0.128	0.164
-427.603	42.970	0.090	0.082
-426.588	-93.176	0.260	-0.072
-425.573	-121.041	-0.109	-0.018
-424.559	-200.000	-0.031	0.196
-423.544	-109.466	-0.296	0.062
-422.530	-200.000	-0.025	-0.226
-421.515	-61.431	0.172	0.072
-420.500	278.103	0.031	-0.056
-419.486	46.408	-0.096	-0.089
-418.471	246.833	-0.082	0.137
-417.457	257.203	-0.113	-0.194
-416.442	-59.651	-0.374	-0.160
-415.428	558.202	0.072	-0.173
-414.413	-130.074	0.046	0.006
-413.398	-100.785	-0.153	0.038
-412.384	-200.000	-0.036	-0.192
-411.369	54.548	0.294	0.283
-410.355	-200.000	-0.051	0.332
-409.340	314.548	-0.192	-0.360
-408.325	-83.603	0.248	0.079
-407.311	119.151	0.101	0.124
-406.296	-200.000	0.005	-0.082
-405.282	-166.469	0.220	-0.009
-404.267	17.567	-0.155	-0.123
-403.252	-147.787	0.179	0.015
-402.238	161.504	-0.067	0.093
-401.223	88.773	-0.223	0.247
-400.209	-98.348	0.223	-0.057
-399.194	-42.356	0.137	-0.070
-398.179	-69.470	-0.264	0.101
-397.165	800.000	-0.064	-0.230
-396.150	87.036	-0.166	-0.183
-395.136	800.000	0.065	-0.225
-394.121	-118.718	0.192	0.034
-393.106	-200.000	-0.038	-0.209
-392.092	60.925	-0.091	0.090
-391.077	-15.645	-0.280	0.178
-390.063	-149.615	-0.165	-0.013
-389.048	-200.000	-0.003	0.246
-388.033	241.748	-0.083	-0.138
-387.019	544.878	-0.071	-0.170
-386.004	49.247	-0.300	0.282
-384.990	-200.000	0.001	-0.131
-383.975	-159.103	0.378	-0.021
-382.960	800.000	-0.034	0.113
-381.946	-200.000	-0.003	0.350
-380.931	-47.531	0.161	-0.078
-379.917	-24.585	-0.081	0.048
-378.902	-182.758	-0.254	0.005
-377.888	-63.399	0.121	-0.049
-376.873	0.764	0.220	-0.157
-375.858	-97.253	-0.216	-0.056
-374.844	-184.699	0.491	0.008
-373.829	25.689	-0.146	0.121
-372.815	677.839	-0.140	-0.364
-371.800	-57.120	0.195	-0.086
-370.785	-109.104	-0.225	0.048
-369.771	-152.013	0.089	-0.006
-368.756	399.630	0.109	-0.228
-367.742	-72.196	-0.310	0.115
-366.727	-123.061	0.195	0.031
-365.712	76.316	0.239	0.252
-364.698	-105.639	0.196	0.044
-363.683	471.792	0.097	-0.218
-362.669	320.912	0.107	0.203
-361.654	-125.348	-0.074	0.011
-360.639	-32.048	-0.328	0.183
-359.625	-115.534	0.169	-0.032
-358.610	-40.366	0.228	0.118
-357.596	8.475	-0.110	0.082
-356.581	-64.053	0.188	0.077
-355.566	800.000	-0.065	0.192
-354.552	-200.000	0.005	-0.124
-353.537	-82.796	0.090	-0.029
-352.523	-71.393	0.031	0.012
-351.508	-200.000	0.016	-0.074
-350.493	42.413	-0.080	-0.073
-349.479	-80.048	0.314	0.105
-348.464	239.721	0.082	0.135
-347.450	-137.321	-0.326	0.037
-346.435	628.081	-0.019	-0.047
-345.420	-200.000	-0.013	-0.370
-344.406	-104.643	0.060	0.014
-343.391	-200.000	-0.011	0.238
-342.377	-89.133	-0.254	-0.075
-341.362	-78.132	0.225	0.077
-340.348	-86.835	0.306	0.093
-339.333	-147.748	-0.145	0.012
-338.318	0.539	-0.193	0.138
-337.304	-200.000	0.054	0.278
-336.289	50.584	-0.145	-0.137
-335.275	59.234	-0.085	-0.084
-334.260	-71.788	-0.335	-0.124
-333.245	114.226	0.028	-0.034
-332.231	690.858	-0.089	0.233
-331.216	-19.264	0.298	0.184
-330.202	774.971	-0.039	-0.106
-329.187	231.367	-0.190	0.310
-328.172	91.817	-0.143	-0.160
-327.158	59.178	-0.213	-0.209
-326.143	12.413	-0.150	0.115
-325.129	238.923	0.276	0.456
-324.114	64.042	0.236	-0.236
-323.099	-200.000	-0.046	0.249
-322.085	-145.943	-0.252	0.022
-321.070	-86.831	0.429	0.130
-320.056	-200.000	0.004	0.147
-319.041	-147.656	-0.379	-0.032
-318.026	-34.242	0.248	0.135
-317.012	-69.621	0.024	-0.009
-315.997	-200.000	0.011	0.336
-314.983	4.318	0.263	0.192
-313.968	113.315	0.097	0.117
-312.953	-14.870	-0.176	0.112
-311.939	-200.000	-0.024	0.120
-310.924	-107.612	-0.344	-0.075
-309.910	-200.000	0.016	-0.185
-308.895	22.702	0.191	0.156
-307.880	1.184	-0.106	0.075
-306.866	-152.214	-0.135	0.010
-305.851	15.487	-0.185	0.144
-304.837	800.000	0.062	-0.206
-303.822	131.214	0.113	-0.144
-302.807	295.702	0.123	0.224
-301.793	3.624	0.262	0.190
-300.778	-113.570	0.141	-0.027
-299.764	102.611	-0.066	0.076
-298.749	-200.000	0.328	-0.001
-297.735	207.833	0.057	0.088
-296.720	471.336	-0.052	-0.116
-295.705	-72.595	0.050	0.018
-294.691	38.710	0.221	-0.196
-293.676	-200.000	0.031	-0.395
-292.662	54.604	-0.270	-0.259
-291.647	-200.000	0.011	0.194
-290.632	-31.077	-0.104	-0.058
-289.618	-102.399	-0.083	-0.020
-288.603	-24.843	-0.347	0.205
-287.589	-38.780	-0.155	0.081
-286.574	-170.963	0.226	0.008
-285.559	-10.165	-0.205	0.135
-284.545	-94.885	0.221	-0.060
-283.530	800.000	0.059	-0.227
-282.516	-73.645	0.309	-0.112
-281.501	7.626	-0.110	-0.082
-280.486	-72.653	-0.451	0.165
-279.472	-61.032	0.327	-0.137
-278.457	-64.225	-0.494	-0.200
-277.443	214.016	0.191	-0.299
-276.428	-200.000	0.032	0.154
-275.413	-19.213	0.151	0.093
-274.399	-129.115	0.142	0.020
-273.384	-114.280	0.138	-0.026
-272.370	94.883	-0.197	-0.223
-271.355	-25.655	-0.264	0.155
-270.340	-53.822	0.322	0.146
-269.326	64.715	-0.095	0.095
-268.311	32.917	0.144	0.124
-267.297	-198.471	0.185	-0.001
-266.282	800.000	0.087	-0.336
-265.267	-200.000	-0.044	0.234
-264.253	346.212	0.214	0.418
-263.238	290.932	0.267	-0.481
-262.224	-15.783	0.198	-0.125
-261.209	-200.000	0.001	-0.042
-260.195	800.000	-0.039	0.147
-259.180	-182.521	0.204	-0.004
-258.165	-200.000	0.065	0.419
-257.151	-85.776	-0.292	0.090
-256.136	800.000	-0.063	-0.194
-255.122	641.103	-0.125	0.317
-254.107	137.135	0.224	0.291
-253.092	-123.108	0.219	0.035
-252.078	48.085	0.232	0.215
-251.063	29.384	-0.159	-0.134
-250.049	108.374	0.240	0.284
-249.034	3.236	0.084	0.061
-248.019	-154.882	-0.117	-0.008
-247.005	174.341	0.123	0.177
-245.990	-127.521	-0.252	-0.036
-244.976	-80.257	0.763	0.253
-243.961	-200.000	0.018	0.394
-242.946	-200.000	-0.010	0.044
-241.932	50.978	0.133	-0.125
-240.917	-48.211	-0.253	0.121
-239.903	158.059	-0.102	-0.141
-238.888	153.359	0.225	0.305
-237.873	-47.818	-0.150	0.072
-236.859	-200.000	0.033	0.318
-235.844	398.278	0.019	0.039
-234.830	-32.106	-0.316	-0.175
-233.815	-2.055	-0.234	-0.163
-232.800	-38.137	-0.086	0.045
-231.786	-200.000	-0.024	-0.204
-230.771	45.843	0.139	0.127
-229.757	-30.705	0.350	0.197
-228.742	-76.828	-0.352	0.122
-227.727	-0.368	-0.128	-0.090
-226.713	116.819	0.149	-0.182
-225.698	-200.000	-0.006	0.127
-224.684	-36.717	0.279	0.149
-223.669	-53.556	-0.439	-0.199
-222.655	800.000	-0.049	0.177
-221.640	-88.817	-0.292	0.086
-220.625	-200.000	-0.038	0.283
-219.611	-200.000	0.043	-0.384
-218.596	-200.000	0.001	-0.054
-217.582	800.000	0.097	0.271
-216.567	-200.000	-0.004	0.084
-215.552	-200.000	0.019	0.083
-214.538	-107.376	0.128	0.028
-213.523	315.250	0.081	0.152
-212.509	751.459	-0.057	0.153
-211.494	164.623	0.175	-0.245
-210.479	42.492	-0.166	-0.150
-209.465	37.375	0.139	0.122
-208.450	-82.332	0.319	0.103
-207.436	-124.639	0.460	0.071
-206.421	-62.457	0.242	-0.100
-205.406	16.386	-0.176	0.137
-204.392	800.000	-0.062	0.221
-203.377	-157.416	0.173	-0.010
-202.363	-200.000	0.074	-0.441
-201.348	28.574	-0.131	-0.110
-200.333	800.000	-0.069	0.204
-199.319	-104.207	-0.532	-0.122
-198.304	-200.000	-0.011	0.145
-197.290	800.000	-0.038	-0.106
-196.275	-102.173	0.288	0.069
-195.260	49.956	0.219	-0.204
-194.246	800.000	0.071	-0.275
-193.231	701.044	-0.073	0.190
-192.217	414.754	0.180	0.379
-191.202	800.000	-0.037	0.143
-190.187	-200.000	0.016	0.167
-189.173	-40.674	-0.435	0.223
-188.158	121.679	0.055	-0.067
-187.144	-1.558	0.325	-0.227
-186.129	-116.601	0.176	-0.032
-185.114	-200.000	0.029	0.143
-184.100	-129.163	-0.125	-0.017
-183.085	-109.997	0.210	-0.044
-182.071	32.912	-0.205	0.176
-181.056	800.000	-0.024	-0.067
-180.042	518.759	-0.009	-0.021
-179.027	-161.362	0.349	-0.018
-178.012	-89.694	0.156	0.045
-176.998	800.000	-0.102	0.282
-175.983	-200.000	-0.004	0.049
-174.969	-200.000	-0.163	0.000
-173.954	-142.255	0.208	0.020
-172.939	56.608	-0.195	-0.187
-171.925	-21.456	-0.062	-0.038
-170.910	800.000	-0.078	-0.293
-169.896	-139.618	0.215	0.023
-168.881	-200.000	-0.024	-0.273
-167.866	114.204	-0.067	0.081
-166.852	-124.726	-0.219	0.033
-165.837	800.000	0.094	-0.337
-164.823	5.451	0.285	-0.208
-163.808	800.000	0.128	0.372
-162.793	-200.000	-0.050	-0.216
-161.779	-23.460	0.297	0.176
-160.764	56.516	-0.232	0.223
-159.750	178.773	0.258	-0.373
-158.735	44.255	0.124	0.112
-157.720	-147.718	0.345	0.029
-156.706	-200.000	-0.008	0.058
-155.691	17.177	-0.202	-0.159
-154.677	-106.033	-0.355	0.079
-153.662	-200.000	-0.031	-0.287
-152.647	27.050	-0.202	0.167
-151.633	-56.978	-0.168	0.073
-150.618	722.788	-0.016	0.042
-149.604	-98.305	0.185	-0.047
-148.589	-0.419	-0.079	-0.056
-147.574	800.000	0.111	0.405
-146.560	-200.000	0.024	-0.134
-145.545	455.646	-0.082	0.180
-144.531	-1.861	0.121	0.084
-143.516	800.000	-0.015	-0.047
-142.502	-43.811	-0.106	0.053
-141.487	-98.439	-0.147	-0.037
-140.472	-200.000	-0.002	-0.135
-139.458	103.645	0.110	0.127
-138.443	-200.000	0.031	0.146
-137.429	324.502	-0.191	-0.360
-136.414	166.338	-0.009	-0.013
-135.399	125.840	0.093	0.117
-134.385	-200.000	0.041	-0.235
-133.370	-200.000	0.014	0.145
-132.356	40.861	0.148	0.131
-131.341	800.000	0.050	-0.141
-130.326	-128.244	-0.238	0.034
-129.312	68.370	-0.125	0.127
-128.297	-60.062	-0.243	0.103
-127.283	62.141	0.224	0.220
-126.268	199.812	0.262	0.398
-125.253	-63.353	-0.204	-0.083
-124.239	354.329	0.049	-0.096
-123.224	56.879	-0.104	-0.100
-122.210	800.000	-0.152	-0.485
-121.195	284.737	-0.098	-0.174
-120.180	-200.000	0.023	0.157
-119.166	74.619	-0.046	0.048
-118.151	-142.199	0.357	-0.035
-117.137	-200.000	0.045	-0.218
-116.122	-47.416	-0.104	-0.050
-115.107	-200.000	0.020	0.130
-114.093	-151.071	-0.444	-0.033
-113.078	-16.215	-0.190	0.119
-112.064	-26.920	0.361	0.208
-111.049	-80.743	-0.147	0.048
-110.034	677.500	-0.129	-0.332
-109.020	-66.477	-0.125	-0.049
-108.005	800.000	-0.055	0.221
-106.991	-144.323	0.292	0.027
-105.976	800.000	0.036	-0.110
-104.962	-100.287	-0.205	0.050
-103.947	-200.000	0.014	-0.251
-102.932	638.205	-0.082	-0.207
-101.918	159.343	-0.225	0.309
-100.903	800.000	-0.025	-0.081
-99.889	62.219	0.108	-0.106
-98.874	174.024	-0.106	0.151
-97.859	48.875	0.198	-0.183
-96.845	-101.820	-0.469	-0.112
-95.830	12.913	0.088	-0.067
-94.816	-63.294	-0.092	0.037
-93.801	64.286	-0.335	0.332
-92.786	31.962	0.214	0.182
-91.772	476.577	-0.130	0.289
-90.757	-200.000	-0.031	-0.167
-89.743	-85.193	-0.088	-0.027
-88.728	2.843	0.210	-0.150
-87.713	-200.000	-0.060	-0.271
-86.699	-121.597	0.048	0.008
-85.684	-182.818	0.355	0.006
-84.670	-5.868	-0.181	-0.122
-83.655	181.967	-0.157	-0.228
-82.640	-44.885	-0.117	-0.057
-81.626	532.845	0.115	0.268
-80.611	-200.000	0.047	0.229
-79.597	-24.202	0.287	0.169
-78.582	-146.325	0.048	-0.004
-77.567	-179.351	0.079	0.002
-76.553	800.000	0.052	0.173
-75.538	-171.122	-0.296	-0.010
-74.524	-57.221	0.275	0.119
-73.509	-141.540	0.238	0.024
-72.494	61.843	0.175	0.172
-71.480	129.446	-0.055	0.070
-70.465	-200.000	0.014	0.062
-69.451	520.612	0.162	-0.375
-68.436	494.444	-0.136	0.308
-67.422	112.595	-0.028	-0.034
-66.407	-200.000	-0.004	0.063
-65.392	283.450	-0.057	0.100
-64.378	-199.884	0.422	-0.002
-63.363	56.689	-0.156	-0.149
-62.349	68.807	0.136	-0.137
-61.334	88.527	-0.895	-0.979
-60.319	335.453	0.191	0.364
-59.305	800.000	-0.359	-1.193
-58.290	212.136	0.618	0.959
-57.276	800.000	0.332	1.344
-56.261	-200.000	95.190	596.500
-55.246	671.892	1368.647	3492.149
-54.232	199.980	2541.762	3841.210
-53.217	120.550	2160.080	2641.736
-52.203	43.063	1706.759	1532.639
-51.188	35.487	1519.817	1313.143
-50.173	33.070	1492.861	1273.538
-49.159	52.025	1541.223	1444.993
-48.144	53.785	1558.737	1473.406
-47.130	35.654	1518.973	1313.349
-46.115	32.477	1504.621	1279.337
-45.100	32.459	1500.957	1276.052
-44.086	32.412	1498.607	1273.686
-43.071	32.340	1497.001	1271.785
-42.057	32.291	1495.622	1270.228
-41.042	32.381	1493.792	1269.230
-40.027	32.333	1492.473	1267.739
-39.013	32.281	1490.997	1266.082
-37.998	32.225	1489.972	1264.786
-36.984	32.262	1489.011	1264.168
-35.969	32.298	1487.548	1263.116
-34.954	32.268	1485.831	1261.409
-33.940	32.305	1484.517	1260.494
-32.925	32.338	1482.589	1259.022
-31.911	32.305	1481.786	1258.074
-30.896	32.298	1480.139	1256.577
-29.881	32.329	1479.256	1255.986
-28.867	32.303	1477.873	1254.587
-27.852	32.348	1476.244	1253.453
-26.838	32.242	1475.066	1251.699
-25.823	32.321	1473.848	1251.144
-24.809	32.327	1471.471	1249.112
-23.794	32.298	1470.293	1247.872
-22.779	32.246	1469.036	1246.409
-21.765	32.326	1468.235	1246.213
-20.750	32.237	1467.069	1244.584
-19.736	32.222	1465.878	1243.421
-18.721	32.223	1464.873	1242.528
-17.706	32.155	1463.643	1240.990
-16.692	32.151	1462.648	1240.065
-15.677	32.194	1461.672	1239.477
-14.663	32.316	1460.574	1239.301
-13.648	32.150	1459.436	1237.191
-12.633	32.169	1458.467	1236.445
-11.619	32.174	1457.833	1235.888
-10.604	32.259	1456.251	1235.057
-9.590	32.128	1456.358	1234.237
-8.575	32.287	1455.057	1234.135
-7.560	32.202	1454.154	1232.763
-6.546	32.274	1453.332	1232.488
-5.531	32.281	1452.372	1231.671
-4.517	32.252	1451.379	1230.590
-3.502	32.148	1450.313	1228.958
-2.487	32.187	1449.776	1228.706
-1.473	32.200	1448.099	1227.322
-0.458	32.187	1446.903	1226.175
0.556	31.124	1437.287	1215.456
1.571	28.305	1411.387	1175.387
2.586	24.764	1351.966	1103.991
3.600	22.984	1270.433	1026.987
4.615	21.715	1224.589	982.727
5.629	18.868	1168.732	922.559
6.644	11.302	1085.786	819.135
7.659	5.474	1046.005	760.781
8.673	4.755	1040.665	753.350
9.688	4.582	1038.417	750.821
10.702	4.624	1036.299	749.426
11.717	4.528	1034.426	747.544
12.731	6.688	1036.527	759.399
13.746	13.823	1045.795	800.649
14.761	18.788	1051.837	829.238
15.775	18.742	1050.423	827.824
16.790	17.630	1048.377	820.788
17.804	16.481	1046.119	813.423
18.819	15.536	1044.582	807.612
19.834	15.161	1042.847	804.399
20.848	14.851	1042.161	802.314
21.863	14.571	1041.675	800.521
22.877	14.323	1040.670	798.490
23.892	14.201	1039.686	797.083
24.907	14.188	1039.170	796.551
25.921	14.155	1038.192	795.576
26.936	14.248	1037.815	795.658
27.950	14.357	1036.749	795.290
28.965	14.254	1035.183	793.529
29.980	14.271	1034.621	793.112
30.994	14.472	1033.265	792.958
32.009	14.543	1032.645	792.747
33.023	14.459	1031.563	791.447
34.038	14.462	1030.829	790.828
35.053	14.451	1029.864	789.970
36.067	14.331	1029.304	788.899
37.082	14.338	1028.236	788.043
38.096	14.544	1026.909	787.932
39.111	14.353	1026.338	786.521
40.126	14.542	1025.353	786.589
41.140	14.398	1024.651	785.301
42.155	14.294	1023.572	783.913
43.169	14.238	1022.123	782.473
44.184	14.152	1021.239	781.321
45.199	14.076	1020.243	780.135
46.213	14.034	1019.762	779.502
47.228	14.200	1018.417	779.183
48.242	14.302	1017.221	778.675
49.257	14.355	1016.488	778.294
50.271	14.302	1015.417	777.157
51.286	14.334	1014.268	776.359
52.301	14.391	1013.993	776.345
53.315	14.331	1013.078	775.294
54.330	14.302	1012.637	774.754
55.344	14.287	1011.183	773.503
56.359	14.290	1009.875	772.450
57.374	14.201	1009.470	771.657
58.388	14.272	1008.502	771.177
59.403	14.203	1007.551	770.063
60.417	14.138	1007.299	769.502
61.432	14.060	1006.651	768.580
62.447	14.103	1005.897	768.134
63.461	13.967	1005.099	766.830
64.476	13.851	1004.209	765.545
65.490	13.995	1002.712	764.999
66.505	13.899	1002.372	764.230
67.520	14.029	1001.366	763.995
68.534	14.051	1000.856	763.640
69.549	14.110	1000.019	763.204
70.563	14.078	999.410	762.525
71.578	14.082	998.322	761.646
72.593	13.907	997.664	760.277
73.607	13.900	996.751	759.480
74.622	13.948	995.199	758.451
75.636	13.890	994.921	757.906
76.651	13.864	994.232	757.194
77.666	13.796	993.604	756.340
78.680	13.987	992.826	756.549
79.695	13.846	992.388	755.509
80.709	13.902	991.818	755.264
81.724	14.084	990.918	755.338
82.739	14.126	990.289	754.981
83.753	14.174	989.354	754.420
84.768	14.182	988.782	753.952
85.782	14.415	988.287	754.565
86.797	14.381	987.660	753.863
87.812	14.412	986.622	753.147
88.826	14.372	985.890	752.338
89.841	14.257	985.039	751.106
90.855	14.236	984.251	750.341
91.870	14.418	983.192	750.287
92.884	14.237	982.689	749.023
93.899	14.363	982.003	749.002
94.914	14.477	981.101	748.759
95.928	14.401	980.513	747.901
96.943	14.573	979.847	748.100
97.957	14.532	978.893	747.122
98.972	14.375	978.428	745.997
99.987	14.406	977.405	745.292
101.001	14.425	976.858	744.893
102.016	14.438	975.968	744.203
103.030	14.358	975.344	743.306
104.045	14.505	974.001	742.873
105.060	14.500	973.153	742.138
106.074	14.443	971.967	740.912
107.089	14.188	971.337	739.237
108.103	14.071	970.648	738.127
109.118	14.154	969.213	737.336
110.133	14.086	968.858	736.702
111.147	14.048	967.854	735.705
112.162	13.917	967.425	734.735
113.176	14.181	965.819	734.616
114.191	14.139	965.821	734.364
115.206	14.210	964.580	733.671
116.220	14.227	963.846	733.121
117.235	14.173	963.067	732.226
118.249	14.220	962.241	731.742
119.264	14.253	960.955	730.844
120.279	14.111	960.547	729.846
121.293	14.163	959.798	729.441
122.308	14.032	959.127	728.289
123.322	13.914	958.630	727.332
124.337	14.066	956.988	726.685
125.352	13.990	956.164	725.663
126.366	14.021	954.756	724.669
127.381	14.026	954.008	724.058
128.395	14.069	953.288	723.633
129.410	14.127	951.907	722.775
130.424	14.116	951.553	722.395
131.439	14.091	951.139	721.907
132.454	14.256	949.741	721.496
133.468	14.137	949.073	720.408
134.483	14.112	948.551	719.842
135.497	14.252	948.000	719.965
136.512	14.192	947.094	718.954
137.527	14.153	946.362	718.167
138.541	14.125	945.891	717.626
139.556	14.237	944.985	717.357
140.570	14.225	944.149	716.607
141.585	14.225	943.857	716.321
142.600	14.475	942.492	716.295
143.614	14.470	942.163	715.961
144.629	14.394	941.311	714.924
145.643	14.498	940.606	714.771
146.658	14.556	939.592	714.188
147.673	14.311	938.907	712.557
148.687	14.346	938.056	711.997
149.702	14.369	936.614	710.935
150.716	14.165	936.152	709.654
151.731	14.148	935.542	709.053
152.746	14.161	934.869	708.537
153.760	14.293	933.985	708.368
154.775	14.324	933.187	707.830
155.789	14.284	932.498	707.075
156.804	14.393	931.996	707.096
157.819	14.450	930.881	706.428
158.833	14.282	930.887	705.658
159.848	14.543	929.827	705.897
160.862	14.545	929.173	705.344
161.877	14.700	928.036	705.076
162.892	14.557	927.132	703.721
163.906	14.345	926.283	702.124
164.921	14.322	925.960	701.720
165.935	14.381	925.013	701.189
166.950	14.255	924.072	699.883
167.964	14.542	922.959	700.183
168.979	14.412	922.326	699.095
169.994	14.405	921.137	698.104
171.008	14.353	920.369	697.241
172.023	14.593	919.188	697.287
173.037	14.682	918.701	697.227
174.052	14.706	918.365	697.010
175.067	14.661	917.626	696.203
176.081	14.512	916.718	694.832
177.096	14.483	915.862	693.997
178.110	14.430	914.886	692.978
179.125	14.463	914.559	692.805
180.140	14.415	913.638	691.848
181.154	14.517	913.135	691.829
182.169	14.542	912.649	691.504
183.183	14.701	911.915	691.546
184.198	14.740	911.220	691.117
185.213	14.801	910.627	690.858
186.227	14.704	909.865	689.819
187.242	14.655	909.822	689.523
188.256	14.870	909.108	689.809
189.271	14.772	908.103	688.581
190.286	14.848	907.496	688.372
191.300	14.726	906.658	687.174
192.315	14.326	906.310	685.203
193.329	14.500	904.908	684.798
194.344	14.363	904.515	683.878
195.359	14.501	903.916	683.930
196.373	14.585	903.644	684.008
197.388	14.683	903.228	684.036
198.402	14.848	902.498	684.096
199.417	14.839	902.421	683.940
200.432	14.920	902.137	683.995
201.446	15.106	901.176	683.966
202.461	15.084	900.716	683.468
203.475	15.128	900.348	683.307
204.490	15.044	900.341	682.900
205.504	14.980	898.764	681.383
206.519	15.009	898.013	680.870
207.534	14.906	897.379	679.909
208.548	14.901	896.431	679.111
209.563	14.968	895.471	678.594
210.577	15.000	894.658	678.050
211.592	14.840	894.340	677.098
212.607	15.106	894.005	677.863
213.621	15.208	893.450	677.798
214.636	15.132	892.884	676.997
215.650	15.130	891.962	676.233
216.665	15.153	891.741	676.099
217.680	15.160	891.000	675.504
218.694	15.221	890.857	675.581
219.709	15.275	890.405	675.398
220.723	15.265	889.505	674.614
221.738	15.354	888.168	673.897
222.753	15.183	887.735	672.821
223.767	15.184	887.080	672.273
224.782	15.173	886.285	671.566
225.796	15.227	886.137	671.611
226.811	15.294	885.569	671.389
227.826	15.327	884.638	670.754
228.840	15.444	883.894	670.600
229.855	15.183	883.208	668.979
230.869	15.268	882.694	668.869
231.884	15.430	881.946	668.887
232.899	15.325	881.053	667.732
233.913	15.208	880.426	666.735
234.928	15.138	880.090	666.143
235.942	15.202	879.063	665.558
236.957	15.073	878.561	664.609
237.972	15.156	878.055	664.498
238.986	15.319	877.232	664.458
240.001	15.238	876.603	663.604
241.015	15.257	875.905	663.091
242.030	15.238	875.442	662.610
243.045	15.357	874.648	662.420
244.059	15.287	874.425	661.916
245.074	15.404	873.993	661.991
246.088	15.363	873.100	661.092
247.103	15.436	872.481	660.857
248.117	15.521	871.864	660.665
249.132	15.438	871.536	660.032
250.147	15.839	870.766	660.964
251.161	15.788	870.559	660.548
252.176	15.888	869.584	660.143
253.190	15.868	869.300	659.788
254.205	15.860	868.970	659.449
255.220	15.946	867.941	658.946
256.234	15.908	867.289	658.245
257.249	15.847	866.457	657.316
258.263	15.856	865.766	656.768
259.278	15.953	865.357	656.777
260.293	15.825	865.326	656.197
261.307	15.987	864.293	655.986
262.322	16.056	863.682	655.736
263.336	15.938	863.273	654.906
264.351	16.044	862.602	654.753
265.366	16.024	862.115	654.245
266.380	16.107	861.416	653.981
267.395	16.068	860.858	653.346
268.409	16.081	859.960	652.659
269.424	16.058	859.228	651.957
270.439	15.978	858.665	651.162
271.453	16.070	857.677	650.709
272.468	16.003	857.067	649.931
273.482	15.957	856.437	649.220
274.497	15.988	856.229	649.123
275.512	15.980	854.975	648.086
276.526	15.962	854.595	647.670
277.541	16.072	854.135	647.688
278.555	16.032	853.425	646.938
279.570	16.116	853.057	646.922
280.585	16.092	852.699	646.501
281.599	16.181	852.006	646.262
282.614	16.219	851.228	645.759
283.628	16.176	850.195	644.753
284.643	16.235	849.859	644.669
285.657	16.218	849.456	644.242
286.672	16.222	848.570	643.527
287.687	16.230	848.335	643.322
288.701	16.197	848.226	643.058
289.716	16.224	847.156	642.290
290.730	16.324	846.683	642.257
291.745	16.271	846.419	641.797
292.760	16.117	845.645	640.570
293.774	16.334	844.960	640.815
294.789	16.469	844.312	640.782
295.803	16.330	844.274	640.168
296.818	16.436	843.008	639.552
297.833	16.353	842.366	638.695
298.847	16.387	841.843	638.369
299.862	16.353	841.246	637.734
300.876	16.337	840.726	637.221
301.891	16.429	840.137	637.066
302.906	16.490	839.118	636.466
303.920	16.650	839.025	636.940
304.935	16.693	838.114	636.356
305.949	16.780	837.753	636.353
306.964	16.603	837.327	635.306
307.979	16.543	836.672	634.530
308.993	16.670	835.992	634.434
310.008	16.648	835.528	633.943
311.022	16.650	834.960	633.464
312.037	16.715	834.742	633.486
313.052	16.624	833.952	632.491
314.066	16.565	833.245	631.676
315.081	16.518	832.643	630.989
316.095	16.514	831.875	630.335
317.110	16.416	831.795	629.855
318.125	16.450	830.831	629.197
319.139	16.512	830.691	629.264
320.154	16.585	829.873	628.862
321.168	16.443	829.600	628.072
322.183	16.580	829.039	628.100
323.197	16.635	828.231	627.633
324.212	16.711	827.662	627.429
325.227	16.624	827.288	626.767
326.241	16.777	826.538	626.710
327.256	16.782	826.120	626.356
328.270	16.763	825.347	625.644
329.285	16.580	825.299	624.879
330.300	16.679	824.541	624.613
331.314	16.641	823.904	623.935
332.329	16.770	823.218	623.838
333.343	16.720	822.785	623.269
334.358	16.751	822.665	623.236
335.373	16.816	821.640	622.645
336.387	16.923	821.382	622.787
337.402	16.889	820.924	622.259
338.416	17.006	819.997	621.931
339.431	16.993	819.847	621.713
340.446	17.108	819.354	621.705
341.460	17.120	818.626	621.144
342.475	17.209	818.110	621.023
343.489	17.113	817.756	620.349
344.504	17.180	816.989	619.955
345.519	17.327	816.436	620.015
346.533	17.456	815.646	619.832
347.548	17.149	815.684	618.686
348.562	17.267	815.235	618.724
349.577	17.235	814.346	617.877
350.592	17.050	813.933	616.837
351.606	17.060	813.590	616.558
352.621	17.097	812.939	616.145
353.635	17.002	812.708	615.571
354.650	17.027	812.398	615.370
355.665	17.049	811.782	614.929
356.679	17.239	811.293	615.191
357.694	17.179	810.948	614.658
358.708	17.330	809.914	614.368
359.723	17.153	809.783	613.573
360.738	17.074	809.270	612.847
361.752	17.238	808.493	612.794
362.767	17.254	808.308	612.657
363.781	17.370	808.071	612.842
364.796	17.588	807.308	612.993
365.810	17.475	806.980	612.284
366.825	17.551	806.725	612.311
367.840	17.421	806.784	611.834
368.854	17.633	805.928	611.890
369.869	17.665	805.152	611.361
370.883	17.622	804.466	610.634
371.898	17.503	804.130	609.898
372.913	17.457	803.804	609.430
373.927	17.641	803.414	609.740
374.942	17.657	802.220	608.838
375.956	17.584	801.725	608.149
376.971	17.675	801.176	608.001
377.986	17.640	801.067	607.740
379.000	17.795	800.377	607.716
380.015	17.787	799.883	607.259
381.029	17.816	799.125	606.732
382.044	17.726	798.575	605.941
383.059	17.748	797.760	605.346
384.073	17.744	797.309	604.937
385.088	17.837	797.078	605.037
386.102	17.656	796.732	604.079
387.117	17.515	796.206	603.127
388.132	17.711	795.360	603.130
389.146	17.775	795.001	603.027
390.161	17.661	794.701	602.346
391.175	17.844	794.489	602.779
392.190	17.822	794.118	602.365
393.205	17.881	793.776	602.260
394.219	17.748	793.224	601.321
395.234	17.553	792.796	600.254
396.248	17.659	792.056	600.016
397.263	17.589	791.490	599.287
398.278	17.423	791.529	598.677
399.292	17.581	790.927	598.727
400.307	17.633	790.320	598.398
401.321	17.658	790.073	598.245
402.336	17.741	789.427	597.993
403.350	17.750	789.078	597.708
404.365	17.817	788.421	597.392
405.380	17.954	788.001	597.500
406.394	17.925	787.823	597.212
407.409	18.078	787.316	597.308
408.423	18.185	786.840	597.267
409.438	18.144	786.278	596.644
410.453	18.086	786.227	596.352
411.467	18.202	785.900	596.454
412.482	18.165	785.594	596.040
413.496	18.196	785.042	595.678
414.511	18.104	784.814	595.130
415.526	18.236	784.047	594.957
416.540	18.108	784.082	594.484
417.555	18.305	783.195	594.442
418.569	18.198	783.080	593.932
419.584	18.281	782.710	593.885
420.599	18.240	781.907	593.083
421.613	155.932	1369.417	1793.855
422.628	134.601	1455.026	1793.945
