DTS Sentinel unit serial number:	SN413079Multiplexer serial number:	ORYXHardware model number:	OX4-SRSoftware version number:	ORYX F/W v4.00 Oryx Data Collector v3.7.2.0data status	okinstallation	princeton_trtdifferential loss correction	single-endedforward channel	channel 3reverse channel	N/Adate	2019/09/15time	23:00:34forward acquisition time	60.00reverse acquisition time	0.00gamma	496.2192k internal	0.2334k external	0.2334temperature offset calibration	0.9948default loss term (dB/km)	0.3790temperature slope calibration	1.0000multiplexer offset coefficient	1.0000multiplexer slope coefficient	1.0000fibre end	0.00T internal ref (°C)	28.56T ext. ref 1 (°C)	8.94T ext. ref 2 (°C)	22.19length (m)	temperature (°C)	Stokes	anti-Stokes-747.200	-200.000	0.031	-0.332
-746.185	394.013	0.128	0.268
-745.171	-37.743	0.227	0.122
-744.156	111.544	0.234	0.283
-743.142	701.266	0.008	-0.022
-742.127	-131.277	-0.383	0.051
-741.112	-200.000	-0.001	-0.208
-740.098	3.761	0.246	0.180
-739.083	126.947	0.175	0.223
-738.069	148.179	0.154	0.209
-737.054	-200.000	-0.009	-0.317
-736.039	800.000	-0.063	-0.252
-735.025	-200.000	0.034	0.206
-734.010	-59.816	-0.329	0.141
-732.996	-95.443	0.415	-0.112
-731.981	228.462	-0.044	0.071
-730.966	74.113	0.132	0.139
-729.952	-31.015	-0.288	-0.163
-728.937	-77.035	0.043	-0.015
-727.923	-200.000	0.013	-0.160
-726.908	83.582	-0.309	-0.339
-725.894	-121.054	-0.041	-0.007
-724.879	800.000	-0.025	0.079
-723.864	-106.514	-0.070	-0.016
-722.850	122.773	0.158	0.199
-721.835	-23.377	-0.397	0.240
-720.821	182.828	0.087	0.129
-719.806	92.124	0.072	-0.081
-718.791	-200.000	0.011	-0.359
-717.777	-22.804	-0.221	0.134
-716.762	-200.000	0.007	-0.171
-715.748	22.493	-0.249	-0.205
-714.733	-37.076	-0.164	-0.088
-713.718	-38.465	-0.256	-0.136
-712.704	-161.343	0.308	0.016
-711.689	414.966	0.137	-0.292
-710.675	-200.000	0.042	-0.203
-709.660	-200.000	-0.004	-0.355
-708.645	-200.000	-0.062	-0.296
-707.631	-119.759	0.157	0.027
-706.616	-200.000	0.071	-0.367
-705.602	800.000	-0.030	0.122
-704.587	-45.859	0.107	0.053
-703.572	511.103	-0.102	0.238
-702.558	263.267	-0.059	-0.103
-701.543	10.157	-0.258	-0.197
-700.529	181.301	-0.022	0.032
-699.514	-175.425	0.246	0.007
-698.499	2.722	-0.276	-0.201
-697.485	-24.844	0.094	-0.056
-696.470	125.965	0.061	-0.078
-695.456	171.129	0.042	-0.060
-694.441	800.000	0.026	-0.076
-693.426	352.123	0.039	-0.077
-692.412	157.466	-0.270	-0.375
-691.397	49.260	0.220	0.207
-690.383	103.344	-0.178	0.209
-689.368	-71.435	0.205	0.077
-688.354	800.000	0.027	0.096
-687.339	600.196	-0.126	-0.314
-686.324	800.000	-0.073	0.227
-685.310	213.620	0.125	0.199
-684.295	325.570	0.081	-0.155
-683.281	800.000	-0.081	-0.334
-682.266	-37.671	0.182	-0.097
-681.251	-150.772	0.274	-0.021
-680.237	-200.000	-0.020	0.123
-679.222	37.143	-0.183	0.162
-678.208	423.282	-0.105	-0.225
-677.193	94.372	0.218	-0.248
-676.178	119.687	0.060	0.074
-675.164	16.926	0.130	-0.104
-674.149	800.000	0.010	-0.036
-673.135	208.086	-0.162	0.254
-672.120	-185.266	0.192	-0.003
-671.105	-188.576	0.221	-0.003
-670.091	-104.215	0.092	0.021
-669.076	-55.951	0.308	-0.138
-668.062	-99.562	0.089	0.023
-667.047	-200.000	0.020	0.091
-666.032	-200.000	-0.010	-0.130
-665.018	-26.159	0.191	-0.113
-664.003	227.234	0.073	0.118
-662.989	58.273	0.087	0.086
-661.974	104.246	-0.138	-0.163
-660.959	800.000	-0.032	0.106
-659.945	-108.634	-0.355	-0.076
-658.930	-200.000	-0.035	-0.174
-657.916	145.676	0.225	-0.302
-656.901	11.693	-0.056	0.043
-655.886	-39.142	0.356	0.188
-654.872	800.000	0.053	0.151
-653.857	111.586	-0.037	-0.044
-652.843	-11.853	0.185	-0.121
-651.828	-119.572	0.440	-0.076
-650.814	111.051	-0.083	-0.100
-649.799	-131.956	0.209	0.027
-648.784	65.676	0.181	0.184
-647.770	513.829	-0.046	0.108
-646.755	131.257	-0.129	0.166
-645.741	101.310	0.100	-0.116
-644.726	-88.899	-0.486	-0.144
-643.711	-137.748	0.151	-0.017
-642.697	-200.000	-0.014	-0.130
-641.682	83.157	-0.242	-0.264
-640.668	-200.000	-0.055	-0.305
-639.653	-140.435	-0.223	0.023
-638.638	292.638	-0.040	-0.074
-637.624	2.944	-0.193	-0.140
-636.609	-200.000	0.024	-0.137
-635.595	91.303	-0.172	0.193
-634.580	59.650	-0.194	-0.191
-633.565	-17.265	0.154	0.097
-632.551	800.000	0.056	0.200
-631.536	29.183	0.136	0.116
-630.522	514.615	0.082	-0.191
-629.507	-93.660	0.076	-0.021
-628.492	-44.779	0.083	0.041
-627.478	195.259	0.109	-0.166
-626.463	64.943	0.211	-0.213
-625.449	49.732	-0.331	-0.312
-624.434	158.516	-0.118	-0.164
-623.419	-159.373	0.599	-0.034
-622.405	105.922	-0.055	-0.065
-621.390	151.133	0.168	-0.229
-620.376	-200.000	-0.011	-0.171
-619.361	800.000	-0.109	-0.385
-618.346	60.627	-0.207	-0.205
-617.332	50.514	-0.139	-0.131
-616.317	-87.787	-0.120	-0.036
-615.303	465.328	-0.064	-0.143
-614.288	100.780	0.173	0.201
-613.273	-200.000	-0.059	0.285
-612.259	-133.116	-0.168	-0.021
-611.244	-25.108	-0.223	0.132
-610.230	-200.000	-0.015	-0.095
-609.215	-100.585	0.232	0.057
-608.201	800.000	-0.034	0.121
-607.186	-200.000	-0.003	-0.199
-606.171	-90.691	-0.175	-0.051
-605.157	-83.364	-0.143	0.046
-604.142	800.000	-0.035	0.108
-603.128	32.858	-0.117	0.101
-602.113	-17.867	-0.265	-0.166
-601.098	512.845	0.026	-0.061
-600.084	-86.638	0.108	0.033
-599.069	800.000	-0.054	-0.225
-598.055	-65.469	0.154	-0.062
-597.040	664.805	-0.051	-0.131
-596.025	128.396	-0.098	0.124
-595.011	-27.288	-0.305	-0.177
-593.996	40.203	0.123	-0.111
-592.982	800.000	-0.046	-0.181
-591.967	-115.033	0.196	-0.037
-590.952	-138.813	-0.120	-0.013
-589.938	-21.117	0.084	0.051
-588.923	-200.000	-0.034	-0.152
-587.909	-91.696	-0.129	-0.037
-586.894	-200.000	0.004	-0.037
-585.879	274.971	0.012	0.022
-584.865	-200.000	0.022	0.179
-583.850	108.622	-0.104	0.124
-582.836	144.654	-0.173	0.231
-581.821	-200.000	-0.021	0.380
-580.806	-200.000	0.008	0.317
-579.792	19.500	-0.089	0.072
-578.777	255.342	-0.051	-0.087
-577.763	112.970	-0.042	0.051
-576.748	51.160	0.246	0.233
-575.733	-116.911	-0.372	-0.068
-574.719	284.288	-0.149	0.267
-573.704	-200.000	0.009	0.362
-572.690	112.613	0.118	-0.142
-571.675	401.582	-0.056	-0.117
-570.661	4.449	-0.229	0.168
-569.646	-167.405	-0.264	0.011
-568.631	348.661	0.167	-0.329
-567.617	486.851	0.078	-0.178
-566.602	-35.030	-0.158	0.086
-565.588	-200.000	-0.031	-0.398
-564.573	-149.494	-0.225	0.018
-563.558	-200.000	0.047	0.274
-562.544	73.168	-0.202	-0.211
-561.529	112.081	-0.241	0.290
-560.515	-200.000	-0.012	-0.285
-559.500	547.611	0.081	-0.193
-558.485	800.000	0.047	0.170
-557.471	-200.000	0.037	0.188
-556.456	58.368	-0.109	0.107
-555.442	800.000	0.076	-0.227
-554.427	353.374	0.161	0.319
-553.412	-89.773	0.106	0.031
-552.398	307.786	-0.073	-0.135
-551.383	-57.610	-0.097	0.042
-550.369	97.364	-0.129	-0.148
-549.354	-200.000	-0.044	0.259
-548.339	-94.711	0.331	0.090
-547.325	-69.974	-0.126	0.048
-546.310	73.849	0.157	0.165
-545.296	-85.650	0.232	0.072
-544.281	800.000	0.025	0.071
-543.266	800.000	-0.060	0.238
-542.252	-49.038	-0.126	-0.060
-541.237	-121.955	0.451	0.074
-540.223	-174.629	-0.287	0.008
-539.208	800.000	-0.078	-0.215
-538.193	61.748	-0.178	-0.176
-537.179	-184.704	-0.255	-0.004
-536.164	126.291	0.065	-0.081
-535.150	755.868	-0.030	-0.082
-534.135	30.981	0.059	-0.051
-533.121	39.993	0.220	-0.197
-532.106	-76.528	0.241	-0.084
-531.091	-131.428	-0.062	0.008
-530.077	78.003	-0.093	-0.099
-529.062	-200.000	0.010	0.180
-528.048	800.000	-0.021	-0.080
-527.033	719.296	0.090	0.237
-526.018	-105.501	-0.307	-0.070
-525.004	-17.946	0.186	0.116
-523.989	-200.000	0.059	0.459
-522.975	-200.000	-0.004	-0.031
-521.960	188.389	0.023	0.034
-520.945	-55.331	-0.141	-0.063
-519.931	-176.392	0.166	0.004
-518.916	16.370	0.097	0.076
-517.902	-86.479	-0.445	0.136
-516.887	99.357	0.051	0.059
-515.872	83.905	0.178	-0.193
-514.858	-200.000	0.001	0.096
-513.843	-200.000	0.018	-0.163
-512.829	-71.443	-0.332	0.124
-511.814	158.894	-0.083	0.115
-510.799	-174.431	-0.236	-0.007
-509.785	54.796	-0.159	0.153
-508.770	800.000	-0.067	0.213
-507.756	183.577	0.105	0.154
-506.741	800.000	-0.031	0.088
-505.726	-102.684	-0.122	-0.029
-504.712	800.000	-0.068	-0.204
-503.697	162.827	-0.287	-0.401
-502.683	800.000	0.066	-0.202
-501.668	28.265	-0.114	0.096
-500.653	-93.081	-0.274	0.076
-499.639	800.000	-0.059	0.192
-498.624	34.602	0.127	0.110
-497.610	-12.991	-0.038	0.024
-496.595	-72.524	0.317	0.117
-495.581	763.202	-0.061	-0.165
-494.566	-55.649	0.110	0.049
-493.551	-35.435	0.092	0.050
-492.537	225.359	0.178	0.287
-491.522	301.457	-0.160	0.295
-490.508	40.382	0.150	-0.134
-489.493	-200.000	0.038	0.189
-488.478	-200.000	0.019	0.327
-487.464	309.428	-0.112	-0.208
-486.449	-96.929	-0.324	0.085
-485.435	48.069	0.149	-0.139
-484.420	285.091	-0.118	0.212
-483.405	-87.815	0.076	0.023
-482.391	-40.879	-0.276	-0.142
-481.376	-75.083	0.240	0.085
-480.362	-200.000	0.007	0.058
-479.347	-59.029	0.184	0.079
-478.332	166.844	-0.168	-0.237
-477.318	19.792	0.287	0.230
-476.303	189.265	0.058	-0.086
-475.289	-134.793	-0.108	-0.013
-474.274	-47.122	0.153	-0.074
-473.259	59.325	-0.231	0.227
-472.245	80.745	-0.138	-0.148
-471.230	755.314	-0.116	-0.312
-470.216	-110.062	-0.187	-0.039
-469.201	-43.563	0.323	-0.162
-468.186	-200.000	0.009	-0.380
-467.172	158.338	0.066	-0.092
-466.157	146.639	-0.114	0.152
-465.143	800.000	-0.063	-0.241
-464.128	199.712	-0.043	-0.066
-463.113	-117.842	0.227	-0.040
-462.099	-154.341	-0.094	0.006
-461.084	-200.000	0.037	-0.403
-460.070	-200.000	-0.023	0.136
-459.055	-5.645	0.237	-0.161
-458.040	800.000	-0.041	-0.125
-457.026	-200.000	0.006	-0.068
-456.011	800.000	0.045	-0.150
-454.997	109.509	0.267	-0.318
-453.982	-26.356	-0.103	0.060
-452.968	105.216	-0.164	0.192
-451.953	256.177	-0.081	-0.138
-450.938	-167.204	0.269	-0.011
-449.924	-126.458	0.140	-0.021
-448.909	-48.106	0.116	-0.055
-447.895	16.598	0.352	-0.276
-446.880	-147.632	-0.151	0.013
-445.865	-44.563	-0.443	0.220
-444.851	240.240	-0.062	0.102
-443.836	174.923	0.107	0.155
-442.822	-33.553	-0.417	-0.229
-441.807	-200.000	0.068	0.347
-440.792	-200.000	0.021	-0.161
-439.778	170.144	0.055	-0.078
-438.763	-103.901	0.206	0.048
-437.749	-200.000	0.006	-0.083
-436.734	316.721	-0.063	0.118
-435.719	-52.963	-0.274	-0.125
-434.705	106.582	-0.125	-0.148
-433.690	348.101	0.133	-0.261
-432.676	-47.151	-0.074	0.036
-431.661	-114.440	-0.194	0.037
-430.646	800.000	0.101	-0.301
-429.632	-115.241	-0.114	0.021
-428.617	120.337	-0.208	0.256
-427.603	-18.906	0.288	0.178
-426.588	551.565	0.096	0.228
-425.573	-200.000	0.031	0.312
-424.559	12.211	-0.162	-0.124
-423.544	4.254	0.501	-0.364
-422.530	-200.000	-0.004	0.145
-421.515	800.000	0.082	-0.283
-420.500	42.405	0.051	0.046
-419.486	160.785	-0.080	-0.111
-418.471	-8.530	0.183	0.122
-417.457	-200.000	-0.056	0.405
-416.442	-200.000	-0.001	0.047
-415.428	-200.000	0.029	0.216
-414.413	-109.900	-0.394	0.082
-413.398	520.713	0.165	-0.385
-412.384	615.232	0.055	0.137
-411.369	800.000	0.064	-0.195
-410.355	-200.000	-0.027	-0.171
-409.340	-81.496	0.302	0.099
-408.325	-200.000	0.085	0.435
-407.311	-200.000	0.027	0.168
-406.296	223.260	-0.112	0.179
-405.282	73.184	0.258	0.267
-404.267	-95.020	0.388	0.104
-403.252	351.629	0.108	0.213
-402.238	602.415	0.165	0.408
-401.223	-36.335	-0.071	-0.038
-400.209	52.997	-0.199	-0.189
-399.194	-16.671	-0.128	-0.080
-398.179	426.712	0.029	-0.063
-397.165	-25.753	0.424	-0.248
-396.150	-200.000	-0.022	0.231
-395.136	-200.000	-0.023	0.115
-394.121	28.267	0.405	0.339
-393.106	506.902	0.151	0.348
-392.092	800.000	0.105	-0.358
-391.077	594.358	0.108	-0.264
-390.063	469.559	-0.053	0.119
-389.048	-200.000	0.018	-0.120
-388.033	-109.536	0.290	0.061
-387.019	362.772	0.049	-0.097
-386.004	-33.511	-0.153	-0.084
-384.990	-16.589	0.307	0.192
-383.975	-126.261	0.085	-0.013
-382.960	293.641	0.069	0.124
-381.946	-200.000	-0.008	0.166
-380.931	77.342	0.079	0.083
-379.917	109.448	-0.148	0.175
-378.902	112.870	-0.102	-0.123
-377.888	50.811	-0.163	-0.153
-376.873	-99.112	0.057	-0.014
-375.858	-41.094	-0.084	0.043
-374.844	-200.000	0.063	-0.429
-373.829	-40.421	0.093	0.048
-372.815	-58.997	-0.100	-0.043
-371.800	-200.000	-0.059	-0.339
-370.785	800.000	0.078	0.230
-369.771	-200.000	0.018	-0.144
-368.756	-94.331	0.104	0.028
-367.742	-81.197	0.257	-0.084
-366.727	490.441	-0.073	-0.165
-365.712	169.930	-0.152	-0.215
-364.698	-88.759	-0.365	-0.107
-363.683	-68.721	-0.253	-0.097
-362.669	-141.608	0.154	0.015
-361.654	19.521	0.021	0.016
-360.639	470.680	0.022	0.049
-359.625	800.000	0.141	0.469
-358.610	-54.463	0.066	0.030
-357.596	-146.187	-0.431	0.038
-356.581	-69.562	-0.045	-0.017
-355.566	-200.000	-0.053	0.292
-354.552	800.000	0.092	-0.333
-353.537	401.004	-0.102	0.213
-352.523	33.855	0.178	-0.153
-351.508	260.168	-0.152	0.260
-350.493	-10.768	-0.180	0.118
-349.479	-200.000	0.018	-0.217
-348.464	-68.649	0.238	0.091
-347.450	-141.497	0.114	-0.011
-346.435	-200.000	0.009	0.043
-345.420	-65.268	-0.275	-0.110
-344.406	-24.530	-0.448	0.264
-343.391	-95.323	0.167	-0.044
-342.377	-200.000	-0.004	0.042
-341.362	-118.294	-0.212	-0.037
-340.348	-200.000	-0.001	0.131
-339.333	20.276	-0.127	-0.102
-338.318	800.000	-0.088	-0.343
-337.304	-200.000	0.000	-0.319
-336.289	800.000	-0.066	0.269
-335.275	-200.000	0.060	0.321
-334.260	-200.000	0.004	-0.138
-333.245	-56.019	0.027	-0.012
-332.231	-200.000	-0.088	-0.480
-331.216	-200.000	0.066	-0.297
-330.202	-108.036	-0.271	0.058
-329.187	-3.209	0.285	0.197
-328.172	800.000	0.103	0.290
-327.158	-96.161	0.170	0.045
-326.143	139.476	-0.101	0.132
-325.129	128.419	0.057	0.072
-324.114	308.579	-0.159	0.293
-323.099	130.230	0.052	-0.066
-322.085	800.000	0.055	-0.163
-321.070	72.880	0.076	0.078
-320.056	380.514	0.112	-0.227
-319.041	74.588	-0.151	-0.157
-318.026	-57.972	0.237	-0.102
-317.012	-47.893	-0.127	0.061
-315.997	-1.789	-0.161	-0.112
-314.983	304.387	0.091	-0.167
-313.968	-200.000	-0.043	-0.273
-312.953	-200.000	0.024	0.121
-311.939	-121.507	0.679	-0.111
-310.924	152.567	-0.181	-0.245
-309.910	-1.794	-0.266	-0.185
-308.895	-38.381	0.063	0.033
-307.880	134.205	-0.066	0.084
-306.866	-82.098	0.200	-0.065
-305.851	800.000	-0.064	-0.273
-304.837	-139.571	-0.374	0.039
-303.822	-145.866	0.242	0.021
-302.807	113.194	0.160	0.191
-301.793	42.982	-0.091	-0.082
-300.778	194.078	-0.025	0.037
-299.764	141.688	-0.058	-0.076
-298.749	-96.353	-0.188	0.049
-297.735	36.361	0.068	-0.059
-296.720	-153.090	-0.190	-0.013
-295.705	-11.035	-0.403	0.263
-294.691	276.122	0.202	0.354
-293.676	-35.826	-0.049	-0.026
-292.662	282.226	-0.169	-0.299
-291.647	-7.133	-0.032	0.022
-290.632	800.000	-0.076	0.239
-289.618	800.000	0.080	-0.236
-288.603	-2.312	0.057	-0.039
-287.589	500.329	0.140	-0.318
-286.574	126.018	0.125	0.156
-285.559	-200.000	-0.032	0.361
-284.545	309.688	0.187	0.345
-283.530	-200.000	0.053	0.258
-282.516	-167.261	0.238	-0.010
-281.501	60.534	0.241	0.236
-280.486	48.445	0.274	0.253
-279.472	-81.874	-0.071	0.023
-278.457	297.248	0.269	0.487
-277.443	110.483	-0.150	0.178
-276.428	50.316	0.135	0.126
-275.413	159.593	-0.249	-0.341
-274.399	99.414	0.250	0.286
-273.384	-2.421	0.170	0.118
-272.370	50.027	0.115	0.107
-271.355	-65.014	0.324	0.129
-270.340	-94.274	-0.197	0.053
-269.326	-124.979	-0.097	0.015
-268.311	183.523	-0.221	-0.322
-267.297	566.170	0.088	-0.210
-266.282	-47.892	0.365	0.174
-265.267	127.229	-0.034	-0.043
-264.253	-34.477	-0.251	0.136
-263.238	-200.000	-0.040	-0.213
-262.224	-200.000	0.032	-0.235
-261.209	-200.000	0.021	-0.092
-260.195	714.802	0.059	0.155
-259.180	50.786	0.320	-0.299
-258.165	-128.183	0.042	0.006
-257.151	800.000	0.135	-0.459
-256.136	800.000	-0.028	-0.105
-255.122	-11.553	-0.136	-0.088
-254.107	800.000	0.069	-0.236
-253.092	-200.000	-0.082	-0.426
-252.078	-200.000	-0.006	-0.093
-251.063	-90.522	0.372	0.106
-250.049	-101.637	0.132	-0.032
-249.034	51.134	0.337	-0.315
-248.019	26.434	-0.095	0.078
-247.005	-200.000	0.005	0.134
-245.990	76.393	-0.158	-0.165
-244.976	473.765	-0.014	-0.030
-243.961	-200.000	-0.012	0.075
-242.946	800.000	0.060	0.233
-241.932	-103.259	0.100	0.023
-240.917	29.403	-0.167	-0.140
-239.903	-34.230	-0.062	0.033
-238.888	-62.215	-0.176	0.072
-237.873	-38.797	-0.172	-0.089
-236.859	800.000	0.176	0.514
-235.844	-200.000	0.013	-0.105
-234.830	-96.136	-0.213	-0.056
-233.815	77.615	-0.052	0.055
-232.800	-130.034	-0.187	0.025
-231.786	-181.447	0.176	0.003
-230.771	34.140	-0.284	0.244
-229.757	-4.467	0.030	-0.020
-228.742	48.541	0.172	-0.159
-227.727	42.779	0.115	0.103
-226.713	-111.866	-0.254	-0.051
-225.698	-200.000	0.036	-0.169
-224.684	18.721	0.236	0.186
-223.669	67.478	-0.175	-0.176
-222.655	-145.824	-0.367	-0.032
-221.640	19.472	0.279	0.221
-220.625	33.162	-0.135	0.115
-219.611	800.000	0.017	0.054
-218.596	292.289	-0.056	-0.100
-217.582	-200.000	0.004	-0.121
-216.567	585.697	0.148	0.357
-215.552	800.000	0.070	0.227
-214.538	800.000	0.046	-0.177
-213.523	-125.306	0.305	0.046
-212.509	-35.852	-0.218	0.116
-211.494	-116.556	-0.238	-0.043
-210.479	43.239	0.298	-0.268
-209.465	111.932	0.038	0.045
-208.450	-76.046	0.152	0.053
-207.436	-57.619	0.117	0.051
-206.421	-200.000	0.013	-0.065
-205.406	660.021	0.104	-0.264
-204.392	-87.772	-0.138	0.041
-203.377	38.354	0.123	-0.108
-202.363	-48.017	-0.126	-0.060
-201.348	-191.314	-0.164	-0.002
-200.333	-98.386	0.329	-0.083
-199.319	144.525	-0.130	-0.171
-198.304	-47.980	0.117	0.056
-197.290	316.082	-0.091	-0.168
-196.275	124.302	-0.121	0.150
-195.260	-78.416	0.096	0.032
-194.246	-161.952	0.291	-0.014
-193.231	-102.450	0.231	-0.054
-192.217	-200.000	-0.006	0.124
-191.202	-200.000	0.018	0.174
-190.187	215.482	-0.080	0.124
-189.173	255.811	-0.128	-0.217
-188.158	-132.190	0.117	0.015
-187.144	-137.702	0.452	0.050
-186.129	-99.298	0.021	0.005
-185.114	-200.000	-0.004	-0.034
-184.100	63.054	0.130	-0.128
-183.085	96.851	-0.220	-0.248
-182.071	264.317	-0.264	0.452
-181.056	-111.267	-0.244	-0.049
-180.042	-3.056	-0.092	0.063
-179.027	800.000	-0.115	-0.312
-178.012	422.964	-0.203	0.429
-176.998	8.466	-0.278	0.206
-175.983	-200.000	-0.179	0.001
-174.969	199.453	0.029	0.044
-173.954	300.387	0.124	-0.225
-172.939	-126.286	-0.031	0.005
-171.925	186.382	-0.146	-0.213
-170.910	334.963	0.071	-0.135
-169.896	800.000	0.021	0.091
-168.881	418.040	0.073	-0.153
-167.866	163.473	0.080	0.111
-166.852	752.799	-0.174	0.463
-165.837	-192.327	-0.199	0.002
-164.823	466.736	-0.070	-0.155
-163.808	31.774	0.307	0.260
-162.793	-1.194	0.206	0.143
-161.779	-175.411	-0.340	-0.009
-160.764	-162.015	0.105	0.005
-159.750	-200.000	0.016	0.174
-158.735	216.896	0.014	0.022
-157.720	-141.905	0.125	-0.012
-156.706	-142.959	0.293	0.028
-155.691	-200.000	-0.087	0.444
-154.677	-83.925	0.169	-0.053
-153.662	-107.759	0.269	-0.058
-152.647	-16.604	-0.270	-0.168
-151.633	-65.680	0.320	-0.126
-150.618	-200.000	-0.047	0.267
-149.604	683.565	-0.075	0.192
-148.589	800.000	0.044	-0.127
-147.574	-33.678	-0.142	-0.077
-146.560	656.659	0.027	-0.069
-145.545	173.768	-0.095	0.134
-144.531	-136.062	0.120	0.014
-143.516	-6.658	-0.190	-0.127
-142.502	-200.000	0.033	0.424
-141.487	-50.391	0.167	0.077
-140.472	-200.000	-0.039	0.228
-139.458	-75.613	0.075	0.026
-138.443	127.764	-0.193	-0.240
-137.429	-168.228	-0.119	0.005
-136.414	-114.780	-0.175	-0.033
-135.399	-30.425	0.067	0.037
-134.385	800.000	0.045	0.174
-133.370	-70.330	-0.213	0.079
-132.356	53.812	0.213	-0.201
-131.341	-48.027	0.086	-0.041
-130.326	-200.000	-0.002	-0.018
-129.312	219.709	0.081	-0.127
-128.297	191.005	0.179	-0.264
-127.283	-42.575	0.222	-0.111
-126.268	75.032	0.104	0.107
-125.253	-149.684	-0.139	0.011
-124.239	26.783	-0.311	-0.256
-123.224	-200.000	-0.043	-0.315
-122.210	-200.000	-0.025	0.198
-121.195	-129.875	-0.158	-0.021
-120.180	800.000	0.072	-0.202
-119.166	-36.374	-0.062	0.033
-118.151	145.503	0.178	-0.234
-117.137	-156.049	0.073	0.005
-116.122	800.000	0.073	-0.222
-115.107	61.765	0.103	-0.101
-114.093	800.000	0.059	0.206
-113.078	-31.575	0.094	-0.052
-112.064	196.570	-0.124	0.185
-111.049	-161.056	0.079	0.004
-110.034	-26.288	-0.167	-0.096
-109.020	36.753	0.093	0.080
-108.005	-5.320	0.366	-0.247
-106.991	-92.218	0.323	-0.089
-105.976	800.000	-0.119	-0.388
-104.962	604.828	0.078	0.191
-103.947	314.408	-0.164	0.303
-102.932	800.000	0.027	0.079
-101.918	-41.459	-0.125	-0.063
-100.903	421.560	0.069	0.145
-99.889	52.480	-0.183	-0.172
-98.874	15.103	-0.034	0.026
-97.859	-200.000	-0.018	-0.247
-96.845	21.463	-0.133	0.106
-95.830	411.655	-0.068	-0.141
-94.816	-115.321	0.105	0.019
-93.801	-200.000	0.005	-0.236
-92.786	-144.480	0.445	0.040
-91.772	-26.833	0.075	0.043
-90.757	800.000	0.061	0.193
-89.743	-126.028	0.376	0.055
-88.728	126.851	-0.186	-0.231
-87.713	-33.941	-0.219	0.118
-86.699	129.576	0.146	0.182
-85.684	-200.000	0.012	0.149
-84.670	800.000	-0.079	0.236
-83.655	-142.299	0.232	-0.022
-82.640	-122.636	-0.163	-0.026
-81.626	65.622	0.263	0.261
-80.611	-138.370	0.613	0.066
-79.597	800.000	-0.051	0.167
-78.582	-21.567	0.326	0.194
-77.567	-61.436	-0.342	0.141
-76.553	-3.182	0.140	0.096
-75.538	-171.091	0.108	-0.004
-74.524	65.919	-0.243	0.241
-73.509	-117.033	0.068	-0.012
-72.494	20.153	0.082	0.064
-71.480	98.537	-0.041	0.046
-70.465	800.000	0.118	0.396
-69.451	-58.907	-0.260	0.110
-68.436	800.000	0.141	0.527
-67.422	99.679	0.089	0.100
-66.407	279.863	0.047	-0.083
-65.392	-200.000	0.012	0.158
-64.378	124.556	-0.124	0.153
-63.363	699.256	-0.096	0.248
-62.349	-29.156	-0.123	-0.069
-61.334	35.843	-0.909	-0.783
-60.319	225.252	0.344	0.545
-59.305	-200.000	-0.068	-0.987
-58.290	213.538	0.782	1.209
-57.276	800.000	0.355	1.397
-56.261	-200.000	109.748	638.031
-55.246	487.884	1484.150	3314.804
-54.232	150.953	2647.839	3522.770
-53.217	106.148	2158.120	2500.495
-52.203	38.828	1696.317	1481.970
-51.188	31.547	1516.742	1275.615
-50.173	29.358	1492.564	1240.524
-49.159	52.601	1547.987	1446.285
-48.144	52.929	1564.686	1464.069
-47.130	31.994	1521.854	1282.768
-46.115	28.803	1507.464	1248.942
-45.100	28.645	1504.368	1245.254
-44.086	28.638	1502.099	1243.279
-43.071	28.539	1500.520	1241.251
-42.057	28.615	1498.708	1240.214
-41.042	28.672	1497.145	1239.262
-40.027	28.572	1496.238	1237.782
-39.013	28.562	1494.216	1235.996
-37.998	28.567	1493.052	1235.016
-36.984	28.518	1492.255	1233.978
-35.969	28.569	1490.958	1233.200
-34.954	28.507	1489.518	1231.544
-33.940	28.469	1487.935	1229.930
-32.925	28.580	1486.496	1229.439
-31.911	28.619	1485.385	1228.727
-30.896	28.563	1484.130	1227.270
-29.881	28.603	1482.576	1226.202
-28.867	28.607	1481.681	1225.439
-27.852	28.625	1480.421	1224.469
-26.838	28.676	1479.093	1223.664
-25.823	28.603	1477.695	1221.974
-24.809	28.685	1475.560	1220.705
-23.794	28.633	1474.430	1219.371
-22.779	28.563	1473.551	1218.135
-21.765	28.548	1472.779	1217.346
-20.750	28.667	1471.556	1217.074
-19.736	28.556	1470.562	1215.475
-18.721	28.523	1469.270	1214.134
-17.706	28.637	1467.521	1213.395
-16.692	28.527	1467.010	1212.201
-15.677	28.523	1466.167	1211.432
-14.663	28.556	1464.690	1210.381
-13.648	28.577	1463.722	1209.666
-12.633	28.529	1463.299	1208.951
-11.619	28.563	1462.196	1208.218
-10.604	28.491	1461.205	1206.880
-9.590	28.527	1460.267	1206.293
-8.575	28.559	1459.364	1205.706
-7.560	28.635	1458.102	1205.118
-6.546	28.455	1458.094	1203.880
-5.531	28.528	1456.884	1203.317
-4.517	28.564	1455.568	1202.414
-3.502	28.502	1454.611	1201.173
-2.487	28.559	1453.630	1200.687
-1.473	28.491	1452.894	1199.588
-0.458	28.532	1451.006	1198.249
0.556	26.784	1441.432	1186.911
1.571	23.532	1416.369	1145.211
2.586	19.836	1355.089	1072.693
3.600	18.155	1272.277	997.257
4.615	17.098	1226.857	955.619
5.629	16.042	1174.268	908.887
6.644	12.550	1098.373	832.425
7.659	9.455	1063.787	790.954
8.673	9.016	1058.223	784.598
9.688	8.922	1055.257	781.874
10.702	8.923	1053.212	780.293
11.717	8.919	1051.298	778.789
12.731	10.322	1051.054	785.346
13.746	13.951	1055.775	806.449
14.761	17.151	1059.147	824.514
15.775	17.724	1059.856	827.778
16.790	16.897	1057.765	822.063
17.804	15.805	1055.606	815.026
18.819	14.921	1053.805	809.285
19.834	14.387	1052.322	805.494
20.848	14.192	1050.947	803.432
21.863	13.828	1050.438	801.213
22.877	13.721	1049.861	800.188
23.892	13.410	1048.562	797.625
24.907	13.381	1047.945	796.947
25.921	13.430	1047.389	796.691
26.936	13.435	1046.659	796.088
27.950	13.470	1045.698	795.452
28.965	13.560	1044.123	794.619
29.980	13.567	1043.022	793.741
30.994	13.639	1042.217	793.404
32.009	13.759	1041.178	793.116
33.023	13.718	1040.388	792.250
34.038	13.643	1039.907	791.455
35.053	13.635	1038.910	790.589
36.067	13.614	1037.798	789.573
37.082	13.513	1037.126	788.512
38.096	13.477	1036.798	788.019
39.111	13.519	1035.858	787.433
40.126	13.545	1034.904	786.764
41.140	13.602	1033.396	785.818
42.155	13.360	1032.374	783.824
43.169	13.394	1031.532	783.279
44.184	13.376	1030.236	782.139
45.199	13.343	1029.304	781.205
46.213	13.463	1027.920	780.653
47.228	13.414	1027.100	779.729
48.242	13.567	1025.921	779.486
49.257	13.413	1025.362	778.268
50.271	13.544	1024.511	778.169
51.286	13.432	1023.716	776.971
52.301	13.465	1022.575	776.188
53.315	13.564	1022.076	776.208
54.330	13.573	1021.235	775.541
55.344	13.479	1019.927	774.039
56.359	13.291	1019.150	772.503
57.374	13.487	1018.356	772.748
58.388	13.346	1017.617	771.459
59.403	13.381	1016.812	770.946
60.417	13.408	1015.918	770.326
61.432	13.319	1015.285	769.364
62.447	13.302	1014.157	768.361
63.461	13.337	1012.998	767.576
64.476	13.357	1012.214	767.007
65.490	13.298	1011.523	766.143
66.505	13.316	1010.499	765.385
67.520	13.384	1009.613	764.962
68.534	13.297	1008.921	763.964
69.549	13.305	1008.140	763.342
70.563	13.293	1007.694	762.881
71.578	13.288	1007.088	762.332
72.593	13.272	1006.145	761.479
73.607	13.324	1004.871	760.688
74.622	13.112	1003.957	758.955
75.636	13.152	1003.387	758.640
76.651	13.274	1002.368	758.362
77.666	13.198	1002.018	757.682
78.680	13.239	1000.970	757.007
79.695	13.218	1000.467	756.467
80.709	13.310	999.569	756.138
81.724	13.407	998.858	755.977
82.739	13.255	998.691	755.092
83.753	13.433	998.134	755.414
84.768	13.384	997.021	754.283
85.782	13.473	996.048	753.885
86.797	13.668	995.632	754.393
87.812	13.498	994.649	752.807
88.826	13.397	994.082	751.852
89.841	13.615	993.066	752.007
90.855	13.639	992.191	751.386
91.870	13.656	991.129	750.594
92.884	13.515	991.234	749.968
93.899	13.800	990.107	750.338
94.914	13.524	989.459	748.531
95.928	13.702	988.318	748.405
96.943	13.754	987.586	748.021
97.957	13.592	987.065	746.827
98.972	13.594	986.109	746.050
99.987	13.609	985.597	745.663
101.001	13.571	985.223	745.142
102.016	13.622	984.108	744.465
103.030	13.601	982.928	743.413
104.045	13.612	982.110	742.778
105.060	13.676	980.897	742.079
106.074	13.605	979.764	740.837
107.089	13.401	979.399	739.587
108.103	13.400	978.312	738.697
109.118	13.399	977.420	737.952
110.133	13.295	976.792	736.947
111.147	13.438	975.724	736.715
112.162	13.455	974.578	735.860
113.176	13.452	974.221	735.509
114.191	13.531	972.635	734.598
115.206	13.438	972.345	733.902
116.220	13.540	971.473	733.629
117.235	13.439	970.761	732.580
118.249	13.492	970.031	732.201
119.264	13.569	968.926	731.642
120.279	13.464	968.289	730.634
121.293	13.283	967.477	729.158
122.308	13.477	966.869	729.487
123.322	13.234	966.082	727.759
124.337	13.278	965.113	727.160
125.352	13.399	963.847	726.673
126.366	13.286	962.517	725.112
127.381	13.341	961.756	724.713
128.395	13.374	960.634	723.950
129.410	13.362	959.868	723.255
130.424	13.461	958.627	722.688
131.439	13.300	958.346	721.709
132.454	13.343	957.616	721.282
133.468	13.412	956.601	720.754
134.483	13.521	956.052	720.753
135.497	13.304	955.494	719.324
136.512	13.455	954.551	719.207
137.527	13.491	954.048	718.922
138.541	13.420	952.661	717.506
139.556	13.437	952.521	717.411
140.570	13.446	952.170	717.119
141.585	13.520	950.699	716.269
142.600	13.746	949.942	716.610
143.614	13.599	949.390	715.497
144.629	13.721	948.503	715.294
145.643	13.597	948.202	714.469
146.658	13.670	946.916	713.747
147.673	13.632	946.232	713.007
148.687	13.589	944.778	711.665
149.702	13.533	944.295	710.995
150.716	13.492	943.310	710.017
151.731	13.419	942.216	708.819
152.746	13.587	941.806	709.165
153.760	13.528	940.955	708.210
154.775	13.536	940.641	707.943
155.789	13.567	939.871	707.436
156.804	13.675	938.832	707.050
157.819	13.834	937.770	706.865
158.833	13.612	937.825	705.900
159.848	13.768	937.206	706.035
160.862	13.848	936.154	705.521
161.877	13.867	935.473	705.023
162.892	13.637	934.386	703.167
163.906	13.566	934.003	702.515
164.921	13.642	932.669	701.773
165.935	13.542	931.816	700.648
166.950	13.735	930.858	700.677
167.964	13.635	930.386	699.841
168.979	13.747	929.061	699.251
169.994	13.672	928.066	698.128
171.008	13.746	927.247	697.760
172.023	13.671	926.656	696.937
173.037	13.771	926.064	696.851
174.052	13.795	925.283	696.303
175.067	13.791	924.781	695.847
176.081	13.681	923.870	694.640
177.096	13.748	922.553	693.867
178.110	13.804	921.618	693.335
179.125	13.862	921.042	693.083
180.140	13.823	920.268	692.277
181.154	13.851	919.613	691.841
182.169	13.774	919.047	691.031
183.183	13.908	918.633	691.220
184.198	13.909	917.535	690.335
185.213	13.979	916.771	689.988
186.227	13.910	916.562	689.484
187.242	13.964	915.962	689.195
188.256	13.975	915.228	688.630
189.271	14.132	913.991	688.286
190.286	14.076	913.633	687.723
191.300	14.036	912.814	686.882
192.315	13.935	912.160	685.913
193.329	13.740	911.882	684.835
194.344	13.872	910.831	684.533
195.359	13.856	910.711	684.314
196.373	13.948	910.117	684.186
197.388	13.924	909.486	683.553
198.402	14.093	909.127	683.918
199.417	14.158	908.595	683.725
200.432	14.204	908.330	683.653
201.446	14.142	907.682	682.852
202.461	14.252	907.382	683.014
203.475	14.331	906.926	682.938
204.490	14.379	905.979	682.360
205.504	14.239	905.429	681.313
206.519	14.187	904.120	680.055
207.534	14.095	903.968	679.503
208.548	14.086	903.067	678.730
209.563	14.139	902.429	678.405
210.577	14.262	901.831	678.398
211.592	14.161	901.146	677.412
212.607	14.173	901.050	677.329
213.621	14.340	900.025	677.175
214.636	14.338	899.456	676.680
215.650	14.375	898.738	676.230
216.665	14.353	898.477	675.883
217.680	14.391	898.272	675.825
218.694	14.407	897.242	675.056
219.709	14.556	896.493	675.037
220.723	14.405	895.948	673.955
221.738	14.358	895.191	673.136
222.753	14.421	894.522	672.828
223.767	14.404	893.830	672.179
224.782	14.377	893.230	671.559
225.796	14.526	892.529	671.571
226.811	14.540	891.608	670.876
227.826	14.485	890.979	670.124
228.840	14.531	890.622	669.980
229.855	14.386	889.998	668.870
230.869	14.475	889.330	668.664
231.884	14.555	888.402	668.229
232.899	14.517	887.651	667.451
233.913	14.454	886.883	666.565
234.928	14.497	886.370	666.291
235.942	14.472	885.817	665.719
236.957	14.395	885.010	664.743
237.972	14.450	883.996	664.142
238.986	14.397	883.863	663.771
240.001	14.503	883.145	663.596
241.015	14.554	882.167	663.006
242.030	14.663	881.428	662.825
243.045	14.547	881.312	662.218
244.059	14.642	880.338	661.804
245.074	14.699	879.465	661.316
246.088	14.664	879.210	660.926
247.103	14.702	878.435	660.434
248.117	14.733	877.887	660.087
249.132	14.795	877.384	659.898
250.147	14.910	876.892	659.923
251.161	14.867	876.591	659.466
252.176	15.171	875.208	659.567
253.190	15.052	874.920	658.821
254.205	15.178	874.344	658.826
255.220	15.105	873.879	658.128
256.234	15.024	873.062	657.140
257.249	15.125	872.364	656.950
258.263	15.012	872.142	656.283
259.278	15.069	871.536	655.990
260.293	15.218	871.080	656.174
261.307	15.207	870.164	655.381
262.322	15.242	869.727	655.131
263.336	15.277	869.245	654.847
264.351	15.245	868.730	654.278
265.366	15.414	867.629	654.049
266.380	15.205	867.176	652.835
267.395	15.206	867.024	652.668
268.409	15.402	865.929	652.546
269.424	15.261	864.912	651.173
270.439	15.310	864.230	650.793
271.453	15.203	863.646	649.882
272.468	15.400	862.591	649.796
273.482	15.193	862.435	648.817
274.497	15.288	862.089	648.868
275.512	15.275	861.049	647.979
276.526	15.237	860.284	647.197
277.541	15.220	859.922	646.801
278.555	15.326	859.355	646.727
279.570	15.467	858.987	646.937
280.585	15.431	858.337	646.251
281.599	15.467	857.730	645.875
282.614	15.461	857.070	645.297
283.628	15.351	856.539	644.419
284.643	15.402	855.712	643.936
285.657	15.458	855.243	643.742
286.672	15.360	854.828	642.994
287.687	15.489	854.561	643.232
288.701	15.360	854.178	642.391
289.716	15.500	853.285	642.199
290.730	15.524	852.665	641.768
291.745	15.581	852.015	641.438
292.760	15.598	851.385	640.973
293.774	15.521	850.700	640.108
294.789	15.657	850.471	640.397
295.803	15.657	849.537	639.637
296.818	15.715	848.624	639.111
297.833	15.579	848.283	638.284
298.847	15.600	847.449	637.677
299.862	15.560	847.328	637.380
300.876	15.608	846.384	636.796
301.891	15.739	845.326	636.438
302.906	15.717	845.239	636.234
303.920	15.806	844.449	635.919
304.935	15.727	843.763	635.046
305.949	15.885	843.382	635.302
306.964	16.083	842.444	635.284
307.979	15.944	842.175	634.501
308.993	15.774	841.724	633.464
310.008	15.820	841.359	633.308
311.022	15.906	840.764	633.126
312.037	15.945	840.263	632.843
313.052	15.879	839.284	631.798
314.066	15.868	838.688	631.255
315.081	15.799	838.052	630.462
316.095	15.746	837.617	629.878
317.110	15.935	836.826	629.935
318.125	15.830	836.706	629.397
319.139	15.927	836.043	629.205
320.154	15.850	835.760	628.650
321.168	15.949	834.781	628.226
322.183	16.033	834.358	628.167
323.197	15.902	834.246	627.536
324.212	15.977	833.353	627.090
325.227	15.976	833.050	626.803
326.241	16.003	831.964	626.028
327.256	15.956	831.552	625.491
328.270	15.869	831.290	624.915
329.285	15.841	830.809	624.394
330.300	16.098	829.888	624.600
331.314	15.912	829.705	623.717
332.329	15.859	829.131	623.035
333.343	16.051	828.171	622.967
334.358	15.996	827.923	622.523
335.373	16.159	827.178	622.509
336.387	16.168	826.819	622.217
337.402	16.137	826.385	621.719
338.416	16.289	825.390	621.478
339.431	16.242	824.961	620.927
340.446	16.201	824.591	620.440
341.460	16.369	824.057	620.601
342.475	16.344	823.376	619.942
343.489	16.242	823.218	619.395
344.504	16.325	822.619	619.194
345.519	16.500	821.896	619.234
346.533	16.545	821.398	618.969
347.548	16.440	821.099	618.305
348.562	16.372	820.725	617.720
349.577	16.433	819.765	617.165
350.592	16.410	819.410	616.760
351.606	16.251	819.019	615.832
352.621	16.375	818.527	615.858
353.635	16.279	818.013	615.068
354.650	16.353	817.769	615.099
355.665	16.465	817.075	614.929
356.679	16.403	816.366	614.116
357.694	16.605	815.913	614.455
358.708	16.600	815.222	613.864
359.723	16.548	814.666	613.201
360.738	16.490	814.248	612.624
361.752	16.496	814.209	612.559
362.767	16.618	813.745	612.598
363.781	16.615	813.146	612.081
364.796	16.691	812.648	611.929
365.810	16.934	811.627	611.983
366.825	16.844	811.728	611.680
367.840	16.763	811.565	611.211
368.854	16.895	810.733	611.006
369.869	16.821	810.661	610.629
370.883	16.832	809.876	610.024
371.898	16.743	809.369	609.268
372.913	16.802	809.194	609.296
373.927	16.840	808.237	608.658
374.942	16.891	807.631	608.331
375.956	17.008	806.916	608.158
376.971	16.803	806.127	606.775
377.986	16.849	805.767	606.615
379.000	16.920	805.509	606.619
380.015	16.965	805.580	606.781
381.029	16.981	804.557	606.013
382.044	16.970	803.954	605.467
383.059	16.999	803.274	605.006
384.073	17.099	802.744	604.907
385.088	17.308	801.922	604.978
386.102	16.975	801.621	603.515
387.117	16.866	800.994	602.602
388.132	16.896	801.119	602.748
389.146	16.881	800.470	602.152
390.161	16.993	800.078	602.203
391.175	17.059	799.691	602.094
392.190	17.174	799.312	602.163
393.205	17.104	798.960	601.593
394.219	16.913	798.338	600.399
395.234	17.032	797.615	600.222
396.248	17.017	797.637	600.132
397.263	17.043	796.724	599.485
398.278	16.979	796.006	598.663
399.292	17.040	795.811	598.679
400.307	17.017	795.443	598.269
401.321	17.026	794.888	597.832
402.336	17.076	794.569	597.714
403.350	16.915	794.555	597.084
404.365	17.077	793.694	596.952
405.380	17.092	793.533	596.832
406.394	17.036	793.291	596.402
407.409	17.187	792.689	596.425
408.423	17.266	792.295	596.353
409.438	17.381	791.751	596.295
410.453	17.381	791.421	595.994
411.467	17.431	790.799	595.646
412.482	17.477	790.245	595.337
413.496	17.489	789.786	594.981
414.511	17.471	789.844	594.910
415.526	17.628	788.944	594.729
416.540	17.464	788.655	593.885
417.555	17.509	788.283	593.707
418.569	17.448	787.854	593.119
419.584	17.522	787.408	592.989
420.599	17.533	786.738	592.470
421.613	111.180	1292.160	1474.896
422.628	95.408	1365.775	1474.993
