DTS Sentinel unit serial number:	SN413079Multiplexer serial number:	ORYXHardware model number:	OX4-SRSoftware version number:	ORYX F/W v4.00 Oryx Data Collector v3.7.2.0data status	okinstallation	princeton_trtdifferential loss correction	single-endedforward channel	channel 3reverse channel	N/Adate	2019/09/18time	00:24:35forward acquisition time	60.00reverse acquisition time	0.00gamma	496.2192k internal	0.2345k external	0.2345temperature offset calibration	0.9952default loss term (dB/km)	0.3790temperature slope calibration	1.0000multiplexer offset coefficient	1.0000multiplexer slope coefficient	1.0000fibre end	0.00T internal ref (°C)	23.61T ext. ref 1 (°C)	0.17T ext. ref 2 (°C)	17.25length (m)	temperature (°C)	Stokes	anti-Stokes-747.200	-200.000	0.020	0.230
-746.185	128.975	-0.069	0.089
-745.171	800.000	0.084	0.243
-744.156	359.892	-0.158	0.317
-743.142	40.520	-0.064	-0.057
-742.127	-200.000	-0.039	0.234
-741.112	46.686	0.078	0.073
-740.098	-200.000	-0.002	-0.050
-739.083	538.025	0.164	0.391
-738.069	584.621	-0.060	0.148
-737.054	-88.131	0.172	-0.052
-736.039	127.979	0.050	0.064
-735.025	31.221	-0.093	-0.080
-734.010	-59.309	0.118	0.051
-732.996	-15.357	-0.220	-0.141
-731.981	-114.007	-0.278	-0.054
-730.966	-55.321	0.119	-0.053
-729.952	-2.757	-0.201	-0.140
-728.937	800.000	-0.017	-0.071
-727.923	6.526	-0.099	-0.074
-726.908	-125.556	0.100	0.015
-725.894	800.000	-0.077	-0.241
-724.879	4.770	0.231	-0.170
-723.864	-200.000	-0.014	-0.072
-722.850	-200.000	0.016	-0.354
-721.835	800.000	0.069	0.266
-720.821	-200.000	0.028	0.272
-719.806	-147.768	-0.166	-0.014
-718.791	800.000	0.045	-0.127
-717.777	-2.952	0.139	0.097
-716.762	-200.000	0.040	-0.300
-715.748	-200.000	0.012	-0.230
-714.733	800.000	-0.059	0.250
-713.718	766.567	0.140	0.381
-712.704	-200.000	-0.031	0.221
-711.689	-94.063	-0.265	0.073
-710.675	-105.720	0.340	-0.077
-709.660	800.000	-0.078	-0.334
-708.645	50.047	-0.448	-0.423
-707.631	-28.728	0.148	-0.085
-706.616	-200.000	-0.006	-0.358
-705.602	800.000	0.057	0.161
-704.587	-75.718	-0.436	0.154
-703.572	747.606	0.067	0.181
-702.558	534.960	0.036	-0.085
-701.543	-167.082	0.286	0.012
-700.529	798.500	0.019	0.053
-699.514	171.967	-0.124	0.178
-698.499	-200.000	0.031	-0.160
-697.485	-12.583	-0.275	0.179
-696.470	-200.000	-0.004	-0.045
-695.456	496.027	-0.051	0.118
-694.441	-200.000	-0.042	0.203
-693.426	-195.397	-0.055	-0.000
-692.412	29.414	0.200	0.169
-691.397	401.041	-0.090	0.189
-690.383	800.000	0.030	0.124
-689.368	-56.633	-0.046	0.020
-688.354	-200.000	-0.025	-0.250
-687.339	166.314	-0.132	0.187
-686.324	-14.755	-0.017	-0.011
-685.310	508.874	-0.174	-0.404
-684.295	387.274	-0.132	0.272
-683.281	-30.472	0.078	-0.044
-682.266	231.494	0.133	0.218
-681.251	-200.000	0.035	0.589
-680.237	22.448	-0.147	-0.120
-679.222	-55.036	-0.160	0.072
-678.208	207.259	0.258	0.402
-677.193	170.701	0.033	0.047
-676.178	-200.000	-0.033	-0.143
-675.164	-182.070	-0.468	0.009
-674.149	-200.000	-0.018	0.129
-673.135	-65.481	-0.303	0.121
-672.120	96.151	0.115	-0.131
-671.105	-81.978	0.510	-0.166
-670.091	-58.882	-0.279	0.120
-669.076	-41.256	0.159	0.082
-668.062	-171.464	-0.188	-0.006
-667.047	247.844	0.097	-0.163
-666.032	40.883	0.134	-0.121
-665.018	148.847	-0.054	-0.073
-664.003	-200.000	0.001	0.144
-662.989	-6.500	-0.267	-0.181
-661.974	364.101	0.153	0.308
-660.959	23.527	-0.236	0.194
-659.945	348.805	0.106	0.208
-658.930	184.842	-0.219	-0.324
-657.916	90.442	-0.236	-0.264
-656.901	-69.464	-0.078	-0.030
-655.886	-200.000	0.012	-0.380
-654.872	-93.447	-0.280	0.077
-653.857	-200.000	-0.066	-0.563
-652.843	501.253	-0.097	0.223
-651.828	-28.382	0.118	-0.068
-650.814	800.000	0.047	-0.165
-649.799	-24.131	0.074	-0.044
-648.784	-200.000	-0.261	0.001
-647.770	-41.122	-0.212	-0.109
-646.755	800.000	-0.049	-0.165
-645.741	281.460	0.135	-0.240
-644.726	800.000	-0.086	0.242
-643.711	756.976	0.035	0.095
-642.697	-83.531	-0.036	0.011
-641.682	118.130	0.027	0.033
-640.668	-104.142	0.380	0.088
-639.653	-1.598	-0.113	-0.079
-638.638	322.040	-0.051	-0.097
-637.624	206.212	0.051	0.078
-636.609	-109.091	-0.161	0.034
-635.595	-200.000	0.034	-0.151
-634.580	-34.860	-0.073	-0.040
-633.565	132.973	0.386	0.497
-632.551	32.404	-0.101	-0.087
-631.536	117.114	-0.065	0.079
-630.522	-55.986	0.297	-0.132
-629.507	-135.706	0.036	0.004
-628.492	-160.997	-0.181	-0.009
-627.478	-200.000	-0.029	0.170
-626.463	-191.233	0.353	0.004
-625.449	-50.779	-0.216	-0.101
-624.434	-107.146	-0.249	-0.055
-623.419	-200.000	-0.010	-0.052
-622.405	77.097	0.093	0.099
-621.390	-45.406	-0.101	0.050
-620.376	800.000	-0.148	-0.467
-619.361	800.000	0.065	-0.218
-618.346	-98.728	-0.255	-0.065
-617.332	-48.505	-0.459	0.220
-616.317	96.706	-0.167	0.191
-615.303	-87.997	0.137	0.041
-614.288	376.935	0.057	0.115
-613.273	-87.850	0.120	0.036
-612.259	-200.000	0.025	-0.203
-611.244	77.390	0.244	0.258
-610.230	-39.168	0.137	-0.072
-609.215	409.385	-0.063	-0.134
-608.201	-200.000	-0.051	-0.259
-607.186	71.608	0.073	-0.075
-606.171	60.977	-0.331	0.327
-605.157	-94.303	0.139	0.038
-604.142	-146.605	-0.404	0.035
-603.128	-126.519	-0.027	0.004
-602.113	-38.642	0.195	0.103
-601.098	-200.000	0.034	-0.326
-600.084	-80.276	-0.154	-0.051
-599.069	-149.526	0.172	0.014
-598.055	800.000	-0.067	-0.199
-597.040	44.821	0.292	-0.267
-596.025	-12.822	0.086	-0.056
-595.011	-140.146	0.026	-0.003
-593.996	-5.188	-0.117	-0.080
-592.982	34.108	0.092	0.080
-591.967	-102.142	0.342	-0.082
-590.952	36.589	-0.229	-0.201
-589.938	800.000	0.088	0.258
-588.923	742.860	-0.129	-0.345
-587.909	800.000	-0.097	0.314
-586.894	25.846	-0.201	-0.166
-585.879	-83.236	0.079	0.025
-584.865	-200.000	-0.025	0.335
-583.850	-114.774	0.078	0.015
-582.836	228.829	0.028	0.045
-581.821	-200.000	0.002	-0.177
-580.806	-95.122	-0.176	-0.047
-579.792	373.073	0.117	0.236
-578.777	-33.668	0.250	-0.137
-577.763	-108.501	0.182	-0.039
-576.748	800.000	0.041	0.130
-575.733	-130.724	-0.094	-0.013
-574.719	81.264	0.140	0.150
-573.704	559.385	0.137	0.329
-572.690	34.245	0.196	-0.169
-571.675	-200.000	-0.010	-0.397
-570.661	257.550	-0.054	-0.093
-569.646	-200.000	-0.011	-0.204
-568.631	18.399	-0.315	0.250
-567.617	-65.992	0.216	0.086
-566.602	11.750	-0.077	-0.059
-565.588	-200.000	0.054	0.314
-564.573	703.292	0.047	-0.122
-563.558	800.000	0.082	0.276
-562.544	46.494	0.198	-0.183
-561.529	6.662	-0.118	0.087
-560.515	800.000	0.037	-0.154
-559.500	-119.778	-0.180	-0.031
-558.485	-53.025	-0.106	0.048
-557.471	179.128	-0.193	0.281
-556.456	800.000	-0.031	-0.086
-555.442	-23.989	0.240	0.143
-554.427	59.598	0.162	-0.159
-553.412	-200.000	0.014	0.108
-552.398	-97.873	-0.095	-0.024
-551.383	-21.140	-0.163	-0.099
-550.369	111.375	-0.162	0.194
-549.354	-100.839	-0.130	0.032
-548.339	41.091	0.128	0.114
-547.325	-200.000	0.046	-0.356
-546.310	81.287	0.144	0.154
-545.296	800.000	-0.035	0.101
-544.281	-86.575	-0.362	0.110
-543.266	233.279	0.135	-0.221
-542.252	-200.000	-0.007	0.207
-541.237	800.000	0.097	0.408
-540.223	60.978	-0.123	0.121
-539.208	-32.013	-0.090	0.050
-538.193	-200.000	-0.023	0.162
-537.179	16.130	-0.273	-0.214
-536.164	800.000	0.029	0.114
-535.150	-200.000	-0.064	0.351
-534.135	197.634	-0.181	-0.275
-533.121	-53.178	0.245	-0.111
-532.106	-52.687	0.133	-0.061
-531.091	54.377	-0.143	0.137
-530.077	303.112	0.059	0.109
-529.062	119.332	0.132	-0.162
-528.048	-200.000	-0.025	-0.120
-527.033	-84.589	0.264	-0.083
-526.018	-200.000	0.051	0.315
-525.004	-200.000	0.013	-0.192
-523.989	800.000	0.014	0.047
-522.975	-62.589	0.116	0.048
-521.960	-200.000	0.014	-0.404
-520.945	-177.955	-0.083	0.002
-519.931	58.610	0.252	0.246
-518.916	-92.985	0.197	-0.054
-517.902	-78.947	-0.052	0.018
-516.887	-53.651	-0.500	0.226
-515.872	479.347	-0.039	-0.088
-514.858	800.000	-0.029	0.098
-513.843	-200.000	-0.002	-0.187
-512.829	98.198	0.091	-0.104
-511.814	800.000	0.038	-0.118
-510.799	4.424	-0.057	0.041
-509.785	-200.000	0.033	-0.274
-508.770	618.956	0.200	0.499
-507.756	800.000	-0.092	0.399
-506.741	330.384	-0.055	0.106
-505.726	-200.000	0.020	0.449
-504.712	800.000	0.055	-0.234
-503.697	800.000	-0.110	0.409
-502.683	-200.000	-0.036	-0.224
-501.668	-64.691	-0.312	-0.125
-500.653	106.929	0.187	0.220
-499.639	160.377	-0.039	0.055
-498.624	-113.197	-0.048	0.009
-497.610	10.178	-0.180	-0.136
-496.595	50.694	-0.136	0.128
-495.581	269.730	0.092	0.160
-494.566	-72.491	-0.344	0.126
-493.551	191.902	-0.107	-0.159
-492.537	800.000	0.064	-0.204
-491.522	580.262	0.096	0.233
-490.508	-80.769	0.230	-0.076
-489.493	800.000	0.039	0.127
-488.478	-19.903	-0.055	0.034
-487.464	127.333	-0.082	-0.103
-486.449	9.044	-0.194	0.145
-485.435	58.218	0.079	-0.076
-484.420	-156.964	0.334	0.020
-483.405	-110.352	-0.094	-0.019
-482.391	29.865	-0.099	-0.084
-481.376	800.000	0.075	-0.320
-480.362	-79.225	0.199	0.067
-479.347	-200.000	-0.011	0.055
-478.332	53.753	-0.235	0.224
-477.318	158.423	0.324	-0.446
-476.303	-10.932	-0.110	0.072
-475.289	-117.183	-0.295	0.053
-474.274	474.857	0.130	-0.290
-473.259	-159.471	0.140	0.008
-472.245	558.677	-0.095	-0.227
-471.230	-86.448	0.193	-0.059
-470.216	-21.489	0.451	-0.272
-469.201	-45.483	-0.330	-0.162
-468.186	-26.649	0.040	-0.023
-467.172	295.595	-0.173	-0.314
-466.157	-200.000	-0.026	-0.176
-465.143	-161.358	0.171	-0.009
-464.128	-153.614	-0.228	-0.016
-463.113	92.354	-0.258	-0.288
-462.099	378.359	-0.210	-0.425
-461.084	-100.608	0.287	0.070
-460.070	262.369	-0.072	0.123
-459.055	283.755	0.114	0.203
-458.040	-11.662	-0.258	0.168
-457.026	107.602	0.142	0.167
-456.011	-200.000	-0.028	-0.182
-454.997	328.725	0.118	-0.224
-453.982	800.000	-0.042	-0.154
-452.968	103.750	-0.213	-0.248
-451.953	79.107	-0.020	0.021
-450.938	-69.872	-0.126	-0.047
-449.924	-105.524	-0.232	0.052
-448.909	153.366	-0.179	-0.242
-447.895	800.000	-0.096	0.283
-446.880	-29.473	0.275	0.155
-445.865	-139.223	-0.147	-0.016
-444.851	606.160	-0.063	-0.155
-443.836	-71.552	0.351	-0.130
-442.822	539.057	-0.074	0.174
-441.807	-92.378	0.080	0.022
-440.792	45.347	-0.221	0.201
-439.778	22.975	-0.249	0.202
-438.763	12.191	0.186	0.142
-437.749	1.296	0.241	-0.171
-436.734	-179.793	-0.133	-0.003
-435.719	436.736	0.053	0.114
-434.705	143.086	0.184	0.242
-433.690	-200.000	-0.019	0.185
-432.676	-200.000	0.020	-0.086
-431.661	800.000	-0.049	0.142
-430.646	489.665	0.068	0.153
-429.632	-200.000	-0.020	-0.349
-428.617	64.247	0.072	-0.072
-427.603	10.908	0.042	-0.032
-426.588	391.434	0.060	0.123
-425.573	-68.825	0.207	0.079
-424.559	-114.625	-0.302	0.057
-423.544	290.536	-0.201	0.360
-422.530	800.000	-0.042	-0.145
-421.515	-149.796	0.267	0.021
-420.500	800.000	0.058	0.175
-419.486	-200.000	-0.052	0.227
-418.471	-9.666	0.449	0.296
-417.457	232.762	-0.037	0.061
-416.442	-18.551	0.166	-0.102
-415.428	-84.472	0.073	-0.023
-414.413	-24.104	0.427	-0.252
-413.398	35.950	-0.131	-0.114
-412.384	780.284	0.072	-0.194
-411.369	-20.634	0.163	-0.099
-410.355	-79.337	0.167	-0.056
-409.340	-91.584	0.140	0.039
-408.325	-16.671	0.149	0.093
-407.311	-32.155	-0.161	-0.089
-406.296	453.421	-0.196	0.429
-405.282	10.765	0.157	0.118
-404.267	-40.906	-0.268	-0.137
-403.252	28.776	-0.181	-0.151
-402.238	53.911	-0.305	-0.290
-401.223	-200.000	-0.054	0.284
-400.209	64.734	-0.269	0.268
-399.194	-113.245	0.309	-0.060
-398.179	476.596	0.149	-0.333
-397.165	627.618	0.081	-0.202
-396.150	-200.000	-0.062	0.406
-395.136	185.867	0.110	-0.162
-394.121	-86.389	-0.126	-0.038
-393.106	398.800	0.144	-0.297
-392.092	-9.838	0.311	0.205
-391.077	800.000	-0.064	0.240
-390.063	150.683	0.080	-0.107
-389.048	25.331	0.211	0.173
-388.033	800.000	0.063	-0.231
-387.019	-52.657	0.525	0.239
-386.004	36.365	0.349	0.304
-384.990	-200.000	0.005	0.176
-383.975	-85.045	0.220	0.068
-382.960	-200.000	0.006	0.319
-381.946	800.000	0.089	-0.272
-380.931	9.409	0.005	0.004
-379.917	-104.115	-0.113	0.026
-378.902	-30.766	0.065	0.036
-377.888	800.000	0.033	-0.098
-376.873	772.132	-0.022	0.059
-375.858	219.138	-0.044	0.069
-374.844	-69.119	0.259	-0.098
-373.829	218.041	-0.185	0.291
-372.815	-200.000	-0.040	0.281
-371.800	-63.880	0.253	0.102
-370.785	600.128	0.043	-0.106
-369.771	18.893	-0.288	0.228
-368.756	46.800	-0.155	-0.142
-367.742	795.614	-0.099	0.268
-366.727	757.495	-0.033	0.088
-365.712	800.000	0.043	0.137
-364.698	-15.282	-0.223	-0.141
-363.683	672.509	0.087	-0.223
-362.669	117.918	-0.060	-0.073
-361.654	182.583	0.160	-0.232
-360.639	-200.000	0.071	-0.364
-359.625	-163.014	-0.314	0.015
-358.610	-120.532	-0.383	-0.064
-357.596	-100.038	0.384	0.094
-356.581	-130.688	0.321	0.043
-355.566	-196.076	-0.130	-0.001
-354.552	-87.283	0.098	-0.029
-353.537	-152.445	-0.130	-0.009
-352.523	26.465	-0.213	0.175
-351.508	800.000	0.107	0.372
-350.493	-18.334	-0.229	0.141
-349.479	-200.000	-0.035	0.336
-348.464	-200.000	0.004	-0.383
-347.450	34.319	0.186	-0.160
-346.435	6.587	0.209	-0.153
-345.420	220.836	-0.224	-0.355
-344.406	-36.335	0.143	-0.076
-343.391	-98.323	-0.226	-0.057
-342.377	-103.797	0.093	-0.021
-341.362	298.776	-0.040	0.073
-340.348	400.190	-0.155	0.320
-339.333	-28.392	0.280	-0.159
-338.318	800.000	0.043	-0.126
-337.304	70.968	-0.048	0.049
-336.289	69.236	0.052	0.052
-335.275	9.927	-0.153	-0.115
-334.260	151.926	-0.201	0.270
-333.245	20.313	-0.363	-0.289
-332.231	-92.296	-0.331	-0.092
-331.216	-200.000	0.049	0.253
-330.202	-11.617	-0.395	-0.256
-329.187	-149.786	-0.381	-0.029
-328.172	-116.172	-0.415	-0.076
-327.158	800.000	-0.096	0.278
-326.143	580.234	0.066	-0.159
-325.129	-200.000	0.003	0.257
-324.114	90.796	0.120	0.133
-323.099	-35.057	-0.103	0.055
-322.085	-200.000	0.005	-0.372
-321.070	18.123	0.139	-0.109
-320.056	414.519	0.083	0.175
-319.041	344.254	-0.074	0.143
-318.026	-21.461	0.114	-0.068
-317.012	-117.456	0.171	0.030
-315.997	800.000	-0.047	-0.184
-314.983	-58.466	-0.144	0.061
-313.968	30.800	-0.064	-0.054
-312.953	320.658	-0.069	0.129
-311.939	22.684	-0.038	-0.031
-310.924	277.506	0.030	0.052
-309.910	-189.405	0.255	-0.003
-308.895	800.000	-0.050	-0.205
-307.880	-8.938	0.246	0.162
-306.866	-200.000	0.041	-0.355
-305.851	-43.179	-0.180	0.090
-304.837	800.000	-0.024	0.072
-303.822	122.152	0.257	0.315
-302.807	121.146	-0.072	-0.088
-301.793	34.252	-0.183	0.157
-300.778	-117.789	-0.171	0.030
-299.764	531.554	0.104	-0.241
-298.749	-131.879	0.264	0.034
-297.735	800.000	-0.081	-0.304
-296.720	46.956	0.238	-0.217
-295.705	-90.815	-0.237	0.067
-294.691	-200.000	0.008	-0.460
-293.676	-200.000	0.018	-0.161
-292.662	-140.875	0.229	-0.023
-291.647	800.000	-0.106	-0.337
-290.632	-104.378	0.072	0.016
-289.618	-151.638	0.186	-0.013
-288.603	-200.000	-0.045	-0.307
-287.589	21.625	0.133	-0.106
-286.574	504.280	0.078	0.177
-285.559	252.692	0.141	-0.236
-284.545	133.407	0.075	0.095
-283.530	30.128	0.012	0.010
-282.516	-83.822	0.391	0.123
-281.501	162.505	0.160	0.221
-280.486	-200.000	-0.009	-0.050
-279.472	207.025	-0.141	-0.216
-278.457	208.897	-0.076	0.117
-277.443	78.933	-0.009	0.009
-276.428	-43.366	-0.076	-0.038
-275.413	5.649	-0.257	-0.187
-274.399	-197.881	0.303	-0.002
-273.384	419.546	0.093	-0.195
-272.370	-34.885	0.386	-0.207
-271.355	-61.343	-0.218	-0.090
-270.340	24.948	-0.230	0.187
-269.326	78.834	0.051	0.054
-268.311	-96.598	0.248	0.064
-267.297	-95.140	-0.480	0.127
-266.282	-22.487	-0.199	-0.118
-265.267	62.933	-0.146	0.144
-264.253	-152.895	-0.133	0.009
-263.238	300.322	-0.187	-0.338
-262.224	-54.309	-0.175	0.078
-261.209	48.269	0.219	-0.201
-260.195	24.770	-0.478	-0.389
-259.180	-159.661	0.222	0.012
-258.165	-77.544	-0.189	-0.064
-257.151	-144.157	0.378	-0.035
-256.136	-200.000	-0.018	0.159
-255.122	-200.000	0.101	0.581
-254.107	231.943	-0.070	0.113
-253.092	-35.412	0.411	0.219
-252.078	-200.000	0.005	0.105
-251.063	139.535	0.170	-0.220
-250.049	-97.276	0.229	-0.059
-249.034	222.462	0.043	-0.068
-248.019	152.080	-0.116	-0.155
-247.005	19.149	-0.243	-0.191
-245.990	73.311	-0.255	-0.262
-244.976	-140.831	0.188	0.019
-243.961	413.066	0.085	0.176
-242.946	157.166	-0.080	0.109
-241.932	-6.718	-0.123	-0.082
-240.917	-200.000	-0.024	-0.148
-239.903	-72.106	0.251	0.091
-238.888	-127.811	-0.240	0.034
-237.873	419.409	0.087	0.182
-236.859	800.000	0.109	0.336
-235.844	40.414	0.186	-0.164
-234.830	231.599	-0.051	-0.082
-233.815	-200.000	0.013	0.217
-232.800	800.000	-0.093	-0.269
-231.786	73.151	0.191	-0.196
-230.771	-24.937	0.206	0.120
-229.757	-200.000	-0.011	0.098
-228.742	45.258	-0.071	0.064
-227.727	509.105	-0.103	-0.234
-226.713	800.000	0.055	-0.226
-225.698	-200.000	0.044	0.232
-224.684	608.870	0.114	0.278
-223.669	-200.000	0.013	0.410
-222.655	-147.031	0.137	0.011
-221.640	-33.326	0.316	-0.171
-220.625	800.000	-0.154	0.422
-219.611	-27.391	-0.404	0.231
-218.596	489.079	-0.027	-0.060
-217.582	87.575	0.104	0.113
-216.567	-24.721	-0.220	0.128
-215.552	204.759	0.057	-0.086
-214.538	-113.477	-0.413	0.079
-213.523	69.078	0.380	0.383
-212.509	-120.230	-0.200	-0.034
-211.494	320.388	-0.117	0.218
-210.479	-200.000	0.025	-0.269
-209.465	27.135	-0.168	-0.139
-208.450	-175.828	-0.390	-0.010
-207.436	76.511	0.087	0.090
-206.421	-42.675	-0.182	-0.091
-205.406	-200.000	0.014	-0.380
-204.392	-32.495	0.306	-0.167
-203.377	2.043	0.073	-0.052
-202.363	81.061	0.101	-0.106
-201.348	-43.235	-0.151	0.075
-200.333	-137.286	0.048	0.005
-199.319	-95.215	-0.671	0.177
-198.304	-50.533	-0.196	-0.091
-197.290	-200.000	-0.038	-0.254
-196.275	504.073	-0.069	0.156
-195.260	-200.000	0.014	-0.404
-194.246	-12.588	0.310	0.198
-193.231	-200.000	-0.002	0.084
-192.217	248.399	0.117	0.195
-191.202	800.000	0.027	0.105
-190.187	-91.416	0.192	0.054
-189.173	-57.189	0.105	0.045
-188.158	353.131	-0.144	0.280
-187.144	305.411	0.042	0.076
-186.129	38.829	0.063	0.055
-185.114	-200.000	0.048	0.285
-184.100	-13.783	-0.238	0.151
-183.085	228.840	-0.100	-0.160
-182.071	800.000	-0.023	-0.066
-181.056	-200.000	-0.012	-0.177
-180.042	-130.935	0.148	-0.019
-179.027	800.000	0.082	0.289
-178.012	-200.000	-0.001	-0.056
-176.998	52.812	-0.158	-0.148
-175.983	-200.000	0.018	-0.239
-174.969	-59.948	0.144	-0.060
-173.954	-107.775	0.307	0.065
-172.939	-13.188	-0.388	-0.247
-171.925	333.781	0.135	0.255
-170.910	-117.167	0.088	-0.016
-169.896	109.617	0.245	-0.287
-168.881	800.000	-0.101	-0.289
-167.866	17.661	-0.014	0.011
-166.852	-20.877	-0.210	0.126
-165.837	-90.399	-0.105	-0.030
-164.823	638.757	0.055	-0.136
-163.808	-47.828	0.145	0.069
-162.793	-200.000	-0.048	0.246
-161.779	-143.448	0.140	0.013
-160.764	800.000	-0.068	0.209
-159.750	557.066	0.062	-0.145
-158.735	-161.396	0.212	-0.011
-157.720	7.976	-0.199	0.146
-156.706	-108.445	-0.195	-0.041
-155.691	-18.683	0.190	0.116
-154.677	690.572	0.097	-0.249
-153.662	-150.517	-0.304	0.023
-152.647	-64.258	0.116	-0.046
-151.633	270.677	0.110	-0.189
-150.618	-85.916	0.380	-0.115
-149.604	311.693	-0.197	-0.361
-148.589	260.160	0.220	-0.372
-147.574	283.478	0.068	0.119
-146.560	-52.594	0.538	0.243
-145.545	-163.241	-0.091	-0.004
-144.531	318.040	0.113	0.209
-143.516	64.672	0.291	-0.286
-142.502	800.000	0.055	0.172
-141.487	72.759	-0.030	0.031
-140.472	-28.573	-0.113	0.063
-139.458	192.784	-0.055	0.082
-138.443	52.358	0.073	0.068
-137.429	181.329	-0.167	-0.239
-136.414	490.310	0.023	-0.052
-135.399	89.357	0.093	0.101
-134.385	-29.816	0.288	0.161
-133.370	-65.158	0.213	-0.084
-132.356	800.000	0.150	0.418
-131.341	-200.000	0.036	-0.169
-130.326	-87.913	0.458	0.134
-129.312	-117.446	0.100	-0.018
-128.297	-200.000	-0.043	-0.398
-127.283	137.172	-0.097	-0.124
-126.268	540.428	0.187	0.435
-125.253	638.173	0.116	0.289
-124.239	-200.000	-0.007	0.123
-123.224	77.605	-0.154	0.160
-122.210	425.320	0.038	-0.079
-121.195	-26.598	-0.085	0.049
-120.180	-9.833	0.277	0.180
-119.166	86.455	-0.108	-0.116
-118.151	415.514	0.073	-0.153
-117.137	181.636	-0.199	0.286
-116.122	171.852	0.185	-0.260
-115.107	755.579	0.085	0.224
-114.093	-144.146	0.120	-0.011
-113.078	-121.309	-0.116	-0.019
-112.064	-36.112	-0.171	-0.090
-111.049	132.612	-0.089	-0.112
-110.034	245.872	-0.081	0.134
-109.020	212.791	-0.194	-0.299
-108.005	21.872	-0.108	-0.086
-106.991	194.657	0.125	-0.184
-105.976	-77.493	0.243	0.082
-104.962	118.190	-0.051	0.062
-103.947	800.000	0.020	0.056
-102.932	-53.714	0.189	-0.084
-101.918	85.394	-0.030	0.032
-100.903	-200.000	-0.017	0.349
-99.889	-114.720	-0.182	0.034
-98.874	-200.000	-0.036	0.193
-97.859	-30.192	-0.092	-0.051
-96.845	-124.728	0.195	-0.029
-95.830	-178.318	0.273	-0.006
-94.816	-111.356	-0.085	0.017
-93.801	-12.739	-0.289	0.184
-92.786	78.659	-0.089	-0.092
-91.772	289.166	-0.183	0.324
-90.757	7.893	0.334	0.244
-89.743	362.679	-0.078	0.152
-88.728	800.000	0.045	-0.179
-87.713	238.191	-0.110	0.177
-86.699	9.939	0.113	-0.084
-85.684	107.218	0.148	0.172
-84.670	-9.840	-0.023	-0.015
-83.655	71.312	-0.212	0.214
-82.640	60.331	-0.042	0.040
-81.626	-200.000	0.030	0.325
-80.611	-24.493	0.050	-0.029
-79.597	712.707	-0.063	-0.163
-78.582	-85.600	-0.206	-0.062
-77.567	-78.905	0.343	0.114
-76.553	55.933	0.033	-0.031
-75.538	756.717	-0.140	-0.369
-74.524	-200.000	-0.016	0.270
-73.509	132.509	0.048	-0.060
-72.494	-25.374	0.028	0.016
-71.480	116.177	0.123	0.147
-70.465	-200.000	0.178	-0.000
-69.451	18.398	-0.022	-0.017
-68.436	227.441	-0.036	0.057
-67.422	-31.093	0.240	0.132
-66.407	164.100	0.086	0.117
-65.392	-135.713	-0.143	0.016
-64.378	-200.000	0.029	-0.244
-63.363	157.783	-0.259	0.350
-62.349	-200.000	0.022	0.297
-61.334	206.629	-0.909	-1.379
-60.319	380.056	0.556	1.110
-59.305	800.000	-0.332	-1.131
-58.290	106.373	0.778	0.899
-57.276	638.185	0.660	1.634
-56.261	-200.000	123.209	662.142
-55.246	442.650	1546.129	3298.515
-54.232	147.623	2694.313	3535.151
-53.217	97.068	2160.658	2413.183
-52.203	34.067	1685.546	1430.064
-51.188	26.605	1505.440	1226.873
-50.173	24.685	1481.818	1194.752
-49.159	49.184	1551.777	1420.009
-48.144	46.184	1565.175	1411.647
-47.130	26.776	1514.390	1235.133
-46.115	23.871	1498.418	1202.443
-45.100	23.735	1494.433	1198.281
-44.086	23.641	1493.066	1196.502
-43.071	23.601	1491.300	1194.767
-42.057	23.591	1489.453	1193.178
-41.042	23.569	1488.384	1192.124
-40.027	23.588	1486.815	1190.950
-39.013	23.580	1485.345	1189.669
-37.998	23.536	1484.248	1188.448
-36.984	23.645	1482.302	1187.576
-35.969	23.531	1481.558	1186.165
-34.954	23.591	1479.823	1185.133
-33.940	23.623	1477.944	1183.795
-32.925	23.548	1477.127	1182.590
-31.911	23.626	1475.598	1181.837
-30.896	23.661	1474.562	1181.194
-29.881	23.687	1473.577	1180.535
-28.867	23.688	1471.684	1178.976
-27.852	23.623	1470.640	1177.662
-26.838	23.660	1469.143	1176.659
-25.823	23.690	1467.572	1175.557
-24.809	23.678	1465.692	1173.925
-23.794	23.682	1464.039	1172.580
-22.779	23.631	1463.289	1171.594
-21.765	23.585	1462.518	1170.631
-20.750	23.784	1460.658	1170.404
-19.736	23.573	1460.364	1168.733
-18.721	23.610	1459.048	1167.877
-17.706	23.576	1458.140	1166.879
-16.692	23.586	1456.230	1165.371
-15.677	23.616	1455.949	1165.295
-14.663	23.548	1455.503	1164.447
-13.648	23.674	1453.872	1163.922
-12.633	23.619	1453.334	1163.086
-11.619	23.536	1452.707	1161.991
-10.604	23.587	1451.434	1161.259
-9.590	23.551	1450.880	1160.537
-8.575	23.628	1449.934	1160.239
-7.560	23.646	1449.009	1159.572
-6.546	23.575	1448.071	1158.308
-5.531	23.575	1447.209	1157.571
-4.517	23.715	1445.698	1157.233
-3.502	23.688	1445.116	1156.544
-2.487	23.595	1444.274	1155.218
-1.473	23.613	1443.309	1154.518
-0.458	23.601	1442.086	1153.419
0.556	21.929	1431.827	1141.619
1.571	18.701	1407.966	1101.814
2.586	15.252	1347.337	1033.051
3.600	13.729	1265.043	961.053
4.615	12.833	1221.862	923.148
5.629	11.106	1166.265	871.825
6.644	5.599	1086.012	784.244
7.659	1.050	1049.504	735.759
8.673	0.300	1044.832	728.794
9.688	0.112	1041.506	725.502
10.702	0.121	1040.104	724.502
11.717	0.147	1037.497	722.752
12.731	2.058	1038.823	732.791
13.746	8.309	1046.928	768.614
14.761	14.550	1055.291	804.887
15.775	16.701	1057.495	816.885
16.790	16.509	1055.915	814.668
17.804	15.369	1054.223	807.802
18.819	14.653	1052.117	802.677
19.834	14.235	1050.932	799.692
20.848	13.982	1049.741	797.501
21.863	13.796	1048.834	795.848
22.877	13.438	1048.402	793.737
23.892	13.213	1047.906	792.213
24.907	13.192	1046.734	791.157
25.921	13.239	1045.701	790.529
26.936	13.269	1045.423	790.390
27.950	13.284	1044.662	789.819
28.965	13.394	1043.947	789.732
29.980	13.292	1043.248	788.649
30.994	13.370	1042.408	788.313
32.009	13.471	1041.165	787.787
33.023	13.512	1040.797	787.632
34.038	13.525	1040.110	787.106
35.053	13.436	1039.179	785.907
36.067	13.497	1038.122	785.329
37.082	13.361	1037.153	783.883
38.096	13.468	1036.213	783.610
39.111	13.472	1035.587	783.083
40.126	13.406	1034.686	782.021
41.140	13.325	1033.823	780.919
42.155	13.266	1032.885	779.863
43.169	13.289	1032.158	779.353
44.184	13.156	1031.130	777.882
45.199	13.354	1029.664	777.636
46.213	13.268	1029.292	776.881
47.228	13.150	1028.340	775.540
48.242	13.358	1026.485	775.051
49.257	13.341	1026.481	774.897
50.271	13.414	1025.078	774.113
51.286	13.376	1024.245	773.235
52.301	13.538	1023.058	773.029
53.315	13.428	1022.596	772.097
54.330	13.411	1021.447	771.082
55.344	13.213	1021.147	769.863
56.359	13.264	1020.120	769.262
57.374	13.277	1019.120	768.496
58.388	13.315	1017.927	767.705
59.403	13.369	1017.255	767.385
60.417	13.303	1016.779	766.651
61.432	13.251	1015.770	765.580
62.447	13.271	1015.082	765.084
63.461	13.200	1014.380	764.161
64.476	13.140	1013.576	763.212
65.490	13.185	1012.519	762.554
66.505	13.235	1011.475	761.931
67.520	13.281	1010.967	761.694
68.534	13.177	1010.444	760.756
69.549	13.240	1009.371	760.167
70.563	13.376	1008.465	760.044
71.578	13.343	1008.152	759.589
72.593	13.191	1007.464	758.305
73.607	13.234	1006.384	757.621
74.622	13.126	1005.494	756.390
75.636	13.138	1004.930	755.957
76.651	13.286	1003.045	755.144
77.666	13.145	1002.940	754.355
78.680	13.104	1002.557	753.814
79.695	13.131	1002.133	753.551
80.709	13.246	1001.559	753.576
81.724	13.220	1000.465	752.569
82.739	13.278	999.761	752.239
83.753	13.300	998.851	751.587
84.768	13.270	998.457	751.089
85.782	13.504	997.490	751.356
86.797	13.555	996.329	750.646
87.812	13.504	995.708	749.881
88.826	13.428	994.902	748.861
89.841	13.415	994.291	748.279
90.855	13.328	993.522	747.239
91.870	13.427	992.839	747.108
92.884	13.538	991.579	746.593
93.899	13.625	990.908	746.415
94.914	13.428	990.719	745.316
95.928	13.587	989.653	745.165
96.943	13.556	989.095	744.539
97.957	13.541	987.921	743.523
98.972	13.457	987.666	742.888
99.987	13.508	986.426	742.117
101.001	13.540	985.950	741.837
102.016	13.525	985.031	741.013
103.030	13.482	984.225	740.150
104.045	13.644	983.294	740.108
105.060	13.582	982.371	739.071
106.074	13.501	981.201	737.767
107.089	13.421	980.747	737.002
108.103	13.182	980.332	735.559
109.118	13.341	978.772	735.032
110.133	13.433	977.928	734.740
111.147	13.401	977.130	733.935
112.162	13.330	976.575	733.138
113.176	13.376	975.465	732.442
114.191	13.376	975.060	732.074
115.206	13.348	974.197	731.241
116.220	13.371	973.101	730.452
117.235	13.470	972.045	730.032
118.249	13.464	971.124	729.250
119.264	13.381	970.789	728.566
120.279	13.405	969.767	727.841
121.293	13.430	968.741	727.118
122.308	13.390	968.334	726.573
123.322	13.307	967.399	725.443
124.337	13.365	966.079	724.644
125.352	13.369	965.346	724.046
126.366	13.272	964.058	722.593
127.381	13.387	962.855	722.129
128.395	13.274	962.659	721.426
129.410	13.357	960.683	720.241
130.424	13.254	960.340	719.474
131.439	13.440	959.420	719.528
132.454	13.271	958.647	718.149
133.468	13.465	957.635	718.170
134.483	13.475	957.253	717.864
135.497	13.397	956.752	717.087
136.512	13.447	955.848	716.559
137.527	13.418	955.004	715.741
138.541	13.409	954.150	714.997
139.556	13.587	953.183	714.977
140.570	13.410	952.860	713.909
141.585	13.622	951.947	714.075
142.600	13.518	951.635	713.332
143.614	13.517	950.754	712.603
144.629	13.501	950.191	712.048
145.643	13.602	949.413	711.836
146.658	13.553	948.846	711.139
147.673	13.461	947.676	709.805
148.687	13.602	946.444	709.420
149.702	13.544	945.671	708.534
150.716	13.631	944.512	707.974
151.731	13.484	944.180	707.034
152.746	13.551	943.385	706.663
153.760	13.587	942.413	706.023
154.775	13.451	941.848	704.960
155.789	13.670	941.096	705.266
156.804	13.603	940.327	704.344
157.819	13.538	939.886	703.671
158.833	13.685	939.112	703.655
159.848	13.744	938.573	703.438
160.862	13.677	938.167	702.789
161.877	13.761	937.040	702.238
162.892	13.731	936.183	701.407
163.906	13.669	935.150	700.311
164.921	13.742	934.266	699.894
165.935	13.626	933.384	698.683
166.950	13.569	932.629	697.813
167.964	13.708	931.812	697.726
168.979	13.574	931.040	696.521
169.994	13.807	929.520	696.300
171.008	13.640	929.102	695.226
172.023	13.676	928.365	694.766
173.037	13.819	927.242	694.461
174.052	13.812	926.630	693.913
175.067	13.867	926.041	693.640
176.081	13.811	924.910	692.499
177.096	13.662	924.494	691.502
178.110	13.763	923.646	691.230
179.125	13.838	922.293	690.468
180.140	13.700	922.084	689.675
181.154	13.783	921.229	689.319
182.169	13.707	921.047	688.809
183.183	13.877	920.321	688.907
184.198	13.838	919.797	688.295
185.213	13.933	918.814	687.891
186.227	13.983	917.910	687.361
187.242	14.058	917.602	687.380
188.256	14.041	916.920	686.736
189.271	14.112	916.112	686.363
190.286	14.023	915.513	685.488
191.300	13.862	914.731	684.178
192.315	13.827	914.090	683.493
193.329	13.845	913.212	682.851
194.344	13.946	912.869	682.948
195.359	13.917	912.021	682.135
196.373	13.875	911.733	681.686
197.388	14.074	910.808	681.749
198.402	14.129	910.706	681.840
199.417	14.080	909.986	681.040
200.432	14.082	909.760	680.817
201.446	14.200	909.157	680.789
202.461	14.160	908.914	680.382
203.475	14.301	907.994	680.210
204.490	14.224	907.801	679.690
205.504	14.271	906.831	679.098
206.519	14.229	905.697	678.015
207.534	14.302	905.108	677.813
208.548	14.282	904.343	677.097
209.563	14.235	903.690	676.358
210.577	14.202	902.910	675.583
211.592	14.205	902.479	675.212
212.607	14.339	901.665	675.085
213.621	14.456	901.120	675.093
214.636	14.360	900.664	674.301
215.650	14.326	899.926	673.552
216.665	14.373	899.178	673.123
217.680	14.406	898.696	672.835
218.694	14.446	898.157	672.532
219.709	14.447	897.872	672.264
220.723	14.555	896.863	671.885
221.738	14.373	896.657	670.940
222.753	14.453	895.552	670.374
223.767	14.339	895.337	669.694
224.782	14.431	894.166	669.129
225.796	14.582	893.444	669.137
226.811	14.454	892.986	668.220
227.826	14.683	892.056	668.382
228.840	14.585	891.550	667.550
229.855	14.632	890.529	666.915
230.869	14.572	890.233	666.395
231.884	14.578	889.796	666.032
232.899	14.589	888.501	665.049
233.913	14.506	888.222	664.450
234.928	14.493	887.632	663.899
235.942	14.527	886.941	663.459
236.957	14.527	886.554	663.109
237.972	14.479	885.760	662.267
238.986	14.580	885.025	662.059
240.001	14.549	884.375	661.392
241.015	14.585	883.754	661.011
242.030	14.618	882.824	660.388
243.045	14.647	882.349	660.090
244.059	14.711	881.894	659.942
245.074	14.633	881.016	658.921
246.088	14.682	880.551	658.709
247.103	14.724	879.814	658.263
248.117	14.666	879.437	657.694
249.132	14.817	878.811	657.762
250.147	14.786	878.382	657.263
251.161	14.990	877.672	657.474
252.176	15.038	876.794	656.947
253.190	14.979	876.366	656.337
254.205	15.039	875.676	655.996
255.220	15.004	875.014	655.305
256.234	15.104	874.067	654.931
257.249	15.157	873.433	654.603
258.263	15.060	873.302	654.066
259.278	15.052	872.995	653.749
260.293	15.003	872.480	653.115
261.307	15.223	871.220	652.970
262.322	15.176	870.777	652.398
263.336	15.113	870.562	651.933
264.351	15.162	869.377	651.180
265.366	15.218	868.967	651.031
266.380	15.310	868.115	650.692
267.395	15.455	867.371	650.641
268.409	15.254	867.083	649.589
269.424	15.308	866.052	648.968
270.439	15.374	865.501	648.750
271.453	15.212	864.716	647.478
272.468	15.156	864.078	646.728
273.482	15.278	863.647	646.818
274.497	15.285	862.900	646.230
275.512	15.378	861.917	645.796
276.526	15.378	861.367	645.327
277.541	15.399	860.713	644.857
278.555	15.448	860.256	644.650
279.570	15.344	859.647	643.736
280.585	15.328	859.536	643.533
281.599	15.333	858.760	642.914
282.614	15.457	857.941	642.718
283.628	15.355	857.413	641.878
284.643	15.433	856.995	641.806
285.657	15.372	856.501	641.147
286.672	15.686	855.810	641.769
287.687	15.471	855.455	640.629
288.701	15.457	854.807	640.033
289.716	15.432	854.180	639.411
290.730	15.458	853.984	639.308
291.745	15.651	852.924	639.190
292.760	15.616	852.121	638.400
293.774	15.604	851.794	638.052
294.789	15.606	851.341	637.664
295.803	15.648	850.467	637.111
296.818	15.665	849.882	636.683
297.833	15.656	849.502	636.307
298.847	15.616	848.815	635.584
299.862	15.698	847.579	634.914
300.876	15.793	847.171	634.911
301.891	15.788	846.474	634.311
302.906	15.830	845.852	633.949
303.920	15.850	845.137	633.430
304.935	15.937	844.541	633.255
305.949	15.901	843.910	632.591
306.964	15.766	843.718	631.884
307.979	15.896	842.605	631.484
308.993	15.878	842.555	631.322
310.008	16.021	841.454	630.975
311.022	16.065	841.018	630.758
312.037	15.867	840.876	629.855
313.052	15.940	840.261	629.612
314.066	15.794	839.800	628.664
315.081	15.917	838.914	628.406
316.095	15.867	838.716	628.015
317.110	15.882	837.958	627.449
318.125	15.928	837.607	627.299
319.139	15.969	836.703	626.719
320.154	15.937	836.548	626.430
321.168	15.952	836.109	626.103
322.183	15.983	835.251	625.518
323.197	15.938	835.127	625.204
324.212	16.072	834.191	624.943
325.227	16.038	833.664	624.370
326.241	16.072	833.324	624.183
327.256	15.963	832.993	623.479
328.270	16.119	831.568	622.931
329.285	15.945	831.603	622.261
330.300	16.081	831.123	622.347
331.314	16.142	830.505	622.057
332.329	16.118	829.690	621.300
333.343	16.047	829.555	620.885
334.358	16.180	828.934	620.855
335.373	16.224	828.550	620.672
336.387	16.220	827.829	620.064
337.402	16.349	826.713	619.645
338.416	16.189	826.685	618.982
339.431	16.178	826.246	618.558
340.446	16.324	825.507	618.485
341.460	16.418	824.986	618.385
342.475	16.469	824.359	618.048
343.489	16.391	824.062	617.484
344.504	16.545	823.049	617.232
345.519	16.453	822.766	616.631
346.533	16.619	821.986	616.595
347.548	16.539	821.841	616.140
348.562	16.463	821.538	615.582
349.577	16.436	820.857	614.919
350.592	16.368	820.498	614.348
351.606	16.533	820.018	614.536
352.621	16.458	819.433	613.771
353.635	16.329	819.378	613.205
354.650	16.527	818.911	613.521
355.665	16.526	818.339	613.035
356.679	16.693	817.607	613.037
357.694	16.664	817.163	612.543
358.708	16.488	816.840	611.612
359.723	16.577	816.117	611.337
360.738	16.423	815.677	610.397
361.752	16.615	814.888	610.446
362.767	16.553	814.703	610.028
363.781	16.632	814.273	609.937
364.796	16.727	813.627	609.742
365.810	16.772	813.344	609.640
366.825	16.876	813.123	609.793
367.840	16.789	812.812	609.194
368.854	16.809	812.404	608.903
369.869	16.865	811.750	608.563
370.883	16.935	810.988	608.187
371.898	16.791	810.576	607.309
372.913	16.879	810.084	607.200
373.927	16.877	809.085	606.392
374.942	16.949	808.728	606.328
375.956	17.025	807.890	605.917
376.971	17.039	807.429	605.569
377.986	16.829	807.156	604.561
379.000	16.967	807.102	604.959
380.015	16.959	806.362	604.324
381.029	17.154	805.279	604.150
382.044	17.185	804.747	603.808
383.059	17.131	804.448	603.339
384.073	17.183	804.010	603.143
385.088	17.079	803.461	602.308
386.102	17.036	802.948	601.715
387.117	16.879	802.464	600.745
388.132	17.120	801.664	600.946
389.146	17.180	801.205	600.763
390.161	17.025	801.320	600.244
391.175	17.193	800.770	600.376
392.190	17.160	800.497	600.001
393.205	17.128	799.898	599.385
394.219	17.218	799.540	599.382
395.234	17.132	799.067	598.672
396.248	17.268	798.326	598.540
397.263	17.211	797.828	597.914
398.278	17.087	797.555	597.221
399.292	17.210	796.876	597.092
400.307	17.078	796.960	596.638
401.321	17.205	796.408	596.619
402.336	17.092	796.140	595.966
403.350	17.134	795.852	595.845
404.365	17.191	795.121	595.447
405.380	17.360	794.671	595.647
406.394	17.338	794.251	595.203
407.409	17.433	793.562	594.967
408.423	17.572	792.816	594.841
409.438	17.409	792.659	594.102
410.453	17.581	792.252	594.345
411.467	17.637	791.698	594.070
412.482	17.462	791.379	593.170
413.496	17.655	790.689	593.272
414.511	17.582	790.612	592.905
415.526	17.585	790.190	592.549
416.540	17.583	789.644	592.078
417.555	17.629	789.391	591.997
418.569	17.511	788.884	591.153
419.584	17.743	787.966	591.220
420.599	17.675	787.965	590.930
421.613	114.148	1297.243	1487.968
422.628	98.084	1371.403	1488.060
