DTS Sentinel unit serial number:	SN413079Multiplexer serial number:	ORYXHardware model number:	OX4-SRSoftware version number:	ORYX F/W v4.00 Oryx Data Collector v3.7.2.0data status	okinstallation	princeton_trtdifferential loss correction	single-endedforward channel	channel 3reverse channel	N/Adate	2019/09/13time	06:40:35forward acquisition time	60.00reverse acquisition time	0.00gamma	496.2192k internal	0.2339k external	0.2339temperature offset calibration	1.0134default loss term (dB/km)	0.3790temperature slope calibration	1.0000multiplexer offset coefficient	1.0000multiplexer slope coefficient	1.0000fibre end	0.00T internal ref (°C)	26.02T ext. ref 1 (°C)	4.09T ext. ref 2 (°C)	20.66length (m)	temperature (°C)	Stokes	anti-Stokes-747.200	-143.270	-0.241	-0.023
-746.185	-142.001	0.295	0.029
-745.171	-200.000	-0.007	-0.148
-744.156	800.000	0.094	0.283
-743.142	444.918	-0.107	-0.235
-742.127	-105.661	-0.302	0.069
-741.112	800.000	-0.061	0.233
-740.098	576.544	-0.186	0.456
-739.083	-57.430	0.280	-0.123
-738.069	410.578	-0.113	0.240
-737.054	-87.281	-0.227	-0.069
-736.039	172.981	-0.091	0.131
-735.025	800.000	0.058	0.164
-734.010	-154.831	-0.135	0.009
-732.996	-200.000	-0.030	-0.294
-731.981	138.932	0.273	-0.360
-730.966	-200.000	-0.002	0.256
-729.952	-49.317	-0.278	0.133
-728.937	-150.978	-0.379	0.029
-727.923	699.903	-0.034	-0.091
-726.908	0.714	-0.285	0.205
-725.894	-52.532	-0.211	-0.098
-724.879	-158.187	-0.127	0.007
-723.864	-185.250	-0.378	0.006
-722.850	-54.113	-0.048	-0.022
-721.835	377.628	-0.138	-0.283
-720.821	8.796	-0.447	-0.338
-719.806	-146.626	0.240	0.021
-718.791	-88.119	-0.235	-0.071
-717.777	-33.351	-0.143	-0.080
-716.762	399.689	-0.080	0.168
-715.748	224.697	-0.024	0.038
-714.733	-177.313	0.290	0.007
-713.718	-114.321	-0.084	0.016
-712.704	177.609	0.115	0.169
-711.689	-200.000	0.009	0.070
-710.675	89.271	0.111	0.124
-709.660	-168.007	-0.255	-0.010
-708.645	-101.643	-0.184	0.045
-707.631	-47.383	0.185	-0.090
-706.616	619.781	-0.042	-0.105
-705.602	-8.561	0.167	-0.112
-704.587	-34.099	0.185	0.102
-703.572	-65.385	-0.212	0.085
-702.558	526.538	-0.033	0.079
-701.543	-122.721	-0.141	0.023
-700.529	800.000	0.021	-0.077
-699.514	71.007	-0.177	-0.183
-698.499	-121.288	0.064	-0.011
-697.485	593.266	0.044	-0.110
-696.470	-25.535	0.124	0.073
-695.456	-61.930	0.445	-0.186
-694.441	-77.929	0.467	-0.161
-693.426	98.703	-0.048	0.055
-692.412	177.311	-0.107	0.157
-691.397	217.908	0.157	-0.250
-690.383	-68.137	0.090	-0.035
-689.368	800.000	0.117	0.404
-688.354	108.100	0.153	0.182
-687.339	-95.898	-0.275	0.073
-686.324	182.982	0.234	-0.346
-685.310	386.671	-0.025	-0.052
-684.295	518.818	0.041	-0.096
-683.281	800.000	-0.104	0.342
-682.266	-84.675	-0.371	0.117
-681.251	246.842	-0.142	-0.240
-680.237	-200.000	0.000	-0.139
-679.222	685.127	0.116	-0.303
-678.208	95.289	-0.089	0.101
-677.193	-44.868	-0.430	-0.214
-676.178	444.414	0.037	0.081
-675.164	800.000	-0.111	0.360
-674.149	-133.514	0.102	-0.013
-673.135	-7.075	0.155	-0.105
-672.120	169.338	0.122	-0.175
-671.105	-200.000	-0.020	-0.166
-670.091	-59.435	-0.094	0.040
-669.076	14.365	0.069	-0.054
-668.062	-166.391	0.277	0.012
-667.047	88.817	-0.311	0.346
-666.032	331.833	-0.113	-0.218
-665.018	800.000	-0.129	-0.525
-664.003	434.215	0.123	-0.267
-662.989	800.000	-0.041	0.158
-661.974	660.808	-0.061	-0.157
-660.959	23.027	0.079	0.065
-659.945	-31.295	-0.178	0.100
-658.930	-18.950	0.102	0.063
-657.916	87.978	0.220	0.244
-656.901	145.116	0.156	0.209
-655.886	-84.918	0.071	0.022
-654.872	-156.172	-0.300	-0.019
-653.857	-110.565	-0.027	-0.006
-652.843	-200.000	0.010	-0.204
-651.828	-200.000	-0.056	-0.295
-650.814	91.330	-0.088	0.099
-649.799	93.507	0.201	-0.228
-648.784	-124.215	-0.121	-0.019
-647.770	-39.226	-0.028	-0.015
-646.755	-19.262	0.264	0.164
-645.741	-139.161	0.116	0.013
-644.726	297.863	0.161	-0.296
-643.711	-200.000	-0.021	0.216
-642.697	-79.742	-0.141	0.048
-641.682	174.802	0.141	-0.204
-640.668	120.273	0.135	0.167
-639.653	800.000	-0.057	0.197
-638.638	800.000	0.089	-0.245
-637.624	-168.050	-0.383	-0.015
-636.609	213.516	0.132	-0.209
-635.595	20.119	0.153	0.123
-634.580	47.208	0.233	-0.216
-633.565	-2.365	0.214	-0.150
-632.551	800.000	0.040	0.160
-631.536	-7.194	-0.083	0.056
-630.522	800.000	-0.084	-0.331
-629.507	-144.582	0.187	-0.017
-628.492	-12.887	-0.415	-0.270
-627.478	22.610	-0.264	-0.216
-626.463	247.091	-0.182	-0.307
-625.449	-47.862	-0.141	-0.068
-624.434	-200.000	-0.043	0.194
-623.419	-28.943	0.229	0.131
-622.405	182.636	0.126	-0.185
-621.390	-114.298	-0.151	0.029
-620.376	-200.000	0.006	-0.124
-619.361	800.000	0.060	-0.231
-618.346	-195.188	-0.070	0.001
-617.332	-143.300	0.365	-0.035
-616.317	-85.399	0.112	-0.035
-615.303	-46.921	0.086	-0.042
-614.288	-16.544	-0.214	0.135
-613.273	6.575	0.199	0.147
-612.259	-128.822	0.049	0.007
-611.244	542.482	-0.054	-0.128
-610.230	-81.914	0.044	-0.014
-609.215	789.937	-0.059	0.161
-608.201	-87.621	-0.139	0.042
-607.186	300.189	0.182	-0.334
-606.171	66.412	0.160	-0.163
-605.157	23.891	-0.175	0.144
-604.142	83.757	0.017	0.018
-603.128	-111.606	-0.074	-0.015
-602.113	-78.592	0.241	-0.082
-601.098	-30.864	-0.316	-0.178
-600.084	-75.774	-0.242	-0.085
-599.069	584.390	-0.162	0.396
-598.055	261.533	0.030	0.051
-597.040	7.604	0.252	0.188
-596.025	351.651	0.067	0.132
-595.011	800.000	-0.044	-0.130
-593.996	-200.000	0.027	0.324
-592.982	800.000	-0.069	0.233
-591.967	-112.680	-0.212	0.042
-590.952	-71.314	0.207	-0.077
-589.938	-140.107	-0.143	-0.015
-588.923	44.992	0.078	0.072
-587.909	471.219	-0.025	0.057
-586.894	470.889	0.032	-0.071
-585.879	800.000	0.052	-0.216
-584.865	411.854	0.122	-0.258
-583.850	195.340	0.095	-0.144
-582.836	108.723	-0.266	-0.317
-581.821	-200.000	-0.051	0.317
-580.806	-63.047	0.310	-0.127
-579.792	-143.444	-0.251	-0.024
-578.777	-68.702	-0.107	0.041
-577.763	97.960	-0.024	0.028
-576.748	-70.396	-0.201	0.076
-575.733	27.149	-0.114	-0.096
-574.719	-57.477	-0.316	0.138
-573.704	165.125	0.107	-0.150
-572.690	124.278	-0.284	-0.356
-571.675	212.330	0.038	0.060
-570.661	26.393	-0.150	-0.125
-569.646	519.184	-0.123	0.288
-568.631	-128.432	-0.103	-0.015
-567.617	-51.354	0.066	0.031
-566.602	-25.753	-0.395	-0.232
-565.588	356.131	-0.115	0.228
-564.573	-115.202	-0.217	-0.041
-563.558	-200.000	0.031	0.295
-562.544	468.924	-0.075	0.169
-561.529	-200.000	0.024	-0.145
-560.515	-101.306	-0.350	0.085
-559.500	-31.180	0.102	-0.057
-558.485	-85.754	0.042	-0.013
-557.471	455.509	-0.059	0.131
-556.456	360.471	0.098	-0.195
-555.442	-69.286	-0.159	-0.061
-554.427	42.780	0.256	-0.233
-553.412	800.000	0.110	-0.359
-552.398	19.695	-0.161	0.129
-551.383	184.864	-0.149	0.220
-550.369	-140.466	0.264	-0.027
-549.354	471.432	-0.097	-0.218
-548.339	122.187	-0.163	-0.202
-547.325	209.501	-0.136	0.213
-546.310	317.458	-0.131	-0.246
-545.296	1.139	0.188	0.135
-544.281	-200.000	-0.067	0.457
-543.266	-200.000	0.008	0.196
-542.252	350.722	-0.037	0.073
-541.237	-105.477	0.158	0.036
-540.223	102.505	0.040	-0.047
-539.208	-41.925	-0.379	0.193
-538.193	-86.568	-0.052	-0.016
-537.179	-200.000	0.011	-0.321
-536.164	119.367	-0.213	0.263
-535.150	-200.000	-0.044	0.478
-534.135	-200.000	-0.003	0.262
-533.121	175.657	-0.097	0.140
-532.106	-88.165	-0.260	0.078
-531.091	-119.721	0.217	-0.037
-530.077	-156.952	-0.218	0.013
-529.062	-151.033	0.209	-0.016
-528.048	800.000	-0.092	0.378
-527.033	121.573	-0.147	0.182
-526.018	-38.674	0.194	0.102
-525.004	-58.245	-0.098	-0.042
-523.989	800.000	-0.048	0.137
-522.975	-64.914	0.326	0.131
-521.960	-200.000	-0.008	-0.160
-520.945	742.948	0.129	0.345
-519.931	-55.377	0.383	0.171
-518.916	-106.859	-0.127	-0.028
-517.902	-200.000	-0.002	-0.131
-516.887	294.405	-0.103	0.187
-515.872	73.318	0.226	-0.235
-514.858	380.955	-0.090	-0.184
-513.843	-113.422	-0.127	0.025
-512.829	-75.716	0.310	0.110
-511.814	-200.000	-0.044	0.229
-510.799	800.000	-0.017	-0.053
-509.785	-54.753	-0.221	0.099
-508.770	-105.067	0.257	0.058
-507.756	-200.000	-0.010	0.307
-506.741	800.000	-0.052	0.196
-505.726	136.460	0.046	0.060
-504.712	-59.132	-0.215	-0.092
-503.697	357.002	0.199	0.393
-502.683	-97.884	0.150	0.038
-501.668	-200.000	0.023	-0.391
-500.653	-113.727	0.160	-0.031
-499.639	783.523	0.068	-0.185
-498.624	117.965	-0.096	-0.117
-497.610	-164.514	-0.228	0.010
-496.595	114.846	0.139	0.168
-495.581	35.424	-0.244	0.213
-494.566	-200.000	0.013	-0.135
-493.551	800.000	-0.055	-0.224
-492.537	-63.806	-0.244	-0.099
-491.522	-142.185	-0.177	-0.017
-490.508	-58.737	0.187	0.080
-489.493	-200.000	0.048	-0.225
-488.478	-8.540	0.190	0.127
-487.464	-39.549	0.330	0.172
-486.449	800.000	0.042	-0.130
-485.435	79.786	0.295	-0.314
-484.420	117.607	0.056	0.068
-483.405	80.729	0.163	-0.174
-482.391	-200.000	0.050	-0.296
-481.376	-129.946	0.177	-0.024
-480.362	78.514	-0.080	0.085
-479.347	800.000	-0.050	-0.191
-478.332	800.000	0.087	0.283
-477.318	306.918	-0.191	0.354
-476.303	-200.000	0.054	0.293
-475.289	34.199	0.166	-0.144
-474.274	620.842	0.092	-0.231
-473.259	-200.000	-0.005	-0.054
-472.245	64.999	-0.061	0.061
-471.230	-35.479	-0.276	0.149
-470.216	49.139	-0.323	0.301
-469.201	-61.227	0.191	0.080
-468.186	-4.542	0.196	-0.134
-467.172	10.810	0.196	-0.149
-466.157	-169.944	-0.148	-0.005
-465.143	-13.813	-0.203	0.130
-464.128	211.349	-0.197	0.308
-463.113	-76.381	0.244	0.085
-462.099	-14.888	0.179	-0.114
-461.084	-198.207	0.272	-0.002
-460.070	-72.489	0.134	0.049
-459.055	164.182	-0.128	0.179
-458.040	-192.780	0.024	-0.000
-457.026	-36.851	-0.272	0.145
-456.011	-200.000	0.010	-0.046
-454.997	800.000	-0.064	-0.223
-453.982	618.981	0.090	0.224
-452.968	800.000	-0.088	0.258
-451.953	-200.000	-0.046	-0.226
-450.938	-200.000	-0.017	-0.151
-449.924	476.225	0.033	-0.074
-448.909	143.387	0.352	-0.465
-447.895	-95.305	-0.173	-0.046
-446.880	-200.000	-0.014	-0.152
-445.865	-200.000	0.003	0.366
-444.851	84.563	-0.143	-0.155
-443.836	-72.287	0.160	-0.059
-442.822	800.000	-0.066	-0.273
-441.807	22.406	-0.071	-0.058
-440.792	-200.000	-0.051	-0.348
-439.778	-200.000	0.034	-0.278
-438.763	45.900	0.046	0.042
-437.749	41.049	-0.289	-0.258
-436.734	68.589	0.101	-0.102
-435.719	295.715	-0.129	0.234
-434.705	152.042	0.033	-0.045
-433.690	-39.575	-0.182	-0.094
-432.676	-200.000	0.098	-0.491
-431.661	-77.067	0.249	-0.086
-430.646	69.513	0.119	-0.121
-429.632	-166.764	-0.248	-0.010
-428.617	-200.000	-0.019	-0.265
-427.603	29.455	0.079	-0.066
-426.588	-200.000	0.006	-0.242
-425.573	800.000	-0.084	0.264
-424.559	800.000	0.066	0.195
-423.544	-74.713	0.131	0.047
-422.530	200.292	0.052	-0.079
-421.515	36.142	0.106	0.092
-420.500	-200.000	0.054	-0.315
-419.486	-200.000	-0.060	-0.294
-418.471	-122.252	-0.307	-0.050
-417.457	-150.852	0.392	-0.029
-416.442	-72.142	-0.061	0.023
-415.428	-167.805	-0.469	0.018
-414.413	272.089	-0.124	-0.216
-413.398	60.173	0.114	-0.111
-412.384	-174.722	0.204	-0.006
-411.369	81.009	0.153	-0.164
-410.355	-24.062	0.115	0.068
-409.340	-200.000	-0.081	-0.420
-408.325	0.165	0.153	0.108
-407.311	-149.770	-0.173	-0.013
-406.296	609.750	0.020	-0.050
-405.282	-200.000	-0.059	-0.300
-404.267	-85.802	-0.100	0.031
-403.252	65.912	0.201	-0.202
-402.238	-2.350	0.370	0.257
-401.223	8.178	-0.189	0.140
-400.209	200.803	-0.125	-0.190
-399.194	-104.590	0.258	-0.059
-398.179	65.920	-0.242	0.243
-397.165	-41.712	-0.297	-0.151
-396.150	-136.447	0.175	-0.020
-395.136	125.976	-0.220	0.275
-394.121	-170.068	0.153	0.005
-393.106	-14.009	0.427	0.273
-392.092	-200.000	0.004	-0.027
-391.077	640.753	0.035	0.089
-390.063	-173.582	-0.427	0.013
-389.048	2.829	-0.054	-0.039
-388.033	49.999	0.175	-0.164
-387.019	-69.806	-0.284	-0.107
-386.004	200.210	0.049	0.075
-384.990	173.796	0.342	-0.488
-383.975	210.171	0.113	0.175
-382.960	208.149	-0.069	0.107
-381.946	8.679	0.049	-0.037
-380.931	161.811	0.200	0.277
-379.917	800.000	0.112	0.313
-378.902	-200.000	0.027	-0.132
-377.888	201.167	-0.102	-0.155
-376.873	-200.000	0.050	-0.474
-375.858	3.467	-0.148	0.106
-374.844	135.838	0.089	0.114
-373.829	386.589	-0.058	-0.118
-372.815	-24.001	0.307	0.182
-371.800	-100.776	-0.449	0.109
-370.785	-77.973	0.141	0.048
-369.771	36.210	0.010	0.009
-368.756	-81.848	0.144	-0.046
-367.742	106.291	0.154	-0.180
-366.727	249.033	-0.105	-0.176
-365.712	17.760	0.162	-0.128
-364.698	-200.000	-0.025	0.178
-363.683	-101.476	-0.185	0.044
-362.669	-129.918	-0.254	-0.034
-361.654	-136.093	-0.168	0.019
-360.639	-200.000	0.086	0.582
-359.625	-53.751	0.254	0.114
-358.610	95.854	0.281	-0.317
-357.596	221.880	-0.125	-0.199
-356.581	681.813	0.077	0.199
-355.566	-140.592	0.309	-0.032
-354.552	206.549	-0.126	0.194
-353.537	-36.865	0.154	0.082
-352.523	2.166	0.134	-0.095
-351.508	-42.054	-0.327	-0.165
-350.493	8.413	-0.168	0.125
-349.479	227.171	-0.021	-0.034
-348.464	410.547	-0.101	-0.212
-347.450	9.182	-0.107	-0.080
-346.435	-101.125	0.191	0.046
-345.420	-65.859	0.276	-0.109
-344.406	97.237	-0.141	0.160
-343.391	-200.000	-0.033	0.249
-342.377	-82.415	-0.031	0.010
-341.362	800.000	0.029	0.094
-340.348	711.683	0.021	0.056
-339.333	-121.572	-0.018	-0.003
-338.318	289.405	-0.105	0.188
-337.304	-118.870	0.105	0.018
-336.289	167.661	-0.047	-0.065
-335.275	-111.598	-0.145	0.029
-334.260	-126.338	-0.208	0.031
-333.245	30.730	0.174	0.147
-332.231	175.990	0.054	-0.078
-331.216	533.490	0.104	-0.244
-330.202	114.639	-0.118	0.142
-329.187	-200.000	-0.018	-0.095
-328.172	8.242	0.058	-0.043
-327.158	159.660	0.108	-0.148
-326.143	-200.000	0.008	0.112
-325.129	243.255	0.113	-0.187
-324.114	31.325	0.295	0.250
-323.099	41.451	0.252	0.225
-322.085	-88.503	0.025	-0.007
-321.070	192.853	-0.040	0.060
-320.056	-200.000	0.033	-0.254
-319.041	-200.000	0.017	-0.243
-318.026	45.864	-0.215	0.196
-317.012	800.000	0.044	0.138
-315.997	32.651	-0.298	-0.254
-314.983	94.007	-0.030	-0.033
-313.968	270.987	-0.130	-0.226
-312.953	-200.000	0.021	-0.272
-311.939	-200.000	-0.069	-0.310
-310.924	-123.348	-0.200	-0.032
-309.910	-128.228	-0.148	-0.021
-308.895	-200.000	-0.061	0.306
-307.880	19.411	-0.311	0.246
-306.866	-23.955	0.252	-0.148
-305.851	251.197	0.222	0.372
-304.837	122.800	-0.093	0.115
-303.822	-40.262	0.281	-0.144
-302.807	234.290	0.055	-0.090
-301.793	800.000	-0.016	-0.043
-300.778	-139.860	0.242	-0.025
-299.764	-114.329	0.172	0.033
-298.749	-74.809	-0.048	-0.017
-297.735	-151.474	-0.402	-0.029
-296.720	2.597	-0.256	0.183
-295.705	36.113	-0.288	-0.250
-294.691	-10.858	-0.199	0.129
-293.676	80.779	0.159	0.169
-292.662	23.028	-0.172	-0.139
-291.647	206.107	-0.096	-0.147
-290.632	13.496	-0.318	-0.243
-289.618	375.851	0.097	-0.195
-288.603	-200.000	-0.011	-0.055
-287.589	64.082	-0.119	0.118
-286.574	800.000	0.049	0.136
-285.559	-42.354	-0.164	-0.083
-284.545	144.157	0.066	0.087
-283.530	-200.000	-0.008	0.211
-282.516	124.117	0.193	0.239
-281.501	-117.148	-0.100	-0.018
-280.486	-15.850	-0.139	0.087
-279.472	32.290	0.115	-0.098
-278.457	273.524	0.105	0.183
-277.443	9.339	-0.205	0.153
-276.428	-112.607	0.307	-0.060
-275.413	366.964	0.126	-0.250
-274.399	-82.129	0.309	-0.099
-273.384	289.379	-0.028	0.050
-272.370	-50.930	0.129	-0.060
-271.355	-200.000	-0.004	0.111
-270.340	169.052	0.073	-0.103
-269.326	-10.264	-0.163	-0.106
-268.311	279.219	0.123	-0.217
-267.297	800.000	0.065	0.206
-266.282	-41.525	0.040	0.020
-265.267	166.521	0.153	-0.214
-264.253	94.708	0.097	-0.109
-263.238	-29.008	-0.231	-0.130
-262.224	-194.254	-0.359	0.003
-261.209	-54.943	0.165	0.073
-260.195	800.000	0.088	-0.360
-259.180	-145.625	0.326	-0.029
-258.165	800.000	0.091	0.316
-257.151	31.276	0.091	-0.077
-256.136	-200.000	0.022	0.207
-255.122	-50.952	-0.062	-0.029
-254.107	55.955	-0.168	0.160
-253.092	-0.294	-0.388	-0.271
-252.078	455.290	0.043	-0.094
-251.063	181.575	-0.221	-0.320
-250.049	-119.517	0.204	0.035
-249.034	-99.999	-0.206	0.051
-248.019	-54.215	0.209	0.093
-247.005	-74.309	-0.043	0.015
-245.990	124.510	0.126	0.156
-244.976	-85.703	-0.281	-0.086
-243.961	3.870	-0.180	0.130
-242.946	475.913	-0.032	0.070
-241.932	800.000	-0.069	-0.198
-240.917	266.000	-0.069	0.118
-239.903	-92.675	-0.272	0.075
-238.888	362.056	0.041	-0.081
-237.873	-154.460	-0.256	-0.017
-236.859	-200.000	0.007	0.180
-235.844	-122.521	0.285	0.046
-234.830	-97.667	0.267	0.068
-233.815	87.571	-0.090	-0.098
-232.800	-159.125	0.071	-0.004
-231.786	53.348	-0.104	0.098
-230.771	19.102	-0.362	-0.286
-229.757	-175.303	0.162	-0.004
-228.742	-200.000	0.036	-0.422
-227.727	331.189	-0.058	0.109
-226.713	-93.547	-0.162	-0.044
-225.698	-121.639	0.134	-0.022
-224.684	-1.992	0.220	0.152
-223.669	425.015	0.146	0.308
-222.655	211.956	-0.117	-0.181
-221.640	138.375	-0.239	0.308
-220.625	-64.010	0.200	0.080
-219.611	-200.000	0.032	0.278
-218.596	-94.688	0.237	0.063
-217.582	149.650	0.268	0.356
-216.567	488.277	0.109	-0.245
-215.552	218.435	-0.175	0.275
-214.538	26.671	0.103	-0.085
-213.523	-17.356	0.194	-0.120
-212.509	32.168	0.150	-0.127
-211.494	114.402	-0.089	-0.107
-210.479	-176.710	-0.175	0.004
-209.465	-162.510	0.215	0.010
-208.450	-122.451	0.039	-0.006
-207.436	-157.061	-0.194	0.012
-206.421	333.578	-0.171	0.324
-205.406	-103.739	0.033	-0.008
-204.392	-200.000	0.038	-0.476
-203.377	-117.878	0.102	-0.018
-202.363	-25.080	-0.214	0.125
-201.348	523.217	0.087	0.200
-200.333	-43.301	-0.038	-0.019
-199.319	123.728	-0.240	0.296
-198.304	-65.819	-0.275	-0.108
-197.290	134.117	0.175	0.223
-196.275	-200.000	-0.018	0.379
-195.260	-49.509	0.211	0.099
-194.246	-200.000	0.015	0.367
-193.231	-91.191	-0.080	0.023
-192.217	73.531	0.213	0.219
-191.202	-161.648	0.161	-0.008
-190.187	-34.798	0.079	0.042
-189.173	-98.251	0.079	0.020
-188.158	-200.000	-0.001	-0.023
-187.144	-10.416	-0.075	-0.049
-186.129	-56.601	0.323	0.141
-185.114	800.000	-0.049	-0.187
-184.100	-138.773	-0.211	-0.023
-183.085	-93.397	-0.138	0.038
-182.071	18.785	0.211	0.166
-181.056	-20.668	-0.300	0.181
-180.042	63.904	-0.152	0.150
-179.027	121.105	0.049	0.060
-178.012	-98.307	0.243	0.061
-176.998	-61.278	-0.188	-0.077
-175.983	106.520	0.252	0.294
-174.969	-88.086	-0.324	0.095
-173.954	61.894	0.111	0.108
-172.939	463.896	0.095	0.208
-171.925	-32.834	-0.300	0.163
-170.910	-200.000	-0.022	0.299
-169.896	132.779	0.212	-0.268
-168.881	-103.151	-0.194	0.045
-167.866	302.526	0.116	0.210
-166.852	-89.182	0.223	-0.065
-165.837	-200.000	0.015	-0.260
-164.823	81.185	-0.135	-0.143
-163.808	-189.213	0.273	-0.003
-162.793	208.623	0.243	0.372
-161.779	126.262	0.199	0.247
-160.764	-166.764	-0.353	0.014
-159.750	32.839	0.222	-0.189
-158.735	265.501	0.175	-0.300
-157.720	-55.064	-0.192	-0.085
-156.706	800.000	0.072	-0.279
-155.691	-65.099	-0.270	-0.107
-154.677	-10.088	-0.146	-0.095
-153.662	-88.359	0.135	0.040
-152.647	550.955	0.124	0.292
-151.633	562.045	0.117	-0.276
-150.618	81.641	0.109	-0.115
-149.604	463.406	-0.012	0.026
-148.589	42.756	-0.234	0.209
-147.574	-108.733	0.329	0.069
-146.560	0.900	-0.226	-0.159
-145.545	194.520	-0.078	-0.116
-144.531	-128.085	0.224	0.031
-143.516	-162.553	0.118	-0.006
-142.502	-108.306	0.212	-0.045
-141.487	-200.000	-0.064	-0.470
-140.472	-98.466	0.121	-0.030
-139.458	74.683	0.112	0.115
-138.443	800.000	0.047	-0.146
-137.429	-85.618	0.074	-0.022
-136.414	-200.000	-0.032	0.216
-135.399	-200.000	-0.066	0.357
-134.385	212.734	-0.031	0.047
-133.370	126.713	0.127	0.158
-132.356	-200.000	-0.013	-0.270
-131.341	85.463	-0.137	0.148
-130.326	69.711	-0.159	-0.161
-129.312	-163.725	0.253	0.012
-128.297	65.791	-0.318	0.316
-127.283	211.362	-0.077	0.119
-126.268	508.237	-0.094	0.215
-125.253	30.785	-0.098	-0.082
-124.239	-200.000	-0.022	-0.104
-123.224	93.395	-0.166	0.184
-122.210	-133.773	0.287	0.035
-121.195	800.000	-0.070	-0.241
-120.180	34.622	-0.257	0.220
-119.166	-43.398	0.233	-0.115
-118.151	-38.846	-0.047	0.024
-117.137	-114.744	0.027	0.005
-116.122	141.273	0.137	0.178
-115.107	789.026	-0.049	0.133
-114.093	666.520	-0.130	0.328
-113.078	534.397	0.066	0.153
-112.064	-84.805	-0.293	0.090
-111.049	33.193	-0.066	-0.056
-110.034	2.514	-0.160	0.113
-109.020	84.530	-0.268	0.287
-108.005	-200.000	-0.023	-0.178
-106.991	100.694	0.054	-0.062
-105.976	124.065	0.199	-0.245
-104.962	-200.000	-0.042	-0.360
-103.947	143.989	-0.118	0.154
-102.932	162.975	-0.027	-0.037
-101.918	121.459	-0.066	0.081
-100.903	-200.000	0.004	-0.105
-99.889	131.620	-0.138	-0.174
-98.874	-90.609	-0.446	-0.126
-97.859	742.407	0.039	-0.103
-96.845	-200.000	-0.009	0.360
-95.830	-43.411	-0.075	0.037
-94.816	106.679	0.293	-0.340
-93.801	-164.344	0.140	0.006
-92.786	-37.864	-0.057	-0.030
-91.772	-159.365	-0.091	0.005
-90.757	-20.788	0.240	0.144
-89.743	235.508	0.119	-0.192
-88.728	291.965	-0.059	-0.104
-87.713	98.329	0.048	-0.055
-86.699	98.428	-0.098	0.111
-85.684	783.867	0.217	0.580
-84.670	327.832	-0.072	-0.136
-83.655	-200.000	-0.024	0.307
-82.640	800.000	0.118	0.331
-81.626	-105.970	-0.368	-0.081
-80.611	-195.219	0.536	0.004
-79.597	13.077	0.199	0.151
-78.582	144.844	0.091	-0.119
-77.567	89.696	0.064	0.070
-76.553	236.821	0.150	0.242
-75.538	-181.979	-0.197	-0.004
-74.524	-33.821	0.306	-0.165
-73.509	-200.000	0.007	-0.176
-72.494	17.535	-0.083	0.064
-71.480	-84.543	-0.070	0.022
-70.465	-74.503	0.303	0.107
-69.451	28.500	0.224	0.185
-68.436	-200.000	-0.001	0.339
-67.422	-200.000	0.015	0.113
-66.407	-56.832	0.124	0.054
-65.392	-116.034	-0.055	-0.010
-64.378	-122.857	0.172	0.027
-63.363	-200.000	-0.043	-0.307
-62.349	-200.000	-0.040	0.320
-61.334	3.766	-1.403	-1.000
-60.319	190.007	0.531	0.778
-59.305	800.000	-0.336	-1.194
-58.290	271.050	0.526	0.904
-57.276	301.065	0.750	1.352
-56.261	-200.000	118.537	638.773
-55.246	476.539	1557.897	3438.385
-54.232	174.072	2724.155	3842.506
-53.217	103.654	2175.813	2494.211
-52.203	36.689	1691.074	1458.301
-51.188	29.223	1507.157	1249.255
-50.173	27.060	1482.372	1214.220
-49.159	49.087	1544.941	1416.789
-48.144	47.846	1558.592	1420.769
-47.130	29.225	1513.444	1254.282
-46.115	26.303	1498.885	1222.433
-45.100	26.110	1494.610	1217.599
-44.086	25.925	1493.375	1215.297
-43.071	26.024	1491.283	1214.210
-42.057	26.001	1489.269	1212.370
-41.042	25.993	1488.174	1211.375
-40.027	25.963	1486.423	1209.701
-39.013	26.089	1485.061	1209.387
-37.998	25.921	1484.397	1207.674
-36.984	26.000	1483.123	1207.115
-35.969	26.042	1481.497	1206.028
-34.954	25.908	1480.186	1204.018
-33.940	26.007	1478.879	1203.569
-32.925	25.987	1477.291	1202.094
-31.911	26.006	1475.763	1200.929
-30.896	26.133	1474.324	1200.553
-29.881	26.087	1473.333	1199.393
-28.867	26.013	1472.062	1197.820
-27.852	25.961	1470.899	1196.481
-26.838	26.007	1469.443	1195.553
-25.823	26.064	1467.924	1194.652
-24.809	26.048	1466.567	1193.395
-23.794	26.050	1465.372	1192.389
-22.779	26.060	1464.263	1191.505
-21.765	26.025	1463.012	1190.209
-20.750	26.069	1461.760	1189.428
-19.736	26.083	1460.526	1188.473
-18.721	25.960	1459.781	1187.011
-17.706	26.025	1458.728	1186.530
-16.692	26.036	1457.490	1185.549
-15.677	26.030	1456.278	1184.476
-14.663	26.085	1455.302	1183.997
-13.648	26.058	1454.469	1183.094
-12.633	25.963	1453.155	1181.359
-11.619	25.962	1453.210	1181.350
-10.604	26.014	1451.744	1180.448
-9.590	26.099	1450.711	1180.121
-8.575	26.045	1449.562	1178.787
-7.560	26.022	1449.150	1178.254
-6.546	25.892	1448.572	1176.892
-5.531	26.015	1447.600	1176.854
-4.517	25.975	1446.252	1175.454
-3.502	26.038	1445.352	1175.083
-2.487	25.907	1444.807	1173.741
-1.473	25.953	1443.424	1172.869
-0.458	25.986	1441.945	1171.833
0.556	27.589	1432.240	1160.479
1.571	24.540	1407.379	1121.126
2.586	21.120	1348.901	1053.829
3.600	19.415	1267.576	980.522
4.615	18.216	1222.927	939.324
5.629	16.205	1166.746	885.546
6.644	9.807	1085.444	792.438
7.659	4.928	1049.246	742.733
8.673	4.262	1044.296	736.003
9.688	4.093	1040.716	732.615
10.702	3.868	1039.513	730.644
11.717	4.128	1036.979	730.020
12.731	6.332	1038.815	741.641
13.746	13.227	1048.489	781.174
14.761	19.788	1056.999	818.603
15.775	22.137	1059.017	831.222
16.790	21.692	1058.285	828.468
17.804	20.901	1055.986	822.861
18.819	20.000	1054.474	817.359
19.834	19.680	1052.640	814.356
20.848	19.589	1052.432	813.696
21.863	19.674	1051.453	813.265
22.877	19.465	1051.268	812.070
23.892	19.332	1049.780	810.225
24.907	19.171	1049.599	809.256
25.921	19.202	1048.643	808.593
26.936	19.053	1047.975	807.308
27.950	19.055	1046.677	806.245
28.965	18.990	1046.030	805.370
29.980	19.168	1044.607	805.035
30.994	19.373	1043.911	805.384
32.009	19.443	1042.997	804.937
33.023	19.585	1042.294	804.986
34.038	19.499	1041.474	803.881
35.053	19.328	1040.472	802.238
36.067	19.312	1039.576	801.401
37.082	19.234	1038.856	800.412
38.096	19.154	1038.204	799.469
39.111	19.304	1037.478	799.538
40.126	19.427	1036.489	799.270
41.140	19.372	1034.835	797.670
42.155	19.099	1033.525	795.331
43.169	18.778	1033.129	793.472
44.184	18.822	1031.364	792.250
45.199	18.698	1030.605	791.023
46.213	18.777	1029.603	790.552
47.228	18.875	1028.875	790.373
48.242	19.238	1028.328	791.548
49.257	19.204	1027.975	791.051
50.271	19.356	1026.140	790.266
51.286	19.247	1026.121	789.682
52.301	19.268	1025.268	789.052
53.315	19.337	1024.564	788.756
54.330	19.166	1023.481	787.070
55.344	19.014	1022.392	785.471
56.359	18.949	1021.082	784.096
57.374	19.006	1020.514	783.850
58.388	18.973	1019.828	783.107
59.403	18.730	1019.579	781.738
60.417	18.708	1018.245	780.547
61.432	18.652	1017.762	779.855
62.447	18.755	1016.593	779.357
63.461	18.614	1016.106	778.273
64.476	18.633	1014.914	777.377
65.490	18.525	1014.073	776.174
66.505	18.425	1013.335	775.090
67.520	18.589	1012.827	775.376
68.534	18.543	1012.075	774.522
69.549	18.491	1011.293	773.623
70.563	18.626	1010.015	773.182
71.578	18.439	1009.489	771.870
72.593	18.437	1008.635	771.139
73.607	18.179	1007.612	769.130
74.622	18.287	1006.580	768.757
75.636	18.377	1005.715	768.433
76.651	18.386	1005.119	767.951
77.666	18.343	1004.516	767.230
78.680	18.342	1003.995	766.760
79.695	18.358	1003.194	766.153
80.709	18.544	1003.022	766.782
81.724	18.594	1002.039	766.188
82.739	18.688	1001.341	766.007
83.753	18.723	1000.857	765.725
84.768	19.065	1000.380	766.817
85.782	19.492	999.246	767.780
86.797	19.549	999.263	767.978
87.812	19.651	998.130	767.493
88.826	19.416	997.745	766.084
89.841	19.423	996.275	764.919
90.855	19.513	995.347	764.535
91.870	19.589	994.699	764.309
92.884	19.576	994.125	763.741
93.899	19.567	993.517	763.168
94.914	19.540	992.790	762.420
95.928	19.723	991.771	762.381
96.943	19.592	991.148	761.256
97.957	19.375	990.184	759.494
98.972	19.477	989.099	759.042
99.987	19.352	988.551	758.003
101.001	19.438	987.676	757.645
102.016	19.501	986.903	757.263
103.030	19.450	985.849	756.160
104.045	19.511	985.244	755.898
105.060	19.637	983.983	755.413
106.074	19.406	983.285	753.804
107.089	19.091	982.160	751.499
108.103	18.771	981.359	749.420
109.118	18.673	979.929	747.839
110.133	18.600	979.365	747.023
111.147	18.509	978.802	746.130
112.162	18.538	977.421	745.139
113.176	18.608	976.981	745.042
114.191	18.720	976.123	744.808
115.206	18.927	975.195	744.931
116.220	18.933	973.895	743.899
117.235	18.732	973.922	742.983
118.249	18.649	972.782	741.689
119.264	18.669	972.054	741.151
120.279	18.511	971.226	739.775
121.293	18.599	970.163	739.280
122.308	18.428	969.452	737.937
123.322	18.390	968.451	736.942
124.337	18.298	967.309	735.617
125.352	18.240	966.282	734.517
126.366	18.328	965.150	733.971
127.381	18.263	964.065	732.804
128.395	18.238	963.271	732.026
129.410	18.429	961.992	731.808
130.424	18.500	961.346	731.554
131.439	18.519	960.406	730.854
132.454	18.634	959.801	730.819
133.468	18.741	959.412	730.912
134.483	18.664	958.945	730.167
135.497	18.844	958.072	730.200
136.512	18.837	957.355	729.560
137.527	18.858	956.699	729.086
138.541	18.714	955.872	727.781
139.556	18.843	955.136	727.704
140.570	18.722	954.468	726.619
141.585	18.994	953.747	727.154
142.600	19.184	953.211	727.482
143.614	19.297	952.863	727.633
144.629	19.362	952.175	727.314
145.643	19.414	951.237	726.755
146.658	19.503	950.118	726.208
147.673	19.269	949.527	724.707
148.687	19.140	947.882	722.849
149.702	18.888	947.297	721.281
150.716	18.755	945.948	719.632
151.731	18.816	945.378	719.391
152.746	18.937	944.656	719.284
153.760	18.870	944.065	718.488
154.775	18.976	943.334	718.312
155.789	19.054	942.817	718.181
156.804	19.048	942.066	717.521
157.819	19.016	941.204	716.669
158.833	19.271	940.424	717.072
159.848	19.365	940.134	717.178
160.862	19.502	939.704	717.356
161.877	19.536	938.165	716.256
162.892	19.155	937.002	713.729
163.906	18.980	936.374	712.460
164.921	18.866	935.257	711.075
165.935	18.876	934.441	710.433
166.950	18.854	933.210	709.344
167.964	18.901	933.056	709.359
168.979	19.223	931.532	709.466
169.994	18.843	930.631	707.150
171.008	18.717	930.289	706.313
172.023	18.931	929.050	706.187
173.037	19.180	928.507	706.734
174.052	19.283	927.927	706.653
175.067	19.411	926.530	706.050
176.081	19.077	926.017	704.228
177.096	18.765	924.732	701.916
178.110	18.753	924.118	701.337
179.125	18.848	923.075	700.872
180.140	18.888	922.483	700.526
181.154	18.974	922.134	700.548
182.169	19.222	921.248	700.820
183.183	19.251	921.502	701.069
184.198	19.346	920.533	700.657
185.213	19.412	919.889	700.372
186.227	19.261	919.754	699.595
187.242	19.356	918.817	699.204
188.256	19.610	918.098	699.626
189.271	19.698	917.274	699.294
190.286	19.808	916.841	699.344
191.300	19.446	916.381	697.468
192.315	19.083	914.522	694.529
193.329	18.584	913.620	691.770
194.344	18.731	913.183	691.970
195.359	18.873	913.077	692.400
196.373	19.092	912.246	692.588
197.388	19.157	911.806	692.456
198.402	19.337	911.705	693.042
199.417	19.588	911.258	693.649
200.432	19.797	910.744	694.033
201.446	19.920	910.734	694.460
202.461	19.850	910.493	693.935
203.475	20.164	909.730	694.548
204.490	19.991	909.159	693.359
205.504	19.676	907.608	690.856
206.519	19.580	906.824	689.815
207.534	19.474	906.038	688.732
208.548	19.396	905.427	687.895
209.563	19.389	904.931	687.430
210.577	19.386	904.437	686.982
211.592	19.423	903.709	686.517
212.607	19.610	903.277	686.871
213.621	19.736	902.852	686.985
214.636	19.702	902.094	686.216
215.650	19.643	901.619	685.558
216.665	19.832	900.630	685.493
217.680	19.700	900.548	684.850
218.694	19.961	900.505	685.788
219.709	20.019	899.855	685.464
220.723	20.004	898.602	684.387
221.738	19.969	897.831	683.601
222.753	19.873	897.739	683.091
223.767	19.804	896.827	682.066
224.782	19.870	896.358	681.908
225.796	20.081	895.582	682.091
226.811	20.160	895.062	681.945
227.826	20.042	894.403	680.919
228.840	19.772	893.401	679.035
229.855	19.788	892.636	678.455
230.869	19.809	891.925	677.939
231.884	19.695	891.411	677.039
232.899	19.597	890.717	676.071
233.913	19.580	889.922	675.341
234.928	19.525	889.275	674.576
235.942	19.420	888.969	673.871
236.957	19.597	887.083	673.074
237.972	19.482	887.073	672.557
238.986	19.451	886.744	672.130
240.001	19.487	885.766	671.468
241.015	19.517	885.108	671.026
242.030	19.689	884.528	671.196
243.045	19.777	884.094	671.148
244.059	19.817	883.790	671.013
245.074	19.850	882.714	670.266
246.088	19.821	882.454	669.894
247.103	19.960	881.959	669.999
248.117	20.054	881.551	669.992
249.132	20.220	881.234	670.332
250.147	20.611	880.515	671.238
251.161	20.754	880.541	671.748
252.176	20.838	880.060	671.646
253.190	20.743	879.395	670.714
254.205	20.976	878.831	671.121
255.220	20.962	878.237	670.554
256.234	20.912	877.736	669.920
257.249	20.814	877.077	668.981
258.263	20.706	876.650	668.180
259.278	20.756	875.895	667.740
260.293	20.773	875.618	667.536
261.307	20.926	874.521	667.226
262.322	20.935	874.316	667.044
263.336	20.930	874.068	666.778
264.351	20.983	873.025	666.125
265.366	20.927	872.327	665.320
266.380	21.130	871.672	665.534
267.395	21.055	870.791	664.518
268.409	20.900	870.379	663.554
269.424	20.736	869.183	661.958
270.439	20.772	869.179	662.036
271.453	20.740	867.985	660.946
272.468	20.496	867.035	659.237
273.482	20.522	866.652	658.987
274.497	20.514	866.262	658.602
275.512	20.564	865.106	657.854
276.526	20.675	864.238	657.557
277.541	20.609	863.986	657.058
278.555	20.591	863.510	656.567
279.570	20.955	862.740	657.296
280.585	20.936	862.948	657.327
281.599	21.042	862.189	657.089
282.614	20.835	861.270	655.554
283.628	20.572	860.667	654.045
284.643	20.662	860.202	653.971
285.657	20.711	859.538	653.592
286.672	20.748	859.181	653.404
287.687	20.688	858.662	652.727
288.701	20.859	858.322	653.052
289.716	20.804	857.697	652.313
290.730	20.709	857.081	651.428
291.745	20.798	856.304	651.113
292.760	20.895	855.886	651.103
293.774	20.959	855.555	651.032
294.789	21.136	854.799	651.060
295.803	21.258	854.169	650.977
296.818	20.928	853.369	649.078
297.833	20.857	852.590	648.165
298.847	20.774	851.985	647.339
299.862	20.936	851.624	647.611
300.876	21.029	850.885	647.335
301.891	20.982	850.557	646.854
302.906	21.120	850.055	646.929
303.920	21.387	849.095	647.129
304.935	21.319	848.810	646.603
305.949	21.525	848.437	647.024
306.964	21.327	847.974	645.879
307.979	21.159	847.104	644.540
308.993	21.188	846.522	644.148
310.008	21.335	846.071	644.287
311.022	21.478	845.825	644.573
312.037	21.193	845.442	643.172
313.052	21.222	844.294	642.349
314.066	21.057	843.611	641.167
315.081	20.986	842.766	640.209
316.095	20.738	842.241	638.841
317.110	20.783	841.908	638.699
318.125	20.923	840.997	638.463
319.139	20.734	840.646	637.448
320.154	20.657	840.691	637.143
321.168	20.904	839.711	637.248
322.183	20.925	838.928	636.672
323.197	20.953	838.646	636.505
324.212	20.984	837.944	636.029
325.227	21.004	837.767	635.911
326.241	20.906	837.266	635.119
327.256	20.975	836.341	634.613
328.270	20.902	835.903	633.957
329.285	20.836	835.602	633.431
330.300	20.797	834.942	632.734
331.314	20.917	834.028	632.421
332.329	20.995	833.391	632.167
333.343	21.201	832.534	632.204
334.358	21.281	832.403	632.340
335.373	21.227	832.259	631.979
336.387	21.290	831.657	631.696
337.402	21.224	831.587	631.346
338.416	21.384	830.793	631.266
339.431	21.421	830.108	630.823
340.446	21.722	829.534	631.416
341.460	21.821	829.216	631.473
342.475	21.788	828.694	630.903
343.489	21.876	828.393	630.933
344.504	22.087	827.517	630.967
345.519	22.057	827.305	630.644
346.533	22.038	827.160	630.409
347.548	22.124	826.097	629.851
348.562	21.740	825.285	627.799
349.577	21.574	824.541	626.584
350.592	21.476	824.073	625.825
351.606	21.214	823.625	624.491
352.621	21.393	822.660	624.343
353.635	21.326	822.520	623.942
354.650	21.437	822.258	624.085
355.665	21.416	822.022	623.777
356.679	21.589	821.473	623.919
357.694	21.456	821.436	623.364
358.708	21.578	820.657	623.151
359.723	21.621	819.853	622.638
360.738	21.749	819.034	622.417
361.752	21.615	819.185	622.000
362.767	21.643	818.297	621.369
363.781	21.868	818.119	621.976
364.796	21.965	817.991	622.171
365.810	22.122	817.599	622.371
366.825	22.361	816.914	622.642
367.840	22.413	816.915	622.771
368.854	22.241	816.461	621.763
369.869	22.113	815.677	620.658
370.883	22.133	814.745	619.964
371.898	22.071	814.594	619.576
372.913	22.114	813.830	619.090
373.927	22.354	813.007	619.256
374.942	22.027	812.932	617.992
375.956	22.021	812.367	617.485
376.971	22.091	811.854	617.289
377.986	22.358	811.014	617.533
379.000	22.491	810.868	617.832
380.015	22.542	810.398	617.598
381.029	22.452	809.597	616.618
382.044	22.225	809.349	615.579
383.059	22.452	808.400	615.598
384.073	22.721	807.244	615.600
385.088	22.381	807.003	614.177
386.102	22.021	806.530	612.508
387.117	21.944	805.738	611.585
388.132	21.990	805.509	611.517
389.146	21.984	805.185	611.194
390.161	22.034	804.706	610.950
391.175	22.340	804.046	611.460
392.190	22.449	803.997	611.747
393.205	22.301	803.658	610.921
394.219	22.112	803.124	609.806
395.234	22.116	802.262	609.112
396.248	21.904	802.003	608.125
397.263	21.841	801.496	607.469
398.278	21.654	800.975	606.371
399.292	21.574	800.786	605.898
400.307	21.718	800.113	605.833
401.321	21.865	799.379	605.732
402.336	21.701	799.440	605.159
403.350	21.940	799.180	605.733
404.365	22.076	798.619	605.723
405.380	22.257	798.017	605.836
406.394	22.449	797.906	606.361
407.409	22.606	797.161	606.281
408.423	22.586	796.757	605.852
409.438	22.626	796.654	605.855
410.453	22.622	796.824	605.919
411.467	22.590	796.019	605.144
412.482	22.963	795.032	605.619
413.496	22.798	795.280	605.185
414.511	22.922	794.839	605.222
415.526	22.940	794.144	604.702
416.540	22.903	793.802	604.260
417.555	22.809	793.301	603.505
418.569	22.654	792.946	602.651
419.584	22.859	792.355	602.848
420.599	22.825	791.607	602.110
421.613	165.330	1370.827	1797.829
422.628	143.389	1455.216	1797.903
