DTS Sentinel unit serial number:	SN413079Multiplexer serial number:	ORYXHardware model number:	OX4-SRSoftware version number:	ORYX F/W v4.00 Oryx Data Collector v3.7.2.0data status	okinstallation	princeton_trtdifferential loss correction	single-endedforward channel	channel 3reverse channel	N/Adate	2019/09/12time	21:36:35forward acquisition time	60.00reverse acquisition time	0.00gamma	496.2192k internal	0.2326k external	0.2326temperature offset calibration	1.0115default loss term (dB/km)	0.3790temperature slope calibration	1.0000multiplexer offset coefficient	1.0000multiplexer slope coefficient	1.0000fibre end	0.00T internal ref (°C)	30.37T ext. ref 1 (°C)	3.65T ext. ref 2 (°C)	24.99length (m)	temperature (°C)	Stokes	anti-Stokes-747.200	-193.177	0.242	0.002
-746.185	59.332	0.356	0.354
-745.171	-136.654	-0.178	0.021
-744.156	-129.669	-0.351	-0.049
-743.142	50.150	0.320	-0.305
-742.127	-109.659	-0.316	0.067
-741.112	79.839	-0.329	-0.356
-740.098	246.727	0.026	-0.044
-739.083	-72.281	-0.126	-0.047
-738.069	155.836	-0.157	0.218
-737.054	234.267	0.135	-0.225
-736.039	-52.684	-0.220	-0.102
-735.025	-78.712	0.260	0.090
-734.010	41.315	-0.044	0.040
-732.996	-6.456	0.104	-0.072
-731.981	800.000	0.095	-0.288
-730.966	490.921	-0.036	-0.083
-729.952	546.410	0.094	0.227
-728.937	234.345	-0.067	0.111
-727.923	577.141	-0.095	0.235
-726.908	0.593	-0.371	0.268
-725.894	800.000	-0.099	-0.294
-724.879	-100.262	-0.192	0.048
-723.864	395.036	-0.019	0.040
-722.850	-28.879	-0.203	-0.117
-721.835	0.255	0.240	0.173
-720.821	330.596	-0.067	0.130
-719.806	-120.828	0.474	0.081
-718.791	-37.773	-0.117	-0.063
-717.777	-49.172	-0.344	0.166
-716.762	-8.510	0.165	-0.112
-715.748	-80.053	0.152	0.051
-714.733	36.481	0.056	0.050
-713.718	-200.000	-0.009	-0.175
-712.704	800.000	0.049	0.137
-711.689	397.084	0.102	0.215
-710.675	-37.957	-0.312	-0.167
-709.660	159.093	-0.152	0.213
-708.645	397.372	0.136	-0.286
-707.631	-55.100	-0.175	-0.079
-706.616	100.462	-0.118	0.138
-705.602	223.172	0.122	-0.198
-704.587	-149.551	-0.226	-0.018
-703.572	-130.607	-0.021	-0.003
-702.558	77.370	0.030	0.032
-701.543	16.902	-0.169	-0.135
-700.529	800.000	0.039	-0.140
-699.514	0.925	-0.072	-0.052
-698.499	-200.000	-0.012	-0.087
-697.485	351.507	-0.050	-0.099
-696.470	579.860	-0.129	-0.319
-695.456	101.490	-0.157	0.185
-694.441	-137.841	0.098	-0.011
-693.426	-95.512	0.174	-0.047
-692.412	277.549	0.066	-0.119
-691.397	-60.473	-0.451	-0.193
-690.383	-163.480	-0.315	-0.015
-689.368	44.456	-0.082	-0.076
-688.354	3.152	-0.113	-0.083
-687.339	64.569	-0.190	0.193
-686.324	355.754	0.226	0.452
-685.310	-95.856	0.052	-0.014
-684.295	97.586	-0.101	-0.117
-683.281	579.400	-0.114	-0.280
-682.266	-200.000	-0.014	-0.123
-681.251	304.002	-0.138	0.258
-680.237	-200.000	-0.022	0.392
-679.222	53.151	0.169	-0.163
-678.208	-43.210	-0.203	0.103
-677.193	177.690	0.240	0.352
-676.178	-147.031	0.188	-0.016
-675.164	100.190	-0.158	-0.184
-674.149	275.462	-0.054	0.096
-673.135	10.309	0.185	-0.142
-672.120	57.266	-0.066	-0.065
-671.105	-200.000	0.049	0.297
-670.091	84.596	0.214	0.235
-669.076	243.359	-0.020	0.034
-668.062	113.674	0.155	0.190
-667.047	800.000	0.113	0.322
-666.032	-72.907	-0.210	-0.078
-665.018	-135.212	-0.160	-0.019
-664.003	800.000	0.067	-0.251
-662.989	170.911	0.113	0.163
-661.974	-7.051	-0.172	-0.117
-660.959	-72.864	0.167	0.062
-659.945	441.011	-0.058	-0.127
-658.930	-200.000	0.062	-0.427
-657.916	-200.000	0.003	-0.076
-656.901	-89.465	-0.145	-0.043
-655.886	-200.000	0.018	-0.211
-654.872	-200.000	0.020	-0.345
-653.857	481.186	-0.135	-0.308
-652.843	40.797	0.081	0.074
-651.828	-137.090	-0.211	-0.024
-650.814	47.849	-0.154	-0.144
-649.799	-18.435	0.051	-0.032
-648.784	554.845	-0.100	-0.241
-647.770	-34.558	-0.152	0.083
-646.755	384.180	0.118	0.244
-645.741	-40.882	0.140	-0.073
-644.726	-69.877	-0.195	0.075
-643.711	800.000	-0.036	-0.109
-642.697	-200.000	0.013	0.130
-641.682	-92.771	0.201	0.057
-640.668	86.798	-0.138	0.154
-639.653	56.965	-0.381	0.373
-638.638	-144.010	0.185	-0.017
-637.624	800.000	0.027	-0.082
-636.609	-85.302	0.280	-0.088
-635.595	-162.922	0.239	0.012
-634.580	-86.345	-0.095	0.029
-633.565	-110.712	-0.283	-0.059
-632.551	-64.451	0.048	-0.019
-631.536	98.005	0.229	0.265
-630.522	-1.145	-0.177	0.126
-629.507	486.531	-0.098	-0.224
-628.492	162.064	0.139	-0.196
-627.478	-57.557	-0.207	-0.091
-626.463	285.460	0.046	0.083
-625.449	262.558	-0.101	-0.175
-624.434	128.336	-0.060	0.076
-623.419	-200.000	0.027	0.261
-622.405	-164.547	0.344	-0.016
-621.390	27.295	0.108	0.091
-620.376	58.854	-0.252	-0.249
-619.361	800.000	-0.143	-0.467
-618.346	76.775	-0.226	-0.241
-617.332	40.526	-0.243	-0.220
-616.317	800.000	-0.075	0.213
-615.303	15.141	-0.272	0.214
-614.288	111.259	-0.213	-0.257
-613.273	155.588	0.106	-0.147
-612.259	800.000	0.020	0.058
-611.244	269.293	0.088	-0.156
-610.230	782.462	-0.097	-0.268
-609.215	-200.000	-0.009	-0.057
-608.201	-131.229	0.239	-0.032
-607.186	-200.000	-0.022	-0.110
-606.171	-95.188	-0.268	-0.073
-605.157	-200.000	-0.087	-0.413
-604.142	800.000	-0.035	0.153
-603.128	-200.000	-0.002	0.074
-602.113	-200.000	0.045	-0.294
-601.098	-42.917	-0.125	0.064
-600.084	-121.407	0.348	0.058
-599.069	-81.730	0.018	0.006
-598.055	22.136	0.331	-0.271
-597.040	-96.218	0.309	-0.082
-596.025	-126.239	0.030	-0.005
-595.011	-200.000	-0.015	-0.088
-593.996	-200.000	-0.050	-0.589
-592.982	800.000	0.078	0.273
-591.967	68.213	0.102	-0.104
-590.952	800.000	0.042	-0.180
-589.938	-200.000	0.040	-0.330
-588.923	-128.281	-0.146	0.021
-587.909	-200.000	-0.010	0.256
-586.894	68.254	0.233	-0.239
-585.879	-69.280	-0.265	-0.102
-584.865	-135.661	0.277	-0.033
-583.850	-12.711	-0.274	0.179
-582.836	-115.994	-0.042	-0.008
-581.821	736.373	0.055	0.149
-580.806	-125.791	-0.097	-0.015
-579.792	-169.970	0.128	-0.005
-578.777	-2.293	0.239	0.168
-577.763	103.465	-0.091	0.107
-576.748	-128.902	0.209	-0.029
-575.733	-159.389	0.397	-0.022
-574.719	-200.000	0.024	0.176
-573.704	-200.000	0.005	0.066
-572.690	144.267	-0.064	-0.085
-571.675	-179.634	0.155	-0.003
-570.661	-200.000	0.029	0.164
-569.646	800.000	-0.044	0.137
-568.631	163.708	0.100	0.141
-567.617	-200.000	-0.036	-0.181
-566.602	800.000	0.091	0.297
-565.588	-200.000	0.026	0.240
-564.573	-5.638	-0.201	-0.138
-563.558	800.000	0.106	-0.384
-562.544	-164.303	0.034	0.002
-561.529	-54.106	0.196	0.089
-560.515	189.148	0.076	0.114
-559.500	-27.161	-0.300	0.175
-558.485	-200.000	-0.011	-0.080
-557.471	-200.000	0.044	-0.258
-556.456	637.152	0.082	0.209
-555.442	800.000	-0.029	0.093
-554.427	-109.667	0.223	0.047
-553.412	93.749	0.086	0.097
-552.398	228.793	-0.087	-0.142
-551.383	-80.347	-0.178	0.060
-550.369	-99.699	-0.068	0.017
-549.354	-11.318	-0.056	0.037
-548.339	15.320	0.164	0.128
-547.325	800.000	0.037	-0.122
-546.310	140.541	-0.272	-0.360
-545.296	-43.175	0.139	0.071
-544.281	-200.000	0.010	0.106
-543.266	34.332	-0.318	0.278
-542.252	-42.496	0.114	-0.058
-541.237	-122.418	0.413	0.067
-540.223	-111.519	-0.079	0.016
-539.208	-14.354	0.154	0.099
-538.193	-151.503	-0.251	-0.019
-537.179	-200.000	0.068	0.469
-536.164	-30.253	0.231	-0.131
-535.150	-154.677	0.208	0.014
-534.135	-11.416	-0.265	-0.175
-533.121	-17.342	-0.189	0.119
-532.106	256.437	-0.157	-0.269
-531.091	-200.000	0.021	-0.136
-530.077	-2.675	0.063	0.044
-529.062	29.137	0.254	0.216
-528.048	68.638	-0.068	0.070
-527.033	149.789	-0.099	0.134
-526.018	-200.000	-0.026	0.273
-525.004	-43.746	-0.219	-0.110
-523.989	-140.405	0.154	0.016
-522.975	-200.000	0.035	-0.244
-521.960	-38.338	0.204	0.108
-520.945	-200.000	-0.009	0.102
-519.931	559.426	0.043	-0.104
-518.916	156.768	-0.094	0.130
-517.902	800.000	-0.062	0.232
-516.887	430.311	-0.060	0.130
-515.872	237.053	0.083	-0.138
-514.858	-108.592	-0.297	0.064
-513.843	-200.000	-0.025	0.120
-512.829	340.701	-0.175	-0.341
-511.814	-155.993	-0.137	-0.009
-510.799	-138.094	0.332	-0.037
-509.785	-88.277	0.257	-0.077
-508.770	-17.501	-0.173	0.109
-507.756	-200.000	0.048	0.299
-506.741	361.755	0.032	-0.065
-505.726	10.379	0.090	0.069
-504.712	-200.000	-0.014	-0.098
-503.697	152.444	0.149	-0.204
-502.683	-39.082	-0.169	-0.089
-501.668	-200.000	-0.044	0.243
-500.653	-60.228	-0.376	0.160
-499.639	-200.000	-0.013	0.165
-498.624	-200.000	-0.052	-0.251
-497.610	69.621	-0.137	-0.141
-496.595	-168.200	0.154	0.006
-495.581	426.947	0.144	0.310
-494.566	-114.278	-0.282	-0.054
-493.551	-144.597	-0.219	-0.020
-492.537	-98.770	0.090	0.023
-491.522	800.000	-0.080	0.226
-490.508	-36.095	-0.307	-0.165
-489.493	-48.488	-0.250	0.120
-488.478	306.189	0.193	0.358
-487.464	15.852	-0.151	-0.119
-486.449	344.831	-0.146	-0.285
-485.435	-179.726	0.161	-0.003
-484.420	-200.000	0.001	0.136
-483.405	-86.906	0.137	-0.042
-482.391	-43.326	0.210	0.106
-481.376	800.000	-0.112	0.439
-480.362	-59.876	-0.226	-0.097
-479.347	18.565	-0.171	0.137
-478.332	-200.000	0.082	-0.417
-477.318	-200.000	-0.389	0.000
-476.303	649.701	-0.042	-0.108
-475.289	188.940	-0.188	0.281
-474.274	-44.917	-0.190	0.095
-473.259	-200.000	0.054	-0.317
-472.245	-89.804	0.394	0.115
-471.230	-148.019	-0.320	0.026
-470.216	-200.000	-0.010	-0.123
-469.201	90.993	-0.046	0.052
-468.186	309.506	-0.079	0.148
-467.172	-200.000	0.017	0.083
-466.157	43.369	0.078	-0.071
-465.143	97.336	0.176	-0.201
-464.128	456.336	0.087	-0.192
-463.113	800.000	0.032	0.130
-462.099	-200.000	-0.009	-0.107
-461.084	19.092	-0.233	0.186
-460.070	60.606	0.280	0.276
-459.055	-93.091	-0.115	0.032
-458.040	50.333	0.040	-0.038
-457.026	-88.999	0.257	-0.076
-456.011	-47.856	-0.153	0.074
-454.997	447.062	0.071	0.156
-453.982	-200.000	0.008	-0.045
-452.968	-83.114	-0.081	-0.026
-451.953	186.002	0.230	-0.341
-450.938	108.161	0.129	-0.153
-449.924	-200.000	-0.324	0.001
-448.909	-109.779	0.058	0.012
-447.895	-200.000	-0.049	-0.220
-446.880	-79.587	0.265	-0.089
-445.865	44.948	0.255	0.234
-444.851	399.207	-0.241	0.504
-443.836	-53.182	0.145	-0.066
-442.822	48.435	-0.125	-0.117
-441.807	-38.738	0.332	0.175
-440.792	-200.000	-0.048	-0.263
-439.778	193.602	0.063	0.095
-438.763	407.953	-0.100	0.211
-437.749	-83.165	-0.297	-0.095
-436.734	104.680	-0.180	-0.212
-435.719	231.422	0.188	-0.308
-434.705	800.000	0.029	0.100
-433.690	314.327	0.195	-0.366
-432.676	-40.068	-0.288	-0.150
-431.661	101.356	0.190	0.221
-430.646	-161.804	0.089	-0.005
-429.632	53.102	0.165	0.157
-428.617	-200.000	0.007	-0.259
-427.603	-102.867	-0.075	0.018
-426.588	-130.867	0.107	-0.014
-425.573	13.690	0.156	0.121
-424.559	-200.000	-0.009	-0.137
-423.544	800.000	0.104	0.447
-422.530	41.589	-0.211	-0.190
-421.515	-53.587	-0.288	0.131
-420.500	110.949	0.207	0.249
-419.486	-8.632	-0.118	0.079
-418.471	-1.921	0.326	-0.228
-417.457	-16.216	-0.431	-0.272
-416.442	-130.657	0.318	-0.043
-415.428	-56.134	-0.185	0.082
-414.413	-131.932	-0.143	0.019
-413.398	211.316	0.046	0.072
-412.384	-86.204	0.319	0.098
-411.369	-1.958	-0.291	-0.203
-410.355	-6.505	0.267	-0.181
-409.340	-165.337	-0.359	-0.016
-408.325	45.485	-0.082	0.076
-407.311	-145.747	0.165	-0.015
-406.296	800.000	-0.061	0.172
-405.282	49.307	0.242	0.226
-404.267	17.583	0.142	0.112
-403.252	86.439	-0.119	0.130
-402.238	-200.000	-0.061	0.269
-401.223	-58.398	-0.095	0.041
-400.209	-54.622	-0.203	-0.092
-399.194	-200.000	0.055	0.397
-398.179	186.095	-0.010	0.014
-397.165	-113.329	0.121	0.024
-396.150	122.205	0.073	-0.090
-395.136	800.000	-0.051	0.204
-394.121	33.290	0.113	0.097
-393.106	129.657	-0.176	0.224
-392.092	-31.831	-0.133	-0.074
-391.077	279.306	-0.102	-0.181
-390.063	213.151	0.076	0.120
-389.048	113.091	-0.087	-0.105
-388.033	284.329	0.059	0.105
-387.019	-111.791	-0.320	0.064
-386.004	417.584	-0.066	0.140
-384.990	53.283	0.118	0.112
-383.975	-25.930	0.258	0.151
-382.960	-14.955	0.350	-0.223
-381.946	-27.874	-0.290	-0.167
-380.931	-12.025	0.122	-0.079
-379.917	521.003	-0.129	0.300
-378.902	106.238	0.149	0.175
-377.888	-134.595	-0.452	0.055
-376.873	673.087	0.082	-0.210
-375.858	800.000	-0.036	-0.104
-374.844	800.000	-0.063	-0.221
-373.829	-200.000	0.004	0.018
-372.815	11.635	-0.043	-0.033
-371.800	219.096	0.135	0.215
-370.785	-200.000	0.010	-0.255
-369.771	-200.000	-0.028	-0.193
-368.756	73.162	0.372	-0.387
-367.742	800.000	0.036	-0.111
-366.727	349.446	0.091	-0.179
-365.712	-68.349	-0.343	0.133
-364.698	120.704	0.169	0.209
-363.683	-55.563	0.176	-0.079
-362.669	71.418	0.087	-0.089
-361.654	17.272	-0.255	0.201
-360.639	-109.272	-0.103	-0.022
-359.625	121.946	0.266	0.330
-358.610	556.538	-0.152	0.364
-357.596	-200.000	0.050	0.221
-356.581	-188.409	-0.248	-0.003
-355.566	361.792	-0.031	0.061
-354.552	-69.114	0.196	0.075
-353.537	800.000	-0.022	0.096
-352.523	-63.139	0.346	0.142
-351.508	-45.620	0.154	-0.076
-350.493	-102.725	-0.118	-0.028
-349.479	1.485	-0.140	-0.100
-348.464	-25.646	-0.224	-0.131
-347.450	-111.654	0.095	-0.019
-346.435	129.249	0.113	0.144
-345.420	0.071	0.167	-0.118
-344.406	87.052	0.190	0.209
-343.391	-173.231	0.257	0.008
-342.377	800.000	0.031	-0.092
-341.362	74.434	0.093	0.097
-340.348	-200.000	0.018	0.142
-339.333	232.859	0.085	-0.139
-338.318	-51.405	0.039	-0.018
-337.304	800.000	-0.067	0.255
-336.289	-200.000	0.001	0.277
-335.275	-115.202	-0.038	-0.007
-334.260	275.846	-0.259	-0.457
-333.245	-122.882	0.014	0.002
-332.231	-3.033	0.128	-0.089
-331.216	1.369	0.275	0.196
-330.202	-200.000	-0.015	-0.277
-329.187	800.000	0.137	-0.393
-328.172	118.346	-0.168	-0.206
-327.158	-200.000	-0.014	0.087
-326.143	-200.000	-0.001	0.300
-325.129	-46.623	0.165	-0.080
-324.114	-29.040	-0.101	0.058
-323.099	-200.000	-0.006	0.349
-322.085	590.851	0.088	0.215
-321.070	306.818	-0.185	-0.341
-320.056	-146.161	-0.148	0.013
-319.041	-154.206	-0.247	0.017
-318.026	-200.000	0.014	-0.166
-317.012	-200.000	0.017	0.237
-315.997	346.972	0.189	0.369
-314.983	12.655	-0.167	0.128
-313.968	598.109	0.125	-0.308
-312.953	34.422	-0.097	-0.084
-311.939	107.722	-0.081	0.096
-310.924	800.000	-0.048	-0.149
-309.910	215.122	0.040	0.063
-308.895	-17.518	-0.058	0.036
-307.880	109.563	-0.269	0.320
-306.866	9.633	-0.216	-0.162
-305.851	285.206	0.057	0.101
-304.837	-171.803	0.098	-0.003
-303.822	2.299	-0.237	-0.170
-302.807	299.140	-0.036	0.066
-301.793	-68.982	0.247	-0.094
-300.778	-200.000	0.022	-0.238
-299.764	-186.106	-0.206	0.003
-298.749	-200.000	-0.010	-0.076
-297.735	-68.503	-0.298	0.114
-296.720	215.065	0.173	-0.271
-295.705	-25.809	0.138	0.081
-294.691	-99.459	-0.199	-0.050
-293.676	53.844	0.152	0.145
-292.662	-13.411	-0.176	0.113
-291.647	-22.447	0.114	0.069
-290.632	-128.166	0.257	-0.036
-289.618	-200.000	0.021	0.168
-288.603	154.632	-0.239	0.325
-287.589	800.000	-0.035	0.120
-286.574	42.044	-0.080	-0.072
-285.559	-137.725	0.296	0.033
-284.545	301.528	0.042	-0.077
-283.530	-127.147	0.251	0.036
-282.516	800.000	0.095	-0.295
-281.501	-114.740	-0.286	0.054
-280.486	-159.370	0.100	-0.006
-279.472	800.000	-0.044	-0.119
-278.457	757.758	0.198	-0.531
-277.443	-200.000	-0.053	0.250
-276.428	-42.871	-0.138	0.070
-275.413	-92.807	0.320	-0.089
-274.399	-54.650	-0.341	-0.153
-273.384	-73.431	-0.242	-0.088
-272.370	-85.113	0.204	0.063
-271.355	-72.080	0.033	-0.012
-270.340	30.308	0.054	0.045
-269.326	-144.910	-0.087	0.008
-268.311	-157.161	0.193	-0.012
-267.297	-109.423	-0.061	-0.013
-266.282	-48.394	0.254	0.121
-265.267	84.734	0.112	-0.121
-264.253	122.792	0.225	-0.279
-263.238	-80.845	0.390	-0.128
-262.224	100.451	0.242	-0.278
-261.209	-47.142	0.132	-0.064
-260.195	-200.000	0.022	-0.293
-259.180	-16.641	-0.057	0.036
-258.165	186.079	0.076	0.112
-257.151	137.431	-0.077	-0.099
-256.136	-144.712	0.348	0.032
-255.122	800.000	0.053	0.191
-254.107	-200.000	0.008	0.353
-253.092	-148.740	0.185	0.015
-252.078	108.052	-0.231	-0.273
-251.063	-31.196	-0.227	-0.126
-250.049	83.913	-0.176	-0.190
-249.034	-104.055	-0.189	0.043
-248.019	128.137	0.247	0.311
-247.005	-49.406	-0.140	0.066
-245.990	-68.899	-0.153	0.059
-244.976	-62.408	0.320	0.132
-243.961	-2.567	-0.083	0.058
-242.946	-21.814	0.078	0.047
-241.932	296.390	0.147	-0.267
-240.917	-88.533	0.137	-0.040
-239.903	91.219	0.146	-0.162
-238.888	-73.091	-0.103	0.037
-237.873	-98.581	-0.268	-0.068
-236.859	-108.086	-0.365	-0.078
-235.844	-12.853	-0.254	-0.163
-234.830	800.000	0.039	-0.142
-233.815	274.250	0.047	-0.082
-232.800	-166.028	-0.137	-0.006
-231.786	-200.000	-0.013	0.122
-230.771	-59.543	-0.111	-0.047
-229.757	100.718	0.233	0.267
-228.742	666.664	0.089	0.226
-227.727	800.000	-0.057	-0.235
-226.713	-141.174	-0.305	0.031
-225.698	-200.000	0.007	-0.463
-224.684	123.747	-0.111	0.138
-223.669	-200.000	0.069	-0.382
-222.655	110.583	0.208	-0.248
-221.640	800.000	-0.024	-0.075
-220.625	527.913	-0.159	-0.371
-219.611	-200.000	0.015	-0.105
-218.596	67.743	0.111	-0.112
-217.582	193.519	-0.111	0.166
-216.567	-53.191	0.116	-0.053
-215.552	-75.372	-0.175	-0.062
-214.538	-2.720	-0.011	0.008
-213.523	175.770	-0.134	-0.192
-212.509	50.766	-0.126	-0.118
-211.494	-56.516	0.181	0.079
-210.479	-5.456	0.229	0.155
-209.465	486.410	-0.045	-0.101
-208.450	-15.887	0.149	-0.093
-207.436	254.313	-0.104	-0.176
-206.421	59.438	-0.215	-0.210
-205.406	-101.193	-0.539	0.130
-204.392	-68.002	-0.285	-0.110
-203.377	39.827	0.166	-0.147
-202.363	221.752	-0.057	0.091
-201.348	800.000	0.025	-0.078
-200.333	-142.262	-0.255	0.025
-199.319	17.378	0.133	0.104
-198.304	6.419	-0.088	0.065
-197.290	-154.099	0.220	-0.015
-196.275	344.798	-0.144	-0.278
-195.260	-44.213	0.251	-0.125
-194.246	-12.640	0.419	0.270
-193.231	17.829	0.041	0.033
-192.217	663.820	0.085	-0.215
-191.202	-200.000	0.040	-0.211
-190.187	-103.994	-0.088	-0.020
-189.173	-13.158	0.252	-0.162
-188.158	800.000	-0.043	0.127
-187.144	298.718	-0.079	-0.143
-186.129	-116.336	0.081	-0.015
-185.114	-8.736	-0.141	0.093
-184.100	800.000	-0.030	0.085
-183.085	386.848	0.134	0.273
-182.071	800.000	0.046	0.138
-181.056	800.000	-0.126	0.364
-180.042	-92.341	-0.200	0.056
-179.027	116.410	0.147	0.178
-178.012	-200.000	0.029	-0.149
-176.998	-41.754	-0.302	0.153
-175.983	136.643	-0.063	-0.081
-174.969	-45.617	0.395	0.193
-173.954	315.250	0.049	-0.091
-172.939	-28.132	0.014	-0.008
-171.925	71.093	0.042	-0.043
-170.910	492.611	0.038	0.086
-169.896	-13.914	-0.100	0.064
-168.881	800.000	-0.077	-0.297
-167.866	-4.747	0.224	-0.153
-166.852	-99.586	-0.288	-0.071
-165.837	109.106	-0.168	0.198
-164.823	364.965	0.074	-0.147
-163.808	9.949	-0.049	0.037
-162.793	-83.680	0.285	0.090
-161.779	-61.391	-0.169	0.070
-160.764	-200.000	-0.016	0.263
-159.750	630.024	-0.095	0.238
-158.735	-56.771	-0.468	0.204
-157.720	800.000	-0.031	0.099
-156.706	79.662	-0.102	0.108
-155.691	-58.330	0.288	0.124
-154.677	-200.000	-0.013	0.105
-153.662	-65.478	0.181	-0.072
-152.647	-200.000	-0.016	0.285
-151.633	-59.866	0.084	-0.035
-150.618	-200.000	0.015	-0.072
-149.604	-24.589	0.108	-0.063
-148.589	-200.000	0.012	0.372
-147.574	-108.689	-0.107	-0.023
-146.560	-111.683	0.175	-0.035
-145.545	800.000	-0.060	-0.250
-144.531	800.000	0.053	-0.224
-143.516	-71.586	0.229	-0.084
-142.502	-66.889	0.219	0.085
-141.487	-92.537	-0.249	-0.069
-140.472	-42.285	0.107	-0.054
-139.458	-200.000	0.050	-0.326
-138.443	-132.992	-0.192	-0.024
-137.429	-200.000	0.044	-0.223
-136.414	-200.000	0.014	0.145
-135.399	26.041	-0.210	-0.173
-134.385	-58.362	0.138	-0.059
-133.370	-20.134	0.557	-0.338
-132.356	-83.725	0.298	-0.094
-131.341	-139.336	0.393	0.042
-130.326	-154.245	0.380	-0.025
-129.312	-142.663	0.211	0.020
-128.297	183.491	-0.087	0.127
-127.283	685.495	-0.116	0.298
-126.268	-200.000	-0.002	0.092
-125.253	-200.000	-0.007	-0.290
-124.239	-200.000	-0.012	-0.070
-123.224	27.069	0.341	0.282
-122.210	50.536	0.177	-0.164
-121.195	-200.000	0.028	-0.222
-120.180	-104.759	-0.154	-0.035
-119.166	172.335	0.182	0.258
-118.151	-200.000	0.002	-0.290
-117.137	800.000	0.088	-0.347
-116.122	-136.720	-0.354	0.040
-115.107	-93.556	-0.306	0.083
-114.093	-62.026	0.330	0.136
-113.078	-94.491	0.119	0.032
-112.064	29.414	0.080	0.067
-111.049	238.186	0.128	0.209
-110.034	-127.479	0.106	-0.015
-109.020	286.327	-0.143	0.254
-108.005	-5.461	0.238	-0.160
-106.991	534.803	-0.068	-0.159
-105.976	-200.000	-0.019	0.275
-104.962	800.000	-0.045	-0.179
-103.947	-140.786	0.166	0.017
-102.932	800.000	-0.105	0.330
-101.918	-200.000	0.046	-0.300
-100.903	-89.564	0.109	-0.031
-99.889	-200.000	-0.006	-0.042
-98.874	-45.714	0.054	0.026
-97.859	-86.793	0.352	-0.106
-96.845	45.993	0.058	0.053
-95.830	-15.269	0.063	0.040
-94.816	18.067	-0.150	-0.118
-93.801	-115.584	0.228	-0.042
-92.786	36.187	-0.066	0.057
-91.772	-200.000	0.009	0.213
-90.757	-175.663	0.267	-0.007
-89.743	-136.272	0.281	-0.032
-88.728	361.847	0.048	-0.094
-87.713	-200.000	-0.009	0.230
-86.699	131.039	0.111	0.140
-85.684	5.213	0.083	-0.060
-84.670	-200.000	0.015	-0.465
-83.655	46.340	-0.146	-0.133
-82.640	800.000	0.032	-0.101
-81.626	134.319	-0.089	-0.113
-80.611	800.000	0.062	-0.197
-79.597	800.000	-0.020	-0.084
-78.582	56.081	0.307	-0.293
-77.567	46.894	0.204	-0.186
-76.553	122.170	-0.124	-0.152
-75.538	-105.133	0.053	0.012
-74.524	78.281	0.146	-0.154
-73.509	-50.246	0.392	-0.182
-72.494	-152.977	-0.214	-0.015
-71.480	-144.937	0.551	-0.049
-70.465	-200.000	-0.002	0.196
-69.451	570.000	-0.105	0.250
-68.436	34.986	-0.115	-0.099
-67.422	-112.296	-0.258	-0.051
-66.407	-134.286	0.245	0.030
-65.392	-200.000	-0.009	0.255
-64.378	-112.942	0.330	0.064
-63.363	166.081	0.114	-0.158
-62.349	-35.222	0.199	0.107
-61.334	152.249	-0.990	-1.327
-60.319	-200.000	0.029	0.415
-59.305	-200.000	-0.111	-0.927
-58.290	210.254	0.728	1.123
-57.276	594.020	0.689	1.672
-56.261	-200.000	103.999	578.164
-55.246	539.265	1442.931	3370.019
-54.232	187.312	2625.426	3844.270
-53.217	112.651	2158.761	2565.842
-52.203	40.831	1691.187	1497.708
-51.188	33.498	1503.719	1282.250
-50.173	31.111	1476.952	1243.485
-49.159	51.416	1530.885	1427.282
-48.144	52.234	1548.601	1449.303
-47.130	33.632	1505.327	1284.320
-46.115	30.744	1489.897	1251.717
-45.100	30.481	1487.159	1247.601
-44.086	30.530	1484.680	1245.802
-43.071	30.387	1482.741	1243.168
-42.057	30.392	1481.083	1241.759
-41.042	30.347	1480.031	1240.527
-40.027	30.368	1478.786	1239.579
-39.013	30.331	1476.852	1237.658
-37.998	30.332	1475.773	1236.712
-36.984	30.442	1474.404	1236.247
-35.969	30.411	1473.220	1235.001
-34.954	30.353	1472.064	1233.596
-33.940	30.325	1470.745	1232.255
-32.925	30.451	1469.194	1231.745
-31.911	30.385	1468.168	1230.400
-30.896	30.437	1466.874	1229.607
-29.881	30.572	1465.064	1228.938
-28.867	30.435	1464.246	1227.296
-27.852	30.452	1463.052	1226.356
-26.838	30.431	1461.595	1224.951
-25.823	30.449	1459.958	1223.650
-24.809	30.446	1458.547	1222.398
-23.794	30.373	1457.335	1220.853
-22.779	30.457	1456.054	1220.282
-21.765	30.400	1455.472	1219.370
-20.750	30.341	1453.693	1217.447
-19.736	30.417	1452.666	1217.033
-18.721	30.329	1452.115	1215.953
-17.706	30.412	1450.358	1214.975
-16.692	30.303	1449.662	1213.630
-15.677	30.303	1448.694	1212.773
-14.663	30.402	1447.156	1212.081
-13.648	30.299	1446.986	1211.216
-12.633	30.510	1445.329	1211.156
-11.619	30.242	1444.942	1209.037
-10.604	30.231	1444.147	1208.256
-9.590	30.276	1443.210	1207.713
-8.575	30.327	1442.042	1207.024
-7.560	30.428	1440.821	1206.610
-6.546	30.345	1440.488	1205.740
-5.531	30.345	1439.580	1204.933
-4.517	30.337	1438.758	1204.145
-3.502	30.337	1437.188	1202.787
-2.487	30.348	1436.111	1201.908
-1.473	30.335	1435.332	1201.123
-0.458	30.438	1434.179	1200.780
0.556	31.655	1424.812	1188.885
1.571	28.618	1400.173	1149.240
2.586	24.929	1342.400	1079.527
3.600	23.085	1262.939	1005.068
4.615	21.670	1217.187	960.814
5.629	18.776	1161.435	901.557
6.644	10.796	1078.548	798.092
7.659	4.677	1039.327	739.965
8.673	3.903	1034.074	732.493
9.688	3.688	1030.442	728.844
10.702	3.493	1028.854	726.735
11.717	3.537	1026.900	725.497
12.731	6.289	1029.883	740.505
13.746	14.446	1041.462	787.443
14.761	21.580	1050.425	828.019
15.775	23.587	1052.097	838.760
16.790	23.367	1050.499	836.373
17.804	22.670	1049.056	831.866
18.819	22.092	1047.650	827.950
19.834	21.895	1046.883	826.344
20.848	21.826	1046.604	825.728
21.863	21.910	1046.015	825.584
22.877	21.901	1045.516	825.075
23.892	21.728	1044.612	823.477
24.907	21.568	1043.619	821.867
25.921	21.506	1042.795	820.857
26.936	21.525	1041.981	820.231
27.950	21.330	1041.239	818.661
28.965	21.273	1039.827	817.213
29.980	21.230	1038.902	816.212
30.994	21.503	1038.205	816.868
32.009	21.788	1036.830	817.040
33.023	21.760	1036.397	816.500
34.038	21.865	1035.604	816.287
35.053	21.684	1035.033	814.927
36.067	21.548	1033.718	813.184
37.082	21.376	1032.860	811.640
38.096	21.445	1031.895	811.130
39.111	21.452	1032.115	811.264
40.126	21.750	1030.908	811.625
41.140	21.638	1029.649	810.043
42.155	21.088	1028.495	806.520
43.169	20.943	1027.251	804.805
44.184	20.889	1026.011	803.515
45.199	20.792	1024.937	802.155
46.213	20.969	1024.120	802.261
47.228	21.116	1023.477	802.360
48.242	21.498	1022.808	803.518
49.257	21.763	1022.902	804.741
50.271	21.567	1021.600	802.746
51.286	21.597	1020.619	802.041
52.301	21.802	1021.001	803.210
53.315	21.709	1019.945	801.882
54.330	21.638	1018.919	800.677
55.344	21.523	1017.773	799.185
56.359	21.309	1016.976	797.508
57.374	21.308	1015.862	796.561
58.388	21.337	1014.902	795.869
59.403	21.082	1014.414	794.256
60.417	20.888	1013.466	792.560
61.432	20.920	1012.705	792.040
62.447	21.002	1012.003	791.796
63.461	20.946	1011.095	790.762
64.476	20.939	1010.048	789.839
65.490	20.748	1009.465	788.448
66.505	20.644	1008.521	787.173
67.520	20.900	1007.479	787.446
68.534	20.734	1007.316	786.496
69.549	20.759	1006.477	785.885
70.563	20.704	1005.050	784.456
71.578	20.570	1004.546	783.389
72.593	20.367	1003.575	781.646
73.607	20.231	1002.347	780.010
74.622	20.240	1000.981	778.920
75.636	20.298	1000.781	778.956
76.651	20.385	999.901	778.590
77.666	20.438	999.112	778.145
78.680	20.546	998.715	778.251
79.695	20.539	998.392	777.897
80.709	20.368	997.745	776.559
81.724	20.735	996.606	777.247
82.739	20.821	996.074	777.145
83.753	20.870	995.593	776.921
84.768	21.309	995.187	778.492
85.782	21.828	994.883	780.494
86.797	22.155	994.263	781.391
87.812	22.202	993.678	781.073
88.826	21.902	992.697	778.902
89.841	21.817	991.728	777.695
90.855	21.990	991.129	777.925
91.870	21.995	990.456	777.350
92.884	21.915	989.905	776.494
93.899	21.942	988.949	775.793
94.914	21.868	987.995	774.650
95.928	21.835	987.018	773.669
96.943	21.862	986.833	773.574
97.957	21.738	985.419	771.853
98.972	21.605	984.062	770.135
99.987	21.658	983.913	770.185
101.001	21.825	983.197	770.291
102.016	21.832	982.608	769.792
103.030	21.579	981.500	767.747
104.045	21.631	980.530	767.149
105.060	21.925	979.584	767.624
106.074	21.641	979.052	765.898
107.089	21.511	977.755	764.250
108.103	21.298	976.431	762.215
109.118	21.072	975.649	760.554
110.133	20.795	974.482	758.369
111.147	20.678	973.645	757.145
112.162	20.462	972.995	755.629
113.176	20.682	971.536	755.387
114.191	20.742	970.873	755.065
115.206	20.934	970.124	755.248
116.220	20.985	969.533	754.942
117.235	20.783	968.506	753.201
118.249	20.767	967.939	752.625
119.264	20.697	967.013	751.536
120.279	20.457	966.227	749.824
121.293	20.546	965.047	749.224
122.308	20.279	964.532	747.607
123.322	20.369	963.511	747.138
124.337	20.129	962.600	745.332
125.352	20.084	961.137	743.940
126.366	20.195	960.254	743.668
127.381	20.212	959.436	743.040
128.395	20.348	958.587	742.900
129.410	20.530	957.805	743.006
130.424	20.451	957.366	742.262
131.439	20.605	956.549	742.219
132.454	20.852	955.779	742.612
133.468	21.002	955.048	742.616
134.483	21.048	954.471	742.297
135.497	20.847	954.025	741.029
136.512	21.017	952.839	740.767
137.527	20.916	952.283	739.837
138.541	21.001	951.739	739.710
139.556	20.895	951.401	738.935
140.570	21.093	950.119	738.709
141.585	21.185	949.649	738.670
142.600	21.536	949.200	739.738
143.614	21.650	948.558	739.655
144.629	21.772	948.274	739.883
145.643	21.916	947.338	739.695
146.658	21.805	946.624	738.605
147.673	21.601	945.377	736.708
148.687	21.361	944.288	734.783
149.702	21.132	942.899	732.677
150.716	21.104	941.216	731.186
151.731	20.894	940.798	729.919
152.746	21.016	940.142	729.853
153.760	21.077	940.016	729.949
154.775	21.154	938.999	729.416
155.789	21.349	937.869	729.286
156.804	21.486	937.353	729.394
157.819	21.504	936.807	728.980
158.833	21.366	936.150	727.828
159.848	21.740	935.324	728.676
160.862	21.820	935.011	728.701
161.877	21.658	934.054	727.217
162.892	21.274	932.934	724.688
163.906	21.054	931.755	722.798
164.921	20.942	930.540	721.329
165.935	20.822	929.763	720.164
166.950	20.973	928.885	720.045
167.964	21.131	927.997	719.946
168.979	21.255	927.235	719.801
169.994	21.089	926.285	718.316
171.008	20.919	925.317	716.801
172.023	21.126	924.501	716.958
173.037	21.531	924.054	718.213
174.052	21.690	923.972	718.734
175.067	21.567	922.852	717.296
176.081	21.060	921.654	714.226
177.096	20.691	920.802	711.994
178.110	20.635	919.986	711.071
179.125	20.629	919.543	710.640
180.140	20.791	918.270	710.257
181.154	20.730	917.794	709.578
182.169	21.258	917.628	711.537
183.183	21.588	917.052	712.370
184.198	21.474	916.716	711.584
185.213	21.527	916.013	711.188
186.227	21.460	915.469	710.430
187.242	21.443	914.713	709.714
188.256	21.584	914.293	709.894
189.271	21.804	913.740	710.293
190.286	21.962	912.930	710.242
191.300	21.579	912.271	708.118
192.315	21.050	910.548	704.580
193.329	20.706	909.540	702.350
194.344	20.540	909.367	701.486
195.359	20.759	909.319	702.270
196.373	21.074	908.577	702.904
197.388	21.203	907.884	702.824
198.402	21.480	907.432	703.528
199.417	21.710	907.973	704.808
200.432	21.920	907.995	705.608
201.446	22.075	907.129	705.496
202.461	22.239	906.745	705.793
203.475	22.190	906.517	705.356
204.490	22.197	905.411	704.463
205.504	21.768	904.037	701.616
206.519	21.372	903.104	699.244
207.534	21.497	902.639	699.321
208.548	21.441	901.425	698.098
209.563	21.425	901.108	697.725
210.577	21.515	900.674	697.684
211.592	21.518	900.028	697.134
212.607	21.796	900.070	698.215
213.621	22.046	899.562	698.751
214.636	21.946	899.278	698.071
215.650	21.828	897.844	696.430
216.665	21.838	897.831	696.397
217.680	21.894	897.262	696.118
218.694	21.964	896.583	695.806
219.709	22.002	896.497	695.827
220.723	21.989	895.497	694.937
221.738	21.933	894.343	693.761
222.753	21.715	893.909	692.501
223.767	21.623	893.527	691.780
224.782	21.823	892.619	691.803
225.796	22.043	892.229	692.310
226.811	22.224	891.579	692.457
227.826	21.894	890.576	690.319
228.840	21.618	890.072	688.780
229.855	21.663	889.250	688.262
230.869	21.645	888.530	687.571
231.884	21.470	888.225	686.589
232.899	21.486	887.159	685.764
233.913	21.481	886.490	685.166
234.928	21.380	885.941	684.287
235.942	21.095	885.368	682.671
236.957	21.051	884.197	681.536
237.972	21.116	883.307	681.043
238.986	21.046	882.958	680.440
240.001	21.031	882.372	679.869
241.015	21.074	881.625	679.402
242.030	21.185	881.009	679.297
243.045	21.355	880.794	679.735
244.059	21.543	880.283	680.010
245.074	21.673	879.628	679.948
246.088	21.662	879.251	679.554
247.103	21.739	878.680	679.351
248.117	21.992	878.586	680.199
249.132	22.149	878.353	680.566
250.147	22.539	878.061	681.787
251.161	22.961	877.692	683.075
252.176	23.117	877.235	683.261
253.190	23.100	876.401	682.485
254.205	23.131	876.259	682.434
255.220	23.157	875.711	682.046
256.234	23.083	874.473	680.736
257.249	22.924	874.284	679.916
258.263	22.824	873.875	679.154
259.278	22.799	873.147	678.431
260.293	22.762	872.298	677.572
261.307	22.825	871.896	677.440
262.322	22.999	871.641	677.849
263.336	23.093	870.893	677.567
264.351	23.089	870.479	677.171
265.366	22.897	869.577	675.676
266.380	22.914	868.705	675.002
267.395	23.003	868.274	674.948
268.409	22.871	867.462	673.752
269.424	22.868	866.435	672.886
270.439	22.667	866.554	672.150
271.453	22.660	865.345	671.126
272.468	22.655	864.202	670.164
273.482	22.501	863.905	669.289
274.497	22.606	863.247	669.120
275.512	22.460	862.473	667.903
276.526	22.485	861.912	667.506
277.541	22.578	861.176	667.230
278.555	22.587	861.031	667.092
279.570	22.870	860.789	667.917
280.585	23.074	860.274	668.230
281.599	23.198	859.654	668.155
282.614	22.923	858.971	666.529
283.628	22.519	857.982	664.181
284.643	22.436	857.632	663.538
285.657	22.618	856.973	663.654
286.672	22.463	856.763	662.850
287.687	22.508	856.179	662.509
288.701	22.709	855.573	662.733
289.716	22.726	855.256	662.496
290.730	22.687	854.728	661.879
291.745	22.655	853.803	660.986
292.760	22.722	853.547	660.980
293.774	22.570	853.208	660.090
294.789	23.119	852.616	661.627
295.803	23.124	852.396	661.417
296.818	22.924	851.019	659.544
297.833	22.579	850.793	658.022
298.847	22.688	849.533	657.396
299.862	22.622	849.060	656.727
300.876	22.542	848.595	656.009
301.891	22.774	847.999	656.354
302.906	23.122	847.418	657.139
303.920	23.317	847.299	657.714
304.935	23.387	846.984	657.671
305.949	23.597	846.392	657.933
306.964	23.467	845.768	656.906
307.979	23.207	844.915	655.223
308.993	23.016	844.125	653.847
310.008	22.999	843.989	653.620
311.022	23.213	843.605	654.054
312.037	23.240	842.754	653.437
313.052	22.879	842.396	651.771
314.066	22.827	841.294	650.668
315.081	22.477	840.357	648.597
316.095	22.435	839.778	647.937
317.110	22.378	839.320	647.318
318.125	22.622	838.871	647.811
319.139	22.504	838.333	646.903
320.154	22.337	837.556	645.638
321.168	22.260	836.862	644.762
322.183	22.444	836.673	645.233
323.197	22.475	836.374	645.060
324.212	22.712	835.688	645.340
325.227	22.437	835.472	644.111
326.241	22.699	834.676	644.395
327.256	22.670	833.742	643.514
328.270	22.451	833.417	642.405
329.285	22.361	832.916	641.636
330.300	22.371	832.517	641.306
331.314	22.363	831.637	640.543
332.329	22.471	830.838	640.265
333.343	22.683	830.350	640.602
334.358	23.052	829.957	641.582
335.373	22.929	829.768	640.933
336.387	23.016	829.365	640.878
337.402	23.033	828.982	640.589
338.416	23.151	828.528	640.606
339.431	23.297	828.446	641.016
340.446	23.622	828.070	641.842
341.460	23.750	827.178	641.559
342.475	23.858	826.720	641.535
343.489	23.774	826.415	640.939
344.504	23.794	825.896	640.554
345.519	24.055	825.207	640.903
346.533	24.083	824.901	640.708
347.548	24.060	824.415	640.189
348.562	23.633	823.740	638.075
349.577	23.440	822.889	636.666
350.592	23.121	822.212	634.942
351.606	22.999	821.217	633.679
352.621	23.019	820.607	633.224
353.635	22.707	820.615	632.056
354.650	22.862	820.461	632.438
355.665	22.991	820.089	632.557
356.679	23.145	819.239	632.396
357.694	23.247	818.690	632.281
358.708	23.306	818.035	631.928
359.723	23.306	817.437	631.412
360.738	23.197	816.871	630.530
361.752	23.240	816.277	630.168
362.767	23.228	816.189	630.000
363.781	23.444	816.463	630.928
364.796	23.870	815.970	632.004
365.810	23.853	816.086	631.978
366.825	24.194	815.277	632.507
367.840	24.211	814.791	632.133
368.854	24.138	814.566	631.644
369.869	23.879	813.904	630.158
370.883	23.746	813.117	629.022
371.898	23.685	812.320	628.135
372.913	23.802	812.158	628.365
373.927	24.194	811.152	628.918
374.942	23.974	810.428	627.523
375.956	23.738	810.022	626.322
376.971	23.913	809.648	626.593
377.986	24.061	808.987	626.546
379.000	24.196	808.747	626.780
380.015	24.238	808.526	626.701
381.029	24.163	808.002	625.977
382.044	24.143	807.267	625.280
383.059	24.276	806.489	625.090
384.073	24.268	806.132	624.732
385.088	24.137	805.514	623.736
386.102	23.878	804.421	621.931
387.117	23.699	803.379	620.444
388.132	23.474	803.170	619.442
389.146	23.459	802.648	618.931
390.161	23.501	802.668	619.038
391.175	23.696	802.148	619.263
392.190	24.083	801.942	620.397
393.205	23.977	801.251	619.439
394.219	23.639	801.093	618.087
395.234	23.297	800.218	616.168
396.248	23.256	799.618	615.506
397.263	23.333	799.040	615.274
398.278	23.377	798.511	614.968
399.292	23.185	797.769	613.675
400.307	23.192	797.799	613.668
401.321	23.022	797.257	612.608
402.336	23.041	796.776	612.250
403.350	23.251	796.516	612.724
404.365	23.511	796.278	613.386
405.380	23.763	796.050	614.026
406.394	24.148	796.167	615.390
407.409	24.337	795.863	615.754
408.423	24.459	795.366	615.737
409.438	24.627	794.565	615.641
410.453	24.657	794.204	615.411
411.467	24.661	794.124	615.308
412.482	24.452	793.499	614.052
413.496	24.654	793.063	614.352
414.511	24.629	792.871	614.063
415.526	24.683	792.425	613.849
416.540	24.487	791.671	612.537
417.555	24.450	791.096	611.914
418.569	24.502	790.591	611.646
419.584	24.514	789.972	611.154
420.599	24.505	789.850	610.975
421.613	162.781	1369.793	1797.835
422.628	141.050	1454.293	1797.926
