DTS Sentinel unit serial number:	SN413079Multiplexer serial number:	ORYXHardware model number:	OX4-SRSoftware version number:	ORYX F/W v4.00 Oryx Data Collector v3.7.2.0data status	okinstallation	princeton_trtdifferential loss correction	single-endedforward channel	channel 3reverse channel	N/Adate	2019/09/18time	10:40:35forward acquisition time	60.00reverse acquisition time	0.00gamma	496.2192k internal	0.2329k external	0.2329temperature offset calibration	0.9950default loss term (dB/km)	0.3790temperature slope calibration	1.0000multiplexer offset coefficient	1.0000multiplexer slope coefficient	1.0000fibre end	0.00T internal ref (°C)	28.69T ext. ref 1 (°C)	0.36T ext. ref 2 (°C)	25.40length (m)	temperature (°C)	Stokes	anti-Stokes-747.200	32.233	0.236	0.205
-746.185	199.614	0.141	-0.219
-745.171	-127.035	-0.217	-0.032
-744.156	-30.889	0.210	0.120
-743.142	95.326	-0.234	-0.269
-742.127	156.138	0.104	-0.145
-741.112	27.103	0.261	0.220
-740.098	-9.749	0.207	-0.139
-739.083	800.000	0.045	-0.173
-738.069	-75.205	0.206	0.074
-737.054	76.982	-0.096	0.102
-736.039	800.000	0.008	0.024
-735.025	-16.185	-0.191	0.123
-734.010	286.868	0.146	-0.265
-732.996	289.512	-0.123	-0.224
-731.981	257.139	-0.110	-0.190
-730.966	-39.150	-0.228	0.121
-729.952	85.194	0.206	0.227
-728.937	-134.707	-0.439	-0.054
-727.923	367.453	-0.038	-0.078
-726.908	-200.000	-0.070	-0.423
-725.894	-23.312	0.083	-0.050
-724.879	-200.000	0.022	-0.239
-723.864	484.778	0.080	0.184
-722.850	-93.575	0.305	-0.085
-721.835	-71.708	-0.282	-0.106
-720.821	441.398	-0.182	-0.401
-719.806	184.414	-0.063	-0.094
-718.791	-30.082	0.305	-0.175
-717.777	-154.232	-0.070	0.005
-716.762	-200.000	0.004	0.067
-715.748	-47.342	0.217	0.106
-714.733	-66.478	-0.156	-0.062
-713.718	259.862	0.170	-0.296
-712.704	-48.744	-0.326	-0.157
-711.689	-200.000	0.045	0.000
-710.675	-200.000	-0.003	0.092
-709.660	-20.465	0.100	-0.062
-708.645	364.511	-0.167	-0.338
-707.631	-3.812	0.046	-0.032
-706.616	591.700	-0.149	-0.369
-705.602	-75.135	-0.107	-0.038
-704.587	156.629	0.189	-0.262
-703.572	-132.334	-0.492	0.064
-702.558	-105.071	-0.207	-0.048
-701.543	55.537	0.368	0.358
-700.529	800.000	-0.090	0.310
-699.514	110.598	-0.093	0.113
-698.499	800.000	-0.101	-0.409
-697.485	-68.376	0.024	0.009
-696.470	-200.000	0.023	0.156
-695.456	-97.823	0.306	0.079
-694.441	161.655	0.210	0.295
-693.426	142.970	-0.134	0.179
-692.412	87.031	0.119	-0.132
-691.397	800.000	-0.037	-0.155
-690.383	453.860	0.082	-0.183
-689.368	-200.000	0.056	-0.360
-688.354	-200.000	0.028	0.165
-687.339	-76.884	-0.117	-0.041
-686.324	16.862	-0.193	-0.154
-685.310	68.332	-0.009	-0.009
-684.295	-11.892	-0.104	-0.068
-683.281	-93.320	-0.167	0.047
-682.266	48.367	-0.171	-0.161
-681.251	800.000	0.091	0.263
-680.237	588.062	-0.092	-0.228
-679.222	621.774	-0.107	-0.270
-678.208	-200.000	-0.042	-0.351
-677.193	-13.364	0.209	-0.136
-676.178	-200.000	-0.022	-0.187
-675.164	-200.000	0.002	-0.020
-674.149	800.000	-0.072	0.255
-673.135	62.927	-0.124	0.125
-672.120	176.440	0.165	0.241
-671.105	-19.172	0.256	0.160
-670.091	28.757	0.319	0.271
-669.076	800.000	-0.057	-0.178
-668.062	174.767	-0.064	-0.093
-667.047	-200.000	-0.062	-0.291
-666.032	-146.179	0.314	0.028
-665.018	37.442	-0.064	0.057
-664.003	-187.217	0.324	-0.004
-662.989	265.312	0.150	-0.263
-661.974	-200.000	0.027	-0.130
-660.959	-14.387	-0.151	-0.098
-659.945	212.550	0.204	-0.323
-658.930	-87.327	-0.177	-0.054
-657.916	-119.459	-0.100	0.017
-656.901	-139.837	-0.298	0.032
-655.886	-200.000	0.016	-0.304
-654.872	-200.000	-0.005	-0.090
-653.857	800.000	0.037	-0.136
-652.843	324.311	-0.137	0.262
-651.828	656.049	-0.062	0.159
-650.814	-50.670	-0.093	0.044
-649.799	83.331	0.149	-0.163
-648.784	47.594	-0.145	0.136
-647.770	-200.000	0.388	0.002
-646.755	50.906	0.175	-0.166
-645.741	164.942	0.099	0.140
-644.726	300.906	0.015	0.027
-643.711	745.389	-0.053	-0.143
-642.697	37.636	0.059	0.053
-641.682	260.338	-0.136	-0.236
-640.668	-100.559	-0.194	0.048
-639.653	-27.936	-0.193	-0.112
-638.638	-111.315	0.318	0.065
-637.624	80.200	-0.011	0.012
-636.609	-103.382	-0.109	-0.026
-635.595	-61.809	-0.086	0.036
-634.580	-82.046	-0.399	0.131
-633.565	114.012	0.131	-0.160
-632.551	-115.625	-0.280	-0.053
-631.536	800.000	-0.095	-0.263
-630.522	394.143	0.114	0.238
-629.507	-200.000	-0.008	0.341
-628.492	39.508	-0.081	-0.073
-627.478	-200.000	-0.022	-0.389
-626.463	-33.488	-0.450	-0.249
-625.449	-71.872	-0.054	-0.020
-624.434	104.065	-0.194	-0.229
-623.419	47.502	-0.244	-0.228
-622.405	-83.546	-0.458	0.147
-621.390	627.131	0.070	0.178
-620.376	0.661	0.143	-0.103
-619.361	-200.000	0.001	-0.016
-618.346	-53.417	-0.111	0.051
-617.332	-109.503	-0.144	-0.031
-616.317	-87.488	-0.307	-0.093
-615.303	-94.053	-0.221	-0.061
-614.288	-72.804	-0.173	0.064
-613.273	271.520	-0.084	-0.148
-612.259	504.492	0.050	0.117
-611.244	-82.063	0.115	-0.038
-610.230	-200.000	0.033	-0.160
-609.215	-8.993	-0.181	0.121
-608.201	-126.347	0.219	-0.033
-607.186	-200.000	-0.141	0.001
-606.171	62.401	-0.379	0.379
-605.157	800.000	-0.066	-0.243
-604.142	363.391	0.071	0.143
-603.128	6.393	0.025	-0.019
-602.113	63.006	-0.173	0.174
-601.098	-62.623	-0.124	-0.052
-600.084	-99.649	0.109	0.027
-599.069	-91.685	-0.157	0.045
-598.055	28.496	-0.303	0.257
-597.040	103.818	-0.034	-0.040
-596.025	105.529	-0.093	0.110
-595.011	800.000	0.114	-0.342
-593.996	-8.232	0.158	0.106
-592.982	-31.162	-0.142	-0.080
-591.967	-16.766	-0.165	0.104
-590.952	311.182	0.162	0.304
-589.938	545.038	-0.176	0.422
-588.923	-144.808	-0.191	0.018
-587.909	-200.000	-0.007	-0.208
-586.894	-101.293	-0.306	0.075
-585.879	242.442	-0.212	-0.354
-584.865	18.409	-0.334	-0.268
-583.850	-74.082	0.052	0.019
-582.836	-78.471	-0.094	0.032
-581.821	58.244	-0.304	0.299
-580.806	80.809	0.014	0.015
-579.792	-145.524	-0.175	0.016
-578.777	-200.000	-0.054	-0.241
-577.763	800.000	0.091	-0.298
-576.748	-200.000	0.028	0.344
-575.733	-100.907	-0.187	0.046
-574.719	-200.000	-0.057	-0.462
-573.704	-200.000	0.032	-0.176
-572.690	-200.000	-0.074	-0.374
-571.675	112.252	-0.139	-0.168
-570.661	800.000	-0.042	-0.131
-569.646	-66.128	0.078	0.031
-568.631	800.000	0.019	-0.078
-567.617	67.521	-0.094	0.096
-566.602	623.283	0.130	-0.327
-565.588	800.000	0.021	0.090
-564.573	-200.000	-0.034	-0.276
-563.558	225.644	0.195	0.317
-562.544	-200.000	-0.003	-0.157
-561.529	361.680	-0.163	0.327
-560.515	-100.665	-0.412	0.102
-559.500	-191.661	0.208	0.002
-558.485	-62.721	-0.210	-0.087
-557.471	294.513	-0.192	-0.351
-556.456	65.266	-0.091	0.092
-555.442	127.716	-0.194	0.246
-554.427	-77.897	0.305	0.105
-553.412	-28.070	0.146	0.084
-552.398	-200.000	0.033	-0.259
-551.383	168.474	0.117	-0.166
-550.369	-200.000	0.005	0.242
-549.354	376.156	-0.153	0.312
-548.339	227.581	0.052	0.085
-547.325	149.081	0.171	-0.231
-546.310	-54.166	-0.391	-0.177
-545.296	-111.775	-0.248	0.050
-544.281	472.640	0.087	0.196
-543.266	500.569	-0.104	0.241
-542.252	-121.343	0.147	0.024
-541.237	-11.995	-0.090	-0.059
-540.223	-154.502	0.339	-0.023
-539.208	395.797	-0.072	-0.150
-538.193	-200.000	-0.000	-0.071
-537.179	-35.729	-0.331	0.179
-536.164	-200.000	0.008	-0.361
-535.150	-136.376	0.204	-0.024
-534.135	-119.882	-0.232	-0.040
-533.121	-31.471	-0.093	0.052
-532.106	769.604	-0.074	0.201
-531.091	-95.586	-0.293	0.078
-530.077	800.000	0.006	0.025
-529.062	366.322	0.105	0.212
-528.048	-200.000	-0.020	0.097
-527.033	276.985	0.035	-0.063
-526.018	800.000	-0.040	0.156
-525.004	-73.561	-0.120	-0.044
-523.989	800.000	-0.024	-0.069
-522.975	-200.000	-0.006	-0.066
-521.960	-200.000	0.020	-0.096
-520.945	-200.000	-0.016	0.278
-519.931	-188.273	0.327	-0.004
-518.916	-136.361	-0.261	0.030
-517.902	485.132	0.080	0.181
-516.887	-200.000	0.033	0.311
-515.872	43.071	-0.122	0.111
-514.858	-100.879	-0.323	0.079
-513.843	107.680	0.124	0.148
-512.829	800.000	-0.073	0.230
-511.814	24.063	-0.083	0.069
-510.799	404.386	0.028	0.059
-509.785	-9.451	0.136	-0.091
-508.770	-200.000	0.022	-0.345
-507.756	327.550	0.055	-0.106
-506.741	142.072	0.094	0.125
-505.726	266.084	0.091	-0.158
-504.712	-144.905	-0.153	-0.014
-503.697	280.623	-0.176	-0.315
-502.683	800.000	0.048	-0.151
-501.668	-200.000	-0.050	0.261
-500.653	-132.355	-0.396	0.051
-499.639	800.000	0.090	0.315
-498.624	800.000	-0.018	0.064
-497.610	-20.534	-0.193	-0.118
-496.595	-200.000	-0.079	-0.418
-495.581	640.894	-0.129	-0.327
-494.566	-198.600	0.265	-0.001
-493.551	197.433	0.117	-0.179
-492.537	54.858	0.059	-0.057
-491.522	7.542	-0.135	-0.101
-490.508	50.140	0.206	0.194
-489.493	279.222	-0.054	-0.095
-488.478	115.679	0.184	-0.224
-487.464	-98.397	-0.104	-0.027
-486.449	342.094	-0.170	-0.332
-485.435	280.125	0.079	-0.141
-484.420	297.764	0.153	0.281
-483.405	366.298	0.087	0.174
-482.391	41.441	-0.101	-0.091
-481.376	800.000	0.036	-0.132
-480.362	-121.792	0.178	-0.029
-479.347	240.601	-0.154	-0.256
-478.332	800.000	0.099	0.314
-477.318	-174.949	-0.176	0.005
-476.303	127.712	-0.059	-0.075
-475.289	69.451	-0.094	-0.097
-474.274	-200.000	0.001	-0.285
-473.259	-200.000	0.030	-0.237
-472.245	22.995	0.178	0.145
-471.230	-156.531	0.019	-0.001
-470.216	-102.235	-0.372	-0.089
-469.201	-66.562	-0.262	0.104
-468.186	-43.884	-0.087	0.043
-467.172	-200.000	0.005	-0.031
-466.157	112.604	-0.096	-0.116
-465.143	-200.000	0.030	0.184
-464.128	36.539	-0.040	-0.035
-463.113	62.090	0.134	0.133
-462.099	-132.050	-0.120	-0.016
-461.084	76.849	0.237	-0.250
-460.070	114.130	-0.200	-0.243
-459.055	199.836	0.123	-0.189
-458.040	51.526	-0.243	-0.230
-457.026	-122.755	-0.374	0.060
-456.011	800.000	-0.159	0.452
-454.997	763.820	0.071	-0.192
-453.982	-140.298	0.063	-0.007
-452.968	-200.000	0.023	0.363
-451.953	84.281	-0.116	-0.127
-450.938	-23.234	0.196	-0.117
-449.924	-200.000	-0.011	0.203
-448.909	-200.000	-0.002	-0.241
-447.895	335.266	0.180	-0.347
-446.880	-22.919	0.249	0.149
-445.865	137.151	-0.168	0.219
-444.851	212.279	-0.063	-0.099
-443.836	-200.000	0.047	-0.224
-442.822	-130.914	-0.254	-0.034
-441.807	-200.000	0.029	-0.345
-440.792	367.662	-0.038	0.076
-439.778	-148.703	0.154	-0.012
-438.763	8.383	-0.384	-0.287
-437.749	358.512	-0.160	0.318
-436.734	-152.010	0.359	-0.026
-435.719	370.795	0.126	-0.255
-434.705	26.567	0.243	0.202
-433.690	338.686	0.044	0.086
-432.676	-149.387	-0.270	-0.021
-431.661	-16.418	0.309	0.195
-430.646	50.680	0.125	0.117
-429.632	112.531	0.153	-0.185
-428.617	-137.023	0.203	-0.023
-427.603	-0.713	0.202	0.142
-426.588	183.302	-0.144	0.212
-425.573	40.749	-0.096	0.086
-424.559	428.924	0.102	-0.219
-423.544	656.148	-0.183	-0.468
-422.530	219.064	0.089	0.141
-421.515	-156.199	-0.355	-0.022
-420.500	-200.000	0.041	-0.198
-419.486	-39.911	-0.149	0.077
-418.471	-107.888	-0.269	-0.058
-417.457	455.278	0.066	-0.146
-416.442	-200.000	0.015	-0.240
-415.428	800.000	-0.091	0.298
-414.413	45.253	0.259	-0.238
-413.398	-10.313	-0.158	-0.104
-412.384	-200.000	0.038	-0.235
-411.369	-76.904	-0.290	0.101
-410.355	347.871	0.061	0.119
-409.340	-114.952	-0.139	0.026
-408.325	-49.472	0.169	0.080
-407.311	-66.042	0.340	-0.135
-406.296	-200.000	0.360	0.000
-405.282	800.000	0.058	-0.240
-404.267	-172.660	-0.351	-0.011
-403.252	-109.448	0.454	0.095
-402.238	76.718	0.156	0.164
-401.223	397.775	-0.100	0.209
-400.209	-200.000	0.032	0.246
-399.194	-54.613	0.329	-0.148
-398.179	702.178	0.088	0.231
-397.165	-200.000	0.031	-0.177
-396.150	405.589	-0.121	0.254
-395.136	94.444	-0.112	-0.127
-394.121	79.128	-0.137	-0.146
-393.106	800.000	-0.020	0.078
-392.092	-33.016	0.126	0.070
-391.077	-2.841	0.425	0.295
-390.063	122.182	-0.107	0.133
-389.048	301.206	-0.084	-0.154
-388.033	800.000	-0.134	-0.490
-387.019	-200.000	0.004	0.180
-386.004	-4.126	-0.283	-0.195
-384.990	-200.000	0.004	-0.024
-383.975	-112.812	0.196	0.039
-382.960	586.944	0.092	0.225
-381.946	514.018	-0.081	-0.188
-380.931	-200.000	-0.031	-0.250
-379.917	-151.405	0.359	-0.027
-378.902	143.725	-0.205	-0.271
-377.888	-73.624	0.060	-0.022
-376.873	800.000	-0.127	-0.352
-375.858	-74.631	0.049	0.017
-374.844	-200.000	0.043	-0.258
-373.829	-200.000	0.000	0.054
-372.815	-27.376	-0.223	-0.129
-371.800	186.048	0.067	0.099
-370.785	800.000	0.052	0.190
-369.771	-36.823	0.079	-0.042
-368.756	-200.000	0.016	-0.154
-367.742	422.245	-0.106	0.226
-366.727	800.000	-0.019	-0.063
-365.712	-73.526	0.262	0.095
-364.698	-77.190	0.230	-0.079
-363.683	62.959	-0.164	0.163
-362.669	-200.000	-0.100	0.441
-361.654	-200.000	0.036	-0.162
-360.639	-117.624	-0.201	-0.036
-359.625	243.308	0.062	0.102
-358.610	-200.000	0.082	0.423
-357.596	219.598	-0.106	0.169
-356.581	95.077	-0.076	-0.086
-355.566	313.368	-0.183	-0.341
-354.552	-22.373	0.084	-0.050
-353.537	48.806	0.011	-0.010
-352.523	-200.000	0.327	-0.000
-351.508	-125.146	0.149	0.023
-350.493	-200.000	-0.033	-0.146
-349.479	-4.446	-0.016	-0.011
-348.464	222.453	0.199	-0.318
-347.450	122.908	0.190	0.236
-346.435	109.266	0.201	0.239
-345.420	128.318	0.135	-0.170
-344.406	-200.000	-0.021	0.193
-343.391	-112.418	0.234	-0.046
-342.377	-62.567	-0.189	0.078
-341.362	-80.379	0.122	-0.040
-340.348	70.532	-0.085	0.087
-339.333	-152.973	-0.280	-0.020
-338.318	800.000	-0.111	-0.419
-337.304	-200.000	-0.003	0.069
-336.289	764.996	0.078	0.210
-335.275	-107.084	0.232	-0.051
-334.260	-76.983	0.040	-0.014
-333.245	141.030	0.191	-0.251
-332.231	617.550	0.172	0.429
-331.216	81.141	0.177	0.190
-330.202	-47.742	0.351	0.169
-329.187	3.310	0.236	0.171
-328.172	800.000	0.127	-0.356
-327.158	-119.412	-0.043	0.007
-326.143	25.468	0.320	-0.264
-325.129	131.110	-0.131	0.167
-324.114	-188.229	0.200	0.003
-323.099	-32.544	0.171	-0.094
-322.085	-107.197	0.063	0.014
-321.070	-114.117	-0.096	-0.018
-320.056	800.000	-0.057	0.167
-319.041	769.195	-0.062	-0.167
-318.026	800.000	-0.069	-0.259
-317.012	-125.958	0.285	-0.043
-315.997	311.081	0.239	-0.445
-314.983	-36.566	0.291	0.155
-313.968	-153.078	0.153	-0.011
-312.953	-48.940	-0.338	-0.160
-311.939	93.285	0.145	0.163
-310.924	125.104	0.188	0.235
-309.910	141.640	0.241	-0.316
-308.895	59.007	-0.081	0.079
-307.880	-77.022	0.177	0.061
-306.866	-86.247	0.441	-0.135
-305.851	800.000	0.046	-0.156
-304.837	108.311	0.017	-0.020
-303.822	-134.556	0.096	0.012
-302.807	168.941	-0.194	-0.274
-301.793	-127.525	0.346	0.050
-300.778	291.112	0.159	0.286
-299.764	-41.750	0.146	0.074
-298.749	800.000	0.088	0.301
-297.735	-160.826	-0.136	-0.007
-296.720	42.263	0.168	0.151
-295.705	102.660	0.131	0.152
-294.691	800.000	0.079	0.280
-293.676	52.229	-0.164	0.155
-292.662	9.180	-0.147	0.110
-291.647	-45.458	0.463	0.227
-290.632	-92.630	-0.209	0.058
-289.618	61.211	-0.151	-0.149
-288.603	-117.959	-0.269	0.048
-287.589	-146.570	0.265	0.023
-286.574	800.000	0.071	0.204
-285.559	-17.673	0.305	0.190
-284.545	-70.291	-0.167	-0.063
-283.530	-200.000	-0.010	-0.120
-282.516	484.256	0.134	-0.303
-281.501	-200.000	0.034	0.156
-280.486	-57.455	0.024	-0.010
-279.472	800.000	-0.096	0.314
-278.457	-200.000	-0.050	0.266
-277.443	174.959	0.115	0.165
-276.428	30.662	-0.243	0.206
-275.413	173.260	-0.209	-0.299
-274.399	127.474	0.170	-0.214
-273.384	-200.000	0.014	0.082
-272.370	-200.000	0.004	0.087
-271.355	240.554	-0.050	0.082
-270.340	97.313	-0.278	-0.316
-269.326	-200.000	-0.017	-0.213
-268.311	-83.105	-0.110	-0.035
-267.297	-200.000	0.055	-0.338
-266.282	800.000	-0.055	0.187
-265.267	45.698	0.146	0.133
-264.253	566.945	0.095	0.227
-263.238	32.805	-0.236	0.202
-262.224	401.780	0.183	0.379
-261.209	106.250	0.164	0.192
-260.195	-200.000	-0.017	0.126
-259.180	-75.065	0.078	-0.028
-258.165	44.256	-0.137	0.125
-257.151	-57.221	0.053	0.023
-256.136	-200.000	0.012	0.097
-255.122	-200.000	-0.002	-0.122
-254.107	-72.961	-0.107	0.039
-253.092	553.761	-0.050	-0.118
-252.078	-169.831	0.389	0.014
-251.063	-200.000	0.005	-0.397
-250.049	45.926	0.204	0.186
-249.034	27.515	-0.167	0.139
-248.019	-30.937	-0.333	0.186
-247.005	-12.480	0.302	-0.195
-245.990	800.000	-0.015	0.055
-244.976	-200.000	0.000	-0.176
-243.961	-65.954	-0.342	-0.135
-242.946	758.319	0.160	-0.428
-241.932	49.583	0.302	-0.281
-240.917	-115.801	0.059	0.011
-239.903	800.000	0.063	0.242
-238.888	800.000	0.075	0.301
-237.873	-51.372	-0.129	-0.060
-236.859	32.253	0.251	0.214
-235.844	-66.820	0.121	-0.047
-234.830	800.000	0.071	-0.265
-233.815	450.182	-0.062	-0.134
-232.800	-56.987	0.372	-0.162
-231.786	-62.543	-0.095	0.039
-230.771	252.969	0.112	0.189
-229.757	-168.371	-0.249	-0.009
-228.742	-92.697	-0.374	0.104
-227.727	415.530	-0.076	0.160
-226.713	-186.282	-0.114	0.002
-225.698	800.000	-0.125	0.489
-224.684	0.512	-0.304	0.214
-223.669	-200.000	0.024	0.287
-222.655	-142.397	0.221	0.021
-221.640	15.038	0.105	-0.081
-220.625	-200.000	-0.027	-0.324
-219.611	-67.636	0.336	0.130
-218.596	-51.604	0.206	0.095
-217.582	408.483	-0.111	0.231
-216.567	-74.453	0.097	0.034
-215.552	-155.464	-0.069	-0.004
-214.538	-200.000	-0.007	-0.181
-213.523	-73.044	0.365	-0.132
-212.509	-32.222	0.232	-0.128
-211.494	-75.000	-0.287	0.101
-210.479	-58.521	-0.146	0.063
-209.465	-200.000	0.025	0.205
-208.450	-15.564	0.137	0.086
-207.436	70.853	0.270	0.275
-206.421	408.747	0.185	-0.386
-205.406	-79.794	0.280	0.093
-204.392	551.632	0.029	0.069
-203.377	-113.583	-0.383	-0.074
-202.363	221.901	-0.069	0.109
-201.348	105.308	0.122	-0.143
-200.333	489.033	0.146	-0.329
-199.319	-146.938	0.007	0.001
-198.304	-20.950	-0.192	-0.116
-197.290	-200.000	0.020	0.103
-196.275	9.763	0.159	-0.119
-195.260	-152.942	-0.330	-0.023
-194.246	8.815	0.369	0.274
-193.231	-200.000	0.002	0.041
-192.217	413.041	0.041	-0.086
-191.202	-27.378	0.142	-0.081
-190.187	-18.888	0.152	0.093
-189.173	-200.000	0.009	-0.094
-188.158	469.415	-0.083	-0.183
-187.144	-43.942	-0.093	-0.046
-186.129	48.045	0.194	0.179
-185.114	-69.536	-0.221	-0.083
-184.100	567.421	0.087	-0.207
-183.085	-41.895	-0.188	0.095
-182.071	-122.596	0.161	0.026
-181.056	-26.605	0.248	0.143
-180.042	-66.082	-0.172	0.067
-179.027	25.158	-0.044	0.036
-178.012	-142.764	-0.261	-0.025
-176.998	101.448	0.071	0.082
-175.983	41.041	-0.128	-0.114
-174.969	6.397	-0.121	0.089
-173.954	-22.881	0.029	0.017
-172.939	-200.000	-0.004	0.078
-171.925	162.641	0.156	0.216
-170.910	110.385	0.292	0.345
-169.896	-48.663	-0.198	0.094
-168.881	-94.080	0.247	-0.067
-167.866	-142.021	-0.410	-0.040
-166.852	-104.904	-0.032	-0.007
-165.837	25.615	-0.222	0.182
-164.823	-48.535	0.225	0.107
-163.808	800.000	-0.095	-0.286
-162.793	249.879	-0.193	-0.323
-161.779	-9.000	0.025	0.016
-160.764	-50.297	0.272	0.127
-159.750	626.643	0.076	-0.189
-158.735	-93.758	0.091	0.025
-157.720	84.153	0.022	-0.024
-156.706	3.040	-0.331	0.237
-155.691	211.040	0.271	0.419
-154.677	-83.398	0.263	0.083
-153.662	761.210	0.150	0.401
-152.647	249.534	-0.126	0.210
-151.633	-154.863	0.080	0.005
-150.618	248.783	0.134	-0.224
-149.604	-143.106	0.095	-0.009
-148.589	-200.000	0.014	-0.143
-147.574	521.193	0.082	-0.189
-146.560	-56.235	0.130	0.057
-145.545	-86.713	-0.203	0.061
-144.531	-176.055	0.212	0.006
-143.516	-200.000	0.022	0.103
-142.502	-18.352	-0.176	-0.108
-141.487	800.000	-0.062	0.238
-140.472	14.113	-0.173	0.132
-139.458	64.094	0.113	-0.112
-138.443	-135.804	-0.128	0.015
-137.429	353.069	0.229	0.447
-136.414	-95.351	-0.202	-0.054
-135.399	-200.000	-0.011	0.120
-134.385	342.589	0.035	0.067
-133.370	-44.765	-0.283	-0.139
-132.356	-74.503	0.273	-0.097
-131.341	79.633	-0.111	0.117
-130.326	-200.000	0.033	0.167
-129.312	800.000	-0.100	-0.286
-128.297	-179.817	0.293	-0.006
-127.283	227.854	0.110	0.177
-126.268	800.000	-0.028	0.083
-125.253	-160.845	0.434	-0.023
-124.239	-99.469	0.415	0.103
-123.224	-200.000	0.030	0.244
-122.210	-12.895	0.121	0.078
-121.195	-109.806	-0.246	-0.051
-120.180	-126.873	0.254	-0.037
-119.166	308.141	0.062	-0.114
-118.151	-41.975	0.335	-0.168
-117.137	-200.000	0.008	0.040
-116.122	52.958	-0.214	0.202
-115.107	-52.828	-0.107	-0.049
-114.093	128.947	0.161	-0.202
-113.078	42.995	0.136	0.122
-112.064	-138.886	0.203	0.022
-111.049	216.180	0.244	0.382
-110.034	-3.458	0.151	0.103
-109.020	-149.623	-0.193	-0.015
-108.005	47.259	-0.091	-0.084
-106.991	-200.000	-0.018	0.290
-105.976	122.641	-0.129	-0.159
-104.962	-92.597	0.406	0.112
-103.947	-151.268	-0.280	-0.021
-102.932	800.000	0.020	-0.070
-101.918	-176.253	0.120	-0.003
-100.903	-200.000	0.012	-0.077
-99.889	155.070	0.020	-0.027
-98.874	-98.349	0.187	0.047
-97.859	-200.000	0.080	-0.373
-96.845	-93.995	0.322	-0.087
-95.830	-200.000	-0.012	-0.081
-94.816	113.566	-0.106	0.126
-93.801	800.000	-0.015	0.056
-92.786	800.000	-0.092	0.282
-91.772	40.039	0.204	-0.180
-90.757	-200.000	0.028	-0.264
-89.743	-56.448	-0.054	0.024
-88.728	800.000	0.091	-0.252
-87.713	-146.421	-0.495	0.042
-86.699	-200.000	-0.000	-0.291
-85.684	-21.431	-0.151	-0.090
-84.670	-34.514	-0.035	-0.019
-83.655	-200.000	-0.055	-0.287
-82.640	-146.137	-0.142	0.012
-81.626	-68.759	0.190	-0.072
-80.611	800.000	-0.086	0.257
-79.597	-62.467	0.111	0.045
-78.582	13.928	0.266	-0.203
-77.567	143.616	-0.136	-0.178
-76.553	-125.306	-0.183	-0.027
-75.538	502.528	-0.059	0.134
-74.524	-87.515	-0.339	-0.101
-73.509	225.812	0.026	-0.042
-72.494	-117.451	-0.241	-0.043
-71.480	-200.000	0.004	0.065
-70.465	-200.000	0.015	-0.159
-69.451	-200.000	0.057	-0.269
-68.436	-48.162	-0.240	-0.114
-67.422	460.371	-0.044	0.096
-66.407	800.000	0.047	0.147
-65.392	-10.153	-0.113	-0.074
-64.378	171.272	0.116	-0.164
-63.363	-77.417	-0.118	-0.040
-62.349	800.000	-0.050	-0.137
-61.334	21.006	-1.140	-0.907
-60.319	-5.157	0.686	0.463
-59.305	800.000	-0.357	-1.192
-58.290	748.005	0.551	1.456
-57.276	310.935	0.759	1.395
-56.261	-200.000	108.285	577.632
-55.246	410.344	1522.312	3164.988
-54.232	140.264	2722.029	3521.776
-53.217	101.200	2218.173	2531.919
-52.203	38.688	1739.878	1522.491
-51.188	31.736	1554.040	1311.359
-50.173	29.390	1528.208	1273.340
-49.159	49.628	1584.030	1462.750
-48.144	49.675	1600.990	1478.685
-47.130	31.948	1556.386	1314.616
-46.115	29.032	1541.092	1281.379
-45.100	28.892	1537.671	1277.508
-44.086	28.844	1536.027	1275.760
-43.071	28.742	1533.818	1273.167
-42.057	28.726	1532.083	1271.569
-41.042	28.628	1530.973	1269.917
-40.027	28.748	1529.154	1269.187
-39.013	28.654	1527.711	1267.289
-37.998	28.600	1526.874	1266.171
-36.984	28.687	1525.105	1265.259
-35.969	28.609	1524.325	1264.024
-34.954	28.616	1522.825	1262.773
-33.940	28.661	1521.083	1261.592
-32.925	28.786	1519.749	1261.291
-31.911	28.566	1519.111	1259.200
-30.896	28.756	1517.236	1258.901
-29.881	28.727	1515.846	1257.499
-28.867	28.705	1514.413	1256.113
-27.852	28.684	1512.840	1254.614
-26.838	28.649	1512.422	1253.974
-25.823	28.753	1510.587	1253.117
-24.809	28.723	1508.913	1251.474
-23.794	28.763	1507.374	1250.418
-22.779	28.783	1505.927	1249.301
-21.765	28.588	1505.689	1247.728
-20.750	28.802	1504.245	1247.937
-19.736	28.811	1502.786	1246.740
-18.721	28.678	1502.117	1245.232
-17.706	28.708	1500.636	1244.162
-16.692	28.681	1499.423	1242.924
-15.677	28.806	1498.415	1242.882
-14.663	28.696	1497.375	1241.228
-13.648	28.672	1496.423	1240.229
-12.633	28.697	1494.965	1239.140
-11.619	28.725	1494.409	1238.818
-10.604	28.675	1493.676	1237.825
-9.590	28.597	1492.858	1236.567
-8.575	28.735	1491.631	1236.436
-7.560	28.659	1490.828	1235.204
-6.546	28.706	1489.845	1234.656
-5.531	28.643	1489.315	1233.745
-4.517	28.546	1488.212	1232.136
-3.502	28.633	1486.744	1231.453
-2.487	28.650	1485.567	1230.546
-1.473	28.646	1484.526	1229.609
-0.458	28.584	1483.824	1228.561
0.556	27.263	1473.975	1219.474
1.571	24.744	1448.407	1181.593
2.586	21.561	1386.201	1110.586
3.600	19.962	1300.925	1032.646
4.615	18.422	1255.956	987.983
5.629	15.896	1197.806	928.251
6.644	8.024	1111.182	820.636
7.659	1.410	1070.633	757.712
8.673	0.552	1064.628	749.142
9.688	0.282	1061.860	745.793
10.702	0.325	1060.381	744.897
11.717	0.291	1057.963	742.966
12.731	2.719	1060.561	756.713
13.746	10.377	1071.216	802.297
14.761	16.214	1077.955	836.282
15.775	16.882	1078.561	839.990
16.790	16.506	1076.560	836.496
17.804	15.549	1074.608	830.176
18.819	14.598	1072.775	823.995
19.834	14.322	1071.469	821.555
20.848	13.807	1070.841	818.462
21.863	13.642	1069.950	816.894
22.877	13.407	1068.878	814.850
23.892	13.202	1067.616	812.805
24.907	13.061	1067.080	811.633
25.921	13.050	1066.465	811.040
26.936	13.070	1066.132	810.812
27.950	13.113	1065.245	810.277
28.965	13.141	1064.358	809.669
29.980	13.398	1063.431	810.149
30.994	13.382	1062.398	809.214
32.009	13.269	1061.539	807.934
33.023	13.320	1061.046	807.736
34.038	13.278	1060.306	806.899
35.053	13.331	1058.822	805.955
36.067	13.286	1057.989	805.029
37.082	13.253	1057.088	804.114
38.096	13.209	1056.571	803.437
39.111	13.271	1055.772	803.058
40.126	13.299	1054.517	802.169
41.140	13.208	1054.125	801.360
42.155	13.192	1052.820	800.217
43.169	12.978	1052.202	798.640
44.184	13.073	1050.852	798.006
45.199	13.103	1049.951	797.395
46.213	13.103	1048.901	796.526
47.228	13.148	1047.876	795.892
48.242	13.204	1046.890	795.347
49.257	13.069	1046.164	794.075
50.271	13.131	1045.069	793.472
51.286	13.165	1044.239	792.932
52.301	13.166	1043.214	792.089
53.315	13.309	1042.311	792.020
54.330	13.223	1041.502	790.920
55.344	13.084	1040.578	789.488
56.359	13.033	1039.977	788.719
57.374	13.133	1038.786	788.221
58.388	13.224	1037.443	787.566
59.403	13.051	1036.948	786.294
60.417	13.154	1036.075	786.053
61.432	13.105	1036.010	785.702
62.447	13.110	1034.517	784.525
63.461	13.075	1033.453	783.481
64.476	13.109	1032.985	783.221
65.490	13.059	1032.222	782.335
66.505	12.995	1031.410	781.345
67.520	12.968	1030.795	780.683
68.534	13.129	1029.679	780.530
69.549	13.132	1029.195	780.108
70.563	13.051	1028.026	778.773
71.578	13.009	1027.733	778.282
72.593	13.027	1026.954	777.710
73.607	13.022	1026.001	776.894
74.622	12.985	1025.008	775.900
75.636	13.047	1023.889	775.278
76.651	12.977	1023.264	774.406
77.666	13.006	1022.179	773.651
78.680	12.941	1021.584	772.829
79.695	13.115	1021.309	773.367
80.709	13.042	1020.717	772.509
81.724	13.078	1019.535	771.712
82.739	12.994	1019.121	770.940
83.753	13.040	1018.496	770.612
84.768	13.215	1017.147	770.339
85.782	13.196	1016.762	769.891
86.797	13.285	1015.798	769.509
87.812	13.285	1015.034	768.863
88.826	13.237	1014.137	767.891
89.841	13.156	1013.534	766.989
90.855	13.213	1013.131	766.883
91.870	13.202	1012.157	766.026
92.884	13.250	1010.898	765.228
93.899	13.225	1010.263	764.566
94.914	13.291	1009.667	764.349
95.928	13.255	1009.113	763.695
96.943	13.276	1008.569	763.316
97.957	13.383	1007.155	762.670
98.972	13.310	1006.629	761.870
99.987	13.306	1005.759	761.123
101.001	13.329	1005.119	760.677
102.016	13.276	1004.243	759.704
103.030	13.425	1002.999	759.380
104.045	13.347	1002.174	758.328
105.060	13.233	1001.361	757.124
106.074	13.260	1000.621	756.623
107.089	13.208	999.739	755.651
108.103	13.215	999.008	755.066
109.118	13.177	997.638	753.787
110.133	13.187	996.930	753.230
111.147	13.184	996.154	752.568
112.162	13.142	995.378	751.719
113.176	13.226	994.204	751.149
114.191	13.165	993.563	750.324
115.206	13.384	992.400	750.371
116.220	13.267	991.395	749.017
117.235	13.258	990.732	748.409
118.249	13.216	989.790	747.440
119.264	13.240	988.952	746.849
120.279	13.188	988.218	745.993
121.293	13.179	987.431	745.294
122.308	13.312	986.469	745.098
123.322	13.216	986.295	744.472
124.337	13.149	984.885	743.037
125.352	13.100	983.732	741.883
126.366	13.150	982.630	741.209
127.381	13.137	981.593	740.306
128.395	13.160	980.366	739.418
129.410	13.165	979.539	738.750
130.424	13.137	978.901	738.078
131.439	13.183	977.940	737.493
132.454	13.226	977.095	736.984
133.468	13.195	976.490	736.323
134.483	13.239	975.440	735.664
135.497	13.310	974.482	735.189
136.512	13.273	973.765	734.418
137.527	13.191	973.286	733.630
138.541	13.171	972.568	732.936
139.556	13.221	971.962	732.636
140.570	13.263	971.422	732.347
141.585	13.176	970.636	731.306
142.600	13.349	969.519	731.166
143.614	13.519	968.705	731.239
144.629	13.434	967.713	730.051
145.643	13.407	967.264	729.527
146.658	13.383	966.330	728.650
147.673	13.301	965.653	727.715
148.687	13.377	964.540	727.147
149.702	13.213	963.877	725.864
150.716	13.132	963.042	724.815
151.731	13.313	962.053	724.797
152.746	13.317	961.177	724.093
153.760	13.403	960.645	724.002
154.775	13.485	959.798	723.661
155.789	13.444	959.072	722.871
156.804	13.497	957.999	722.229
157.819	13.522	957.246	721.706
158.833	13.360	956.779	720.584
159.848	13.529	956.149	720.781
160.862	13.444	955.476	719.840
161.877	13.470	954.459	719.123
162.892	13.439	953.837	718.456
163.906	13.398	953.096	717.657
164.921	13.394	952.261	716.947
165.935	13.316	951.262	715.793
166.950	13.446	950.388	715.637
167.964	13.506	949.194	714.934
168.979	13.387	948.376	713.742
169.994	13.526	947.223	713.406
171.008	13.490	946.672	712.773
172.023	13.445	946.064	712.062
173.037	13.533	945.169	711.700
174.052	13.614	944.438	711.435
175.067	13.724	943.668	711.264
176.081	13.449	943.166	709.646
177.096	13.465	941.941	708.728
178.110	13.525	941.547	708.626
179.125	13.498	940.712	707.819
180.140	13.521	940.013	707.331
181.154	13.517	938.840	706.367
182.169	13.496	938.497	705.958
183.183	13.623	937.771	705.891
184.198	13.727	936.893	705.610
185.213	13.680	936.087	704.739
186.227	13.650	936.010	704.491
187.242	13.720	935.427	704.289
188.256	13.644	934.672	703.334
189.271	13.817	933.646	703.234
190.286	13.878	932.825	702.810
191.300	13.761	932.460	701.979
192.315	13.629	931.698	700.785
193.329	13.615	930.919	700.078
194.344	13.505	929.844	698.743
195.359	13.613	929.780	699.089
196.373	13.716	929.247	699.060
197.388	13.937	927.915	698.926
198.402	13.742	928.212	698.268
199.417	13.825	927.180	697.780
200.432	13.867	926.742	697.562
201.446	13.952	926.321	697.542
202.461	13.976	926.073	697.394
203.475	13.957	925.535	696.848
204.490	14.005	924.867	696.483
205.504	14.149	923.474	695.975
206.519	13.915	923.202	694.730
207.534	13.955	922.411	694.243
208.548	13.891	921.429	693.174
209.563	13.918	921.008	692.910
210.577	13.919	920.352	692.359
211.592	14.089	919.303	692.213
212.607	14.000	919.178	691.688
213.621	14.072	918.562	691.463
214.636	14.033	917.892	690.737
215.650	14.106	917.114	690.392
216.665	14.110	916.877	690.171
217.680	14.027	916.130	689.201
218.694	14.193	915.349	689.243
219.709	14.197	915.025	688.952
220.723	14.136	914.551	688.284
221.738	14.190	913.710	687.813
222.753	14.066	913.374	686.987
223.767	14.277	912.157	686.878
224.782	14.325	911.324	686.389
225.796	14.337	910.538	685.785
226.811	14.316	909.910	685.165
227.826	14.244	909.223	684.291
228.840	14.317	908.634	684.090
229.855	14.251	907.864	683.178
230.869	14.370	907.059	683.000
231.884	14.323	906.677	682.459
232.899	14.390	905.894	682.082
233.913	14.306	904.937	680.960
234.928	14.263	904.314	680.252
235.942	14.130	903.952	679.379
236.957	14.294	903.069	679.325
237.972	14.246	902.413	678.577
238.986	14.267	901.786	678.127
240.001	14.322	900.736	677.504
241.015	14.378	900.557	677.536
242.030	14.224	899.901	676.358
243.045	14.455	899.212	676.717
244.059	14.476	898.415	676.144
245.074	14.461	897.714	675.493
246.088	14.552	897.265	675.466
247.103	14.618	896.373	675.002
248.117	14.455	895.958	673.970
249.132	14.481	895.299	673.518
250.147	14.546	894.735	673.296
251.161	14.689	893.846	673.144
252.176	14.669	893.459	672.712
253.190	14.614	892.659	671.833
254.205	14.720	892.235	671.879
255.220	14.671	891.506	671.073
256.234	14.786	890.490	670.712
257.249	14.733	889.906	670.001
258.263	14.785	889.445	669.801
259.278	14.785	888.912	669.342
260.293	14.673	888.352	668.411
261.307	14.910	887.690	668.801
262.322	14.994	886.727	668.355
263.336	14.919	886.543	667.855
264.351	14.963	885.656	667.304
265.366	14.924	885.382	666.883
266.380	15.042	884.611	666.714
267.395	14.999	883.998	666.020
268.409	14.987	883.269	665.366
269.424	15.002	882.440	664.741
270.439	15.018	881.663	664.162
271.453	14.975	880.798	663.281
272.468	15.044	880.088	662.959
273.482	14.865	879.645	661.858
274.497	15.166	879.033	662.529
275.512	15.017	877.965	661.079
276.526	14.906	877.355	660.124
277.541	14.973	877.024	660.079
278.555	15.001	876.596	659.811
279.570	15.137	875.359	659.355
280.585	15.169	875.284	659.366
281.599	15.118	874.537	658.544
282.614	15.082	874.259	658.136
283.628	15.205	873.285	657.827
284.643	15.155	872.819	657.221
285.657	15.222	872.376	657.091
286.672	15.213	871.707	656.494
287.687	15.215	871.230	656.084
288.701	15.135	871.214	655.704
289.716	15.255	870.087	655.265
290.730	15.219	869.659	654.744
291.745	15.119	869.013	653.808
292.760	15.291	867.519	653.299
293.774	15.462	867.600	653.967
294.789	15.237	867.463	652.929
295.803	15.326	866.328	652.365
296.818	15.393	865.592	652.011
297.833	15.221	865.002	650.843
298.847	15.457	864.055	650.988
299.862	15.373	863.487	650.176
300.876	15.526	862.225	649.760
301.891	15.473	862.000	649.329
302.906	15.420	861.659	648.808
303.920	15.479	860.743	648.291
304.935	15.498	860.124	647.842
305.949	15.676	859.321	647.865
306.964	15.675	858.833	647.434
307.979	15.556	858.432	646.618
308.993	15.627	857.958	646.477
310.008	15.702	857.333	646.236
311.022	15.717	856.532	645.634
312.037	15.636	855.924	644.807
313.052	15.692	855.314	644.505
314.066	15.626	854.960	643.927
315.081	15.550	854.664	643.359
316.095	15.471	854.241	642.681
317.110	15.588	853.572	642.565
318.125	15.714	852.593	642.254
319.139	15.717	852.257	641.955
320.154	15.541	852.104	641.110
321.168	15.641	851.272	640.810
322.183	15.790	850.546	640.773
323.197	15.732	850.143	640.195
324.212	15.776	849.410	639.754
325.227	15.695	849.023	639.097
326.241	15.664	848.521	638.546
327.256	15.887	847.510	638.573
328.270	15.724	847.264	637.712
329.285	15.867	846.333	637.496
330.300	15.749	846.308	636.977
331.314	15.792	845.535	636.500
332.329	15.798	845.134	636.166
333.343	15.773	844.530	635.557
334.358	15.985	843.700	635.678
335.373	15.984	843.062	635.139
336.387	15.979	842.428	634.586
337.402	15.889	842.208	634.024
338.416	15.901	841.827	633.725
339.431	16.072	840.696	633.461
340.446	16.100	840.271	633.190
341.460	16.136	840.113	633.151
342.475	16.113	839.249	632.357
343.489	16.085	838.653	631.747
344.504	16.048	838.168	631.187
345.519	16.184	837.530	631.160
346.533	16.261	837.052	631.030
347.548	16.151	837.114	630.612
348.562	16.217	836.061	630.009
349.577	16.196	835.820	629.692
350.592	16.092	835.356	628.901
351.606	16.065	834.777	628.307
352.621	16.141	834.225	628.117
353.635	16.191	833.837	627.957
354.650	16.310	833.326	627.961
355.665	16.202	833.283	627.472
356.679	16.271	832.528	627.104
357.694	16.337	831.846	626.778
358.708	16.296	831.197	626.084
359.723	16.235	830.885	625.566
360.738	16.268	830.083	625.028
361.752	16.302	829.772	624.866
362.767	16.368	829.292	624.691
363.781	16.413	828.745	624.390
364.796	16.415	828.382	624.068
365.810	16.411	828.017	623.726
366.825	16.539	827.776	623.960
367.840	16.560	827.283	623.611
368.854	16.467	827.055	623.042
369.869	16.558	826.460	622.871
370.883	16.617	825.772	622.516
371.898	16.446	825.554	621.669
372.913	16.615	824.524	621.456
373.927	16.463	823.892	620.370
374.942	16.674	823.163	620.538
375.956	16.664	822.855	620.213
376.971	16.769	821.984	619.887
377.986	16.713	821.338	619.139
379.000	16.578	821.475	618.696
380.015	16.708	820.923	618.702
381.029	16.701	820.480	618.287
382.044	16.725	819.925	617.902
383.059	16.824	818.961	617.480
384.073	16.745	818.581	616.852
385.088	16.699	817.958	616.161
386.102	16.767	817.602	616.084
387.117	16.850	816.931	615.825
388.132	16.804	816.523	615.299
389.146	16.767	816.314	614.952
390.161	16.809	815.944	614.771
391.175	16.937	815.159	614.589
392.190	16.822	815.134	614.098
393.205	16.931	814.549	613.996
394.219	16.824	813.869	613.043
395.234	16.776	813.610	612.622
396.248	16.772	812.912	612.026
397.263	16.812	812.679	611.943
398.278	16.838	811.970	611.448
399.292	16.723	811.383	610.539
400.307	16.722	811.145	610.299
401.321	16.937	810.587	610.598
402.336	16.996	810.170	610.444
403.350	16.884	809.735	609.660
404.365	17.012	809.264	609.712
405.380	16.808	809.182	608.864
406.394	16.969	808.393	608.792
407.409	16.975	808.169	608.591
408.423	17.171	807.489	608.730
409.438	17.072	807.013	607.961
410.453	17.223	806.415	607.999
411.467	17.190	805.978	607.497
412.482	17.295	805.724	607.625
413.496	17.122	805.231	606.584
414.511	17.314	804.536	606.689
415.526	17.237	804.461	606.307
416.540	17.300	804.372	606.411
417.555	17.208	804.157	605.867
418.569	17.254	803.327	605.349
419.584	17.391	802.622	605.254
420.599	17.301	802.624	604.880
421.613	109.858	1294.428	1474.010
422.628	94.619	1366.044	1474.120
