DTS Sentinel unit serial number:	SN413079Multiplexer serial number:	ORYXHardware model number:	OX4-SRSoftware version number:	ORYX F/W v4.00 Oryx Data Collector v3.7.2.0data status	okinstallation	princeton_trtdifferential loss correction	single-endedforward channel	channel 3reverse channel	N/Adate	2019/09/14time	22:08:35forward acquisition time	60.00reverse acquisition time	0.00gamma	496.2192k internal	0.2318k external	0.2318temperature offset calibration	0.9991default loss term (dB/km)	0.3790temperature slope calibration	1.0000multiplexer offset coefficient	1.0000multiplexer slope coefficient	1.0000fibre end	0.00T internal ref (°C)	32.66T ext. ref 1 (°C)	4.70T ext. ref 2 (°C)	27.64length (m)	temperature (°C)	Stokes	anti-Stokes-747.200	800.000	0.133	0.394
-746.185	800.000	-0.070	0.239
-745.171	-164.300	0.202	0.009
-744.156	504.841	-0.064	0.150
-743.142	-200.000	0.018	0.129
-742.127	90.063	0.251	0.284
-741.112	782.816	0.110	0.306
-740.098	52.143	-0.104	0.101
-739.083	-75.495	0.031	0.011
-738.069	47.672	0.170	-0.160
-737.054	108.621	0.217	-0.262
-736.039	-44.058	-0.352	0.179
-735.025	138.377	-0.128	0.169
-734.010	-30.779	-0.247	0.142
-732.996	20.188	-0.348	-0.285
-731.981	344.186	-0.072	0.143
-730.966	174.205	-0.372	-0.544
-729.952	-56.614	-0.310	-0.139
-728.937	-200.000	-0.024	-0.131
-727.923	800.000	-0.094	-0.342
-726.908	-124.411	-0.399	0.063
-725.894	-104.759	-0.271	-0.063
-724.879	800.000	-0.071	-0.251
-723.864	-43.515	-0.210	0.107
-722.850	-100.687	0.361	0.090
-721.835	-148.353	-0.092	0.008
-720.821	800.000	-0.089	-0.312
-719.806	-150.352	0.173	0.013
-718.791	-200.000	-0.050	0.362
-717.777	-186.138	-0.033	-0.000
-716.762	-31.814	-0.276	0.157
-715.748	124.772	0.271	-0.345
-714.733	-55.119	0.106	0.048
-713.718	-42.526	-0.146	-0.075
-712.704	11.256	0.269	0.208
-711.689	94.269	-0.072	-0.082
-710.675	-150.580	0.216	-0.017
-709.660	-142.449	0.314	0.031
-708.645	800.000	0.061	-0.235
-707.631	-109.699	-0.303	-0.064
-706.616	-200.000	0.000	-0.281
-705.602	430.988	0.012	0.026
-704.587	-175.287	-0.140	0.004
-703.572	-74.946	-0.189	-0.068
-702.558	-84.840	0.190	-0.060
-701.543	-55.624	-0.184	-0.083
-700.529	-96.585	-0.416	-0.111
-699.514	86.068	0.154	-0.171
-698.499	800.000	-0.038	-0.122
-697.485	-10.598	-0.177	-0.118
-696.470	800.000	-0.098	0.306
-695.456	-100.518	-0.165	0.041
-694.441	-50.031	0.169	0.081
-693.426	-50.629	-0.188	-0.090
-692.412	348.086	0.076	-0.151
-691.397	-200.000	0.039	0.234
-690.383	615.946	0.025	0.063
-689.368	24.875	0.094	0.079
-688.354	285.883	0.123	0.224
-687.339	-118.208	-0.058	0.010
-686.324	41.648	0.133	-0.122
-685.310	-200.000	0.001	-0.083
-684.295	7.121	-0.108	-0.082
-683.281	-48.714	0.257	0.125
-682.266	173.018	0.252	-0.367
-681.251	800.000	0.028	0.114
-680.237	136.517	-0.124	-0.164
-679.222	319.051	0.089	0.169
-678.208	100.093	-0.096	-0.112
-677.193	-110.648	-0.189	-0.039
-676.178	320.672	-0.081	-0.155
-675.164	-68.515	-0.194	0.076
-674.149	-122.506	-0.180	-0.029
-673.135	15.468	-0.176	0.140
-672.120	16.677	0.202	-0.161
-671.105	-98.920	0.117	-0.030
-670.091	-18.850	0.228	0.143
-669.076	-98.216	-0.328	0.085
-668.062	-79.740	-0.222	-0.075
-667.047	588.815	0.077	0.192
-666.032	-20.526	0.173	0.107
-665.018	235.678	0.082	-0.137
-664.003	237.511	-0.087	-0.146
-662.989	-114.222	-0.488	-0.095
-661.974	-200.000	-0.024	0.121
-660.959	174.581	0.133	0.193
-659.945	800.000	-0.085	0.309
-658.930	142.055	0.130	0.174
-657.916	-200.000	-0.009	-0.144
-656.901	18.126	-0.237	-0.191
-655.886	36.380	-0.048	-0.043
-654.872	224.502	-0.109	-0.177
-653.857	-106.741	0.109	-0.024
-652.843	44.685	0.172	0.160
-651.828	800.000	0.085	-0.343
-650.814	-83.383	0.096	-0.031
-649.799	-112.833	-0.256	0.051
-648.784	-41.456	0.315	0.164
-647.770	-172.119	-0.409	-0.013
-646.755	64.246	0.100	-0.101
-645.741	-130.337	0.170	-0.023
-644.726	-51.083	-0.020	-0.009
-643.711	-140.428	0.160	-0.017
-642.697	-200.000	-0.010	0.174
-641.682	-86.283	-0.253	-0.079
-640.668	776.423	0.109	0.300
-639.653	-200.000	0.010	-0.123
-638.638	153.272	-0.185	-0.255
-637.624	-200.000	-0.083	-0.378
-636.609	-93.655	0.217	-0.060
-635.595	800.000	-0.061	-0.180
-634.580	296.924	0.074	0.137
-633.565	-16.683	-0.393	-0.250
-632.551	800.000	0.020	0.070
-631.536	800.000	-0.037	0.119
-630.522	-175.776	0.045	-0.001
-629.507	-20.942	0.121	0.075
-628.492	652.295	-0.065	-0.167
-627.478	-9.242	-0.180	0.121
-626.463	-105.744	0.167	0.038
-625.449	-141.896	-0.440	-0.044
-624.434	29.450	0.208	-0.178
-623.419	179.144	0.055	0.081
-622.405	-200.000	-0.009	-0.051
-621.390	-111.373	-0.174	0.036
-620.376	-60.873	0.196	-0.084
-619.361	800.000	-0.028	-0.085
-618.346	148.551	-0.099	0.135
-617.332	800.000	-0.051	0.201
-616.317	389.545	0.049	-0.103
-615.303	-200.000	0.002	-0.442
-614.288	-6.406	0.231	-0.159
-613.273	800.000	-0.051	-0.180
-612.259	319.100	0.026	-0.050
-611.244	64.374	-0.100	0.101
-610.230	313.586	0.083	0.157
-609.215	-81.362	-0.090	-0.030
-608.201	153.799	-0.139	0.192
-607.186	335.356	0.195	0.381
-606.171	800.000	0.062	0.216
-605.157	-200.000	0.030	0.322
-604.142	800.000	0.073	-0.221
-603.128	0.565	0.221	0.159
-602.113	57.241	-0.182	0.179
-601.098	800.000	-0.024	-0.092
-600.084	-85.896	0.068	0.021
-599.069	1.937	0.052	-0.038
-598.055	-157.581	-0.374	0.023
-597.040	-118.261	0.169	0.030
-596.025	-57.400	0.157	0.069
-595.011	800.000	-0.068	0.268
-593.996	-200.000	-0.025	-0.490
-592.982	-103.133	-0.230	-0.055
-591.967	800.000	-0.045	-0.150
-590.952	800.000	0.086	0.365
-589.938	-23.420	0.236	0.142
-588.923	309.128	0.212	0.398
-587.909	276.825	0.136	-0.243
-586.894	3.123	0.121	-0.088
-585.879	-123.949	0.181	0.029
-584.865	609.753	0.077	-0.194
-583.850	180.482	0.089	-0.132
-582.836	-105.777	0.284	-0.065
-581.821	-130.418	0.269	-0.037
-580.806	-67.310	0.239	0.095
-579.792	-18.067	0.093	0.058
-578.777	554.014	0.017	0.042
-577.763	800.000	0.100	0.360
-576.748	800.000	-0.046	-0.197
-575.733	-0.784	-0.114	-0.081
-574.719	800.000	-0.081	0.310
-573.704	-146.874	0.221	-0.019
-572.690	-186.303	0.180	-0.003
-571.675	10.943	0.166	-0.128
-570.661	-200.000	-0.019	0.142
-569.646	180.002	0.167	-0.246
-568.631	66.357	-0.329	-0.336
-567.617	-192.024	-0.202	-0.002
-566.602	-64.085	0.082	-0.033
-565.588	-200.000	-0.065	0.357
-564.573	212.073	0.039	0.062
-563.558	-45.489	0.061	0.030
-562.544	-53.820	-0.519	-0.238
-561.529	80.875	0.308	-0.333
-560.515	197.024	-0.087	-0.133
-559.500	-200.000	-0.019	0.260
-558.485	-69.021	-0.281	-0.109
-557.471	-56.903	0.080	-0.035
-556.456	15.751	0.120	0.095
-555.442	800.000	-0.063	0.231
-554.427	800.000	0.063	-0.200
-553.412	649.564	-0.133	0.342
-552.398	-31.146	-0.181	-0.102
-551.383	-200.000	-0.043	-0.218
-550.369	-81.412	0.237	-0.078
-549.354	-200.000	0.038	-0.363
-548.339	-22.225	-0.091	-0.056
-547.325	-200.000	0.003	-0.159
-546.310	24.965	-0.259	-0.216
-545.296	58.632	-0.181	0.179
-544.281	-200.000	-0.020	-0.102
-543.266	282.180	0.128	-0.230
-542.252	343.965	-0.251	-0.494
-541.237	-41.020	-0.236	0.122
-540.223	272.253	-0.093	-0.165
-539.208	104.191	-0.186	-0.219
-538.193	-200.000	-0.048	-0.218
-537.179	180.297	-0.070	-0.102
-536.164	-122.642	0.094	-0.015
-535.150	-73.374	0.246	0.090
-534.135	-200.000	-0.042	0.270
-533.121	336.332	0.148	0.289
-532.106	-200.000	-0.010	0.111
-531.091	315.632	-0.100	0.189
-530.077	-25.086	-0.243	0.144
-529.062	-5.093	-0.071	-0.049
-528.048	800.000	0.064	-0.181
-527.033	-200.000	-0.029	-0.155
-526.018	511.634	-0.090	-0.210
-525.004	-50.422	0.140	-0.066
-523.989	5.556	0.036	-0.027
-522.975	-200.000	-0.012	0.072
-521.960	-100.197	-0.246	0.061
-520.945	20.945	0.104	0.085
-519.931	-200.000	0.004	-0.032
-518.916	546.228	0.116	0.279
-517.902	-162.833	0.305	-0.015
-516.887	230.162	0.082	-0.134
-515.872	-200.000	0.012	0.202
-514.858	210.964	-0.084	-0.133
-513.843	-34.895	0.168	0.092
-512.829	69.701	0.089	-0.092
-511.814	800.000	0.065	-0.239
-510.799	98.509	0.171	0.198
-509.785	51.812	0.389	0.371
-508.770	290.165	0.053	-0.097
-507.756	-123.051	0.248	-0.040
-506.741	-4.535	-0.185	-0.128
-505.726	800.000	-0.067	0.207
-504.712	-90.172	-0.339	-0.099
-503.697	228.503	0.158	-0.258
-502.683	-200.000	0.042	0.242
-501.668	66.884	0.373	0.380
-500.653	-77.321	0.186	0.065
-499.639	800.000	-0.067	-0.258
-498.624	-15.631	-0.320	0.205
-497.610	800.000	0.044	0.159
-496.595	34.088	-0.195	-0.170
-495.581	800.000	0.015	0.062
-494.566	-47.769	-0.308	0.150
-493.551	145.713	0.151	0.202
-492.537	-200.000	0.025	0.329
-491.522	-10.289	-0.071	0.047
-490.508	-74.865	-0.249	0.089
-489.493	235.750	0.269	0.445
-488.478	62.758	-0.174	-0.174
-487.464	117.308	-0.109	-0.134
-486.449	-200.000	0.042	-0.212
-485.435	-88.768	-0.134	-0.040
-484.420	-125.421	-0.208	-0.032
-483.405	800.000	0.028	-0.117
-482.391	-184.060	0.202	0.003
-481.376	-17.077	0.093	0.059
-480.362	-44.462	-0.110	0.055
-479.347	-129.643	-0.337	0.047
-478.332	35.719	-0.341	-0.300
-477.318	192.231	0.280	-0.423
-476.303	83.167	-0.137	-0.150
-475.289	-69.875	0.069	0.026
-474.274	-154.217	0.307	-0.021
-473.259	-200.000	-0.015	0.111
-472.245	-110.925	-0.134	0.028
-471.230	-200.000	0.037	-0.316
-470.216	465.467	0.105	-0.234
-469.201	-44.541	-0.068	-0.034
-468.186	278.871	0.074	0.132
-467.172	59.573	0.172	0.170
-466.157	800.000	-0.067	0.219
-465.143	-72.525	-0.036	-0.013
-464.128	-200.000	-0.029	-0.364
-463.113	-200.000	-0.124	0.000
-462.099	88.478	0.362	-0.402
-461.084	146.385	-0.093	-0.125
-460.070	800.000	0.011	0.032
-459.055	-59.085	-0.224	0.097
-458.040	-200.000	0.018	-0.086
-457.026	-90.154	-0.286	-0.083
-456.011	-84.619	0.176	0.056
-454.997	-167.120	0.137	-0.006
-453.982	-21.422	0.017	0.010
-452.968	-192.079	-0.344	0.003
-451.953	-200.000	0.003	0.205
-450.938	-200.000	0.002	0.290
-449.924	-107.132	0.405	-0.089
-448.909	800.000	-0.024	0.091
-447.895	200.120	-0.072	0.111
-446.880	800.000	0.172	0.526
-445.865	800.000	0.038	0.130
-444.851	-200.000	0.022	-0.204
-443.836	-54.260	0.206	-0.094
-442.822	-77.237	-0.218	-0.076
-441.807	-200.000	-0.091	0.408
-440.792	-104.963	0.201	-0.046
-439.778	-114.579	-0.225	0.043
-438.763	-200.000	0.003	0.120
-437.749	121.167	-0.218	0.271
-436.734	669.316	0.080	-0.207
-435.719	22.297	0.225	0.184
-434.705	-57.743	-0.168	0.073
-433.690	18.312	-0.074	0.059
-432.676	800.000	-0.068	0.261
-431.661	-104.595	0.046	-0.011
-430.646	-40.844	-0.220	-0.114
-429.632	-77.404	0.229	0.079
-428.617	28.390	-0.107	-0.091
-427.603	800.000	0.125	-0.367
-426.588	26.698	-0.073	0.061
-425.573	27.806	0.256	-0.216
-424.559	75.581	-0.165	0.174
-423.544	-125.879	0.091	-0.014
-422.530	-90.101	0.125	0.037
-421.515	-148.028	-0.308	-0.026
-420.500	-96.170	0.086	-0.023
-419.486	76.168	-0.167	0.177
-418.471	-157.788	0.287	-0.017
-417.457	-165.650	-0.193	-0.008
-416.442	437.261	-0.069	-0.149
-415.428	-114.032	0.141	0.027
-414.413	-53.388	-0.270	0.124
-413.398	-139.045	0.283	-0.031
-412.384	-112.721	-0.271	0.054
-411.369	32.252	-0.252	-0.217
-410.355	301.929	0.074	-0.137
-409.340	-114.918	-0.213	-0.041
-408.325	-139.408	0.054	0.006
-407.311	615.269	0.008	-0.020
-406.296	96.261	0.155	-0.177
-405.282	-50.876	-0.235	-0.111
-404.267	800.000	-0.093	0.292
-403.252	800.000	-0.095	0.367
-402.238	-0.828	0.261	-0.184
-401.223	-200.000	-0.073	-0.646
-400.209	-200.000	-0.015	-0.195
-399.194	133.440	-0.166	0.214
-398.179	87.575	0.143	-0.158
-397.165	-69.753	-0.164	0.063
-396.150	-163.138	-0.075	0.004
-395.136	-4.906	-0.172	0.118
-394.121	800.000	-0.069	0.213
-393.106	-200.000	0.023	-0.421
-392.092	316.417	0.104	-0.196
-391.077	-50.303	0.573	0.270
-390.063	-200.000	-0.146	0.000
-389.048	353.728	-0.031	0.060
-388.033	-101.648	-0.126	0.031
-387.019	762.433	-0.116	0.314
-386.004	231.895	0.158	0.258
-384.990	-103.910	0.103	0.024
-383.975	-200.000	-0.023	0.178
-382.960	-167.617	-0.218	-0.009
-381.946	800.000	0.035	0.132
-380.931	800.000	0.055	0.189
-379.917	-83.378	0.284	0.091
-378.902	-68.137	0.050	-0.019
-377.888	800.000	-0.068	0.210
-376.873	-154.785	-0.162	-0.011
-375.858	-170.967	0.134	-0.005
-374.844	-200.000	-0.012	-0.070
-373.829	-45.304	0.163	-0.081
-372.815	-200.000	0.018	-0.137
-371.800	0.053	0.101	-0.072
-370.785	-200.000	-0.009	-0.241
-369.771	-55.668	0.179	0.080
-368.756	-200.000	-0.015	-0.223
-367.742	86.736	-0.099	-0.109
-366.727	38.380	0.197	0.175
-365.712	45.386	-0.208	-0.192
-364.698	9.321	0.066	-0.050
-363.683	-14.570	-0.243	0.156
-362.669	89.683	-0.175	0.195
-361.654	-77.094	-0.232	-0.081
-360.639	-145.529	0.477	0.043
-359.625	10.259	0.222	-0.169
-358.610	98.348	-0.163	0.187
-357.596	184.889	-0.147	-0.218
-356.581	-1.567	-0.279	0.196
-355.566	-87.377	0.391	0.118
-354.552	116.935	0.290	0.355
-353.537	-200.000	-0.014	0.096
-352.523	107.921	-0.235	0.279
-351.508	-18.821	0.127	0.079
-350.493	586.420	-0.048	-0.117
-349.479	-143.991	0.099	-0.009
-348.464	-21.741	-0.473	0.287
-347.450	-200.000	-0.019	-0.113
-346.435	297.508	0.050	-0.091
-345.420	-114.230	0.211	-0.041
-344.406	-40.258	0.049	0.026
-343.391	66.962	0.286	-0.290
-342.377	115.476	-0.161	-0.195
-341.362	118.217	-0.233	0.286
-340.348	800.000	-0.020	-0.084
-339.333	128.494	-0.075	0.096
-338.318	-135.061	-0.089	0.011
-337.304	-53.595	-0.172	-0.078
-336.289	54.245	-0.091	-0.088
-335.275	193.649	0.140	-0.212
-334.260	17.466	0.248	0.196
-333.245	412.476	-0.152	0.321
-332.231	800.000	-0.116	-0.329
-331.216	-200.000	0.081	-0.388
-330.202	-60.713	-0.212	-0.090
-329.187	242.976	-0.165	0.275
-328.172	-200.000	0.050	-0.270
-327.158	-200.000	0.046	0.211
-326.143	-1.753	-0.018	0.013
-325.129	480.485	-0.093	-0.209
-324.114	24.141	-0.108	0.089
-323.099	87.040	0.238	0.261
-322.085	110.924	0.077	0.093
-321.070	146.923	0.100	-0.133
-320.056	-180.943	0.249	0.005
-319.041	585.481	0.221	0.540
-318.026	800.000	-0.061	0.232
-317.012	800.000	0.020	-0.080
-315.997	-102.317	-0.138	0.033
-314.983	169.980	0.051	0.072
-313.968	-74.646	0.067	-0.024
-312.953	-90.055	-0.169	0.049
-311.939	-200.000	-0.018	0.133
-310.924	-200.000	0.058	-0.439
-309.910	56.820	-0.137	-0.132
-308.895	-141.140	-0.258	-0.026
-307.880	10.724	-0.266	-0.202
-306.866	-91.287	-0.209	-0.060
-305.851	42.672	0.135	-0.123
-304.837	145.202	-0.211	0.281
-303.822	-1.405	0.030	-0.021
-302.807	-109.474	-0.081	0.017
-301.793	-21.291	-0.161	0.098
-300.778	99.713	-0.116	-0.134
-299.764	-139.041	-0.178	-0.019
-298.749	800.000	0.099	0.277
-297.735	210.867	-0.148	0.232
-296.720	111.639	-0.152	0.183
-295.705	-118.681	0.227	-0.040
-294.691	-35.103	-0.237	0.128
-293.676	800.000	0.032	-0.124
-292.662	-139.110	0.642	-0.069
-291.647	-200.000	-0.005	-0.098
-290.632	-152.785	-0.354	0.025
-289.618	-11.026	-0.106	-0.070
-288.603	-52.054	-0.057	-0.026
-287.589	-69.578	-0.149	-0.057
-286.574	274.108	-0.172	0.302
-285.559	5.018	0.238	-0.174
-284.545	10.611	0.199	0.151
-283.530	-65.199	0.229	0.092
-282.516	374.118	0.105	-0.212
-281.501	800.000	-0.070	0.264
-280.486	800.000	0.026	0.095
-279.472	57.663	-0.258	-0.251
-278.457	800.000	0.052	-0.191
-277.443	-11.367	-0.088	0.058
-276.428	-200.000	-0.015	-0.306
-275.413	-200.000	-0.015	-0.156
-274.399	-187.086	-0.149	-0.002
-273.384	-152.159	0.225	-0.016
-272.370	45.918	0.115	0.106
-271.355	-200.000	0.251	0.001
-270.340	481.543	0.029	-0.066
-269.326	73.443	-0.110	-0.114
-268.311	-200.000	0.042	0.236
-267.297	-18.078	-0.037	0.023
-266.282	509.764	0.106	-0.245
-265.267	-113.437	0.288	0.056
-264.253	-200.000	-0.004	0.127
-263.238	26.983	-0.084	0.070
-262.224	63.486	-0.299	-0.298
-261.209	800.000	0.055	0.189
-260.195	-81.213	0.249	-0.082
-259.180	-96.130	-0.241	-0.064
-258.165	-200.000	-0.058	0.303
-257.151	-200.000	-0.006	0.100
-256.136	-31.384	0.085	0.048
-255.122	-0.006	-0.192	0.136
-254.107	800.000	-0.046	0.175
-253.092	-58.533	0.251	-0.108
-252.078	-104.128	0.108	-0.025
-251.063	-141.488	0.207	-0.021
-250.049	-200.000	0.023	-0.211
-249.034	-200.000	-0.008	-0.104
-248.019	-95.628	0.183	-0.049
-247.005	-200.000	0.014	0.432
-245.990	800.000	-0.038	0.133
-244.976	-44.139	0.145	-0.072
-243.961	8.913	-0.215	-0.161
-242.946	71.120	0.224	0.231
-241.932	81.645	-0.287	0.308
-240.917	-65.317	-0.332	-0.133
-239.903	104.678	0.348	-0.406
-238.888	184.027	0.092	0.135
-237.873	1.474	0.270	-0.193
-236.859	800.000	-0.041	-0.124
-235.844	-56.917	0.141	-0.062
-234.830	800.000	0.085	-0.282
-233.815	185.621	-0.149	0.219
-232.800	800.000	-0.048	0.140
-231.786	800.000	-0.070	-0.232
-230.771	800.000	-0.083	0.250
-229.757	49.251	-0.230	0.214
-228.742	-200.000	0.021	0.318
-227.727	-173.156	-0.319	0.010
-226.713	800.000	0.069	-0.224
-225.698	-126.248	0.365	0.054
-224.684	-34.803	-0.315	-0.171
-223.669	-86.291	0.115	0.035
-222.655	275.916	-0.063	0.111
-221.640	665.576	0.026	-0.067
-220.625	-26.375	-0.190	0.110
-219.611	-188.078	0.206	-0.003
-218.596	800.000	0.035	0.104
-217.582	-175.032	0.163	0.004
-216.567	45.006	-0.053	0.048
-215.552	-30.803	0.325	0.182
-214.538	-200.000	0.039	-0.172
-213.523	-128.419	0.148	0.021
-212.509	800.000	0.047	0.191
-211.494	-200.000	-0.035	0.441
-210.479	-200.000	0.033	0.384
-209.465	-200.000	0.018	-0.148
-208.450	39.506	0.140	0.124
-207.436	800.000	-0.049	-0.134
-206.421	-200.000	-0.015	-0.162
-205.406	31.156	-0.091	-0.078
-204.392	24.671	-0.173	-0.142
-203.377	14.127	-0.075	-0.058
-202.363	-200.000	-0.003	0.051
-201.348	-58.569	-0.123	-0.053
-200.333	-70.825	0.076	0.028
-199.319	800.000	0.067	-0.191
-198.304	-19.398	-0.128	-0.078
-197.290	203.869	0.148	0.226
-196.275	-91.605	0.143	0.040
-195.260	800.000	-0.072	0.217
-194.246	44.147	-0.059	-0.054
-193.231	-172.639	0.297	0.009
-192.217	278.602	-0.054	0.096
-191.202	138.690	0.137	-0.178
-190.187	645.548	0.098	-0.248
-189.173	-83.064	-0.095	0.030
-188.158	340.877	-0.128	-0.248
-187.144	-3.309	0.130	-0.090
-186.129	-76.220	-0.056	-0.020
-185.114	1.791	-0.201	0.144
-184.100	-50.438	0.072	-0.034
-183.085	272.860	0.080	0.140
-182.071	-200.000	-0.019	0.098
-181.056	517.382	0.031	0.072
-180.042	-200.000	0.034	-0.236
-179.027	-200.000	0.033	-0.244
-178.012	-200.000	-0.028	-0.209
-176.998	-34.745	-0.154	-0.084
-175.983	-200.000	0.023	-0.219
-174.969	65.840	-0.174	-0.175
-173.954	4.617	0.079	-0.057
-172.939	-145.557	0.134	0.012
-171.925	4.242	-0.144	0.105
-170.910	-92.472	-0.055	0.015
-169.896	-52.696	-0.236	0.108
-168.881	78.968	0.121	-0.129
-167.866	-16.914	0.108	-0.068
-166.852	-5.347	-0.210	0.143
-165.837	-200.000	0.062	-0.279
-164.823	-35.231	0.249	-0.134
-163.808	-105.646	0.092	0.021
-162.793	634.847	-0.074	0.185
-161.779	-114.947	-0.222	0.042
-160.764	235.585	-0.125	0.204
-159.750	321.597	-0.093	-0.175
-158.735	140.008	0.238	-0.311
-157.720	-200.000	-0.002	0.051
-156.706	800.000	0.119	-0.385
-155.691	-200.000	-0.013	-0.134
-154.677	-47.284	0.083	0.040
-153.662	-12.006	0.167	0.108
-152.647	130.211	0.059	-0.075
-151.633	-200.000	0.043	0.209
-150.618	-39.133	0.274	-0.142
-149.604	-200.000	0.042	0.220
-148.589	291.310	-0.037	0.067
-147.574	57.237	0.122	-0.117
-146.560	-33.119	-0.095	0.052
-145.545	-200.000	0.049	0.382
-144.531	-47.550	0.163	0.078
-143.516	50.897	0.237	0.222
-142.502	97.645	-0.269	0.305
-141.487	-154.969	0.334	-0.022
-140.472	55.313	-0.193	-0.184
-139.458	-70.424	-0.215	0.081
-138.443	-72.776	-0.338	-0.123
-137.429	143.429	-0.126	0.166
-136.414	-200.000	0.007	-0.114
-135.399	58.845	-0.080	-0.078
-134.385	-56.410	-0.136	0.060
-133.370	-200.000	-0.057	-0.286
-132.356	24.047	-0.203	0.165
-131.341	78.528	-0.123	-0.130
-130.326	0.575	0.299	0.211
-129.312	-87.839	-0.017	-0.005
-128.297	653.029	0.086	-0.218
-127.283	63.155	-0.319	0.316
-126.268	800.000	0.036	-0.120
-125.253	-122.052	0.098	-0.016
-124.239	242.038	0.126	-0.209
-123.224	3.287	0.286	-0.206
-122.210	-29.630	0.094	-0.053
-121.195	170.688	-0.266	0.376
-120.180	-177.093	-0.070	-0.002
-119.166	201.232	0.241	-0.367
-118.151	-57.302	0.118	0.051
-117.137	800.000	-0.146	0.497
-116.122	-77.710	-0.259	0.088
-115.107	-72.560	0.268	0.098
-114.093	-73.380	-0.189	-0.068
-113.078	-122.660	0.221	-0.035
-112.064	-54.309	0.185	-0.083
-111.049	23.027	0.035	0.029
-110.034	-66.181	-0.216	-0.085
-109.020	-105.846	0.322	0.072
-108.005	90.961	0.070	-0.078
-106.991	-200.000	0.004	0.173
-105.976	65.908	-0.084	0.084
-104.962	412.348	0.059	0.123
-103.947	100.238	0.107	-0.122
-102.932	394.808	0.151	0.311
-101.918	-200.000	-0.002	0.473
-100.903	191.954	-0.126	-0.188
-99.889	-200.000	-0.022	-0.104
-98.874	-200.000	-0.032	0.181
-97.859	-174.042	0.048	0.001
-96.845	53.210	-0.359	0.340
-95.830	191.386	-0.245	0.365
-94.816	35.045	-0.148	-0.128
-93.801	-19.211	0.149	-0.091
-92.786	-58.474	-0.247	-0.106
-91.772	-200.000	-0.066	0.411
-90.757	-66.230	0.283	-0.111
-89.743	28.962	0.226	-0.189
-88.728	800.000	0.075	-0.270
-87.713	-22.168	0.172	-0.103
-86.699	-200.000	0.032	0.270
-85.684	-26.184	0.313	0.181
-84.670	-200.000	-0.034	-0.201
-83.655	12.631	0.196	-0.149
-82.640	-146.289	0.283	-0.025
-81.626	800.000	0.044	-0.179
-80.611	-18.112	-0.092	-0.057
-79.597	-200.000	0.001	0.097
-78.582	681.979	0.046	0.119
-77.567	126.619	0.066	0.083
-76.553	99.126	0.144	-0.164
-75.538	-166.568	-0.341	0.014
-74.524	-200.000	0.027	0.242
-73.509	-8.385	0.070	-0.047
-72.494	800.000	0.050	0.177
-71.480	6.113	-0.164	-0.120
-70.465	-78.814	0.262	-0.088
-69.451	80.572	0.083	-0.088
-68.436	-200.000	-0.004	-0.238
-67.422	695.763	0.107	-0.277
-66.407	-21.474	-0.072	-0.043
-65.392	-81.879	0.083	0.027
-64.378	-75.500	0.090	-0.031
-63.363	753.374	0.017	0.045
-62.349	-129.747	0.306	0.041
-61.334	29.606	-1.208	-1.013
-60.319	442.430	0.346	0.746
-59.305	-200.000	-0.006	-1.053
-58.290	145.661	0.681	0.899
-57.276	800.000	0.564	1.589
-56.261	-200.000	95.313	576.888
-55.246	652.478	1372.421	3465.586
-54.232	199.786	2543.054	3843.907
-53.217	119.436	2160.978	2635.045
-52.203	43.377	1707.281	1536.456
-51.188	35.823	1521.231	1317.489
-50.173	33.480	1493.953	1278.033
-49.159	52.555	1541.914	1450.134
-48.144	54.151	1560.051	1478.078
-47.130	35.997	1520.237	1317.612
-46.115	32.947	1505.219	1283.841
-45.100	32.710	1502.285	1279.679
-44.086	32.702	1500.293	1277.883
-43.071	32.744	1498.134	1276.273
-42.057	32.542	1497.521	1274.333
-41.042	32.660	1495.152	1273.067
-40.027	32.626	1494.051	1271.846
-39.013	32.598	1492.324	1270.135
-37.998	32.664	1490.711	1269.160
-36.984	32.631	1490.149	1268.409
-35.969	32.614	1489.253	1267.482
-34.954	32.669	1487.645	1266.434
-33.940	32.739	1486.024	1265.469
-32.925	32.753	1484.562	1264.268
-31.911	32.713	1483.065	1262.677
-30.896	32.653	1481.858	1261.199
-29.881	32.706	1480.258	1260.143
-28.867	32.780	1478.621	1259.193
-27.852	32.763	1477.471	1258.050
-26.838	32.663	1476.730	1256.698
-25.823	32.633	1474.891	1254.883
-24.809	32.771	1472.653	1253.850
-23.794	32.748	1471.124	1252.345
-22.779	32.636	1470.148	1250.722
-21.765	32.667	1468.924	1249.835
-20.750	32.674	1467.789	1248.868
-19.736	32.674	1466.973	1248.121
-18.721	32.619	1465.931	1246.824
-17.706	32.637	1464.866	1245.988
-16.692	32.592	1463.713	1244.658
-15.677	32.626	1462.244	1243.587
-14.663	32.655	1461.582	1243.162
-13.648	32.583	1460.933	1242.091
-12.633	32.621	1459.697	1241.241
-11.619	32.584	1459.023	1240.373
-10.604	32.733	1457.826	1240.285
-9.590	32.675	1456.959	1239.114
-8.575	32.594	1456.837	1238.429
-7.560	32.653	1455.577	1237.702
-6.546	32.619	1454.259	1236.306
-5.531	32.609	1453.700	1235.719
-4.517	32.559	1453.320	1235.020
-3.502	32.585	1451.814	1233.859
-2.487	32.626	1450.429	1232.898
-1.473	32.638	1449.829	1232.418
-0.458	32.617	1448.503	1231.108
0.556	31.677	1438.765	1219.635
1.571	28.837	1413.081	1179.560
2.586	25.253	1352.659	1106.960
3.600	23.536	1271.606	1030.570
4.615	22.107	1225.474	985.090
5.629	19.113	1169.348	923.848
6.644	11.431	1085.663	819.235
7.659	5.504	1045.864	760.399
8.673	4.775	1040.531	752.930
9.688	4.777	1037.576	750.738
10.702	4.668	1036.453	749.331
11.717	4.600	1034.442	747.486
12.731	6.799	1036.293	759.340
13.746	13.866	1046.158	800.692
14.761	18.967	1052.169	829.904
15.775	18.818	1050.841	828.063
16.790	17.756	1048.570	821.089
17.804	16.787	1046.252	814.547
18.819	15.937	1044.637	809.133
19.834	15.285	1043.212	804.831
20.848	15.206	1041.812	803.300
21.863	14.973	1041.521	801.889
22.877	14.751	1040.492	799.959
23.892	14.477	1039.723	797.990
24.907	14.375	1039.065	796.923
25.921	14.443	1038.487	796.738
26.936	14.455	1037.572	796.023
27.950	14.498	1036.584	795.398
28.965	14.397	1035.948	794.356
29.980	14.613	1034.320	794.067
30.994	14.701	1033.123	793.497
32.009	14.777	1032.311	793.164
33.023	14.858	1031.794	793.082
34.038	14.672	1031.042	791.550
35.053	14.709	1029.880	790.761
36.067	14.502	1029.096	789.111
37.082	14.622	1027.817	788.629
38.096	14.627	1027.278	788.167
39.111	14.575	1027.074	787.699
40.126	14.711	1025.887	787.359
41.140	14.536	1025.084	785.846
42.155	14.397	1023.685	784.051
43.169	14.369	1022.992	783.318
44.184	14.384	1021.527	782.201
45.199	14.315	1020.508	781.024
46.213	14.286	1019.603	780.129
47.228	14.303	1018.758	779.491
48.242	14.448	1017.807	779.376
49.257	14.635	1016.445	779.135
50.271	14.480	1016.064	778.049
51.286	14.513	1015.157	777.440
52.301	14.684	1013.751	777.090
53.315	14.617	1013.294	776.362
54.330	14.508	1012.432	775.125
55.344	14.352	1011.918	773.937
56.359	14.378	1010.372	772.808
57.374	14.469	1009.539	772.526
58.388	14.493	1008.983	772.144
59.403	14.412	1008.089	771.013
60.417	14.229	1007.457	769.615
61.432	14.387	1006.815	769.789
62.447	14.322	1006.199	768.948
63.461	14.236	1005.394	767.867
64.476	14.249	1003.772	766.623
65.490	14.195	1003.212	765.876
66.505	14.238	1002.196	765.231
67.520	14.195	1001.847	764.702
68.534	14.240	1000.789	764.033
69.549	14.289	1000.432	763.917
70.563	14.370	999.391	763.426
71.578	14.265	998.610	762.281
72.593	14.283	997.744	761.636
73.607	14.165	997.122	760.552
74.622	14.231	995.809	759.785
75.636	14.227	994.782	758.918
76.651	14.228	994.174	758.390
77.666	14.157	993.413	757.417
78.680	14.166	993.177	757.213
79.695	14.186	992.254	756.532
80.709	14.243	991.692	756.299
81.724	14.283	991.119	755.975
82.739	14.325	990.115	755.332
83.753	14.362	989.517	754.975
84.768	14.353	988.931	754.423
85.782	14.730	987.979	755.335
86.797	14.678	987.397	754.585
87.812	14.523	986.860	753.413
88.826	14.476	986.059	752.520
89.841	14.385	985.317	751.475
90.855	14.713	984.015	751.893
91.870	14.583	983.530	750.873
92.884	14.643	983.111	750.757
93.899	14.651	982.217	750.044
94.914	14.767	981.130	749.668
95.928	14.667	980.839	748.931
96.943	14.666	980.545	748.635
97.957	14.689	979.273	747.701
98.972	14.562	978.382	746.385
99.987	14.651	977.538	746.072
101.001	14.590	977.020	745.338
102.016	14.675	975.936	744.825
103.030	14.591	975.300	743.902
104.045	14.648	974.509	743.484
105.060	14.651	973.296	742.506
106.074	14.647	972.346	741.699
107.089	14.498	971.784	740.542
108.103	14.302	971.052	739.048
109.118	14.143	970.134	737.579
110.133	14.305	969.303	737.602
111.147	14.270	968.151	736.505
112.162	14.271	967.636	736.051
113.176	14.317	966.598	735.400
114.191	14.410	965.475	734.893
115.206	14.380	965.132	734.434
116.220	14.459	964.010	733.863
117.235	14.420	963.064	732.903
118.249	14.385	962.414	732.191
119.264	14.340	961.821	731.476
120.279	14.287	960.755	730.372
121.293	14.322	959.923	729.828
122.308	14.368	959.269	729.468
123.322	14.270	958.328	728.256
124.337	14.388	957.164	727.822
125.352	14.285	956.015	726.436
126.366	14.287	955.250	725.800
127.381	14.249	954.403	724.926
128.395	14.181	953.466	723.856
129.410	14.359	952.226	723.623
130.424	14.202	951.830	722.575
131.439	14.365	950.579	722.268
132.454	14.363	949.627	721.472
133.468	14.604	949.020	721.992
134.483	14.437	948.592	720.879
135.497	14.479	947.458	720.134
136.512	14.420	947.197	719.619
137.527	14.452	946.551	719.202
138.541	14.558	945.416	718.732
139.556	14.411	944.910	717.654
140.570	14.425	944.363	717.232
141.585	14.420	943.575	716.549
142.600	14.597	943.231	716.986
143.614	14.702	942.124	716.532
144.629	14.785	941.439	716.303
145.643	14.660	940.788	715.210
146.658	14.821	939.495	714.852
147.673	14.639	938.820	713.495
148.687	14.576	938.272	712.749
149.702	14.472	937.345	711.535
150.716	14.400	936.611	710.611
151.731	14.548	935.313	710.193
152.746	14.575	934.586	709.693
153.760	14.534	934.109	709.093
154.775	14.628	933.193	708.734
155.789	14.621	932.486	708.106
156.804	14.606	931.789	707.447
157.819	14.616	931.270	707.036
158.833	14.638	930.816	706.722
159.848	14.639	930.096	706.117
160.862	14.835	929.428	706.374
161.877	14.815	928.251	705.332
162.892	14.680	927.312	703.989
163.906	14.491	926.891	702.809
164.921	14.510	925.799	701.999
165.935	14.577	924.728	701.405
166.950	14.648	923.904	701.017
167.964	14.694	923.214	700.626
168.979	14.630	921.848	699.257
169.994	14.596	921.237	698.589
171.008	14.669	920.367	698.174
172.023	14.703	919.545	697.632
173.037	14.777	918.945	697.422
174.052	14.854	918.006	696.969
175.067	14.850	917.420	696.448
176.081	14.769	916.500	695.350
177.096	14.572	916.374	694.374
178.110	14.658	914.534	693.275
179.125	14.713	914.228	693.210
180.140	14.772	913.750	693.028
181.154	14.736	912.725	692.041
182.169	14.800	912.136	691.798
183.183	14.819	911.890	691.630
184.198	14.871	911.375	691.394
185.213	14.980	910.128	690.835
186.227	14.791	909.950	689.858
187.242	14.995	909.322	690.163
188.256	15.017	908.657	689.691
189.271	15.124	907.593	689.259
190.286	15.063	907.243	688.685
191.300	14.902	905.970	686.997
192.315	14.616	905.569	685.454
193.329	14.802	904.298	685.194
194.344	14.621	904.078	684.225
195.359	14.764	903.392	684.234
196.373	14.632	903.741	683.896
197.388	14.851	902.708	683.950
198.402	15.031	901.818	683.949
199.417	15.372	901.455	685.005
200.432	15.126	901.195	683.746
201.446	15.146	900.778	683.449
202.461	15.284	900.122	683.453
203.475	15.198	900.189	683.092
204.490	15.248	899.468	682.688
205.504	15.218	898.518	681.785
206.519	15.130	897.759	680.792
207.534	15.054	896.898	679.770
208.548	15.178	896.286	679.751
209.563	15.121	895.517	678.873
210.577	15.151	894.725	678.334
211.592	15.210	894.016	677.979
212.607	15.296	893.619	677.966
213.621	15.383	893.178	677.920
214.636	15.239	892.418	676.703
215.650	15.258	891.947	676.363
216.665	15.260	891.477	675.954
217.680	15.244	891.106	675.550
218.694	15.365	890.522	675.532
219.709	15.412	889.881	675.177
220.723	15.495	888.935	674.731
221.738	15.420	888.400	673.966
222.753	15.392	887.504	673.115
223.767	15.516	886.687	672.930
224.782	15.442	885.976	672.037
225.796	15.650	885.273	672.276
226.811	15.637	884.868	671.856
227.826	15.480	884.521	670.904
228.840	15.506	883.475	670.159
229.855	15.528	882.555	669.488
230.869	15.409	882.516	668.923
231.884	15.411	881.748	668.292
232.899	15.492	880.510	667.616
233.913	15.345	880.267	666.790
234.928	15.478	879.333	666.549
235.942	15.436	878.407	665.622
236.957	15.349	877.964	664.882
237.972	15.262	877.588	664.195
238.986	15.364	877.186	664.236
240.001	15.432	876.329	663.798
241.015	15.510	875.283	663.253
242.030	15.431	874.908	662.598
243.045	15.464	874.489	662.353
244.059	15.504	873.725	661.874
245.074	15.588	873.112	661.683
246.088	15.674	872.239	661.302
247.103	15.623	871.756	660.673
248.117	15.799	871.518	661.128
249.132	15.791	870.808	660.499
250.147	15.850	870.451	660.402
251.161	16.058	869.601	660.514
252.176	16.042	869.275	660.145
253.190	15.984	868.650	659.386
254.205	16.008	868.252	659.118
255.220	16.034	868.097	659.042
256.234	16.172	866.547	658.347
257.249	16.067	866.397	657.763
258.263	16.114	865.903	657.516
259.278	16.155	864.864	656.828
260.293	16.217	864.479	656.719
261.307	16.350	863.607	656.514
262.322	16.196	863.544	655.808
263.336	16.277	862.881	655.564
264.351	16.370	861.979	655.182
265.366	16.381	861.196	654.569
266.380	16.415	860.566	654.166
267.395	16.370	860.053	653.541
268.409	16.331	859.502	652.915
269.424	16.155	858.979	651.781
270.439	16.206	858.283	651.394
271.453	16.257	857.467	650.913
272.468	16.194	856.419	649.816
273.482	16.306	855.937	649.822
274.497	16.343	855.418	649.513
275.512	16.279	855.117	648.980
276.526	16.304	854.087	648.241
277.541	16.200	853.631	647.435
278.555	16.054	853.214	646.504
279.570	16.256	852.851	646.946
280.585	16.379	852.393	647.012
281.599	16.454	851.594	646.635
282.614	16.432	850.753	645.856
283.628	16.339	850.016	644.884
284.643	16.361	849.392	644.436
285.657	16.317	849.487	644.285
286.672	16.276	849.221	643.869
287.687	16.357	848.533	643.599
288.701	16.379	847.339	642.721
289.716	16.389	847.046	642.477
290.730	16.642	846.197	642.741
291.745	16.389	845.775	641.400
292.760	16.557	845.072	641.450
293.774	16.591	844.520	641.102
294.789	16.700	844.285	641.278
295.803	16.622	843.336	640.206
296.818	16.430	843.030	639.191
297.833	16.575	842.116	638.989
298.847	16.441	841.535	637.989
299.862	16.562	840.552	637.641
300.876	16.598	839.918	637.240
301.891	16.694	839.612	637.314
302.906	16.652	839.264	636.832
303.920	16.935	838.431	637.208
304.935	16.822	838.014	636.412
305.949	16.974	837.286	636.374
306.964	16.759	837.008	635.300
307.979	16.762	836.249	634.675
308.993	16.891	835.597	634.608
310.008	16.918	835.399	634.506
311.022	16.895	835.153	634.173
312.037	16.790	834.564	633.280
313.052	16.808	833.894	632.783
314.066	16.734	832.923	631.712
315.081	16.610	832.841	631.134
316.095	16.617	832.194	630.614
317.110	16.851	831.321	630.765
318.125	16.729	830.635	629.734
319.139	16.699	830.358	629.360
320.154	16.586	830.025	628.631
321.168	16.596	829.750	628.406
322.183	16.752	828.810	628.214
323.197	16.819	828.634	628.273
324.212	16.764	827.697	627.305
325.227	16.923	827.043	627.341
326.241	16.750	826.689	626.377
327.256	16.792	826.110	626.038
328.270	16.892	825.452	625.855
329.285	16.762	825.095	625.050
330.300	16.828	824.461	624.756
331.314	16.804	824.113	624.347
332.329	17.014	822.961	624.192
333.343	17.074	822.332	623.881
334.358	17.156	821.818	623.737
335.373	16.960	821.568	622.772
336.387	17.100	821.079	622.862
337.402	17.091	820.465	622.306
338.416	17.097	819.960	621.892
339.431	17.170	819.572	621.810
340.446	17.275	818.798	621.552
341.460	17.288	818.494	621.312
342.475	17.338	817.890	620.981
343.489	17.502	817.277	621.060
344.504	17.333	816.923	620.118
345.519	17.438	816.408	620.055
346.533	17.519	815.982	619.972
347.548	17.637	814.911	619.532
348.562	17.452	814.528	618.515
349.577	17.469	814.105	618.201
350.592	17.243	813.744	617.053
351.606	17.342	813.108	616.873
352.621	17.202	812.416	615.787
353.635	17.255	812.369	615.889
354.650	17.177	811.896	615.194
355.665	17.279	811.509	615.214
356.679	17.549	810.512	615.381
357.694	17.390	810.787	614.960
358.708	17.530	809.985	614.804
359.723	17.362	809.416	613.710
360.738	17.232	809.047	612.907
361.752	17.561	808.081	613.307
362.767	17.463	807.987	612.828
363.781	17.617	807.446	612.919
364.796	17.602	807.101	612.546
365.810	17.595	806.753	612.205
366.825	17.765	806.339	612.444
367.840	17.744	806.257	612.255
368.854	17.789	805.525	611.805
369.869	17.650	805.447	611.193
370.883	17.740	804.545	610.776
371.898	17.766	803.912	610.336
372.913	17.775	803.181	609.759
373.927	17.812	802.807	609.551
374.942	17.807	801.963	608.839
375.956	17.733	801.333	608.043
376.971	17.643	801.238	607.597
377.986	17.941	800.517	608.058
379.000	17.844	800.437	607.600
380.015	17.959	799.712	607.405
381.029	18.105	798.737	607.128
382.044	18.023	798.275	606.434
383.059	17.912	798.096	605.849
384.073	18.068	797.734	606.074
385.088	18.074	796.686	605.245
386.102	17.906	796.089	604.143
387.117	17.807	795.697	603.443
388.132	17.997	794.974	603.511
389.146	17.843	794.835	602.808
390.161	17.883	794.663	602.767
391.175	18.040	794.062	602.810
392.190	17.960	793.757	602.246
393.205	18.012	793.223	601.969
394.219	17.977	793.082	601.685
395.234	17.910	792.239	600.756
396.248	17.870	792.054	600.421
397.263	17.872	791.493	599.950
398.278	17.772	790.837	599.049
399.292	17.806	790.268	598.685
400.307	17.876	790.429	598.998
401.321	17.926	789.605	598.499
402.336	17.791	789.406	597.820
403.350	18.033	788.926	598.251
404.365	17.966	788.338	597.519
405.380	17.939	788.313	597.351
406.394	18.098	787.892	597.535
407.409	18.254	787.103	597.428
408.423	18.351	786.771	597.463
409.438	18.237	786.210	596.587
410.453	18.450	785.837	596.993
411.467	18.353	785.435	596.296
412.482	18.414	784.948	596.088
413.496	18.537	784.413	596.056
414.511	18.358	784.271	595.273
415.526	18.460	784.198	595.519
416.540	18.497	783.799	595.291
417.555	18.526	782.978	594.717
418.569	18.517	782.684	594.408
419.584	18.412	782.133	593.575
420.599	18.537	781.591	593.543
421.613	156.777	1369.398	1796.913
422.628	135.364	1455.047	1797.056
