DTS Sentinel unit serial number:	SN413079Multiplexer serial number:	ORYXHardware model number:	OX4-SRSoftware version number:	ORYX F/W v4.00 Oryx Data Collector v3.7.2.0data status	okinstallation	princeton_trtdifferential loss correction	single-endedforward channel	channel 3reverse channel	N/Adate	2019/09/14time	10:20:34forward acquisition time	60.00reverse acquisition time	0.00gamma	496.2192k internal	0.2307k external	0.2307temperature offset calibration	1.0055default loss term (dB/km)	0.3790temperature slope calibration	1.0000multiplexer offset coefficient	1.0000multiplexer slope coefficient	1.0000fibre end	0.00T internal ref (°C)	34.25T ext. ref 1 (°C)	4.13T ext. ref 2 (°C)	32.90length (m)	temperature (°C)	Stokes	anti-Stokes-747.200	261.032	-0.240	0.423
-746.185	166.781	0.345	0.497
-745.171	-101.628	0.277	-0.068
-744.156	-200.000	0.007	0.048
-743.142	224.183	0.083	0.136
-742.127	63.172	0.179	-0.183
-741.112	727.523	-0.042	-0.114
-740.098	-158.654	0.254	0.015
-739.083	800.000	0.086	0.331
-738.069	-78.289	-0.280	0.098
-737.054	-200.000	0.020	-0.294
-736.039	-174.626	-0.564	0.016
-735.025	-128.103	0.173	-0.025
-734.010	148.289	0.274	0.376
-732.996	599.993	0.118	-0.297
-731.981	-200.000	-0.038	-0.459
-730.966	-200.000	0.024	-0.150
-729.952	-27.394	-0.263	0.156
-728.937	-124.192	-0.297	-0.047
-727.923	-16.364	-0.293	0.189
-726.908	-6.219	-0.176	0.122
-725.894	48.187	-0.020	-0.019
-724.879	92.364	0.192	0.220
-723.864	-2.177	0.219	0.156
-722.850	71.456	-0.066	0.069
-721.835	800.000	-0.059	0.180
-720.821	53.595	-0.168	-0.164
-719.806	-130.101	-0.461	0.064
-718.791	800.000	0.056	-0.171
-717.777	-200.000	-0.002	0.147
-716.762	87.546	0.279	-0.314
-715.748	-200.000	-0.059	-0.443
-714.733	57.359	0.094	-0.094
-713.718	-200.000	0.008	-0.141
-712.704	-157.748	0.256	0.015
-711.689	-196.706	-0.550	-0.004
-710.675	-80.660	0.129	0.043
-709.660	-47.449	0.263	-0.130
-708.645	-200.000	-0.001	-0.059
-707.631	471.133	0.028	0.065
-706.616	-200.000	0.022	0.131
-705.602	-200.000	-0.039	0.185
-704.587	-83.745	-0.232	0.075
-703.572	97.870	-0.125	0.146
-702.558	800.000	0.048	0.187
-701.543	182.612	0.134	0.200
-700.529	381.322	-0.130	-0.271
-699.514	96.926	0.093	-0.108
-698.499	-108.679	0.183	0.040
-697.485	-200.000	-0.038	-0.521
-696.470	160.905	-0.198	0.281
-695.456	30.162	-0.148	-0.128
-694.441	-200.000	-0.001	0.150
-693.426	2.428	-0.290	0.213
-692.412	-64.085	-0.105	-0.044
-691.397	-82.516	0.417	-0.137
-690.383	-107.740	0.289	-0.064
-689.368	-22.090	0.132	-0.081
-688.354	-117.530	-0.152	-0.028
-687.339	235.600	-0.162	0.272
-686.324	304.396	0.165	0.311
-685.310	330.472	-0.112	0.218
-684.295	153.256	-0.240	-0.333
-683.281	305.791	0.151	-0.284
-682.266	-82.684	-0.280	-0.092
-681.251	485.634	-0.049	-0.113
-680.237	1.386	0.145	-0.106
-679.222	-117.290	0.533	-0.098
-678.208	-12.796	-0.094	0.062
-677.193	-177.409	-0.143	-0.004
-676.178	-200.000	0.032	0.297
-675.164	-24.863	-0.242	-0.146
-674.149	-126.201	0.059	-0.009
-673.135	-200.000	-0.032	-0.186
-672.120	467.688	0.010	0.023
-671.105	800.000	-0.014	-0.056
-670.091	84.956	0.100	0.111
-669.076	-38.240	0.055	0.030
-668.062	-200.000	0.041	0.192
-667.047	137.197	0.024	-0.031
-666.032	-105.281	0.432	-0.100
-665.018	-152.675	0.152	0.011
-664.003	113.631	-0.098	0.120
-662.989	-200.000	0.037	0.237
-661.974	172.208	0.137	-0.200
-660.959	51.733	0.158	-0.153
-659.945	-126.999	0.276	0.041
-658.930	-170.423	-0.468	0.017
-657.916	-63.191	0.190	-0.079
-656.901	-63.228	0.281	-0.117
-655.886	129.486	0.062	0.080
-654.872	-167.551	0.283	-0.011
-653.857	74.109	-0.234	-0.249
-652.843	52.071	0.233	0.225
-651.828	373.334	0.191	0.395
-650.814	800.000	-0.060	-0.219
-649.799	624.241	0.052	0.133
-648.784	623.926	-0.022	0.056
-647.770	30.370	-0.103	0.089
-646.755	-25.436	-0.112	-0.067
-645.741	-126.861	0.066	0.010
-644.726	59.838	-0.208	-0.208
-643.711	800.000	0.044	0.125
-642.697	-49.162	-0.159	-0.077
-641.682	-52.833	-0.144	-0.067
-640.668	289.147	-0.050	0.093
-639.653	-173.781	-0.141	-0.004
-638.638	75.773	-0.021	-0.023
-637.624	-174.502	0.303	0.009
-636.609	17.551	-0.094	-0.076
-635.595	253.829	-0.132	0.229
-634.580	-1.803	0.074	-0.053
-633.565	-132.867	0.024	0.003
-632.551	800.000	-0.020	-0.074
-631.536	-200.000	-0.022	0.274
-630.522	-0.838	0.150	-0.107
-629.507	-117.914	-0.138	0.025
-628.492	-143.434	0.124	0.012
-627.478	-129.719	-0.262	-0.037
-626.463	-2.663	-0.198	-0.140
-625.449	-200.000	0.007	-0.200
-624.434	800.000	-0.171	-0.621
-623.419	15.793	-0.052	-0.041
-622.405	72.378	-0.296	-0.312
-621.390	118.275	-0.027	-0.034
-620.376	63.272	-0.227	-0.230
-619.361	-37.479	-0.090	-0.048
-618.346	312.768	0.071	-0.135
-617.332	800.000	0.063	-0.248
-616.317	-86.719	0.442	0.137
-615.303	-26.956	-0.114	-0.067
-614.288	380.493	-0.058	0.120
-613.273	263.953	0.009	0.016
-612.259	-200.000	0.011	0.319
-611.244	-200.000	-0.008	0.134
-610.230	-39.403	0.116	-0.062
-609.215	21.655	-0.040	-0.033
-608.201	-110.974	-0.046	0.009
-607.186	-153.566	0.222	-0.016
-606.171	800.000	0.026	-0.105
-605.157	198.509	-0.139	-0.215
-604.142	24.234	0.184	-0.154
-603.128	85.275	-0.121	-0.134
-602.113	4.069	0.126	0.093
-601.098	78.876	0.134	0.145
-600.084	255.734	-0.062	0.107
-599.069	-96.172	-0.168	0.045
-598.055	89.061	-0.102	-0.114
-597.040	-15.882	-0.163	0.105
-596.025	74.130	0.038	-0.041
-595.011	-135.239	0.207	0.025
-593.996	-31.261	-0.079	0.045
-592.982	-130.490	-0.151	0.021
-591.967	-147.134	-0.177	0.015
-590.952	-200.000	-0.032	0.315
-589.938	64.198	0.152	0.155
-588.923	-158.031	0.163	0.010
-587.909	-76.574	0.032	0.011
-586.894	-78.230	-0.266	0.092
-585.879	171.286	-0.193	-0.280
-584.865	41.791	-0.110	-0.101
-583.850	-200.000	-0.007	0.052
-582.836	-123.957	0.317	-0.050
-581.821	-56.865	0.135	-0.060
-580.806	-15.194	0.231	0.149
-579.792	135.393	-0.104	0.137
-578.777	-164.049	-0.074	0.003
-577.763	-200.000	-0.004	-0.019
-576.748	-200.000	0.041	-0.254
-575.733	793.897	-0.154	-0.427
-574.719	21.727	0.277	-0.228
-573.704	-39.551	0.301	0.159
-572.690	-5.059	-0.130	-0.090
-571.675	221.781	0.038	-0.062
-570.661	393.854	0.113	-0.238
-569.646	445.694	-0.050	-0.110
-568.631	-116.946	-0.190	-0.035
-567.617	-113.231	0.150	0.030
-566.602	-123.337	-0.285	-0.046
-565.588	-200.000	-0.021	0.126
-564.573	-130.211	-0.185	0.025
-563.558	109.816	0.057	-0.069
-562.544	-200.000	0.028	-0.180
-561.529	-200.000	-0.078	-0.430
-560.515	77.847	0.109	-0.117
-559.500	-200.000	-0.032	0.217
-558.485	-200.000	-0.010	0.186
-557.471	175.850	0.185	0.270
-556.456	-62.899	-0.313	0.131
-555.442	90.803	-0.040	-0.045
-554.427	800.000	0.043	-0.165
-553.412	800.000	-0.058	0.167
-552.398	270.108	0.076	0.135
-551.383	-118.310	0.260	-0.047
-550.369	-13.295	-0.231	-0.151
-549.354	132.349	-0.097	-0.126
-548.339	-123.542	0.213	0.034
-547.325	186.615	-0.099	-0.149
-546.310	211.113	0.080	-0.127
-545.296	391.426	0.024	-0.051
-544.281	-45.588	-0.207	0.103
-543.266	-200.000	-0.075	0.630
-542.252	491.949	0.091	0.211
-541.237	-28.224	-0.079	-0.046
-540.223	800.000	-0.047	0.153
-539.208	40.677	0.053	0.048
-538.193	-54.780	-0.338	-0.154
-537.179	-25.177	-0.220	-0.131
-536.164	-2.327	-0.433	-0.307
-535.150	-200.000	-0.006	-0.137
-534.135	303.571	0.098	-0.183
-533.121	16.868	0.290	0.232
-532.106	-44.538	-0.236	0.119
-531.091	800.000	-0.044	0.150
-530.077	-21.890	-0.104	-0.064
-529.062	-103.922	-0.038	0.009
-528.048	-140.617	0.341	0.036
-527.033	-173.146	-0.201	0.006
-526.018	-22.397	0.132	0.081
-525.004	245.495	0.054	-0.092
-523.989	-64.613	0.192	-0.079
-522.975	-74.366	0.268	-0.097
-521.960	192.265	0.109	0.165
-520.945	531.057	0.028	0.068
-519.931	-59.229	-0.370	-0.161
-518.916	-73.959	0.204	0.075
-517.902	-106.499	0.029	0.007
-516.887	-8.754	-0.186	-0.126
-515.872	9.227	0.081	-0.062
-514.858	-17.806	0.092	0.058
-513.843	42.102	-0.184	0.169
-512.829	488.644	0.038	-0.088
-511.814	104.836	-0.141	-0.167
-510.799	120.610	-0.099	0.124
-509.785	274.909	-0.188	0.337
-508.770	49.616	-0.183	-0.173
-507.756	-42.710	-0.399	-0.204
-506.741	412.984	-0.103	-0.220
-505.726	-200.000	0.056	-0.338
-504.712	-61.000	-0.134	0.057
-503.697	800.000	-0.041	0.136
-502.683	-155.106	0.151	-0.010
-501.668	223.474	-0.067	-0.108
-500.653	800.000	0.044	0.165
-499.639	-15.790	0.453	-0.291
-498.624	-45.130	-0.114	-0.057
-497.610	-92.721	-0.151	-0.043
-496.595	88.032	-0.228	-0.255
-495.581	179.498	-0.109	0.160
-494.566	-16.043	-0.158	0.101
-493.551	-96.856	-0.046	-0.012
-492.537	-200.000	-0.008	0.081
-491.522	-71.923	0.158	0.059
-490.508	-21.749	-0.173	-0.106
-489.493	56.831	-0.067	0.066
-488.478	491.666	0.235	-0.542
-487.464	404.086	-0.056	-0.119
-486.449	-200.000	-0.001	-0.190
-485.435	296.196	0.142	-0.262
-484.420	482.022	-0.086	0.197
-483.405	21.625	0.107	0.088
-482.391	150.996	-0.191	0.261
-481.376	612.851	0.077	0.194
-480.362	-32.172	-0.072	0.041
-479.347	800.000	-0.063	-0.228
-478.332	-84.835	-0.312	-0.099
-477.318	201.661	-0.166	-0.257
-476.303	-183.686	0.216	-0.004
-475.289	-200.000	-0.047	0.302
-474.274	-200.000	-0.002	0.163
-473.259	-54.070	0.303	0.139
-472.245	-96.198	-0.307	-0.082
-471.230	505.686	0.016	-0.036
-470.216	-184.198	0.098	-0.002
-469.201	-127.583	-0.222	0.032
-468.186	591.493	0.083	-0.206
-467.172	592.215	-0.060	-0.149
-466.157	-200.000	-0.021	-0.271
-465.143	435.766	-0.097	-0.213
-464.128	231.331	-0.062	0.102
-463.113	-67.724	-0.366	-0.144
-462.099	-153.052	-0.229	-0.016
-461.084	127.236	-0.194	-0.248
-460.070	-129.082	0.217	0.031
-459.055	255.358	0.187	0.323
-458.040	510.540	0.015	0.034
-457.026	800.000	0.077	-0.262
-456.011	800.000	0.040	0.147
-454.997	-200.000	-0.016	-0.341
-453.982	275.707	-0.124	0.221
-452.968	-27.501	-0.050	-0.029
-451.953	-164.734	-0.098	0.004
-450.938	120.420	0.114	0.143
-449.924	-22.375	0.154	-0.094
-448.909	-58.434	-0.168	0.073
-447.895	800.000	0.103	0.420
-446.880	-80.348	0.339	-0.114
-445.865	800.000	0.164	-0.464
-444.851	-28.377	-0.220	0.128
-443.836	-176.732	-0.087	0.002
-442.822	129.056	0.149	-0.191
-441.807	-82.857	0.074	0.024
-440.792	-117.608	-0.184	0.033
-439.778	-200.000	0.006	0.034
-438.763	66.599	0.147	-0.150
-437.749	-75.402	0.182	-0.065
-436.734	-26.038	0.316	0.187
-435.719	-200.000	0.044	0.257
-434.705	58.716	-0.065	0.064
-433.690	-200.000	-0.025	0.225
-432.676	-200.000	0.007	-0.263
-431.661	-72.277	0.182	-0.068
-430.646	-200.000	0.002	0.162
-429.632	-18.169	-0.314	0.198
-428.617	-89.653	-0.271	-0.080
-427.603	570.293	0.188	-0.460
-426.588	-200.000	-0.011	0.099
-425.573	-105.095	0.218	-0.050
-424.559	30.205	-0.200	-0.171
-423.544	-35.983	-0.298	-0.162
-422.530	715.659	0.070	0.185
-421.515	-200.000	-0.033	-0.167
-420.500	-143.264	0.325	0.031
-419.486	-200.000	-0.033	0.148
-418.471	-200.000	-0.027	0.230
-417.457	-116.973	0.054	0.010
-416.442	-186.003	-0.217	-0.003
-415.428	-89.113	0.115	-0.034
-414.413	749.130	-0.077	-0.208
-413.398	-76.752	-0.084	0.030
-412.384	38.323	0.156	-0.139
-411.369	-63.221	0.053	-0.022
-410.355	121.296	0.106	-0.133
-409.340	-82.320	0.307	-0.100
-408.325	74.138	0.362	-0.381
-407.311	-47.820	-0.144	-0.070
-406.296	122.691	-0.367	0.461
-405.282	-97.890	0.453	0.117
-404.267	-42.359	0.143	-0.073
-403.252	222.925	-0.176	0.285
-402.238	57.499	0.190	-0.186
-401.223	49.950	-0.304	-0.288
-400.209	27.495	0.199	0.168
-399.194	-200.000	0.033	0.144
-398.179	148.601	0.094	0.127
-397.165	-200.000	-0.018	0.418
-396.150	-200.000	-0.014	-0.182
-395.136	800.000	-0.089	-0.315
-394.121	275.607	-0.112	-0.199
-393.106	-33.136	-0.256	-0.142
-392.092	-182.343	0.189	-0.004
-391.077	-41.808	0.086	-0.044
-390.063	-122.053	0.252	0.041
-389.048	-200.000	0.004	0.152
-388.033	-200.000	0.039	0.199
-387.019	-57.583	-0.334	0.147
-386.004	-200.000	0.017	0.278
-384.990	800.000	0.065	0.247
-383.975	-111.097	0.322	-0.066
-382.960	-57.332	0.256	-0.113
-381.946	800.000	-0.039	0.139
-380.931	-24.773	-0.060	0.036
-379.917	-146.382	0.305	0.027
-378.902	16.494	-0.207	0.164
-377.888	51.713	-0.022	0.021
-376.873	22.739	0.096	0.079
-375.858	-200.000	-0.005	-0.066
-374.844	800.000	0.120	0.404
-373.829	-44.862	0.454	0.227
-372.815	32.172	0.103	-0.089
-371.800	129.617	-0.050	0.064
-370.785	800.000	-0.058	0.218
-369.771	-46.792	0.104	-0.051
-368.756	800.000	-0.044	0.132
-367.742	-48.966	-0.229	-0.110
-366.727	63.056	-0.344	0.345
-365.712	10.535	0.170	0.130
-364.698	216.948	0.061	-0.098
-363.683	-29.911	0.369	-0.211
-362.669	108.763	0.031	-0.038
-361.654	150.146	-0.110	0.149
-360.639	-200.000	0.022	-0.148
-359.625	790.963	0.024	-0.065
-358.610	-5.241	0.134	-0.093
-357.596	-200.000	-0.034	0.198
-356.581	79.106	0.343	-0.369
-355.566	-55.444	-0.078	0.035
-354.552	-59.712	-0.230	0.099
-353.537	104.514	-0.209	0.246
-352.523	412.615	0.040	0.085
-351.508	250.048	-0.193	0.328
-350.493	800.000	0.018	0.063
-349.479	-200.000	-0.009	-0.070
-348.464	-200.000	0.018	-0.156
-347.450	-81.804	0.260	-0.085
-346.435	-110.791	0.109	0.023
-345.420	10.684	0.218	0.167
-344.406	54.820	-0.170	0.164
-343.391	-35.991	-0.186	-0.101
-342.377	800.000	0.009	-0.038
-341.362	12.191	-0.311	0.240
-340.348	16.480	0.199	-0.157
-339.333	-107.682	-0.240	-0.052
-338.318	-200.000	0.004	0.126
-337.304	-32.614	-0.280	0.156
-336.289	404.739	0.042	-0.088
-335.275	-121.991	-0.173	-0.028
-334.260	8.242	0.172	0.129
-333.245	800.000	-0.010	-0.037
-332.231	-200.000	0.077	0.401
-331.216	-200.000	0.020	0.411
-330.202	-46.675	0.122	-0.060
-329.187	-159.102	0.353	-0.020
-328.172	-120.860	0.231	0.039
-327.158	-143.604	0.194	-0.018
-326.143	245.050	-0.199	0.335
-325.129	-200.000	-0.003	0.113
-324.114	-103.072	0.180	-0.043
-323.099	445.113	-0.136	-0.298
-322.085	800.000	0.058	-0.166
-321.070	-49.474	0.266	-0.127
-320.056	-106.686	-0.236	-0.052
-319.041	-100.550	-0.204	-0.051
-318.026	213.499	0.082	0.130
-317.012	-157.914	0.484	-0.029
-315.997	-24.754	0.409	-0.243
-314.983	-200.000	0.058	-0.435
-313.968	57.357	-0.280	-0.274
-312.953	800.000	-0.036	0.108
-311.939	-200.000	-0.024	-0.159
-310.924	-88.701	0.187	0.056
-309.910	618.944	0.051	0.129
-308.895	359.879	-0.106	0.212
-307.880	496.673	-0.036	-0.082
-306.866	-200.000	-0.014	0.064
-305.851	-104.044	-0.216	-0.050
-304.837	800.000	-0.120	-0.422
-303.822	0.951	-0.198	0.142
-302.807	747.949	-0.048	0.130
-301.793	-42.245	-0.141	-0.072
-300.778	-200.000	0.042	0.730
-299.764	-44.873	-0.152	0.075
-298.749	-101.742	0.057	-0.014
-297.735	683.635	-0.132	0.344
-296.720	-200.000	0.000	0.081
-295.705	-200.000	0.016	-0.109
-294.691	254.634	0.226	-0.386
-293.676	-3.789	0.169	-0.117
-292.662	-169.008	0.257	-0.010
-291.647	405.941	0.046	0.097
-290.632	34.852	-0.134	0.117
-289.618	187.970	0.130	-0.194
-288.603	-200.000	-0.024	-0.251
-287.589	-151.151	0.063	-0.005
-286.574	-139.705	-0.215	-0.023
-285.559	734.169	0.109	-0.292
-284.545	-129.272	-0.236	-0.033
-283.530	86.433	0.183	-0.202
-282.516	-200.000	0.020	0.111
-281.501	800.000	0.083	0.256
-280.486	-61.422	-0.534	0.224
-279.472	591.237	-0.073	-0.180
-278.457	8.913	0.077	-0.058
-277.443	-97.822	-0.142	0.037
-276.428	-200.000	-0.020	0.348
-275.413	800.000	-0.055	0.154
-274.399	168.302	-0.168	-0.239
-273.384	-115.882	-0.311	-0.058
-272.370	-134.292	-0.345	-0.042
-271.355	-74.098	0.043	-0.016
-270.340	47.861	0.104	0.097
-269.326	94.246	0.197	-0.223
-268.311	-200.000	0.012	0.164
-267.297	-63.371	-0.145	-0.060
-266.282	13.553	-0.030	0.023
-265.267	800.000	0.028	0.091
-264.253	-31.198	0.068	-0.038
-263.238	-200.000	0.008	0.114
-262.224	75.996	-0.159	-0.168
-261.209	540.986	0.142	-0.336
-260.195	800.000	-0.065	-0.181
-259.180	225.113	0.074	-0.120
-258.165	70.162	-0.050	0.052
-257.151	-162.107	0.175	0.009
-256.136	800.000	-0.060	-0.253
-255.122	-130.523	0.223	-0.030
-254.107	44.075	0.198	0.181
-253.092	800.000	0.038	0.121
-252.078	-157.367	-0.104	0.006
-251.063	-75.889	-0.187	-0.066
-250.049	15.181	-0.159	-0.125
-249.034	537.257	0.048	-0.114
-248.019	-37.058	-0.166	-0.088
-247.005	800.000	-0.039	0.127
-245.990	-62.654	-0.135	0.056
-244.976	800.000	-0.041	0.160
-243.961	235.895	0.174	0.286
-242.946	-142.606	0.302	0.030
-241.932	-131.718	0.183	0.024
-240.917	-147.764	0.155	-0.013
-239.903	-68.158	0.628	-0.244
-238.888	-87.987	-0.311	-0.093
-237.873	174.632	-0.052	0.075
-236.859	284.958	0.121	0.218
-235.844	-15.191	0.059	0.038
-234.830	-183.953	0.177	-0.003
-233.815	-96.496	0.187	-0.049
-232.800	211.581	0.163	-0.255
-231.786	-135.907	0.262	-0.031
-230.771	-87.784	-0.412	0.124
-229.757	-200.000	0.035	0.390
-228.742	-5.848	-0.074	-0.051
-227.727	-25.810	-0.331	0.194
-226.713	16.307	-0.127	0.100
-225.698	-200.000	-0.008	-0.064
-224.684	9.609	-0.203	0.153
-223.669	-69.065	-0.549	0.211
-222.655	-22.807	0.228	0.137
-221.640	24.380	-0.125	-0.103
-220.625	-48.888	-0.109	-0.052
-219.611	341.977	-0.057	0.111
-218.596	-200.000	-0.062	-0.272
-217.582	-102.046	0.176	0.042
-216.567	646.368	-0.073	0.186
-215.552	-101.275	0.258	0.063
-214.538	605.911	-0.115	-0.285
-213.523	449.958	0.100	0.220
-212.509	-33.653	-0.159	-0.087
-211.494	-4.899	0.015	0.010
-210.479	256.329	0.030	-0.052
-209.465	78.343	0.078	0.083
-208.450	-10.292	0.299	0.198
-207.436	58.877	0.145	0.142
-206.421	-110.456	0.183	-0.038
-205.406	-106.588	0.360	-0.080
-204.392	800.000	0.092	0.307
-203.377	-200.000	0.015	0.214
-202.363	-104.521	0.279	0.064
-201.348	17.935	-0.206	0.164
-200.333	63.191	0.073	0.073
-199.319	800.000	0.102	-0.373
-198.304	79.907	0.100	-0.107
-197.290	-14.521	0.221	0.142
-196.275	-21.814	0.173	-0.105
-195.260	230.317	0.054	0.089
-194.246	-37.921	-0.144	-0.076
-193.231	763.460	-0.155	-0.420
-192.217	-88.153	0.265	0.079
-191.202	301.278	0.047	0.087
-190.187	800.000	0.065	0.258
-189.173	-82.942	-0.312	-0.100
-188.158	-128.934	-0.306	-0.043
-187.144	-61.005	0.093	0.039
-186.129	-200.000	0.009	-0.126
-185.114	243.555	-0.171	0.286
-184.100	-198.851	0.216	0.001
-183.085	-2.216	-0.142	0.099
-182.071	-41.362	0.160	-0.082
-181.056	-64.590	-0.187	0.076
-180.042	277.130	0.003	0.006
-179.027	383.154	-0.106	0.218
-178.012	-200.000	-0.106	0.505
-176.998	4.383	0.089	-0.065
-175.983	-184.341	0.046	-0.001
-174.969	630.846	-0.102	-0.257
-173.954	163.470	0.104	0.146
-172.939	124.990	0.187	-0.234
-171.925	59.243	0.151	0.148
-170.910	505.351	0.064	0.148
-169.896	-83.477	-0.119	0.038
-168.881	-200.000	-0.046	-0.358
-167.866	-127.554	-0.429	-0.062
-166.852	27.204	0.087	-0.073
-165.837	-139.851	-0.031	0.003
-164.823	-139.068	0.476	0.051
-163.808	60.795	-0.247	0.243
-162.793	-62.584	0.226	0.093
-161.779	-116.714	0.264	-0.048
-160.764	11.748	0.172	-0.131
-159.750	800.000	-0.089	0.330
-158.735	197.722	0.149	-0.227
-157.720	796.613	-0.097	0.266
-156.706	-132.311	0.127	-0.016
-155.691	608.902	0.081	0.201
-154.677	102.102	0.059	0.069
-153.662	-23.179	-0.210	-0.125
-152.647	-0.766	-0.127	-0.089
-151.633	198.727	0.121	-0.184
-150.618	148.770	0.145	-0.194
-149.604	-54.606	-0.403	-0.181
-148.589	800.000	-0.098	-0.319
-147.574	35.317	-0.168	-0.146
-146.560	-126.885	0.109	-0.016
-145.545	-62.037	0.047	-0.020
-144.531	18.537	0.073	-0.058
-143.516	-167.393	0.353	-0.014
-142.502	-85.742	0.120	0.037
-141.487	-57.987	0.310	-0.134
-140.472	-121.316	0.147	-0.024
-139.458	135.093	0.041	0.053
-138.443	490.549	0.117	-0.266
-137.429	800.000	-0.011	0.037
-136.414	-23.425	0.312	0.186
-135.399	-143.715	-0.221	-0.021
-134.385	681.607	0.101	0.261
-133.370	-73.976	0.305	-0.110
-132.356	-99.199	-0.081	0.020
-131.341	-137.757	0.105	0.012
-130.326	67.051	0.264	-0.267
-129.312	-200.000	0.043	-0.264
-128.297	218.630	0.051	0.080
-127.283	-200.000	-0.017	0.122
-126.268	287.752	0.008	0.015
-125.253	-145.391	-0.071	-0.006
-124.239	49.091	0.222	-0.207
-123.224	-24.902	-0.183	0.108
-122.210	-105.660	0.377	0.085
-121.195	182.601	-0.187	-0.274
-120.180	7.531	0.148	-0.110
-119.166	15.712	-0.133	-0.104
-118.151	130.581	0.197	-0.250
-117.137	800.000	-0.089	-0.335
-116.122	-98.218	0.154	0.039
-115.107	44.722	-0.010	0.009
-114.093	-32.963	-0.033	0.018
-113.078	0.197	0.232	0.164
-112.064	80.054	0.033	-0.035
-111.049	-128.250	0.150	0.021
-110.034	186.832	0.119	-0.176
-109.020	-153.959	0.239	-0.016
-108.005	180.345	-0.138	-0.201
-106.991	-147.051	-0.087	-0.007
-105.976	-200.000	0.007	-0.029
-104.962	-200.000	-0.008	-0.115
-103.947	16.513	-0.198	-0.155
-102.932	297.021	0.140	-0.255
-101.918	-13.382	0.321	-0.207
-100.903	20.303	0.042	-0.034
-99.889	218.532	0.099	-0.156
-98.874	800.000	-0.070	0.301
-97.859	-1.008	0.144	0.101
-96.845	-200.000	0.023	-0.274
-95.830	2.223	-0.336	-0.241
-94.816	-200.000	0.061	-0.303
-93.801	-107.475	-0.139	0.030
-92.786	-200.000	-0.029	0.186
-91.772	800.000	0.061	0.245
-90.757	75.437	0.041	-0.043
-89.743	403.698	-0.125	-0.260
-88.728	81.811	0.020	0.021
-87.713	475.221	-0.110	-0.247
-86.699	-200.000	-0.119	-0.000
-85.684	-84.987	0.145	0.045
-84.670	-29.597	-0.303	0.172
-83.655	298.738	-0.215	0.392
-82.640	27.139	-0.199	0.166
-81.626	131.136	-0.128	0.162
-80.611	31.182	0.306	0.260
-79.597	-61.282	-0.196	-0.082
-78.582	-97.693	0.294	0.075
-77.567	-131.788	-0.291	-0.038
-76.553	-178.807	-0.066	-0.001
-75.538	-103.783	0.173	0.040
-74.524	357.057	-0.141	-0.278
-73.509	-75.990	-0.058	0.020
-72.494	82.309	0.179	0.192
-71.480	-84.797	0.223	0.070
-70.465	-162.680	0.366	-0.018
-69.451	109.346	-0.117	-0.139
-68.436	-144.875	0.273	-0.025
-67.422	-29.658	-0.205	0.116
-66.407	-117.236	0.419	0.075
-65.392	82.040	-0.101	-0.108
-64.378	-177.216	0.277	-0.007
-63.363	498.485	0.036	-0.083
-62.349	406.272	-0.142	0.297
-61.334	93.163	-0.825	-0.924
-60.319	-61.541	0.303	0.126
-59.305	-200.000	-0.086	-1.212
-58.290	723.163	0.459	1.210
-57.276	338.650	0.726	1.400
-56.261	-200.000	93.926	538.193
-55.246	600.568	1389.603	3415.543
-54.232	182.474	2627.303	3834.649
-53.217	117.623	2237.477	2725.600
-52.203	44.760	1763.740	1605.915
-51.188	37.331	1572.319	1379.088
-50.173	34.975	1544.182	1337.905
-49.159	52.184	1594.018	1503.832
-48.144	55.536	1613.243	1545.764
-47.130	37.750	1568.790	1378.744
-46.115	34.547	1553.044	1342.359
-45.100	34.303	1549.964	1337.931
-44.086	34.394	1547.761	1336.617
-43.071	34.315	1546.189	1334.651
-42.057	34.274	1544.558	1332.903
-41.042	34.257	1543.042	1331.422
-40.027	34.211	1541.772	1329.952
-39.013	34.344	1539.874	1329.189
-37.998	34.304	1538.669	1327.822
-36.984	34.257	1537.318	1326.271
-35.969	34.256	1536.230	1325.273
-34.954	34.317	1534.676	1324.303
-33.940	34.272	1533.216	1322.684
-32.925	34.263	1531.900	1321.428
-31.911	34.197	1530.764	1319.940
-30.896	34.309	1529.178	1319.296
-29.881	34.343	1527.819	1318.304
-28.867	34.205	1526.561	1316.218
-27.852	34.250	1525.263	1315.353
-26.838	34.248	1523.795	1314.023
-25.823	34.326	1521.651	1312.656
-24.809	34.256	1520.538	1311.164
-23.794	34.286	1518.831	1309.851
-22.779	34.319	1517.568	1308.935
-21.765	34.316	1516.392	1307.848
-20.750	34.317	1515.464	1307.004
-19.736	34.321	1514.302	1305.973
-18.721	34.249	1513.202	1304.482
-17.706	34.300	1512.416	1304.101
-16.692	34.251	1511.613	1303.022
-15.677	34.151	1510.532	1301.351
-14.663	34.232	1508.913	1300.464
-13.648	34.206	1507.827	1299.294
-12.633	34.287	1506.859	1298.959
-11.619	34.215	1506.328	1297.965
-10.604	34.209	1505.581	1297.222
-9.590	34.049	1505.052	1295.629
-8.575	34.225	1503.723	1295.629
-7.560	34.247	1502.671	1294.823
-6.546	34.202	1501.728	1293.655
-5.531	34.217	1500.944	1293.029
-4.517	34.187	1500.133	1292.078
-3.502	34.123	1499.312	1290.882
-2.487	34.291	1497.858	1290.714
-1.473	34.223	1497.159	1289.602
-0.458	34.183	1495.791	1288.103
0.556	35.030	1486.489	1280.641
1.571	32.862	1460.870	1244.187
2.586	29.859	1398.868	1172.281
3.600	28.227	1314.238	1091.538
4.615	25.897	1266.663	1038.527
5.629	21.745	1206.894	966.585
6.644	12.363	1118.620	847.618
7.659	5.164	1075.940	779.371
8.673	4.174	1069.526	769.742
9.688	4.074	1067.116	767.444
10.702	4.164	1065.107	766.374
11.717	4.118	1063.938	765.243
12.731	6.691	1066.594	779.810
13.746	15.186	1078.975	831.098
14.761	20.714	1085.633	863.663
15.775	20.271	1083.014	859.307
16.790	19.117	1081.292	852.159
17.804	18.196	1078.957	845.691
18.819	17.237	1077.343	839.617
19.834	16.689	1076.123	835.887
20.848	16.508	1075.116	834.138
21.863	16.309	1074.317	832.460
22.877	16.072	1073.463	830.559
23.892	15.880	1072.779	829.012
24.907	15.775	1071.992	827.814
25.921	15.981	1070.932	827.933
26.936	15.915	1070.275	827.027
27.950	15.899	1069.207	826.049
28.965	15.913	1068.087	825.182
29.980	15.972	1067.245	824.747
30.994	16.133	1065.818	824.357
32.009	16.084	1065.369	823.698
33.023	16.211	1064.574	823.633
34.038	16.112	1064.033	822.654
35.053	16.270	1062.508	822.174
36.067	16.018	1061.481	820.080
37.082	16.027	1060.520	819.308
38.096	16.113	1059.860	819.146
39.111	16.078	1058.977	818.221
40.126	16.311	1057.911	818.453
41.140	16.122	1056.612	816.460
42.155	15.904	1055.570	814.529
43.169	15.791	1054.684	813.227
44.184	15.723	1053.538	811.942
45.199	15.677	1052.627	810.946
46.213	15.757	1051.304	810.242
47.228	15.780	1050.339	809.539
48.242	15.838	1049.971	809.459
49.257	15.941	1048.811	808.989
50.271	15.997	1047.834	808.431
51.286	15.921	1047.334	807.613
52.301	15.941	1046.757	807.191
53.315	15.957	1046.113	806.701
54.330	15.960	1044.476	805.379
55.344	15.983	1043.675	804.803
56.359	15.909	1042.575	803.527
57.374	15.903	1041.773	802.811
58.388	15.869	1040.800	801.828
59.403	15.720	1040.175	800.566
60.417	15.736	1039.360	799.942
61.432	15.708	1038.888	799.377
62.447	15.731	1037.772	798.556
63.461	15.628	1036.827	797.273
64.476	15.681	1035.811	796.668
65.490	15.626	1035.026	795.735
66.505	15.711	1034.087	795.346
67.520	15.571	1033.599	794.237
68.534	15.676	1033.309	794.439
69.549	15.619	1032.068	793.145
70.563	15.698	1031.134	792.731
71.578	15.599	1030.665	791.833
72.593	15.574	1029.346	790.633
73.607	15.412	1028.639	789.256
74.622	15.553	1027.400	788.900
75.636	15.527	1026.336	787.891
76.651	15.504	1026.250	787.646
77.666	15.497	1025.023	786.603
78.680	15.510	1024.482	786.181
79.695	15.467	1024.231	785.715
80.709	15.517	1023.722	785.490
81.724	15.676	1022.382	785.136
82.739	15.709	1021.801	784.775
83.753	15.789	1021.183	784.603
84.768	15.886	1020.238	784.257
85.782	16.046	1019.695	784.515
86.797	16.065	1019.433	784.334
87.812	16.057	1018.583	783.572
88.826	16.012	1017.587	782.532
89.841	15.850	1016.979	781.241
90.855	15.991	1015.843	780.955
91.870	16.105	1015.012	780.771
92.884	16.112	1014.013	779.968
93.899	16.001	1013.741	779.178
94.914	16.117	1012.432	778.638
95.928	16.171	1012.320	778.730
96.943	16.162	1011.251	777.800
97.957	16.153	1010.510	777.116
98.972	16.199	1008.978	776.081
99.987	16.098	1008.706	775.343
101.001	16.179	1007.896	775.023
102.016	16.238	1006.815	774.394
103.030	16.031	1006.473	773.113
104.045	16.157	1004.942	772.442
105.060	16.138	1004.466	771.922
106.074	16.062	1003.555	770.807
107.089	16.009	1002.220	769.469
108.103	15.647	1001.569	767.250
109.118	15.748	1000.279	766.656
110.133	15.696	999.872	766.037
111.147	15.624	998.929	764.920
112.162	15.633	998.135	764.287
113.176	15.550	997.432	763.305
114.191	15.804	996.344	763.557
115.206	15.864	995.567	763.166
116.220	15.812	994.434	761.993
117.235	15.817	993.369	761.134
118.249	15.682	992.903	760.097
119.264	15.711	991.992	759.465
120.279	15.641	990.934	758.272
121.293	15.559	990.560	757.549
122.308	15.647	989.626	757.161
123.322	15.614	988.493	756.080
124.337	15.583	987.376	755.022
125.352	15.679	986.208	754.491
126.366	15.673	985.244	753.659
127.381	15.467	984.563	752.150
128.395	15.427	983.398	751.012
129.410	15.721	982.180	751.331
130.424	15.532	982.160	750.406
131.439	15.680	980.883	750.021
132.454	15.837	979.891	749.897
133.468	15.788	979.362	749.208
134.483	15.913	978.714	749.202
135.497	15.739	978.707	748.357
136.512	15.862	977.384	747.825
137.527	15.741	976.785	746.762
138.541	15.875	975.909	746.621
139.556	15.711	975.553	745.558
140.570	15.842	974.409	745.196
141.585	15.893	973.554	744.701
142.600	16.079	972.885	744.949
143.614	16.011	972.300	744.134
144.629	16.049	971.787	743.843
145.643	16.237	970.863	743.896
146.658	16.129	969.867	742.593
147.673	16.084	968.432	741.232
148.687	15.967	967.830	740.193
149.702	15.904	966.870	739.114
150.716	15.753	966.519	738.119
151.731	15.895	965.340	737.775
152.746	15.806	964.540	736.707
153.760	15.708	964.160	735.922
154.775	15.850	963.306	735.827
155.789	15.996	962.390	735.701
156.804	15.989	961.476	734.905
157.819	16.068	960.598	734.513
158.833	16.082	960.173	734.187
159.848	16.079	960.132	734.078
160.862	16.223	959.043	733.804
161.877	16.261	958.091	733.177
162.892	16.052	957.159	731.489
163.906	15.967	956.027	730.195
164.921	15.927	955.095	729.243
165.935	15.763	954.653	728.130
166.950	15.845	953.663	727.665
167.964	16.034	952.400	727.455
168.979	15.981	951.747	726.663
169.994	16.055	950.400	725.890
171.008	15.987	949.418	724.781
172.023	15.994	948.416	723.984
173.037	16.090	948.476	724.378
174.052	16.111	947.330	723.528
175.067	16.081	946.683	722.841
176.081	15.953	945.407	721.257
177.096	15.969	944.830	720.819
178.110	15.937	944.210	720.147
179.125	16.009	943.402	719.771
180.140	16.105	942.299	719.276
181.154	16.204	941.261	718.844
182.169	16.202	941.151	718.689
183.183	16.255	940.896	718.654
184.198	16.259	939.978	717.906
185.213	16.189	939.525	717.199
186.227	16.187	938.882	716.638
187.242	16.202	938.551	716.383
188.256	16.380	937.388	716.187
189.271	16.375	936.627	715.521
190.286	16.387	935.941	714.988
191.300	16.180	935.171	713.459
192.315	16.085	933.787	711.939
193.329	15.909	933.643	711.024
194.344	15.882	932.758	710.170
195.359	16.011	932.190	710.223
196.373	16.074	931.990	710.271
197.388	16.179	931.232	710.074
198.402	16.352	931.150	710.675
199.417	16.414	930.809	710.614
200.432	16.582	930.137	710.742
201.446	16.562	929.724	710.282
202.461	16.657	929.190	710.210
203.475	16.719	928.724	710.049
204.490	16.807	928.278	710.015
205.504	16.625	926.968	708.189
206.519	16.509	926.149	707.014
207.534	16.475	925.359	706.208
208.548	16.446	924.783	705.585
209.563	16.575	923.957	705.429
210.577	16.500	923.256	704.518
211.592	16.463	922.668	703.852
212.607	16.558	922.096	703.749
213.621	16.747	921.681	704.158
214.636	16.780	920.930	703.656
215.650	16.726	920.289	702.881
216.665	16.683	919.609	702.124
217.680	16.756	919.091	701.969
218.694	16.832	918.663	701.891
219.709	16.823	918.196	701.439
220.723	16.782	917.277	700.504
221.738	16.786	916.636	699.967
222.753	16.778	915.903	699.313
223.767	16.774	915.424	698.868
224.782	16.781	914.697	698.280
225.796	16.787	914.108	697.794
226.811	16.976	913.304	697.898
227.826	16.928	912.779	697.238
228.840	16.903	911.463	696.067
229.855	16.850	911.086	695.499
230.869	16.936	910.258	695.160
231.884	16.836	909.591	694.178
232.899	16.778	909.119	693.521
233.913	16.717	908.610	692.822
234.928	16.762	907.801	692.328
235.942	16.769	907.005	691.687
236.957	16.648	906.174	690.499
237.972	16.745	905.211	690.097
238.986	16.707	905.202	689.876
240.001	16.753	904.655	689.586
241.015	16.754	903.581	688.709
242.030	16.638	903.270	687.938
243.045	16.852	902.726	688.336
244.059	16.890	902.037	687.901
245.074	16.813	901.277	686.951
246.088	16.940	900.539	686.841
247.103	17.020	899.943	686.651
248.117	17.090	899.387	686.445
249.132	17.186	898.704	686.254
250.147	17.384	898.295	686.679
251.161	17.370	897.469	685.929
252.176	17.468	896.964	685.877
253.190	17.485	895.651	684.883
254.205	17.363	895.999	684.599
255.220	17.599	895.147	684.835
256.234	17.486	894.455	683.788
257.249	17.479	894.050	683.393
258.263	17.559	893.119	682.941
259.278	17.637	892.564	682.768
260.293	17.634	891.893	682.181
261.307	17.607	891.560	681.759
262.322	17.730	891.039	681.791
263.336	17.693	890.739	681.356
264.351	17.757	889.496	680.601
265.366	17.710	889.318	680.214
266.380	17.849	888.654	680.200
267.395	17.912	887.514	679.520
268.409	17.703	887.028	678.257
269.424	17.661	886.307	677.476
270.439	17.572	885.899	676.751
271.453	17.603	885.015	676.139
272.468	17.592	884.398	675.565
273.482	17.541	883.738	674.801
274.497	17.533	883.195	674.291
275.512	17.643	882.603	674.216
276.526	17.611	881.441	673.142
277.541	17.686	880.732	672.840
278.555	17.587	880.462	672.183
279.570	17.631	879.963	671.914
280.585	17.833	879.547	672.333
281.599	17.830	879.149	671.959
282.614	17.822	878.281	671.203
283.628	17.806	877.297	670.329
284.643	17.589	877.247	669.378
285.657	17.649	876.421	668.925
286.672	17.729	875.770	668.684
287.687	17.875	875.140	668.713
288.701	17.774	874.840	668.032
289.716	17.721	874.279	667.336
290.730	17.840	873.735	667.329
291.745	17.882	872.785	666.706
292.760	17.901	872.099	666.196
293.774	17.877	871.780	665.800
294.789	17.957	871.342	665.719
295.803	17.877	870.611	664.790
296.818	17.863	869.949	664.173
297.833	17.810	868.894	663.100
298.847	17.887	868.626	663.136
299.862	17.909	867.846	662.567
300.876	17.943	867.079	662.056
301.891	17.974	866.764	661.879
302.906	18.035	865.961	661.442
303.920	18.267	865.139	661.654
304.935	18.121	864.867	660.823
305.949	18.471	863.938	661.404
306.964	18.242	863.698	660.278
307.979	18.024	862.838	658.721
308.993	18.116	862.533	658.786
310.008	18.205	861.685	658.421
311.022	18.295	861.073	658.242
312.037	18.381	860.420	658.014
313.052	18.291	859.883	657.200
314.066	18.066	859.506	655.991
315.081	18.017	858.581	655.041
316.095	17.912	858.652	654.634
317.110	17.949	857.957	654.188
318.125	18.055	857.213	653.968
319.139	18.017	856.863	653.496
320.154	18.032	856.248	653.028
321.168	18.093	855.274	652.459
322.183	18.216	855.022	652.679
323.197	18.161	854.295	651.858
324.212	18.121	854.305	651.653
325.227	18.192	853.121	650.962
326.241	18.247	852.919	650.960
327.256	18.176	852.445	650.273
328.270	18.029	851.697	649.087
329.285	18.000	851.449	648.729
330.300	18.045	850.597	648.195
331.314	18.112	849.781	647.766
332.329	18.118	849.247	647.326
333.343	18.187	848.734	647.137
334.358	18.234	848.288	646.920
335.373	18.454	847.892	647.392
336.387	18.397	847.104	646.519
337.402	18.336	846.781	645.984
338.416	18.506	845.611	645.673
339.431	18.567	845.320	645.624
340.446	18.670	844.840	645.587
341.460	18.756	844.233	645.391
342.475	18.715	843.971	644.980
343.489	18.631	843.534	644.271
344.504	18.778	843.205	644.515
345.519	18.769	842.348	643.769
346.533	19.011	841.605	644.052
347.548	18.870	841.316	643.244
348.562	18.835	840.730	642.610
349.577	18.641	840.181	641.409
350.592	18.588	839.184	640.394
351.606	18.696	838.581	640.280
352.621	18.490	838.605	639.470
353.635	18.539	838.035	639.164
354.650	18.605	837.455	638.909
355.665	18.642	837.057	638.687
356.679	18.760	836.376	638.549
357.694	18.708	836.579	638.456
358.708	18.725	835.575	637.696
359.723	18.677	835.108	637.104
360.738	18.728	834.586	636.838
361.752	18.692	833.762	636.021
362.767	18.830	833.737	636.455
363.781	19.014	833.080	636.581
364.796	18.852	832.793	635.705
365.810	18.921	832.383	635.590
366.825	19.156	831.889	636.025
367.840	19.280	831.366	636.027
368.854	19.147	831.364	635.478
369.869	19.081	830.593	634.588
370.883	18.932	829.787	633.368
371.898	18.956	829.920	633.502
372.913	19.111	829.092	633.385
373.927	19.316	828.109	633.329
374.942	19.160	827.784	632.455
375.956	19.050	826.886	631.309
376.971	19.187	826.413	631.393
377.986	19.324	825.998	631.524
379.000	19.365	825.757	631.431
380.015	19.281	825.147	630.603
381.029	19.315	824.631	630.276
382.044	19.282	823.768	629.441
383.059	19.228	823.406	628.910
384.073	19.378	822.882	629.002
385.088	19.365	822.157	628.345
386.102	19.154	821.935	627.350
387.117	19.137	820.992	626.516
388.132	19.090	820.991	626.286
389.146	19.179	820.084	625.862
390.161	19.166	820.222	625.867
391.175	19.347	819.694	626.064
392.190	19.321	819.242	625.568
393.205	19.375	818.460	625.112
394.219	19.304	817.957	624.417
395.234	19.296	817.346	623.867
396.248	19.122	817.050	622.954
397.263	19.184	816.432	622.653
398.278	19.016	815.981	621.647
399.292	19.072	815.652	621.542
400.307	19.178	814.996	621.370
401.321	19.241	814.409	621.095
402.336	19.099	814.296	620.441
403.350	19.194	813.850	620.392
404.365	19.285	813.754	620.590
405.380	19.493	813.181	620.846
406.394	19.474	812.660	620.325
407.409	19.493	812.206	619.991
408.423	19.555	811.778	619.833
409.438	19.700	811.372	619.989
410.453	19.743	810.846	619.687
411.467	19.703	810.358	619.117
412.482	19.721	810.032	618.874
413.496	19.811	809.376	618.641
414.511	19.741	809.274	618.260
415.526	19.871	808.684	618.217
416.540	19.722	808.549	617.525
417.555	19.791	808.123	617.395
418.569	19.773	807.344	616.679
419.584	19.651	806.881	615.836
420.599	19.787	806.660	616.099
421.613	155.132	1370.095	1787.135
422.628	134.698	1452.192	1787.232
