DTS Sentinel unit serial number:	SN413079Multiplexer serial number:	ORYXHardware model number:	OX4-SRSoftware version number:	ORYX F/W v4.00 Oryx Data Collector v3.7.2.0data status	okinstallation	princeton_trtdifferential loss correction	single-endedforward channel	channel 3reverse channel	N/Adate	2019/09/13time	14:16:35forward acquisition time	60.00reverse acquisition time	0.00gamma	496.2192k internal	0.2302k external	0.2302temperature offset calibration	1.0147default loss term (dB/km)	0.3790temperature slope calibration	1.0000multiplexer offset coefficient	1.0000multiplexer slope coefficient	1.0000fibre end	0.00T internal ref (°C)	35.27T ext. ref 1 (°C)	4.61T ext. ref 2 (°C)	31.44length (m)	temperature (°C)	Stokes	anti-Stokes-747.200	-85.819	-0.212	0.067
-746.185	-51.088	0.178	0.085
-745.171	-49.739	0.090	0.043
-744.156	106.641	-0.230	0.278
-743.142	-200.000	0.015	0.193
-742.127	800.000	-0.070	0.285
-741.112	-157.910	-0.081	-0.005
-740.098	-70.290	-0.220	-0.085
-739.083	177.598	0.230	-0.341
-738.069	134.089	-0.140	-0.184
-737.054	62.186	-0.189	-0.192
-736.039	-200.000	-0.010	-0.333
-735.025	800.000	-0.065	-0.186
-734.010	-61.731	-0.146	-0.063
-732.996	-63.307	-0.073	0.030
-731.981	331.291	-0.051	-0.100
-730.966	33.405	0.083	0.074
-729.952	-180.826	0.337	0.007
-728.937	66.797	-0.122	0.126
-727.923	-200.000	0.036	0.428
-726.908	-184.314	-0.107	0.002
-725.894	63.661	-0.111	-0.113
-724.879	-84.635	0.236	-0.076
-723.864	-200.000	-0.013	-0.228
-722.850	-200.000	-0.013	-0.219
-721.835	-98.024	-0.095	0.025
-720.821	-41.397	-0.199	0.105
-719.806	-200.000	0.001	-0.107
-718.791	-45.619	0.171	-0.086
-717.777	-200.000	-0.050	-0.236
-716.762	800.000	-0.061	0.242
-715.748	82.011	-0.310	-0.341
-714.733	-200.000	0.005	-0.288
-713.718	-92.606	0.113	0.032
-712.704	288.027	-0.041	0.076
-711.689	-37.686	0.101	0.055
-710.675	210.116	-0.090	0.143
-709.660	-119.550	0.484	-0.085
-708.645	-200.000	0.019	-0.180
-707.631	539.368	0.103	0.250
-706.616	-200.000	-0.008	0.215
-705.602	-129.383	0.125	0.018
-704.587	48.731	-0.133	0.127
-703.572	-200.000	-0.027	-0.146
-702.558	167.116	0.197	-0.285
-701.543	-22.696	-0.103	0.064
-700.529	119.179	0.229	-0.288
-699.514	134.621	-0.185	-0.245
-698.499	-62.887	-0.369	0.155
-697.485	-135.290	0.319	0.039
-696.470	142.049	0.194	0.262
-695.456	151.949	-0.153	-0.213
-694.441	-200.000	-0.042	-0.364
-693.426	-80.073	-0.307	-0.105
-692.412	67.152	-0.157	-0.163
-691.397	328.000	0.079	-0.154
-690.383	-200.000	-0.025	0.317
-689.368	800.000	0.119	-0.390
-688.354	-200.000	-0.009	-0.445
-687.339	365.126	-0.095	-0.196
-686.324	-103.725	0.441	-0.105
-685.310	499.350	0.128	-0.300
-684.295	-1.495	-0.156	-0.112
-683.281	-200.000	0.034	-0.411
-682.266	800.000	0.042	-0.120
-681.251	800.000	-0.017	0.051
-680.237	-200.000	-0.028	-0.181
-679.222	343.847	0.116	0.232
-678.208	209.397	0.095	-0.152
-677.193	76.765	-0.075	-0.081
-676.178	96.170	-0.159	0.184
-675.164	-33.172	-0.117	-0.066
-674.149	339.301	0.052	0.103
-673.135	136.533	0.126	-0.167
-672.120	-55.942	-0.160	0.073
-671.105	-105.447	-0.104	-0.024
-670.091	800.000	-0.010	0.034
-669.076	-93.681	-0.098	0.028
-668.062	-200.000	0.003	0.197
-667.047	759.416	0.051	-0.141
-666.032	392.569	0.120	0.254
-665.018	199.157	-0.197	-0.306
-664.003	-50.245	0.221	-0.106
-662.989	-200.000	-0.042	0.464
-661.974	-200.000	0.031	-0.179
-660.959	50.566	-0.176	-0.169
-659.945	147.305	0.079	0.108
-658.930	800.000	-0.073	-0.244
-657.916	-52.231	0.328	0.154
-656.901	-200.000	-0.000	-0.168
-655.886	-52.309	0.179	-0.084
-654.872	-72.020	-0.119	-0.045
-653.857	202.071	-0.118	0.185
-652.843	-172.499	-0.180	-0.006
-651.828	337.490	-0.098	-0.194
-650.814	-200.000	0.066	0.304
-649.799	304.526	-0.083	0.157
-648.784	-37.992	-0.128	-0.069
-647.770	586.971	-0.133	0.331
-646.755	800.000	0.088	-0.298
-645.741	669.402	-0.034	0.089
-644.726	-200.000	0.016	-0.073
-643.711	171.633	-0.100	-0.146
-642.697	-16.280	0.214	-0.138
-641.682	66.271	0.125	-0.129
-640.668	103.096	0.036	0.043
-639.653	196.623	0.050	0.077
-638.638	-200.000	0.009	0.047
-637.624	728.639	0.091	0.248
-636.609	459.158	0.017	0.038
-635.595	68.580	0.171	-0.178
-634.580	-75.533	0.459	-0.166
-633.565	-105.320	0.342	0.079
-632.551	800.000	0.054	0.231
-631.536	-58.318	-0.397	0.175
-630.522	-57.021	-0.212	-0.095
-629.507	214.053	0.115	0.185
-628.492	-142.041	-0.432	-0.044
-627.478	53.627	0.314	0.306
-626.463	-200.000	0.007	-0.277
-625.449	-64.301	0.113	-0.047
-624.434	800.000	-0.070	-0.199
-623.419	321.866	-0.183	0.353
-622.405	-142.814	-0.272	-0.027
-621.390	155.403	0.197	0.275
-620.376	16.430	-0.119	-0.095
-619.361	-137.447	-0.200	-0.023
-618.346	-200.000	0.002	0.025
-617.332	-200.000	0.006	-0.188
-616.317	62.291	-0.157	-0.159
-615.303	-32.073	0.111	0.063
-614.288	186.607	-0.094	0.141
-613.273	303.802	0.025	-0.047
-612.259	352.360	0.179	-0.360
-611.244	653.689	-0.152	-0.395
-610.230	33.455	-0.049	0.043
-609.215	121.619	-0.031	-0.039
-608.201	-51.151	0.288	-0.137
-607.186	-31.360	0.216	-0.123
-606.171	180.516	0.181	-0.269
-605.157	243.129	-0.105	-0.178
-604.142	-56.439	-0.085	-0.038
-603.128	-102.454	-0.108	-0.026
-602.113	-65.186	-0.178	-0.073
-601.098	-200.000	0.030	-0.135
-600.084	-176.757	-0.121	-0.003
-599.069	-91.355	-0.307	0.089
-598.055	-108.559	-0.112	-0.024
-597.040	-84.517	0.305	-0.098
-596.025	-55.991	0.175	-0.079
-595.011	-15.268	-0.300	-0.194
-593.996	502.333	-0.093	0.219
-592.982	243.428	0.126	0.214
-591.967	-88.054	0.362	0.110
-590.952	44.153	0.037	0.035
-589.938	-200.000	-0.101	0.448
-588.923	-181.154	-0.104	0.002
-587.909	-154.844	0.142	-0.010
-586.894	-162.874	-0.274	-0.013
-585.879	-200.000	0.020	0.187
-584.865	800.000	0.103	0.392
-583.850	680.692	-0.030	-0.078
-582.836	154.447	-0.168	-0.234
-581.821	-65.638	0.124	0.050
-580.806	243.085	0.020	0.035
-579.792	-200.000	0.015	-0.076
-578.777	-200.000	0.004	-0.343
-577.763	788.617	0.097	-0.269
-576.748	-27.455	-0.191	-0.112
-575.733	-81.566	-0.351	-0.117
-574.719	693.626	0.104	0.275
-573.704	-189.858	0.362	0.004
-572.690	40.337	0.076	0.070
-571.675	119.234	-0.095	0.119
-570.661	-200.000	-0.013	0.119
-569.646	488.664	0.088	0.203
-568.631	-101.175	-0.209	-0.052
-567.617	399.638	-0.008	0.017
-566.602	-200.000	-0.030	0.154
-565.588	473.729	0.181	-0.413
-564.573	27.806	0.158	0.135
-563.558	-200.000	0.031	0.167
-562.544	-27.918	-0.326	0.191
-561.529	-70.927	0.280	0.107
-560.515	-200.000	0.037	0.226
-559.500	-200.000	-0.039	-0.526
-558.485	-77.132	-0.359	-0.126
-557.471	-189.215	0.395	0.005
-556.456	272.412	0.044	0.079
-555.442	-170.240	-0.258	0.009
-554.427	-49.544	-0.352	-0.169
-553.412	62.674	-0.089	0.090
-552.398	-116.688	-0.418	-0.078
-551.383	-97.788	-0.310	-0.081
-550.369	383.097	0.109	-0.226
-549.354	64.097	-0.075	-0.076
-548.339	293.950	0.044	-0.081
-547.325	53.811	0.129	0.125
-546.310	-200.000	0.060	-0.383
-545.296	-138.163	-0.341	0.038
-544.281	182.428	0.110	0.165
-543.266	-200.000	0.020	0.135
-542.252	375.291	-0.114	-0.235
-541.237	-71.886	0.172	-0.065
-540.223	-200.000	-0.029	0.143
-539.208	-171.505	-0.305	0.010
-538.193	-170.584	-0.156	-0.005
-537.179	-200.000	-0.076	0.500
-536.164	-35.199	-0.086	0.047
-535.150	201.684	-0.012	-0.019
-534.135	88.619	0.036	0.041
-533.121	6.307	-0.116	0.087
-532.106	-200.000	0.021	-0.118
-531.091	176.552	-0.056	-0.083
-530.077	26.289	-0.105	0.088
-529.062	-54.969	-0.079	-0.036
-528.048	295.349	0.113	-0.208
-527.033	800.000	0.083	0.359
-526.018	-92.781	-0.105	-0.030
-525.004	-131.090	0.152	0.020
-523.989	89.285	0.225	0.254
-522.975	108.748	-0.090	-0.109
-521.960	89.598	0.053	0.059
-520.945	66.266	0.070	0.071
-519.931	616.090	0.111	-0.281
-518.916	-82.748	-0.180	-0.059
-517.902	134.181	0.060	-0.078
-516.887	800.000	-0.045	-0.182
-515.872	-165.282	0.190	-0.008
-514.858	-23.967	-0.229	-0.138
-513.843	246.729	0.084	-0.143
-512.829	599.070	0.130	-0.325
-511.814	-4.859	-0.256	0.178
-510.799	278.112	-0.045	0.081
-509.785	800.000	0.017	-0.075
-508.770	-100.397	-0.096	0.024
-507.756	13.038	0.147	0.114
-506.741	800.000	-0.054	0.159
-505.726	-136.942	-0.276	0.032
-504.712	196.233	-0.304	-0.468
-503.697	68.639	0.203	-0.210
-502.683	-95.457	0.108	-0.029
-501.668	800.000	-0.079	-0.299
-500.653	-200.000	0.015	0.240
-499.639	-200.000	-0.050	0.317
-498.624	-77.581	-0.201	0.070
-497.610	800.000	0.081	-0.250
-496.595	-14.877	0.037	-0.024
-495.581	-85.813	0.062	0.019
-494.566	300.245	-0.073	-0.136
-493.551	4.809	0.133	-0.099
-492.537	-25.185	0.415	-0.248
-491.522	-133.280	-0.315	0.040
-490.508	-139.442	0.183	-0.020
-489.493	-118.969	0.079	0.014
-488.478	800.000	0.037	-0.123
-487.464	-200.000	0.033	-0.244
-486.449	40.993	0.148	0.135
-485.435	56.439	-0.179	-0.176
-484.420	47.816	-0.085	0.080
-483.405	435.375	0.051	0.113
-482.391	800.000	-0.037	-0.154
-481.376	110.922	0.114	-0.139
-480.362	-96.423	0.409	-0.109
-479.347	-200.000	-0.027	-0.139
-478.332	243.481	0.125	0.211
-477.318	146.501	-0.109	-0.147
-476.303	-41.767	-0.152	-0.079
-475.289	12.566	0.126	0.098
-474.274	800.000	-0.045	0.169
-473.259	-100.715	-0.248	-0.062
-472.245	-70.616	-0.234	-0.089
-471.230	-179.345	0.106	-0.002
-470.216	63.713	0.049	0.050
-469.201	-200.000	0.036	-0.310
-468.186	20.700	-0.182	0.148
-467.172	-36.440	-0.068	0.037
-466.157	-101.932	0.347	0.084
-465.143	141.727	0.076	0.102
-464.128	800.000	-0.076	0.242
-463.113	-200.000	-0.047	-0.247
-462.099	-200.000	-0.000	-0.194
-461.084	176.241	0.184	0.269
-460.070	77.482	-0.102	-0.109
-459.055	36.267	-0.198	0.176
-458.040	-150.496	-0.111	0.009
-457.026	-87.619	0.187	0.057
-456.011	-14.621	-0.019	-0.012
-454.997	187.264	0.064	0.095
-453.982	-38.566	0.246	-0.131
-452.968	185.727	-0.190	-0.285
-451.953	52.368	-0.089	-0.085
-450.938	-165.541	0.152	-0.007
-449.924	-90.266	-0.072	-0.021
-448.909	-84.266	-0.251	-0.080
-447.895	-2.042	-0.132	0.093
-446.880	-90.304	-0.161	0.047
-445.865	-124.202	-0.115	0.018
-444.851	-156.192	-0.285	-0.018
-443.836	60.266	-0.248	-0.247
-442.822	31.611	0.226	-0.196
-441.807	-101.647	-0.100	-0.025
-440.792	-200.000	-0.006	-0.038
-439.778	231.157	0.029	0.048
-438.763	-84.789	-0.085	0.027
-437.749	-0.830	0.027	0.019
-436.734	-136.721	-0.448	-0.052
-435.719	9.586	-0.245	0.187
-434.705	163.142	0.117	0.166
-433.690	-119.072	0.327	-0.058
-432.676	30.204	0.215	0.185
-431.661	284.384	-0.151	0.274
-430.646	-86.721	-0.236	0.073
-429.632	307.911	0.168	-0.316
-428.617	-200.000	-0.050	-0.260
-427.603	11.127	0.205	0.158
-426.588	80.922	0.170	0.184
-425.573	-200.000	-0.020	-0.147
-424.559	90.544	-0.038	-0.043
-423.544	-45.774	0.161	0.080
-422.530	78.911	0.050	0.054
-421.515	489.560	0.106	0.245
-420.500	-6.390	-0.122	0.084
-419.486	10.335	-0.116	-0.089
-418.471	91.002	0.153	-0.173
-417.457	-104.622	0.363	0.084
-416.442	107.447	0.041	0.049
-415.428	3.999	0.223	-0.164
-414.413	187.033	0.102	0.152
-413.398	39.473	0.192	-0.173
-412.384	-127.289	0.119	-0.018
-411.369	106.119	-0.233	-0.277
-410.355	211.728	-0.272	-0.431
-409.340	-159.411	0.217	-0.012
-408.325	363.704	0.008	0.016
-407.311	800.000	0.123	-0.402
-406.296	254.794	-0.056	-0.096
-405.282	-180.904	-0.183	-0.004
-404.267	42.226	0.242	0.221
-403.252	131.239	0.120	0.155
-402.238	-200.000	0.012	0.089
-401.223	337.591	0.101	0.198
-400.209	-48.323	-0.440	0.213
-399.194	27.635	0.070	0.060
-398.179	206.443	0.160	-0.250
-397.165	-171.767	0.095	-0.003
-396.150	184.733	0.059	0.088
-395.136	-200.000	-0.010	0.072
-394.121	-200.000	0.038	-0.241
-393.106	-52.562	0.094	0.043
-392.092	-105.803	-0.127	0.029
-391.077	-27.115	0.350	-0.205
-390.063	-26.754	0.180	0.106
-389.048	-86.686	0.223	-0.069
-388.033	122.261	0.183	-0.230
-387.019	-200.000	-0.004	0.074
-386.004	-98.760	0.479	-0.122
-384.990	-200.000	0.058	0.266
-383.975	380.960	0.022	0.045
-382.960	-200.000	-0.064	0.304
-381.946	-200.000	0.079	0.449
-380.931	-20.435	0.228	0.141
-379.917	-107.779	-0.186	-0.041
-378.902	-200.000	-0.017	-0.110
-377.888	800.000	0.048	-0.160
-376.873	800.000	0.059	0.234
-375.858	-148.751	-0.173	-0.014
-374.844	800.000	0.066	0.235
-373.829	800.000	0.099	-0.314
-372.815	-200.000	-0.016	0.206
-371.800	-32.534	0.208	0.117
-370.785	-200.000	-0.004	0.162
-369.771	-144.337	-0.162	0.015
-368.756	800.000	-0.037	-0.141
-367.742	270.841	0.115	-0.204
-366.727	-73.585	-0.315	0.115
-365.712	-200.000	-0.018	-0.109
-364.698	-57.297	0.207	-0.091
-363.683	-200.000	-0.006	0.170
-362.669	-93.696	-0.186	0.052
-361.654	-148.985	0.118	0.010
-360.639	244.499	0.062	-0.105
-359.625	-69.140	0.229	-0.089
-358.610	353.452	-0.028	0.056
-357.596	-71.292	-0.155	0.059
-356.581	-175.778	-0.215	-0.006
-355.566	727.851	-0.094	0.251
-354.552	-10.726	0.337	0.224
-353.537	631.499	-0.162	0.411
-352.523	-74.550	0.141	0.051
-351.508	-78.680	-0.112	0.038
-350.493	275.113	0.143	-0.255
-349.479	-59.491	-0.096	-0.041
-348.464	1.648	-0.239	0.173
-347.450	-200.000	-0.020	0.314
-346.435	-121.332	0.126	-0.021
-345.420	-45.560	0.110	0.054
-344.406	-35.129	0.152	-0.083
-343.391	22.207	0.222	-0.182
-342.377	173.665	-0.112	-0.162
-341.362	-19.081	0.175	-0.109
-340.348	25.250	-0.295	-0.246
-339.333	510.478	0.118	-0.276
-338.318	800.000	-0.064	0.202
-337.304	-64.260	-0.279	0.114
-336.289	90.053	-0.328	0.367
-335.275	-190.363	-0.364	-0.004
-334.260	-57.278	-0.176	0.077
-333.245	413.756	-0.166	0.353
-332.231	-88.779	0.259	0.077
-331.216	389.291	-0.128	-0.266
-330.202	-20.666	0.259	-0.159
-329.187	115.439	0.282	0.346
-328.172	-69.442	-0.203	-0.078
-327.158	-200.000	0.015	-0.123
-326.143	-200.000	-0.002	0.044
-325.129	-21.665	0.143	-0.088
-324.114	-2.769	-0.326	0.228
-323.099	-16.438	0.440	0.279
-322.085	-130.479	-0.354	0.048
-321.070	-70.972	-0.142	-0.054
-320.056	-72.789	-0.299	-0.110
-319.041	-157.200	-0.236	-0.014
-318.026	-154.450	0.117	-0.008
-317.012	-47.573	-0.174	-0.085
-315.997	800.000	0.044	-0.186
-314.983	-200.000	0.000	-0.111
-313.968	33.517	-0.212	0.185
-312.953	-122.966	-0.240	0.039
-311.939	-200.000	0.019	0.000
-310.924	-45.153	0.028	0.014
-309.910	-77.508	-0.240	0.083
-308.895	361.353	-0.088	-0.176
-307.880	800.000	0.037	-0.129
-306.866	82.037	-0.179	0.194
-305.851	-48.105	0.207	0.100
-304.837	-31.995	-0.121	0.068
-303.822	233.876	0.164	0.270
-302.807	-152.996	0.300	-0.021
-301.793	31.115	-0.087	-0.074
-300.778	138.740	0.102	0.134
-299.764	78.030	0.190	0.203
-298.749	730.636	0.052	0.140
-297.735	800.000	-0.106	0.317
-296.720	-81.752	0.134	0.044
-295.705	283.969	-0.052	0.094
-294.691	35.933	0.081	-0.072
-293.676	724.014	-0.020	0.053
-292.662	-200.000	0.006	-0.136
-291.647	35.160	-0.097	0.085
-290.632	16.421	0.008	-0.006
-289.618	251.555	0.036	0.061
-288.603	370.140	-0.089	-0.180
-287.589	66.620	0.239	-0.243
-286.574	-35.843	0.236	0.128
-285.559	-105.769	0.140	0.032
-284.545	198.175	0.163	-0.250
-283.530	-155.658	0.030	0.002
-282.516	-26.263	-0.047	-0.028
-281.501	-81.084	-0.272	0.090
-280.486	185.543	0.017	-0.026
-279.472	1.536	-0.332	-0.239
-278.457	-24.358	-0.093	0.056
-277.443	-110.049	0.222	0.046
-276.428	22.658	0.241	0.198
-275.413	-130.360	0.389	0.053
-274.399	676.745	-0.080	0.208
-273.384	137.697	0.094	-0.123
-272.370	800.000	0.023	-0.073
-271.355	-197.809	-0.246	-0.001
-270.340	800.000	0.066	-0.240
-269.326	-83.276	0.052	-0.017
-268.311	-200.000	0.005	0.234
-267.297	14.848	0.225	-0.176
-266.282	27.866	0.079	0.067
-265.267	-111.728	-0.291	0.059
-264.253	15.941	-0.117	0.092
-263.238	-130.582	0.124	-0.017
-262.224	8.409	0.118	-0.089
-261.209	800.000	-0.023	0.064
-260.195	800.000	0.063	-0.223
-259.180	800.000	0.165	-0.533
-258.165	-106.870	-0.237	-0.053
-257.151	70.585	-0.043	-0.044
-256.136	-200.000	0.017	-0.208
-255.122	800.000	0.119	-0.363
-254.107	-59.285	0.010	0.004
-253.092	655.557	-0.122	-0.312
-252.078	-200.000	-0.010	0.094
-251.063	-117.596	0.181	0.033
-250.049	462.079	0.133	-0.298
-249.034	94.660	-0.127	0.144
-248.019	78.104	0.183	-0.195
-247.005	505.465	-0.068	0.156
-245.990	-194.020	-0.410	-0.003
-244.976	-103.471	-0.123	0.029
-243.961	-200.000	-0.019	0.326
-242.946	-62.053	-0.262	-0.109
-241.932	579.375	-0.063	-0.154
-240.917	-7.015	0.010	0.007
-239.903	-78.309	0.167	0.057
-238.888	-200.000	0.011	-0.081
-237.873	800.000	0.038	0.141
-236.859	97.129	-0.132	0.151
-235.844	-24.318	0.111	-0.066
-234.830	-116.637	0.296	-0.054
-233.815	82.498	0.125	0.136
-232.800	-105.551	0.135	0.031
-231.786	-119.996	-0.176	0.030
-230.771	-200.000	-0.034	0.179
-229.757	-79.565	-0.149	-0.050
-228.742	774.238	-0.069	-0.189
-227.727	-63.191	0.203	0.084
-226.713	-58.813	-0.464	-0.200
-225.698	217.010	0.122	-0.194
-224.684	73.243	-0.056	0.058
-223.669	116.204	0.070	0.086
-222.655	-67.545	0.246	0.096
-221.640	273.614	-0.149	0.262
-220.625	-86.941	0.230	-0.070
-219.611	132.043	0.172	-0.221
-218.596	-16.987	-0.141	-0.089
-217.582	-200.000	0.022	-0.203
-216.567	509.496	-0.119	0.276
-215.552	-200.000	0.026	-0.200
-214.538	-192.251	0.455	-0.004
-213.523	92.589	-0.108	0.122
-212.509	-200.000	-0.002	-0.198
-211.494	-156.920	0.100	0.006
-210.479	-84.319	0.169	-0.053
-209.465	-92.191	0.300	0.084
-208.450	-62.014	0.078	0.032
-207.436	-200.000	0.299	0.001
-206.421	-200.000	0.015	-0.187
-205.406	-200.000	-0.024	0.181
-204.392	308.327	-0.037	0.069
-203.377	800.000	-0.030	-0.088
-202.363	-74.219	-0.345	0.124
-201.348	483.814	0.051	0.115
-200.333	-66.465	-0.096	-0.038
-199.319	-200.000	-0.066	0.330
-198.304	800.000	-0.037	0.134
-197.290	-169.195	-0.330	0.012
-196.275	638.127	0.029	0.074
-195.260	-200.000	0.039	-0.184
-194.246	47.580	-0.109	-0.101
-193.231	800.000	-0.106	-0.356
-192.217	800.000	-0.065	0.195
-191.202	-140.331	0.416	-0.043
-190.187	800.000	0.068	-0.250
-189.173	-200.000	0.027	0.142
-188.158	-22.645	-0.235	-0.142
-187.144	-141.422	-0.026	-0.003
-186.129	274.937	0.068	-0.120
-185.114	-200.000	0.029	0.227
-184.100	-32.193	0.133	0.074
-183.085	565.212	-0.158	-0.383
-182.071	-81.021	-0.233	0.077
-181.056	5.981	0.068	0.050
-180.042	139.802	0.100	0.131
-179.027	-53.850	0.261	0.118
-178.012	-123.740	-0.121	-0.019
-176.998	-78.501	0.372	0.127
-175.983	297.517	-0.192	0.352
-174.969	-200.000	-0.061	0.292
-173.954	-200.000	0.043	0.474
-172.939	-40.971	-0.136	-0.070
-171.925	-134.801	0.295	0.036
-170.910	24.599	-0.247	-0.204
-169.896	-34.811	-0.147	-0.080
-168.881	752.904	0.104	-0.280
-167.866	-200.000	-0.011	0.085
-166.852	-74.227	-0.188	-0.068
-165.837	-200.000	0.366	-0.001
-164.823	-52.871	-0.177	-0.081
-163.808	6.994	-0.088	0.066
-162.793	-30.767	0.100	-0.057
-161.779	69.809	-0.087	0.089
-160.764	-200.000	0.032	0.291
-159.750	-125.882	-0.121	0.018
-158.735	-200.000	0.004	0.025
-157.720	-200.000	-0.019	-0.120
-156.706	-200.000	0.005	0.386
-155.691	90.263	-0.187	0.209
-154.677	800.000	0.015	-0.057
-153.662	90.257	0.083	-0.092
-152.647	-200.000	0.079	0.366
-151.633	168.486	0.084	0.119
-150.618	-5.444	-0.154	-0.106
-149.604	800.000	-0.034	-0.106
-148.589	-79.278	0.126	0.043
-147.574	92.593	-0.173	0.194
-146.560	-110.425	-0.096	0.020
-145.545	-140.916	-0.265	0.027
-144.531	-180.804	-0.360	0.007
-143.516	7.097	0.120	0.089
-142.502	662.484	0.032	0.082
-141.487	800.000	0.080	-0.242
-140.472	205.826	-0.106	0.165
-139.458	185.882	-0.226	-0.334
-138.443	-200.000	-0.072	0.327
-137.429	-137.510	-0.568	-0.064
-136.414	-200.000	0.012	0.206
-135.399	160.401	0.237	0.329
-134.385	86.146	0.219	0.240
-133.370	-200.000	-0.023	0.124
-132.356	398.635	0.124	-0.257
-131.341	-97.730	-0.166	-0.043
-130.326	-200.000	0.007	0.187
-129.312	392.743	-0.147	0.305
-128.297	-145.832	0.081	0.007
-127.283	31.699	-0.149	0.127
-126.268	191.506	0.127	-0.190
-125.253	-67.049	0.185	-0.072
-124.239	-121.537	0.086	0.014
-123.224	-89.744	0.173	0.050
-122.210	-73.720	0.248	0.090
-121.195	-200.000	-0.208	-0.000
-120.180	282.912	0.143	0.255
-119.166	272.314	-0.104	0.182
-118.151	766.332	0.124	-0.335
-117.137	-71.076	0.068	-0.025
-116.122	134.332	0.056	0.072
-115.107	-200.000	0.003	-0.374
-114.093	-200.000	0.007	-0.040
-113.078	64.060	0.262	0.262
-112.064	-200.000	-0.021	0.104
-111.049	270.716	0.067	-0.118
-110.034	41.046	-0.168	0.151
-109.020	-181.787	0.187	0.004
-108.005	-8.202	-0.338	0.227
-106.991	-200.000	-0.015	-0.102
-105.976	-152.286	-0.112	0.008
-104.962	-200.000	0.037	0.240
-103.947	26.848	-0.025	0.021
-102.932	-16.677	-0.090	0.057
-101.918	141.192	0.044	0.058
-100.903	86.110	0.122	-0.133
-99.889	-81.599	0.242	0.079
-98.874	-92.203	-0.319	0.089
-97.859	19.887	0.068	-0.054
-96.845	-200.000	0.016	0.134
-95.830	759.059	0.068	0.183
-94.816	-101.865	-0.492	0.118
-93.801	-27.850	0.053	0.031
-92.786	-66.991	0.213	-0.084
-91.772	687.302	0.026	0.069
-90.757	-33.636	0.240	0.132
-89.743	-0.166	-0.153	0.108
-88.728	-56.377	0.367	-0.162
-87.713	-91.614	-0.143	0.040
-86.699	-200.000	0.022	0.177
-85.684	43.432	-0.167	-0.152
-84.670	606.775	-0.061	-0.152
-83.655	51.103	0.125	-0.118
-82.640	-165.816	-0.514	0.022
-81.626	-103.949	-0.202	-0.047
-80.611	62.156	-0.160	0.159
-79.597	-200.000	-0.018	0.131
-78.582	-78.633	0.182	0.062
-77.567	-37.596	0.081	-0.043
-76.553	-133.593	-0.171	-0.021
-75.538	-37.490	0.171	0.090
-74.524	138.549	-0.087	-0.113
-73.509	800.000	0.161	0.587
-72.494	-96.917	0.116	-0.030
-71.480	-108.119	-0.253	0.054
-70.465	98.680	0.150	0.171
-69.451	-200.000	0.008	0.319
-68.436	117.879	0.101	-0.123
-67.422	-98.347	-0.275	-0.070
-66.407	11.896	-0.128	-0.098
-65.392	-133.897	-0.220	-0.027
-64.378	117.502	-0.137	-0.167
-63.363	154.093	0.256	0.349
-62.349	199.900	-0.062	0.095
-61.334	100.708	-0.681	-0.785
-60.319	-16.678	0.376	0.236
-59.305	414.150	-0.364	-0.768
-58.290	709.644	0.300	0.787
-57.276	-200.000	0.245	1.250
-56.261	-200.000	94.630	560.194
-55.246	628.274	1383.600	3467.999
-54.232	185.664	2603.154	3836.387
-53.217	121.245	2216.265	2737.212
-52.203	45.856	1748.126	1603.648
-51.188	38.482	1557.286	1376.898
-50.173	35.848	1529.934	1334.428
-49.159	53.748	1579.774	1504.491
-48.144	57.474	1598.544	1548.568
-47.130	38.818	1554.407	1376.492
-46.115	35.531	1538.742	1339.683
-45.100	35.388	1535.505	1335.815
-44.086	35.330	1533.693	1333.782
-43.071	35.265	1532.027	1331.827
-42.057	35.237	1530.302	1330.085
-41.042	35.292	1528.368	1328.733
-40.027	35.266	1527.351	1327.613
-39.013	35.294	1525.994	1326.576
-37.998	35.229	1524.360	1324.655
-36.984	35.284	1523.247	1324.011
-35.969	35.169	1522.472	1322.493
-34.954	35.260	1520.939	1321.733
-33.940	35.231	1519.351	1320.103
-32.925	35.241	1518.265	1319.179
-31.911	35.323	1516.242	1317.932
-30.896	35.271	1515.534	1316.908
-29.881	35.301	1513.509	1315.299
-28.867	35.351	1512.305	1314.542
-27.852	35.316	1510.941	1313.069
-26.838	35.313	1509.435	1311.688
-25.823	35.408	1507.477	1310.581
-24.809	35.336	1505.746	1308.532
-23.794	35.324	1505.157	1307.887
-22.779	35.356	1504.128	1307.163
-21.765	35.260	1502.815	1305.310
-20.750	35.290	1501.448	1304.279
-19.736	35.256	1500.391	1303.078
-18.721	35.294	1499.396	1302.421
-17.706	35.306	1498.052	1301.284
-16.692	35.318	1496.837	1300.255
-15.677	35.244	1496.162	1299.117
-14.663	35.196	1495.129	1297.845
-13.648	35.159	1494.338	1296.853
-12.633	35.209	1493.288	1296.228
-11.619	35.249	1492.288	1295.581
-10.604	35.227	1491.528	1294.717
-9.590	35.219	1490.354	1293.595
-8.575	35.242	1489.671	1293.107
-7.560	35.271	1488.819	1292.512
-6.546	35.250	1487.905	1291.525
-5.531	35.281	1486.690	1290.628
-4.517	35.249	1485.886	1289.662
-3.502	35.217	1485.410	1288.982
-2.487	35.298	1484.033	1288.284
-1.473	35.201	1482.554	1286.298
-0.458	35.311	1481.422	1285.999
0.556	37.517	1471.854	1275.520
1.571	34.352	1445.068	1231.779
2.586	30.326	1380.711	1151.887
3.600	28.057	1296.591	1068.375
4.615	25.636	1248.739	1015.211
5.629	21.703	1190.155	946.300
6.644	12.910	1104.047	833.502
7.659	5.968	1062.164	767.957
8.673	4.836	1055.881	757.842
9.688	4.672	1052.833	754.787
10.702	4.309	1051.735	752.176
11.717	4.614	1050.102	752.418
12.731	7.886	1053.421	770.590
13.746	16.517	1065.440	821.413
14.761	22.277	1072.121	854.561
15.775	22.330	1070.979	853.831
16.790	21.613	1068.704	848.471
17.804	20.345	1067.716	841.466
18.819	19.650	1065.055	835.933
19.834	19.078	1064.379	832.566
20.848	18.842	1063.240	830.458
21.863	18.867	1062.699	830.081
22.877	18.629	1061.800	828.158
23.892	18.550	1061.343	827.351
24.907	18.523	1060.013	826.110
25.921	18.324	1059.461	824.644
26.936	18.370	1059.001	824.439
27.950	18.372	1057.763	823.410
28.965	18.431	1056.480	822.622
29.980	18.493	1055.175	821.832
30.994	18.601	1054.191	821.508
32.009	18.779	1053.746	821.942
33.023	18.819	1052.718	821.256
34.038	18.955	1051.624	820.979
35.053	18.597	1051.007	818.719
36.067	18.528	1050.244	817.723
37.082	18.344	1049.117	815.894
38.096	18.549	1048.012	815.940
39.111	18.682	1047.544	816.135
40.126	18.632	1046.984	815.390
41.140	18.563	1045.466	813.805
42.155	18.372	1044.493	812.071
43.169	18.232	1043.340	810.439
44.184	18.088	1042.119	808.741
45.199	18.109	1040.990	807.891
46.213	18.119	1040.057	807.144
47.228	18.111	1039.543	806.637
48.242	18.308	1038.667	806.814
49.257	18.587	1037.352	807.032
50.271	18.368	1036.749	805.463
51.286	18.284	1036.425	804.742
52.301	18.700	1034.667	805.258
53.315	18.608	1034.049	804.275
54.330	18.414	1033.445	802.828
55.344	18.316	1032.306	801.411
56.359	18.351	1031.138	800.599
57.374	18.174	1030.365	799.100
58.388	18.265	1029.628	798.883
59.403	18.075	1029.006	797.443
60.417	18.119	1028.294	797.025
61.432	18.074	1027.200	795.900
62.447	18.054	1026.783	795.412
63.461	17.981	1025.472	793.985
64.476	17.894	1024.757	792.957
65.490	17.886	1023.337	791.753
66.505	18.012	1022.581	791.681
67.520	17.948	1022.048	790.900
68.534	17.957	1021.422	790.389
69.549	17.820	1021.089	789.427
70.563	17.871	1019.699	788.516
71.578	17.977	1018.940	788.353
72.593	17.793	1018.057	786.750
73.607	17.724	1017.021	785.560
74.622	17.544	1016.123	783.971
75.636	17.621	1015.161	783.515
76.651	17.736	1014.336	783.337
77.666	17.800	1013.786	783.134
78.680	17.922	1013.329	783.274
79.695	17.928	1012.594	782.661
80.709	17.895	1011.845	781.861
81.724	18.074	1011.288	782.184
82.739	18.174	1010.524	781.980
83.753	17.930	1010.553	780.816
84.768	18.488	1009.388	782.396
85.782	18.551	1009.000	782.312
86.797	18.761	1008.333	782.685
87.812	18.811	1007.583	782.262
88.826	18.613	1006.339	780.323
89.841	18.483	1005.442	778.968
90.855	18.612	1004.809	778.994
91.870	18.663	1004.298	778.764
92.884	18.644	1003.543	778.022
93.899	18.648	1002.927	777.494
94.914	18.722	1001.750	776.847
95.928	18.736	1001.394	776.564
96.943	18.854	1000.360	776.228
97.957	18.659	999.423	774.552
98.972	18.639	998.474	773.659
99.987	18.603	998.165	773.190
101.001	18.584	997.734	772.699
102.016	18.589	996.738	771.885
103.030	18.772	995.159	771.413
104.045	18.736	994.577	770.735
105.060	18.688	993.965	769.975
106.074	18.687	992.236	768.565
107.089	18.564	991.032	767.011
108.103	18.031	990.672	764.281
109.118	18.005	989.417	763.130
110.133	18.104	988.064	762.459
111.147	18.071	987.403	761.736
112.162	17.844	986.964	760.320
113.176	18.081	985.576	760.235
114.191	18.169	984.844	759.996
115.206	18.124	984.489	759.456
116.220	18.246	983.388	759.078
117.235	18.159	982.576	758.002
118.249	18.104	981.787	757.081
119.264	18.026	980.965	756.035
120.279	17.965	979.978	754.937
121.293	17.903	979.345	754.110
122.308	17.958	978.368	753.535
123.322	17.900	977.615	752.632
124.337	17.782	976.287	751.024
125.352	17.636	975.565	749.758
126.366	17.855	974.084	749.517
127.381	17.877	973.142	748.822
128.395	17.785	972.271	747.682
129.410	17.796	971.299	746.915
130.424	17.932	970.422	746.769
131.439	17.961	969.754	746.318
132.454	18.163	969.102	746.630
133.468	18.117	968.660	746.023
134.483	18.217	968.099	745.963
135.497	18.326	967.017	745.535
136.512	18.183	966.674	744.584
137.527	18.230	965.754	744.013
138.541	18.206	964.643	742.987
139.556	18.254	964.320	742.880
140.570	18.249	963.689	742.307
141.585	18.333	962.814	741.931
142.600	18.612	962.285	742.668
143.614	18.536	961.516	741.678
144.629	18.616	960.897	741.481
145.643	18.589	960.265	740.811
146.658	18.563	959.392	739.962
147.673	18.611	958.218	739.196
148.687	18.357	957.216	737.263
149.702	18.329	956.223	736.314
150.716	18.169	954.761	734.435
151.731	18.148	954.105	733.776
152.746	18.138	953.885	733.498
153.760	18.193	953.023	733.007
154.775	18.334	951.874	732.664
155.789	18.324	951.667	732.397
156.804	18.549	950.332	732.263
157.819	18.484	949.746	731.470
158.833	18.397	949.485	730.834
159.848	18.482	948.940	730.713
160.862	18.708	947.946	730.845
161.877	18.676	947.152	730.032
162.892	18.417	946.397	728.284
163.906	18.261	945.158	726.603
164.921	18.134	944.607	725.578
165.935	18.169	943.142	724.537
166.950	18.198	942.463	724.075
167.964	18.410	941.391	724.081
168.979	18.298	940.714	723.023
169.994	18.206	940.002	722.022
171.008	18.317	938.606	721.356
172.023	18.257	938.494	720.954
173.037	18.468	937.692	721.159
174.052	18.577	936.779	720.855
175.067	18.587	936.032	720.258
176.081	18.358	934.989	718.429
177.096	18.165	934.265	717.003
178.110	18.119	933.465	716.133
179.125	18.199	932.891	715.964
180.140	18.402	931.383	715.589
181.154	18.357	931.398	715.350
182.169	18.378	930.672	714.817
183.183	18.481	930.074	714.722
184.198	18.581	929.490	714.626
185.213	18.646	928.986	714.447
186.227	18.564	928.541	713.702
187.242	18.607	927.951	713.363
188.256	18.555	927.480	712.723
189.271	18.779	926.306	712.687
190.286	18.902	925.456	712.478
191.300	18.659	924.555	710.716
192.315	18.286	923.628	708.396
193.329	17.992	922.796	706.482
194.344	18.121	921.946	706.299
195.359	18.215	921.530	706.306
196.373	18.422	920.960	706.664
197.388	18.463	920.851	706.687
198.402	18.639	920.410	707.012
199.417	18.632	920.419	706.926
200.432	18.806	919.956	707.222
201.446	18.980	919.456	707.491
202.461	19.110	919.099	707.691
203.475	19.170	918.347	707.294
204.490	19.150	917.613	706.584
205.504	18.860	916.646	704.587
206.519	18.739	915.679	703.287
207.534	18.824	915.066	703.104
208.548	18.697	914.001	701.703
209.563	18.869	913.498	701.957
210.577	18.886	912.664	701.324
211.592	18.803	911.950	700.375
212.607	18.919	911.754	700.635
213.621	19.170	911.622	701.492
214.636	19.026	910.617	700.072
215.650	18.804	910.002	698.635
216.665	18.981	909.737	699.088
217.680	19.050	909.045	698.776
218.694	19.189	908.777	699.072
219.709	19.253	908.466	699.029
220.723	19.240	907.306	698.025
221.738	19.239	906.484	697.325
222.753	19.177	905.613	696.344
223.767	19.083	905.192	695.577
224.782	19.234	904.181	695.347
225.796	19.369	903.705	695.463
226.811	19.460	903.160	695.349
227.826	19.464	902.193	694.561
228.840	19.325	901.222	693.192
229.855	19.019	901.251	691.922
230.869	19.081	900.312	691.389
231.884	19.117	899.740	691.033
232.899	19.103	899.169	690.479
233.913	18.847	898.255	688.692
234.928	18.917	897.360	688.223
235.942	18.977	896.298	687.587
236.957	18.847	895.843	686.661
237.972	18.762	895.770	686.201
238.986	18.889	894.716	685.843
240.001	18.907	894.267	685.506
241.015	18.962	893.273	684.902
242.030	18.963	892.854	684.526
243.045	19.106	892.187	684.525
244.059	19.085	892.071	684.292
245.074	19.212	890.851	683.799
246.088	19.171	890.398	683.228
247.103	19.197	890.454	683.313
248.117	19.303	889.699	683.092
249.132	19.392	889.111	682.933
250.147	19.728	888.869	684.016
251.161	19.939	888.142	684.231
252.176	19.905	887.889	683.843
253.190	20.010	887.004	683.512
254.205	20.083	886.441	683.307
255.220	20.130	886.077	683.151
256.234	20.048	885.361	682.217
257.249	20.072	884.505	681.589
258.263	20.039	883.788	680.846
259.278	19.916	883.338	679.959
260.293	19.920	883.137	679.758
261.307	19.903	882.887	679.438
262.322	20.032	881.700	678.972
263.336	20.151	881.181	678.977
264.351	20.021	881.021	678.287
265.366	20.245	880.136	678.418
266.380	20.164	879.794	677.779
267.395	20.256	878.871	677.368
268.409	20.210	877.744	676.261
269.424	20.053	877.327	675.269
270.439	19.992	876.746	674.521
271.453	19.908	875.784	673.394
272.468	19.900	874.978	672.687
273.482	20.002	874.091	672.339
274.497	19.857	873.753	671.456
275.512	19.876	873.212	671.057
276.526	19.889	872.393	670.419
277.541	19.827	871.873	669.719
278.555	19.980	871.355	669.853
279.570	20.064	870.766	669.664
280.585	20.245	870.254	669.911
281.599	20.307	869.553	669.555
282.614	20.108	869.052	668.340
283.628	19.983	868.278	667.203
284.643	19.906	867.911	666.565
285.657	20.101	867.108	666.642
286.672	19.962	866.747	665.771
287.687	20.056	866.092	665.570
288.701	20.025	865.560	664.983
289.716	19.999	864.882	664.302
290.730	20.063	864.065	663.861
291.745	20.058	863.785	663.571
292.760	20.035	863.276	663.031
293.774	20.201	862.731	663.189
294.789	20.408	861.970	663.334
295.803	20.375	861.760	662.989
296.818	20.231	860.961	661.766
297.833	20.115	860.085	660.593
298.847	20.106	859.687	660.195
299.862	20.152	859.019	659.800
300.876	20.189	858.192	659.244
301.891	20.365	857.349	659.209
302.906	20.332	857.099	658.832
303.920	20.596	856.155	659.048
304.935	20.683	855.685	658.959
305.949	20.694	855.642	658.909
306.964	20.658	855.064	658.270
307.979	20.416	854.139	656.582
308.993	20.592	853.386	656.613
310.008	20.652	853.221	656.653
311.022	20.642	852.773	656.214
312.037	20.587	852.007	655.359
313.052	20.490	851.734	654.723
314.066	20.271	850.459	652.862
315.081	20.268	849.810	652.296
316.095	20.173	849.739	651.826
317.110	20.235	848.897	651.355
318.125	20.165	848.520	650.746
319.139	20.277	847.666	650.453
320.154	20.280	847.202	650.049
321.168	20.321	846.697	649.759
322.183	20.279	846.371	649.293
323.197	20.433	845.959	649.495
324.212	20.415	845.119	648.727
325.227	20.372	844.682	648.173
326.241	20.332	844.264	647.646
327.256	20.284	843.749	647.013
328.270	20.266	842.975	646.296
329.285	20.361	842.396	646.151
330.300	20.279	842.216	645.647
331.314	20.266	840.848	644.497
332.329	20.200	841.123	644.403
333.343	20.467	840.153	644.595
334.358	20.615	840.132	645.069
335.373	20.673	839.378	644.647
336.387	20.472	838.757	643.373
337.402	20.680	838.267	643.707
338.416	20.821	837.596	643.654
339.431	20.882	837.338	643.626
340.446	21.032	836.804	643.714
341.460	21.003	836.315	643.174
342.475	20.997	835.824	642.716
343.489	21.160	835.270	642.834
344.504	21.145	834.590	642.199
345.519	21.127	834.376	641.911
346.533	21.314	834.026	642.272
347.548	21.209	833.413	641.356
348.562	21.022	832.733	640.091
349.577	20.947	832.085	639.261
350.592	20.750	831.431	637.982
351.606	20.673	830.386	636.842
352.621	20.600	830.302	636.452
353.635	20.662	830.152	636.509
354.650	20.856	829.396	636.581
355.665	20.778	828.876	635.842
356.679	20.897	828.461	635.901
357.694	21.040	828.140	636.118
358.708	21.077	827.511	635.715
359.723	20.950	827.146	634.916
360.738	21.030	826.252	634.463
361.752	21.216	825.424	634.447
362.767	21.064	825.564	633.946
363.781	21.289	825.238	634.459
364.796	21.291	824.936	634.177
365.810	21.240	824.572	633.657
366.825	21.537	824.140	634.343
367.840	21.650	824.212	634.754
368.854	21.615	823.590	634.090
369.869	21.398	822.891	632.712
370.883	21.303	822.368	631.909
371.898	21.409	821.794	631.797
372.913	21.434	821.243	631.407
373.927	21.516	820.518	631.091
374.942	21.524	819.963	630.635
375.956	21.529	819.211	630.018
376.971	21.539	818.600	629.531
377.986	21.550	818.427	629.381
379.000	21.773	817.789	629.635
380.015	21.803	817.272	629.289
381.029	21.884	816.578	628.990
382.044	21.611	816.486	627.883
383.059	21.561	816.124	627.372
384.073	21.667	815.461	627.186
385.088	21.775	814.303	626.624
386.102	21.450	813.787	625.013
387.117	21.493	812.798	624.350
388.132	21.338	812.613	623.600
389.146	21.441	812.136	623.547
390.161	21.446	811.703	623.176
391.175	21.457	811.830	623.258
392.190	21.768	811.283	623.889
393.205	21.767	810.486	623.218
394.219	21.448	810.301	621.886
395.234	21.534	809.572	621.579
396.248	21.395	809.076	620.648
397.263	21.319	808.695	620.032
398.278	21.058	808.274	618.727
399.292	21.136	807.634	618.460
400.307	21.212	807.070	618.241
401.321	21.240	806.510	617.858
402.336	21.351	806.145	617.916
403.350	21.272	805.992	617.466
404.365	21.483	805.291	617.618
405.380	21.580	805.343	617.947
406.394	21.750	804.632	617.943
407.409	21.900	804.318	618.178
408.423	21.895	804.321	618.109
409.438	21.824	803.647	617.285
410.453	21.939	803.492	617.516
411.467	21.991	802.880	617.175
412.482	22.051	802.558	617.082
413.496	22.143	802.061	616.968
414.511	22.142	801.902	616.789
415.526	22.292	801.373	616.852
416.540	22.321	800.663	616.353
417.555	22.239	800.182	615.642
418.569	22.132	799.681	614.828
419.584	21.913	799.727	614.042
420.599	22.134	799.161	614.324
421.613	158.513	1368.481	1788.728
422.628	137.540	1451.448	1788.848
