DTS Sentinel unit serial number:	SN413079Multiplexer serial number:	ORYXHardware model number:	OX4-SRSoftware version number:	ORYX F/W v4.00 Oryx Data Collector v3.7.2.0data status	okinstallation	princeton_trtdifferential loss correction	single-endedforward channel	channel 3reverse channel	N/Adate	2019/09/12time	12:30:11forward acquisition time	60.00reverse acquisition time	0.00gamma	496.2192k internal	0.2292k external	0.2292temperature offset calibration	1.0047default loss term (dB/km)	0.3790temperature slope calibration	1.0000multiplexer offset coefficient	1.0000multiplexer slope coefficient	1.0000fibre end	0.00T internal ref (°C)	40.50T ext. ref 1 (°C)	2.03T ext. ref 2 (°C)	35.56length (m)	temperature (°C)	Stokes	anti-Stokes-747.200	307.736	-0.133	0.254
-746.185	219.369	0.067	0.110
-745.171	610.109	-0.036	0.093
-744.156	273.233	0.079	0.144
-743.142	-25.399	-0.224	0.136
-742.127	101.706	0.116	0.139
-741.112	-20.740	0.206	0.130
-740.098	77.926	0.043	0.047
-739.083	800.000	0.078	0.240
-738.069	-200.000	0.005	-0.093
-737.054	-200.000	-0.009	0.372
-736.039	-141.929	-0.315	0.032
-735.025	408.216	0.090	0.194
-734.010	129.498	0.167	-0.218
-732.996	25.257	0.186	-0.158
-731.981	-117.875	-0.369	-0.068
-730.966	90.931	0.136	-0.156
-729.952	74.437	0.104	-0.112
-728.937	-122.367	-0.063	0.010
-727.923	-164.447	0.150	-0.007
-726.908	34.042	-0.159	-0.142
-725.894	306.224	-0.174	-0.330
-724.879	-200.000	0.021	-0.336
-723.864	-6.834	-0.238	-0.165
-722.850	800.000	0.060	0.249
-721.835	109.219	-0.137	0.168
-720.821	800.000	-0.096	-0.279
-719.806	-89.901	0.108	-0.032
-718.791	800.000	-0.169	-0.497
-717.777	595.171	0.224	-0.568
-716.762	-39.115	0.069	-0.037
-715.748	800.000	-0.096	0.368
-714.733	-79.918	-0.167	-0.057
-713.718	-200.000	0.069	-0.439
-712.704	-36.609	-0.160	0.088
-711.689	81.660	0.135	0.149
-710.675	-132.414	0.287	-0.038
-709.660	-72.880	-0.096	-0.036
-708.645	230.277	-0.068	-0.114
-707.631	-200.000	-0.050	-0.262
-706.616	-84.874	-0.194	-0.062
-705.602	-98.542	-0.179	0.047
-704.587	-2.050	0.170	0.122
-703.572	98.967	0.169	-0.199
-702.558	800.000	-0.075	-0.246
-701.543	130.535	-0.206	0.270
-700.529	800.000	0.047	-0.192
-699.514	238.951	0.036	-0.061
-698.499	-179.712	-0.123	0.003
-697.485	-60.868	-0.216	0.093
-696.470	-83.221	0.279	0.092
-695.456	147.149	-0.073	-0.101
-694.441	202.440	0.125	0.197
-693.426	-200.000	-0.028	-0.160
-692.412	-200.000	0.018	-0.254
-691.397	-80.552	-0.069	0.024
-690.383	23.170	0.240	-0.201
-689.368	-166.002	-0.265	0.012
-688.354	-200.000	-0.092	0.411
-687.339	-26.330	-0.087	0.052
-686.324	-92.574	-0.506	-0.145
-685.310	762.959	-0.051	-0.141
-684.295	-65.117	-0.056	-0.023
-683.281	-91.104	-0.181	-0.053
-682.266	141.274	-0.167	-0.226
-681.251	154.207	0.120	-0.168
-680.237	800.000	0.030	-0.107
-679.222	8.740	0.176	-0.136
-678.208	230.413	0.075	0.125
-677.193	34.073	-0.382	0.340
-676.178	760.842	-0.056	-0.154
-675.164	118.239	-0.184	0.232
-674.149	-200.000	0.044	-0.242
-673.135	800.000	-0.040	0.137
-672.120	186.285	-0.127	-0.192
-671.105	33.485	-0.209	-0.185
-670.091	-200.000	0.010	-0.221
-669.076	-200.000	-0.011	-0.187
-668.062	800.000	-0.038	0.149
-667.047	-106.341	-0.118	-0.027
-666.032	800.000	-0.126	-0.445
-665.018	-64.634	0.377	-0.156
-664.003	216.104	0.054	0.087
-662.989	526.990	0.054	0.129
-661.974	-83.540	0.146	-0.048
-660.959	-68.769	0.130	-0.051
-659.945	301.674	0.130	0.245
-658.930	258.397	0.127	0.224
-657.916	-95.514	-0.205	-0.056
-656.901	800.000	0.047	0.132
-655.886	-200.000	0.045	-0.223
-654.872	-44.017	-0.228	-0.117
-653.857	81.881	0.052	0.058
-652.843	-51.949	0.110	0.052
-651.828	-200.000	-0.036	0.164
-650.814	-41.198	-0.150	0.079
-649.799	-92.113	-0.090	-0.026
-648.784	14.233	-0.371	0.294
-647.770	-25.065	-0.071	-0.043
-646.755	205.878	-0.109	0.173
-645.741	434.928	0.081	-0.179
-644.726	356.988	0.249	-0.507
-643.711	56.935	0.311	-0.309
-642.697	128.538	0.054	0.071
-641.682	-200.000	0.003	-0.242
-640.668	657.528	-0.073	0.191
-639.653	-67.319	-0.380	0.152
-638.638	800.000	0.072	0.305
-637.624	174.252	-0.232	0.341
-636.609	290.917	-0.137	-0.253
-635.595	-74.844	0.243	0.089
-634.580	-77.232	0.257	0.091
-633.565	-74.943	-0.306	0.112
-632.551	-125.483	-0.284	0.044
-631.536	-96.590	-0.057	0.015
-630.522	800.000	-0.028	0.093
-629.507	151.648	-0.309	-0.429
-628.492	-124.155	-0.235	-0.038
-627.478	-64.038	-0.135	-0.056
-626.463	213.040	0.103	-0.165
-625.449	23.825	0.309	0.259
-624.434	-200.000	-0.005	0.212
-623.419	111.478	-0.160	-0.197
-622.405	-41.250	0.292	0.154
-621.390	-200.000	-0.036	0.216
-620.376	-87.030	0.195	-0.060
-619.361	800.000	-0.069	0.223
-618.346	-25.527	-0.249	-0.150
-617.332	-200.000	-0.025	-0.222
-616.317	-161.676	-0.136	0.007
-615.303	18.121	-0.332	-0.269
-614.288	-200.000	-0.011	-0.198
-613.273	520.703	0.161	0.384
-612.259	-32.226	-0.378	0.215
-611.244	700.515	-0.051	0.136
-610.230	-5.444	-0.141	0.098
-609.215	511.304	0.040	0.095
-608.201	-70.639	0.162	-0.062
-607.186	-34.233	0.332	-0.185
-606.171	-200.000	-0.031	-0.254
-605.157	7.523	-0.106	-0.080
-604.142	78.305	0.275	-0.299
-603.128	707.860	-0.078	-0.209
-602.113	-176.922	-0.374	0.010
-601.098	-119.726	0.053	0.009
-600.084	33.187	-0.224	0.197
-599.069	428.212	0.062	0.136
-598.055	-200.000	-0.022	-0.154
-597.040	-123.052	-0.439	0.072
-596.025	-30.950	-0.246	-0.141
-595.011	283.781	0.182	-0.332
-593.996	-151.826	0.231	-0.017
-592.982	-106.371	-0.209	-0.048
-591.967	-37.743	-0.134	-0.073
-590.952	-134.235	-0.295	0.037
-589.938	800.000	-0.058	0.191
-588.923	-83.302	-0.171	-0.056
-587.909	72.504	0.188	-0.199
-586.894	-66.006	-0.229	0.093
-585.879	24.918	0.214	0.181
-584.865	85.565	-0.171	0.191
-583.850	-65.410	-0.119	0.049
-582.836	-198.830	-0.229	-0.001
-581.821	-4.957	-0.274	-0.192
-580.806	-116.931	-0.167	0.031
-579.792	-5.218	-0.062	-0.043
-578.777	-76.782	-0.226	-0.080
-577.763	-24.249	-0.303	0.184
-576.748	-58.646	-0.230	0.101
-575.733	-45.674	0.027	-0.014
-574.719	-58.260	0.378	0.167
-573.704	800.000	-0.097	-0.282
-572.690	600.991	-0.076	-0.192
-571.675	-162.968	-0.364	-0.018
-570.661	309.901	-0.116	0.220
-569.646	-90.022	-0.338	0.100
-568.631	365.339	-0.089	-0.183
-567.617	174.991	-0.119	-0.175
-566.602	160.065	-0.084	0.118
-565.588	-163.708	-0.218	-0.010
-564.573	-110.103	0.239	0.051
-563.558	51.818	0.154	-0.149
-562.544	111.428	-0.052	0.064
-561.529	525.384	-0.048	-0.115
-560.515	12.929	-0.089	0.070
-559.500	512.220	-0.079	0.188
-558.485	152.969	-0.186	-0.258
-557.471	-7.047	0.208	0.144
-556.456	-200.000	-0.035	0.260
-555.442	34.257	0.322	0.285
-554.427	-200.000	0.007	-0.092
-553.412	800.000	-0.093	-0.391
-552.398	140.948	-0.134	-0.180
-551.383	-200.000	-0.029	-0.352
-550.369	611.540	0.173	0.439
-549.354	-200.000	-0.014	0.293
-548.339	191.655	0.307	0.470
-547.325	-141.614	0.245	0.025
-546.310	-26.211	-0.347	-0.207
-545.296	800.000	-0.135	-0.383
-544.281	-200.000	-0.001	-0.132
-543.266	-200.000	-0.002	0.031
-542.252	800.000	-0.104	-0.350
-541.237	-29.680	-0.312	-0.181
-540.223	-68.933	0.235	-0.092
-539.208	-200.000	0.028	0.238
-538.193	39.084	0.079	-0.071
-537.179	800.000	-0.088	0.276
-536.164	133.383	0.170	0.224
-535.150	-116.705	0.142	-0.026
-534.135	800.000	0.046	-0.183
-533.121	197.340	-0.268	-0.416
-532.106	-139.321	-0.102	-0.011
-531.091	-103.742	-0.170	0.040
-530.077	63.522	0.106	-0.108
-529.062	141.431	0.135	0.181
-528.048	-131.214	0.267	0.036
-527.033	59.764	0.244	0.244
-526.018	-150.959	0.126	0.010
-525.004	-158.333	-0.063	-0.004
-523.989	-94.226	-0.076	0.021
-522.975	-66.542	0.274	-0.110
-521.960	-6.732	-0.165	0.114
-520.945	56.110	0.168	-0.166
-519.931	-32.560	-0.038	-0.022
-518.916	-51.692	-0.199	-0.094
-517.902	47.481	0.282	0.266
-516.887	185.181	0.111	0.167
-515.872	68.309	0.071	0.074
-514.858	-132.838	0.202	-0.026
-513.843	397.526	0.189	-0.400
-512.829	272.048	-0.164	0.293
-511.814	-97.411	-0.275	-0.072
-510.799	800.000	-0.033	0.125
-509.785	800.000	-0.058	0.195
-508.770	-0.644	-0.132	0.095
-507.756	290.054	-0.058	-0.107
-506.741	-51.780	0.264	-0.125
-505.726	-91.143	-0.154	0.045
-504.712	-200.000	0.039	0.265
-503.697	174.267	-0.058	0.085
-502.683	233.494	-0.073	-0.122
-501.668	169.066	-0.226	-0.326
-500.653	800.000	0.010	-0.038
-499.639	-137.951	0.109	0.012
-498.624	-173.390	-0.237	-0.007
-497.610	-200.000	0.015	-0.078
-496.595	93.265	0.124	-0.143
-495.581	-156.041	0.186	-0.012
-494.566	800.000	0.021	-0.080
-493.551	171.114	-0.247	-0.359
-492.537	800.000	-0.101	-0.432
-491.522	2.713	0.171	-0.126
-490.508	-56.803	-0.338	0.152
-489.493	64.312	-0.187	0.191
-488.478	-200.000	-0.054	-0.325
-487.464	-62.191	-0.205	-0.087
-486.449	-200.000	0.040	-0.274
-485.435	-75.634	-0.112	-0.040
-484.420	-200.000	0.019	-0.089
-483.405	-178.245	0.382	0.009
-482.391	-200.000	-0.003	0.030
-481.376	44.011	0.201	-0.186
-480.362	-144.734	-0.412	0.038
-479.347	282.530	-0.141	0.256
-478.332	-30.768	-0.180	-0.103
-477.318	113.850	-0.268	-0.330
-476.303	350.531	-0.119	0.239
-475.289	73.142	0.015	0.016
-474.274	94.264	-0.242	-0.278
-473.259	800.000	-0.122	-0.362
-472.245	-45.749	-0.210	-0.105
-471.230	-200.000	-0.018	-0.241
-470.216	-200.000	0.059	-0.293
-469.201	-49.613	0.251	-0.121
-468.186	-72.535	0.153	0.057
-467.172	-200.000	0.002	-0.066
-466.157	713.203	0.047	-0.126
-465.143	-63.395	0.030	0.013
-464.128	212.117	0.117	0.187
-463.113	22.326	0.117	-0.097
-462.099	-73.105	0.017	-0.006
-461.084	-200.000	-0.024	0.142
-460.070	-78.924	0.238	0.082
-459.055	-2.089	0.264	-0.187
-458.040	420.492	-0.099	0.214
-457.026	586.748	-0.040	-0.100
-456.011	-200.000	0.007	-0.199
-454.997	12.654	0.132	0.103
-453.982	33.536	-0.151	-0.132
-452.968	-129.825	0.237	-0.033
-451.953	39.357	-0.194	0.176
-450.938	-200.000	-0.057	0.322
-449.924	-7.669	-0.138	0.094
-448.909	-150.431	-0.089	-0.007
-447.895	-87.014	0.173	0.053
-446.880	-200.000	0.036	0.235
-445.865	632.772	0.063	-0.160
-444.851	100.640	-0.048	-0.056
-443.836	80.029	0.198	0.215
-442.822	-200.000	0.008	0.331
-441.807	-200.000	-0.005	-0.081
-440.792	380.625	0.056	0.117
-439.778	800.000	0.071	0.209
-438.763	111.570	-0.104	-0.127
-437.749	414.203	0.088	-0.190
-436.734	-147.156	0.226	0.019
-435.719	60.530	-0.234	-0.234
-434.705	95.459	-0.108	-0.124
-433.690	44.346	0.166	0.154
-432.676	-116.133	0.196	-0.037
-431.661	-200.000	-0.017	-0.301
-430.646	-200.000	0.024	0.288
-429.632	555.916	0.055	0.133
-428.617	-200.000	0.015	0.238
-427.603	277.143	-0.074	-0.132
-426.588	-93.211	0.108	-0.030
-425.573	697.966	0.119	-0.315
-424.559	120.736	-0.120	-0.150
-423.544	-145.771	0.027	-0.002
-422.530	78.353	0.116	0.125
-421.515	-156.626	-0.215	0.013
-420.500	342.760	-0.122	0.242
-419.486	135.952	0.133	0.175
-418.471	800.000	-0.087	-0.339
-417.457	-168.332	0.415	0.016
-416.442	79.118	0.070	0.076
-415.428	-196.434	0.391	-0.003
-414.413	48.009	0.008	0.008
-413.398	-52.024	0.425	0.199
-412.384	143.068	0.148	-0.199
-411.369	-152.798	-0.044	-0.003
-410.355	72.337	-0.194	0.204
-409.340	-48.500	0.267	-0.130
-408.325	361.222	0.118	0.238
-407.311	36.263	-0.009	-0.008
-406.296	144.002	-0.043	0.057
-405.282	-200.000	-0.074	-0.398
-404.267	743.088	-0.111	-0.300
-403.252	409.282	-0.082	-0.175
-402.238	29.111	0.145	0.124
-401.223	159.658	0.080	0.112
-400.209	-200.000	-0.003	-0.161
-399.194	-65.232	-0.130	0.053
-398.179	110.964	-0.177	-0.215
-397.165	-35.049	-0.279	0.154
-396.150	404.496	-0.091	-0.193
-395.136	800.000	0.029	-0.097
-394.121	-4.268	-0.102	-0.071
-393.106	55.713	0.364	0.356
-392.092	-200.000	-0.015	0.089
-391.077	-200.000	0.009	0.085
-390.063	199.678	-0.110	0.170
-389.048	135.475	0.033	-0.043
-388.033	-74.288	0.143	-0.052
-387.019	800.000	0.036	-0.109
-386.004	278.947	-0.153	-0.276
-384.990	396.529	0.110	-0.231
-383.975	-127.092	0.238	-0.035
-382.960	427.309	-0.069	0.150
-381.946	-98.734	-0.183	0.047
-380.931	-200.000	-0.030	-0.194
-379.917	-53.835	-0.300	-0.138
-378.902	38.831	0.167	0.150
-377.888	-18.361	0.061	0.039
-376.873	429.951	-0.086	0.188
-375.858	19.471	0.229	0.186
-374.844	625.680	0.054	0.137
-373.829	20.729	0.301	-0.246
-372.815	-148.372	-0.108	-0.009
-371.800	-68.295	0.333	-0.130
-370.785	21.999	0.171	0.141
-369.771	107.066	-0.189	-0.226
-368.756	-111.814	0.130	-0.027
-367.742	137.258	0.171	0.226
-366.727	-30.968	0.223	0.127
-365.712	-113.904	-0.079	0.015
-364.698	190.263	-0.113	-0.170
-363.683	-200.000	0.022	-0.202
-362.669	-200.000	-0.022	-0.110
-361.654	-38.246	0.095	-0.051
-360.639	800.000	0.058	-0.215
-359.625	-99.574	0.268	0.068
-358.610	259.062	0.128	-0.223
-357.596	-105.534	0.304	-0.070
-356.581	-93.306	0.288	0.081
-355.566	-53.447	0.046	-0.021
-354.552	-41.836	0.298	-0.154
-353.537	-200.000	0.019	0.578
-352.523	-101.770	-0.261	0.064
-351.508	-41.639	0.120	-0.062
-350.493	9.488	0.255	-0.195
-349.479	24.608	0.017	0.014
-348.464	152.116	0.123	0.168
-347.450	-86.558	0.463	-0.143
-346.435	784.445	0.026	-0.073
-345.420	-200.000	-0.023	0.228
-344.406	-62.242	0.335	0.141
-343.391	-82.079	0.182	-0.060
-342.377	-23.958	-0.025	-0.015
-341.362	-91.750	-0.280	0.080
-340.348	59.208	0.097	0.096
-339.333	-200.000	0.006	0.119
-338.318	-120.385	0.264	0.045
-337.304	160.658	0.146	0.205
-336.289	-24.181	0.117	0.071
-335.275	209.474	-0.128	-0.202
-334.260	-4.958	0.259	-0.180
-333.245	-200.000	0.018	-0.238
-332.231	-200.000	0.002	-0.037
-331.216	-56.945	-0.127	-0.057
-330.202	84.715	0.194	0.214
-329.187	-200.000	-0.006	0.218
-328.172	-200.000	0.002	-0.026
-327.158	-80.906	0.303	-0.101
-326.143	-189.261	-0.173	0.002
-325.129	-200.000	0.054	-0.320
-324.114	-46.220	0.200	0.099
-323.099	-134.742	0.139	-0.017
-322.085	282.836	0.109	0.198
-321.070	800.000	0.069	-0.241
-320.056	-200.000	0.016	0.129
-319.041	377.257	0.143	-0.295
-318.026	800.000	-0.067	0.211
-317.012	-200.000	-0.019	0.109
-315.997	171.590	0.127	-0.184
-314.983	20.158	0.379	-0.308
-313.968	-154.962	0.249	-0.016
-312.953	-200.000	0.000	0.172
-311.939	-25.240	-0.118	-0.070
-310.924	800.000	-0.057	0.163
-309.910	-200.000	-0.021	-0.147
-308.895	42.051	0.156	0.142
-307.880	800.000	0.067	-0.250
-306.866	169.362	0.130	-0.186
-305.851	79.587	0.117	-0.126
-304.837	780.901	0.020	-0.056
-303.822	3.430	-0.071	-0.052
-302.807	-200.000	-0.035	0.288
-301.793	194.318	0.020	-0.031
-300.778	800.000	0.019	0.064
-299.764	-62.952	-0.353	0.147
-298.749	69.850	0.085	-0.088
-297.735	586.093	-0.057	0.141
-296.720	800.000	-0.029	0.114
-295.705	-163.592	-0.178	-0.008
-294.691	-35.221	0.209	-0.115
-293.676	138.056	-0.097	0.128
-292.662	11.810	-0.129	0.100
-291.647	800.000	-0.015	-0.047
-290.632	-19.906	-0.296	0.184
-289.618	26.117	0.034	0.029
-288.603	-126.271	0.356	0.053
-287.589	221.008	-0.028	0.044
-286.574	-93.264	0.237	0.066
-285.559	13.379	-0.175	0.136
-284.545	349.599	-0.055	-0.109
-283.530	-200.000	-0.016	0.153
-282.516	-73.684	-0.294	0.108
-281.501	-25.716	-0.095	0.056
-280.486	84.844	-0.263	0.290
-279.472	76.684	0.092	-0.098
-278.457	-74.768	0.119	-0.043
-277.443	125.897	-0.036	-0.046
-276.428	88.639	0.056	-0.063
-275.413	-0.944	0.178	-0.127
-274.399	800.000	-0.085	0.336
-273.384	128.046	0.055	0.070
-272.370	-71.104	0.043	0.016
-271.355	-200.000	-0.000	0.002
-270.340	-200.000	0.012	-0.098
-269.326	800.000	-0.110	0.382
-268.311	-200.000	-0.024	0.179
-267.297	-71.241	0.260	0.098
-266.282	-200.000	0.003	0.292
-265.267	318.288	0.170	0.324
-264.253	58.169	-0.096	0.095
-263.238	-200.000	-0.017	0.121
-262.224	-95.728	-0.045	-0.012
-261.209	-106.992	-0.173	-0.038
-260.195	-79.130	-0.202	0.069
-259.180	102.791	-0.118	0.139
-258.165	-59.253	-0.020	0.008
-257.151	-200.000	0.044	-0.222
-256.136	-80.155	-0.368	-0.124
-255.122	76.208	-0.276	-0.293
-254.107	-4.471	-0.185	-0.128
-253.092	157.263	-0.027	-0.037
-252.078	162.478	0.056	0.078
-251.063	127.119	0.195	0.248
-250.049	-200.000	-0.031	0.137
-249.034	530.630	-0.076	0.180
-248.019	-200.000	-0.025	-0.115
-247.005	-65.849	0.260	-0.105
-245.990	-104.793	-0.194	-0.045
-244.976	800.000	0.036	-0.106
-243.961	389.175	0.081	0.169
-242.946	68.818	-0.190	0.196
-241.932	72.223	-0.193	0.201
-240.917	65.486	0.188	-0.191
-239.903	-200.000	-0.021	0.356
-238.888	254.040	-0.220	-0.377
-237.873	13.863	0.056	0.044
-236.859	-115.571	-0.382	-0.072
-235.844	-200.000	-0.048	-0.232
-234.830	-200.000	0.000	0.279
-233.815	-200.000	-0.011	0.111
-232.800	147.497	0.113	0.153
-231.786	800.000	0.034	-0.103
-230.771	800.000	0.127	-0.401
-229.757	122.646	0.052	-0.065
-228.742	673.408	-0.111	-0.288
-227.727	8.736	-0.039	-0.029
-226.713	179.380	-0.141	-0.208
-225.698	-200.000	0.032	-0.339
-224.684	-55.272	-0.316	-0.142
-223.669	-139.940	0.229	0.024
-222.655	-96.977	0.218	-0.057
-221.640	357.050	0.133	0.265
-220.625	-51.295	0.066	0.031
-219.611	5.797	0.240	-0.178
-218.596	499.883	0.109	0.252
-217.582	282.171	0.123	-0.220
-216.567	-200.000	0.007	0.224
-215.552	-55.357	-0.114	0.051
-214.538	-178.855	-0.025	0.001
-213.523	-72.546	-0.089	-0.033
-212.509	158.102	0.041	0.057
-211.494	-200.000	-0.002	-0.192
-210.479	102.019	-0.182	0.213
-209.465	-108.099	-0.282	0.061
-208.450	3.433	0.156	0.114
-207.436	-81.504	-0.212	0.070
-206.421	-31.100	0.188	0.106
-205.406	800.000	-0.048	0.166
-204.392	258.567	0.219	0.378
-203.377	78.789	0.082	0.088
-202.363	-173.457	0.172	-0.005
-201.348	-200.000	0.046	-0.236
-200.333	250.223	-0.120	-0.204
-199.319	800.000	0.056	-0.159
-198.304	-102.518	-0.161	0.039
-197.290	-122.281	-0.212	0.035
-196.275	110.303	-0.113	-0.135
-195.260	-125.443	0.254	-0.039
-194.246	129.627	0.208	0.267
-193.231	-121.113	-0.243	-0.041
-192.217	104.348	0.183	-0.216
-191.202	800.000	-0.062	0.181
-190.187	-72.058	-0.187	0.070
-189.173	-101.103	0.128	0.031
-188.158	-200.000	0.014	-0.085
-187.144	171.600	-0.074	-0.107
-186.129	800.000	0.044	-0.178
-185.114	-66.202	-0.154	-0.061
-184.100	46.107	-0.326	0.302
-183.085	97.267	-0.103	0.119
-182.071	-25.002	-0.237	-0.141
-181.056	-200.000	0.000	0.139
-180.042	-93.090	0.044	-0.012
-179.027	166.819	0.205	0.291
-178.012	377.278	-0.230	0.469
-176.998	321.708	0.088	0.168
-175.983	800.000	0.018	0.059
-174.969	255.149	-0.092	0.158
-173.954	-200.000	-0.021	0.121
-172.939	-58.975	0.281	0.122
-171.925	800.000	0.078	0.287
-170.910	-30.367	0.096	0.055
-169.896	-71.058	0.225	0.085
-168.881	-76.383	0.070	0.025
-167.866	-75.811	-0.480	-0.170
-166.852	-200.000	0.015	-0.209
-165.837	-57.973	-0.220	-0.096
-164.823	-200.000	-0.001	0.213
-163.808	-200.000	0.033	0.321
-162.793	-70.282	0.112	-0.043
-161.779	240.432	0.023	0.038
-160.764	13.531	0.109	-0.084
-159.750	-38.122	0.111	-0.059
-158.735	800.000	-0.040	0.169
-157.720	-200.000	-0.033	0.202
-156.706	-109.341	0.080	0.017
-155.691	184.403	0.146	-0.217
-154.677	-200.000	-0.050	-0.240
-153.662	-159.242	0.066	-0.004
-152.647	-183.847	0.073	0.001
-151.633	-71.192	0.212	0.079
-150.618	9.153	0.190	-0.143
-149.604	-24.604	-0.264	0.157
-148.589	94.985	0.076	-0.087
-147.574	-8.481	-0.308	0.207
-146.560	10.386	-0.166	-0.126
-145.545	800.000	0.037	-0.104
-144.531	-160.010	0.385	-0.021
-143.516	-4.226	0.072	0.050
-142.502	-176.854	0.025	0.001
-141.487	-200.000	0.008	0.235
-140.472	-129.343	-0.100	0.014
-139.458	42.321	0.124	0.112
-138.443	800.000	-0.045	0.169
-137.429	799.072	-0.036	-0.098
-136.414	-200.000	0.033	0.152
-135.399	-122.400	0.234	0.038
-134.385	800.000	-0.074	-0.243
-133.370	179.808	0.089	-0.131
-132.356	42.712	0.346	0.315
-131.341	-103.726	0.039	-0.009
-130.326	112.184	-0.057	-0.069
-129.312	-200.000	0.012	0.093
-128.297	-3.580	0.169	0.117
-127.283	-159.984	-0.027	0.001
-126.268	800.000	0.045	0.179
-125.253	800.000	-0.039	-0.108
-124.239	-84.444	-0.203	0.064
-123.224	18.245	-0.227	0.181
-122.210	-85.737	-0.320	-0.099
-121.195	-10.087	-0.150	-0.099
-120.180	-62.875	-0.327	-0.135
-119.166	800.000	0.019	-0.072
-118.151	604.756	0.153	0.381
-117.137	800.000	0.056	0.218
-116.122	448.746	0.085	0.188
-115.107	-109.248	-0.335	-0.071
-114.093	-84.595	0.260	-0.082
-113.078	8.766	-0.200	0.150
-112.064	800.000	0.052	0.174
-111.049	-200.000	-0.001	-0.187
-110.034	800.000	0.132	0.483
-109.020	-51.971	0.203	0.094
-108.005	-165.563	0.262	-0.011
-106.991	800.000	-0.018	-0.063
-105.976	-122.758	0.346	0.056
-104.962	-44.305	-0.163	-0.081
-103.947	-52.070	-0.143	-0.066
-102.932	112.329	0.135	-0.162
-101.918	565.698	-0.162	0.393
-100.903	381.894	0.064	-0.132
-99.889	2.896	-0.189	-0.137
-98.874	54.341	-0.098	-0.094
-97.859	1.339	-0.107	0.076
-96.845	103.270	0.112	-0.132
-95.830	-66.153	0.070	0.028
-94.816	59.045	0.162	-0.159
-93.801	85.764	0.103	-0.113
-92.786	-172.536	-0.277	0.009
-91.772	800.000	-0.020	-0.077
-90.757	-32.777	0.338	0.188
-89.743	-200.000	-0.027	0.264
-88.728	98.428	0.219	-0.252
-87.713	-8.573	-0.165	-0.111
-86.699	-200.000	0.075	0.379
-85.684	455.760	-0.066	0.146
-84.670	192.730	0.071	0.107
-83.655	-200.000	0.022	0.128
-82.640	-77.807	0.112	0.039
-81.626	10.681	0.342	-0.260
-80.611	-200.000	0.000	0.166
-79.597	800.000	0.052	0.149
-78.582	41.618	-0.133	0.120
-77.567	-200.000	0.036	-0.218
-76.553	-200.000	0.000	-0.285
-75.538	150.858	0.197	-0.266
-74.524	-16.057	0.218	0.138
-73.509	-112.959	0.260	-0.051
-72.494	800.000	0.029	-0.120
-71.480	83.113	0.096	-0.105
-70.465	110.381	0.078	0.093
-69.451	-200.000	-0.066	-0.291
-68.436	-18.410	0.071	-0.044
-67.422	-13.549	0.201	-0.130
-66.407	800.000	0.083	0.308
-65.392	-91.617	-0.301	0.085
-64.378	-64.189	0.362	0.147
-63.363	-7.856	0.107	-0.072
-62.349	328.000	0.102	-0.196
-61.334	-20.758	-0.851	-0.520
-60.319	95.151	-0.057	0.065
-59.305	-200.000	-0.049	-0.877
-58.290	114.448	0.568	0.690
-57.276	800.000	0.387	1.549
-56.261	-200.000	77.342	513.455
-55.246	511.875	1339.017	3106.579
-54.232	145.406	2569.939	3428.029
-53.217	115.237	2251.950	2739.483
-52.203	51.038	1776.522	1677.956
-51.188	43.747	1576.454	1437.409
-50.173	41.249	1546.236	1392.371
-49.159	57.366	1582.730	1539.191
-48.144	62.821	1602.780	1597.090
-47.130	44.474	1565.937	1432.718
-46.115	40.841	1551.792	1394.291
-45.100	40.589	1548.950	1389.917
-44.086	40.581	1546.481	1387.590
-43.071	40.635	1544.010	1385.691
-42.057	40.488	1542.265	1383.048
-41.042	40.490	1540.912	1381.788
-40.027	40.552	1538.922	1380.385
-39.013	40.490	1537.810	1378.898
-37.998	40.493	1536.518	1377.705
-36.984	40.454	1535.184	1376.189
-35.969	40.470	1534.237	1375.395
-34.954	40.550	1532.940	1374.734
-33.940	40.425	1531.782	1372.772
-32.925	40.506	1529.568	1371.294
-31.911	40.531	1528.293	1370.271
-30.896	40.551	1526.906	1369.107
-29.881	40.560	1525.697	1368.031
-28.867	40.637	1523.993	1366.979
-27.852	40.617	1522.797	1365.717
-26.838	40.590	1521.413	1364.234
-25.823	40.702	1519.188	1362.955
-24.809	40.518	1518.223	1360.771
-23.794	40.533	1516.564	1359.337
-22.779	40.515	1515.127	1357.868
-21.765	40.587	1514.093	1357.379
-20.750	40.554	1513.142	1356.248
-19.736	40.621	1512.405	1355.993
-18.721	40.533	1510.500	1353.633
-17.706	40.501	1509.548	1352.502
-16.692	40.413	1508.652	1351.051
-15.677	40.452	1507.543	1350.265
-14.663	40.477	1506.537	1349.483
-13.648	40.433	1505.596	1348.286
-12.633	40.422	1504.656	1347.315
-11.619	40.413	1503.715	1346.362
-10.604	40.405	1503.263	1345.850
-9.590	40.473	1502.039	1345.161
-8.575	40.518	1500.591	1344.117
-7.560	40.497	1499.816	1343.222
-6.546	40.378	1499.085	1341.712
-5.531	40.440	1498.514	1341.564
-4.517	40.455	1497.625	1340.821
-3.502	40.371	1496.949	1339.592
-2.487	40.477	1495.698	1339.138
-1.473	40.463	1494.181	1337.630
-0.458	40.445	1492.891	1336.303
0.556	40.766	1483.722	1326.018
1.571	37.716	1456.486	1281.531
2.586	33.864	1393.737	1201.902
3.600	31.779	1309.707	1116.923
4.615	29.755	1261.121	1063.764
5.629	25.062	1201.375	987.490
6.644	13.153	1108.653	850.256
7.659	3.789	1061.376	767.598
8.673	2.416	1055.290	756.350
9.688	2.051	1052.427	752.430
10.702	1.881	1050.382	750.067
11.717	1.763	1049.110	748.512
12.731	5.330	1053.052	768.830
13.746	16.095	1068.759	833.721
14.761	24.352	1079.141	882.797
15.775	25.564	1079.654	889.135
16.790	25.621	1079.183	888.952
17.804	25.344	1078.634	887.051
18.819	25.216	1077.671	885.549
19.834	25.374	1076.974	885.679
20.848	25.383	1076.935	885.612
21.863	25.409	1076.205	885.059
22.877	25.386	1075.974	884.679
23.892	25.419	1075.388	884.282
24.907	25.310	1074.685	883.088
25.921	25.332	1073.578	882.210
26.936	25.379	1072.865	881.777
27.950	25.342	1071.796	880.636
28.965	25.350	1070.550	879.577
29.980	25.242	1069.273	877.923
30.994	25.261	1067.781	876.710
32.009	25.264	1067.522	876.435
33.023	25.538	1066.665	876.990
34.038	25.200	1065.517	874.321
35.053	25.243	1064.870	873.924
36.067	25.406	1064.087	873.994
37.082	25.339	1063.293	872.943
38.096	25.456	1062.793	873.021
39.111	25.496	1062.372	872.794
40.126	25.646	1061.077	872.377
41.140	25.674	1059.678	871.288
42.155	25.364	1058.358	868.625
43.169	24.986	1057.682	866.165
44.184	24.901	1056.148	864.423
45.199	25.090	1055.412	864.658
46.213	25.038	1054.118	863.269
47.228	24.994	1053.592	862.552
48.242	25.195	1052.822	862.811
49.257	25.286	1052.080	862.566
50.271	25.300	1051.478	862.063
51.286	25.421	1050.585	861.832
52.301	25.405	1050.195	861.362
53.315	25.469	1049.209	860.783
54.330	25.326	1048.682	859.590
55.344	25.319	1047.508	858.516
56.359	25.419	1046.607	858.181
57.374	25.380	1046.056	857.466
58.388	25.216	1045.244	855.941
59.403	25.093	1044.434	854.614
60.417	25.061	1043.716	853.801
61.432	24.929	1043.215	852.686
62.447	24.966	1042.281	852.024
63.461	25.178	1041.377	852.220
64.476	25.177	1040.835	851.693
65.490	25.249	1039.435	850.814
66.505	25.076	1038.386	849.060
67.520	25.006	1038.297	848.584
68.534	25.121	1037.234	848.180
69.549	24.882	1036.869	846.679
70.563	24.826	1035.081	844.877
71.578	24.613	1034.490	843.318
72.593	24.675	1034.000	843.135
73.607	24.504	1032.323	840.887
74.622	24.603	1031.271	840.422
75.636	24.852	1031.028	841.321
76.651	24.969	1030.250	841.161
77.666	24.851	1029.530	839.943
78.680	24.913	1028.034	838.939
79.695	24.898	1027.568	838.414
80.709	24.891	1027.534	838.282
81.724	25.100	1026.604	838.423
82.739	25.007	1026.201	837.588
83.753	24.945	1025.314	836.498
84.768	25.173	1025.160	837.365
85.782	25.499	1024.695	838.430
86.797	25.733	1023.931	838.823
87.812	25.728	1022.570	837.612
88.826	25.580	1021.799	836.215
89.841	25.475	1021.142	835.116
90.855	25.662	1020.224	835.163
91.870	25.659	1019.611	834.572
92.884	25.740	1018.608	834.049
93.899	25.529	1017.833	832.367
94.914	25.382	1016.788	830.759
95.928	25.528	1015.824	830.572
96.943	25.569	1015.163	830.147
97.957	25.255	1014.052	827.715
98.972	25.013	1013.106	825.755
99.987	24.839	1011.825	823.840
101.001	25.061	1011.176	824.257
102.016	25.209	1010.925	824.662
103.030	25.285	1010.565	824.645
104.045	25.246	1009.156	823.242
105.060	25.269	1007.868	822.225
106.074	24.964	1006.776	819.865
107.089	25.078	1005.667	819.411
108.103	25.339	1005.930	820.742
109.118	25.437	1004.850	820.237
110.133	25.112	1003.971	817.964
111.147	25.048	1002.674	816.545
112.162	25.031	1001.331	815.301
113.176	24.784	1000.373	813.325
114.191	24.793	1000.398	813.317
115.206	24.963	999.208	813.051
116.220	24.746	998.332	811.281
117.235	24.482	997.073	808.988
118.249	24.682	996.901	809.684
119.264	24.790	995.871	809.262
120.279	24.601	995.295	807.871
121.293	24.696	993.892	807.089
122.308	24.819	993.093	806.924
123.322	24.755	992.700	806.245
124.337	24.722	991.428	804.988
125.352	24.692	990.330	803.891
126.366	24.336	988.989	801.132
127.381	23.887	987.655	797.967
128.395	24.357	987.492	799.875
129.410	24.970	986.973	802.129
130.424	25.212	986.364	802.645
131.439	25.340	985.345	802.316
132.454	25.220	984.422	800.960
133.468	25.245	983.654	800.375
134.483	25.115	982.869	799.086
135.497	25.275	982.029	799.046
136.512	25.590	981.498	799.943
137.527	25.538	981.306	799.484
138.541	25.513	980.068	798.298
139.556	25.519	979.606	797.874
140.570	25.552	978.596	797.126
141.585	25.453	977.874	796.029
142.600	25.619	977.255	796.193
143.614	25.479	976.460	794.852
144.629	25.544	976.204	794.862
145.643	25.713	975.475	794.946
146.658	25.680	974.376	793.832
147.673	25.439	973.089	791.654
148.687	25.436	971.833	790.548
149.702	25.209	971.003	788.806
150.716	25.330	969.580	788.110
151.731	25.180	968.830	786.772
152.746	25.270	967.726	786.201
153.760	25.540	967.048	786.762
154.775	25.700	966.852	787.232
155.789	25.669	965.447	785.884
156.804	25.639	964.762	785.128
157.819	25.631	963.727	784.178
158.833	25.633	963.111	783.619
159.848	25.618	962.451	782.946
160.862	25.674	962.007	782.758
161.877	25.614	960.642	781.319
162.892	25.446	959.896	779.913
163.906	25.563	959.294	779.865
164.921	25.563	958.355	779.029
165.935	25.562	956.830	777.716
166.950	25.635	955.744	777.081
167.964	25.680	954.884	776.508
168.979	25.641	953.878	775.454
169.994	25.429	953.056	773.805
171.008	25.282	952.282	772.473
172.023	25.556	951.113	772.636
173.037	25.708	950.500	772.719
174.052	25.495	949.669	771.064
175.067	25.297	948.553	769.243
176.081	25.324	947.416	768.367
177.096	25.479	946.750	768.422
178.110	25.417	945.788	767.306
179.125	25.194	945.056	765.695
180.140	24.863	944.000	763.361
181.154	24.943	943.072	762.884
182.169	25.126	942.773	763.351
183.183	25.193	942.895	763.667
184.198	25.599	942.153	764.725
185.213	25.456	941.534	763.547
186.227	25.544	940.368	762.908
187.242	25.596	940.558	763.217
188.256	25.564	939.764	762.369
189.271	25.656	938.402	761.586
190.286	25.633	938.475	761.479
191.300	25.558	936.981	759.883
192.315	24.988	935.968	756.587
193.329	24.114	934.336	751.515
194.344	23.807	933.334	749.348
195.359	24.285	933.477	751.413
196.373	25.307	933.742	755.865
197.388	25.587	933.523	756.800
198.402	25.567	932.445	755.776
199.417	25.474	932.294	755.196
200.432	25.530	931.945	755.082
201.446	25.307	931.365	753.607
202.461	25.024	930.664	751.787
203.475	25.246	929.722	751.890
204.490	24.664	928.842	748.676
205.504	23.586	926.524	742.232
206.519	23.796	926.556	743.072
207.534	24.895	926.824	747.815
208.548	25.033	926.423	748.002
209.563	25.375	926.238	749.210
210.577	25.406	925.078	748.338
211.592	25.176	923.943	746.394
212.607	25.623	924.071	748.293
213.621	25.688	924.076	748.499
214.636	25.605	923.042	747.252
215.650	25.619	922.371	746.702
216.665	25.658	921.742	746.287
217.680	25.629	921.615	745.999
218.694	25.936	920.727	746.486
219.709	25.469	919.995	743.892
220.723	25.013	918.926	741.077
221.738	25.200	918.563	741.492
222.753	25.585	918.031	742.586
223.767	25.424	917.527	741.450
224.782	25.525	916.850	741.253
225.796	25.659	916.248	741.250
226.811	25.877	915.624	741.578
227.826	25.293	914.449	738.160
228.840	24.447	913.205	733.617
229.855	24.418	912.140	732.575
230.869	24.757	911.861	733.677
231.884	24.400	910.731	731.243
232.899	24.456	910.135	730.929
233.913	25.140	910.879	734.263
234.928	25.527	910.008	735.076
235.942	25.286	909.277	733.437
236.957	25.372	908.296	732.932
237.972	24.957	908.047	730.973
238.986	24.968	907.235	730.299
240.001	25.016	906.780	730.065
241.015	24.968	905.838	729.047
242.030	25.125	905.471	729.327
243.045	25.328	905.072	729.762
244.059	25.275	904.750	729.223
245.074	25.527	903.846	729.452
246.088	25.514	903.540	729.091
247.103	25.241	902.215	726.852
248.117	25.183	901.606	726.060
249.132	25.660	901.553	727.883
250.147	26.170	901.238	729.628
251.161	26.141	900.934	729.201
252.176	26.229	900.595	729.216
253.190	26.498	899.315	729.200
254.205	26.402	899.545	728.934
255.220	26.716	898.683	729.433
256.234	26.395	898.533	727.956
257.249	26.427	897.558	727.230
258.263	26.317	896.986	726.260
259.278	26.277	896.350	725.521
260.293	26.385	895.724	725.381
261.307	26.403	895.315	725.059
262.322	26.326	894.708	724.197
263.336	26.324	893.693	723.304
264.351	25.791	892.281	719.965
265.366	24.670	890.647	714.108
266.380	24.272	889.567	711.591
267.395	25.119	890.218	715.430
268.409	25.888	890.126	718.359
269.424	25.991	889.138	717.910
270.439	26.125	888.931	718.212
271.453	26.128	888.759	718.018
272.468	26.199	888.118	717.721
273.482	26.283	887.390	717.403
274.497	26.225	887.425	717.139
275.512	26.364	886.082	716.540
276.526	25.724	884.465	712.635
277.541	26.003	884.170	713.438
278.555	26.143	884.194	713.950
279.570	26.042	883.407	712.851
280.585	25.805	882.775	711.342
281.599	26.030	882.237	711.732
282.614	26.064	882.001	711.616
283.628	25.558	880.978	708.731
284.643	25.254	880.143	706.802
285.657	25.766	879.581	708.302
286.672	25.574	879.125	707.118
287.687	25.058	877.969	704.096
288.701	25.489	878.334	706.023
289.716	25.888	877.904	707.181
290.730	25.518	876.902	704.860
291.745	25.287	876.115	703.260
292.760	25.199	875.034	701.985
293.774	24.972	874.715	700.779
294.789	25.920	875.398	704.976
295.803	26.806	875.297	708.293
296.818	26.770	874.461	707.412
297.833	26.820	874.285	707.403
298.847	26.432	873.605	705.278
299.862	26.179	872.129	703.037
300.876	26.266	871.936	703.162
301.891	26.628	871.413	704.084
302.906	26.796	870.746	704.133
303.920	26.340	869.753	701.500
304.935	26.294	869.023	700.670
305.949	26.447	869.202	701.349
306.964	26.725	868.532	701.822
307.979	26.494	867.693	700.187
308.993	26.213	867.146	698.597
310.008	26.742	866.910	700.388
311.022	26.872	866.732	700.687
312.037	26.776	865.328	699.120
313.052	26.434	865.301	697.716
314.066	26.429	864.380	696.891
315.081	25.527	863.373	692.548
316.095	24.806	861.765	688.421
317.110	25.276	861.963	690.327
318.125	26.315	862.176	694.432
319.139	25.894	861.086	691.878
320.154	24.852	858.996	686.145
321.168	24.359	858.079	683.462
322.183	24.842	858.771	685.805
323.197	25.854	858.987	689.791
324.212	26.208	858.986	691.084
325.227	26.310	858.775	691.246
326.241	26.425	858.175	691.139
327.256	26.296	857.583	690.111
328.270	26.272	856.896	689.404
329.285	26.169	856.120	688.328
330.300	25.969	855.409	686.933
331.314	25.842	854.346	685.535
332.329	25.809	854.163	685.201
333.343	26.273	853.898	686.692
334.358	26.537	853.120	687.009
335.373	26.556	852.936	686.872
336.387	26.574	852.526	686.549
337.402	26.657	852.248	686.576
338.416	26.944	851.904	687.326
339.431	27.005	850.827	686.629
340.446	26.973	850.269	685.997
341.460	27.306	849.964	686.947
342.475	27.139	849.322	685.737
343.489	26.986	848.345	684.310
344.504	26.900	848.082	683.714
345.519	26.980	848.221	684.066
346.533	27.318	847.836	684.968
347.548	27.298	847.491	684.556
348.562	27.472	846.529	684.370
349.577	27.547	845.706	683.925
350.592	27.462	845.416	683.311
351.606	27.241	844.874	681.987
352.621	27.323	844.483	681.917
353.635	27.224	843.600	680.772
354.650	27.063	843.339	679.897
355.665	27.006	842.346	678.826
356.679	25.773	841.067	673.129
357.694	25.522	840.407	671.605
358.708	26.287	840.392	674.387
359.723	26.354	839.262	673.673
360.738	26.509	839.119	674.076
361.752	26.901	839.357	675.668
362.767	26.896	839.121	675.399
363.781	27.219	839.064	676.495
364.796	27.560	838.545	677.284
365.810	27.546	838.708	677.304
366.825	27.722	838.108	677.414
367.840	27.688	837.512	676.745
368.854	27.499	837.153	675.694
369.869	27.204	835.762	673.419
370.883	27.088	834.822	672.173
371.898	27.195	834.485	672.239
372.913	27.000	834.223	671.244
373.927	26.965	833.829	670.738
374.942	27.182	833.065	670.866
375.956	27.195	832.662	670.530
376.971	27.353	831.994	670.515
377.986	27.496	831.315	670.437
379.000	27.569	831.304	670.635
380.015	27.571	831.121	670.436
381.029	27.499	830.281	669.435
382.044	27.404	829.907	668.726
383.059	27.368	829.115	667.897
384.073	27.690	828.339	668.392
385.088	27.699	827.635	667.800
386.102	27.745	827.147	667.514
387.117	27.453	826.207	665.630
388.132	27.417	825.773	665.087
389.146	27.188	825.491	663.968
390.161	26.547	824.351	660.651
391.175	26.682	823.947	660.762
392.190	27.170	823.943	662.480
393.205	27.407	823.403	662.852
394.219	26.460	821.511	657.828
395.234	24.788	819.529	650.112
396.248	23.834	818.323	645.632
397.263	24.846	819.619	650.276
398.278	26.736	820.712	657.957
399.292	27.234	820.743	659.731
400.307	26.882	819.653	657.519
401.321	26.755	819.798	657.118
402.336	26.960	819.059	657.208
403.350	27.334	818.844	658.331
404.365	27.687	818.980	659.660
405.380	27.967	818.557	660.271
406.394	28.314	818.283	661.247
407.409	28.401	818.112	661.364
408.423	28.247	817.848	660.538
409.438	28.180	817.251	659.754
410.453	28.237	817.024	659.719
411.467	28.379	815.931	659.288
412.482	28.442	815.229	658.888
413.496	28.321	814.877	658.113
414.511	28.392	814.909	658.333
415.526	28.395	814.686	658.106
416.540	28.409	814.140	657.657
417.555	28.276	813.587	656.676
418.569	27.967	812.936	654.984
419.584	27.897	812.046	653.961
420.599	28.045	811.517	654.005
421.613	95.767	1265.549	1379.965
422.628	82.343	1331.723	1380.085
