DTS Sentinel unit serial number:	SN413079Multiplexer serial number:	ORYXHardware model number:	OX4-SRSoftware version number:	ORYX F/W v4.00 Oryx Data Collector v3.7.2.0data status	okinstallation	princeton_trtdifferential loss correction	single-endedforward channel	channel 3reverse channel	N/Adate	2019/09/11time	10:10:11forward acquisition time	60.00reverse acquisition time	0.00gamma	496.2192k internal	0.2299k external	0.2299temperature offset calibration	0.9942default loss term (dB/km)	0.3790temperature slope calibration	1.0000multiplexer offset coefficient	1.0000multiplexer slope coefficient	1.0000fibre end	0.00T internal ref (°C)	35.69T ext. ref 1 (°C)	0.14T ext. ref 2 (°C)	33.40length (m)	temperature (°C)	Stokes	anti-Stokes-747.200	-32.189	0.333	0.190
-746.185	-104.725	0.138	-0.032
-745.171	-93.602	0.024	-0.007
-744.156	-42.891	-0.366	0.190
-743.142	343.768	-0.024	-0.047
-742.127	96.993	-0.095	0.111
-741.112	-200.000	-0.021	0.123
-740.098	34.603	-0.199	0.177
-739.083	800.000	-0.067	0.256
-738.069	107.933	0.036	-0.043
-737.054	-200.000	0.016	-0.110
-736.039	-81.322	-0.205	-0.069
-735.025	-40.083	-0.255	-0.135
-734.010	126.870	-0.046	-0.060
-732.996	122.134	-0.138	-0.176
-731.981	800.000	-0.108	-0.435
-730.966	141.855	-0.163	0.220
-729.952	224.263	0.102	0.168
-728.937	800.000	0.081	-0.279
-727.923	-159.439	-0.086	-0.005
-726.908	-27.822	0.284	-0.168
-725.894	106.823	0.079	-0.096
-724.879	299.249	0.254	-0.476
-723.864	-1.908	-0.332	0.238
-722.850	-76.803	0.063	0.023
-721.835	-4.913	0.162	0.114
-720.821	3.942	-0.023	-0.017
-719.806	800.000	-0.041	0.119
-718.791	-55.686	0.120	0.055
-717.777	319.225	0.074	0.144
-716.762	-125.051	-0.337	-0.053
-715.748	-200.000	0.042	-0.200
-714.733	-200.000	0.046	0.237
-713.718	-25.505	-0.061	0.037
-712.704	-200.000	0.018	0.163
-711.689	299.761	0.085	-0.159
-710.675	-38.907	0.019	0.010
-709.660	-128.689	0.119	-0.017
-708.645	13.233	-0.225	0.177
-707.631	-200.000	-0.014	0.112
-706.616	435.986	-0.069	-0.153
-705.602	309.649	0.126	0.241
-704.587	-200.000	-0.031	-0.196
-703.572	-27.766	-0.111	-0.066
-702.558	-98.844	0.351	-0.091
-701.543	-108.176	0.402	0.089
-700.529	32.075	0.089	0.078
-699.514	800.000	0.105	-0.295
-698.499	172.728	0.189	0.278
-697.485	-200.000	0.064	0.300
-696.470	800.000	0.022	-0.070
-695.456	800.000	0.131	-0.376
-694.441	496.201	0.041	-0.095
-693.426	-200.000	-0.027	0.173
-692.412	-200.000	0.009	-0.119
-691.397	34.459	-0.070	0.062
-690.383	153.880	-0.066	-0.092
-689.368	-200.000	0.057	-0.298
-688.354	-26.679	0.100	0.060
-687.339	352.217	-0.084	0.169
-686.324	-200.000	0.033	-0.327
-685.310	800.000	-0.058	0.187
-684.295	26.347	-0.147	0.125
-683.281	-63.876	-0.162	0.067
-682.266	103.865	-0.180	-0.215
-681.251	303.524	0.031	-0.059
-680.237	-104.240	-0.425	-0.100
-679.222	-20.973	-0.157	-0.098
-678.208	-75.923	0.107	0.038
-677.193	800.000	0.067	-0.212
-676.178	-200.000	-0.385	-0.000
-675.164	641.254	-0.015	-0.038
-674.149	-85.197	-0.200	0.064
-673.135	129.193	0.150	0.194
-672.120	-35.890	-0.163	0.090
-671.105	-200.000	-0.046	0.208
-670.091	-200.000	-0.047	-0.461
-669.076	-31.663	0.321	0.183
-668.062	98.119	0.266	0.312
-667.047	-63.095	-0.230	-0.097
-666.032	-25.870	0.119	0.072
-665.018	132.418	-0.103	0.135
-664.003	119.580	-0.074	-0.093
-662.989	-57.208	-0.416	0.186
-661.974	12.456	0.206	-0.161
-660.959	-151.850	-0.173	-0.013
-659.945	-123.677	-0.260	-0.042
-658.930	-115.209	0.188	0.036
-657.916	550.664	0.201	0.491
-656.901	90.297	-0.065	0.074
-655.886	-92.779	0.250	0.071
-654.872	254.558	-0.251	0.436
-653.857	142.737	0.234	0.316
-652.843	-99.021	0.501	0.129
-651.828	-200.000	-0.028	-0.160
-650.814	44.996	0.101	0.095
-649.799	6.730	0.183	-0.138
-648.784	355.001	-0.096	-0.194
-647.770	-178.974	0.210	0.005
-646.755	-200.000	0.017	0.274
-645.741	-159.022	0.163	0.009
-644.726	587.065	-0.075	-0.187
-643.711	52.029	-0.308	-0.298
-642.697	-31.513	0.225	-0.128
-641.682	-53.074	-0.070	0.033
-640.668	-118.757	0.459	0.082
-639.653	-200.000	-0.011	-0.313
-638.638	784.846	0.060	-0.168
-637.624	-78.717	-0.071	0.025
-636.609	-103.193	0.130	-0.031
-635.595	-200.000	0.029	0.338
-634.580	-100.555	-0.182	-0.046
-633.565	-49.441	0.048	-0.023
-632.551	-67.048	-0.080	-0.032
-631.536	800.000	0.090	-0.370
-630.522	90.642	0.142	-0.161
-629.507	-8.565	-0.155	0.106
-628.492	-109.353	0.081	0.017
-627.478	116.962	-0.165	0.206
-626.463	-74.232	-0.286	-0.105
-625.449	-200.000	-0.023	0.115
-624.434	-145.448	-0.247	0.023
-623.419	-6.297	-0.294	0.204
-622.405	157.689	0.305	-0.429
-621.390	31.891	0.086	0.075
-620.376	511.411	0.060	0.143
-619.361	274.101	-0.189	0.339
-618.346	-200.000	0.005	-0.130
-617.332	-21.259	-0.266	-0.165
-616.317	19.991	0.055	-0.045
-615.303	-18.060	-0.124	0.079
-614.288	-63.752	0.069	0.029
-613.273	-61.524	0.229	-0.098
-612.259	-200.000	-0.027	-0.335
-611.244	375.279	0.132	-0.272
-610.230	-114.160	0.088	-0.017
-609.215	-70.573	0.108	-0.041
-608.201	-6.185	-0.151	0.105
-607.186	-154.585	0.102	-0.007
-606.171	49.477	-0.193	-0.185
-605.157	-92.752	0.094	0.027
-604.142	800.000	0.041	0.114
-603.128	255.613	0.049	-0.086
-602.113	-200.000	-0.020	-0.093
-601.098	-115.258	0.337	-0.065
-600.084	281.408	-0.108	-0.196
-599.069	102.624	-0.256	0.304
-598.055	-126.447	0.391	-0.059
-597.040	516.461	-0.114	0.270
-596.025	-66.280	0.304	-0.123
-595.011	-200.000	0.016	-0.123
-593.996	-2.907	-0.224	0.159
-592.982	1.820	0.166	-0.122
-591.967	-200.000	-0.025	0.256
-590.952	-5.539	0.177	-0.123
-589.938	-47.668	0.115	-0.057
-588.923	-200.000	-0.008	0.069
-587.909	-3.775	0.132	-0.093
-586.894	-200.000	0.011	-0.051
-585.879	-200.000	0.000	0.186
-584.865	-79.380	-0.408	-0.140
-583.850	172.005	-0.107	-0.156
-582.836	-47.922	0.088	-0.043
-581.821	-173.910	0.213	-0.006
-580.806	-106.508	-0.167	-0.038
-579.792	493.543	-0.067	-0.157
-578.777	-59.464	0.205	-0.089
-577.763	-200.000	-0.011	0.049
-576.748	-200.000	0.352	0.001
-575.733	-65.152	0.225	0.092
-574.719	800.000	-0.047	-0.189
-573.704	-56.090	-0.048	0.022
-572.690	77.660	-0.055	0.060
-571.675	-200.000	0.074	-0.460
-570.661	-200.000	-0.009	0.264
-569.646	164.978	0.070	0.100
-568.631	60.010	-0.221	-0.221
-567.617	301.241	0.053	-0.099
-566.602	800.000	-0.055	-0.238
-565.588	12.804	-0.052	-0.041
-564.573	-144.918	-0.390	-0.036
-563.558	-169.218	0.162	-0.006
-562.544	-200.000	0.022	-0.176
-561.529	135.625	-0.021	-0.027
-560.515	-119.101	-0.587	-0.104
-559.500	800.000	0.038	-0.106
-558.485	800.000	0.030	0.127
-557.471	-4.948	0.097	0.068
-556.456	570.325	0.051	-0.127
-555.442	607.523	0.065	-0.165
-554.427	-200.000	-0.015	-0.321
-553.412	-98.809	-0.211	0.054
-552.398	-150.144	-0.358	0.028
-551.383	399.483	-0.224	-0.475
-550.369	-22.439	0.176	-0.108
-549.354	490.015	-0.111	-0.258
-548.339	-120.101	-0.220	-0.038
-547.325	521.647	-0.067	0.159
-546.310	195.313	0.016	0.025
-545.296	-5.369	0.166	0.115
-544.281	19.327	-0.283	0.231
-543.266	-200.000	-0.020	-0.170
-542.252	-25.765	-0.239	0.143
-541.237	194.227	-0.057	0.088
-540.223	-45.462	0.358	-0.180
-539.208	140.214	0.089	0.118
-538.193	40.266	0.132	-0.120
-537.179	-200.000	0.002	0.183
-536.164	-200.000	0.029	0.130
-535.150	-102.261	-0.084	0.020
-534.135	-200.000	0.068	-0.389
-533.121	593.087	-0.029	0.073
-532.106	36.717	0.203	-0.182
-531.091	-103.872	0.418	0.099
-530.077	64.412	0.164	-0.167
-529.062	107.460	-0.177	-0.213
-528.048	-188.439	-0.311	-0.004
-527.033	40.226	0.155	-0.141
-526.018	-200.000	-0.004	0.206
-525.004	212.800	-0.190	0.303
-523.989	-143.771	-0.083	-0.008
-522.975	-179.297	0.423	0.009
-521.960	-100.837	0.208	0.052
-520.945	330.458	0.113	-0.220
-519.931	425.088	0.018	0.040
-518.916	99.067	-0.014	0.016
-517.902	31.531	0.220	0.191
-516.887	406.196	-0.009	-0.019
-515.872	53.335	-0.079	0.076
-514.858	-58.009	0.338	0.149
-513.843	98.318	0.055	0.064
-512.829	-22.135	-0.271	-0.166
-511.814	-200.000	-0.052	0.325
-510.799	40.338	-0.116	0.106
-509.785	295.684	-0.147	0.272
-508.770	188.220	-0.076	-0.116
-507.756	800.000	-0.016	0.049
-506.741	399.680	-0.054	0.114
-505.726	105.153	-0.127	-0.151
-504.712	-82.813	-0.203	-0.066
-503.697	67.581	0.195	-0.201
-502.683	-57.583	-0.216	-0.096
-501.668	-167.346	-0.217	0.009
-500.653	-200.000	-0.015	-0.206
-499.639	-123.603	0.243	-0.039
-498.624	205.212	-0.136	0.214
-497.610	330.975	0.158	0.307
-496.595	-129.763	0.081	0.011
-495.581	621.546	-0.066	0.168
-494.566	151.646	-0.163	-0.225
-493.551	-114.848	-0.258	-0.050
-492.537	92.763	-0.100	0.114
-491.522	-200.000	0.010	-0.144
-490.508	800.000	-0.019	0.082
-489.493	-142.765	-0.186	0.018
-488.478	57.540	-0.201	-0.198
-487.464	59.793	-0.169	0.169
-486.449	60.497	-0.397	0.397
-485.435	-11.080	0.322	-0.215
-484.420	115.489	0.069	-0.085
-483.405	-38.259	0.314	-0.168
-482.391	-200.000	-0.111	-0.000
-481.376	-200.000	-0.016	-0.455
-480.362	373.390	-0.044	0.090
-479.347	-61.730	-0.234	0.099
-478.332	423.131	0.079	-0.171
-477.318	-32.329	0.183	0.103
-476.303	369.068	0.070	-0.143
-475.289	105.461	-0.090	0.107
-474.274	37.693	-0.231	-0.207
-473.259	148.693	-0.111	0.151
-472.245	-41.460	0.059	0.031
-471.230	4.457	-0.123	-0.091
-470.216	-41.714	-0.148	0.077
-469.201	800.000	0.057	0.178
-468.186	258.554	0.096	-0.167
-467.172	630.349	-0.024	-0.061
-466.157	-55.505	-0.122	0.055
-465.143	800.000	-0.110	-0.310
-464.128	800.000	-0.056	-0.236
-463.113	158.694	-0.051	-0.072
-462.099	-109.865	0.116	-0.024
-461.084	215.191	0.144	-0.231
-460.070	-200.000	-0.079	-0.000
-459.055	459.385	-0.024	-0.053
-458.040	-200.000	0.015	0.080
-457.026	120.894	-0.215	0.270
-456.011	126.266	0.146	-0.186
-454.997	-200.000	-0.005	-0.291
-453.982	-200.000	0.023	-0.163
-452.968	-200.000	0.069	0.312
-451.953	-78.158	-0.089	0.031
-450.938	131.667	-0.145	0.188
-449.924	-109.323	-0.228	-0.049
-448.909	87.368	0.089	-0.099
-447.895	-66.264	0.343	0.138
-446.880	800.000	-0.054	0.188
-445.865	254.855	-0.041	-0.070
-444.851	-200.000	0.005	0.261
-443.836	-200.000	0.077	0.381
-442.822	30.312	0.110	0.095
-441.807	40.992	0.269	-0.245
-440.792	534.601	0.112	-0.267
-439.778	800.000	-0.089	-0.248
-438.763	-200.000	0.017	0.295
-437.749	52.908	0.226	0.218
-436.734	-41.466	-0.431	0.224
-435.719	-168.162	0.277	0.011
-434.705	-79.192	0.240	0.082
-433.690	-121.094	-0.339	-0.057
-432.676	621.637	-0.108	-0.275
-431.661	800.000	0.073	0.226
-430.646	-200.000	0.057	0.291
-429.632	-200.000	0.023	-0.114
-428.617	720.253	0.031	-0.083
-427.603	498.792	0.017	0.040
-426.588	800.000	0.015	0.050
-425.573	-60.231	0.100	0.043
-424.559	4.717	0.285	-0.211
-423.544	282.194	0.083	-0.149
-422.530	128.442	-0.082	-0.105
-421.515	220.694	-0.118	-0.191
-420.500	4.498	0.103	-0.076
-419.486	-72.128	0.508	0.190
-418.471	800.000	0.033	0.125
-417.457	-78.299	-0.117	0.040
-416.442	-200.000	0.038	0.335
-415.428	166.421	0.185	0.264
-414.413	-109.023	-0.256	0.055
-413.398	-20.010	-0.110	0.068
-412.384	-200.000	-0.021	-0.185
-411.369	-200.000	-0.040	0.186
-410.355	697.364	-0.052	-0.138
-409.340	-140.316	-0.241	-0.025
-408.325	-102.570	0.051	-0.012
-407.311	81.486	0.083	-0.090
-406.296	-19.704	0.226	-0.141
-405.282	-10.543	0.126	-0.084
-404.267	800.000	-0.041	0.134
-403.252	-62.477	0.285	0.119
-402.238	-150.538	-0.130	0.010
-401.223	800.000	-0.083	0.364
-400.209	-112.283	0.066	0.013
-399.194	2.729	-0.072	-0.052
-398.179	-191.351	0.226	-0.002
-397.165	5.099	0.292	-0.217
-396.150	50.154	0.223	0.212
-395.136	-59.089	0.150	-0.065
-394.121	-200.000	0.024	0.174
-393.106	346.837	0.106	-0.209
-392.092	-92.237	0.296	-0.084
-391.077	-46.542	-0.030	0.015
-390.063	-27.221	0.111	0.065
-389.048	800.000	0.071	0.258
-388.033	28.317	0.135	0.115
-387.019	-200.000	0.040	0.203
-386.004	12.566	-0.137	0.107
-384.990	439.913	0.053	-0.117
-383.975	-53.344	-0.087	-0.040
-382.960	-68.859	0.215	-0.083
-381.946	109.432	0.099	0.119
-380.931	-150.592	-0.320	-0.025
-379.917	-136.403	0.215	-0.025
-378.902	-108.771	-0.237	-0.051
-377.888	-60.952	-0.089	0.038
-376.873	320.441	-0.028	-0.054
-375.858	151.090	0.150	0.205
-374.844	-71.915	0.177	-0.066
-373.829	-200.000	0.042	-0.314
-372.815	48.208	-0.169	-0.159
-371.800	-54.197	-0.197	0.090
-370.785	-35.297	0.050	-0.027
-369.771	-29.309	0.080	-0.046
-368.756	147.950	-0.179	0.243
-367.742	-96.365	-0.288	-0.077
-366.727	-75.754	-0.222	0.079
-365.712	800.000	0.106	-0.355
-364.698	-29.953	-0.291	0.167
-363.683	-60.487	0.066	-0.028
-362.669	-200.000	-0.017	0.218
-361.654	345.227	0.176	-0.348
-360.639	-85.921	0.161	0.050
-359.625	-200.000	0.043	0.270
-358.610	531.840	0.181	0.430
-357.596	-60.224	0.037	-0.016
-356.581	208.547	0.098	-0.154
-355.566	517.759	0.086	0.202
-354.552	-82.489	-0.286	-0.093
-353.537	108.205	-0.187	-0.224
-352.523	73.424	-0.153	0.161
-351.508	66.650	-0.132	0.135
-350.493	800.000	0.074	-0.290
-349.479	-112.220	-0.245	0.049
-348.464	-64.045	-0.061	-0.025
-347.450	120.265	0.040	0.050
-346.435	-55.881	0.441	0.198
-345.420	38.375	0.161	0.144
-344.406	-132.302	-0.264	0.034
-343.391	-128.328	-0.358	0.051
-342.377	-70.015	-0.181	-0.069
-341.362	-200.000	-0.028	-0.233
-340.348	-152.550	-0.221	0.016
-339.333	-21.770	0.036	0.022
-338.318	208.298	-0.169	-0.266
-337.304	-91.074	0.103	0.030
-336.289	20.750	-0.180	0.146
-335.275	-200.000	0.027	0.209
-334.260	453.234	-0.024	0.053
-333.245	-109.511	0.248	-0.053
-332.231	-200.000	-0.040	-0.268
-331.216	79.453	0.064	-0.069
-330.202	-200.000	-0.014	-0.174
-329.187	800.000	0.106	-0.367
-328.172	-52.163	0.068	-0.032
-327.158	9.828	0.150	-0.114
-326.143	9.811	0.018	0.014
-325.129	-200.000	0.007	0.218
-324.114	136.922	0.131	-0.172
-323.099	-119.448	0.426	-0.074
-322.085	531.847	0.092	0.219
-321.070	519.533	0.095	-0.223
-320.056	190.308	-0.169	0.254
-319.041	-94.616	-0.223	0.061
-318.026	-137.707	0.168	0.019
-317.012	-200.000	-0.078	-0.405
-315.997	21.915	0.138	-0.113
-314.983	666.692	-0.035	-0.090
-313.968	201.416	0.044	0.068
-312.953	-126.543	0.065	-0.010
-311.939	337.546	0.167	0.326
-310.924	158.312	0.034	-0.047
-309.910	-144.045	0.208	-0.020
-308.895	-200.000	0.060	0.327
-307.880	90.705	-0.279	0.313
-306.866	218.020	0.039	-0.062
-305.851	-123.857	0.196	0.031
-304.837	277.095	-0.182	-0.325
-303.822	-173.560	-0.207	0.006
-302.807	131.274	-0.263	0.338
-301.793	-113.069	-0.068	0.013
-300.778	-106.854	-0.335	0.074
-299.764	-200.000	0.013	0.170
-298.749	-164.931	-0.130	0.006
-297.735	-100.929	-0.186	0.046
-296.720	-80.324	-0.112	-0.037
-295.705	-25.084	0.328	0.195
-294.691	-171.250	0.239	0.008
-293.676	-159.728	0.161	-0.009
-292.662	-111.621	0.076	0.015
-291.647	-17.907	-0.017	-0.011
-290.632	-146.249	0.267	-0.024
-289.618	-120.495	0.334	0.057
-288.603	15.074	0.154	0.121
-287.589	-48.279	0.255	-0.123
-286.574	800.000	-0.044	0.179
-285.559	-41.722	-0.299	0.154
-284.545	-200.000	0.045	-0.204
-283.530	-105.176	-0.148	0.034
-282.516	560.556	-0.149	-0.361
-281.501	-26.429	-0.180	0.106
-280.486	49.651	0.197	-0.186
-279.472	-64.794	0.184	0.075
-278.457	-117.181	-0.199	-0.036
-277.443	-200.000	-0.030	0.156
-276.428	445.973	-0.022	-0.049
-275.413	235.188	-0.095	0.157
-274.399	-200.000	-0.002	-0.162
-273.384	332.299	-0.056	-0.109
-272.370	103.959	-0.161	0.190
-271.355	441.806	0.110	0.242
-270.340	206.162	0.150	-0.234
-269.326	-135.051	-0.098	0.012
-268.311	-139.238	0.317	-0.034
-267.297	-200.000	-0.007	-0.171
-266.282	-100.811	0.236	0.058
-265.267	98.341	-0.186	0.214
-264.253	-55.036	-0.063	-0.028
-263.238	8.527	0.217	0.163
-262.224	-200.000	-0.053	0.464
-261.209	-79.803	-0.309	-0.104
-260.195	-98.283	-0.148	-0.038
-259.180	272.491	0.116	0.204
-258.165	52.285	0.271	0.259
-257.151	-53.262	-0.179	0.082
-256.136	-18.648	0.162	-0.101
-255.122	308.787	-0.085	-0.160
-254.107	-133.897	0.330	-0.041
-253.092	-105.143	0.030	0.007
-252.078	10.636	-0.232	0.177
-251.063	-157.265	-0.108	-0.007
-250.049	-200.000	0.013	0.084
-249.034	-121.246	-0.153	0.026
-248.019	800.000	0.072	-0.228
-247.005	-77.443	-0.185	-0.064
-245.990	57.672	0.155	-0.151
-244.976	800.000	-0.071	-0.280
-243.961	-200.000	-0.013	-0.204
-242.946	-53.148	-0.118	-0.054
-241.932	272.850	-0.029	-0.051
-240.917	-200.000	0.007	-0.072
-239.903	-200.000	0.035	0.389
-238.888	-6.971	0.326	0.221
-237.873	-119.126	-0.233	0.041
-236.859	-200.000	0.010	0.077
-235.844	-13.160	-0.244	-0.158
-234.830	-200.000	0.024	0.476
-233.815	800.000	-0.031	0.099
-232.800	-116.332	0.407	-0.075
-231.786	-28.092	-0.145	-0.084
-230.771	436.836	0.089	-0.194
-229.757	62.016	-0.158	0.158
-228.742	-200.000	0.000	0.053
-227.727	335.341	-0.007	-0.014
-226.713	800.000	0.064	0.205
-225.698	480.982	0.119	0.269
-224.684	625.089	0.083	0.210
-223.669	155.863	-0.185	0.255
-222.655	800.000	0.076	0.270
-221.640	-200.000	0.015	0.068
-220.625	800.000	-0.078	-0.298
-219.611	-200.000	0.012	-0.256
-218.596	272.961	0.253	-0.447
-217.582	800.000	-0.102	-0.389
-216.567	-200.000	0.003	0.267
-215.552	-200.000	0.048	0.275
-214.538	-90.925	-0.138	-0.040
-213.523	62.204	0.039	0.039
-212.509	-50.392	-0.118	0.056
-211.494	-82.040	-0.145	0.047
-210.479	800.000	-0.022	-0.095
-209.465	105.157	0.086	-0.102
-208.450	-200.000	-0.023	-0.244
-207.436	-200.000	-0.013	-0.056
-206.421	800.000	-0.081	0.317
-205.406	-200.000	0.001	0.202
-204.392	-27.252	0.370	-0.215
-203.377	239.877	0.184	0.307
-202.363	-115.778	-0.222	0.042
-201.348	14.225	0.271	-0.211
-200.333	-78.214	-0.476	0.163
-199.319	-50.648	-0.329	0.155
-198.304	-103.951	-0.263	0.061
-197.290	30.910	0.089	-0.076
-196.275	142.320	0.079	-0.104
-195.260	-200.000	-0.000	-0.138
-194.246	-200.000	0.013	-0.317
-193.231	-43.096	-0.208	0.105
-192.217	-132.207	-0.144	0.019
-191.202	-64.213	0.136	0.055
-190.187	-139.253	-0.226	-0.024
-189.173	-143.558	0.205	-0.020
-188.158	-200.000	-0.039	-0.202
-187.144	132.680	0.280	0.360
-186.129	-61.802	-0.291	0.122
-185.114	-83.414	-0.490	-0.157
-184.100	537.723	-0.040	0.094
-183.085	25.721	-0.273	-0.227
-182.071	-159.654	0.193	-0.011
-181.056	-60.156	-0.173	0.074
-180.042	-65.031	-0.239	-0.096
-179.027	375.322	0.095	0.193
-178.012	4.834	0.173	-0.127
-176.998	800.000	-0.158	-0.473
-175.983	77.748	0.079	0.084
-174.969	-153.627	0.219	-0.015
-173.954	-67.099	-0.282	0.111
-172.939	-37.151	-0.103	-0.055
-171.925	102.351	-0.116	-0.135
-170.910	47.414	0.097	0.090
-169.896	-55.489	0.133	0.059
-168.881	50.577	-0.140	-0.133
-167.866	221.205	0.198	0.318
-166.852	-66.141	-0.384	0.153
-165.837	79.697	0.369	-0.395
-164.823	-85.140	0.270	0.084
-163.808	19.451	-0.157	0.126
-162.793	-15.427	-0.034	0.022
-161.779	800.000	-0.055	0.216
-160.764	10.168	-0.399	0.302
-159.750	-46.062	-0.177	-0.087
-158.735	800.000	0.051	0.182
-157.720	231.684	0.186	-0.303
-156.706	-19.222	0.202	-0.125
-155.691	-79.468	0.167	0.056
-154.677	70.952	0.172	0.178
-153.662	-200.000	-0.006	0.181
-152.647	-85.318	0.434	0.135
-151.633	800.000	-0.153	0.452
-150.618	43.947	-0.220	0.201
-149.604	227.441	0.127	-0.207
-148.589	152.552	-0.020	0.027
-147.574	-200.000	-0.029	0.307
-146.560	8.591	0.194	0.145
-145.545	305.541	0.091	0.169
-144.531	175.820	0.069	-0.100
-143.516	-126.127	0.481	-0.072
-142.502	584.942	-0.010	-0.024
-141.487	-107.812	0.296	-0.064
-140.472	41.261	0.024	0.021
-139.458	-193.495	0.104	-0.001
-138.443	-109.495	0.194	-0.041
-137.429	-27.367	0.248	0.144
-136.414	138.978	-0.174	0.228
-135.399	-77.003	0.187	-0.065
-134.385	155.245	0.085	-0.116
-133.370	-82.852	0.279	-0.090
-132.356	-63.105	0.116	-0.048
-131.341	564.092	0.048	0.115
-130.326	-95.506	0.206	0.055
-129.312	-130.891	0.152	-0.020
-128.297	221.509	0.173	-0.277
-127.283	506.671	-0.114	-0.263
-126.268	-200.000	-0.014	0.434
-125.253	-200.000	0.025	-0.244
-124.239	-118.115	-0.120	-0.021
-123.224	43.394	0.476	0.433
-122.210	-97.215	0.259	0.067
-121.195	-79.938	-0.362	-0.121
-120.180	-200.000	-0.007	0.235
-119.166	-19.304	-0.375	-0.231
-118.151	171.447	-0.075	0.107
-117.137	-57.580	0.101	-0.044
-116.122	-102.437	0.375	0.089
-115.107	-80.489	0.339	-0.112
-114.093	-200.000	0.027	-0.152
-113.078	-86.235	-0.223	-0.069
-112.064	125.573	0.118	-0.148
-111.049	303.356	0.157	0.289
-110.034	-7.687	0.219	-0.147
-109.020	83.882	0.376	-0.408
-108.005	256.517	0.051	-0.088
-106.991	-140.260	0.179	-0.019
-105.976	-114.067	-0.121	-0.023
-104.962	-35.617	-0.165	-0.089
-103.947	-79.674	0.364	-0.122
-102.932	285.981	-0.237	0.426
-101.918	92.348	0.180	0.201
-100.903	800.000	-0.114	0.380
-99.889	-83.256	-0.144	-0.046
-98.874	-200.000	0.029	-0.128
-97.859	90.286	-0.192	-0.213
-96.845	-176.250	-0.279	-0.007
-95.830	-200.000	0.024	0.123
-94.816	-63.839	0.101	-0.041
-93.801	-84.160	0.355	0.112
-92.786	-200.000	-0.028	0.461
-91.772	800.000	-0.144	0.411
-90.757	-22.708	-0.265	-0.159
-89.743	-85.375	-0.085	-0.026
-88.728	428.859	-0.081	-0.175
-87.713	-200.000	0.033	-0.251
-86.699	-6.268	0.279	0.190
-85.684	313.286	-0.080	0.149
-84.670	114.466	-0.275	-0.333
-83.655	-27.879	0.124	-0.071
-82.640	-46.989	0.258	-0.125
-81.626	800.000	-0.078	-0.222
-80.611	91.447	0.197	-0.221
-79.597	-152.991	-0.115	-0.008
-78.582	800.000	0.061	-0.187
-77.567	-58.370	0.268	-0.116
-76.553	-41.176	0.170	0.087
-75.538	800.000	0.012	-0.041
-74.524	-143.268	0.132	0.013
-73.509	491.127	0.048	-0.109
-72.494	800.000	0.014	0.060
-71.480	-107.604	0.272	0.059
-70.465	-118.808	0.147	0.026
-69.451	188.459	-0.141	0.209
-68.436	318.814	-0.051	-0.096
-67.422	172.919	0.015	0.021
-66.407	-62.905	0.257	0.106
-65.392	-200.000	0.027	0.220
-64.378	-200.000	0.025	-0.119
-63.363	157.375	-0.091	0.125
-62.349	-5.080	0.262	0.179
-61.334	43.943	-0.910	-0.828
-60.319	-8.083	0.573	0.384
-59.305	800.000	0.236	-0.800
-58.290	111.019	0.709	0.848
-57.276	548.804	0.586	1.395
-56.261	-200.000	89.906	502.011
-55.246	540.032	1368.634	3235.320
-54.232	184.445	2606.865	3835.249
-53.217	113.917	2237.758	2701.832
-52.203	45.247	1767.078	1618.096
-51.188	38.686	1573.523	1394.324
-50.173	36.259	1544.919	1351.939
-49.159	52.877	1592.045	1511.790
-48.144	56.545	1611.473	1556.312
-47.130	39.217	1568.943	1393.807
-46.115	35.940	1553.834	1357.276
-45.100	35.811	1550.221	1353.164
-44.086	35.757	1548.145	1350.916
-43.071	35.608	1546.656	1348.518
-42.057	35.533	1545.005	1346.498
-41.042	35.687	1543.010	1345.784
-40.027	35.604	1542.306	1344.536
-39.013	35.545	1540.319	1342.342
-37.998	35.692	1538.876	1342.054
-36.984	35.736	1537.488	1341.097
-35.969	35.630	1536.767	1339.679
-34.954	35.607	1535.153	1338.059
-33.940	35.642	1533.586	1336.880
-32.925	35.754	1532.339	1336.517
-31.911	35.720	1530.818	1334.903
-30.896	35.796	1529.229	1333.990
-29.881	35.835	1527.717	1332.890
-28.867	35.786	1526.924	1331.810
-27.852	35.752	1525.035	1329.874
-26.838	35.718	1523.928	1328.617
-25.823	35.864	1521.820	1327.732
-24.809	35.794	1520.006	1325.616
-23.794	35.743	1519.149	1324.464
-22.779	35.723	1518.367	1323.593
-21.765	35.671	1517.212	1322.175
-20.750	35.809	1515.465	1321.553
-19.736	35.730	1514.206	1319.856
-18.721	35.696	1513.633	1319.069
-17.706	35.665	1512.350	1317.689
-16.692	35.660	1511.514	1316.876
-15.677	35.675	1510.166	1315.751
-14.663	35.649	1509.502	1314.941
-13.648	35.549	1508.675	1313.485
-12.633	35.605	1507.227	1312.555
-11.619	35.641	1506.435	1312.057
-10.604	35.711	1505.430	1311.608
-9.590	35.621	1504.568	1310.194
-8.575	35.608	1503.589	1309.199
-7.560	35.671	1502.677	1308.784
-6.546	35.706	1501.895	1308.290
-5.531	35.603	1500.805	1306.583
-4.517	35.624	1499.984	1305.959
-3.502	35.609	1499.280	1305.197
-2.487	35.554	1498.066	1303.714
-1.473	35.702	1496.738	1303.509
-0.458	35.598	1495.785	1301.924
0.556	34.020	1486.279	1292.472
1.571	31.786	1459.190	1253.878
2.586	28.930	1397.013	1182.015
3.600	27.386	1313.078	1101.561
4.615	25.822	1266.493	1053.251
5.629	21.204	1205.727	976.856
6.644	9.912	1113.863	843.662
7.659	1.506	1068.817	767.188
8.673	0.353	1063.284	757.355
9.688	0.170	1060.422	754.332
10.702	-0.056	1058.960	752.097
11.717	0.084	1056.795	751.193
12.731	3.734	1061.733	772.919
13.746	14.249	1076.770	836.912
14.761	21.233	1085.710	879.067
15.775	21.979	1086.196	883.138
16.790	22.145	1085.295	883.161
17.804	21.960	1084.583	881.576
18.819	21.777	1084.196	880.260
19.834	21.893	1082.920	879.731
20.848	21.882	1082.731	879.442
21.863	22.005	1082.190	879.545
22.877	21.944	1082.279	879.232
23.892	21.920	1081.307	878.243
24.907	21.668	1080.868	876.549
25.921	21.943	1079.695	876.896
26.936	21.833	1079.052	875.744
27.950	21.874	1077.786	874.846
28.965	21.845	1076.546	873.618
29.980	21.757	1075.320	872.105
30.994	21.668	1073.712	870.284
32.009	21.977	1072.701	870.921
33.023	21.954	1072.486	870.552
34.038	21.813	1070.603	868.249
35.053	21.722	1070.152	867.360
36.067	21.894	1069.317	867.455
37.082	21.945	1068.736	867.160
38.096	22.046	1067.984	866.969
39.111	22.039	1067.393	866.382
40.126	22.168	1065.987	865.795
41.140	22.204	1064.427	864.628
42.155	21.842	1063.487	862.012
43.169	21.484	1062.581	859.444
44.184	21.595	1061.337	858.908
45.199	21.606	1060.423	858.145
46.213	21.444	1059.247	856.321
47.228	21.454	1058.658	855.819
48.242	21.591	1058.196	856.039
49.257	21.864	1056.496	855.922
50.271	21.777	1056.120	855.119
51.286	21.921	1054.987	854.825
52.301	22.004	1054.291	854.589
53.315	21.989	1053.725	853.980
54.330	21.865	1053.052	852.757
55.344	21.815	1051.880	851.493
56.359	21.875	1051.301	851.240
57.374	21.900	1050.357	850.520
58.388	21.756	1049.111	848.739
59.403	21.684	1048.569	847.875
60.417	21.703	1047.577	847.089
61.432	21.480	1046.941	845.426
62.447	21.545	1046.191	845.059
63.461	21.705	1046.076	845.664
64.476	21.679	1044.825	844.453
65.490	21.744	1043.615	843.712
66.505	21.599	1042.835	842.310
67.520	21.564	1042.107	841.480
68.534	21.688	1041.183	841.255
69.549	21.527	1040.561	839.905
70.563	21.305	1039.118	837.600
71.578	21.136	1038.302	836.057
72.593	21.228	1037.543	835.813
73.607	21.201	1036.471	834.748
74.622	21.078	1034.970	832.876
75.636	21.346	1034.499	833.705
76.651	21.565	1033.677	834.009
77.666	21.351	1033.007	832.378
78.680	21.330	1031.965	831.365
79.695	21.280	1031.871	830.979
80.709	21.373	1031.167	830.778
81.724	21.563	1029.941	830.617
82.739	21.645	1029.025	830.197
83.753	21.314	1028.751	828.334
84.768	21.783	1027.656	829.597
85.782	22.206	1026.731	830.778
86.797	22.217	1026.583	830.635
87.812	22.203	1025.386	829.530
88.826	21.882	1025.180	827.771
89.841	21.990	1024.068	827.312
90.855	22.158	1023.182	827.313
91.870	22.166	1022.266	826.535
92.884	22.150	1021.727	825.955
93.899	21.998	1020.669	824.310
94.914	21.977	1019.438	823.143
95.928	22.007	1018.677	822.596
96.943	22.091	1018.007	822.379
97.957	21.780	1016.447	819.590
98.972	21.591	1015.588	817.944
99.987	21.385	1014.528	816.058
101.001	21.504	1013.751	815.913
102.016	21.865	1013.143	817.034
103.030	21.840	1012.549	816.366
104.045	21.793	1011.129	814.928
105.060	21.589	1009.674	812.740
106.074	21.525	1008.486	811.415
107.089	21.473	1008.100	810.788
108.103	21.775	1007.860	811.923
109.118	21.996	1006.787	812.011
110.133	21.663	1005.901	809.687
111.147	21.619	1004.589	808.353
112.162	21.450	1003.163	806.356
113.176	21.213	1002.384	804.569
114.191	21.434	1001.508	804.809
115.206	21.697	1000.413	805.068
116.220	21.139	1000.076	802.161
117.235	21.162	998.475	800.913
118.249	21.265	997.584	800.599
119.264	21.350	997.028	800.470
120.279	21.248	996.168	799.243
121.293	21.209	994.849	797.933
122.308	21.306	994.609	798.116
123.322	21.291	993.623	797.187
124.337	21.386	992.365	796.538
125.352	21.226	991.163	794.777
126.366	20.772	989.682	791.454
127.381	20.550	988.412	789.358
128.395	21.080	988.064	791.416
129.410	21.692	987.913	794.002
130.424	21.798	987.447	794.034
131.439	21.780	985.885	792.626
132.454	21.692	985.423	791.791
133.468	21.744	984.027	790.835
134.483	21.699	983.122	789.830
135.497	21.670	982.712	789.300
136.512	21.968	981.995	789.997
137.527	22.003	981.343	789.559
138.541	22.062	980.269	788.890
139.556	22.149	979.191	788.346
140.570	22.080	978.659	787.539
141.585	22.057	977.970	786.812
142.600	22.072	977.356	786.313
143.614	22.027	975.996	784.951
144.629	22.000	975.614	784.454
145.643	22.256	975.046	785.067
146.658	22.174	974.057	783.838
147.673	22.045	972.345	781.817
148.687	21.960	971.463	780.659
149.702	21.826	970.833	779.488
150.716	21.878	969.273	778.397
151.731	21.766	968.194	776.966
152.746	21.861	967.929	777.107
153.760	21.959	967.458	777.094
154.775	22.085	966.634	776.920
155.789	22.210	965.648	776.610
156.804	22.109	964.648	775.291
157.819	22.152	963.320	774.344
158.833	22.174	962.944	774.072
159.848	22.159	962.120	773.277
160.862	22.226	961.188	772.753
161.877	22.113	960.937	771.985
162.892	22.068	959.681	770.712
163.906	22.115	958.586	769.967
164.921	22.064	957.860	769.092
165.935	22.109	956.569	768.185
166.950	22.094	955.741	767.388
167.964	22.161	954.945	766.972
168.979	22.122	953.660	765.701
169.994	21.998	952.585	764.234
171.008	21.882	951.396	762.706
172.023	22.133	950.678	763.154
173.037	22.228	950.059	763.000
174.052	21.983	949.205	761.186
175.067	21.930	947.903	759.847
176.081	21.825	947.141	758.713
177.096	21.987	946.234	758.618
178.110	21.936	945.586	757.811
179.125	21.790	944.542	756.280
180.140	21.451	943.484	753.906
181.154	21.532	942.717	753.572
182.169	21.611	942.423	753.611
183.183	21.831	941.591	753.825
184.198	22.136	941.420	754.932
185.213	22.023	940.930	753.990
186.227	21.935	940.301	753.041
187.242	22.133	939.668	753.315
188.256	22.206	938.610	752.713
189.271	22.185	937.635	751.773
190.286	22.259	937.126	751.617
191.300	22.110	936.169	750.148
192.315	21.665	934.927	747.185
193.329	20.901	933.371	742.621
194.344	20.389	932.355	739.568
195.359	20.974	932.689	742.259
196.373	21.820	933.086	746.109
197.388	22.051	932.887	746.869
198.402	22.072	931.736	745.969
199.417	22.051	931.308	745.470
200.432	21.919	930.687	744.349
201.446	21.745	930.208	743.161
202.461	21.547	929.190	741.444
203.475	21.678	928.684	741.530
204.490	21.304	926.949	738.498
205.504	20.131	924.803	731.774
206.519	20.450	925.192	733.364
207.534	21.525	925.192	737.834
208.548	21.677	924.677	738.000
209.563	21.978	924.685	739.209
210.577	22.096	923.517	738.704
211.592	21.712	922.975	736.590
212.607	22.122	922.681	738.016
213.621	22.289	922.261	738.316
214.636	22.175	921.111	736.852
215.650	21.968	921.438	736.179
216.665	22.175	920.313	736.081
217.680	22.167	920.099	735.814
218.694	22.303	919.454	735.800
219.709	21.996	918.124	733.389
220.723	21.662	917.187	731.179
221.738	21.775	916.868	731.335
222.753	21.977	916.506	731.823
223.767	21.769	915.841	730.359
224.782	21.918	914.872	730.142
225.796	22.194	914.265	730.743
226.811	22.275	913.870	730.697
227.826	21.912	912.639	728.142
228.840	20.989	911.392	723.256
229.855	21.062	910.543	722.822
230.869	21.271	910.170	723.325
231.884	21.023	909.070	721.363
232.899	21.108	908.578	721.261
233.913	21.895	908.466	724.359
234.928	22.064	908.305	724.865
235.942	21.963	907.678	723.882
236.957	21.863	907.021	722.884
237.972	21.631	906.225	721.227
238.986	21.497	905.488	720.027
240.001	21.804	904.619	720.533
241.015	21.809	903.939	719.947
242.030	21.653	903.436	718.843
243.045	21.969	902.935	719.678
244.059	22.037	902.336	719.415
245.074	22.157	902.205	719.740
246.088	22.144	901.235	718.847
247.103	21.567	900.658	715.965
248.117	21.668	899.843	715.667
249.132	22.378	899.376	718.128
250.147	22.616	899.370	719.034
251.161	22.606	898.986	718.620
252.176	22.786	898.703	719.064
253.190	22.822	897.633	718.290
254.205	22.845	897.314	718.064
255.220	23.074	896.738	718.474
256.234	23.050	895.833	717.584
257.249	22.935	895.552	716.829
258.263	22.816	894.545	715.478
259.278	22.731	894.194	714.791
260.293	22.956	893.735	715.272
261.307	22.952	893.110	714.692
262.322	22.861	892.010	713.382
263.336	22.654	892.112	712.562
264.351	22.162	890.361	709.118
265.366	21.149	888.279	703.317
266.380	20.757	887.063	700.712
267.395	21.481	887.735	704.099
268.409	22.556	887.822	708.428
269.424	22.436	887.145	707.342
270.439	22.520	886.621	707.202
271.453	22.793	885.974	707.717
272.468	22.681	885.340	706.699
273.482	22.781	885.372	707.061
274.497	22.944	884.546	706.993
275.512	22.861	883.526	705.784
276.526	22.105	882.412	701.811
277.541	22.313	881.834	702.121
278.555	22.799	881.590	703.802
279.570	22.453	880.807	701.737
280.585	22.337	879.840	700.442
281.599	22.394	879.674	700.476
282.614	22.609	878.732	700.516
283.628	22.181	877.959	698.140
284.643	21.923	877.131	696.394
285.657	22.268	876.877	697.499
286.672	22.131	875.969	696.174
287.687	21.711	875.082	693.744
288.701	21.860	875.467	694.577
289.716	22.199	875.056	695.531
290.730	21.960	873.912	693.616
291.745	21.784	873.103	692.217
292.760	21.676	872.341	691.125
293.774	21.589	871.694	690.211
294.789	22.514	872.288	694.265
295.803	23.235	872.257	697.019
296.818	23.138	871.851	696.254
297.833	23.268	871.230	696.206
298.847	22.964	870.196	694.124
299.862	22.668	869.091	692.019
300.876	22.860	868.550	692.280
301.891	23.105	868.427	693.083
302.906	23.181	868.234	693.164
303.920	22.709	866.938	690.224
304.935	22.733	865.753	689.310
305.949	23.040	865.676	690.387
306.964	23.167	865.196	690.439
307.979	22.940	864.277	688.760
308.993	22.796	864.184	688.065
310.008	23.130	863.901	689.078
311.022	23.461	863.254	689.792
312.037	23.318	862.514	688.583
313.052	22.976	861.959	686.750
314.066	22.954	861.101	685.920
315.081	22.124	859.597	681.445
316.095	21.489	858.417	677.987
317.110	22.041	858.670	680.265
318.125	23.011	858.778	684.046
319.139	22.400	857.828	680.867
320.154	21.287	856.132	675.161
321.168	20.993	855.025	673.095
322.183	21.548	855.071	675.215
323.197	22.435	855.391	678.829
324.212	22.762	855.301	679.957
325.227	22.823	854.957	679.860
326.241	23.013	854.219	679.941
327.256	22.832	853.688	678.765
328.270	22.756	853.182	678.008
329.285	22.796	852.429	677.505
330.300	22.695	851.452	676.283
331.314	22.447	850.721	674.691
332.329	22.419	850.329	674.212
333.343	22.814	849.857	675.289
334.358	22.998	849.600	675.728
335.373	22.966	849.242	675.260
336.387	23.037	848.349	674.762
337.402	23.358	848.074	675.709
338.416	23.535	847.638	675.976
339.431	23.489	846.999	675.233
340.446	23.518	846.338	674.757
341.460	23.755	845.848	675.208
342.475	23.725	845.295	674.592
343.489	23.334	844.958	672.777
344.504	23.426	844.130	672.407
345.519	23.627	844.044	673.041
346.533	23.838	843.887	673.657
347.548	23.910	843.175	673.302
348.562	23.808	842.846	672.594
349.577	23.925	841.914	672.232
350.592	23.882	841.359	671.568
351.606	23.781	840.655	670.566
352.621	23.821	840.525	670.555
353.635	23.652	839.982	669.423
354.650	23.548	839.702	668.749
355.665	23.450	838.147	667.084
356.679	22.344	836.893	661.867
357.694	22.105	836.211	660.373
358.708	22.932	836.111	663.343
359.723	22.769	835.777	662.406
360.738	23.106	835.213	663.162
361.752	23.469	835.151	664.415
362.767	23.560	835.011	664.587
363.781	23.644	835.217	665.007
364.796	24.003	834.538	665.750
365.810	24.223	834.349	666.363
366.825	24.264	833.871	666.076
367.840	24.195	833.432	665.411
368.854	23.911	833.065	663.996
369.869	23.510	831.984	661.581
370.883	23.447	831.136	660.614
371.898	23.683	830.439	660.879
372.913	23.474	829.799	659.535
373.927	23.489	829.319	659.150
374.942	23.728	828.711	659.497
375.956	23.781	828.281	659.292
376.971	23.824	827.718	658.947
377.986	23.921	827.245	658.870
379.000	24.234	826.540	659.410
380.015	24.125	826.537	658.943
381.029	23.865	825.682	657.244
382.044	23.798	825.214	656.566
383.059	24.057	824.517	656.908
384.073	24.188	823.812	656.771
385.088	24.052	823.434	655.909
386.102	24.148	823.049	655.899
387.117	23.995	822.221	654.617
388.132	23.757	821.938	653.462
389.146	23.744	821.158	652.735
390.161	23.308	819.568	649.815
391.175	23.304	819.598	649.764
392.190	23.816	819.804	651.749
393.205	23.819	818.990	651.058
394.219	22.846	817.400	646.175
395.234	21.301	815.012	638.589
396.248	20.278	814.602	634.471
397.263	21.642	815.078	639.774
398.278	23.394	816.364	647.130
399.292	23.878	815.889	648.464
400.307	23.483	815.621	646.749
401.321	23.459	815.180	646.255
402.336	23.516	814.725	646.047
403.350	23.825	814.548	646.974
404.365	24.300	814.576	648.665
405.380	24.477	814.434	649.139
406.394	24.697	814.287	649.765
407.409	24.787	814.078	649.869
408.423	24.764	813.225	649.047
409.438	24.692	812.776	648.369
410.453	24.722	812.200	647.962
411.467	24.854	811.684	647.970
412.482	24.887	811.250	647.685
413.496	24.882	810.557	647.056
414.511	24.957	810.161	646.953
415.526	24.903	809.833	646.442
416.540	24.957	809.491	646.306
417.555	24.720	808.967	644.976
418.569	24.491	808.303	643.563
419.584	24.405	807.832	642.822
420.599	24.536	807.184	642.719
421.613	151.222	1365.992	1788.844
422.628	131.247	1447.429	1788.951
