DTS Sentinel unit serial number:	SN413079Multiplexer serial number:	ORYXHardware model number:	OX4-SRSoftware version number:	ORYX F/W v4.00 Oryx Data Collector v3.7.2.0data status	okinstallation	princeton_trtdifferential loss correction	single-endedforward channel	channel 3reverse channel	N/Adate	2019/09/16time	04:48:34forward acquisition time	60.00reverse acquisition time	0.00gamma	496.2192k internal	0.2336k external	0.2336temperature offset calibration	0.9955default loss term (dB/km)	0.3790temperature slope calibration	1.0000multiplexer offset coefficient	1.0000multiplexer slope coefficient	1.0000fibre end	0.00T internal ref (°C)	27.17T ext. ref 1 (°C)	10.93T ext. ref 2 (°C)	21.56length (m)	temperature (°C)	Stokes	anti-Stokes-747.200	-200.000	-0.001	0.009
-746.185	54.028	-0.172	0.166
-745.171	-81.113	0.060	-0.020
-744.156	-200.000	0.067	0.628
-743.142	-21.301	-0.411	-0.252
-742.127	81.380	-0.073	0.079
-741.112	37.641	0.199	-0.177
-740.098	15.521	0.148	-0.117
-739.083	-173.794	-0.171	0.005
-738.069	-91.516	-0.092	0.026
-737.054	-200.000	-0.011	0.104
-736.039	-45.348	-0.076	-0.038
-735.025	-200.000	-0.028	0.244
-734.010	-85.479	-0.217	0.068
-732.996	24.356	-0.068	0.056
-731.981	45.030	0.024	-0.022
-730.966	-200.000	-0.002	0.098
-729.952	114.982	-0.060	-0.073
-728.937	-200.000	-0.030	-0.263
-727.923	189.018	-0.120	-0.180
-726.908	66.499	0.146	0.149
-725.894	-70.356	-0.327	-0.125
-724.879	-200.000	-0.032	-0.150
-723.864	-134.508	-0.132	0.016
-722.850	128.830	-0.065	0.083
-721.835	-200.000	0.034	0.286
-720.821	800.000	0.092	-0.380
-719.806	9.588	-0.198	0.150
-718.791	-200.000	0.030	-0.277
-717.777	-79.021	0.321	-0.110
-716.762	-23.657	0.036	-0.021
-715.748	-200.000	-0.074	-0.395
-714.733	281.714	0.120	0.216
-713.718	-200.000	0.005	0.082
-712.704	35.442	-0.063	0.056
-711.689	-69.628	-0.331	0.127
-710.675	125.808	0.212	-0.269
-709.660	108.289	-0.085	0.102
-708.645	-200.000	0.001	0.093
-707.631	-200.000	0.068	-0.416
-706.616	-200.000	-0.058	-0.316
-705.602	16.139	0.111	0.087
-704.587	-64.038	0.057	-0.024
-703.572	18.507	-0.155	0.124
-702.558	-127.699	0.074	-0.011
-701.543	-147.599	0.182	-0.015
-700.529	98.791	-0.171	-0.198
-699.514	-3.658	0.100	-0.070
-698.499	-113.242	0.278	0.055
-697.485	561.107	0.063	-0.153
-696.470	-49.942	0.161	-0.076
-695.456	70.724	0.107	-0.111
-694.441	10.158	0.202	-0.154
-693.426	-68.878	0.363	0.140
-692.412	781.959	0.090	0.246
-691.397	-35.891	-0.146	0.079
-690.383	-200.000	0.017	0.171
-689.368	6.004	0.235	0.174
-688.354	-4.243	-0.151	0.105
-687.339	-171.550	-0.052	-0.002
-686.324	-99.068	-0.130	-0.033
-685.310	-200.000	0.055	-0.439
-684.295	-173.783	-0.106	0.003
-683.281	227.644	-0.028	-0.045
-682.266	-200.000	0.019	0.086
-681.251	518.597	-0.124	0.290
-680.237	-157.247	-0.175	-0.011
-679.222	109.380	0.106	0.127
-678.208	-85.301	-0.317	-0.099
-677.193	-99.558	-0.198	0.050
-676.178	-114.724	0.176	0.034
-675.164	-105.094	-0.339	-0.078
-674.149	227.463	-0.097	-0.158
-673.135	24.219	0.126	-0.104
-672.120	248.666	0.054	-0.092
-671.105	424.930	-0.087	-0.187
-670.091	127.394	-0.167	-0.212
-669.076	800.000	-0.080	-0.311
-668.062	-36.413	0.225	0.121
-667.047	-24.955	-0.227	0.135
-666.032	-200.000	0.017	-0.189
-665.018	-200.000	0.032	-0.209
-664.003	-200.000	-0.020	-0.137
-662.989	188.284	0.092	-0.137
-661.974	104.881	-0.085	0.101
-660.959	-173.999	-0.461	0.014
-659.945	-200.000	0.020	-0.106
-658.930	800.000	-0.028	-0.092
-657.916	-44.248	-0.081	-0.041
-656.901	87.051	0.167	-0.185
-655.886	156.861	0.103	-0.142
-654.872	-200.000	-0.073	0.329
-653.857	48.161	0.205	-0.192
-652.843	-154.777	-0.257	-0.017
-651.828	-24.696	-0.221	0.132
-650.814	-27.670	-0.138	-0.080
-649.799	504.298	0.151	0.351
-648.784	-65.022	0.032	0.013
-647.770	-84.317	-0.152	-0.048
-646.755	800.000	0.053	0.159
-645.741	-200.000	-0.011	-0.113
-644.726	800.000	-0.126	-0.359
-643.711	-184.580	0.171	-0.003
-642.697	-55.332	0.083	-0.037
-641.682	800.000	-0.080	0.313
-640.668	-99.855	-0.141	-0.035
-639.653	800.000	-0.062	-0.254
-638.638	-87.304	-0.430	0.131
-637.624	153.950	0.050	-0.068
-636.609	-138.262	-0.014	0.002
-635.595	-18.663	0.164	0.102
-634.580	139.097	0.224	0.294
-633.565	153.393	-0.202	-0.276
-632.551	301.949	-0.116	-0.215
-631.536	-200.000	-0.002	-0.194
-630.522	-118.551	-0.133	-0.024
-629.507	800.000	-0.063	-0.204
-628.492	800.000	0.048	0.139
-627.478	59.715	-0.153	0.151
-626.463	-4.195	0.357	-0.247
-625.449	-161.536	-0.181	-0.009
-624.434	-126.211	-0.218	0.033
-623.419	800.000	0.093	-0.267
-622.405	-200.000	-0.026	0.340
-621.390	396.570	-0.136	-0.283
-620.376	8.891	0.280	0.211
-619.361	-32.379	-0.330	-0.184
-618.346	-200.000	0.039	0.251
-617.332	125.788	-0.130	0.163
-616.317	-200.000	0.009	-0.164
-615.303	-200.000	0.018	0.122
-614.288	-200.000	0.017	0.129
-613.273	167.071	-0.111	-0.158
-612.259	800.000	-0.072	0.208
-611.244	167.453	0.056	-0.080
-610.230	146.339	-0.036	0.048
-609.215	136.979	0.181	-0.237
-608.201	345.574	0.192	-0.377
-607.186	-200.000	0.054	-0.461
-606.171	-74.616	-0.412	-0.148
-605.157	-95.577	-0.450	-0.120
-604.142	-200.000	-0.018	-0.203
-603.128	-7.622	-0.169	-0.114
-602.113	-128.320	-0.173	0.025
-601.098	154.700	-0.125	0.171
-600.084	800.000	0.070	-0.234
-599.069	-57.587	0.301	0.132
-598.055	-200.000	-0.024	-0.205
-597.040	-13.168	-0.175	-0.114
-596.025	1.975	-0.167	0.120
-595.011	281.628	0.138	0.247
-593.996	47.985	0.294	0.275
-592.982	-47.921	-0.078	0.038
-591.967	800.000	-0.054	-0.216
-590.952	-19.590	-0.049	0.030
-589.938	3.185	0.167	-0.121
-588.923	-23.642	-0.297	-0.177
-587.909	139.180	-0.210	-0.276
-586.894	90.728	0.232	0.259
-585.879	800.000	0.050	-0.184
-584.865	800.000	-0.125	-0.389
-583.850	-56.589	0.249	-0.110
-582.836	-200.000	-0.051	0.346
-581.821	129.640	-0.038	-0.048
-580.806	157.299	0.036	-0.049
-579.792	-75.590	-0.268	0.095
-578.777	-115.759	-0.042	0.008
-577.763	-121.516	-0.141	0.023
-576.748	-47.728	0.259	0.125
-575.733	49.309	0.118	0.111
-574.719	-106.421	0.318	-0.071
-573.704	-42.819	-0.313	-0.159
-572.690	31.993	0.268	-0.230
-571.675	-90.781	0.168	0.048
-570.661	164.776	0.093	0.131
-569.646	36.329	0.079	0.069
-568.631	-106.823	0.064	-0.014
-567.617	-200.000	0.041	0.202
-566.602	-200.000	-0.014	-0.121
-565.588	-118.530	-0.249	-0.044
-564.573	-166.655	-0.067	-0.003
-563.558	254.055	0.327	0.557
-562.544	-126.211	-0.205	-0.031
-561.529	29.977	-0.163	-0.138
-560.515	-128.224	0.294	0.042
-559.500	-125.388	-0.135	-0.021
-558.485	658.040	0.036	-0.091
-557.471	-200.000	-0.070	-0.482
-556.456	381.730	-0.081	-0.166
-555.442	-101.309	-0.365	0.089
-554.427	-200.000	0.040	0.328
-553.412	-52.343	-0.312	-0.144
-552.398	-0.510	-0.254	-0.180
-551.383	135.164	0.162	-0.209
-550.369	142.778	0.111	0.148
-549.354	-184.907	0.069	0.001
-548.339	800.000	-0.101	0.437
-547.325	-200.000	-0.078	0.430
-546.310	800.000	-0.039	0.157
-545.296	776.950	0.126	-0.343
-544.281	138.063	-0.023	0.030
-543.266	-200.000	0.030	0.276
-542.252	-138.414	-0.116	-0.013
-541.237	800.000	-0.086	-0.345
-540.223	-115.409	-0.163	0.031
-539.208	29.484	0.136	0.115
-538.193	-200.000	0.016	0.213
-537.179	205.330	0.268	-0.415
-536.164	-61.423	0.150	-0.063
-535.150	-134.204	-0.323	-0.040
-534.135	445.497	-0.189	-0.413
-533.121	49.151	0.273	0.256
-532.106	22.367	-0.377	-0.307
-531.091	-37.080	-0.295	0.157
-530.077	-94.343	-0.454	-0.123
-529.062	513.809	-0.025	0.057
-528.048	-200.000	-0.022	-0.115
-527.033	-139.916	-0.477	0.050
-526.018	125.541	-0.113	0.142
-525.004	-15.179	-0.149	-0.095
-523.989	0.270	0.251	-0.178
-522.975	376.871	0.155	-0.314
-521.960	-88.808	-0.199	0.059
-520.945	293.625	-0.034	0.061
-519.931	-200.000	0.072	-0.367
-518.916	-30.772	-0.043	0.024
-517.902	-126.637	0.141	0.021
-516.887	-114.232	0.243	0.047
-515.872	-95.677	-0.147	-0.039
-514.858	199.371	0.152	-0.231
-513.843	-200.000	0.003	-0.191
-512.829	71.881	0.136	-0.141
-511.814	223.678	0.102	0.163
-510.799	58.892	0.184	-0.180
-509.785	-200.000	-0.018	0.320
-508.770	-115.352	-0.200	-0.037
-507.756	-133.975	0.110	-0.014
-506.741	67.151	-0.139	-0.141
-505.726	-200.000	0.082	0.454
-504.712	800.000	0.057	-0.176
-503.697	314.238	0.195	-0.365
-502.683	-34.638	-0.030	-0.016
-501.668	-200.000	0.074	-0.497
-500.653	-74.562	0.043	-0.015
-499.639	110.699	0.184	-0.220
-498.624	-29.142	0.339	-0.193
-497.610	506.450	-0.043	-0.099
-496.595	82.870	0.152	-0.164
-495.581	800.000	-0.047	-0.151
-494.566	223.569	-0.097	-0.155
-493.551	-106.787	0.086	-0.019
-492.537	48.452	-0.112	0.104
-491.522	-163.578	-0.342	0.016
-490.508	-8.498	-0.117	-0.078
-489.493	-42.574	-0.302	-0.153
-488.478	28.008	-0.174	-0.146
-487.464	-200.000	0.005	0.220
-486.449	172.445	0.200	0.286
-485.435	-84.391	0.079	0.025
-484.420	5.051	-0.113	-0.082
-483.405	-100.720	0.247	0.061
-482.391	-108.358	-0.316	0.068
-481.376	50.503	-0.119	0.112
-480.362	221.321	0.132	0.211
-479.347	-200.000	0.006	-0.120
-478.332	-54.041	0.126	0.057
-477.318	-86.301	0.356	0.109
-476.303	-148.793	-0.217	-0.017
-475.289	-59.164	-0.168	0.072
-474.274	269.549	0.144	0.250
-473.259	580.560	0.121	-0.296
-472.245	-107.776	-0.207	-0.045
-471.230	-200.000	0.062	0.307
-470.216	-200.000	-0.035	0.223
-469.201	-145.929	-0.109	-0.010
-468.186	-36.803	0.225	0.120
-467.172	304.641	0.089	-0.164
-466.157	5.906	-0.165	0.122
-465.143	-14.834	0.189	-0.121
-464.128	-28.752	-0.153	-0.087
-463.113	416.999	-0.078	0.166
-462.099	-200.000	-0.004	-0.022
-461.084	65.952	-0.101	0.102
-460.070	-63.840	0.074	-0.030
-459.055	37.299	0.247	0.217
-458.040	-22.461	-0.291	-0.175
-457.026	-115.781	0.243	-0.045
-456.011	-98.645	0.076	0.019
-454.997	-105.454	0.143	0.032
-453.982	375.484	-0.067	-0.136
-452.968	-75.109	-0.161	-0.057
-451.953	223.756	0.106	0.169
-450.938	-119.798	0.300	0.051
-449.924	25.796	0.099	-0.082
-448.909	311.554	-0.102	0.190
-447.895	96.814	0.084	0.095
-446.880	-104.565	-0.452	-0.104
-445.865	229.016	-0.172	-0.279
-444.851	72.558	0.147	0.152
-443.836	85.739	-0.111	-0.121
-442.822	-23.501	0.091	0.054
-441.807	0.075	-0.174	-0.123
-440.792	800.000	0.017	-0.055
-439.778	-200.000	-0.001	-0.077
-438.763	-200.000	0.026	0.232
-437.749	-200.000	-0.065	-0.376
-436.734	800.000	-0.002	-0.010
-435.719	-15.997	0.169	-0.107
-434.705	87.339	0.081	-0.089
-433.690	241.234	-0.033	0.055
-432.676	-200.000	0.004	0.134
-431.661	21.836	-0.050	-0.040
-430.646	-46.589	-0.064	0.031
-429.632	-68.528	0.145	-0.056
-428.617	118.953	-0.068	0.083
-427.603	-75.613	-0.131	0.046
-426.588	-184.828	-0.288	-0.005
-425.573	138.376	-0.297	0.387
-424.559	800.000	0.062	0.172
-423.544	31.650	0.049	0.042
-422.530	800.000	0.049	-0.195
-421.515	-117.885	-0.296	0.053
-420.500	-10.491	-0.165	-0.108
-419.486	571.943	-0.086	0.209
-418.471	-96.794	-0.391	-0.102
-417.457	-20.064	-0.025	0.015
-416.442	-38.204	0.426	-0.224
-415.428	-9.908	0.111	-0.074
-414.413	800.000	0.048	-0.168
-413.398	800.000	-0.093	0.323
-412.384	133.075	-0.168	0.215
-411.369	800.000	0.077	-0.214
-410.355	-11.390	-0.258	0.168
-409.340	-93.006	0.294	0.081
-408.325	-200.000	-0.000	-0.223
-407.311	-200.000	-0.055	-0.366
-406.296	134.520	0.268	-0.344
-405.282	-120.974	-0.253	-0.042
-404.267	187.726	0.186	0.275
-403.252	-118.784	0.180	-0.031
-402.238	800.000	-0.045	-0.142
-401.223	82.892	0.232	-0.250
-400.209	-200.000	-0.001	0.107
-399.194	-200.000	0.038	0.235
-398.179	30.468	0.173	0.147
-397.165	-200.000	0.000	-0.135
-396.150	-87.114	0.071	0.021
-395.136	45.675	0.253	0.231
-394.121	-200.000	0.013	0.258
-393.106	220.442	-0.239	-0.379
-392.092	129.426	-0.162	0.205
-391.077	148.089	0.098	0.131
-390.063	456.757	-0.138	0.304
-389.048	-32.816	0.386	-0.213
-388.033	-70.007	0.342	-0.129
-387.019	396.428	-0.089	0.184
-386.004	385.748	-0.102	0.207
-384.990	-135.911	-0.256	0.030
-383.975	728.634	0.078	0.206
-382.960	4.264	0.165	0.120
-381.946	31.848	-0.175	0.149
-380.931	-21.428	-0.112	0.068
-379.917	-87.458	0.142	-0.043
-378.902	203.036	-0.274	-0.419
-377.888	-58.258	0.392	0.169
-376.873	237.756	0.115	0.188
-375.858	-200.000	0.060	0.347
-374.844	55.976	-0.256	-0.246
-373.829	-154.686	0.223	-0.015
-372.815	-200.000	-0.088	0.395
-371.800	800.000	-0.112	-0.360
-370.785	-89.168	0.125	-0.036
-369.771	-69.991	-0.257	-0.097
-368.756	286.921	-0.128	-0.230
-367.742	-76.088	-0.299	-0.104
-366.727	-184.048	0.146	0.002
-365.712	679.665	-0.088	-0.226
-364.698	41.584	-0.052	-0.047
-363.683	800.000	0.053	0.167
-362.669	800.000	0.033	0.098
-361.654	-198.875	-0.318	-0.002
-360.639	187.479	-0.026	0.038
-359.625	84.426	-0.113	-0.122
-358.610	-200.000	0.011	0.089
-357.596	800.000	0.076	-0.282
-356.581	27.289	-0.179	-0.148
-355.566	488.612	-0.015	-0.035
-354.552	50.762	0.092	0.086
-353.537	-45.708	-0.135	-0.066
-352.523	-100.406	0.157	-0.038
-351.508	-200.000	-0.003	-0.207
-350.493	-60.935	-0.047	-0.020
-349.479	-200.000	-0.009	-0.084
-348.464	-98.627	0.131	-0.033
-347.450	-200.000	0.074	0.436
-346.435	-107.855	0.265	0.057
-345.420	706.350	-0.122	0.318
-344.406	-51.325	0.275	0.127
-343.391	143.231	-0.074	0.097
-342.377	392.875	0.038	-0.078
-341.362	100.023	-0.259	-0.296
-340.348	-6.993	-0.177	-0.119
-339.333	-69.257	0.099	0.038
-338.318	-200.000	-0.020	0.285
-337.304	64.544	-0.355	0.354
-336.289	22.601	0.036	-0.029
-335.275	-39.037	-0.204	-0.106
-334.260	-108.806	0.446	-0.094
-333.245	-88.339	-0.135	0.040
-332.231	-142.345	0.213	0.021
-331.216	-200.000	0.008	0.385
-330.202	-115.493	0.221	-0.041
-329.187	-200.000	-0.031	-0.186
-328.172	-200.000	-0.188	0.000
-327.158	-200.000	0.111	0.607
-326.143	-62.431	-0.096	0.039
-325.129	800.000	0.080	0.283
-324.114	-138.824	0.183	-0.020
-323.099	800.000	-0.103	-0.301
-322.085	-94.041	0.035	0.009
-321.070	-79.476	0.456	-0.152
-320.056	800.000	-0.046	-0.146
-319.041	160.624	0.175	0.241
-318.026	-135.431	0.208	-0.025
-317.012	517.989	-0.064	-0.148
-315.997	1.864	0.208	-0.148
-314.983	-200.000	0.014	-0.586
-313.968	42.134	-0.285	0.256
-312.953	-200.000	0.064	0.511
-311.939	-115.157	-0.122	-0.023
-310.924	-200.000	-0.030	-0.175
-309.910	98.443	0.087	-0.099
-308.895	94.148	-0.164	-0.184
-307.880	-66.677	-0.194	-0.076
-306.866	-64.874	-0.062	-0.025
-305.851	26.693	0.200	-0.165
-304.837	-69.200	0.145	-0.055
-303.822	-103.737	-0.237	-0.055
-302.807	-29.824	-0.217	0.122
-301.793	-200.000	0.058	-0.254
-300.778	-164.328	0.270	0.012
-299.764	11.616	0.147	-0.111
-298.749	-46.367	0.094	-0.045
-297.735	173.641	0.088	0.125
-296.720	-172.433	0.263	-0.008
-295.705	-161.772	-0.308	0.015
-294.691	-130.543	0.376	-0.050
-293.676	8.771	0.131	0.098
-292.662	131.508	0.049	-0.062
-291.647	-25.399	-0.147	-0.086
-290.632	195.931	0.175	-0.263
-289.618	661.241	0.067	0.171
-288.603	-0.673	-0.166	0.116
-287.589	-16.073	0.098	0.061
-286.574	14.249	0.069	-0.053
-285.559	-170.635	-0.418	0.014
-284.545	-135.979	0.170	-0.020
-283.530	79.250	0.202	0.214
-282.516	521.822	0.053	0.122
-281.501	-39.824	0.116	-0.060
-280.486	-142.774	-0.274	-0.026
-279.472	-5.401	-0.158	-0.107
-278.457	44.934	-0.053	-0.048
-277.443	713.903	0.206	0.539
-276.428	-166.536	0.466	0.019
-275.413	77.721	0.091	0.095
-274.399	-200.000	0.034	0.171
-273.384	-19.030	-0.126	0.077
-272.370	800.000	-0.048	-0.160
-271.355	-59.778	0.191	0.081
-270.340	81.878	-0.121	-0.130
-269.326	-200.000	-0.010	-0.071
-268.311	194.269	-0.246	0.368
-267.297	722.462	-0.056	0.146
-266.282	-74.302	0.190	0.068
-265.267	800.000	-0.027	-0.105
-264.253	30.476	0.099	0.083
-263.238	800.000	0.100	0.365
-262.224	87.957	-0.059	0.065
-261.209	-110.240	0.094	-0.019
-260.195	-81.876	0.194	0.063
-259.180	33.712	-0.191	0.163
-258.165	-200.000	-0.026	0.156
-257.151	119.939	-0.244	-0.298
-256.136	-200.000	-0.039	-0.215
-255.122	63.825	0.078	0.077
-254.107	11.751	-0.109	-0.082
-253.092	-44.273	0.332	0.164
-252.078	42.756	0.104	0.093
-251.063	-200.000	0.018	0.379
-250.049	40.349	-0.192	-0.170
-249.034	148.791	0.061	-0.082
-248.019	7.130	-0.065	0.048
-247.005	-200.000	-0.000	0.448
-245.990	-87.544	-0.037	-0.011
-244.976	-200.000	-0.008	-0.165
-243.961	-72.806	0.031	-0.011
-242.946	-69.483	0.182	-0.069
-241.932	-76.304	-0.358	0.124
-240.917	800.000	-0.062	-0.229
-239.903	-0.869	0.204	-0.142
-238.888	18.835	-0.046	0.036
-237.873	-31.251	0.238	-0.132
-236.859	-79.910	-0.164	0.054
-235.844	68.758	0.159	-0.161
-234.830	800.000	0.056	-0.197
-233.815	-200.000	0.044	0.219
-232.800	-200.000	-0.015	0.227
-231.786	42.011	-0.145	0.129
-230.771	6.355	-0.136	-0.100
-229.757	173.390	-0.270	0.383
-228.742	-200.000	0.025	0.231
-227.727	86.082	0.096	0.104
-226.713	497.268	-0.145	-0.329
-225.698	-127.121	0.198	-0.029
-224.684	800.000	0.108	-0.292
-223.669	-14.386	0.191	-0.121
-222.655	566.397	0.086	-0.205
-221.640	428.248	0.060	-0.128
-220.625	433.816	0.090	-0.191
-219.611	330.329	-0.163	-0.308
-218.596	569.568	0.106	-0.253
-217.582	534.000	-0.040	0.092
-216.567	-181.964	0.297	0.006
-215.552	-200.000	0.029	0.170
-214.538	116.781	0.045	0.054
-213.523	-69.524	0.283	0.107
-212.509	-106.193	-0.190	0.042
-211.494	424.571	0.039	0.082
-210.479	-200.000	0.017	-0.264
-209.465	32.104	-0.447	-0.379
-208.450	-15.235	0.230	0.144
-207.436	-16.480	0.218	0.136
-206.421	-133.848	-0.106	0.013
-205.406	23.326	0.161	-0.130
-204.392	800.000	0.066	-0.181
-203.377	-200.000	-0.018	-0.092
-202.363	-140.710	-0.140	-0.014
-201.348	-17.042	-0.147	0.091
-200.333	-90.201	-0.064	0.018
-199.319	-166.728	0.103	0.004
-198.304	-66.156	0.038	0.015
-197.290	4.565	0.102	-0.074
-196.275	-135.723	0.126	-0.015
-195.260	-4.651	-0.326	0.221
-194.246	-200.000	0.019	0.096
-193.231	-155.707	-0.129	-0.008
-192.217	-200.000	0.035	0.273
-191.202	-200.000	-0.019	0.148
-190.187	800.000	0.072	0.276
-189.173	-99.072	0.263	-0.065
-188.158	358.657	0.046	-0.091
-187.144	-65.586	-0.140	-0.055
-186.129	149.403	-0.023	0.030
-185.114	169.243	-0.143	-0.201
-184.100	-169.558	-0.123	-0.004
-183.085	-114.267	0.267	0.051
-182.071	-200.000	-0.043	0.315
-181.056	97.674	0.228	0.258
-180.042	-107.649	-0.162	-0.035
-179.027	-200.000	-0.001	-0.428
-178.012	105.653	-0.128	0.148
-176.998	180.325	-0.037	-0.054
-175.983	800.000	0.017	0.049
-174.969	49.581	0.149	-0.138
-173.954	-26.686	0.274	0.158
-172.939	180.017	0.126	-0.182
-171.925	800.000	-0.107	0.333
-170.910	-83.304	0.276	-0.087
-169.896	274.308	-0.095	0.166
-168.881	-134.421	0.193	0.023
-167.866	26.431	0.058	-0.048
-166.852	800.000	-0.022	0.061
-165.837	-200.000	0.021	0.342
-164.823	-200.000	-0.021	-0.115
-163.808	-31.055	0.118	-0.065
-162.793	215.403	-0.190	0.296
-161.779	321.084	0.071	0.132
-160.764	-200.000	0.035	0.278
-159.750	0.805	0.277	0.195
-158.735	-61.602	0.196	0.081
-157.720	-5.724	0.197	-0.132
-156.706	-80.266	-0.130	0.043
-155.691	410.877	-0.072	0.150
-154.677	28.106	-0.244	0.202
-153.662	181.255	0.160	0.231
-152.647	-200.000	-0.031	0.151
-151.633	-101.516	-0.185	-0.044
-150.618	190.474	0.120	0.177
-149.604	800.000	0.065	0.249
-148.589	-99.644	0.405	-0.100
-147.574	-200.000	-0.009	-0.131
-146.560	-200.000	-0.018	-0.125
-145.545	161.142	-0.153	0.210
-144.531	-200.000	0.005	-0.045
-143.516	91.267	-0.062	-0.068
-142.502	-162.657	0.174	-0.008
-141.487	-39.139	-0.345	0.178
-140.472	64.385	0.047	-0.047
-139.458	-200.000	-0.016	0.305
-138.443	-63.377	0.062	-0.025
-137.429	185.991	0.059	-0.086
-136.414	-142.366	0.262	-0.025
-135.399	59.197	0.192	-0.185
-134.385	11.670	0.073	0.055
-133.370	-134.871	0.178	-0.021
-132.356	65.811	0.114	-0.114
-131.341	553.231	-0.053	-0.125
-130.326	348.943	-0.008	0.016
-129.312	128.647	-0.138	-0.172
-128.297	89.556	-0.150	-0.164
-127.283	-76.309	-0.036	-0.012
-126.268	-32.401	0.222	-0.121
-125.253	434.588	0.092	-0.195
-124.239	-62.019	0.306	-0.125
-123.224	591.393	-0.212	0.513
-122.210	800.000	-0.071	0.250
-121.195	2.701	0.139	-0.099
-120.180	166.970	0.123	0.170
-119.166	-104.605	-0.131	-0.030
-118.151	-45.105	0.157	0.076
-117.137	154.376	0.147	0.198
-116.122	-155.506	0.249	0.016
-115.107	323.212	0.121	0.227
-114.093	-30.223	-0.146	-0.082
-113.078	119.987	-0.101	0.122
-112.064	77.830	0.043	0.045
-111.049	-200.000	-0.019	0.088
-110.034	80.895	0.109	0.115
-109.020	-21.370	0.034	0.020
-108.005	175.643	-0.024	0.034
-106.991	307.416	-0.127	0.232
-105.976	-200.000	-0.020	0.153
-104.962	65.736	-0.193	0.191
-103.947	-200.000	-0.045	0.245
-102.932	-26.128	-0.213	0.123
-101.918	-96.044	0.102	0.027
-100.903	-13.253	0.048	-0.031
-99.889	-200.000	-0.005	0.051
-98.874	-200.000	0.032	-0.223
-97.859	-200.000	-0.001	-0.224
-96.845	-129.746	0.325	-0.044
-95.830	-60.117	-0.364	0.152
-94.816	800.000	0.036	-0.145
-93.801	-137.717	-0.257	-0.028
-92.786	-70.007	-0.055	0.020
-91.772	-24.680	-0.111	-0.065
-90.757	20.617	-0.114	0.090
-89.743	-23.492	0.201	0.118
-88.728	-160.307	0.184	0.010
-87.713	-87.597	0.148	-0.044
-86.699	-20.667	0.337	0.202
-85.684	133.012	0.083	0.104
-84.670	78.786	0.100	0.105
-83.655	2.182	-0.065	0.046
-82.640	202.948	0.036	0.054
-81.626	800.000	0.052	0.172
-80.611	-200.000	0.051	0.302
-79.597	114.057	0.053	0.063
-78.582	800.000	-0.170	0.500
-77.567	103.669	-0.257	-0.295
-76.553	-200.000	-0.062	-0.383
-75.538	17.491	-0.173	0.134
-74.524	-122.771	-0.096	-0.015
-73.509	-200.000	0.017	-0.174
-72.494	-200.000	-0.023	0.251
-71.480	-104.787	-0.154	0.035
-70.465	-103.151	-0.206	-0.048
-69.451	284.696	0.178	0.313
-68.436	87.196	0.224	0.242
-67.422	27.282	0.340	-0.279
-66.407	15.963	-0.039	0.030
-65.392	-143.802	0.471	0.043
-64.378	618.270	-0.100	0.245
-63.363	-22.077	0.113	-0.067
-62.349	-46.553	0.018	0.009
-61.334	-24.783	-1.114	-0.647
-60.319	-48.942	0.840	0.393
-59.305	800.000	-0.400	-1.364
-58.290	322.357	0.520	0.967
-57.276	721.323	0.492	1.278
-56.261	-200.000	115.371	646.769
-55.246	469.439	1511.858	3319.090
-54.232	147.296	2678.262	3523.613
-53.217	102.368	2173.953	2483.387
-52.203	37.630	1699.212	1473.932
-51.188	30.223	1516.627	1265.208
-50.173	28.113	1491.488	1230.013
-49.159	51.743	1549.643	1440.564
-48.144	50.203	1565.379	1444.588
-47.130	30.440	1521.209	1270.313
-46.115	27.400	1506.351	1237.228
-45.100	27.303	1502.516	1233.374
-44.086	27.130	1501.120	1231.006
-43.071	27.183	1499.089	1229.649
-42.057	27.122	1496.956	1227.444
-41.042	27.112	1495.698	1226.290
-40.027	27.259	1494.241	1226.040
-39.013	27.203	1492.946	1224.552
-37.998	27.122	1492.052	1223.228
-36.984	27.159	1490.928	1222.505
-35.969	27.105	1489.239	1220.706
-34.954	27.136	1487.854	1219.732
-33.940	27.085	1486.675	1218.378
-32.925	27.166	1485.148	1217.621
-31.911	27.297	1483.251	1216.894
-30.896	27.331	1482.008	1216.048
-29.881	27.177	1481.398	1214.476
-28.867	27.140	1480.704	1213.606
-27.852	27.226	1478.927	1212.675
-26.838	27.132	1477.441	1210.785
-25.823	27.197	1475.725	1209.764
-24.809	27.223	1474.092	1208.547
-23.794	27.224	1472.621	1207.303
-22.779	27.098	1471.909	1205.832
-21.765	27.213	1470.624	1205.497
-20.750	27.287	1468.931	1204.551
-19.736	27.226	1468.221	1203.517
-18.721	27.060	1467.595	1201.859
-17.706	27.141	1466.548	1201.484
-16.692	27.182	1465.168	1200.584
-15.677	27.182	1464.105	1199.660
-14.663	27.247	1462.986	1199.123
-13.648	27.220	1461.958	1198.060
-12.633	27.157	1461.052	1196.851
-11.619	27.142	1460.813	1196.508
-10.604	27.225	1459.739	1196.131
-9.590	27.154	1458.825	1194.869
-8.575	27.155	1457.828	1194.008
-7.560	27.228	1457.066	1193.815
-6.546	27.131	1456.227	1192.446
-5.531	27.099	1454.962	1191.152
-4.517	27.147	1453.895	1190.544
-3.502	27.131	1453.255	1189.867
-2.487	27.176	1452.225	1189.274
-1.473	27.118	1451.462	1188.221
-0.458	27.127	1450.153	1187.165
0.556	25.589	1440.016	1175.874
1.571	22.554	1416.551	1137.059
2.586	19.408	1357.338	1069.951
3.600	17.940	1275.290	996.623
4.615	17.032	1229.929	955.977
5.629	16.324	1177.282	911.156
6.644	13.754	1101.733	839.621
7.659	11.493	1067.420	802.299
8.673	11.088	1063.058	796.969
9.688	10.871	1060.155	793.660
10.702	10.886	1058.326	792.293
11.717	10.876	1056.232	790.606
12.731	11.889	1055.650	795.024
13.746	14.655	1059.286	811.148
14.761	17.143	1062.141	825.373
15.775	17.786	1062.239	828.500
16.790	17.028	1060.494	823.389
17.804	15.986	1057.679	816.082
18.819	15.041	1056.221	810.313
19.834	14.544	1054.252	806.327
20.848	14.228	1053.110	803.858
21.863	14.061	1052.671	802.646
22.877	13.813	1051.844	800.748
23.892	13.602	1050.857	798.910
24.907	13.529	1050.049	797.874
25.921	13.509	1049.544	797.319
26.936	13.614	1048.725	797.133
27.950	13.571	1047.668	796.055
28.965	13.580	1046.588	795.204
29.980	13.661	1045.492	794.689
30.994	13.707	1044.106	793.789
32.009	13.866	1043.144	793.745
33.023	13.808	1043.004	793.289
34.038	13.867	1041.929	792.684
35.053	13.892	1040.825	791.897
36.067	13.715	1040.243	790.537
37.082	13.627	1039.377	789.392
38.096	13.607	1038.747	788.747
39.111	13.710	1038.068	788.652
40.126	13.688	1037.146	787.776
41.140	13.731	1035.839	786.921
42.155	13.601	1034.891	785.513
43.169	13.512	1033.922	784.289
44.184	13.458	1033.080	783.324
45.199	13.580	1031.829	782.884
46.213	13.581	1030.142	781.540
47.228	13.604	1029.234	780.887
48.242	13.545	1028.758	780.178
49.257	13.692	1027.193	779.617
50.271	13.604	1026.452	778.569
51.286	13.555	1025.963	777.899
52.301	13.692	1024.916	777.679
53.315	13.729	1024.121	777.181
54.330	13.579	1023.390	775.856
55.344	13.590	1022.282	774.999
56.359	13.609	1021.181	774.182
57.374	13.659	1020.253	773.645
58.388	13.585	1019.612	772.746
59.403	13.493	1018.972	771.762
60.417	13.521	1018.298	771.317
61.432	13.459	1017.520	770.367
62.447	13.458	1016.547	769.561
63.461	13.405	1015.594	768.522
64.476	13.375	1014.864	767.767
65.490	13.451	1013.898	767.317
66.505	13.468	1012.890	766.565
67.520	13.475	1012.358	766.127
68.534	13.511	1011.717	765.742
69.549	13.456	1010.535	764.523
70.563	13.563	1009.806	764.401
71.578	13.526	1009.171	763.681
72.593	13.464	1008.408	762.751
73.607	13.411	1007.421	761.693
74.622	13.499	1006.448	761.296
75.636	13.305	1005.357	759.510
76.651	13.439	1004.566	759.461
77.666	13.402	1003.844	758.678
78.680	13.437	1003.297	758.358
79.695	13.451	1002.855	758.023
80.709	13.570	1002.115	757.937
81.724	13.496	1001.239	756.872
82.739	13.602	1000.223	756.520
83.753	13.686	999.447	756.247
84.768	13.696	998.727	755.684
85.782	13.713	998.202	755.296
86.797	13.897	997.266	755.356
87.812	13.716	996.891	754.182
88.826	13.629	995.571	752.725
89.841	13.650	994.726	752.113
90.855	13.742	994.010	751.924
91.870	13.688	993.058	750.890
92.884	13.733	992.494	750.604
93.899	13.743	991.837	750.082
94.914	13.891	990.678	749.812
95.928	13.822	990.152	749.033
96.943	13.907	989.555	748.901
97.957	13.715	988.682	747.306
98.972	13.780	987.869	746.919
99.987	13.884	986.880	746.573
101.001	13.801	986.284	745.685
102.016	13.867	985.328	745.189
103.030	13.821	984.208	744.071
104.045	13.770	983.450	743.204
105.060	13.857	982.207	742.587
106.074	13.745	981.694	741.633
107.089	13.669	980.835	740.580
108.103	13.486	979.753	738.882
109.118	13.607	979.155	738.904
110.133	13.608	978.133	738.074
111.147	13.489	977.432	736.948
112.162	13.577	976.359	736.464
113.176	13.621	975.833	736.197
114.191	13.627	975.189	735.677
115.206	13.668	974.141	735.002
116.220	13.536	973.394	733.789
117.235	13.573	972.699	733.363
118.249	13.617	971.603	732.663
119.264	13.577	970.989	731.961
120.279	13.703	970.043	731.739
121.293	13.573	969.211	730.476
122.308	13.408	968.907	729.453
123.322	13.656	967.212	729.201
124.337	13.519	966.569	728.051
125.352	13.444	965.572	726.908
126.366	13.503	963.865	725.814
127.381	13.548	963.287	725.513
128.395	13.479	962.273	724.385
129.410	13.511	961.165	723.628
130.424	13.554	960.013	722.880
131.439	13.576	959.237	722.330
132.454	13.642	958.568	722.049
133.468	13.689	957.644	721.493
134.483	13.594	957.457	720.875
135.497	13.693	956.695	720.667
136.512	13.607	956.479	720.069
137.527	13.602	955.280	719.079
138.541	13.546	954.521	718.205
139.556	13.587	954.054	717.968
140.570	13.710	952.814	717.499
141.585	13.637	952.150	716.624
142.600	13.769	951.255	716.454
143.614	13.824	951.093	716.508
144.629	13.875	949.942	715.795
145.643	13.948	949.276	715.547
146.658	13.809	948.163	714.045
147.673	13.859	947.023	713.339
148.687	13.744	946.415	712.324
149.702	13.737	945.584	711.605
150.716	13.711	945.034	711.017
151.731	13.622	944.258	709.990
152.746	13.687	943.411	709.568
153.760	13.671	942.744	708.935
154.775	13.733	941.865	708.475
155.789	13.882	940.926	708.342
156.804	13.926	940.342	708.028
157.819	13.810	939.470	706.817
158.833	13.853	938.968	706.558
159.848	13.968	938.164	706.380
160.862	13.966	937.052	705.469
161.877	14.006	936.766	705.364
162.892	13.943	936.059	704.501
163.906	13.822	935.232	703.302
164.921	13.853	934.251	702.637
165.935	13.786	933.755	701.916
166.950	13.934	932.282	701.370
167.964	13.929	931.497	700.699
168.979	13.826	930.662	699.573
169.994	13.902	929.840	699.213
171.008	13.909	928.808	698.407
172.023	13.942	928.099	697.950
173.037	14.043	927.149	697.597
174.052	14.197	926.466	697.670
175.067	14.068	926.003	696.715
176.081	14.043	924.959	695.766
177.096	14.001	924.472	695.163
178.110	13.905	923.629	694.065
179.125	13.976	922.892	693.747
180.140	13.881	922.364	692.889
181.154	13.995	921.302	692.507
182.169	14.093	920.577	692.309
183.183	13.963	920.571	691.702
184.198	14.118	919.898	691.778
185.213	14.086	918.689	690.675
186.227	14.217	917.981	690.626
187.242	14.249	917.614	690.422
188.256	14.292	916.834	689.952
189.271	14.204	916.363	689.171
190.286	14.200	915.341	688.325
191.300	14.245	914.448	687.782
192.315	14.015	914.018	686.447
193.329	13.922	913.339	685.493
194.344	13.960	912.625	685.052
195.359	14.038	912.256	685.035
196.373	14.120	911.372	684.650
197.388	14.187	911.244	684.768
198.402	14.256	910.669	684.556
199.417	14.204	910.229	683.952
200.432	14.315	909.795	684.023
201.446	14.465	908.938	683.934
202.461	14.494	908.554	683.702
203.475	14.559	908.561	683.914
204.490	14.460	907.560	682.693
205.504	14.433	906.398	681.647
206.519	14.427	905.659	681.008
207.534	14.310	904.984	679.962
208.548	14.330	904.409	679.555
209.563	14.450	904.052	679.713
210.577	14.316	903.195	678.463
211.592	14.514	902.324	678.555
212.607	14.419	902.272	678.071
213.621	14.589	901.740	678.299
214.636	14.469	900.870	677.099
215.650	14.641	899.923	677.023
216.665	14.561	899.689	676.466
217.680	14.572	899.038	675.961
218.694	14.558	898.813	675.673
219.709	14.718	898.202	675.801
220.723	14.566	897.723	674.767
221.738	14.657	897.160	674.653
222.753	14.635	895.902	673.560
223.767	14.563	895.155	672.645
224.782	14.575	894.454	672.110
225.796	14.774	893.622	672.224
226.811	14.690	893.265	671.560
227.826	14.888	892.354	671.612
228.840	14.752	891.939	670.694
229.855	14.753	890.850	669.819
230.869	14.725	890.222	669.173
231.884	14.693	890.095	668.892
232.899	14.730	889.041	668.189
233.913	14.743	888.105	667.479
234.928	14.677	887.417	666.639
235.942	14.692	887.020	666.340
236.957	14.766	885.751	665.622
237.972	14.851	885.245	665.523
238.986	14.711	884.661	664.466
240.001	14.712	884.494	664.289
241.015	14.656	883.834	663.512
242.030	14.752	883.184	663.344
243.045	14.954	881.743	663.004
244.059	14.914	881.624	662.698
245.074	14.682	881.345	661.511
246.088	14.820	880.620	661.453
247.103	14.917	879.987	661.305
248.117	14.987	879.335	661.030
249.132	15.015	878.543	660.488
250.147	15.103	878.157	660.486
251.161	15.151	877.580	660.183
252.176	15.293	876.534	659.898
253.190	15.207	876.043	659.132
254.205	15.181	875.776	658.769
255.220	15.298	875.323	658.831
256.234	15.363	874.410	658.339
257.249	15.315	873.798	657.633
258.263	15.311	873.723	657.504
259.278	15.350	872.578	656.735
260.293	15.453	872.037	656.674
261.307	15.574	871.186	656.445
262.322	15.524	870.875	655.961
263.336	15.439	870.378	655.196
264.351	15.422	869.878	654.696
265.366	15.536	869.258	654.613
266.380	15.556	868.457	654.032
267.395	15.546	867.882	653.500
268.409	15.433	867.491	652.708
269.424	15.585	866.299	652.344
270.439	15.447	866.225	651.695
271.453	15.455	865.596	651.196
272.468	15.466	864.167	650.104
273.482	15.511	863.625	649.814
274.497	15.493	863.056	649.259
275.512	15.567	862.362	648.967
276.526	15.457	861.856	648.102
277.541	15.545	861.053	647.780
278.555	15.598	860.640	647.616
279.570	15.594	860.218	647.228
280.585	15.602	859.875	646.942
281.599	15.742	858.914	646.701
282.614	15.753	858.098	646.072
283.628	15.578	857.876	645.176
284.643	15.674	857.159	644.946
285.657	15.673	856.687	644.532
286.672	15.703	856.100	644.146
287.687	15.571	855.936	643.460
288.701	15.561	855.320	642.904
289.716	15.735	854.616	642.983
290.730	15.636	854.018	642.097
291.745	15.677	853.537	641.835
292.760	15.766	852.779	641.547
293.774	15.793	852.171	641.136
294.789	15.906	851.756	641.200
295.803	15.875	851.044	640.486
296.818	15.949	850.479	640.287
297.833	15.698	849.930	638.864
298.847	15.874	848.952	638.738
299.862	15.995	847.940	638.379
300.876	16.016	847.388	637.987
301.891	15.947	847.099	637.453
302.906	15.950	846.520	636.972
303.920	16.142	845.337	636.750
304.935	15.931	845.458	635.990
305.949	16.158	844.741	636.250
306.964	16.039	843.865	635.084
307.979	16.080	843.399	634.830
308.993	16.066	843.124	634.516
310.008	16.142	842.645	634.384
311.022	16.166	841.720	633.723
312.037	16.257	841.173	633.596
313.052	16.255	840.831	633.277
314.066	16.093	840.155	632.104
315.081	16.138	839.509	631.728
316.095	16.073	839.246	631.232
317.110	16.102	838.737	630.903
318.125	16.081	838.240	630.394
319.139	16.075	837.625	629.853
320.154	15.961	837.337	629.155
321.168	16.152	836.309	629.039
322.183	16.138	835.859	628.593
323.197	16.090	836.009	628.471
324.212	16.145	834.986	627.850
325.227	16.144	834.461	627.398
326.241	16.116	834.253	627.082
327.256	16.238	833.023	626.555
328.270	16.275	832.595	626.316
329.285	16.147	832.262	625.534
330.300	16.245	831.342	625.148
331.314	16.262	831.087	624.966
332.329	16.114	830.581	623.983
333.343	16.196	830.189	623.934
334.358	16.357	829.151	623.694
335.373	16.349	828.563	623.168
336.387	16.286	828.504	622.835
337.402	16.367	827.710	622.483
338.416	16.468	827.008	622.271
339.431	16.610	826.700	622.507
340.446	16.494	826.047	621.535
341.460	16.600	825.665	621.580
342.475	16.609	825.216	621.222
343.489	16.704	824.526	620.994
344.504	16.539	824.058	619.984
345.519	16.670	823.324	619.855
346.533	16.700	822.936	619.617
347.548	16.719	822.586	619.369
348.562	16.599	822.157	618.554
349.577	16.601	821.429	617.959
350.592	16.547	820.955	617.348
351.606	16.699	820.118	617.218
352.621	16.590	819.720	616.469
353.635	16.546	819.711	616.246
354.650	16.636	818.910	615.918
355.665	16.623	818.719	615.671
356.679	16.608	818.049	615.059
357.694	16.798	817.615	615.367
358.708	16.719	817.468	614.919
359.723	16.652	816.871	614.169
360.738	16.902	815.719	614.154
361.752	16.787	815.416	613.457
362.767	16.667	815.103	612.732
363.781	16.960	814.663	613.408
364.796	16.930	814.167	612.871
365.810	16.920	813.840	612.535
366.825	17.130	813.181	612.741
367.840	16.983	813.147	612.133
368.854	16.972	812.776	611.759
369.869	16.961	812.328	611.329
370.883	17.007	811.340	610.695
371.898	16.930	810.904	610.035
372.913	17.039	810.639	610.176
373.927	17.131	809.874	609.878
374.942	17.032	809.391	609.103
375.956	16.965	808.984	608.501
376.971	17.127	808.344	608.549
377.986	17.125	807.377	607.760
379.000	17.273	807.078	608.008
380.015	17.193	806.592	607.303
381.029	17.158	806.056	606.721
382.044	17.273	805.356	606.552
383.059	17.304	804.798	606.187
384.073	17.278	804.210	605.599
385.088	17.257	803.916	605.249
386.102	17.257	803.260	604.699
387.117	17.213	802.859	604.190
388.132	17.323	801.889	603.797
389.146	17.251	801.944	603.529
390.161	17.181	801.827	603.140
391.175	17.219	801.138	602.703
392.190	17.245	801.015	602.649
393.205	17.458	800.070	602.640
394.219	17.241	799.897	601.687
395.234	17.271	799.453	601.403
396.248	17.335	798.488	600.853
397.263	17.264	798.276	600.388
398.278	17.344	797.824	600.278
399.292	17.196	797.581	599.520
400.307	17.218	796.820	598.974
401.321	17.305	796.761	599.181
402.336	17.202	796.294	598.416
403.350	17.319	795.845	598.437
404.365	17.225	795.310	597.651
405.380	17.519	794.662	598.144
406.394	17.439	794.193	597.457
407.409	17.594	793.927	597.747
408.423	17.548	793.594	597.284
409.438	17.476	793.226	596.700
410.453	17.690	792.606	596.931
411.467	17.695	792.112	596.522
412.482	17.779	791.588	596.370
413.496	17.667	791.460	595.830
414.511	17.835	790.654	595.757
415.526	17.892	790.584	595.848
416.540	17.770	790.046	594.967
417.555	17.730	789.785	594.576
418.569	17.768	789.004	594.070
419.584	17.624	789.194	593.657
420.599	17.843	788.386	593.758
421.613	111.644	1293.328	1475.959
422.628	95.860	1366.885	1476.059
