DTS Sentinel unit serial number:	SN413079Multiplexer serial number:	ORYXHardware model number:	OX4-SRSoftware version number:	ORYX F/W v4.00 Oryx Data Collector v3.7.2.0data status	okinstallation	princeton_trtdifferential loss correction	single-endedforward channel	channel 3reverse channel	N/Adate	2019/09/13time	10:52:35forward acquisition time	60.00reverse acquisition time	0.00gamma	496.2192k internal	0.2319k external	0.2319temperature offset calibration	1.0145default loss term (dB/km)	0.3790temperature slope calibration	1.0000multiplexer offset coefficient	1.0000multiplexer slope coefficient	1.0000fibre end	0.00T internal ref (°C)	31.69T ext. ref 1 (°C)	4.61T ext. ref 2 (°C)	28.35length (m)	temperature (°C)	Stokes	anti-Stokes-747.200	161.502	-0.097	0.137
-746.185	-174.963	-0.228	-0.006
-745.171	-43.579	-0.178	-0.091
-744.156	-200.000	0.057	0.321
-743.142	800.000	0.073	0.221
-742.127	-46.058	0.154	-0.077
-741.112	-200.000	0.016	-0.105
-740.098	31.764	-0.202	0.176
-739.083	29.366	0.098	-0.084
-738.069	152.028	-0.339	0.468
-737.054	-4.689	-0.085	0.060
-736.039	-55.232	-0.134	-0.061
-735.025	-85.788	0.081	-0.025
-734.010	-200.000	-0.036	0.179
-732.996	86.092	0.117	0.130
-731.981	215.449	0.044	0.070
-730.966	-200.000	-0.071	-0.355
-729.952	584.074	-0.117	0.290
-728.937	105.373	-0.055	0.066
-727.923	212.508	0.101	-0.161
-726.908	-149.456	-0.163	0.013
-725.894	-200.000	0.003	0.103
-724.879	497.771	-0.051	0.119
-723.864	757.880	0.167	-0.457
-722.850	-35.070	-0.115	-0.063
-721.835	-200.000	0.003	-0.019
-720.821	-200.000	-0.195	0.000
-719.806	285.742	0.219	-0.399
-718.791	51.504	-0.201	-0.193
-717.777	261.423	-0.121	-0.212
-716.762	-136.398	-0.266	-0.031
-715.748	24.681	0.069	0.057
-714.733	-28.724	-0.288	0.167
-713.718	-200.000	0.009	0.175
-712.704	-177.106	0.210	-0.005
-711.689	337.216	0.072	0.141
-710.675	423.609	-0.079	-0.171
-709.660	-4.555	-0.224	0.156
-708.645	36.678	0.185	-0.165
-707.631	-200.000	0.030	-0.250
-706.616	-141.692	-0.097	-0.010
-705.602	800.000	0.053	-0.221
-704.587	-128.112	0.339	0.049
-703.572	-113.576	0.207	0.041
-702.558	38.941	0.109	0.098
-701.543	-49.380	-0.073	-0.035
-700.529	134.530	-0.200	0.262
-699.514	-122.396	0.217	0.036
-698.499	42.612	-0.146	-0.134
-697.485	53.437	0.284	-0.275
-696.470	125.772	0.066	0.084
-695.456	-4.973	-0.178	0.123
-694.441	208.508	-0.162	0.255
-693.426	-92.442	-0.323	-0.092
-692.412	-43.762	0.093	0.047
-691.397	603.730	0.084	-0.211
-690.383	-32.961	-0.191	-0.107
-689.368	747.288	-0.051	0.138
-688.354	-139.038	-0.108	-0.012
-687.339	88.007	-0.097	-0.109
-686.324	-11.770	-0.295	-0.195
-685.310	-143.676	-0.084	0.008
-684.295	-160.401	0.077	0.004
-683.281	-34.918	-0.143	-0.079
-682.266	-140.725	-0.156	-0.016
-681.251	154.780	0.249	-0.345
-680.237	118.604	0.014	-0.018
-679.222	-76.790	-0.172	0.061
-678.208	-132.531	-0.057	0.007
-677.193	-200.000	-0.008	0.065
-676.178	29.464	-0.089	0.076
-675.164	-200.000	0.011	0.093
-674.149	-12.468	-0.232	-0.153
-673.135	-51.305	0.184	0.087
-672.120	80.270	-0.167	-0.181
-671.105	-200.000	0.001	-0.631
-670.091	258.838	-0.204	-0.354
-669.076	-61.247	-0.237	0.101
-668.062	97.047	-0.128	0.148
-667.047	-43.209	-0.284	0.145
-666.032	478.415	-0.052	0.119
-665.018	-135.211	-0.297	-0.036
-664.003	95.281	-0.129	-0.148
-662.989	24.903	-0.229	-0.191
-661.974	-127.028	-0.119	0.018
-660.959	-200.000	0.060	-0.406
-659.945	36.519	0.141	-0.126
-658.930	-5.289	-0.330	0.228
-657.916	50.893	0.126	-0.121
-656.901	-200.000	-0.022	-0.264
-655.886	-200.000	0.049	0.219
-654.872	-87.410	-0.242	0.074
-653.857	-77.599	-0.101	0.035
-652.843	48.524	-0.261	-0.246
-651.828	-128.853	0.128	-0.018
-650.814	105.365	0.059	0.071
-649.799	-100.889	-0.172	-0.043
-648.784	-80.780	0.477	-0.160
-647.770	214.717	0.135	-0.216
-646.755	-200.000	-0.052	0.252
-645.741	-97.940	-0.191	0.050
-644.726	-52.689	-0.070	0.033
-643.711	113.374	0.137	0.168
-642.697	-141.013	0.207	-0.021
-641.682	-116.982	0.315	-0.058
-640.668	800.000	-0.137	0.422
-639.653	427.998	0.034	0.073
-638.638	800.000	0.033	0.113
-637.624	-12.072	0.107	0.071
-636.609	-108.656	0.322	-0.070
-635.595	245.830	0.164	-0.278
-634.580	-103.127	0.154	0.037
-633.565	800.000	-0.048	-0.212
-632.551	-89.087	0.050	0.015
-631.536	56.889	-0.072	0.071
-630.522	-200.000	-0.024	0.113
-629.507	-200.000	0.023	-0.122
-628.492	780.403	0.112	0.309
-627.478	800.000	0.081	-0.229
-626.463	800.000	-0.052	0.168
-625.449	-200.000	0.032	0.184
-624.434	-166.073	-0.296	-0.013
-623.419	244.267	-0.050	-0.085
-622.405	-200.000	-0.006	-0.033
-621.390	800.000	-0.129	0.374
-620.376	-108.497	0.179	-0.039
-619.361	-200.000	-0.056	-0.350
-618.346	-143.505	-0.263	-0.025
-617.332	-85.036	-0.105	-0.033
-616.317	-200.000	0.001	0.130
-615.303	800.000	0.055	0.156
-614.288	-143.387	-0.141	-0.014
-613.273	800.000	-0.075	-0.320
-612.259	77.861	0.144	-0.154
-611.244	-44.070	-0.165	0.083
-610.230	475.464	0.095	-0.217
-609.215	94.335	0.188	0.215
-608.201	27.968	0.009	0.008
-607.186	-24.294	-0.200	0.120
-606.171	434.066	0.057	0.124
-605.157	24.560	-0.036	0.030
-604.142	-49.355	-0.183	0.088
-603.128	-61.316	-0.191	-0.081
-602.113	800.000	0.032	-0.103
-601.098	141.193	-0.208	-0.276
-600.084	-7.216	-0.174	0.119
-599.069	-200.000	0.010	-0.243
-598.055	-125.070	-0.347	-0.054
-597.040	257.587	-0.270	0.467
-596.025	330.130	0.062	-0.120
-595.011	73.807	-0.269	0.284
-593.996	316.207	0.077	0.146
-592.982	-95.266	-0.354	-0.096
-591.967	140.498	0.114	0.151
-590.952	646.955	-0.036	-0.093
-589.938	-200.000	-0.039	0.383
-588.923	209.674	0.145	0.229
-587.909	-165.618	-0.447	-0.020
-586.894	-200.000	-0.030	-0.170
-585.879	-200.000	-0.008	0.044
-584.865	194.244	-0.080	0.122
-583.850	-88.728	0.283	-0.085
-582.836	-200.000	-0.017	0.138
-581.821	396.007	0.083	-0.175
-580.806	73.036	0.091	-0.096
-579.792	-67.817	-0.163	0.064
-578.777	20.378	0.112	0.091
-577.763	26.820	-0.290	-0.244
-576.748	800.000	-0.072	-0.253
-575.733	209.411	0.223	-0.352
-574.719	204.588	-0.230	-0.358
-573.704	-69.633	0.288	-0.111
-572.690	232.626	0.028	0.046
-571.675	-200.000	-0.010	0.091
-570.661	221.740	-0.019	0.031
-569.646	-200.000	-0.030	-0.268
-568.631	237.533	0.271	-0.452
-567.617	800.000	-0.037	0.104
-566.602	510.589	0.064	-0.150
-565.588	-200.000	-0.019	-0.155
-564.573	-94.119	-0.216	-0.059
-563.558	-200.000	-0.012	0.128
-562.544	130.203	-0.183	0.236
-561.529	18.703	0.101	0.081
-560.515	800.000	-0.075	-0.292
-559.500	567.419	0.051	-0.125
-558.485	123.885	-0.088	-0.111
-557.471	551.979	0.015	-0.037
-556.456	-149.230	-0.125	-0.010
-555.442	90.464	-0.171	-0.193
-554.427	66.719	0.051	0.052
-553.412	-200.000	0.014	0.065
-552.398	-57.944	0.033	0.014
-551.383	-65.902	0.031	-0.012
-550.369	-158.421	0.510	0.030
-549.354	-46.902	0.338	-0.166
-548.339	-200.000	0.010	-0.122
-547.325	800.000	-0.035	-0.136
-546.310	281.228	-0.096	-0.173
-545.296	3.199	0.085	0.062
-544.281	-5.115	0.181	0.125
-543.266	-200.000	0.015	-0.257
-542.252	515.169	0.141	0.330
-541.237	543.490	-0.116	-0.278
-540.223	515.230	-0.078	-0.182
-539.208	770.164	-0.026	0.071
-538.193	-92.766	-0.157	0.044
-537.179	-33.581	0.104	0.058
-536.164	61.273	0.050	-0.050
-535.150	48.113	-0.215	0.202
-534.135	53.705	0.117	-0.113
-533.121	-99.978	0.346	0.087
-532.106	-200.000	-0.037	-0.259
-531.091	16.419	0.033	0.026
-530.077	-200.000	-0.021	0.349
-529.062	-105.316	-0.214	-0.049
-528.048	-158.635	0.138	-0.008
-527.033	-200.000	-0.025	-0.178
-526.018	-68.377	0.171	0.067
-525.004	-3.014	0.207	-0.145
-523.989	-200.000	0.015	-0.068
-522.975	152.463	-0.295	0.404
-521.960	-1.235	0.217	-0.154
-520.945	800.000	0.016	-0.066
-519.931	-171.955	0.397	0.013
-518.916	-112.204	-0.302	0.061
-517.902	-109.287	-0.082	0.017
-516.887	-167.958	0.176	-0.007
-515.872	800.000	-0.021	0.065
-514.858	-7.280	0.132	-0.089
-513.843	70.076	0.136	-0.141
-512.829	478.054	-0.047	-0.106
-511.814	107.060	0.077	0.092
-510.799	64.239	0.360	-0.363
-509.785	312.507	-0.092	-0.173
-508.770	-52.737	-0.122	-0.056
-507.756	425.836	-0.149	0.322
-506.741	-200.000	0.043	0.335
-505.726	-200.000	0.005	0.051
-504.712	-59.678	-0.206	0.088
-503.697	-95.423	0.213	-0.057
-502.683	-52.649	0.113	0.052
-501.668	-200.000	0.014	0.427
-500.653	-116.369	-0.155	-0.029
-499.639	317.246	0.115	-0.218
-498.624	-88.943	-0.058	0.017
-497.610	800.000	-0.041	0.176
-496.595	175.690	-0.272	0.395
-495.581	121.070	-0.256	0.319
-494.566	-25.761	-0.221	-0.130
-493.551	-70.413	-0.576	-0.219
-492.537	-163.255	0.239	-0.011
-491.522	-18.904	0.113	-0.071
-490.508	800.000	-0.082	0.255
-489.493	15.307	0.124	0.098
-488.478	-200.000	-0.068	-0.368
-487.464	-200.000	-0.011	0.134
-486.449	-117.488	-0.324	0.059
-485.435	-200.000	-0.004	-0.304
-484.420	-178.532	-0.522	-0.012
-483.405	-163.549	0.242	0.011
-482.391	-6.029	0.100	-0.068
-481.376	-200.000	0.026	-0.265
-480.362	-21.518	0.009	0.006
-479.347	-77.624	0.243	0.084
-478.332	800.000	0.045	-0.165
-477.318	143.230	-0.119	0.158
-476.303	-200.000	-0.013	0.161
-475.289	11.026	-0.314	-0.241
-474.274	544.731	-0.048	0.116
-473.259	189.897	-0.127	0.191
-472.245	-16.392	0.065	-0.041
-471.230	800.000	-0.057	0.188
-470.216	279.370	0.050	0.090
-469.201	-98.648	0.469	0.120
-468.186	88.929	-0.130	0.144
-467.172	-153.654	0.240	-0.017
-466.157	-24.297	-0.404	-0.241
-465.143	31.327	0.019	-0.016
-464.128	-200.000	0.002	0.028
-463.113	-200.000	0.001	-0.142
-462.099	-69.125	-0.073	0.028
-461.084	-75.053	0.185	-0.066
-460.070	-131.884	-0.172	-0.022
-459.055	800.000	-0.039	0.135
-458.040	-155.242	-0.276	0.018
-457.026	-74.464	0.457	-0.165
-456.011	-43.648	-0.034	-0.017
-454.997	-200.000	-0.065	-0.311
-453.982	-167.577	0.608	0.024
-452.968	-21.907	0.040	0.025
-451.953	34.191	0.128	-0.112
-450.938	397.209	0.110	-0.231
-449.924	67.062	0.235	-0.240
-448.909	800.000	0.040	-0.164
-447.895	53.272	0.137	0.131
-446.880	9.239	0.364	0.275
-445.865	154.199	-0.066	-0.091
-444.851	115.046	0.252	0.308
-443.836	800.000	0.009	-0.029
-442.822	-200.000	0.031	-0.255
-441.807	267.421	0.164	-0.287
-440.792	90.784	0.219	-0.246
-439.778	-55.808	-0.227	-0.101
-438.763	9.132	0.119	0.090
-437.749	-200.000	0.008	-0.051
-436.734	396.878	0.083	-0.172
-435.719	535.843	0.116	0.275
-434.705	-140.224	0.264	0.028
-433.690	214.803	0.149	-0.236
-432.676	-96.946	-0.301	0.079
-431.661	-35.258	0.179	0.097
-430.646	-81.336	-0.150	0.049
-429.632	-110.146	0.147	-0.031
-428.617	800.000	0.080	0.342
-427.603	800.000	0.058	0.183
-426.588	-74.052	-0.289	0.105
-425.573	-64.276	-0.215	0.088
-424.559	100.419	0.074	-0.086
-423.544	-200.000	-0.238	-0.001
-422.530	73.733	0.090	0.094
-421.515	-55.385	-0.476	-0.214
-420.500	800.000	-0.034	0.110
-419.486	67.030	0.087	-0.088
-418.471	-132.423	-0.122	-0.016
-417.457	-1.589	0.158	-0.111
-416.442	116.476	-0.064	-0.078
-415.428	111.119	0.155	-0.187
-414.413	159.361	-0.205	0.285
-413.398	-109.199	0.084	-0.018
-412.384	-200.000	0.026	0.526
-411.369	-34.422	-0.297	-0.163
-410.355	76.214	0.061	0.064
-409.340	707.367	0.025	-0.067
-408.325	315.959	-0.115	0.216
-407.311	-33.653	0.246	-0.135
-406.296	-200.000	-0.011	-0.081
-405.282	-200.000	0.012	0.176
-404.267	732.546	0.112	-0.299
-403.252	-200.000	-0.078	-0.548
-402.238	127.268	0.142	-0.180
-401.223	120.350	0.172	-0.214
-400.209	-45.668	0.193	0.095
-399.194	-181.126	0.116	-0.002
-398.179	-89.643	-0.046	0.013
-397.165	491.598	-0.066	0.150
-396.150	-142.041	-0.263	0.026
-395.136	35.852	0.147	0.129
-394.121	15.146	-0.314	0.246
-393.106	169.314	-0.054	-0.077
-392.092	257.858	-0.181	0.311
-391.077	-179.573	-0.181	-0.004
-390.063	-69.965	-0.174	-0.066
-389.048	-200.000	0.012	-0.285
-388.033	800.000	0.088	0.256
-387.019	-80.707	0.141	-0.047
-386.004	-100.732	-0.057	0.014
-384.990	-112.656	0.093	0.018
-383.975	-34.874	-0.239	-0.130
-382.960	25.175	-0.177	0.146
-381.946	424.033	-0.042	0.089
-380.931	800.000	0.130	-0.384
-379.917	-77.795	-0.170	-0.059
-378.902	800.000	-0.063	0.208
-377.888	-135.549	0.183	-0.022
-376.873	-113.339	0.133	-0.026
-375.858	-200.000	0.012	-0.198
-374.844	95.340	0.175	0.199
-373.829	800.000	-0.059	0.167
-372.815	92.590	-0.116	-0.130
-371.800	-120.182	0.306	0.052
-370.785	-53.388	-0.300	0.137
-369.771	31.657	0.193	-0.165
-368.756	-80.019	-0.220	0.074
-367.742	800.000	-0.026	-0.085
-366.727	-187.779	-0.233	0.003
-365.712	-47.269	-0.148	0.072
-364.698	-151.169	0.096	-0.007
-363.683	226.248	-0.202	0.326
-362.669	-148.293	0.402	-0.033
-361.654	-44.552	0.184	0.092
-360.639	52.361	-0.165	0.157
-359.625	-62.276	0.053	-0.022
-358.610	-79.786	-0.151	-0.051
-357.596	800.000	0.079	-0.254
-356.581	-200.000	0.061	-0.521
-355.566	-49.797	0.151	-0.072
-354.552	800.000	-0.060	0.189
-353.537	-106.580	-0.155	0.034
-352.523	65.482	0.201	0.202
-351.508	-54.813	-0.122	-0.055
-350.493	-49.933	0.179	0.085
-349.479	-200.000	0.011	0.374
-348.464	-43.226	0.343	0.173
-347.450	103.581	0.162	0.190
-346.435	800.000	-0.022	0.073
-345.420	91.934	0.069	-0.077
-344.406	-106.638	0.311	0.069
-343.391	-10.276	-0.330	0.218
-342.377	34.294	-0.257	-0.223
-341.362	255.603	-0.157	-0.268
-340.348	-200.000	-0.001	-0.154
-339.333	-200.000	0.020	0.279
-338.318	260.616	-0.148	0.254
-337.304	-37.756	0.207	-0.110
-336.289	45.390	0.186	-0.170
-335.275	238.818	0.145	0.240
-334.260	800.000	0.059	-0.226
-333.245	-200.000	0.020	-0.317
-332.231	-71.756	-0.147	-0.055
-331.216	441.587	-0.055	0.121
-330.202	406.336	-0.128	0.269
-329.187	800.000	-0.048	0.134
-328.172	-77.201	-0.292	-0.101
-327.158	22.976	0.035	0.029
-326.143	-82.895	-0.035	0.011
-325.129	-164.637	0.246	-0.011
-324.114	-3.814	-0.270	0.186
-323.099	-41.929	0.237	-0.121
-322.085	133.932	0.158	-0.204
-321.070	-200.000	0.025	-0.266
-320.056	-200.000	-0.003	0.147
-319.041	-92.299	-0.399	0.112
-318.026	672.529	0.043	0.110
-317.012	-57.534	0.202	0.088
-315.997	210.070	-0.122	-0.191
-314.983	427.898	-0.096	-0.207
-313.968	500.553	-0.024	0.055
-312.953	384.678	0.076	0.156
-311.939	-166.740	0.124	-0.005
-310.924	14.065	-0.226	0.175
-309.910	220.599	0.147	0.234
-308.895	50.200	0.081	-0.076
-307.880	146.941	-0.243	-0.325
-306.866	115.964	-0.086	0.105
-305.851	60.360	-0.098	-0.097
-304.837	422.478	-0.018	0.039
-303.822	242.410	-0.091	0.151
-302.807	-108.736	-0.098	0.021
-301.793	69.830	-0.056	0.057
-300.778	-69.793	0.263	0.100
-299.764	349.984	-0.036	0.070
-298.749	-23.655	0.240	0.143
-297.735	137.152	-0.161	0.210
-296.720	-172.789	0.223	-0.007
-295.705	800.000	-0.086	0.258
-294.691	11.786	-0.083	0.064
-293.676	47.285	-0.179	0.166
-292.662	-78.348	-0.103	-0.035
-291.647	-12.934	0.284	-0.184
-290.632	188.179	-0.114	0.170
-289.618	110.210	0.045	0.053
-288.603	39.404	0.032	0.028
-287.589	-14.599	0.133	0.085
-286.574	-200.000	-0.045	-0.353
-285.559	-29.040	-0.120	0.069
-284.545	-111.055	-0.110	-0.023
-283.530	340.315	0.040	0.078
-282.516	-200.000	0.009	0.041
-281.501	152.470	0.176	-0.238
-280.486	-200.000	0.001	0.099
-279.472	-200.000	-0.046	-0.216
-278.457	-42.138	-0.131	-0.066
-277.443	-50.120	0.128	0.060
-276.428	-65.754	0.413	-0.164
-275.413	153.438	-0.099	0.135
-274.399	158.648	-0.113	0.155
-273.384	-103.245	-0.082	0.019
-272.370	579.253	0.080	-0.195
-271.355	49.712	0.158	0.148
-270.340	-131.287	-0.116	-0.015
-269.326	-200.000	0.027	0.136
-268.311	-44.993	0.069	-0.034
-267.297	22.709	0.347	-0.282
-266.282	-41.597	0.070	-0.036
-265.267	69.705	0.079	0.081
-264.253	400.874	-0.071	-0.148
-263.238	-110.145	-0.293	0.061
-262.224	393.724	0.075	0.154
-261.209	800.000	0.057	-0.217
-260.195	800.000	0.125	-0.477
-259.180	-200.000	0.039	0.202
-258.165	-200.000	0.015	0.166
-257.151	17.785	0.198	0.156
-256.136	-114.235	-0.208	0.040
-255.122	800.000	-0.043	0.177
-254.107	-111.852	0.624	0.125
-253.092	-167.789	-0.131	-0.005
-252.078	-54.912	-0.124	-0.056
-251.063	-27.702	-0.132	-0.076
-250.049	-104.078	-0.169	-0.039
-249.034	-47.255	-0.393	-0.190
-248.019	88.444	-0.093	-0.103
-247.005	72.641	-0.116	0.120
-245.990	-200.000	0.035	-0.174
-244.976	109.914	0.112	-0.133
-243.961	309.373	-0.060	0.110
-242.946	73.764	0.206	0.214
-241.932	69.447	0.108	0.111
-240.917	-200.000	0.028	-0.187
-239.903	386.655	-0.231	-0.473
-238.888	800.000	-0.104	-0.412
-237.873	408.416	0.097	-0.203
-236.859	800.000	0.083	0.302
-235.844	-100.365	0.088	-0.022
-234.830	-93.498	0.229	-0.063
-233.815	-200.000	0.049	0.226
-232.800	-134.618	0.324	-0.039
-231.786	-200.000	-0.031	-0.295
-230.771	242.833	-0.147	-0.244
-229.757	142.024	0.257	-0.337
-228.742	-36.183	0.259	0.139
-227.727	43.967	-0.346	0.314
-226.713	-20.579	0.164	0.100
-225.698	17.246	-0.323	0.254
-224.684	-200.000	0.045	0.285
-223.669	-200.000	0.001	0.132
-222.655	-76.140	0.132	0.046
-221.640	-80.038	0.286	-0.095
-220.625	413.505	0.057	-0.119
-219.611	-18.847	-0.043	-0.027
-218.596	32.393	-0.114	-0.097
-217.582	-18.627	0.206	-0.127
-216.567	800.000	0.035	-0.108
-215.552	105.624	-0.178	0.209
-214.538	-0.555	-0.153	0.108
-213.523	-114.450	-0.199	0.038
-212.509	-78.880	0.169	-0.057
-211.494	31.763	-0.204	0.174
-210.479	-200.000	-0.035	-0.290
-209.465	-180.932	0.184	-0.004
-208.450	-50.253	-0.108	-0.051
-207.436	800.000	-0.078	0.281
-206.421	70.423	-0.207	0.212
-205.406	-53.354	-0.419	-0.190
-204.392	368.304	-0.091	0.183
-203.377	-42.217	0.021	0.011
-202.363	-105.665	-0.069	-0.015
-201.348	178.677	-0.183	0.265
-200.333	280.081	0.087	0.155
-199.319	-200.000	-0.033	-0.226
-198.304	332.709	-0.095	0.181
-197.290	-18.434	-0.076	0.047
-196.275	-200.000	0.023	0.120
-195.260	40.904	0.070	0.063
-194.246	132.147	0.055	0.070
-193.231	557.117	-0.061	-0.147
-192.217	800.000	0.076	0.230
-191.202	-16.241	0.230	-0.144
-190.187	24.208	-0.058	0.048
-189.173	-200.000	0.011	0.169
-188.158	5.760	-0.440	-0.322
-187.144	-118.606	0.272	0.048
-186.129	-149.345	-0.415	0.033
-185.114	626.353	0.045	0.114
-184.100	-148.348	0.201	0.016
-183.085	-200.000	0.089	-0.386
-182.071	10.238	0.221	-0.166
-181.056	-200.000	0.019	0.275
-180.042	-40.524	0.373	-0.192
-179.027	-42.594	-0.191	0.096
-178.012	-47.176	-0.206	-0.100
-176.998	-102.846	0.325	-0.076
-175.983	-200.000	0.026	-0.328
-174.969	-194.365	-0.219	-0.002
-173.954	359.596	0.082	0.161
-172.939	-30.288	-0.220	-0.123
-171.925	630.198	-0.136	0.341
-170.910	230.161	-0.175	-0.284
-169.896	38.189	0.305	0.268
-168.881	-34.952	-0.263	0.142
-167.866	-115.493	0.272	-0.051
-166.852	-32.928	0.183	-0.101
-165.837	-200.000	0.029	-0.137
-164.823	-127.955	-0.101	0.014
-163.808	789.227	0.116	0.316
-162.793	800.000	0.059	-0.197
-161.779	189.684	-0.044	0.065
-160.764	-145.177	-0.246	-0.022
-159.750	320.813	0.042	0.080
-158.735	-25.758	0.353	-0.206
-157.720	88.487	0.120	0.131
-156.706	56.079	-0.155	0.149
-155.691	240.153	-0.022	-0.036
-154.677	-38.331	-0.231	0.121
-153.662	-87.839	-0.247	-0.074
-152.647	-88.110	-0.171	0.051
-151.633	800.000	-0.057	0.169
-150.618	393.078	0.108	-0.223
-149.604	-120.240	0.236	0.040
-148.589	-200.000	-0.017	-0.364
-147.574	-200.000	0.033	0.231
-146.560	24.285	0.058	0.047
-145.545	578.930	0.202	-0.489
-144.531	-162.530	0.147	0.007
-143.516	-121.888	0.052	0.009
-142.502	-7.330	0.230	0.154
-141.487	-200.000	0.041	0.199
-140.472	20.609	-0.219	-0.175
-139.458	-200.000	-0.059	-0.381
-138.443	-200.000	0.007	-0.117
-137.429	376.451	-0.040	0.081
-136.414	-38.720	-0.063	-0.033
-135.399	-200.000	0.025	-0.130
-134.385	148.300	0.199	0.265
-133.370	393.775	0.051	-0.104
-132.356	800.000	0.031	-0.131
-131.341	13.338	0.174	-0.134
-130.326	58.645	0.200	0.194
-129.312	-200.000	0.007	0.057
-128.297	-77.073	0.133	0.046
-127.283	5.658	0.185	-0.135
-126.268	800.000	-0.081	-0.276
-125.253	-200.000	-0.031	-0.213
-124.239	147.229	-0.263	-0.349
-123.224	800.000	0.054	0.171
-122.210	-110.231	0.281	0.058
-121.195	-200.000	-0.040	0.261
-120.180	-200.000	0.014	0.080
-119.166	37.205	0.190	-0.166
-118.151	-55.018	0.104	-0.046
-117.137	800.000	0.026	-0.086
-116.122	800.000	0.092	-0.324
-115.107	-109.247	-0.042	0.009
-114.093	119.541	0.173	-0.211
-113.078	16.058	-0.082	-0.064
-112.064	38.846	0.159	-0.140
-111.049	-47.470	-0.425	-0.204
-110.034	4.518	0.331	-0.240
-109.020	-154.278	-0.380	-0.025
-108.005	25.109	0.032	0.026
-106.991	-162.350	0.147	0.007
-105.976	213.597	-0.189	-0.294
-104.962	-34.861	-0.315	0.170
-103.947	-131.816	-0.676	-0.087
-102.932	46.232	0.257	0.235
-101.918	-100.643	0.107	0.026
-100.903	-29.733	-0.223	0.125
-99.889	-84.017	0.291	-0.091
-98.874	-200.000	0.015	-0.087
-97.859	-62.608	0.152	-0.062
-96.845	71.681	0.227	0.233
-95.830	-56.980	0.158	-0.069
-94.816	-116.974	0.115	0.021
-93.801	569.785	0.111	0.267
-92.786	108.810	0.413	0.487
-91.772	800.000	-0.114	-0.391
-90.757	800.000	-0.092	0.290
-89.743	-34.963	0.335	-0.180
-88.728	57.021	-0.036	0.035
-87.713	800.000	-0.018	0.061
-86.699	-16.516	0.016	-0.010
-85.684	-10.703	0.134	-0.087
-84.670	-149.954	0.140	0.011
-83.655	800.000	0.062	0.182
-82.640	800.000	0.051	-0.199
-81.626	-64.029	0.210	0.085
-80.611	322.625	0.177	0.333
-79.597	568.662	-0.015	0.036
-78.582	-7.142	-0.156	0.104
-77.567	-200.000	-0.043	-0.235
-76.553	-91.508	0.188	-0.053
-75.538	-106.151	-0.126	0.028
-74.524	405.022	0.060	0.125
-73.509	78.312	0.301	-0.316
-72.494	168.193	-0.239	-0.335
-71.480	49.639	0.115	0.106
-70.465	389.210	-0.059	0.121
-69.451	167.884	0.091	-0.127
-68.436	-200.000	-0.021	0.167
-67.422	-141.843	0.273	0.027
-66.407	-35.037	0.171	0.092
-65.392	-200.000	0.049	0.552
-64.378	242.078	-0.105	0.174
-63.363	-45.674	-0.092	0.045
-62.349	2.024	0.208	0.148
-61.334	57.249	-0.849	-0.816
-60.319	175.806	0.260	0.371
-59.305	800.000	-0.307	-0.846
-58.290	220.824	0.796	1.258
-57.276	406.431	0.820	1.705
-56.261	-200.000	95.494	599.943
-55.246	641.386	1394.729	3498.255
-54.232	192.053	2587.407	3842.412
-53.217	118.726	2188.179	2661.473
-52.203	42.615	1725.753	1546.847
-51.188	34.829	1537.532	1324.408
-50.173	32.500	1510.898	1285.530
-49.159	52.499	1559.287	1465.741
-48.144	53.908	1577.050	1492.139
-47.130	35.072	1537.340	1325.716
-46.115	31.922	1522.644	1291.341
-45.100	31.850	1518.995	1287.699
-44.086	31.766	1517.064	1285.434
-43.071	31.735	1515.417	1283.780
-42.057	31.688	1513.856	1282.083
-41.042	31.735	1512.128	1280.891
-40.027	31.715	1511.155	1279.882
-39.013	31.643	1509.503	1277.935
-37.998	31.646	1507.441	1276.161
-36.984	31.670	1506.815	1275.747
-35.969	31.730	1505.223	1274.757
-34.954	31.754	1504.013	1273.842
-33.940	31.730	1502.124	1272.026
-32.925	31.748	1500.643	1270.845
-31.911	31.748	1499.813	1270.095
-30.896	31.763	1498.406	1268.955
-29.881	31.879	1496.807	1268.330
-28.867	31.833	1495.315	1266.704
-27.852	31.825	1493.946	1265.441
-26.838	31.800	1492.375	1263.893
-25.823	31.758	1490.846	1262.268
-24.809	31.726	1489.515	1260.876
-23.794	31.657	1488.028	1259.104
-22.779	31.669	1486.865	1258.144
-21.765	31.743	1485.853	1257.737
-20.750	31.755	1484.710	1256.798
-19.736	31.733	1483.626	1255.686
-18.721	31.704	1482.489	1254.480
-17.706	31.712	1481.909	1253.992
-16.692	31.656	1480.361	1252.256
-15.677	31.571	1479.605	1251.000
-14.663	31.605	1478.314	1250.089
-13.648	31.653	1477.314	1249.513
-12.633	31.681	1476.274	1248.772
-11.619	31.546	1475.980	1247.574
-10.604	31.613	1474.584	1246.786
-9.590	31.580	1474.239	1246.226
-8.575	31.663	1473.207	1245.859
-7.560	31.676	1472.018	1244.891
-6.546	31.572	1471.252	1243.500
-5.531	31.555	1470.885	1243.028
-4.517	31.617	1469.131	1241.906
-3.502	31.652	1468.113	1241.230
-2.487	31.546	1466.704	1239.289
-1.473	31.602	1466.158	1239.150
-0.458	31.556	1464.832	1237.676
0.556	33.583	1455.760	1227.417
1.571	30.759	1428.295	1186.183
2.586	26.920	1365.891	1110.809
3.600	25.118	1282.765	1032.746
4.615	23.183	1236.781	984.878
5.629	19.692	1180.087	921.076
6.644	11.945	1095.560	816.553
7.659	5.751	1055.359	756.694
8.673	4.887	1049.660	748.390
9.688	4.627	1046.567	744.876
10.702	4.414	1045.010	742.684
11.717	4.533	1043.373	742.025
12.731	7.451	1046.161	757.894
13.746	15.551	1057.271	804.835
14.761	21.298	1064.585	837.976
15.775	22.136	1064.720	842.023
16.790	21.557	1063.212	837.988
17.804	20.556	1061.165	831.510
18.819	19.684	1059.319	825.829
19.834	19.415	1057.741	823.239
20.848	19.291	1057.061	822.048
21.863	19.114	1056.757	820.893
22.877	18.976	1055.887	819.488
23.892	18.961	1054.242	818.068
24.907	18.790	1053.670	816.737
25.921	18.796	1053.295	816.403
26.936	18.638	1052.721	815.137
27.950	18.614	1051.849	814.274
28.965	18.569	1051.092	813.402
29.980	18.709	1049.582	812.824
30.994	18.956	1048.565	813.134
32.009	19.000	1047.775	812.659
33.023	19.105	1047.180	812.622
34.038	19.155	1046.070	811.921
35.053	18.976	1045.609	810.647
36.067	18.920	1044.162	809.191
37.082	18.721	1043.297	807.513
38.096	18.803	1042.332	807.081
39.111	18.912	1042.495	807.646
40.126	19.034	1041.065	807.039
41.140	18.859	1040.540	805.743
42.155	18.658	1038.654	803.269
43.169	18.266	1038.137	800.963
44.184	18.386	1036.242	799.994
45.199	18.228	1035.552	798.653
46.213	18.354	1034.431	798.301
47.228	18.484	1033.755	798.316
48.242	18.652	1033.121	798.540
49.257	18.899	1032.211	798.912
50.271	18.809	1031.174	797.622
51.286	18.728	1030.428	796.596
52.301	18.830	1029.619	796.376
53.315	18.848	1028.905	795.834
54.330	18.790	1027.862	794.690
55.344	18.738	1026.931	793.659
56.359	18.600	1025.821	792.094
57.374	18.437	1025.707	791.185
58.388	18.553	1024.165	790.459
59.403	18.351	1023.612	789.031
60.417	18.232	1022.529	787.580
61.432	18.306	1022.090	787.510
62.447	18.285	1021.259	786.707
63.461	18.128	1020.666	785.459
64.476	18.237	1019.266	784.811
65.490	18.088	1018.580	783.529
66.505	17.976	1018.081	782.565
67.520	18.177	1017.169	782.712
68.534	18.230	1016.244	782.173
69.549	18.111	1015.898	781.294
70.563	18.166	1015.061	780.833
71.578	18.133	1014.383	780.093
72.593	18.096	1013.280	779.006
73.607	18.005	1012.407	777.852
74.622	17.853	1011.438	776.347
75.636	17.973	1010.673	776.238
76.651	18.025	1009.865	775.783
77.666	18.037	1009.107	775.189
78.680	18.012	1008.540	774.570
79.695	18.168	1008.132	774.896
80.709	18.003	1007.456	773.559
81.724	18.213	1006.736	773.887
82.739	18.432	1006.022	774.260
83.753	18.502	1005.125	773.819
84.768	18.573	1004.767	773.793
85.782	18.896	1004.458	774.946
86.797	19.122	1003.799	775.387
87.812	19.009	1003.435	774.529
88.826	18.946	1001.795	772.910
89.841	18.808	1001.122	771.701
90.855	18.915	1000.016	771.260
91.870	19.030	999.620	771.405
92.884	18.921	999.223	770.540
93.899	19.035	998.121	770.132
94.914	19.068	997.031	769.370
95.928	19.010	996.862	768.914
96.943	19.292	995.307	768.904
97.957	19.004	995.021	767.332
98.972	18.865	994.025	765.873
99.987	18.995	993.275	765.808
101.001	19.049	992.216	765.165
102.016	18.958	991.410	764.069
103.030	18.954	990.856	763.556
104.045	18.964	990.156	762.996
105.060	18.982	989.251	762.311
106.074	18.910	988.054	761.002
107.089	18.533	987.269	758.661
108.103	18.398	985.833	756.896
109.118	18.279	984.867	755.561
110.133	18.169	984.144	754.453
111.147	18.202	983.359	753.931
112.162	18.097	982.529	752.766
113.176	18.205	981.578	752.445
114.191	18.331	980.226	751.895
115.206	18.436	980.313	752.356
116.220	18.482	979.234	751.663
117.235	18.418	978.249	750.562
118.249	18.354	977.232	749.434
119.264	18.275	976.773	748.672
120.279	18.247	975.706	747.664
121.293	18.192	975.001	746.817
122.308	18.092	974.681	746.072
123.322	17.994	973.646	744.783
124.337	18.005	972.626	743.987
125.352	17.996	971.264	742.841
126.366	17.982	970.495	742.124
127.381	18.086	969.000	741.369
128.395	17.927	968.450	740.192
129.410	17.987	967.688	739.805
130.424	18.127	966.496	739.434
131.439	18.248	965.408	739.059
132.454	18.209	965.186	738.654
133.468	18.468	964.151	738.914
134.483	18.494	963.551	738.499
135.497	18.401	963.015	737.622
136.512	18.462	962.422	737.365
137.527	18.533	961.236	736.700
138.541	18.424	960.636	735.707
139.556	18.453	960.262	735.477
140.570	18.441	959.479	734.762
141.585	18.587	959.157	735.074
142.600	18.711	958.206	734.814
143.614	19.019	957.080	735.203
144.629	18.967	956.608	734.549
145.643	19.020	955.745	734.049
146.658	19.005	955.084	733.415
147.673	18.773	954.034	731.553
148.687	18.628	953.338	730.338
149.702	18.504	952.196	728.872
150.716	18.336	951.396	727.481
151.731	18.472	950.045	726.962
152.746	18.347	949.734	726.129
153.760	18.634	948.702	726.492
154.775	18.568	948.026	725.627
155.789	18.771	946.969	725.615
156.804	18.757	946.469	725.107
157.819	18.834	945.801	724.855
158.833	18.753	945.627	724.318
159.848	18.855	944.888	724.116
160.862	18.963	944.147	723.938
161.877	18.854	943.514	722.932
162.892	18.812	941.493	721.144
163.906	18.477	941.160	719.418
164.921	18.373	940.512	718.421
165.935	18.576	939.245	718.243
166.950	18.777	937.819	717.927
167.964	18.652	937.569	717.151
168.979	18.691	936.450	716.393
169.994	18.520	935.682	715.030
171.008	18.571	934.240	714.078
172.023	18.635	933.850	713.982
173.037	18.822	933.547	714.466
174.052	18.914	932.903	714.291
175.067	19.131	931.630	714.153
176.081	18.640	931.104	711.652
177.096	18.464	930.005	710.017
178.110	18.553	928.717	709.341
179.125	18.562	928.476	709.131
180.140	18.421	928.113	708.210
181.154	18.686	927.055	708.433
182.169	18.701	926.689	708.150
183.183	19.006	925.975	708.799
184.198	18.962	925.611	708.278
185.213	18.983	924.851	707.719
186.227	18.971	924.001	706.960
187.242	18.936	924.000	706.753
188.256	19.044	923.211	706.528
189.271	19.151	922.803	706.592
190.286	19.277	922.032	706.456
191.300	19.047	921.116	704.749
192.315	18.544	919.872	701.677
193.329	18.266	918.797	699.658
194.344	18.468	917.948	699.777
195.359	18.499	917.684	699.640
196.373	18.713	917.186	700.071
197.388	18.811	917.072	700.321
198.402	19.066	916.409	700.792
199.417	19.185	916.100	700.980
200.432	19.310	915.697	701.117
201.446	19.362	915.514	701.124
202.461	19.448	915.162	701.143
203.475	19.508	914.915	701.135
204.490	19.633	913.668	700.627
205.504	19.340	913.045	698.899
206.519	19.204	911.795	697.328
207.534	19.131	910.966	696.338
208.548	19.155	910.072	695.690
209.563	19.116	909.868	695.316
210.577	19.067	909.259	694.588
211.592	19.069	908.648	694.072
212.607	19.268	908.041	694.348
213.621	19.416	907.870	694.749
214.636	19.411	907.402	694.308
215.650	19.320	906.626	693.288
216.665	19.395	905.840	692.929
217.680	19.414	905.544	692.719
218.694	19.522	905.123	692.768
219.709	19.484	904.573	692.131
220.723	19.510	903.796	691.582
221.738	19.409	903.019	690.520
222.753	19.481	902.523	690.370
223.767	19.557	901.216	689.612
224.782	19.510	900.488	688.804
225.796	19.571	900.405	688.923
226.811	19.595	900.077	688.708
227.826	19.561	899.438	688.024
228.840	19.527	898.334	686.983
229.855	19.439	897.667	686.061
230.869	19.318	897.169	685.139
231.884	19.437	896.390	684.955
232.899	19.218	895.693	683.493
233.913	19.185	894.730	682.570
234.928	19.178	893.970	681.902
235.942	18.971	893.693	680.809
236.957	19.077	892.567	680.309
237.972	19.023	892.259	679.801
238.986	19.069	891.255	679.157
240.001	19.099	890.543	678.673
241.015	19.122	889.908	678.219
242.030	19.277	889.132	678.178
243.045	19.343	888.492	677.892
244.059	19.355	888.659	678.004
245.074	19.436	887.747	677.567
246.088	19.431	887.059	676.963
247.103	19.521	886.925	677.154
248.117	19.671	886.400	677.281
249.132	19.821	885.764	677.323
250.147	19.955	885.709	677.743
251.161	20.250	884.852	678.184
252.176	20.293	883.989	677.627
253.190	20.323	884.105	677.775
254.205	20.339	883.510	677.321
255.220	20.469	882.739	677.176
256.234	20.474	881.714	676.353
257.249	20.211	881.242	674.907
258.263	20.384	880.847	675.217
259.278	20.287	879.942	674.087
260.293	20.267	879.546	673.646
261.307	20.383	879.127	673.714
262.322	20.426	878.695	673.490
263.336	20.375	878.465	673.057
264.351	20.421	877.607	672.518
265.366	20.599	876.783	672.516
266.380	20.535	876.305	671.842
267.395	20.503	875.517	671.056
268.409	20.401	874.775	670.032
269.424	20.344	873.599	668.853
270.439	20.305	873.231	668.362
271.453	20.404	872.301	667.974
272.468	20.223	871.785	666.821
273.482	20.128	871.141	665.906
274.497	20.204	870.313	665.506
275.512	20.249	869.496	664.994
276.526	20.164	868.948	664.190
277.541	20.231	868.248	663.854
278.555	20.201	867.845	663.374
279.570	20.409	867.525	663.865
280.585	20.545	867.416	664.243
281.599	20.685	866.371	663.917
282.614	20.431	865.934	662.553
283.628	20.352	865.176	661.614
284.643	20.249	864.513	660.656
285.657	20.426	863.950	660.844
286.672	20.346	863.477	660.118
287.687	20.251	863.098	659.409
288.701	20.371	862.516	659.360
289.716	20.351	862.040	658.865
290.730	20.402	861.122	658.297
291.745	20.365	860.805	657.856
292.760	20.396	859.759	657.117
293.774	20.449	859.328	656.927
294.789	20.664	859.422	657.757
295.803	20.791	858.240	657.270
296.818	20.465	857.700	655.568
297.833	20.326	857.276	654.663
298.847	20.455	856.413	654.434
299.862	20.541	855.442	653.957
300.876	20.576	855.112	653.776
301.891	20.725	854.266	653.634
302.906	20.765	854.057	653.566
303.920	20.869	853.088	653.157
304.935	20.787	853.109	652.807
305.949	20.981	852.658	653.131
306.964	20.980	852.011	652.575
307.979	20.948	850.755	651.434
308.993	20.850	850.185	650.573
310.008	20.911	849.766	650.422
311.022	21.072	849.514	650.772
312.037	20.829	848.866	649.315
313.052	20.635	848.624	648.348
314.066	20.695	847.468	647.631
315.081	20.339	847.317	646.133
316.095	20.472	846.379	645.855
317.110	20.646	846.097	646.228
318.125	20.574	845.520	645.466
319.139	20.486	845.120	644.777
320.154	20.290	844.727	643.690
321.168	20.462	843.989	643.710
322.183	20.607	843.476	643.798
323.197	20.650	842.502	643.159
324.212	20.721	842.301	643.208
325.227	20.711	841.917	642.824
326.241	20.828	841.031	642.521
327.256	20.693	840.644	641.670
328.270	20.594	839.975	640.737
329.285	20.520	839.543	640.079
330.300	20.556	838.858	639.633
331.314	20.513	838.210	638.924
332.329	20.657	837.524	638.875
333.343	20.553	837.136	638.139
334.358	20.893	836.670	638.977
335.373	20.985	836.020	638.758
336.387	20.936	835.590	638.196
337.402	20.998	834.933	637.862
338.416	21.182	834.371	638.049
339.431	21.153	834.366	637.883
340.446	21.273	833.604	637.681
341.460	21.358	833.006	637.479
342.475	21.311	832.830	637.115
343.489	21.464	832.398	637.288
344.504	21.457	832.050	636.939
345.519	21.567	831.288	636.699
346.533	21.613	830.589	636.273
347.548	21.569	830.368	635.888
348.562	21.324	829.473	634.258
349.577	21.141	828.647	632.907
350.592	20.989	828.195	631.956
351.606	20.932	827.719	631.328
352.621	21.033	827.001	631.091
353.635	20.981	826.622	630.559
354.650	21.057	826.482	630.669
355.665	20.979	825.976	629.947
356.679	21.231	825.339	630.314
357.694	21.312	824.982	630.279
358.708	21.309	824.498	629.840
359.723	21.246	823.860	629.070
360.738	21.170	823.595	628.540
361.752	21.201	822.760	627.957
362.767	21.184	822.475	627.626
363.781	21.387	822.405	628.246
364.796	21.598	821.597	628.332
365.810	21.708	821.180	628.350
366.825	21.946	821.017	629.021
367.840	21.898	821.092	628.852
368.854	21.832	820.481	628.094
369.869	21.898	819.628	627.621
370.883	21.530	819.133	625.868
371.898	21.516	818.547	625.315
372.913	21.753	817.571	625.361
373.927	21.721	817.752	625.329
374.942	21.898	816.636	625.051
375.956	21.725	816.041	623.924
376.971	21.898	815.353	623.959
377.986	21.896	815.059	623.670
379.000	22.107	814.236	623.737
380.015	22.129	813.767	623.401
381.029	22.093	813.440	622.967
382.044	22.067	813.166	622.608
383.059	21.929	812.372	621.459
384.073	22.136	811.551	621.509
385.088	22.066	811.433	621.115
386.102	21.735	810.705	619.331
387.117	21.675	809.731	618.323
388.132	21.684	809.400	618.048
389.146	21.600	809.136	617.493
390.161	21.651	808.935	617.465
391.175	21.923	808.227	617.829
392.190	22.099	807.952	618.184
393.205	21.839	807.645	616.977
394.219	21.767	807.292	616.402
395.234	21.814	806.003	615.527
396.248	21.589	805.906	614.610
397.263	21.610	805.191	614.082
398.278	21.498	804.563	613.156
399.292	21.345	804.627	612.614
400.307	21.473	803.939	612.483
401.321	21.445	803.613	612.086
402.336	21.647	802.987	612.262
403.350	21.441	802.873	611.398
404.365	21.816	802.315	612.230
405.380	21.855	802.080	612.133
406.394	22.129	801.710	612.751
407.409	22.193	801.316	612.621
408.423	22.133	801.316	612.356
409.438	22.147	800.630	611.826
410.453	22.213	800.280	611.733
411.467	22.391	799.570	611.757
412.482	22.456	799.094	611.562
413.496	22.446	798.682	611.158
414.511	22.603	798.417	611.449
415.526	22.513	798.141	610.869
416.540	22.440	797.906	610.384
417.555	22.438	797.242	609.815
418.569	22.344	796.590	608.934
419.584	22.380	796.148	608.667
420.599	22.404	795.436	608.152
421.613	162.590	1368.196	1795.152
422.628	141.097	1451.678	1795.247
