DTS Sentinel unit serial number:	SN413079Multiplexer serial number:	ORYXHardware model number:	OX4-SRSoftware version number:	ORYX F/W v4.00 Oryx Data Collector v3.7.2.0data status	okinstallation	princeton_trtdifferential loss correction	single-endedforward channel	channel 3reverse channel	N/Adate	2019/09/12time	15:50:11forward acquisition time	60.00reverse acquisition time	0.00gamma	496.2192k internal	0.2297k external	0.2297temperature offset calibration	1.0069default loss term (dB/km)	0.3790temperature slope calibration	1.0000multiplexer offset coefficient	1.0000multiplexer slope coefficient	1.0000fibre end	0.00T internal ref (°C)	39.59T ext. ref 1 (°C)	2.47T ext. ref 2 (°C)	32.33length (m)	temperature (°C)	Stokes	anti-Stokes-747.200	-93.774	0.219	0.062
-746.185	21.615	0.081	-0.068
-745.171	-14.838	0.293	0.192
-744.156	121.189	-0.131	0.166
-743.142	75.868	-0.080	0.087
-742.127	174.512	-0.190	0.281
-741.112	-50.330	-0.184	-0.089
-740.098	-93.206	-0.180	-0.051
-739.083	42.740	-0.132	-0.122
-738.069	-200.000	-0.004	0.200
-737.054	-135.808	0.293	0.035
-736.039	-82.735	-0.152	0.050
-735.025	-200.000	-0.052	-0.305
-734.010	-170.203	-0.095	0.003
-732.996	-115.844	-0.403	-0.077
-731.981	-50.605	0.223	-0.107
-730.966	-200.000	-0.009	-0.302
-729.952	-163.346	-0.241	0.012
-728.937	-200.000	-0.051	-0.243
-727.923	-141.679	-0.295	-0.030
-726.908	-200.000	0.018	-0.125
-725.894	594.478	0.036	0.090
-724.879	-37.420	0.167	0.091
-723.864	-3.988	-0.417	0.295
-722.850	213.349	0.057	-0.092
-721.835	-48.311	-0.264	0.130
-720.821	348.360	0.117	0.236
-719.806	8.288	0.265	-0.203
-718.791	-121.563	-0.051	-0.009
-717.777	101.868	0.089	0.106
-716.762	64.957	0.005	0.005
-715.748	542.432	0.127	-0.309
-714.733	-26.864	-0.322	-0.192
-713.718	367.378	-0.115	-0.236
-712.704	384.395	0.106	-0.222
-711.689	-71.628	-0.159	0.060
-710.675	-118.530	-0.232	0.042
-709.660	-127.927	-0.291	-0.043
-708.645	148.532	0.147	-0.202
-707.631	-65.736	-0.066	-0.027
-706.616	-84.631	-0.308	-0.099
-705.602	-146.231	-0.173	0.015
-704.587	-200.000	0.009	-0.087
-703.572	-149.218	0.240	-0.020
-702.558	120.875	-0.153	0.194
-701.543	42.164	0.087	0.080
-700.529	-10.218	-0.092	-0.062
-699.514	-145.992	0.138	-0.012
-698.499	-13.708	0.157	-0.103
-697.485	-200.000	0.006	-0.213
-696.470	-200.000	0.020	-0.172
-695.456	-200.000	0.007	-0.232
-694.441	-200.000	0.022	-0.205
-693.426	123.100	-0.136	0.173
-692.412	214.254	-0.177	0.286
-691.397	303.459	-0.100	-0.188
-690.383	-103.322	-0.296	-0.071
-689.368	135.859	-0.069	-0.092
-688.354	183.349	-0.090	-0.136
-687.339	800.000	-0.068	0.222
-686.324	-200.000	-0.008	-0.093
-685.310	138.118	-0.068	-0.090
-684.295	226.311	-0.098	-0.163
-683.281	-200.000	-0.021	0.240
-682.266	-36.058	0.150	0.082
-681.251	-174.544	-0.189	0.006
-680.237	188.518	-0.047	-0.072
-679.222	-91.613	-0.289	-0.084
-678.208	-200.000	-0.019	-0.123
-677.193	35.888	-0.148	-0.133
-676.178	-40.784	0.128	-0.068
-675.164	84.253	-0.079	0.088
-674.149	-75.909	-0.274	0.099
-673.135	436.557	-0.118	0.262
-672.120	-154.391	-0.301	-0.021
-671.105	117.948	0.075	-0.094
-670.091	42.889	0.164	-0.152
-669.076	91.431	-0.045	0.051
-668.062	-96.373	-0.055	0.015
-667.047	-62.872	-0.174	0.073
-666.032	76.358	-0.110	0.118
-665.018	-46.887	-0.147	0.073
-664.003	92.600	0.154	-0.177
-662.989	144.759	0.161	-0.219
-661.974	639.988	-0.024	0.061
-660.959	-46.992	-0.239	-0.119
-659.945	472.178	-0.175	-0.402
-658.930	-7.265	-0.127	-0.088
-657.916	-200.000	0.002	-0.213
-656.901	3.122	-0.082	-0.060
-655.886	274.021	0.065	0.117
-654.872	-28.412	0.217	-0.128
-653.857	-62.626	-0.155	0.066
-652.843	-82.028	-0.124	0.041
-651.828	800.000	0.028	-0.080
-650.814	-23.904	-0.177	0.108
-649.799	-9.785	-0.211	0.143
-648.784	800.000	0.112	-0.461
-647.770	-200.000	-0.006	0.141
-646.755	-200.000	0.061	0.334
-645.741	-200.000	0.038	-0.177
-644.726	101.823	-0.129	-0.154
-643.711	130.801	0.162	0.211
-642.697	800.000	-0.014	-0.040
-641.682	-200.000	0.019	-0.113
-640.668	-58.513	0.309	0.136
-639.653	220.082	-0.259	0.422
-638.638	65.563	-0.026	-0.026
-637.624	-200.000	-0.049	-0.268
-636.609	800.000	-0.034	-0.145
-635.595	800.000	-0.093	-0.319
-634.580	-71.350	0.182	0.069
-633.565	279.031	-0.217	0.393
-632.551	29.523	-0.195	0.169
-631.536	66.463	0.052	-0.053
-630.522	238.417	-0.099	0.168
-629.507	48.019	0.230	0.219
-628.492	1.896	0.167	0.122
-627.478	16.022	0.205	-0.164
-626.463	545.707	-0.052	-0.126
-625.449	92.756	-0.015	-0.017
-624.434	-46.533	-0.114	-0.057
-623.419	-200.000	-0.010	-0.161
-622.405	57.988	0.166	0.165
-621.390	-107.435	0.267	-0.060
-620.376	-93.666	0.159	0.045
-619.361	227.489	-0.052	-0.087
-618.346	222.026	-0.081	0.132
-617.332	-47.322	-0.065	0.032
-616.317	124.819	0.174	0.222
-615.303	24.360	-0.248	-0.208
-614.288	577.770	-0.024	-0.059
-613.273	203.000	0.125	-0.196
-612.259	45.314	-0.115	0.108
-611.244	485.089	-0.108	-0.251
-610.230	-48.252	0.299	-0.147
-609.215	-200.000	-0.003	-0.241
-608.201	-16.358	-0.332	0.214
-607.186	-21.372	-0.186	0.115
-606.171	-55.386	0.030	0.014
-605.157	-12.379	0.564	0.374
-604.142	99.166	-0.208	0.244
-603.128	4.987	0.332	-0.248
-602.113	750.938	-0.079	0.215
-601.098	12.111	-0.075	0.059
-600.084	-200.000	-0.043	-0.209
-599.069	-116.038	0.073	-0.014
-598.055	-179.279	-0.344	0.008
-597.040	-131.255	-0.131	0.018
-596.025	-46.696	0.131	-0.065
-595.011	-8.458	-0.108	0.074
-593.996	-200.000	-0.002	0.039
-592.982	204.715	0.106	-0.167
-591.967	-83.597	0.113	0.037
-590.952	131.787	-0.158	0.206
-589.938	-58.667	0.207	-0.091
-588.923	-171.318	-0.196	-0.007
-587.909	800.000	0.099	-0.348
-586.894	-200.000	-0.058	0.284
-585.879	-130.740	-0.292	-0.040
-584.865	-89.025	-0.194	-0.058
-583.850	266.699	-0.103	-0.183
-582.836	124.180	0.150	-0.191
-581.821	-5.242	0.044	0.031
-580.806	364.321	-0.083	0.170
-579.792	-5.483	-0.057	-0.039
-578.777	800.000	-0.108	-0.337
-577.763	-156.962	0.117	-0.007
-576.748	-179.849	-0.225	0.005
-575.733	117.577	-0.082	-0.103
-574.719	151.541	-0.214	0.296
-573.704	-200.000	0.009	0.046
-572.690	760.296	0.048	0.131
-571.675	149.979	0.108	0.149
-570.661	-83.046	0.287	0.094
-569.646	-92.947	-0.281	0.080
-568.631	5.924	0.074	-0.056
-567.617	410.048	-0.150	-0.322
-566.602	-200.000	0.007	0.523
-565.588	-48.082	-0.160	0.079
-564.573	-200.000	0.059	0.268
-563.558	-164.724	0.075	0.003
-562.544	44.543	-0.257	-0.240
-561.529	-200.000	0.022	-0.415
-560.515	67.171	-0.114	-0.118
-559.500	-38.971	0.213	-0.114
-558.485	-1.483	0.402	-0.287
-557.471	-62.838	-0.224	-0.094
-556.456	-200.000	-0.002	0.060
-555.442	-157.459	-0.078	0.005
-554.427	-200.000	0.023	-0.400
-553.412	800.000	-0.055	-0.223
-552.398	-200.000	0.060	0.350
-551.383	-200.000	-0.041	-0.211
-550.369	277.190	0.082	0.148
-549.354	-88.941	0.102	-0.031
-548.339	-116.647	0.032	0.006
-547.325	17.423	0.238	-0.192
-546.310	303.922	0.118	-0.221
-545.296	208.111	-0.166	-0.263
-544.281	416.672	-0.150	-0.325
-543.266	344.390	-0.032	-0.063
-542.252	-22.803	0.186	-0.114
-541.237	277.630	0.090	0.163
-540.223	-78.160	-0.315	0.110
-539.208	164.947	0.125	0.179
-538.193	800.000	0.071	-0.238
-537.179	-86.400	-0.172	0.054
-536.164	-54.815	-0.314	0.144
-535.150	-69.970	0.163	-0.063
-534.135	-96.085	-0.173	0.046
-533.121	-152.144	0.191	-0.014
-532.106	-125.199	-0.124	0.019
-531.091	-200.000	-0.161	0.000
-530.077	139.982	-0.101	0.135
-529.062	146.135	0.211	-0.286
-528.048	-117.228	0.121	-0.022
-527.033	40.818	-0.059	0.054
-526.018	-90.242	-0.216	-0.064
-525.004	13.460	0.219	-0.172
-523.989	-200.000	-0.031	-0.202
-522.975	288.350	-0.193	-0.354
-521.960	-162.956	0.561	-0.028
-520.945	-200.000	0.002	0.074
-519.931	-91.868	0.178	-0.051
-518.916	-33.730	-0.113	-0.063
-517.902	-200.000	0.018	-0.262
-516.887	-93.552	-0.078	0.022
-515.872	800.000	-0.013	0.040
-514.858	24.459	-0.209	-0.175
-513.843	800.000	0.079	0.234
-512.829	339.420	-0.116	0.229
-511.814	71.143	0.206	-0.216
-510.799	-116.808	-0.117	0.022
-509.785	14.347	-0.123	-0.097
-508.770	12.283	-0.109	0.085
-507.756	226.799	0.012	0.019
-506.741	800.000	0.092	0.283
-505.726	298.436	0.046	0.086
-504.712	-198.812	-0.261	-0.001
-503.697	-200.000	0.024	0.164
-502.683	-120.174	0.296	0.051
-501.668	-15.386	-0.156	-0.101
-500.653	62.557	0.065	0.066
-499.639	138.767	0.038	0.050
-498.624	-200.000	-0.000	-0.068
-497.610	-200.000	-0.016	-0.155
-496.595	-95.318	-0.040	-0.011
-495.581	70.340	-0.099	0.104
-494.566	2.532	0.249	0.182
-493.551	9.657	-0.125	-0.096
-492.537	-200.000	-0.088	-0.395
-491.522	449.621	0.085	-0.190
-490.508	-200.000	-0.016	0.154
-489.493	-51.767	-0.245	0.115
-488.478	-61.993	-0.110	0.046
-487.464	283.083	-0.066	-0.120
-486.449	88.883	-0.088	-0.099
-485.435	207.553	0.133	0.209
-484.420	39.023	-0.055	-0.050
-483.405	6.586	0.264	0.198
-482.391	759.661	0.077	0.212
-481.376	-200.000	0.058	-0.374
-480.362	-58.840	0.288	-0.126
-479.347	12.518	-0.209	0.163
-478.332	-117.875	-0.368	0.067
-477.318	-82.444	-0.241	0.079
-476.303	703.515	-0.023	0.062
-475.289	-200.000	-0.052	-0.401
-474.274	19.249	0.151	-0.122
-473.259	-9.674	-0.240	-0.162
-472.245	-92.223	0.338	0.096
-471.230	-49.473	-0.239	-0.115
-470.216	-200.000	0.004	0.084
-469.201	-32.194	0.190	-0.107
-468.186	307.572	-0.067	0.126
-467.172	-159.266	0.189	0.011
-466.157	-200.000	0.014	-0.373
-465.143	330.881	0.045	0.088
-464.128	21.044	0.188	0.154
-463.113	-200.000	0.002	0.093
-462.099	-30.401	-0.235	0.135
-461.084	-200.000	0.000	0.071
-460.070	800.000	-0.026	0.075
-459.055	-200.000	0.003	-0.091
-458.040	800.000	0.037	0.133
-457.026	-21.852	-0.176	-0.108
-456.011	353.516	-0.118	0.237
-454.997	212.578	0.112	0.179
-453.982	84.450	-0.149	-0.165
-452.968	-200.000	0.011	0.090
-451.953	-33.377	0.248	0.139
-450.938	306.511	-0.131	0.247
-449.924	298.042	0.108	0.200
-448.909	-200.000	-0.011	-0.108
-447.895	-162.605	0.129	0.006
-446.880	-200.000	-0.032	-0.257
-445.865	800.000	-0.094	-0.328
-444.851	800.000	-0.098	0.331
-443.836	248.431	0.139	-0.237
-442.822	126.812	0.086	0.110
-441.807	800.000	0.019	-0.065
-440.792	113.624	0.156	0.191
-439.778	-200.000	-0.040	0.209
-438.763	800.000	0.064	-0.249
-437.749	-145.562	-0.075	-0.007
-436.734	800.000	-0.095	-0.297
-435.719	-200.000	0.055	0.544
-434.705	-98.853	-0.537	-0.138
-433.690	157.008	-0.054	0.075
-432.676	-55.479	-0.271	-0.123
-431.661	-130.094	0.338	-0.047
-430.646	129.419	-0.158	0.203
-429.632	-161.195	-0.059	-0.003
-428.617	178.138	0.054	0.080
-427.603	-66.523	-0.063	-0.025
-426.588	-2.176	0.098	0.069
-425.573	-117.048	-0.392	0.072
-424.559	13.390	0.170	0.133
-423.544	100.383	-0.202	-0.236
-422.530	-24.232	0.103	0.062
-421.515	-75.921	-0.296	0.106
-420.500	-30.691	0.141	0.081
-419.486	175.216	0.117	-0.171
-418.471	61.790	-0.178	0.179
-417.457	800.000	0.077	0.320
-416.442	-200.000	-0.026	0.159
-415.428	-95.659	-0.318	0.086
-414.413	157.839	-0.043	0.061
-413.398	-200.000	0.027	-0.186
-412.384	675.231	-0.116	-0.304
-411.369	232.615	-0.032	-0.053
-410.355	800.000	0.102	-0.365
-409.340	-24.635	-0.166	0.100
-408.325	-114.950	0.176	0.034
-407.311	-44.348	0.246	-0.124
-406.296	-200.000	0.018	0.146
-405.282	800.000	-0.017	-0.071
-404.267	-26.759	0.098	-0.058
-403.252	-21.520	-0.191	-0.117
-402.238	568.155	-0.090	-0.220
-401.223	800.000	0.030	-0.088
-400.209	7.569	-0.219	-0.165
-399.194	-200.000	0.019	-0.216
-398.179	653.736	0.083	-0.214
-397.165	-93.499	0.261	0.073
-396.150	-200.000	0.016	0.143
-395.136	92.912	0.079	0.090
-394.121	-95.936	0.200	-0.054
-393.106	109.544	-0.100	-0.121
-392.092	-74.020	-0.167	-0.061
-391.077	800.000	-0.109	0.429
-390.063	418.154	0.141	0.304
-389.048	-52.025	0.248	0.116
-388.033	-200.000	0.089	-0.407
-387.019	-200.000	-0.038	-0.401
-386.004	-23.938	0.161	0.097
-384.990	346.800	0.123	-0.244
-383.975	188.063	0.042	0.064
-382.960	-153.811	0.228	0.016
-381.946	-30.891	-0.093	0.053
-380.931	800.000	0.064	0.223
-379.917	-0.015	-0.242	0.174
-378.902	69.112	-0.302	0.312
-377.888	-161.255	0.158	-0.008
-376.873	-82.714	0.235	-0.077
-375.858	-147.168	0.103	-0.009
-374.844	-154.932	-0.038	0.003
-373.829	-200.000	0.003	0.165
-372.815	63.944	0.010	0.010
-371.800	66.704	0.159	0.162
-370.785	-117.208	-0.290	0.053
-369.771	183.062	0.045	0.067
-368.756	-150.951	0.105	-0.008
-367.742	8.626	-0.336	-0.255
-366.727	-51.746	-0.211	0.099
-365.712	654.363	0.049	-0.127
-364.698	165.634	-0.106	-0.150
-363.683	346.925	0.104	-0.206
-362.669	-159.830	-0.304	0.017
-361.654	142.530	-0.099	0.133
-360.639	-80.006	-0.246	-0.083
-359.625	-164.533	0.081	-0.004
-358.610	-200.000	0.024	-0.112
-357.596	25.914	-0.168	0.141
-356.581	-38.364	-0.180	-0.096
-355.566	800.000	-0.053	0.174
-354.552	-40.912	0.195	-0.101
-353.537	190.815	0.081	0.122
-352.523	342.578	-0.082	0.161
-351.508	-107.535	0.348	-0.077
-350.493	-29.058	-0.294	-0.170
-349.479	-200.000	0.020	-0.109
-348.464	-200.000	-0.002	0.229
-347.450	24.999	0.120	-0.100
-346.435	196.613	-0.273	-0.418
-345.420	599.288	-0.035	-0.088
-344.406	-200.000	-0.005	0.258
-343.391	184.641	-0.202	0.301
-342.377	-52.106	-0.199	0.093
-341.362	97.726	-0.294	-0.340
-340.348	-177.581	0.358	0.009
-339.333	162.720	0.100	0.142
-338.318	348.548	0.155	-0.308
-337.304	76.885	-0.132	-0.141
-336.289	800.000	0.082	0.274
-335.275	-108.223	0.373	0.081
-334.260	236.895	0.082	-0.137
-333.245	800.000	0.096	0.292
-332.231	-99.337	0.533	0.135
-331.216	-83.481	0.304	0.098
-330.202	-200.000	-0.021	0.304
-329.187	43.443	-0.245	0.225
-328.172	211.861	-0.047	-0.075
-327.158	-5.173	-0.129	0.089
-326.143	-25.219	-0.303	-0.180
-325.129	800.000	-0.063	-0.218
-324.114	-157.316	-0.286	-0.017
-323.099	800.000	-0.027	0.108
-322.085	-93.951	-0.193	-0.053
-321.070	613.876	-0.054	-0.135
-320.056	-200.000	0.034	-0.261
-319.041	-200.000	0.026	-0.135
-318.026	53.580	-0.410	-0.395
-317.012	800.000	-0.026	0.106
-315.997	-200.000	0.103	0.467
-314.983	341.694	-0.024	-0.046
-313.968	38.904	0.184	-0.165
-312.953	370.925	-0.095	0.193
-311.939	-200.000	0.036	-0.304
-310.924	218.237	-0.128	-0.205
-309.910	-200.000	-0.004	0.062
-308.895	-166.359	0.239	-0.010
-307.880	-200.000	0.029	-0.146
-306.866	178.221	0.074	0.108
-305.851	123.671	-0.084	0.105
-304.837	-191.722	0.133	-0.001
-303.822	-197.890	-0.127	0.001
-302.807	213.086	0.134	-0.212
-301.793	54.421	-0.263	0.255
-300.778	800.000	0.090	-0.258
-299.764	107.811	0.176	-0.211
-298.749	2.866	0.236	0.172
-297.735	-71.556	-0.114	0.043
-296.720	78.281	0.062	-0.066
-295.705	-118.476	0.155	0.027
-294.691	-87.979	-0.138	0.042
-293.676	287.947	0.185	0.336
-292.662	274.559	0.162	0.288
-291.647	668.533	0.022	-0.058
-290.632	800.000	0.032	0.125
-289.618	800.000	0.011	0.039
-288.603	293.892	-0.059	-0.108
-287.589	-97.764	-0.339	0.088
-286.574	-120.186	-0.244	-0.042
-285.559	154.805	0.060	-0.083
-284.545	-101.842	0.181	0.044
-283.530	-37.338	-0.109	0.058
-282.516	12.386	0.215	-0.166
-281.501	-200.000	0.039	-0.244
-280.486	51.185	-0.200	-0.190
-279.472	22.970	-0.225	0.185
-278.457	-111.925	0.225	0.046
-277.443	183.700	0.191	-0.284
-276.428	204.206	-0.101	0.157
-275.413	65.976	0.229	-0.232
-274.399	-43.264	0.090	0.046
-273.384	-145.937	-0.242	-0.021
-272.370	-200.000	0.018	0.255
-271.355	-200.000	-0.001	-0.039
-270.340	-127.243	0.290	0.042
-269.326	191.228	-0.068	0.102
-268.311	-200.000	-0.022	-0.203
-267.297	-64.455	0.359	-0.146
-266.282	66.844	-0.059	0.061
-265.267	-141.005	-0.095	-0.010
-264.253	-104.107	0.110	-0.026
-263.238	-200.000	0.065	0.495
-262.224	772.342	-0.054	0.147
-261.209	240.909	0.253	-0.423
-260.195	-121.721	0.095	0.016
-259.180	800.000	0.010	0.034
-258.165	96.849	0.241	0.276
-257.151	-135.508	-0.179	0.021
-256.136	-200.000	0.006	-0.201
-255.122	-101.905	0.348	0.084
-254.107	-200.000	-0.011	0.122
-253.092	-24.339	0.352	0.210
-252.078	-200.000	-0.119	0.589
-251.063	-76.624	0.260	-0.091
-250.049	-34.924	0.348	-0.190
-249.034	130.124	0.079	-0.101
-248.019	-200.000	-0.001	-0.124
-247.005	-59.381	-0.065	-0.028
-245.990	-30.077	-0.043	-0.025
-244.976	-200.000	0.007	0.184
-243.961	21.795	-0.236	0.193
-242.946	-90.453	0.349	0.101
-241.932	46.190	0.123	0.115
-240.917	7.151	0.048	-0.036
-239.903	258.121	0.026	-0.044
-238.888	800.000	-0.031	0.129
-237.873	-34.842	-0.262	-0.143
-236.859	800.000	0.057	-0.204
-235.844	-141.550	-0.239	0.024
-234.830	-86.150	0.212	-0.065
-233.815	96.785	-0.062	-0.071
-232.800	-72.690	0.321	0.119
-231.786	-89.261	0.039	0.011
-230.771	-200.000	0.021	-0.183
-229.757	-68.590	0.250	0.097
-228.742	317.767	0.044	0.084
-227.727	62.703	0.113	-0.113
-226.713	-200.000	-0.046	0.253
-225.698	6.878	-0.206	-0.154
-224.684	49.445	0.222	0.210
-223.669	-200.000	0.068	0.514
-222.655	249.218	0.064	-0.108
-221.640	-117.790	0.163	0.029
-220.625	39.274	-0.355	0.318
-219.611	-0.662	0.147	0.104
-218.596	800.000	-0.103	-0.338
-217.582	493.867	0.085	-0.195
-216.567	11.226	-0.327	0.250
-215.552	-72.684	0.128	0.047
-214.538	222.731	0.039	0.062
-213.523	-200.000	-0.030	0.135
-212.509	-32.398	0.151	-0.084
-211.494	800.000	0.087	0.381
-210.479	800.000	0.100	-0.326
-209.465	-115.238	-0.236	-0.045
-208.450	74.976	0.140	-0.147
-207.436	800.000	0.121	-0.349
-206.421	-39.500	-0.130	-0.068
-205.406	-90.521	-0.287	-0.083
-204.392	607.887	0.029	-0.072
-203.377	-69.235	0.211	0.081
-202.363	80.550	-0.177	0.191
-201.348	136.185	0.085	-0.111
-200.333	-115.207	-0.193	-0.036
-199.319	-112.360	-0.140	-0.028
-198.304	800.000	-0.010	0.036
-197.290	-200.000	-0.062	0.292
-196.275	-41.316	0.344	-0.177
-195.260	800.000	-0.071	0.198
-194.246	800.000	-0.040	-0.154
-193.231	-200.000	-0.317	0.001
-192.217	242.267	0.101	0.169
-191.202	-156.485	0.157	-0.010
-190.187	800.000	-0.151	0.447
-189.173	-37.945	-0.055	-0.029
-188.158	431.863	0.012	-0.025
-187.144	365.956	0.079	0.159
-186.129	-74.495	0.094	-0.034
-185.114	800.000	0.046	-0.148
-184.100	445.169	-0.142	0.311
-183.085	-195.751	-0.147	0.001
-182.071	-74.913	0.129	0.046
-181.056	98.009	0.072	-0.083
-180.042	-200.000	-0.009	0.140
-179.027	477.214	-0.146	-0.330
-178.012	800.000	-0.025	-0.079
-176.998	-2.541	-0.071	-0.049
-175.983	-200.000	0.008	-0.085
-174.969	1.724	-0.507	-0.365
-173.954	83.782	0.191	0.208
-172.939	-127.849	0.285	0.041
-171.925	226.530	-0.105	0.171
-170.910	-70.609	0.109	-0.041
-169.896	-200.000	0.005	-0.047
-168.881	-200.000	0.019	-0.310
-167.866	800.000	0.055	-0.166
-166.852	800.000	-0.037	0.122
-165.837	222.327	-0.121	0.194
-164.823	-46.983	0.033	-0.016
-163.808	209.625	-0.081	-0.127
-162.793	800.000	0.069	0.231
-161.779	649.800	-0.013	0.034
-160.764	-200.000	0.023	0.115
-159.750	-2.029	0.214	-0.150
-158.735	102.418	-0.095	-0.111
-157.720	-200.000	-0.028	0.352
-156.706	213.959	0.133	0.210
-155.691	686.103	0.065	-0.170
-154.677	-103.511	-0.143	-0.034
-153.662	265.656	-0.114	0.199
-152.647	394.808	-0.070	-0.147
-151.633	-27.570	0.264	0.153
-150.618	-71.230	0.297	0.111
-149.604	-48.520	0.010	-0.005
-148.589	-39.656	-0.023	-0.012
-147.574	-134.019	-0.195	0.024
-146.560	-100.073	0.180	-0.045
-145.545	-54.538	0.136	-0.062
-144.531	566.693	-0.098	0.237
-143.516	0.983	0.127	-0.091
-142.502	-109.953	0.424	-0.089
-141.487	-94.498	-0.158	0.043
-140.472	-200.000	0.036	-0.171
-139.458	-200.000	-0.031	0.230
-138.443	-107.657	0.275	0.060
-137.429	522.569	0.070	0.164
-136.414	-90.051	-0.065	-0.019
-135.399	331.360	-0.027	0.053
-134.385	-130.646	0.180	0.024
-133.370	-58.430	-0.098	0.043
-132.356	183.598	0.043	-0.063
-131.341	23.070	-0.165	0.135
-130.326	50.426	-0.075	-0.071
-129.312	-40.937	0.133	0.068
-128.297	88.482	-0.121	-0.134
-127.283	-125.182	-0.158	0.024
-126.268	-200.000	-0.016	0.083
-125.253	-37.536	0.154	0.082
-124.239	604.426	-0.135	-0.336
-123.224	201.756	-0.098	0.151
-122.210	40.421	0.067	0.060
-121.195	87.431	0.053	0.058
-120.180	236.036	-0.134	0.220
-119.166	2.526	0.029	-0.021
-118.151	28.941	0.184	-0.155
-117.137	-36.239	-0.466	-0.251
-116.122	101.374	-0.077	0.089
-115.107	-27.469	-0.263	-0.153
-114.093	-200.000	0.023	-0.154
-113.078	-124.200	-0.132	-0.021
-112.064	90.294	-0.274	-0.306
-111.049	-115.404	-0.126	-0.024
-110.034	-96.681	0.344	-0.090
-109.020	800.000	0.067	-0.221
-108.005	495.577	-0.086	0.197
-106.991	800.000	-0.095	0.307
-105.976	-200.000	0.026	-0.218
-104.962	-35.979	0.284	-0.153
-103.947	800.000	-0.110	0.336
-102.932	-200.000	0.009	0.046
-101.918	-106.178	0.151	-0.034
-100.903	-200.000	0.009	-0.242
-99.889	-158.707	0.078	0.004
-98.874	-32.981	-0.102	0.056
-97.859	-127.221	0.031	-0.005
-96.845	96.677	-0.171	0.196
-95.830	-124.991	-0.056	-0.009
-94.816	-95.931	-0.283	0.075
-93.801	-36.767	-0.324	0.173
-92.786	-154.316	0.064	-0.004
-91.772	177.604	-0.038	0.056
-90.757	44.471	-0.119	0.109
-89.743	398.890	0.036	0.076
-88.728	-56.725	-0.085	0.038
-87.713	-200.000	0.008	0.193
-86.699	-47.466	-0.057	0.028
-85.684	165.402	0.152	-0.214
-84.670	-96.405	-0.260	0.069
-83.655	45.813	-0.058	-0.053
-82.640	-13.704	0.235	0.152
-81.626	120.956	0.292	0.362
-80.611	-200.000	0.003	-0.169
-79.597	-200.000	0.000	0.147
-78.582	651.894	0.092	-0.234
-77.567	61.601	0.153	0.152
-76.553	518.095	-0.080	0.187
-75.538	800.000	0.115	0.417
-74.524	-200.000	-0.035	-0.478
-73.509	-200.000	0.012	-0.235
-72.494	91.357	-0.044	0.049
-71.480	764.159	0.084	0.228
-70.465	-185.534	0.286	0.004
-69.451	260.110	0.145	0.250
-68.436	-197.667	-0.240	-0.001
-67.422	136.003	-0.060	0.077
-66.407	771.853	0.050	0.136
-65.392	800.000	0.022	-0.075
-64.378	800.000	0.104	0.288
-63.363	121.334	-0.105	0.130
-62.349	-82.627	-0.072	-0.023
-61.334	78.440	-0.692	-0.735
-60.319	410.270	0.407	0.858
-59.305	-200.000	-0.038	-0.826
-58.290	319.724	0.422	0.797
-57.276	325.770	0.896	1.705
-56.261	-200.000	82.141	502.595
-55.246	502.917	1343.554	3088.226
-54.232	149.788	2558.432	3447.909
-53.217	112.046	2233.609	2683.161
-52.203	49.297	1770.804	1655.457
-51.188	42.561	1578.342	1427.812
-50.173	40.155	1549.723	1385.054
-49.159	55.855	1590.759	1533.286
-48.144	60.939	1610.968	1588.749
-47.130	43.294	1571.636	1426.709
-46.115	39.916	1557.225	1389.856
-45.100	39.731	1554.174	1385.777
-44.086	39.586	1551.717	1382.515
-43.071	39.606	1549.298	1380.447
-42.057	39.533	1548.406	1379.082
-41.042	39.599	1546.526	1377.817
-40.027	39.595	1544.756	1376.159
-39.013	39.562	1543.766	1374.989
-37.998	39.537	1541.914	1373.109
-36.984	39.631	1540.728	1372.655
-35.969	39.596	1539.320	1371.105
-34.954	39.594	1538.177	1370.012
-33.940	39.527	1537.183	1368.609
-32.925	39.497	1535.636	1366.973
-31.911	39.756	1533.669	1366.963
-30.896	39.755	1532.507	1365.867
-29.881	39.726	1531.254	1364.494
-28.867	39.673	1530.199	1363.134
-27.852	39.691	1528.697	1361.863
-26.838	39.681	1527.217	1360.423
-25.823	39.635	1525.328	1358.370
-24.809	39.590	1524.057	1356.873
-23.794	39.586	1522.566	1355.462
-22.779	39.663	1520.724	1354.299
-21.765	39.671	1519.875	1353.544
-20.750	39.647	1518.431	1352.039
-19.736	39.650	1517.722	1351.378
-18.721	39.622	1516.916	1350.409
-17.706	39.673	1515.272	1349.247
-16.692	39.526	1514.675	1347.656
-15.677	39.567	1513.299	1346.659
-14.663	39.578	1512.368	1345.850
-13.648	39.470	1511.587	1344.363
-12.633	39.522	1510.402	1343.615
-11.619	39.570	1509.393	1342.985
-10.604	39.540	1508.535	1341.966
-9.590	39.583	1507.423	1341.218
-8.575	39.526	1506.981	1340.380
-7.560	39.595	1505.701	1339.659
-6.546	39.536	1505.293	1338.841
-5.531	39.456	1504.422	1337.470
-4.517	39.435	1503.069	1336.070
-3.502	39.540	1501.842	1335.639
-2.487	39.490	1500.546	1334.097
-1.473	39.552	1499.429	1333.474
-0.458	39.506	1498.243	1332.052
0.556	39.884	1488.568	1318.904
1.571	36.061	1459.102	1267.595
2.586	31.255	1394.075	1180.699
3.600	28.733	1309.294	1093.796
4.615	27.095	1260.232	1043.320
5.629	22.828	1201.525	971.210
6.644	12.263	1111.455	844.273
7.659	4.054	1065.791	768.889
8.673	2.862	1059.769	758.593
9.688	2.436	1057.133	754.538
10.702	2.225	1055.342	752.154
11.717	2.378	1053.403	751.454
12.731	5.741	1057.587	770.936
13.746	15.962	1072.704	832.650
14.761	24.174	1083.444	881.732
15.775	25.929	1084.605	891.285
16.790	25.981	1084.291	891.209
17.804	25.904	1083.130	889.794
18.819	25.712	1082.278	888.069
19.834	25.721	1081.872	887.703
20.848	25.894	1081.116	887.853
21.863	26.024	1080.858	888.203
22.877	26.082	1080.296	887.949
23.892	25.924	1080.054	886.893
24.907	25.957	1078.981	886.095
25.921	25.870	1078.278	885.015
26.936	25.909	1077.720	884.667
27.950	25.850	1076.450	883.260
28.965	25.923	1075.137	882.459
29.980	25.677	1074.302	880.493
30.994	25.800	1072.470	879.516
32.009	25.905	1071.475	879.136
33.023	26.073	1071.339	879.764
34.038	25.900	1070.055	877.789
35.053	25.706	1069.676	876.458
36.067	25.875	1068.840	876.516
37.082	25.810	1068.247	875.635
38.096	25.891	1067.566	875.391
39.111	26.040	1066.689	875.319
40.126	26.239	1065.865	875.533
41.140	26.122	1064.879	874.077
42.155	25.895	1062.989	871.349
43.169	25.600	1062.244	869.239
44.184	25.552	1061.159	868.041
45.199	25.634	1060.171	867.554
46.213	25.643	1058.990	866.552
47.228	25.566	1058.355	865.586
48.242	25.686	1058.310	866.049
49.257	25.900	1057.198	866.089
50.271	25.893	1056.358	865.294
51.286	25.870	1055.938	864.762
52.301	26.093	1055.005	864.990
53.315	25.917	1054.763	863.870
54.330	25.894	1053.825	862.915
55.344	25.902	1052.666	861.929
56.359	25.850	1052.227	861.245
57.374	25.933	1051.237	860.754
58.388	25.740	1050.242	858.942
59.403	25.658	1049.529	857.896
60.417	25.714	1048.795	857.482
61.432	25.427	1048.326	855.660
62.447	25.524	1047.547	855.407
63.461	25.759	1046.550	855.634
64.476	25.747	1046.115	855.145
65.490	25.682	1045.191	854.007
66.505	25.512	1044.209	852.326
67.520	25.650	1043.466	852.297
68.534	25.705	1042.998	852.101
69.549	25.502	1042.043	850.280
70.563	25.205	1040.866	847.845
71.578	25.129	1040.270	846.924
72.593	25.257	1039.199	846.579
73.607	25.113	1037.659	844.572
74.622	25.006	1036.937	843.410
75.636	25.406	1036.467	844.833
76.651	25.559	1035.512	844.699
77.666	25.542	1034.967	844.100
78.680	25.295	1033.743	841.867
79.695	25.325	1033.499	841.735
80.709	25.323	1033.058	841.292
81.724	25.465	1032.342	841.302
82.739	25.408	1031.278	840.092
83.753	25.516	1030.273	839.705
84.768	25.721	1030.149	840.485
85.782	26.123	1028.914	841.276
86.797	26.288	1028.735	841.824
87.812	26.336	1027.808	841.213
88.826	25.990	1027.057	838.916
89.841	26.103	1026.156	838.633
90.855	26.290	1025.049	838.519
91.870	26.170	1024.749	837.647
92.884	26.123	1024.275	836.965
93.899	26.106	1023.099	835.850
94.914	25.944	1021.866	834.021
95.928	26.160	1021.317	834.497
96.943	26.279	1020.566	834.360
97.957	25.926	1019.249	831.582
98.972	25.589	1018.277	829.160
99.987	25.479	1016.935	827.489
101.001	25.539	1016.417	827.270
102.016	25.905	1016.125	828.641
103.030	25.905	1015.329	827.919
104.045	25.841	1014.096	826.548
105.060	25.698	1013.142	825.041
106.074	25.652	1011.833	823.690
107.089	25.584	1011.005	822.632
108.103	25.811	1010.689	823.343
109.118	25.956	1010.382	823.681
110.133	25.757	1008.751	821.369
111.147	25.591	1008.363	820.226
112.162	25.529	1006.493	818.349
113.176	25.306	1005.747	816.657
114.191	25.450	1005.103	816.717
115.206	25.486	1004.501	816.316
116.220	25.350	1003.182	814.557
117.235	25.101	1002.250	812.601
118.249	25.319	1001.404	812.830
119.264	25.276	1001.245	812.435
120.279	25.130	1000.011	810.701
121.293	25.281	998.727	810.268
122.308	25.326	998.406	810.141
123.322	25.301	997.479	809.205
124.337	25.314	996.501	808.398
125.352	25.187	995.000	806.536
126.366	24.846	993.293	803.551
127.381	24.535	992.248	801.237
128.395	25.052	991.709	803.048
129.410	25.712	991.649	805.885
130.424	25.829	991.407	806.143
131.439	25.901	990.131	805.357
132.454	25.695	989.621	803.949
133.468	25.701	989.089	803.471
134.483	25.830	988.005	803.095
135.497	25.749	987.538	802.285
136.512	25.909	986.830	802.352
137.527	26.136	985.743	802.406
138.541	26.351	984.479	802.258
139.556	26.081	984.608	801.095
140.570	26.067	983.616	800.156
141.585	26.112	983.138	799.893
142.600	26.236	982.390	799.766
143.614	26.139	980.739	797.923
144.629	26.178	980.659	797.958
145.643	26.375	980.126	798.324
146.658	26.315	978.796	796.903
147.673	26.119	977.554	794.958
148.687	25.999	976.455	793.469
149.702	25.992	975.345	792.464
150.716	25.817	974.622	791.040
151.731	25.742	973.220	789.500
152.746	25.810	972.756	789.355
153.760	26.081	972.360	790.148
154.775	26.202	971.597	789.987
155.789	26.208	970.991	789.454
156.804	26.285	969.608	788.594
157.819	26.094	968.905	787.122
158.833	26.128	968.082	786.531
159.848	26.276	967.300	786.471
160.862	26.338	966.614	786.109
161.877	26.163	965.465	784.349
162.892	26.065	964.808	783.319
163.906	26.151	963.894	782.879
164.921	26.231	962.723	782.207
165.935	26.232	961.752	781.354
166.950	26.291	960.568	780.575
167.964	26.351	959.864	780.193
168.979	26.227	958.987	778.880
169.994	26.065	957.786	777.138
171.008	25.871	956.807	775.437
172.023	26.073	956.234	775.773
173.037	26.365	955.415	776.297
174.052	26.221	954.454	774.828
175.067	25.897	953.545	772.631
176.081	25.921	952.558	771.869
177.096	25.839	951.802	770.837
178.110	26.011	951.103	770.937
179.125	25.891	950.256	769.669
180.140	25.582	949.249	767.466
181.154	25.477	948.500	766.347
182.169	25.502	948.072	766.039
183.183	25.954	947.308	767.279
184.198	26.239	947.306	768.422
185.213	26.210	946.137	767.283
186.227	25.972	945.874	765.990
187.242	26.216	945.347	766.531
188.256	26.163	944.738	765.743
189.271	26.126	943.958	764.888
190.286	26.454	942.891	765.343
191.300	26.189	942.019	763.446
192.315	25.547	940.799	759.680
193.329	24.904	939.061	755.496
194.344	24.281	937.975	751.929
195.359	24.984	938.522	755.267
196.373	25.726	938.952	758.675
197.388	26.100	938.826	760.082
198.402	26.186	937.728	759.485
199.417	26.103	937.287	758.714
200.432	26.214	936.732	758.664
201.446	25.983	936.129	757.137
202.461	25.664	935.212	754.989
203.475	25.688	935.012	754.863
204.490	25.410	933.137	752.118
205.504	24.233	931.080	745.477
206.519	24.572	930.829	746.624
207.534	25.462	931.693	750.971
208.548	25.520	931.083	750.656
209.563	25.953	931.044	752.366
210.577	26.040	930.189	751.973
211.592	25.900	928.982	750.346
212.607	26.131	929.487	751.651
213.621	26.281	928.703	751.573
214.636	26.226	927.635	750.414
215.650	26.119	927.370	749.689
216.665	26.172	926.601	749.223
217.680	26.166	926.422	748.984
218.694	26.383	925.884	749.383
219.709	25.952	925.099	746.898
220.723	25.627	923.813	744.446
221.738	25.818	923.526	744.942
222.753	26.057	923.022	745.457
223.767	26.005	922.313	744.604
224.782	26.103	921.184	744.028
225.796	26.232	921.115	744.441
226.811	26.469	920.335	744.719
227.826	25.990	919.461	741.975
228.840	25.032	918.063	736.843
229.855	25.018	917.087	735.938
230.869	25.410	916.748	737.209
231.884	25.020	916.032	734.971
232.899	24.989	915.539	734.384
233.913	25.837	915.490	737.751
234.928	25.985	914.960	737.867
235.942	25.908	914.428	737.058
236.957	25.924	913.565	736.359
237.972	25.568	912.863	734.276
238.986	25.655	911.797	733.708
240.001	25.643	911.918	733.693
241.015	25.647	910.763	732.716
242.030	25.913	909.976	733.099
243.045	25.727	909.963	732.265
244.059	25.962	909.300	732.624
245.074	26.167	908.942	733.104
246.088	26.192	907.828	732.242
247.103	25.686	907.090	729.531
248.117	25.923	906.429	729.894
249.132	26.342	906.495	731.579
250.147	26.692	906.362	732.820
251.161	26.761	905.882	732.647
252.176	26.981	905.679	733.308
253.190	26.953	904.600	732.258
254.205	26.956	903.939	731.667
255.220	27.186	904.113	732.670
256.234	27.152	903.254	731.775
257.249	26.819	902.919	730.097
258.263	26.768	902.068	729.138
259.278	26.850	901.244	728.738
260.293	26.851	901.042	728.514
261.307	26.980	900.492	728.525
262.322	26.828	899.834	727.316
263.336	26.860	899.345	726.985
264.351	26.516	897.135	723.760
265.366	25.331	895.785	717.872
266.380	24.697	895.003	714.646
267.395	25.591	895.346	718.431
268.409	26.493	895.224	721.872
269.424	26.475	894.361	721.038
270.439	26.462	894.553	721.079
271.453	26.782	893.549	721.479
272.468	26.559	893.087	720.156
273.482	26.733	892.623	720.408
274.497	27.054	892.313	721.370
275.512	26.918	890.957	719.670
276.526	26.226	889.764	715.901
277.541	26.336	889.366	715.954
278.555	26.852	889.116	717.729
279.570	26.513	888.598	715.910
280.585	26.488	887.742	715.057
281.599	26.432	887.675	714.717
282.614	26.803	886.871	715.473
283.628	26.306	885.674	712.485
284.643	25.842	884.773	709.870
285.657	26.170	885.216	711.456
286.672	26.158	884.168	710.503
287.687	25.693	882.947	707.628
288.701	26.056	882.761	708.843
289.716	26.412	882.715	710.143
290.730	26.075	881.959	708.151
291.745	25.880	881.289	706.785
292.760	25.795	880.177	705.498
293.774	25.772	879.654	704.925
294.789	26.539	880.331	708.407
295.803	27.225	880.134	710.870
296.818	27.342	879.854	711.038
297.833	27.206	879.703	710.322
298.847	27.018	878.158	708.277
299.862	26.720	877.066	706.175
300.876	27.001	876.647	706.870
301.891	27.174	876.205	707.124
302.906	27.374	875.504	707.274
303.920	26.900	875.087	705.032
304.935	26.847	874.097	703.966
305.949	27.142	873.788	704.798
306.964	27.289	873.481	705.059
307.979	26.943	872.870	703.162
308.993	26.733	872.347	701.866
310.008	27.232	872.424	703.796
311.022	27.367	871.642	703.625
312.037	27.291	870.767	702.564
313.052	27.131	869.797	701.101
314.066	26.697	869.866	699.421
315.081	26.309	867.763	696.175
316.095	25.594	866.176	692.088
317.110	25.931	866.844	693.859
318.125	26.776	867.187	697.326
319.139	26.413	866.063	694.963
320.154	25.270	864.319	689.117
321.168	24.716	863.441	686.229
322.183	25.391	863.912	689.133
323.197	26.421	864.264	693.307
324.212	26.712	863.885	694.054
325.227	26.881	863.565	694.383
326.241	27.002	863.197	694.491
327.256	26.865	861.989	692.933
328.270	26.782	861.360	692.048
329.285	26.691	860.876	691.250
330.300	26.486	860.222	689.885
331.314	26.341	859.380	688.595
332.329	26.420	858.688	688.281
333.343	26.802	858.493	689.514
334.358	27.191	858.177	690.678
335.373	27.091	857.935	690.042
336.387	27.090	857.396	689.546
337.402	27.240	857.280	689.961
338.416	27.558	856.930	690.824
339.431	27.484	856.120	689.829
340.446	27.527	855.479	689.412
341.460	27.785	854.987	689.933
342.475	27.630	854.522	688.909
343.489	27.608	853.465	687.915
344.504	27.508	853.146	687.220
345.519	27.716	852.982	687.809
346.533	27.848	852.563	687.909
347.548	28.028	852.233	688.258
348.562	28.007	851.478	687.511
349.577	27.977	851.073	687.010
350.592	27.783	850.315	685.609
351.606	27.851	849.583	685.212
352.621	27.848	849.018	684.685
353.635	27.781	848.631	684.062
354.650	27.684	848.444	683.487
355.665	27.509	847.326	681.871
356.679	26.383	845.667	676.264
357.694	26.189	844.906	674.873
358.708	26.954	844.695	677.500
359.723	26.693	844.364	676.201
360.738	27.054	843.840	677.069
361.752	27.438	844.216	678.743
362.767	27.634	843.951	679.198
363.781	27.829	843.670	679.639
364.796	28.196	843.437	680.755
365.810	28.249	843.000	680.539
366.825	28.355	843.060	680.923
367.840	28.475	842.096	680.530
368.854	28.176	841.668	679.015
369.869	27.867	840.983	677.256
370.883	27.534	839.993	675.164
371.898	27.633	839.646	675.190
372.913	27.584	839.115	674.524
373.927	27.479	838.353	673.465
374.942	27.671	837.972	673.809
375.956	27.807	837.041	673.501
376.971	27.876	836.190	673.012
377.986	28.124	836.213	673.885
379.000	28.230	835.833	673.908
380.015	28.207	835.572	673.554
381.029	28.086	834.757	672.390
382.044	28.135	834.142	672.018
383.059	28.215	833.534	671.759
384.073	28.230	832.940	671.278
385.088	28.249	832.800	671.177
386.102	28.374	831.805	670.772
387.117	28.063	831.059	668.974
388.132	27.864	830.728	667.922
389.146	27.804	829.856	666.941
390.161	27.184	828.986	663.920
391.175	27.219	828.792	663.834
392.190	27.890	828.839	666.260
393.205	27.806	828.206	665.386
394.219	26.785	826.705	660.406
395.234	25.246	824.227	652.774
396.248	24.309	823.267	648.548
397.263	25.659	823.612	653.672
398.278	27.192	825.019	660.302
399.292	27.719	825.349	662.422
400.307	27.500	824.521	660.904
401.321	27.509	823.867	660.356
402.336	27.470	823.903	660.186
403.350	27.725	823.600	660.805
404.365	28.246	823.629	662.657
405.380	28.615	823.490	663.821
406.394	28.913	823.081	664.510
407.409	29.043	822.694	664.608
408.423	28.977	822.379	664.058
409.438	28.774	821.624	662.658
410.453	28.835	821.334	662.583
411.467	28.890	821.033	662.483
412.482	28.821	820.024	661.361
413.496	28.846	819.824	661.230
414.511	28.795	819.785	660.959
415.526	29.039	818.930	661.085
416.540	28.986	818.760	660.699
417.555	28.908	818.051	659.790
418.569	28.519	817.374	657.789
419.584	28.497	816.773	657.170
420.599	28.763	816.165	657.575
421.613	99.595	1271.537	1399.907
422.628	85.920	1337.889	1400.014
