DTS Sentinel unit serial number:	SN413079Multiplexer serial number:	ORYXHardware model number:	OX4-SRSoftware version number:	ORYX F/W v4.00 Oryx Data Collector v3.7.2.0data status	okinstallation	princeton_trtdifferential loss correction	single-endedforward channel	channel 3reverse channel	N/Adate	2019/09/17time	04:16:35forward acquisition time	60.00reverse acquisition time	0.00gamma	496.2192k internal	0.2323k external	0.2323temperature offset calibration	0.9945default loss term (dB/km)	0.3790temperature slope calibration	1.0000multiplexer offset coefficient	1.0000multiplexer slope coefficient	1.0000fibre end	0.00T internal ref (°C)	29.80T ext. ref 1 (°C)	0.14T ext. ref 2 (°C)	24.23length (m)	temperature (°C)	Stokes	anti-Stokes-747.200	287.079	0.201	-0.368
-746.185	-129.122	-0.161	0.023
-745.171	-200.000	-0.026	0.118
-744.156	335.119	-0.207	0.404
-743.142	236.300	-0.108	-0.181
-742.127	-189.328	-0.175	0.002
-741.112	132.153	0.058	-0.075
-740.098	643.647	0.054	-0.140
-739.083	-200.000	0.006	0.233
-738.069	-200.000	-0.005	0.308
-737.054	558.768	-0.214	-0.522
-736.039	-150.306	-0.352	-0.027
-735.025	17.457	-0.175	-0.140
-734.010	44.576	-0.231	0.214
-732.996	800.000	0.016	0.058
-731.981	800.000	-0.078	0.290
-730.966	800.000	-0.108	0.367
-729.952	-158.702	-0.249	0.014
-728.937	470.399	-0.083	0.188
-727.923	-200.000	0.024	-0.264
-726.908	17.401	0.138	-0.110
-725.894	800.000	0.015	-0.066
-724.879	-61.191	-0.108	-0.046
-723.864	11.328	-0.235	0.182
-722.850	-180.678	-0.304	0.006
-721.835	109.020	-0.038	0.046
-720.821	128.336	-0.154	0.198
-719.806	286.975	-0.188	-0.343
-718.791	-200.000	0.027	0.191
-717.777	-200.000	-0.020	-0.270
-716.762	60.522	-0.340	-0.339
-715.748	-112.289	-0.026	0.005
-714.733	-76.233	-0.211	0.075
-713.718	78.846	-0.121	-0.130
-712.704	-200.000	-0.079	-0.353
-711.689	-31.265	-0.355	-0.202
-710.675	-102.948	0.355	-0.085
-709.660	696.205	0.035	-0.093
-708.645	259.743	0.203	-0.353
-707.631	-200.000	-0.030	-0.270
-706.616	-200.000	0.029	0.160
-705.602	-157.627	0.214	-0.013
-704.587	-112.743	-0.244	0.049
-703.572	800.000	-0.025	-0.084
-702.558	697.997	0.123	-0.327
-701.543	86.641	-0.104	-0.115
-700.529	101.810	0.177	-0.209
-699.514	-82.075	0.271	0.089
-698.499	800.000	-0.092	0.265
-697.485	800.000	-0.071	0.259
-696.470	-126.414	0.129	0.019
-695.456	-106.378	0.517	-0.117
-694.441	-16.814	-0.161	-0.103
-693.426	114.847	-0.092	0.113
-692.412	140.675	0.131	0.174
-691.397	10.576	0.124	-0.096
-690.383	28.992	-0.200	-0.171
-689.368	-18.161	0.116	-0.073
-688.354	78.976	0.110	-0.119
-687.339	-29.167	0.157	0.091
-686.324	13.411	0.024	-0.019
-685.310	-117.950	-0.149	0.027
-684.295	67.559	-0.132	-0.136
-683.281	-130.739	-0.341	0.046
-682.266	202.305	-0.130	-0.202
-681.251	-109.030	0.289	0.062
-680.237	-83.326	0.079	-0.025
-679.222	-200.000	-0.001	-0.157
-678.208	87.642	0.109	-0.121
-677.193	-31.746	-0.238	-0.134
-676.178	117.847	-0.201	-0.249
-675.164	645.626	-0.085	-0.218
-674.149	399.345	0.068	-0.144
-673.135	141.294	-0.203	-0.271
-672.120	-45.815	0.022	-0.011
-671.105	-88.965	-0.317	-0.094
-670.091	703.902	0.030	0.079
-669.076	800.000	0.030	0.123
-668.062	-136.342	0.098	-0.012
-667.047	-17.682	0.161	-0.102
-666.032	-88.652	0.360	0.108
-665.018	800.000	-0.055	-0.183
-664.003	-87.876	-0.136	-0.041
-662.989	-4.360	0.196	0.136
-661.974	-125.545	-0.444	0.068
-660.959	39.756	-0.298	-0.269
-659.945	66.219	-0.066	-0.067
-658.930	-200.000	0.019	0.122
-657.916	-66.517	-0.241	0.096
-656.901	23.488	0.065	0.054
-655.886	-124.459	0.392	0.061
-654.872	800.000	-0.024	0.097
-653.857	800.000	0.022	-0.092
-652.843	392.818	0.029	0.060
-651.828	-113.606	-0.238	0.047
-650.814	-70.237	0.162	-0.062
-649.799	33.799	-0.144	-0.126
-648.784	685.212	-0.115	-0.301
-647.770	-200.000	0.007	-0.214
-646.755	-200.000	-0.033	-0.535
-645.741	-156.566	0.116	-0.007
-644.726	-200.000	-0.002	-0.423
-643.711	40.639	0.166	-0.150
-642.697	-200.000	-0.015	-0.382
-641.682	-131.950	-0.322	-0.042
-640.668	-26.441	0.299	-0.177
-639.653	800.000	0.051	0.152
-638.638	372.141	0.122	0.249
-637.624	-200.000	0.002	-0.154
-636.609	85.657	0.279	-0.309
-635.595	-200.000	0.020	0.150
-634.580	388.846	-0.109	0.226
-633.565	-7.853	0.175	0.119
-632.551	4.106	0.081	-0.059
-631.536	800.000	0.037	0.116
-630.522	-200.000	0.005	-0.134
-629.507	-83.082	-0.225	0.073
-628.492	-40.643	0.060	-0.031
-627.478	358.476	0.084	-0.169
-626.463	800.000	-0.019	0.066
-625.449	161.128	0.227	-0.319
-624.434	-22.860	-0.218	0.132
-623.419	-99.130	0.065	-0.016
-622.405	478.695	-0.162	0.369
-621.390	-134.494	-0.199	-0.024
-620.376	129.280	0.148	-0.190
-619.361	88.406	-0.192	-0.215
-618.346	800.000	-0.063	0.211
-617.332	-1.901	-0.059	0.042
-616.317	-69.608	-0.057	0.022
-615.303	428.842	0.115	-0.249
-614.288	-200.000	-0.044	-0.214
-613.273	-136.867	0.094	0.011
-612.259	585.476	0.054	0.132
-611.244	41.464	-0.071	-0.064
-610.230	58.420	-0.087	-0.086
-609.215	-200.000	-0.026	0.168
-608.201	229.902	-0.187	0.307
-607.186	800.000	0.015	-0.057
-606.171	109.338	-0.122	0.147
-605.157	-179.801	-0.201	0.004
-604.142	15.880	0.196	-0.155
-603.128	-71.049	0.178	0.067
-602.113	111.550	-0.254	0.307
-601.098	3.051	0.040	-0.029
-600.084	-200.000	-0.023	-0.232
-599.069	182.008	-0.252	-0.372
-598.055	32.520	0.114	-0.099
-597.040	122.651	0.173	-0.217
-596.025	800.000	-0.080	-0.251
-595.011	-200.000	-0.033	0.305
-593.996	-76.185	-0.229	0.081
-592.982	800.000	-0.128	-0.450
-591.967	151.175	-0.187	0.255
-590.952	-127.348	0.146	-0.021
-589.938	-13.757	0.288	0.187
-588.923	25.806	-0.239	0.200
-587.909	-200.000	0.006	0.112
-586.894	443.826	-0.096	0.212
-585.879	541.143	-0.090	0.216
-584.865	-69.290	0.143	0.055
-583.850	-31.708	0.219	0.123
-582.836	60.892	-0.170	-0.169
-581.821	96.829	0.054	-0.062
-580.806	157.511	0.204	-0.284
-579.792	800.000	-0.064	-0.242
-578.777	-39.641	0.246	-0.129
-577.763	7.302	-0.185	-0.139
-576.748	746.551	0.059	-0.158
-575.733	800.000	0.053	-0.219
-574.719	-200.000	0.009	-0.201
-573.704	87.071	0.111	-0.123
-572.690	310.449	0.237	-0.444
-571.675	-74.323	0.328	-0.119
-570.661	800.000	0.008	0.024
-569.646	-161.042	0.398	-0.021
-568.631	35.743	-0.230	0.203
-567.617	170.753	0.144	-0.207
-566.602	-111.362	0.197	0.040
-565.588	9.494	-0.138	-0.105
-564.573	-129.749	-0.349	-0.048
-563.558	173.928	0.206	-0.298
-562.544	-200.000	0.048	-0.256
-561.529	297.517	0.112	0.207
-560.515	-54.454	-0.249	0.113
-559.500	298.720	-0.080	0.148
-558.485	13.537	-0.134	0.104
-557.471	800.000	0.098	-0.282
-556.456	-185.287	-0.227	-0.004
-555.442	-29.965	-0.186	-0.106
-554.427	-95.030	0.211	0.057
-553.412	-95.814	0.252	-0.067
-552.398	-200.000	-0.040	-0.378
-551.383	43.916	0.179	0.164
-550.369	-200.000	-0.007	0.196
-549.354	-200.000	-0.052	0.357
-548.339	-22.090	0.318	0.194
-547.325	-54.912	-0.147	0.066
-546.310	7.019	-0.118	0.088
-545.296	800.000	0.025	0.090
-544.281	-49.453	0.227	0.109
-543.266	-53.126	-0.231	-0.106
-542.252	-82.660	-0.039	0.013
-541.237	-200.000	0.032	0.362
-540.223	446.537	-0.121	0.266
-539.208	178.864	0.155	0.227
-538.193	174.749	-0.166	0.241
-537.179	42.582	0.152	0.138
-536.164	-200.000	0.001	-0.212
-535.150	-129.404	0.306	0.043
-534.135	800.000	-0.074	0.287
-533.121	800.000	0.059	0.195
-532.106	377.106	-0.061	-0.125
-531.091	66.221	-0.242	-0.246
-530.077	66.418	0.077	0.078
-529.062	-132.382	0.118	0.015
-528.048	-33.673	0.137	-0.076
-527.033	-200.000	0.041	-0.203
-526.018	18.137	0.112	-0.089
-525.004	70.250	-0.228	-0.235
-523.989	-15.502	-0.314	-0.201
-522.975	192.964	0.104	-0.158
-521.960	-132.483	-0.152	0.020
-520.945	243.893	-0.063	0.106
-519.931	-200.000	-0.048	0.543
-518.916	36.937	0.217	0.192
-517.902	-118.981	0.042	-0.007
-516.887	-200.000	-0.002	0.109
-515.872	-200.000	-0.059	-0.414
-514.858	-27.557	-0.232	0.135
-513.843	-200.000	0.004	-0.239
-512.829	-34.954	-0.018	-0.010
-511.814	292.611	0.078	0.143
-510.799	-158.181	-0.446	0.026
-509.785	-107.943	0.218	0.047
-508.770	-200.000	-0.023	-0.176
-507.756	-200.000	0.029	0.212
-506.741	-108.820	-0.123	-0.026
-505.726	144.444	-0.084	0.112
-504.712	-83.800	-0.105	-0.034
-503.697	-119.318	-0.225	-0.039
-502.683	-40.355	-0.363	-0.189
-501.668	800.000	-0.068	-0.193
-500.653	387.053	-0.060	-0.124
-499.639	18.036	0.079	-0.063
-498.624	-110.572	0.057	0.012
-497.610	-200.000	0.045	-0.207
-496.595	56.672	-0.276	-0.269
-495.581	-120.634	0.112	-0.019
-494.566	-37.351	0.025	0.013
-493.551	-20.308	0.158	0.097
-492.537	-69.258	0.280	-0.108
-491.522	-10.937	-0.107	0.071
-490.508	65.270	-0.115	0.117
-489.493	384.924	0.098	-0.202
-488.478	111.512	-0.142	-0.171
-487.464	-200.000	-0.014	0.098
-486.449	-3.929	-0.306	0.212
-485.435	93.690	-0.209	0.236
-484.420	335.195	0.062	-0.121
-483.405	-200.000	-0.004	0.092
-482.391	800.000	-0.096	-0.419
-481.376	0.211	-0.372	-0.265
-480.362	587.803	-0.076	0.187
-479.347	-149.823	-0.067	0.005
-478.332	-164.298	0.113	-0.005
-477.318	-12.942	-0.370	0.240
-476.303	-123.626	0.343	0.054
-475.289	-153.712	-0.266	0.018
-474.274	800.000	0.021	-0.076
-473.259	651.390	0.067	0.172
-472.245	53.607	0.107	-0.102
-471.230	-200.000	-0.021	0.200
-470.216	139.475	-0.039	0.052
-469.201	-90.397	0.265	-0.077
-468.186	121.423	-0.120	-0.149
-467.172	800.000	0.084	-0.281
-466.157	-21.280	-0.109	0.067
-465.143	262.140	-0.120	0.207
-464.128	-140.682	0.200	0.021
-463.113	335.224	-0.068	0.132
-462.099	-74.351	-0.173	-0.062
-461.084	-116.911	0.034	-0.006
-460.070	-160.722	0.034	0.002
-459.055	239.354	0.106	0.177
-458.040	205.179	-0.051	0.079
-457.026	267.444	0.029	-0.051
-456.011	-135.283	0.183	0.022
-454.997	-200.000	-0.030	-0.183
-453.982	800.000	-0.045	0.172
-452.968	257.424	0.114	0.196
-451.953	-103.851	-0.228	0.053
-450.938	72.411	0.110	0.115
-449.924	-1.993	0.258	-0.181
-448.909	-152.531	0.430	0.031
-447.895	-200.000	-0.017	-0.160
-446.880	561.359	-0.075	-0.182
-445.865	-51.508	-0.266	0.124
-444.851	27.677	0.161	-0.135
-443.836	800.000	-0.050	0.183
-442.822	-200.000	-0.039	0.305
-441.807	291.819	0.071	0.128
-440.792	-165.020	-0.118	0.005
-439.778	20.378	0.186	0.150
-438.763	-18.267	-0.074	0.046
-437.749	-200.000	-0.007	0.182
-436.734	-96.624	-0.057	-0.015
-435.719	-200.000	0.007	-0.041
-434.705	542.072	-0.052	0.124
-433.690	-29.978	0.056	0.032
-432.676	-49.714	0.312	-0.148
-431.661	800.000	0.053	0.173
-430.646	-200.000	-0.032	0.156
-429.632	-74.494	-0.208	-0.075
-428.617	88.488	0.086	-0.095
-427.603	169.705	0.156	-0.222
-426.588	-97.406	-0.177	-0.046
-425.573	-28.989	-0.104	0.059
-424.559	506.229	-0.083	0.193
-423.544	800.000	-0.063	-0.183
-422.530	33.054	0.194	-0.167
-421.515	-50.807	0.152	-0.071
-420.500	-200.000	0.027	0.302
-419.486	-18.003	-0.161	-0.100
-418.471	800.000	0.006	-0.024
-417.457	-200.000	-0.040	-0.181
-416.442	-69.054	0.449	-0.172
-415.428	-66.450	0.100	-0.040
-414.413	222.066	0.030	0.047
-413.398	331.778	-0.023	0.044
-412.384	61.056	0.134	-0.133
-411.369	-138.737	0.384	0.042
-410.355	534.389	0.039	0.093
-409.340	44.258	-0.221	0.202
-408.325	-200.000	-0.050	0.421
-407.311	-200.000	0.007	0.288
-406.296	-104.060	-0.082	0.019
-405.282	-59.274	-0.142	-0.061
-404.267	90.393	-0.183	0.205
-403.252	95.238	0.290	0.329
-402.238	-144.665	-0.193	0.018
-401.223	177.854	-0.144	-0.209
-400.209	-11.577	0.047	-0.031
-399.194	-47.406	-0.242	0.117
-398.179	69.106	0.255	-0.261
-397.165	-38.660	0.247	0.130
-396.150	331.756	-0.118	-0.227
-395.136	491.683	-0.208	-0.474
-394.121	124.708	-0.114	-0.143
-393.106	-136.274	-0.272	0.032
-392.092	-103.514	0.177	0.042
-391.077	-42.259	-0.189	-0.096
-390.063	800.000	-0.093	-0.287
-389.048	-82.866	0.347	0.112
-388.033	-25.304	-0.103	-0.061
-387.019	-20.797	0.315	-0.192
-386.004	271.902	-0.113	0.198
-384.990	251.045	0.158	0.267
-383.975	-178.237	-0.332	0.008
-382.960	-167.287	0.188	-0.008
-381.946	-200.000	-0.028	0.221
-380.931	-200.000	-0.049	-0.322
-379.917	-125.234	-0.389	-0.059
-378.902	-4.261	-0.149	0.103
-377.888	-146.816	-0.234	0.020
-376.873	800.000	-0.080	0.230
-375.858	800.000	-0.102	0.312
-374.844	311.316	0.060	-0.112
-373.829	159.200	-0.143	0.197
-372.815	800.000	0.055	-0.152
-371.800	-200.000	0.011	-0.245
-370.785	67.494	0.206	-0.210
-369.771	-200.000	-0.000	-0.093
-368.756	43.477	-0.166	0.151
-367.742	148.441	-0.191	0.256
-366.727	165.262	0.034	-0.047
-365.712	-169.547	-0.226	0.008
-364.698	29.909	-0.085	0.072
-363.683	-79.013	-0.355	0.120
-362.669	-200.000	0.012	0.167
-361.654	99.478	-0.184	-0.212
-360.639	29.406	-0.098	0.083
-359.625	800.000	-0.092	-0.291
-358.610	27.619	-0.131	-0.109
-357.596	-12.713	0.212	0.137
-356.581	800.000	-0.052	0.171
-355.566	-200.000	-0.049	0.380
-354.552	420.421	-0.152	-0.324
-353.537	-200.000	-0.008	0.071
-352.523	800.000	-0.038	0.114
-351.508	-3.439	-0.142	0.098
-350.493	346.353	-0.231	0.452
-349.479	36.646	0.164	-0.144
-348.464	800.000	-0.023	0.095
-347.450	-93.213	-0.062	0.017
-346.435	75.524	0.079	0.083
-345.420	-200.000	-0.044	0.232
-344.406	701.989	-0.118	-0.310
-343.391	-179.716	-0.301	-0.006
-342.377	-97.237	0.209	-0.054
-341.362	800.000	0.104	-0.383
-340.348	229.469	0.087	0.140
-339.333	-179.740	0.315	-0.007
-338.318	381.375	0.102	-0.207
-337.304	-58.403	-0.044	-0.019
-336.289	-200.000	-0.004	-0.031
-335.275	-136.754	0.230	0.026
-334.260	-145.712	-0.323	-0.029
-333.245	-95.757	0.201	0.053
-332.231	-3.718	-0.267	-0.185
-331.216	-76.959	0.118	0.041
-330.202	-200.000	0.009	0.109
-329.187	-200.000	0.022	-0.206
-328.172	-144.318	-0.096	0.009
-327.158	-101.602	-0.261	-0.063
-326.143	-127.789	-0.151	-0.022
-325.129	81.433	0.191	-0.206
-324.114	20.105	0.248	-0.199
-323.099	564.077	-0.112	-0.270
-322.085	800.000	-0.063	0.187
-321.070	406.814	0.108	-0.227
-320.056	133.460	0.089	-0.115
-319.041	-200.000	-0.015	-0.168
-318.026	-200.000	0.075	0.571
-317.012	-200.000	0.077	-0.341
-315.997	-73.517	-0.323	0.117
-314.983	149.215	0.222	0.298
-313.968	74.093	0.188	0.196
-312.953	800.000	0.003	-0.009
-311.939	-27.569	0.155	-0.089
-310.924	426.470	0.119	0.256
-309.910	-87.316	-0.190	0.057
-308.895	667.121	0.063	-0.163
-307.880	-140.008	-0.108	-0.011
-306.866	39.094	0.271	-0.241
-305.851	306.054	0.052	-0.097
-304.837	16.380	0.192	0.150
-303.822	-106.467	-0.361	0.080
-302.807	36.571	0.290	-0.254
-301.793	-200.000	0.080	-0.358
-300.778	355.329	-0.142	0.281
-299.764	-43.631	0.079	0.040
-298.749	101.473	0.112	-0.129
-297.735	-143.091	-0.260	0.025
-296.720	144.487	0.064	0.085
-295.705	-142.655	0.324	-0.031
-294.691	-138.441	0.279	0.030
-293.676	-200.000	-0.005	0.045
-292.662	134.147	-0.066	-0.085
-291.647	-22.043	0.216	0.130
-290.632	-83.256	0.260	0.083
-289.618	-91.883	0.512	0.144
-288.603	181.932	0.034	0.049
-287.589	-79.991	0.268	-0.089
-286.574	-96.606	0.081	0.021
-285.559	44.111	0.152	-0.138
-284.545	-200.000	0.031	-0.184
-283.530	-149.188	0.359	-0.028
-282.516	-148.857	-0.150	0.012
-281.501	800.000	-0.062	0.236
-280.486	-200.000	-0.028	-0.287
-279.472	800.000	0.016	0.053
-278.457	-13.191	-0.094	0.061
-277.443	800.000	0.063	-0.246
-276.428	44.767	0.067	-0.061
-275.413	151.170	0.161	-0.217
-274.399	800.000	0.045	-0.170
-273.384	-106.998	-0.100	0.022
-272.370	518.345	-0.052	0.120
-271.355	-42.348	0.130	0.066
-270.340	-105.737	0.158	0.035
-269.326	-19.810	-0.363	0.222
-268.311	800.000	-0.114	0.339
-267.297	81.249	0.147	-0.158
-266.282	-200.000	-0.018	-0.221
-265.267	154.747	-0.075	-0.102
-264.253	-11.471	0.054	-0.035
-263.238	-27.369	-0.206	-0.119
-262.224	-5.583	-0.103	0.070
-261.209	90.052	-0.126	0.140
-260.195	-20.971	0.285	-0.173
-259.180	7.651	-0.140	-0.104
-258.165	-90.563	0.046	0.013
-257.151	345.768	-0.129	0.251
-256.136	-38.302	0.300	-0.157
-255.122	-6.709	-0.220	0.148
-254.107	-90.350	-0.117	-0.034
-253.092	172.182	-0.060	0.085
-252.078	-200.000	0.009	0.149
-251.063	378.389	-0.023	-0.046
-250.049	-200.000	0.005	0.136
-249.034	-122.233	0.472	0.077
-248.019	-200.000	-0.019	0.211
-247.005	148.097	0.102	0.136
-245.990	602.180	-0.052	0.128
-244.976	544.116	0.020	-0.048
-243.961	160.434	0.168	0.231
-242.946	199.658	0.083	0.126
-241.932	-113.681	-0.058	0.011
-240.917	-112.245	-0.166	-0.033
-239.903	-81.296	0.149	0.049
-238.888	-200.000	0.079	0.517
-237.873	-200.000	0.011	0.078
-236.859	-31.587	0.138	-0.077
-235.844	800.000	0.074	0.272
-234.830	-60.449	-0.152	0.064
-233.815	-49.173	0.414	-0.196
-232.800	144.499	0.122	0.162
-231.786	-1.081	0.084	-0.059
-230.771	-76.637	-0.214	0.074
-229.757	-67.850	-0.142	0.055
-228.742	-159.824	0.109	0.006
-227.727	-200.000	-0.076	0.383
-226.713	689.421	-0.057	0.148
-225.698	-87.714	-0.369	0.110
-224.684	-200.000	0.007	-0.129
-223.669	-136.063	0.208	0.024
-222.655	-200.000	0.012	-0.131
-221.640	-200.000	0.005	0.234
-220.625	204.696	0.168	0.257
-219.611	49.220	-0.162	0.151
-218.596	800.000	0.090	0.256
-217.582	800.000	0.055	0.156
-216.567	124.981	0.129	0.161
-215.552	-73.517	0.258	0.093
-214.538	-89.491	-0.096	-0.028
-213.523	-68.257	-0.291	-0.112
-212.509	36.725	0.209	0.182
-211.494	-37.245	0.160	-0.085
-210.479	-11.312	0.313	-0.204
-209.465	235.456	0.044	-0.072
-208.450	800.000	-0.070	0.301
-207.436	158.175	0.182	-0.249
-206.421	194.083	0.024	0.035
-205.406	-74.496	-0.390	0.139
-204.392	-116.381	0.135	-0.025
-203.377	-25.226	-0.051	0.030
-202.363	800.000	-0.037	-0.146
-201.348	-82.689	-0.441	-0.141
-200.333	278.003	-0.115	-0.203
-199.319	239.587	-0.133	-0.218
-198.304	-200.000	0.009	0.054
-197.290	43.013	0.108	0.097
-196.275	-7.224	-0.126	-0.085
-195.260	430.628	-0.021	0.044
-194.246	53.962	-0.123	-0.117
-193.231	800.000	0.039	0.118
-192.217	-69.851	-0.273	0.103
-191.202	-31.342	0.077	0.043
-190.187	-200.000	0.003	0.265
-189.173	401.526	-0.102	0.211
-188.158	-65.500	0.243	0.097
-187.144	50.304	-0.159	-0.149
-186.129	109.375	-0.049	-0.058
-185.114	-116.988	0.166	0.030
-184.100	402.742	0.070	-0.146
-183.085	-200.000	-0.062	-0.335
-182.071	455.135	-0.154	-0.337
-181.056	800.000	0.047	0.136
-180.042	800.000	0.078	-0.221
-179.027	679.828	0.074	-0.189
-178.012	-200.000	-0.002	-0.128
-176.998	777.033	0.041	-0.111
-175.983	-121.047	0.290	-0.048
-174.969	127.556	-0.229	0.288
-173.954	59.543	-0.161	-0.157
-172.939	103.939	-0.095	0.111
-171.925	-11.906	-0.044	-0.028
-170.910	135.720	0.216	0.277
-169.896	128.310	-0.138	0.174
-168.881	6.384	-0.224	-0.164
-167.866	83.358	0.166	0.178
-166.852	-200.000	0.011	0.293
-165.837	-200.000	-0.004	-0.151
-164.823	-200.000	0.046	0.204
-163.808	-142.916	-0.291	0.028
-162.793	-82.119	-0.201	-0.065
-161.779	10.923	0.143	0.108
-160.764	-200.000	0.017	-0.078
-159.750	-85.503	0.120	0.037
-158.735	-36.165	0.351	-0.187
-157.720	-200.000	-0.019	-0.127
-156.706	-2.682	0.116	0.080
-155.691	136.260	-0.186	-0.239
-154.677	-27.182	0.239	-0.138
-153.662	800.000	-0.057	0.181
-152.647	-39.950	-0.063	0.033
-151.633	-35.677	-0.141	0.076
-150.618	9.560	-0.112	-0.083
-149.604	-109.136	0.239	-0.050
-148.589	-200.000	0.051	0.298
-147.574	-129.960	0.225	0.030
-146.560	317.665	0.058	-0.109
-145.545	25.004	0.128	0.105
-144.531	623.372	-0.093	0.231
-143.516	65.431	-0.039	-0.039
-142.502	97.509	-0.052	0.059
-141.487	-200.000	-0.053	0.229
-140.472	2.088	0.132	0.094
-139.458	166.875	0.156	-0.218
-138.443	82.636	0.134	0.143
-137.429	40.539	0.159	0.141
-136.414	74.883	-0.415	0.431
-135.399	-200.000	-0.010	0.164
-134.385	1.049	0.125	0.088
-133.370	86.885	0.101	-0.110
-132.356	736.197	-0.096	0.253
-131.341	-128.772	0.244	0.034
-130.326	-18.784	0.126	-0.077
-129.312	-111.417	-0.207	-0.042
-128.297	800.000	0.021	-0.086
-127.283	800.000	-0.074	0.262
-126.268	-200.000	-0.049	-0.289
-125.253	-200.000	-0.030	-0.205
-124.239	222.199	-0.097	0.153
-123.224	-128.920	-0.166	-0.023
-122.210	126.293	-0.226	0.282
-121.195	-23.985	0.228	0.134
-120.180	800.000	0.120	0.352
-119.166	-23.128	0.466	-0.277
-118.151	133.136	-0.184	-0.234
-117.137	800.000	-0.074	-0.289
-116.122	800.000	0.096	0.281
-115.107	800.000	0.076	-0.212
-114.093	164.199	-0.129	0.179
-113.078	-71.692	0.321	-0.118
-112.064	-180.676	0.189	-0.004
-111.049	-200.000	0.002	-0.207
-110.034	-200.000	-0.060	-0.269
-109.020	-51.284	-0.132	-0.061
-108.005	588.526	0.034	-0.081
-106.991	209.180	0.080	-0.124
-105.976	-26.749	-0.157	-0.091
-104.962	-200.000	-0.019	0.087
-103.947	9.971	0.188	-0.141
-102.932	187.081	-0.089	0.130
-101.918	449.401	-0.098	-0.212
-100.903	-118.297	0.305	-0.053
-99.889	-13.235	-0.058	-0.037
-98.874	-89.241	0.428	-0.124
-97.859	702.274	0.171	-0.443
-96.845	-131.855	0.486	0.063
-95.830	-200.000	0.003	-0.129
-94.816	67.573	-0.261	0.262
-93.801	-200.000	0.031	0.204
-92.786	21.524	0.093	-0.075
-91.772	314.717	0.078	-0.145
-90.757	800.000	0.076	0.289
-89.743	501.698	-0.031	-0.071
-88.728	256.145	0.126	-0.214
-87.713	5.822	-0.269	-0.196
-86.699	12.762	0.130	-0.099
-85.684	129.598	0.178	0.224
-84.670	-35.242	-0.334	0.179
-83.655	276.144	-0.046	-0.081
-82.640	-200.000	0.048	0.386
-81.626	2.191	0.076	0.054
-80.611	-105.650	-0.224	-0.050
-79.597	800.000	0.036	-0.145
-78.582	-200.000	0.113	-0.493
-77.567	9.424	0.080	-0.059
-76.553	-127.731	0.252	-0.036
-75.538	105.991	-0.253	0.294
-74.524	-1.135	-0.138	0.096
-73.509	800.000	-0.087	0.295
-72.494	41.091	-0.196	0.174
-71.480	75.324	0.148	-0.154
-70.465	-200.000	0.007	-0.094
-69.451	800.000	-0.061	-0.167
-68.436	-64.108	0.137	0.055
-67.422	16.896	0.158	-0.123
-66.407	-23.548	-0.290	0.171
-65.392	800.000	0.192	0.616
-64.378	800.000	0.071	0.246
-63.363	23.931	-0.156	0.127
-62.349	-68.935	-0.104	-0.039
-61.334	163.755	-0.755	-1.045
-60.319	12.527	0.534	0.405
-59.305	-200.000	0.005	-1.410
-58.290	103.851	0.706	0.816
-57.276	655.349	0.621	1.569
-56.261	-200.000	107.564	589.109
-55.246	451.872	1472.408	3198.769
-54.232	147.437	2656.708	3516.648
-53.217	105.404	2181.029	2532.417
-52.203	40.079	1710.515	1510.978
-51.188	32.942	1523.969	1297.320
-50.173	30.554	1497.468	1258.569
-49.159	51.361	1552.037	1448.441
-48.144	51.921	1569.250	1468.310
-47.130	33.103	1525.831	1299.810
-46.115	30.083	1510.668	1266.241
-45.100	29.950	1507.093	1262.289
-44.086	29.882	1505.489	1260.429
-43.071	29.852	1503.158	1258.222
-42.057	29.811	1501.665	1256.648
-41.042	29.830	1500.512	1255.758
-40.027	29.709	1499.192	1253.788
-39.013	29.805	1497.095	1252.635
-37.998	29.762	1495.916	1251.308
-36.984	29.748	1494.959	1250.363
-35.969	29.826	1493.561	1249.672
-34.954	29.780	1491.801	1247.834
-33.940	29.699	1491.054	1246.616
-32.925	29.693	1489.906	1245.567
-31.911	29.813	1488.563	1245.202
-30.896	29.838	1487.147	1244.133
-29.881	29.848	1486.254	1243.406
-28.867	29.741	1484.859	1241.474
-27.852	29.863	1483.099	1240.771
-26.838	29.896	1481.649	1239.725
-25.823	29.826	1480.108	1237.924
-24.809	29.847	1478.601	1236.752
-23.794	29.896	1477.278	1235.923
-22.779	29.775	1476.057	1234.046
-21.765	29.848	1474.660	1233.314
-20.750	29.812	1473.626	1232.160
-19.736	29.907	1472.328	1231.661
-18.721	29.879	1470.904	1230.231
-17.706	29.818	1470.226	1229.215
-16.692	29.859	1468.974	1228.390
-15.677	29.871	1467.454	1227.150
-14.663	29.809	1467.596	1226.805
-13.648	29.754	1465.884	1224.960
-12.633	29.766	1465.060	1224.304
-11.619	29.852	1464.200	1224.107
-10.604	29.782	1463.383	1222.912
-9.590	29.729	1462.864	1222.078
-8.575	29.724	1461.812	1221.122
-7.560	29.788	1460.326	1220.254
-6.546	29.712	1460.070	1219.487
-5.531	29.756	1459.268	1219.062
-4.517	29.672	1458.288	1217.642
-3.502	29.797	1457.106	1217.424
-2.487	29.790	1455.826	1216.263
-1.473	29.744	1455.052	1215.269
-0.458	29.776	1453.290	1213.959
0.556	27.949	1444.091	1202.740
1.571	24.989	1417.785	1161.561
2.586	21.403	1356.124	1088.658
3.600	19.674	1272.886	1011.633
4.615	18.604	1228.094	969.906
5.629	16.239	1172.008	912.749
6.644	8.230	1086.562	805.829
7.659	1.405	1046.090	742.470
8.673	0.391	1040.151	733.262
9.688	0.009	1037.153	729.232
10.702	0.024	1036.045	728.459
11.717	0.116	1033.789	727.252
12.731	2.698	1035.934	741.190
13.746	10.807	1047.412	788.834
14.761	16.963	1054.859	824.383
15.775	17.423	1054.644	826.377
16.790	16.551	1052.094	820.078
17.804	15.362	1050.635	813.110
18.819	14.624	1048.097	807.501
19.834	14.174	1046.732	804.207
20.848	13.850	1045.882	801.917
21.863	13.665	1045.216	800.443
22.877	13.477	1044.415	798.851
23.892	13.146	1043.789	796.705
24.907	13.133	1042.647	795.701
25.921	12.991	1042.408	794.762
26.936	13.098	1041.702	794.669
27.950	13.259	1040.715	794.618
28.965	13.175	1040.006	793.607
29.980	13.332	1039.229	793.697
30.994	13.276	1038.098	792.491
32.009	13.348	1037.135	792.031
33.023	13.456	1036.467	791.969
34.038	13.324	1035.861	790.807
35.053	13.302	1035.084	790.034
36.067	13.255	1034.287	789.133
37.082	13.310	1033.167	788.472
38.096	13.230	1032.640	787.619
39.111	13.335	1031.923	787.504
40.126	13.372	1031.183	787.044
41.140	13.336	1029.554	785.559
42.155	13.314	1028.628	784.682
43.169	13.162	1028.078	783.470
44.184	13.081	1026.957	782.165
45.199	13.073	1026.016	781.339
46.213	13.129	1024.997	780.758
47.228	13.242	1023.702	780.237
48.242	13.209	1022.983	779.464
49.257	13.324	1021.961	779.158
50.271	13.168	1021.422	777.944
51.286	13.285	1020.225	777.512
52.301	13.246	1019.604	776.790
53.315	13.286	1018.605	776.147
54.330	13.277	1017.725	775.367
55.344	13.180	1016.968	774.265
56.359	13.221	1015.898	773.574
57.374	13.253	1014.642	772.699
58.388	13.328	1013.662	772.235
59.403	13.136	1013.824	771.390
60.417	12.960	1012.802	769.723
61.432	13.099	1012.277	769.908
62.447	13.087	1010.950	768.773
63.461	13.039	1010.679	768.275
64.476	13.035	1009.607	767.374
65.490	12.995	1008.475	766.258
66.505	13.027	1008.038	766.008
67.520	12.983	1007.294	765.173
68.534	13.212	1005.979	765.166
69.549	13.106	1005.880	764.531
70.563	13.141	1005.108	764.040
71.578	13.042	1004.516	763.061
72.593	13.128	1003.300	762.467
73.607	13.023	1002.207	761.087
74.622	12.919	1001.515	760.015
75.636	13.041	1000.208	759.519
76.651	13.090	1000.028	759.537
77.666	13.045	999.297	758.708
78.680	12.985	998.302	757.610
79.695	13.008	997.858	757.312
80.709	13.048	997.491	757.149
81.724	13.052	996.450	756.313
82.739	13.157	995.670	756.135
83.753	13.069	994.948	755.118
84.768	13.146	994.225	754.852
85.782	13.207	993.614	754.601
86.797	13.387	992.796	754.734
87.812	13.208	992.169	753.376
88.826	13.373	990.597	752.863
89.841	13.239	990.455	752.080
90.855	13.144	989.692	751.001
91.870	13.199	989.145	750.769
92.884	13.284	987.962	750.194
93.899	13.324	987.145	749.688
94.914	13.384	986.610	749.486
95.928	13.400	985.823	748.893
96.943	13.445	984.675	748.158
97.957	13.322	984.827	747.652
98.972	13.291	983.818	746.683
99.987	13.404	982.824	746.370
101.001	13.317	982.493	745.660
102.016	13.288	981.855	744.979
103.030	13.447	980.317	744.462
104.045	13.376	979.505	743.462
105.060	13.485	978.383	743.033
106.074	13.389	977.430	741.810
107.089	13.226	976.802	740.539
108.103	13.163	976.329	739.834
109.118	13.210	975.086	739.035
110.133	13.153	974.394	738.193
111.147	13.076	973.406	737.034
112.162	13.146	972.675	736.730
113.176	13.169	971.764	736.075
114.191	13.169	970.856	735.324
115.206	13.245	970.079	735.007
116.220	13.259	969.478	734.547
117.235	13.231	968.034	733.266
118.249	13.259	967.555	732.959
119.264	13.289	966.574	732.286
120.279	13.180	966.123	731.396
121.293	13.201	965.283	730.791
122.308	13.211	964.494	730.171
123.322	13.063	963.545	728.733
124.337	13.014	962.687	727.804
125.352	13.114	961.802	727.512
126.366	13.230	960.238	726.775
127.381	13.102	959.591	725.659
128.395	13.135	958.431	724.863
129.410	13.172	957.488	724.249
130.424	13.175	956.640	723.554
131.439	13.217	955.340	722.693
132.454	13.221	954.898	722.309
133.468	13.182	954.281	721.608
134.483	13.310	953.313	721.372
135.497	13.277	952.835	720.804
136.512	13.285	952.140	720.247
137.527	13.196	951.789	719.531
138.541	13.253	950.628	718.836
139.556	13.206	949.715	717.881
140.570	13.356	948.757	717.744
141.585	13.220	948.583	716.960
142.600	13.358	947.620	716.765
143.614	13.351	946.662	715.947
144.629	13.435	945.437	715.321
145.643	13.571	945.249	715.703
146.658	13.458	944.478	714.565
147.673	13.380	943.509	713.433
148.687	13.309	942.736	712.479
149.702	13.351	941.932	711.993
150.716	13.381	940.856	711.242
151.731	13.203	940.368	710.046
152.746	13.413	939.072	709.905
153.760	13.277	938.742	709.010
154.775	13.353	937.477	708.320
155.789	13.384	937.096	708.101
156.804	13.412	936.585	707.772
157.819	13.456	936.159	707.574
158.833	13.386	935.513	706.724
159.848	13.421	934.521	706.064
160.862	13.600	933.468	705.968
161.877	13.542	932.751	705.117
162.892	13.417	931.865	703.851
163.906	13.400	931.513	703.451
164.921	13.393	929.976	702.198
165.935	13.525	929.376	702.243
166.950	13.346	928.482	700.749
167.964	13.480	927.611	700.597
168.979	13.382	926.836	699.536
169.994	13.371	925.991	698.788
171.008	13.374	925.087	698.057
172.023	13.577	924.436	698.358
173.037	13.519	923.911	697.654
174.052	13.562	922.870	696.988
175.067	13.640	922.114	696.686
176.081	13.551	921.444	695.742
177.096	13.497	920.549	694.779
178.110	13.516	919.795	694.229
179.125	13.537	919.289	693.873
180.140	13.552	918.062	692.950
181.154	13.488	917.464	692.166
182.169	13.515	917.271	692.075
183.183	13.606	916.474	691.790
184.198	13.799	915.424	691.744
185.213	13.598	914.930	690.471
186.227	13.723	914.523	690.624
187.242	13.699	913.772	689.897
188.256	13.796	912.984	689.640
189.271	13.781	912.602	689.229
190.286	13.799	911.759	688.607
191.300	13.624	910.791	687.088
192.315	13.649	910.289	686.753
193.329	13.678	909.339	686.097
194.344	13.592	908.951	685.388
195.359	13.618	908.624	685.187
196.373	13.755	907.924	685.164
197.388	13.831	906.786	684.560
198.402	13.854	906.287	684.215
199.417	13.891	906.440	684.425
200.432	14.082	905.580	684.499
201.446	13.969	905.275	683.746
202.461	14.093	904.823	683.852
203.475	14.086	904.453	683.481
204.490	14.038	903.910	682.814
205.504	13.977	902.533	681.463
206.519	13.942	902.016	680.869
207.534	14.042	901.070	680.506
208.548	13.926	900.658	679.659
209.563	14.073	899.653	679.443
210.577	13.941	898.898	678.273
211.592	14.150	898.644	678.874
212.607	13.988	898.189	677.808
213.621	14.056	897.624	677.600
214.636	14.092	897.164	677.339
215.650	14.103	896.229	676.618
216.665	14.203	895.635	676.518
217.680	14.093	895.598	675.980
218.694	14.231	894.696	675.803
219.709	14.229	894.132	675.307
220.723	14.326	893.729	675.338
221.738	14.295	892.829	674.472
222.753	14.259	891.990	673.632
223.767	14.324	891.220	673.252
224.782	14.231	890.647	672.384
225.796	14.278	890.091	672.095
226.811	14.279	889.651	671.707
227.826	14.280	888.759	670.980
228.840	14.456	887.539	670.706
229.855	14.262	887.147	669.570
230.869	14.276	886.796	669.305
231.884	14.393	886.049	669.151
232.899	14.232	885.227	667.825
233.913	14.292	884.388	667.371
234.928	14.305	883.816	666.935
235.942	14.346	883.313	666.662
236.957	14.259	882.523	665.656
237.972	14.345	881.708	665.328
238.986	14.256	881.340	664.635
240.001	14.390	880.325	664.343
241.015	14.300	879.933	663.630
242.030	14.383	878.914	663.133
243.045	14.480	878.363	663.046
244.059	14.356	877.948	662.182
245.074	14.426	877.157	661.805
246.088	14.505	876.842	661.822
247.103	14.484	876.110	661.129
248.117	14.603	875.328	660.949
249.132	14.473	875.028	660.152
250.147	14.517	874.811	660.104
251.161	14.708	873.933	660.135
252.176	14.849	873.091	659.998
253.190	14.798	872.365	659.189
254.205	14.728	872.087	658.644
255.220	14.850	871.662	658.747
256.234	14.782	870.996	657.919
257.249	14.794	870.096	657.228
258.263	14.719	869.957	656.769
259.278	14.820	869.284	656.599
260.293	14.882	868.638	656.296
261.307	14.834	868.197	655.717
262.322	14.988	867.530	655.759
263.336	14.971	866.926	655.179
264.351	14.997	866.205	654.678
265.366	14.913	865.388	653.674
266.380	15.153	864.907	654.189
267.395	14.981	864.417	653.092
268.409	15.055	863.320	652.490
269.424	15.154	862.307	652.054
270.439	15.102	861.840	651.439
271.453	15.136	861.238	651.058
272.468	15.048	860.594	650.175
273.482	15.037	859.971	649.603
274.497	14.999	859.607	649.123
275.512	15.139	858.649	648.884
276.526	15.066	857.851	647.942
277.541	15.146	857.181	647.687
278.555	15.021	856.884	646.924
279.570	15.182	856.045	646.853
280.585	15.159	855.779	646.507
281.599	15.247	855.248	646.388
282.614	15.322	854.425	645.998
283.628	15.314	853.609	645.293
284.643	15.191	853.352	644.569
285.657	15.221	852.793	644.207
286.672	15.273	852.786	644.343
287.687	15.240	852.002	643.565
288.701	15.172	851.821	643.111
289.716	15.283	850.783	642.695
290.730	15.203	850.487	642.108
291.745	15.231	849.711	641.573
292.760	15.349	848.892	641.349
293.774	15.310	848.124	640.563
294.789	15.342	848.113	640.623
295.803	15.478	846.968	640.218
296.818	15.398	846.591	639.573
297.833	15.355	845.837	638.781
298.847	15.343	845.445	638.382
299.862	15.365	844.625	637.790
300.876	15.344	844.073	637.240
301.891	15.392	843.617	637.020
302.906	15.566	842.594	636.852
303.920	15.640	842.115	636.712
304.935	15.592	841.406	635.938
305.949	15.648	841.272	635.994
306.964	15.691	840.269	635.340
307.979	15.578	839.753	634.468
308.993	15.714	839.001	634.358
310.008	15.704	838.462	633.855
311.022	15.719	838.204	633.659
312.037	15.599	837.824	632.867
313.052	15.605	837.376	632.495
314.066	15.782	836.314	632.302
315.081	15.728	835.614	631.513
316.095	15.690	835.031	630.872
317.110	15.658	834.929	630.622
318.125	15.566	834.333	629.771
319.139	15.569	833.818	629.336
320.154	15.810	833.186	629.708
321.168	15.668	832.740	628.781
322.183	15.771	832.020	628.566
323.197	15.687	831.544	627.840
324.212	15.756	831.075	627.685
325.227	15.694	830.882	627.256
326.241	15.762	829.976	626.770
327.256	15.793	829.353	626.358
328.270	15.834	828.787	626.027
329.285	15.806	828.487	625.643
330.300	15.831	827.809	625.167
331.314	15.689	827.372	624.253
332.329	15.692	826.847	623.813
333.343	15.972	825.922	624.098
334.358	16.042	825.254	623.799
335.373	15.993	824.639	623.095
336.387	16.064	824.411	623.131
337.402	16.028	823.807	622.488
338.416	15.952	823.392	621.838
339.431	15.874	822.915	621.136
340.446	16.023	822.465	621.289
341.460	16.099	821.560	620.831
342.475	15.987	821.320	620.180
343.489	16.177	820.659	620.328
344.504	16.203	820.110	619.953
345.519	16.123	819.943	619.478
346.533	16.176	819.560	619.328
347.548	16.265	818.389	618.714
348.562	16.147	817.784	617.770
349.577	16.286	817.390	617.928
350.592	16.111	817.452	617.278
351.606	16.144	816.775	616.833
352.621	16.181	815.898	616.250
353.635	16.133	815.798	615.945
354.650	16.069	815.501	615.432
355.665	16.195	814.847	615.344
356.679	16.394	814.304	615.606
357.694	16.187	813.949	614.529
358.708	16.266	813.147	614.156
359.723	16.408	812.246	613.939
360.738	16.426	812.021	613.778
361.752	16.361	811.685	613.235
362.767	16.314	811.000	612.491
363.781	16.275	811.118	612.386
364.796	16.458	810.269	612.351
365.810	16.321	810.219	611.766
366.825	16.491	809.409	611.714
367.840	16.504	809.006	611.404
368.854	16.568	809.059	611.621
369.869	16.629	808.286	611.203
370.883	16.595	807.897	610.730
371.898	16.452	807.374	609.764
372.913	16.483	806.819	609.403
373.927	16.530	806.144	609.009
374.942	16.597	805.554	608.750
375.956	16.741	804.316	608.278
376.971	16.793	803.737	607.975
377.986	16.749	803.352	607.471
379.000	16.865	803.229	607.740
380.015	16.799	803.057	607.318
381.029	16.752	802.231	606.472
382.044	16.817	801.699	606.249
383.059	16.736	800.863	605.276
384.073	16.873	800.593	605.505
385.088	16.800	800.145	604.853
386.102	16.776	799.343	604.106
387.117	16.788	798.770	603.665
388.132	16.650	798.848	603.177
389.146	16.638	798.313	602.680
390.161	16.870	797.728	603.009
391.175	16.882	797.383	602.735
392.190	16.957	796.806	602.513
393.205	17.083	796.189	602.443
394.219	16.866	796.227	601.648
395.234	16.935	795.257	601.106
396.248	16.883	795.110	600.755
397.263	16.811	794.796	600.211
398.278	16.706	794.271	599.389
399.292	16.874	793.408	599.279
400.307	16.785	793.279	598.815
401.321	16.900	792.736	598.757
402.336	16.840	792.675	598.448
403.350	16.810	792.215	597.940
404.365	16.879	791.410	597.522
405.380	17.021	791.305	597.891
406.394	17.211	790.435	597.850
407.409	17.190	789.979	597.378
408.423	17.202	789.682	597.142
409.438	17.175	788.996	596.477
410.453	17.198	788.938	596.462
411.467	17.244	788.443	596.195
412.482	17.170	788.194	595.694
413.496	17.283	787.469	595.489
414.511	17.359	787.391	595.645
415.526	17.410	786.964	595.446
416.540	17.388	786.571	595.020
417.555	17.213	786.404	594.230
418.569	17.233	785.900	593.864
419.584	17.377	785.354	593.903
420.599	17.443	784.712	593.596
421.613	108.987	1289.895	1468.768
422.628	93.366	1363.492	1468.849
