DTS Sentinel unit serial number:	SN413079Multiplexer serial number:	ORYXHardware model number:	OX4-SRSoftware version number:	ORYX F/W v4.00 Oryx Data Collector v3.7.2.0data status	okinstallation	princeton_trtdifferential loss correction	single-endedforward channel	channel 3reverse channel	N/Adate	2019/09/15time	03:40:35forward acquisition time	60.00reverse acquisition time	0.00gamma	496.2192k internal	0.2323k external	0.2323temperature offset calibration	0.9966default loss term (dB/km)	0.3790temperature slope calibration	1.0000multiplexer offset coefficient	1.0000multiplexer slope coefficient	1.0000fibre end	0.00T internal ref (°C)	30.98T ext. ref 1 (°C)	4.60T ext. ref 2 (°C)	25.88length (m)	temperature (°C)	Stokes	anti-Stokes-747.200	-43.212	-0.097	0.050
-746.185	-141.860	-0.121	0.012
-745.171	-42.083	-0.100	-0.052
-744.156	-137.881	-0.464	0.052
-743.142	-111.543	-0.048	-0.010
-742.127	133.058	-0.106	0.138
-741.112	-87.880	0.401	-0.122
-740.098	-200.000	-0.031	0.190
-739.083	-200.000	0.010	-0.175
-738.069	5.876	-0.058	0.043
-737.054	460.716	-0.031	0.069
-736.039	-200.000	-0.008	-0.165
-735.025	800.000	0.097	-0.288
-734.010	545.874	-0.050	-0.120
-732.996	-49.860	-0.166	-0.079
-731.981	-97.758	0.054	-0.014
-730.966	-28.862	-0.313	-0.182
-729.952	367.188	0.096	-0.195
-728.937	318.285	-0.136	-0.260
-727.923	-147.692	-0.050	0.004
-726.908	-200.000	0.002	0.117
-725.894	-143.962	0.140	0.013
-724.879	-149.336	-0.268	0.022
-723.864	-114.496	-0.185	-0.036
-722.850	69.802	0.239	0.249
-721.835	17.928	-0.106	0.085
-720.821	-125.069	0.145	0.022
-719.806	226.213	0.166	-0.271
-718.791	-21.616	-0.141	-0.086
-717.777	344.813	-0.033	-0.065
-716.762	152.231	-0.220	-0.303
-715.748	800.000	0.006	0.021
-714.733	-200.000	-0.017	-0.457
-713.718	-103.661	0.126	0.030
-712.704	800.000	-0.038	-0.151
-711.689	-200.000	-0.050	-0.231
-710.675	-52.426	0.120	-0.056
-709.660	209.251	0.153	-0.242
-708.645	177.033	-0.164	-0.241
-707.631	26.591	0.148	-0.125
-706.616	-61.641	0.370	0.156
-705.602	-87.754	-0.214	0.065
-704.587	-200.000	0.032	-0.216
-703.572	-110.049	-0.293	0.062
-702.558	12.142	-0.160	0.124
-701.543	450.309	0.092	0.206
-700.529	113.291	-0.060	0.074
-699.514	-52.491	0.229	0.107
-698.499	-200.000	0.007	0.060
-697.485	-30.843	-0.095	-0.054
-696.470	504.486	0.100	0.233
-695.456	367.386	0.277	-0.564
-694.441	-97.247	-0.126	0.033
-693.426	18.759	-0.331	-0.267
-692.412	4.396	-0.353	-0.261
-691.397	-118.651	-0.283	-0.050
-690.383	-62.236	0.418	-0.176
-689.368	800.000	-0.167	-0.591
-688.354	-200.000	0.014	-0.503
-687.339	-134.936	0.518	-0.063
-686.324	-75.147	-0.063	0.023
-685.310	147.509	-0.095	-0.129
-684.295	745.775	0.123	-0.334
-683.281	-160.520	-0.348	-0.019
-682.266	800.000	-0.059	-0.248
-681.251	-200.000	0.008	0.234
-680.237	800.000	0.023	0.086
-679.222	-161.912	-0.333	0.017
-678.208	-121.534	0.275	-0.046
-677.193	800.000	0.036	-0.131
-676.178	147.476	-0.069	-0.093
-675.164	-139.988	0.252	-0.027
-674.149	8.445	-0.138	-0.104
-673.135	-70.784	-0.073	-0.028
-672.120	108.742	0.093	-0.112
-671.105	111.967	-0.262	0.319
-670.091	-97.758	0.346	-0.090
-669.076	-15.552	-0.119	0.076
-668.062	-200.000	-0.005	0.117
-667.047	-48.586	-0.278	-0.134
-666.032	-88.188	-0.326	-0.098
-665.018	800.000	0.038	0.113
-664.003	-200.000	-0.038	-0.203
-662.989	-36.671	-0.077	0.042
-661.974	6.598	0.094	-0.070
-660.959	391.428	-0.099	0.208
-659.945	609.403	-0.072	0.181
-658.930	-200.000	-0.042	-0.283
-657.916	61.254	0.203	-0.203
-656.901	508.201	-0.132	0.309
-655.886	-200.000	0.043	-0.290
-654.872	-200.000	-0.006	-0.363
-653.857	-18.300	-0.189	0.119
-652.843	477.461	-0.067	0.153
-651.828	22.116	0.238	0.195
-650.814	-9.059	0.278	-0.187
-649.799	-150.605	0.150	-0.012
-648.784	286.698	0.118	0.215
-647.770	105.606	0.108	0.129
-646.755	-30.849	-0.164	0.093
-645.741	118.028	0.200	0.248
-644.726	26.928	-0.073	-0.061
-643.711	800.000	0.052	-0.163
-642.697	-171.723	0.123	-0.004
-641.682	-115.197	0.182	0.035
-640.668	-79.623	-0.224	0.076
-639.653	-111.219	-0.251	-0.052
-638.638	55.886	0.175	-0.171
-637.624	-54.187	-0.326	-0.149
-636.609	-151.175	0.209	0.016
-635.595	194.084	0.159	0.243
-634.580	48.538	-0.156	0.147
-633.565	107.815	-0.097	-0.116
-632.551	26.633	-0.206	-0.173
-631.536	47.790	-0.133	0.125
-630.522	109.445	-0.090	-0.108
-629.507	357.261	0.097	0.195
-628.492	92.927	-0.104	0.118
-627.478	7.109	0.304	-0.228
-626.463	-114.666	0.261	0.050
-625.449	248.495	-0.184	-0.313
-624.434	-131.646	-0.359	-0.047
-623.419	-128.238	-0.289	0.042
-622.405	-112.638	0.255	0.051
-621.390	12.405	0.176	0.137
-620.376	-200.000	0.055	0.363
-619.361	-64.167	0.190	-0.078
-618.346	190.323	-0.053	0.080
-617.332	-87.007	-0.084	0.026
-616.317	11.767	-0.249	-0.192
-615.303	126.901	-0.067	0.085
-614.288	-15.969	0.081	0.052
-613.273	370.809	0.141	0.286
-612.259	-172.826	-0.405	-0.013
-611.244	73.431	0.207	0.218
-610.230	-95.253	-0.091	-0.025
-609.215	-200.000	0.000	0.042
-608.201	-200.000	-0.036	0.221
-607.186	166.829	-0.176	0.251
-606.171	557.868	0.124	0.301
-605.157	-158.481	-0.355	-0.021
-604.142	53.530	-0.288	-0.278
-603.128	-89.857	-0.137	0.040
-602.113	-118.636	-0.205	-0.036
-601.098	-68.470	0.072	0.028
-600.084	-200.000	-0.001	-0.033
-599.069	-92.975	-0.144	0.040
-598.055	800.000	-0.014	0.053
-597.040	176.142	-0.171	-0.249
-596.025	55.077	0.110	0.107
-595.011	-141.156	0.165	0.017
-593.996	601.740	0.043	-0.108
-592.982	-200.000	-0.082	0.418
-591.967	666.949	0.099	0.258
-590.952	-105.071	0.239	-0.055
-589.938	-200.000	0.028	0.236
-588.923	-38.542	0.088	0.047
-587.909	109.793	-0.032	0.039
-586.894	64.805	-0.182	0.184
-585.879	192.702	-0.069	-0.105
-584.865	-159.925	0.157	0.009
-583.850	800.000	-0.027	0.086
-582.836	-200.000	-0.007	0.333
-581.821	-57.028	0.152	-0.067
-580.806	-200.000	-0.010	-0.279
-579.792	800.000	0.052	-0.173
-578.777	800.000	-0.058	-0.216
-577.763	241.575	-0.057	-0.096
-576.748	42.978	-0.256	0.235
-575.733	-200.000	-0.008	-0.243
-574.719	-200.000	0.036	-0.309
-573.704	330.783	-0.076	0.147
-572.690	800.000	0.031	0.136
-571.675	168.377	-0.170	0.242
-570.661	-83.611	-0.316	-0.101
-569.646	240.147	-0.045	-0.075
-568.631	-101.133	-0.349	0.086
-567.617	-59.613	-0.041	0.018
-566.602	29.069	-0.179	-0.152
-565.588	51.722	-0.232	0.221
-564.573	-37.660	0.184	-0.098
-563.558	205.552	0.255	-0.398
-562.544	-147.258	-0.294	-0.025
-561.529	800.000	0.031	0.135
-560.515	506.374	-0.125	0.290
-559.500	225.399	0.073	0.119
-558.485	-15.396	-0.159	0.102
-557.471	21.322	-0.240	0.195
-556.456	64.489	-0.197	-0.199
-555.442	-200.000	0.008	-0.289
-554.427	63.675	0.138	0.139
-553.412	260.840	-0.113	-0.196
-552.398	-200.000	0.016	-0.240
-551.383	185.362	-0.033	0.049
-550.369	60.158	-0.150	0.149
-549.354	43.202	-0.164	-0.150
-548.339	434.672	-0.148	0.322
-547.325	240.147	0.051	0.085
-546.310	-173.379	-0.235	0.007
-545.296	-116.166	-0.021	-0.004
-544.281	-41.159	-0.198	-0.102
-543.266	93.291	0.025	0.029
-542.252	330.714	0.206	0.397
-541.237	184.245	0.189	0.281
-540.223	255.430	0.096	0.165
-539.208	-57.861	-0.023	-0.010
-538.193	119.025	-0.021	0.026
-537.179	39.369	-0.071	0.063
-536.164	-200.000	0.051	-0.265
-535.150	147.964	0.166	0.224
-534.135	800.000	-0.021	-0.087
-533.121	-10.661	0.336	-0.223
-532.106	800.000	-0.021	-0.080
-531.091	135.918	0.122	-0.159
-530.077	294.768	0.057	0.104
-529.062	-57.906	0.180	0.079
-528.048	4.478	0.255	0.187
-527.033	-19.031	-0.292	-0.182
-526.018	288.605	-0.086	-0.157
-525.004	-200.000	-0.018	-0.148
-523.989	27.506	0.277	-0.233
-522.975	-56.143	-0.237	-0.106
-521.960	-137.637	0.154	0.017
-520.945	-45.498	-0.138	0.069
-519.931	-39.556	0.229	-0.120
-518.916	-27.055	0.297	-0.173
-517.902	-102.990	0.280	0.066
-516.887	-38.385	-0.196	0.104
-515.872	33.309	0.209	0.181
-514.858	245.658	0.105	0.178
-513.843	-69.609	-0.325	0.125
-512.829	-200.000	-0.070	-0.438
-511.814	-200.000	-0.020	0.138
-510.799	-137.185	0.283	0.032
-509.785	-13.297	0.400	0.260
-508.770	-68.024	-0.232	-0.091
-507.756	-101.292	0.157	-0.038
-506.741	-93.459	-0.082	-0.023
-505.726	9.032	-0.187	-0.142
-504.712	-126.973	0.270	-0.040
-503.697	6.131	-0.290	0.215
-502.683	31.323	0.098	-0.084
-501.668	-134.255	0.111	-0.014
-500.653	17.886	-0.175	0.139
-499.639	-200.000	-0.022	0.118
-498.624	-200.000	0.006	-0.156
-497.610	129.301	0.183	0.233
-496.595	382.132	0.065	-0.134
-495.581	-40.786	0.219	-0.114
-494.566	-112.556	-0.354	0.071
-493.551	-200.000	-0.018	0.145
-492.537	502.605	0.046	0.107
-491.522	-80.257	0.249	-0.083
-490.508	-97.874	-0.007	-0.002
-489.493	59.864	0.222	-0.219
-488.478	-37.350	0.107	-0.057
-487.464	-200.000	-0.010	-0.180
-486.449	-200.000	0.028	-0.234
-485.435	84.424	0.277	-0.303
-484.420	256.386	-0.177	0.304
-483.405	-140.628	-0.273	-0.028
-482.391	-29.860	0.125	-0.071
-481.376	-1.823	-0.133	0.094
-480.362	-3.095	-0.285	0.198
-479.347	-200.000	0.003	-0.021
-478.332	507.520	-0.097	0.225
-477.318	-60.904	0.293	0.124
-476.303	-79.714	0.231	-0.078
-475.289	470.389	0.169	0.380
-474.274	800.000	-0.067	-0.204
-473.259	-149.961	-0.260	-0.020
-472.245	800.000	0.029	0.100
-471.230	-149.132	-0.020	0.002
-470.216	104.064	-0.046	-0.054
-469.201	108.529	-0.231	0.276
-468.186	-10.092	-0.159	-0.105
-467.172	-117.853	0.395	-0.071
-466.157	34.817	-0.244	0.214
-465.143	-32.898	0.336	-0.187
-464.128	-200.000	0.018	-0.142
-463.113	-160.994	-0.204	0.011
-462.099	471.112	-0.069	0.155
-461.084	-9.062	-0.285	-0.191
-460.070	-195.854	0.551	-0.004
-459.055	-200.000	0.019	0.252
-458.040	-80.696	0.289	-0.096
-457.026	-200.000	-0.026	-0.252
-456.011	800.000	-0.042	0.183
-454.997	27.662	0.282	-0.237
-453.982	115.778	-0.167	-0.204
-452.968	505.118	-0.230	0.532
-451.953	41.028	-0.191	0.173
-450.938	20.449	0.288	-0.233
-449.924	69.150	0.156	-0.160
-448.909	-81.158	-0.102	0.034
-447.895	-200.000	-0.044	0.243
-446.880	800.000	-0.122	0.394
-445.865	-34.248	-0.111	-0.061
-444.851	-200.000	-0.039	-0.176
-443.836	-90.235	0.120	-0.035
-442.822	119.231	-0.069	0.086
-441.807	207.841	-0.141	0.220
-440.792	2.422	-0.236	-0.170
-439.778	-200.000	-0.060	0.370
-438.763	20.193	-0.111	0.089
-437.749	800.000	-0.022	-0.071
-436.734	-129.917	-0.223	0.031
-435.719	-103.828	-0.265	0.062
-434.705	62.296	-0.222	0.222
-433.690	-72.659	-0.056	0.021
-432.676	366.704	-0.146	0.293
-431.661	-86.926	-0.384	-0.117
-430.646	6.863	-0.057	-0.042
-429.632	-200.000	0.019	0.113
-428.617	-158.957	-0.244	0.014
-427.603	72.630	0.142	0.148
-426.588	800.000	-0.061	0.228
-425.573	-115.376	0.071	-0.013
-424.559	-200.000	0.121	-0.568
-423.544	193.536	-0.153	0.231
-422.530	-200.000	-0.006	0.053
-421.515	124.022	0.341	-0.428
-420.500	800.000	-0.129	-0.501
-419.486	510.659	-0.093	-0.217
-418.471	800.000	-0.141	-0.399
-417.457	775.658	-0.107	0.292
-416.442	800.000	0.111	-0.327
-415.428	-95.517	-0.202	0.054
-414.413	-58.291	-0.177	-0.077
-413.398	192.006	0.075	-0.112
-412.384	-64.463	0.132	-0.054
-411.369	733.988	-0.149	0.398
-410.355	58.313	0.098	-0.096
-409.340	27.873	0.208	0.175
-408.325	800.000	-0.134	-0.484
-407.311	4.578	0.307	-0.225
-406.296	-0.432	-0.104	0.074
-405.282	241.418	0.255	0.424
-404.267	-49.261	-0.220	-0.105
-403.252	562.166	-0.029	0.070
-402.238	24.737	0.202	-0.167
-401.223	-25.055	0.347	-0.205
-400.209	-28.951	-0.202	-0.116
-399.194	99.973	0.092	0.106
-398.179	-129.921	0.146	-0.020
-397.165	-52.115	0.289	0.134
-396.150	-136.088	-0.376	-0.044
-395.136	-200.000	0.014	-0.205
-394.121	-200.000	0.009	-0.200
-393.106	-161.239	-0.036	-0.002
-392.092	-200.000	0.100	-0.471
-391.077	132.488	-0.166	0.214
-390.063	-16.511	0.069	0.044
-389.048	-154.023	0.238	0.016
-388.033	-52.249	0.079	0.036
-387.019	-130.676	-0.188	0.025
-386.004	403.572	-0.088	0.184
-384.990	132.447	-0.181	-0.232
-383.975	28.663	-0.023	-0.019
-382.960	-140.698	0.574	0.059
-381.946	522.050	-0.094	0.219
-380.931	-200.000	0.034	0.578
-379.917	127.360	-0.184	0.233
-378.902	754.691	0.094	0.252
-377.888	-145.366	0.170	0.015
-376.873	-83.919	-0.237	0.075
-375.858	-200.000	0.041	0.187
-374.844	29.401	-0.068	-0.058
-373.829	-57.231	-0.394	-0.173
-372.815	-200.000	-0.061	-0.601
-371.800	-36.332	0.179	0.096
-370.785	-137.009	-0.059	-0.007
-369.771	-200.000	-0.002	0.238
-368.756	-101.513	0.190	0.046
-367.742	-58.229	0.311	-0.135
-366.727	-45.775	-0.443	-0.218
-365.712	-200.000	-0.043	-0.209
-364.698	634.998	-0.045	-0.114
-363.683	-200.000	0.046	0.420
-362.669	-7.999	-0.146	-0.098
-361.654	423.352	0.014	-0.030
-360.639	-146.257	0.290	0.025
-359.625	19.964	-0.425	0.341
-358.610	113.978	-0.021	0.026
-357.596	-188.453	0.166	-0.002
-356.581	126.382	0.160	-0.202
-355.566	-76.718	0.043	0.015
-354.552	290.687	0.106	-0.192
-353.537	800.000	0.131	0.465
-352.523	800.000	-0.033	-0.136
-351.508	-180.454	0.208	-0.004
-350.493	11.437	-0.082	0.063
-349.479	-9.711	-0.148	-0.098
-348.464	23.456	0.164	-0.134
-347.450	266.839	-0.278	-0.483
-346.435	527.668	0.107	-0.251
-345.420	800.000	-0.029	0.108
-344.406	-200.000	-0.002	-0.017
-343.391	-24.194	-0.084	0.050
-342.377	69.606	-0.056	-0.057
-341.362	-74.165	-0.304	-0.109
-340.348	31.852	0.157	-0.134
-339.333	-42.414	0.242	-0.122
-338.318	-12.336	-0.267	-0.174
-337.304	8.959	0.076	-0.057
-336.289	-200.000	-0.017	0.296
-335.275	-70.127	0.344	-0.130
-334.260	800.000	0.071	0.297
-333.245	-76.882	-0.224	0.078
-332.231	-97.430	-0.420	-0.108
-331.216	106.696	0.247	-0.291
-330.202	-157.086	0.045	-0.003
-329.187	-200.000	0.044	0.300
-328.172	-116.267	0.491	-0.090
-327.158	-134.467	0.323	-0.039
-326.143	-200.000	0.040	0.290
-325.129	306.430	-0.105	0.195
-324.114	94.379	0.043	0.048
-323.099	51.455	0.187	-0.177
-322.085	-101.442	0.435	0.105
-321.070	-11.451	-0.111	-0.073
-320.056	-137.652	-0.286	-0.032
-319.041	-117.994	0.183	-0.032
-318.026	800.000	-0.123	-0.375
-317.012	23.775	-0.176	-0.144
-315.997	-136.551	-0.154	-0.018
-314.983	-95.182	0.143	0.038
-313.968	-65.645	-0.103	0.041
-312.953	-200.000	0.009	-0.403
-311.939	-200.000	0.006	0.101
-310.924	332.098	-0.020	-0.039
-309.910	800.000	0.066	-0.219
-308.895	-200.000	0.014	-0.093
-307.880	800.000	0.090	-0.270
-306.866	800.000	-0.026	0.103
-305.851	501.414	-0.081	-0.186
-304.837	448.967	0.133	0.291
-303.822	-200.000	-0.031	-0.229
-302.807	495.282	0.063	-0.143
-301.793	-163.537	-0.285	-0.013
-300.778	126.336	-0.120	-0.151
-299.764	13.294	-0.191	-0.147
-298.749	59.115	0.082	-0.080
-297.735	-87.923	-0.156	-0.046
-296.720	-51.397	-0.211	-0.098
-295.705	-150.957	0.219	0.016
-294.691	-200.000	0.027	0.159
-293.676	642.122	0.045	-0.113
-292.662	-109.164	0.222	0.047
-291.647	132.849	-0.047	-0.060
-290.632	-97.217	-0.060	-0.016
-289.618	25.178	0.244	-0.201
-288.603	-28.111	-0.237	-0.136
-287.589	641.132	-0.076	-0.193
-286.574	-33.638	0.139	-0.076
-285.559	-157.617	0.136	-0.008
-284.545	423.537	0.047	-0.101
-283.530	800.000	-0.063	-0.240
-282.516	67.932	0.063	0.064
-281.501	-200.000	0.022	-0.319
-280.486	712.906	-0.060	0.158
-279.472	2.997	-0.410	0.295
-278.457	10.463	-0.112	-0.085
-277.443	14.280	0.090	-0.070
-276.428	-156.279	0.377	0.023
-275.413	220.670	0.086	0.137
-274.399	346.529	0.035	0.068
-273.384	43.920	-0.213	-0.194
-272.370	202.755	0.242	0.371
-271.355	-129.607	-0.054	0.007
-270.340	800.000	0.021	0.079
-269.326	-127.655	0.140	0.020
-268.311	171.349	0.086	-0.122
-267.297	191.025	0.100	-0.149
-266.282	70.685	0.173	-0.178
-265.267	37.761	-0.191	0.168
-264.253	85.301	0.161	0.175
-263.238	203.375	-0.069	-0.106
-262.224	-22.645	-0.087	-0.052
-261.209	34.594	0.240	0.208
-260.195	409.035	0.115	-0.242
-259.180	-83.040	-0.256	0.082
-258.165	-93.430	-0.168	0.046
-257.151	17.821	0.152	-0.120
-256.136	275.699	-0.034	0.059
-255.122	-6.118	-0.309	0.209
-254.107	-41.152	-0.208	-0.106
-253.092	58.191	0.174	-0.169
-252.078	96.985	0.068	-0.077
-251.063	189.299	-0.191	-0.284
-250.049	-3.246	0.050	-0.035
-249.034	-49.415	0.380	-0.180
-248.019	-176.325	0.219	0.006
-247.005	-72.162	-0.097	0.036
-245.990	-11.292	-0.471	-0.308
-244.976	800.000	0.061	0.221
-243.961	-200.000	-0.000	0.523
-242.946	127.898	0.171	0.215
-241.932	800.000	-0.057	-0.204
-240.917	800.000	0.074	0.259
-239.903	141.085	-0.132	0.172
-238.888	800.000	0.086	0.345
-237.873	-149.207	-0.120	0.010
-236.859	-199.209	0.154	0.001
-235.844	800.000	0.078	0.317
-234.830	-162.698	0.075	0.004
-233.815	-200.000	-0.049	0.235
-232.800	632.272	0.021	-0.052
-231.786	-200.000	0.003	-0.128
-230.771	-113.363	0.361	0.070
-229.757	-157.392	0.239	0.014
-228.742	-18.725	-0.274	0.169
-227.727	800.000	0.080	-0.233
-226.713	386.753	-0.016	-0.032
-225.698	86.484	0.216	-0.236
-224.684	-97.832	0.509	-0.130
-223.669	-128.237	-0.075	0.011
-222.655	240.542	0.077	-0.126
-221.640	-100.159	0.148	-0.036
-220.625	-159.166	-0.177	0.010
-219.611	114.295	-0.109	0.131
-218.596	-119.993	0.280	0.048
-217.582	566.588	-0.033	-0.079
-216.567	-200.000	-0.058	0.357
-215.552	-24.874	-0.028	-0.016
-214.538	-200.000	0.012	0.200
-213.523	-200.000	-0.044	0.242
-212.509	381.539	0.064	-0.129
-211.494	43.976	-0.102	-0.092
-210.479	90.103	-0.178	-0.197
-209.465	-176.211	0.194	-0.005
-208.450	-200.000	0.014	-0.123
-207.436	68.180	-0.197	-0.200
-206.421	557.920	0.039	-0.092
-205.406	-94.653	0.118	-0.032
-204.392	-24.270	0.072	-0.042
-203.377	-31.135	-0.098	0.055
-202.363	800.000	0.045	-0.127
-201.348	-98.643	0.174	0.044
-200.333	753.809	-0.057	0.152
-199.319	263.754	-0.292	-0.501
-198.304	371.592	-0.062	0.125
-197.290	-16.085	0.028	0.018
-196.275	99.780	-0.287	0.328
-195.260	-200.000	-0.131	-0.593
-194.246	-109.646	0.245	0.051
-193.231	800.000	-0.030	0.087
-192.217	255.157	0.319	0.540
-191.202	377.372	0.086	0.174
-190.187	-123.229	-0.222	0.035
-189.173	-70.428	0.184	0.069
-188.158	-113.282	0.198	-0.038
-187.144	-8.024	-0.173	-0.115
-186.129	200.766	0.027	0.042
-185.114	-200.000	-0.027	-0.180
-184.100	505.629	0.096	-0.220
-183.085	19.094	-0.150	-0.118
-182.071	-160.746	0.098	0.005
-181.056	285.862	-0.107	-0.191
-180.042	203.148	-0.051	-0.078
-179.027	-200.000	0.081	0.366
-178.012	-173.026	0.231	0.007
-176.998	-121.769	0.110	0.018
-175.983	800.000	0.019	0.052
-174.969	-191.349	0.060	0.001
-173.954	-124.741	0.151	0.023
-172.939	-50.510	0.376	-0.175
-171.925	-200.000	0.029	-0.195
-170.910	-25.677	0.053	0.031
-169.896	-33.560	-0.372	0.203
-168.881	-0.903	0.165	0.115
-167.866	46.488	-0.132	-0.121
-166.852	9.076	0.164	0.123
-165.837	-80.534	0.209	0.069
-164.823	565.394	-0.065	0.155
-163.808	309.333	-0.085	0.156
-162.793	-191.389	0.164	0.002
-161.779	800.000	-0.106	-0.340
-160.764	27.994	0.050	-0.042
-159.750	16.807	-0.056	0.043
-158.735	336.619	0.183	0.350
-157.720	340.720	0.087	-0.167
-156.706	-183.870	-0.161	0.003
-155.691	180.554	-0.088	-0.128
-154.677	-200.000	0.008	0.054
-153.662	-200.000	0.100	-0.000
-152.647	-54.323	-0.124	0.055
-151.633	-183.731	-0.225	-0.004
-150.618	-24.290	0.150	0.088
-149.604	441.124	-0.046	0.098
-148.589	-200.000	-0.019	0.391
-147.574	-60.233	0.027	0.011
-146.560	-8.897	0.123	-0.081
-145.545	130.327	0.122	-0.154
-144.531	-41.881	-0.256	-0.129
-143.516	127.348	-0.017	-0.021
-142.502	-54.742	0.272	-0.121
-141.487	20.501	-0.052	-0.041
-140.472	435.469	0.120	-0.258
-139.458	-200.000	0.002	-0.035
-138.443	-187.030	-0.283	-0.004
-137.429	-200.000	0.008	0.164
-136.414	-200.000	0.013	-0.073
-135.399	-200.000	-0.068	0.559
-134.385	478.960	-0.055	0.123
-133.370	246.174	0.086	0.143
-132.356	65.700	0.131	-0.130
-131.341	484.058	0.047	0.106
-130.326	495.194	0.025	-0.057
-129.312	-200.000	-0.005	0.050
-128.297	75.381	0.012	0.012
-127.283	115.586	-0.062	0.075
-126.268	800.000	0.102	0.328
-125.253	37.093	-0.135	0.118
-124.239	-200.000	-0.018	-0.083
-123.224	10.304	0.140	-0.105
-122.210	432.293	-0.037	-0.080
-121.195	29.692	-0.092	0.077
-120.180	-86.205	0.220	0.067
-119.166	41.868	-0.106	0.095
-118.151	-70.343	0.193	-0.072
-117.137	-200.000	-0.013	-0.200
-116.122	800.000	0.036	-0.114
-115.107	-200.000	-0.040	0.239
-114.093	-200.000	-0.059	0.294
-113.078	-200.000	0.009	-0.170
-112.064	18.198	0.209	-0.165
-111.049	-100.438	-0.077	0.019
-110.034	800.000	-0.092	0.325
-109.020	800.000	0.030	0.120
-108.005	479.135	-0.104	0.232
-106.991	568.578	0.079	0.189
-105.976	-200.000	0.012	0.170
-104.962	767.536	-0.116	0.310
-103.947	-200.000	0.003	0.139
-102.932	15.421	0.217	-0.168
-101.918	800.000	0.059	0.237
-100.903	513.137	0.099	-0.228
-99.889	800.000	-0.009	-0.026
-98.874	-200.000	-0.039	0.240
-97.859	-153.091	0.351	-0.024
-96.845	-200.000	-0.040	0.226
-95.830	800.000	-0.056	-0.153
-94.816	102.552	0.087	-0.100
-93.801	800.000	-0.018	0.074
-92.786	218.959	-0.189	0.297
-91.772	6.971	0.312	0.229
-90.757	282.773	0.135	0.238
-89.743	-108.145	0.469	0.100
-88.728	97.823	0.130	-0.147
-87.713	-200.000	0.103	-0.000
-86.699	7.340	-0.061	0.045
-85.684	145.446	0.041	-0.054
-84.670	-200.000	0.030	-0.143
-83.655	-63.376	-0.084	0.034
-82.640	168.203	-0.183	0.256
-81.626	-2.431	0.111	0.076
-80.611	800.000	-0.126	-0.395
-79.597	132.242	-0.143	0.181
-78.582	-78.844	-0.172	0.058
-77.567	271.962	0.141	0.245
-76.553	-45.162	0.295	0.144
-75.538	800.000	-0.098	0.338
-74.524	800.000	0.073	0.285
-73.509	33.656	0.158	0.135
-72.494	-200.000	-0.040	0.246
-71.480	-144.879	0.071	-0.006
-70.465	100.713	-0.153	-0.174
-69.451	-200.000	-0.045	-0.426
-68.436	-53.157	0.168	0.076
-67.422	58.785	0.180	0.174
-66.407	-178.167	-0.048	-0.001
-65.392	12.942	0.189	0.144
-64.378	-108.947	-0.262	-0.055
-63.363	26.012	0.280	0.229
-62.349	396.945	-0.078	0.160
-61.334	38.289	-0.937	-0.821
-60.319	493.036	0.338	0.761
-59.305	-200.000	-0.103	-1.018
-58.290	265.421	0.542	0.929
-57.276	316.237	0.890	1.653
-56.261	-200.000	101.610	597.888
-55.246	574.951	1413.908	3392.699
-54.232	191.327	2598.377	3845.378
-53.217	117.386	2163.308	2615.121
-52.203	41.848	1696.608	1512.203
-51.188	34.181	1507.132	1291.499
-50.173	31.775	1479.992	1252.135
-49.159	51.380	1531.849	1429.840
-48.144	53.092	1549.961	1458.341
-47.130	34.320	1508.164	1293.126
-46.115	31.224	1493.223	1259.418
-45.100	31.082	1489.346	1255.143
-44.086	31.014	1487.904	1253.416
-43.071	31.023	1485.211	1251.159
-42.057	30.907	1484.287	1249.557
-41.042	31.001	1482.221	1248.395
-40.027	30.963	1481.006	1247.070
-39.013	30.904	1479.371	1245.250
-37.998	30.898	1478.243	1244.209
-36.984	30.876	1477.067	1243.024
-35.969	31.003	1475.527	1242.525
-34.954	31.005	1473.891	1241.114
-33.940	30.950	1472.960	1239.913
-32.925	30.980	1471.572	1238.896
-31.911	31.030	1470.771	1238.505
-30.896	31.116	1469.013	1237.546
-29.881	31.105	1467.511	1236.152
-28.867	31.078	1466.146	1234.779
-27.852	31.032	1464.847	1233.328
-26.838	31.069	1463.550	1232.431
-25.823	31.148	1461.561	1231.232
-24.809	31.079	1460.324	1229.687
-23.794	31.036	1459.161	1228.376
-22.779	31.043	1458.272	1227.623
-21.765	31.019	1456.876	1226.243
-20.750	31.017	1455.582	1225.089
-19.736	30.959	1454.854	1224.051
-18.721	31.032	1453.720	1223.526
-17.706	30.884	1452.963	1221.868
-16.692	30.976	1451.308	1221.033
-15.677	31.018	1449.902	1220.076
-14.663	30.928	1449.158	1218.809
-13.648	31.001	1448.408	1218.607
-12.633	30.967	1447.600	1217.662
-11.619	30.936	1446.938	1216.852
-10.604	30.930	1445.682	1215.707
-9.590	30.932	1445.147	1215.223
-8.575	31.023	1444.316	1215.071
-7.560	30.930	1443.275	1213.539
-6.546	30.893	1442.654	1212.728
-5.531	30.907	1441.532	1211.826
-4.517	30.941	1440.327	1210.990
-3.502	30.911	1439.569	1210.110
-2.487	30.951	1438.673	1209.564
-1.473	30.968	1437.257	1208.438
-0.458	30.899	1436.372	1207.197
0.556	29.485	1427.003	1196.015
1.571	26.736	1401.823	1157.280
2.586	23.345	1343.981	1088.631
3.600	21.758	1262.902	1013.694
4.615	20.352	1217.593	969.398
5.629	17.862	1161.852	911.650
6.644	10.699	1080.277	811.871
7.659	5.304	1042.877	757.596
8.673	4.725	1037.399	750.758
9.688	4.534	1034.384	747.591
10.702	4.641	1032.477	746.658
11.717	4.509	1031.001	744.895
12.731	6.495	1032.117	755.158
13.746	13.049	1041.251	793.366
14.761	18.153	1047.364	822.563
15.775	18.226	1046.702	822.323
16.790	17.299	1044.440	816.025
17.804	16.375	1042.064	809.668
18.819	15.420	1040.318	803.668
19.834	14.978	1039.224	800.637
20.848	14.608	1037.990	797.848
21.863	14.362	1037.728	796.401
22.877	14.113	1036.760	794.398
23.892	14.036	1035.766	793.199
24.907	13.985	1035.031	792.322
25.921	14.066	1034.374	792.135
26.936	14.089	1033.342	791.385
27.950	14.006	1032.413	790.210
28.965	13.974	1031.375	789.190
29.980	13.996	1030.334	788.432
30.994	14.197	1029.371	788.575
32.009	14.173	1028.642	787.832
33.023	14.304	1028.127	787.991
34.038	14.329	1026.697	786.941
35.053	14.096	1026.195	785.389
36.067	14.134	1024.937	784.533
37.082	14.112	1024.062	783.692
38.096	14.007	1023.524	782.718
39.111	14.152	1022.650	782.663
40.126	14.097	1022.258	782.034
41.140	14.206	1020.358	781.020
42.155	14.018	1019.482	779.400
43.169	13.912	1018.530	778.109
44.184	13.873	1017.492	777.064
45.199	13.773	1016.414	775.703
46.213	13.783	1015.841	775.246
47.228	13.899	1014.709	774.853
48.242	13.980	1013.668	774.365
49.257	14.102	1012.752	774.168
50.271	14.098	1012.020	773.518
51.286	13.988	1011.389	772.456
52.301	14.177	1010.140	772.313
53.315	14.020	1009.660	771.149
54.330	14.036	1008.933	770.601
55.344	13.995	1007.473	769.227
56.359	13.996	1006.483	768.406
57.374	13.944	1005.953	767.693
58.388	14.016	1005.019	767.245
59.403	14.021	1004.184	766.562
60.417	13.838	1003.354	765.019
61.432	13.957	1002.466	764.824
62.447	13.874	1001.793	763.860
63.461	13.741	1001.258	762.775
64.476	13.703	999.851	761.460
65.490	13.820	999.034	761.306
66.505	13.842	998.478	760.915
67.520	13.844	997.549	760.151
68.534	13.736	997.341	759.429
69.549	13.765	996.467	758.830
70.563	13.850	995.423	758.356
71.578	13.795	994.955	757.683
72.593	13.851	993.373	756.663
73.607	13.712	992.733	755.479
74.622	13.579	992.505	754.631
75.636	13.741	990.936	754.106
76.651	13.747	990.022	753.374
77.666	13.716	989.799	752.996
78.680	13.650	989.414	752.338
79.695	13.665	988.830	751.893
80.709	13.824	987.819	751.779
81.724	13.692	987.934	751.200
82.739	13.810	986.503	750.582
83.753	13.841	986.300	750.501
84.768	14.082	985.242	750.717
85.782	14.146	984.585	750.438
86.797	14.220	983.769	750.084
87.812	14.107	983.047	748.959
88.826	14.055	982.344	748.122
89.841	14.124	980.933	747.293
90.855	14.059	980.710	746.765
91.870	14.236	979.693	746.718
92.884	14.202	978.965	745.946
93.899	14.164	978.134	745.073
94.914	14.268	977.385	744.906
95.928	14.229	977.080	744.432
96.943	14.230	976.279	743.759
97.957	14.333	975.255	743.371
98.972	14.146	974.779	742.109
99.987	14.074	973.940	741.087
101.001	14.197	973.056	740.893
102.016	14.064	972.791	740.035
103.030	14.178	971.352	739.380
104.045	14.076	970.596	738.287
105.060	14.080	969.757	737.601
106.074	14.022	968.636	736.427
107.089	13.951	967.702	735.336
108.103	13.848	966.691	734.047
109.118	13.797	965.822	733.097
110.133	13.864	964.949	732.665
111.147	13.764	964.791	732.042
112.162	13.761	963.776	731.192
113.176	13.872	962.481	730.635
114.191	13.961	961.798	730.443
115.206	13.950	960.990	729.714
116.220	13.940	960.145	728.966
117.235	13.872	959.428	728.057
118.249	13.926	958.871	727.810
119.264	13.919	957.631	726.774
120.279	13.761	957.568	725.970
121.293	13.923	956.258	725.619
122.308	13.841	955.462	724.591
123.322	13.728	954.527	723.328
124.337	13.745	953.894	722.857
125.352	13.758	952.737	721.972
126.366	13.682	951.813	720.877
127.381	13.814	950.457	720.361
128.395	13.795	949.679	719.625
129.410	13.686	948.767	718.396
130.424	13.811	947.716	718.078
131.439	13.801	946.884	717.344
132.454	13.849	946.621	717.286
133.468	14.011	945.689	717.218
134.483	13.964	945.136	716.532
135.497	14.067	944.087	716.118
136.512	14.070	943.112	715.327
137.527	14.120	942.463	714.986
138.541	13.939	941.991	713.786
139.556	13.900	941.156	712.923
140.570	13.801	940.947	712.276
141.585	14.092	939.365	712.263
142.600	14.137	939.110	712.201
143.614	14.177	938.254	711.660
144.629	14.195	937.741	711.282
145.643	14.362	936.550	711.030
146.658	14.277	935.763	710.006
147.673	14.214	934.754	708.909
148.687	14.119	933.762	707.691
149.702	14.005	933.209	706.724
150.716	13.961	932.595	706.011
151.731	14.118	931.189	705.550
152.746	14.027	930.915	704.894
153.760	13.985	930.305	704.189
154.775	14.129	929.356	704.020
155.789	14.222	928.488	703.696
156.804	14.277	927.741	703.299
157.819	14.157	926.812	702.024
158.833	14.144	926.755	701.864
159.848	14.258	925.719	701.498
160.862	14.252	925.165	700.992
161.877	14.319	924.324	700.573
162.892	14.129	923.676	699.222
163.906	14.130	922.530	698.298
164.921	14.006	922.126	697.410
165.935	14.030	921.181	696.733
166.950	14.114	919.895	696.050
167.964	14.241	919.035	695.870
168.979	14.226	917.903	694.888
169.994	14.175	917.143	694.040
171.008	14.284	916.114	693.651
172.023	14.161	915.583	692.675
173.037	14.347	914.962	692.920
174.052	14.475	914.034	692.685
175.067	14.338	913.298	691.500
176.081	14.357	912.508	690.918
177.096	14.238	911.552	689.640
178.110	14.220	910.683	688.846
179.125	14.162	910.388	688.322
180.140	14.334	909.176	688.057
181.154	14.250	908.637	687.240
182.169	14.350	907.948	687.072
183.183	14.294	907.932	686.768
184.198	14.414	907.359	686.768
185.213	14.411	906.659	686.165
186.227	14.474	906.097	685.938
187.242	14.580	905.338	685.740
188.256	14.530	905.163	685.341
189.271	14.555	904.352	684.769
190.286	14.567	903.303	683.963
191.300	14.392	902.547	682.613
192.315	14.103	901.805	680.809
193.329	14.094	901.380	680.393
194.344	14.276	900.085	680.096
195.359	14.344	899.626	679.965
196.373	14.416	899.409	680.037
197.388	14.470	898.928	679.834
198.402	14.558	898.325	679.676
199.417	14.606	898.037	679.591
200.432	14.757	897.563	679.788
201.446	14.774	897.251	679.562
202.461	14.815	896.652	679.216
203.475	14.882	895.984	678.921
204.490	14.765	895.349	677.904
205.504	14.660	894.754	676.966
206.519	14.707	893.925	676.472
207.534	14.737	893.242	676.014
208.548	14.721	892.276	675.162
209.563	14.658	891.958	674.606
210.577	14.721	890.942	674.030
211.592	14.571	890.913	673.345
212.607	14.676	890.459	673.366
213.621	14.803	889.524	673.110
214.636	14.930	888.833	673.038
215.650	14.690	888.417	671.700
216.665	14.871	887.873	671.957
217.680	14.885	887.243	671.475
218.694	14.915	886.534	671.001
219.709	14.932	886.140	670.709
220.723	14.959	885.308	670.131
221.738	14.979	884.730	669.715
222.753	14.895	884.243	668.950
223.767	15.058	882.685	668.361
224.782	14.870	882.775	667.621
225.796	14.995	881.795	667.320
226.811	15.172	880.861	667.258
227.826	15.059	880.078	666.158
228.840	14.996	879.783	665.623
229.855	14.962	879.277	665.046
230.869	15.025	878.415	664.585
231.884	14.985	877.295	663.522
232.899	15.035	877.190	663.582
233.913	15.016	876.321	662.791
234.928	14.895	875.840	661.888
235.942	15.021	875.139	661.798
236.957	14.918	874.363	660.747
237.972	14.886	873.507	659.913
238.986	14.926	873.252	659.823
240.001	14.945	872.608	659.353
241.015	14.972	871.854	658.832
242.030	15.047	871.109	658.504
243.045	15.110	870.737	658.412
244.059	15.003	870.279	657.588
245.074	15.121	869.332	657.276
246.088	15.108	868.936	656.866
247.103	15.347	868.280	657.249
248.117	15.267	867.566	656.339
249.132	15.341	867.178	656.277
250.147	15.406	866.742	656.143
251.161	15.513	866.284	656.154
252.176	15.512	865.834	655.752
253.190	15.486	865.080	655.020
254.205	15.462	864.284	654.269
255.220	15.665	863.311	654.264
256.234	15.651	862.786	653.754
257.249	15.603	862.483	653.281
258.263	15.444	862.446	652.577
259.278	15.775	861.489	653.079
260.293	15.585	860.998	651.912
261.307	15.735	860.403	651.985
262.322	15.799	859.587	651.556
263.336	15.746	859.109	650.930
264.351	15.731	858.713	650.518
265.366	15.923	857.776	650.491
266.380	15.749	857.280	649.386
267.395	15.814	856.666	649.114
268.409	15.773	856.282	648.609
269.424	15.818	855.303	647.980
270.439	15.679	854.815	647.020
271.453	15.706	854.128	646.544
272.468	15.729	852.877	645.629
273.482	15.749	852.637	645.468
274.497	15.866	852.255	645.570
275.512	15.788	851.166	644.390
276.526	15.722	850.624	643.670
277.541	15.830	849.975	643.535
278.555	15.943	849.148	643.284
279.570	15.899	849.001	642.946
280.585	15.831	848.705	642.404
281.599	16.032	847.893	642.502
282.614	16.036	847.142	641.891
283.628	15.963	846.356	640.961
284.643	15.822	846.056	640.140
285.657	15.986	845.954	640.629
286.672	15.883	845.370	639.738
287.687	15.926	844.768	639.391
288.701	16.030	844.435	639.475
289.716	15.986	843.298	638.391
290.730	15.927	842.920	637.828
291.745	15.954	842.494	637.549
292.760	15.978	841.913	637.146
293.774	16.162	841.017	637.106
294.789	16.265	840.602	637.121
295.803	16.373	839.768	636.842
296.818	16.214	839.323	635.848
297.833	16.127	838.780	635.054
298.847	16.131	837.919	634.360
299.862	15.984	837.357	633.327
300.876	16.152	836.542	633.283
301.891	16.170	836.170	633.015
302.906	16.186	835.793	632.733
303.920	16.303	835.065	632.562
304.935	16.348	834.375	632.155
305.949	16.519	833.583	632.138
306.964	16.357	833.329	631.284
307.979	16.267	832.647	630.376
308.993	16.248	832.156	629.877
310.008	16.346	831.650	629.805
311.022	16.491	831.170	629.925
312.037	16.513	830.379	629.350
313.052	16.408	830.010	628.626
314.066	16.297	829.337	627.646
315.081	16.139	828.871	626.651
316.095	16.326	828.060	626.679
317.110	16.134	827.867	625.763
318.125	16.222	826.998	625.379
319.139	16.235	826.818	625.234
320.154	16.265	826.290	624.891
321.168	16.324	825.811	624.692
322.183	16.227	825.256	623.858
323.197	16.364	824.894	624.034
324.212	16.458	823.755	623.466
325.227	16.483	823.534	623.335
326.241	16.627	823.288	623.625
327.256	16.409	822.600	622.245
328.270	16.456	821.831	621.783
329.285	16.399	821.352	621.154
330.300	16.313	821.011	620.527
331.314	16.408	820.368	620.332
332.329	16.362	819.555	619.495
333.343	16.315	819.187	618.989
334.358	16.480	818.733	619.197
335.373	16.534	817.877	618.693
336.387	16.462	817.625	618.184
337.402	16.546	817.008	617.969
338.416	16.524	816.786	617.667
339.431	16.635	816.339	617.679
340.446	16.815	815.470	617.622
341.460	16.843	815.033	617.338
342.475	16.771	814.488	616.610
343.489	16.923	813.694	616.506
344.504	16.899	813.439	616.171
345.519	16.885	813.096	615.805
346.533	16.941	812.447	615.464
347.548	16.923	811.800	614.855
348.562	16.971	811.373	614.651
349.577	16.852	810.895	613.803
350.592	16.813	810.065	612.980
351.606	16.789	809.553	612.450
352.621	16.792	809.381	612.276
353.635	16.762	808.857	611.718
354.650	16.833	808.394	611.571
355.665	16.688	808.150	610.807
356.679	16.673	807.876	610.492
357.694	16.890	807.151	610.672
358.708	17.010	806.560	610.603
359.723	17.038	805.985	610.214
360.738	16.939	805.717	609.600
361.752	16.944	805.075	609.082
362.767	16.897	804.919	608.741
363.781	16.953	804.440	608.525
364.796	17.050	804.276	608.695
365.810	17.140	803.588	608.440
366.825	17.179	803.288	608.300
367.840	17.206	802.846	608.008
368.854	17.371	802.427	608.229
369.869	17.190	801.807	607.059
370.883	17.234	801.048	606.586
371.898	17.157	800.630	605.940
372.913	17.326	800.182	606.152
373.927	17.390	799.537	605.836
374.942	17.298	798.964	605.021
375.956	17.227	798.105	604.065
376.971	17.462	797.594	604.460
377.986	17.322	797.756	604.030
379.000	17.337	797.062	603.505
380.015	17.489	796.181	603.326
381.029	17.576	795.513	603.071
382.044	17.543	795.058	602.558
383.059	17.491	794.791	602.116
384.073	17.489	794.327	601.706
385.088	17.552	793.386	601.163
386.102	17.284	793.307	600.102
387.117	17.350	792.502	599.672
388.132	17.384	792.287	599.580
389.146	17.518	791.588	599.467
390.161	17.384	791.666	599.002
391.175	17.483	790.962	598.763
392.190	17.601	790.509	598.783
393.205	17.571	790.088	598.307
394.219	17.380	790.191	597.662
395.234	17.464	788.995	596.996
396.248	17.439	788.526	596.503
397.263	17.420	788.068	596.036
398.278	17.354	787.767	595.527
399.292	17.278	787.493	595.001
400.307	17.306	786.761	594.491
401.321	17.436	786.386	594.609
402.336	17.270	786.207	593.842
403.350	17.461	785.867	594.200
404.365	17.670	785.013	594.228
405.380	17.481	784.712	593.291
406.394	17.756	784.032	593.682
407.409	17.808	784.194	593.932
408.423	17.693	783.793	593.176
409.438	17.992	782.635	593.287
410.453	17.779	782.821	592.635
411.467	17.877	782.186	592.441
412.482	18.026	781.303	592.238
413.496	17.912	781.526	591.957
414.511	18.000	780.990	591.804
415.526	17.965	781.009	591.647
416.540	17.944	780.659	591.253
417.555	17.819	780.050	590.311
418.569	17.967	779.564	590.399
419.584	17.842	778.784	589.327
420.599	17.914	778.394	589.228
421.613	156.896	1369.296	1798.150
422.628	135.358	1455.384	1798.238
