DTS Sentinel unit serial number:	SN413079Multiplexer serial number:	ORYXHardware model number:	OX4-SRSoftware version number:	ORYX F/W v4.00 Oryx Data Collector v3.7.2.0data status	okinstallation	princeton_trtdifferential loss correction	single-endedforward channel	channel 3reverse channel	N/Adate	2019/09/17time	10:32:35forward acquisition time	60.00reverse acquisition time	0.00gamma	496.2192k internal	0.2322k external	0.2322temperature offset calibration	0.9943default loss term (dB/km)	0.3790temperature slope calibration	1.0000multiplexer offset coefficient	1.0000multiplexer slope coefficient	1.0000fibre end	0.00T internal ref (°C)	30.00T ext. ref 1 (°C)	0.16T ext. ref 2 (°C)	25.65length (m)	temperature (°C)	Stokes	anti-Stokes-747.200	32.288	0.369	0.322
-746.185	193.362	-0.129	0.197
-745.171	-165.195	0.260	0.012
-744.156	-76.756	-0.171	-0.061
-743.142	124.551	0.111	0.141
-742.127	117.568	-0.138	0.171
-741.112	-132.040	-0.335	0.044
-740.098	-150.318	-0.257	-0.020
-739.083	-200.000	-0.005	0.080
-738.069	29.293	-0.181	0.155
-737.054	67.796	0.085	0.088
-736.039	503.222	-0.174	0.407
-735.025	800.000	-0.057	-0.187
-734.010	-36.651	-0.305	0.166
-732.996	218.044	-0.207	-0.334
-731.981	393.940	0.152	0.320
-730.966	800.000	-0.073	-0.214
-729.952	-200.000	-0.020	0.183
-728.937	297.046	-0.020	-0.037
-727.923	-200.000	-0.044	-0.203
-726.908	-200.000	0.005	0.142
-725.894	-177.607	0.260	-0.006
-724.879	-172.940	0.295	0.009
-723.864	-200.000	0.062	0.295
-722.850	520.900	0.123	-0.291
-721.835	364.608	-0.090	0.182
-720.821	-200.000	0.007	-0.287
-719.806	-12.628	-0.089	0.059
-718.791	116.989	0.099	-0.123
-717.777	-200.000	-0.036	-0.238
-716.762	2.890	-0.126	-0.092
-715.748	-134.045	0.305	0.038
-714.733	126.484	0.194	-0.248
-713.718	-200.000	0.039	-0.368
-712.704	56.462	0.046	-0.045
-711.689	19.138	-0.254	-0.205
-710.675	-96.331	-0.112	-0.030
-709.660	800.000	-0.114	0.452
-708.645	120.489	-0.065	-0.082
-707.631	178.781	0.120	-0.177
-706.616	-41.991	-0.516	-0.267
-705.602	73.041	0.195	-0.206
-704.587	136.718	-0.023	0.030
-703.572	-145.023	-0.242	0.022
-702.558	142.691	0.271	0.363
-701.543	172.105	-0.154	0.223
-700.529	214.112	0.142	-0.226
-699.514	-59.166	-0.107	0.046
-698.499	338.649	-0.044	-0.087
-697.485	151.406	0.271	-0.371
-696.470	-200.000	-0.002	-0.460
-695.456	-178.104	0.267	0.006
-694.441	-200.000	0.016	-0.117
-693.426	-200.000	0.018	-0.186
-692.412	63.258	0.178	0.180
-691.397	-174.708	-0.405	0.012
-690.383	-58.305	-0.110	0.048
-689.368	178.957	0.098	0.144
-688.354	138.208	0.030	0.039
-687.339	800.000	-0.057	-0.201
-686.324	-151.367	-0.262	-0.020
-685.310	68.439	-0.058	0.060
-684.295	-200.000	-0.065	-0.293
-683.281	218.966	-0.329	-0.530
-682.266	800.000	0.092	-0.281
-681.251	-44.623	-0.214	0.108
-680.237	-17.864	0.256	-0.162
-679.222	-200.000	-0.003	-0.074
-678.208	6.482	-0.104	0.078
-677.193	128.898	0.131	0.169
-676.178	-26.161	-0.152	0.090
-675.164	131.237	0.048	0.063
-674.149	-102.371	0.178	0.043
-673.135	-90.484	0.172	0.050
-672.120	103.356	0.092	-0.108
-671.105	-101.640	-0.311	-0.076
-670.091	-200.000	0.032	0.330
-669.076	-107.856	-0.129	0.028
-668.062	58.196	-0.081	0.080
-667.047	129.426	-0.252	-0.324
-666.032	-48.103	0.094	-0.046
-665.018	-200.000	0.062	-0.323
-664.003	-139.775	-0.041	-0.004
-662.989	800.000	-0.157	-0.611
-661.974	-137.803	0.299	-0.034
-660.959	-57.927	-0.152	0.067
-659.945	120.113	-0.112	0.141
-658.930	-168.593	-0.259	-0.010
-657.916	608.649	-0.097	-0.244
-656.901	15.239	-0.302	-0.239
-655.886	-66.354	-0.053	0.021
-654.872	666.179	-0.073	-0.189
-653.857	440.449	-0.126	0.276
-652.843	108.446	0.129	-0.155
-651.828	481.030	-0.073	0.166
-650.814	-200.000	0.012	0.229
-649.799	415.765	0.125	0.268
-648.784	-64.663	-0.341	-0.139
-647.770	63.991	-0.178	-0.180
-646.755	-200.000	-0.065	0.667
-645.741	-171.860	0.288	-0.009
-644.726	800.000	-0.081	-0.286
-643.711	-45.944	-0.140	-0.070
-642.697	27.029	0.043	0.036
-641.682	-50.655	0.376	-0.178
-640.668	482.600	-0.057	-0.131
-639.653	-2.406	-0.110	-0.078
-638.638	106.240	0.135	-0.161
-637.624	-75.158	0.229	-0.082
-636.609	-179.210	0.258	0.006
-635.595	71.609	0.259	0.271
-634.580	-200.000	0.034	0.170
-633.565	-113.828	-0.206	0.040
-632.551	800.000	-0.027	-0.102
-631.536	-37.442	-0.313	0.168
-630.522	-200.000	-0.003	0.141
-629.507	31.732	-0.125	0.108
-628.492	222.527	0.075	-0.122
-627.478	322.839	0.124	0.238
-626.463	-200.000	0.009	0.261
-625.449	-131.035	0.163	0.022
-624.434	583.298	-0.083	-0.204
-623.419	-49.082	0.044	-0.021
-622.405	-90.680	0.257	0.075
-621.390	-200.000	0.020	0.307
-620.376	147.085	-0.051	0.069
-619.361	-200.000	0.026	0.135
-618.346	569.874	0.162	-0.396
-617.332	800.000	0.036	-0.150
-616.317	455.827	-0.147	-0.328
-615.303	800.000	-0.022	-0.093
-614.288	-163.577	-0.346	0.016
-613.273	-156.043	-0.438	-0.028
-612.259	254.658	-0.172	0.295
-611.244	-193.197	-0.096	-0.001
-610.230	112.010	-0.202	-0.245
-609.215	97.385	0.144	0.166
-608.201	-70.205	-0.272	0.104
-607.186	-52.219	-0.130	0.061
-606.171	-68.014	0.112	-0.044
-605.157	83.872	-0.114	-0.125
-604.142	-112.821	-0.217	-0.043
-603.128	7.972	0.303	0.229
-602.113	-200.000	0.009	0.115
-601.098	-200.000	0.022	0.282
-600.084	-110.589	-0.528	-0.110
-599.069	-200.000	-0.020	-0.161
-598.055	-36.842	0.346	0.187
-597.040	-15.543	-0.252	0.161
-596.025	74.333	0.172	-0.182
-595.011	-200.000	0.072	-0.361
-593.996	353.375	0.102	-0.203
-592.982	-54.178	0.131	0.060
-591.967	-115.486	-0.298	0.056
-590.952	-24.735	-0.242	-0.144
-589.938	-58.706	-0.248	0.108
-588.923	-200.000	-0.004	-0.041
-587.909	-69.125	-0.338	0.131
-586.894	800.000	-0.046	-0.189
-585.879	-39.069	-0.201	0.106
-584.865	-14.438	-0.127	0.082
-583.850	-110.551	-0.205	0.043
-582.836	800.000	0.068	0.271
-581.821	43.307	-0.187	0.172
-580.806	22.863	0.243	0.200
-579.792	-200.000	-0.009	0.237
-578.777	-12.306	-0.085	0.056
-577.763	-97.885	0.239	-0.062
-576.748	-69.878	0.303	-0.116
-575.733	-62.691	-0.180	0.075
-574.719	127.689	0.136	-0.173
-573.704	800.000	-0.056	0.181
-572.690	-31.886	0.175	-0.098
-571.675	-171.326	-0.300	-0.010
-570.661	-147.225	-0.431	0.037
-569.646	-200.000	-0.041	-0.216
-568.631	733.866	0.051	0.137
-567.617	-200.000	0.002	-0.259
-566.602	17.335	-0.252	-0.201
-565.588	-135.292	-0.131	-0.016
-564.573	-131.058	0.231	-0.031
-563.558	-200.000	0.015	-0.113
-562.544	-200.000	-0.037	0.212
-561.529	-146.993	-0.302	0.026
-560.515	-37.722	0.150	-0.080
-559.500	-191.342	-0.116	0.001
-558.485	-51.070	0.324	-0.152
-557.471	800.000	-0.093	-0.281
-556.456	-112.210	0.338	0.068
-555.442	-90.860	0.282	-0.081
-554.427	109.315	-0.390	-0.469
-553.412	132.600	0.145	0.187
-552.398	105.623	-0.109	-0.129
-551.383	310.226	0.020	0.038
-550.369	800.000	0.038	-0.150
-549.354	41.751	0.053	-0.049
-548.339	16.601	-0.125	0.099
-547.325	306.641	0.181	-0.337
-546.310	800.000	0.071	-0.199
-545.296	-200.000	-0.021	-0.377
-544.281	126.416	0.138	0.175
-543.266	-120.280	-0.219	0.037
-542.252	185.630	-0.130	0.194
-541.237	-50.222	0.206	0.098
-540.223	288.169	-0.082	-0.149
-539.208	-160.614	-0.417	0.022
-538.193	-200.000	0.006	0.257
-537.179	66.809	-0.133	0.136
-536.164	-86.154	-0.330	-0.102
-535.150	56.909	-0.076	-0.074
-534.135	646.913	0.152	-0.390
-533.121	-126.900	0.258	-0.038
-532.106	-113.694	-0.249	-0.049
-531.091	-97.624	0.371	-0.096
-530.077	-48.032	0.213	0.103
-529.062	106.195	-0.149	0.176
-528.048	565.229	-0.079	0.191
-527.033	367.984	-0.085	-0.173
-526.018	64.951	-0.096	-0.098
-525.004	33.745	0.204	-0.177
-523.989	84.954	-0.027	0.030
-522.975	134.807	0.161	-0.209
-521.960	295.995	0.052	0.096
-520.945	-32.786	0.188	0.105
-519.931	-138.301	-0.428	0.047
-518.916	54.259	-0.287	0.277
-517.902	-200.000	-0.011	0.390
-516.887	-10.679	-0.083	0.055
-515.872	335.695	0.148	0.287
-514.858	-119.282	-0.329	0.057
-513.843	-72.203	-0.222	0.083
-512.829	388.697	0.123	-0.255
-511.814	-58.110	0.161	0.070
-510.799	-85.422	0.148	-0.046
-509.785	46.670	0.086	-0.080
-508.770	800.000	0.062	0.259
-507.756	-77.114	-0.109	0.038
-506.741	800.000	-0.046	0.197
-505.726	-112.609	0.290	0.058
-504.712	-144.253	0.167	-0.016
-503.697	800.000	0.079	0.236
-502.683	368.511	0.097	0.196
-501.668	-96.515	-0.067	-0.018
-500.653	-120.608	-0.174	-0.030
-499.639	-200.000	0.018	-0.127
-498.624	17.253	0.129	-0.103
-497.610	749.026	-0.098	-0.264
-496.595	-136.463	-0.236	-0.027
-495.581	632.550	0.072	-0.182
-494.566	486.819	0.036	0.083
-493.551	-79.695	-0.201	0.068
-492.537	-200.000	0.042	0.334
-491.522	33.112	0.149	-0.130
-490.508	190.676	-0.208	-0.312
-489.493	258.547	-0.085	0.147
-488.478	800.000	0.086	-0.326
-487.464	-121.232	0.196	-0.033
-486.449	-179.160	0.345	-0.008
-485.435	145.410	-0.238	-0.318
-484.420	-148.922	0.136	-0.011
-483.405	257.476	0.027	0.046
-482.391	800.000	0.064	0.185
-481.376	-200.000	-0.013	0.363
-480.362	800.000	-0.140	-0.417
-479.347	180.058	-0.061	0.090
-478.332	-157.505	0.158	-0.009
-477.318	37.504	-0.098	-0.087
-476.303	-8.676	-0.163	0.109
-475.289	101.553	-0.013	0.015
-474.274	6.429	0.188	-0.140
-473.259	162.293	-0.045	0.064
-472.245	26.335	0.239	0.199
-471.230	-78.281	0.089	-0.030
-470.216	-36.494	0.256	-0.138
-469.201	-70.702	-0.114	0.043
-468.186	-108.443	0.172	0.037
-467.172	-86.776	0.090	0.028
-466.157	-200.000	-0.011	0.273
-465.143	-194.357	0.161	-0.001
-464.128	-45.839	0.303	-0.149
-463.113	17.617	-0.192	-0.152
-462.099	340.688	0.029	0.057
-461.084	-136.654	0.242	0.028
-460.070	-200.000	-0.022	-0.098
-459.055	-98.012	0.086	-0.022
-458.040	800.000	-0.100	-0.298
-457.026	215.272	0.112	0.177
-456.011	-21.568	-0.170	0.103
-454.997	800.000	-0.059	-0.214
-453.982	-113.145	0.238	-0.047
-452.968	177.587	0.072	0.105
-451.953	137.933	0.043	-0.057
-450.938	-19.011	0.235	0.146
-449.924	47.991	0.171	-0.159
-448.909	-200.000	-0.011	-0.523
-447.895	800.000	0.036	0.152
-446.880	-200.000	-0.001	-0.229
-445.865	684.798	-0.057	0.148
-444.851	800.000	-0.076	0.215
-443.836	-111.068	0.168	0.034
-442.822	190.084	0.185	-0.278
-441.807	-200.000	0.129	-0.652
-440.792	-128.659	-0.166	-0.023
-439.778	466.966	0.138	-0.308
-438.763	73.802	-0.126	-0.132
-437.749	-17.378	-0.084	0.053
-436.734	-200.000	0.022	-0.098
-435.719	-95.775	0.363	0.097
-434.705	-36.392	0.206	-0.111
-433.690	-144.776	0.154	0.014
-432.676	800.000	0.091	-0.256
-431.661	137.468	-0.170	-0.222
-430.646	169.024	-0.111	-0.158
-429.632	147.397	0.075	-0.100
-428.617	-23.950	0.182	-0.109
-427.603	335.844	0.128	0.248
-426.588	-200.000	0.043	0.303
-425.573	-200.000	-0.034	-0.267
-424.559	19.575	-0.215	-0.173
-423.544	123.537	0.049	0.061
-422.530	442.002	-0.025	0.054
-421.515	145.097	-0.212	-0.283
-420.500	-198.399	-0.188	0.001
-419.486	233.254	0.089	-0.147
-418.471	-200.000	0.040	0.430
-417.457	75.703	-0.226	0.238
-416.442	90.191	0.190	0.212
-415.428	-124.682	0.146	0.023
-414.413	5.187	0.251	-0.184
-413.398	764.424	-0.121	-0.328
-412.384	-108.198	-0.282	-0.061
-411.369	57.187	0.141	-0.137
-410.355	-75.630	0.291	0.103
-409.340	800.000	0.045	0.193
-408.325	200.992	-0.143	-0.220
-407.311	351.713	-0.203	-0.402
-406.296	369.383	-0.125	-0.253
-405.282	99.931	-0.299	0.346
-404.267	480.926	-0.141	0.319
-403.252	800.000	-0.045	0.143
-402.238	-200.000	-0.037	-0.221
-401.223	-200.000	0.000	0.191
-400.209	126.979	0.087	-0.110
-399.194	800.000	0.071	-0.197
-398.179	-39.036	-0.174	0.091
-397.165	-62.341	-0.344	-0.143
-396.150	-75.076	-0.179	-0.064
-395.136	133.540	0.238	0.307
-394.121	-75.227	-0.106	0.038
-393.106	-33.552	-0.278	0.153
-392.092	800.000	-0.069	-0.197
-391.077	-200.000	0.083	0.369
-390.063	-200.000	-0.017	-0.193
-389.048	-122.472	0.340	0.055
-388.033	-145.581	0.220	0.020
-387.019	-10.180	-0.114	0.075
-386.004	-64.615	-0.339	-0.137
-384.990	37.354	-0.100	-0.088
-383.975	-200.000	-0.004	0.099
-382.960	-200.000	-0.073	0.339
-381.946	-52.326	0.182	-0.084
-380.931	-26.207	0.264	0.155
-379.917	-200.000	-0.051	-0.283
-378.902	-8.015	-0.195	0.131
-377.888	508.614	0.143	-0.331
-376.873	-51.971	-0.046	-0.021
-375.858	800.000	0.055	0.183
-374.844	-130.256	-0.080	-0.011
-373.829	-200.000	0.060	-0.315
-372.815	-200.000	-0.018	0.243
-371.800	800.000	0.064	0.234
-370.785	-200.000	0.020	-0.213
-369.771	302.170	0.074	0.136
-368.756	94.956	-0.113	0.128
-367.742	-8.100	0.042	0.028
-366.727	-200.000	-0.017	0.238
-365.712	-200.000	0.062	-0.363
-364.698	746.255	0.039	-0.105
-363.683	-200.000	0.002	-0.261
-362.669	742.109	0.048	0.129
-361.654	14.825	0.188	0.147
-360.639	-69.029	0.333	0.128
-359.625	-152.808	0.266	-0.019
-358.610	396.253	-0.294	0.612
-357.596	-114.042	-0.215	-0.041
-356.581	-70.260	0.333	-0.126
-355.566	-200.000	-0.005	0.057
-354.552	61.473	-0.254	0.251
-353.537	-70.573	0.181	-0.068
-352.523	42.930	0.135	0.123
-351.508	200.175	-0.065	0.100
-350.493	652.276	-0.105	-0.269
-349.479	-163.692	-0.237	-0.011
-348.464	-200.000	0.050	-0.252
-347.450	199.440	0.108	-0.165
-346.435	-17.546	0.221	0.138
-345.420	800.000	0.086	-0.268
-344.406	133.117	0.219	-0.281
-343.391	-133.363	0.138	0.017
-342.377	-200.000	0.016	-0.188
-341.362	-115.452	0.270	0.051
-340.348	-27.450	-0.140	0.081
-339.333	-74.673	-0.399	0.143
-338.318	774.131	0.023	0.061
-337.304	-200.000	0.065	-0.354
-336.289	-200.000	-0.008	-0.056
-335.275	-57.982	-0.081	0.035
-334.260	-77.269	0.143	0.049
-333.245	-83.956	0.042	-0.013
-332.231	-119.894	0.110	-0.019
-331.216	222.588	-0.167	0.267
-330.202	-89.607	0.383	-0.112
-329.187	-101.496	-0.101	0.025
-328.172	199.966	-0.071	-0.109
-327.158	-142.648	-0.178	-0.017
-326.143	-200.000	-0.037	-0.195
-325.129	79.907	-0.155	0.166
-324.114	-24.769	-0.227	-0.134
-323.099	592.275	0.083	0.204
-322.085	-144.961	0.340	0.031
-321.070	-82.864	0.184	-0.059
-320.056	-198.558	0.291	0.002
-319.041	38.994	0.341	0.303
-318.026	800.000	0.082	0.237
-317.012	36.346	-0.136	0.119
-315.997	28.834	0.052	0.044
-314.983	-52.163	0.260	-0.120
-313.968	279.551	0.080	-0.143
-312.953	307.681	-0.019	0.036
-311.939	287.809	-0.065	-0.117
-310.924	-115.558	-0.306	0.057
-309.910	-143.874	0.244	-0.023
-308.895	327.042	0.208	0.395
-307.880	-200.000	0.049	-0.306
-306.866	-200.000	-0.077	0.000
-305.851	-53.558	-0.316	-0.143
-304.837	-200.000	0.052	-0.426
-303.822	3.012	0.263	-0.190
-302.807	430.536	-0.104	-0.225
-301.793	752.596	-0.050	0.134
-300.778	800.000	0.030	0.120
-299.764	-96.645	-0.351	0.092
-298.749	-200.000	0.040	-0.224
-297.735	265.021	0.090	0.156
-296.720	280.931	0.090	-0.160
-295.705	-94.234	-0.393	-0.107
-294.691	-60.466	0.230	0.097
-293.676	-35.978	0.156	0.084
-292.662	-73.291	-0.336	0.122
-291.647	-91.719	0.370	0.104
-290.632	-77.806	-0.283	0.097
-289.618	-89.587	-0.182	-0.053
-288.603	-98.347	0.241	-0.061
-287.589	-152.216	0.188	-0.013
-286.574	-22.003	0.141	0.085
-285.559	119.029	0.071	-0.087
-284.545	-147.053	0.446	0.038
-283.530	-147.665	0.329	-0.027
-282.516	-136.239	-0.146	-0.017
-281.501	-132.431	-0.246	-0.031
-280.486	82.988	-0.041	0.044
-279.472	-51.283	-0.287	0.133
-278.457	215.317	-0.107	-0.169
-277.443	-104.105	0.054	-0.012
-276.428	-95.424	0.275	0.073
-275.413	-200.000	0.008	-0.169
-274.399	181.456	-0.015	-0.022
-273.384	-200.000	-0.009	0.391
-272.370	-129.516	0.222	-0.031
-271.355	-61.344	0.151	0.063
-270.340	483.283	-0.152	0.342
-269.326	194.355	-0.160	-0.241
-268.311	3.242	-0.066	-0.048
-267.297	800.000	-0.095	0.292
-266.282	-30.412	0.227	0.127
-265.267	509.645	0.174	-0.401
-264.253	-78.075	0.044	0.015
-263.238	-200.000	0.008	-0.039
-262.224	407.949	0.102	-0.215
-261.209	-125.873	-0.253	0.038
-260.195	-85.541	-0.087	-0.027
-259.180	100.876	0.122	0.140
-258.165	335.517	-0.068	-0.131
-257.151	62.420	-0.161	-0.160
-256.136	-200.000	0.016	0.263
-255.122	-24.060	0.041	0.024
-254.107	162.936	-0.073	-0.101
-253.092	60.894	-0.193	-0.189
-252.078	38.482	0.012	0.011
-251.063	-37.661	-0.271	0.143
-250.049	800.000	-0.085	-0.254
-249.034	12.635	0.066	0.051
-248.019	147.660	0.108	-0.144
-247.005	800.000	0.041	0.147
-245.990	-200.000	-0.045	-0.471
-244.976	79.876	0.152	-0.162
-243.961	-30.130	-0.126	-0.071
-242.946	69.399	0.183	0.187
-241.932	37.613	0.166	0.146
-240.917	619.148	-0.147	-0.365
-239.903	-117.564	-0.104	-0.019
-238.888	-200.000	-0.062	-0.331
-237.873	-6.956	-0.237	0.159
-236.859	-110.919	-0.087	0.018
-235.844	56.771	-0.224	0.216
-234.830	-38.586	-0.073	0.038
-233.815	-54.740	-0.342	-0.153
-232.800	-200.000	0.023	0.149
-231.786	-42.455	-0.140	0.071
-230.771	303.513	-0.235	0.430
-229.757	590.976	0.105	0.256
-228.742	82.128	-0.081	0.087
-227.727	-85.638	0.447	0.138
-226.713	-81.314	-0.174	0.057
-225.698	275.776	0.101	-0.177
-224.684	-200.000	0.020	0.202
-223.669	581.084	0.034	-0.082
-222.655	-123.775	0.240	0.038
-221.640	493.504	-0.050	0.113
-220.625	-56.874	0.368	-0.161
-219.611	610.462	-0.132	0.327
-218.596	-54.617	-0.013	-0.006
-217.582	-200.000	-0.010	-0.104
-216.567	-113.841	0.094	-0.018
-215.552	-19.566	0.282	0.173
-214.538	262.215	-0.078	0.134
-213.523	-64.210	-0.078	0.031
-212.509	-89.284	0.367	0.107
-211.494	-200.000	-0.011	-0.076
-210.479	-200.000	-0.003	0.405
-209.465	75.390	-0.039	-0.040
-208.450	91.637	0.181	0.202
-207.436	-24.612	-0.107	-0.063
-206.421	61.753	0.127	-0.125
-205.406	99.388	-0.173	-0.197
-204.392	-75.349	-0.466	0.164
-203.377	91.855	-0.155	0.173
-202.363	-29.996	-0.372	-0.209
-201.348	477.412	-0.017	0.039
-200.333	-89.842	0.155	0.045
-199.319	-200.000	-0.431	-0.002
-198.304	629.490	-0.105	-0.263
-197.290	800.000	0.033	-0.102
-196.275	399.643	-0.123	0.255
-195.260	-110.450	-0.455	-0.093
-194.246	127.690	-0.201	-0.253
-193.231	-119.294	0.107	0.018
-192.217	161.941	-0.189	0.261
-191.202	0.620	0.237	-0.168
-190.187	-200.000	-0.004	0.160
-189.173	800.000	-0.096	0.265
-188.158	51.571	0.125	-0.117
-187.144	-200.000	0.049	0.284
-186.129	-149.357	0.253	0.020
-185.114	24.216	-0.205	-0.168
-184.100	-85.743	0.248	-0.076
-183.085	107.236	-0.251	0.295
-182.071	273.509	-0.078	0.136
-181.056	800.000	0.073	0.273
-180.042	362.086	0.066	0.130
-179.027	-200.000	0.017	0.273
-178.012	138.040	0.093	0.120
-176.998	557.657	0.070	0.166
-175.983	-84.552	-0.094	0.029
-174.969	-200.000	-0.010	0.307
-173.954	-167.811	0.232	-0.009
-172.939	800.000	0.039	0.121
-171.925	800.000	-0.072	0.225
-170.910	253.881	-0.070	0.118
-169.896	-80.914	-0.468	-0.153
-168.881	-200.000	0.014	-0.195
-167.866	253.015	-0.023	0.038
-166.852	-92.482	0.201	-0.056
-165.837	-177.808	0.112	0.003
-164.823	-28.973	-0.234	0.132
-163.808	-17.594	0.244	-0.151
-162.793	-48.057	0.121	-0.058
-161.779	-101.468	-0.239	0.057
-160.764	800.000	-0.014	0.047
-159.750	-145.848	-0.196	0.017
-158.735	800.000	0.034	-0.111
-157.720	-200.000	0.001	0.290
-156.706	8.884	0.206	0.154
-155.691	397.251	0.059	-0.122
-154.677	463.356	0.158	-0.349
-153.662	166.663	0.233	-0.326
-152.647	800.000	0.034	0.097
-151.633	-5.885	0.091	0.061
-150.618	31.266	-0.153	0.129
-149.604	-86.099	0.246	-0.075
-148.589	-37.642	0.195	-0.102
-147.574	35.848	0.094	0.082
-146.560	-90.085	0.217	0.062
-145.545	-200.000	0.008	-0.184
-144.531	-52.080	0.346	0.158
-143.516	800.000	-0.105	0.416
-142.502	87.987	0.155	0.170
-141.487	70.105	-0.079	-0.081
-140.472	-13.619	0.144	-0.092
-139.458	195.244	-0.065	-0.097
-138.443	184.069	0.023	-0.034
-137.429	-95.670	-0.375	-0.099
-136.414	-62.873	-0.113	-0.046
-135.399	239.966	-0.123	0.202
-134.385	625.788	0.089	0.221
-133.370	-18.417	-0.201	0.124
-132.356	-86.943	-0.414	0.125
-131.341	109.442	0.173	0.204
-130.326	129.779	0.029	-0.037
-129.312	-200.000	-0.010	-0.275
-128.297	261.655	0.055	0.094
-127.283	61.331	-0.127	-0.125
-126.268	-200.000	0.006	0.124
-125.253	-87.079	-0.085	0.026
-124.239	-179.846	0.086	0.002
-123.224	-61.647	-0.310	-0.128
-122.210	-121.939	0.305	-0.050
-121.195	800.000	0.028	0.121
-120.180	139.751	-0.108	-0.141
-119.166	-50.908	-0.151	-0.070
-118.151	-200.000	-0.022	-0.220
-117.137	292.663	-0.110	-0.197
-116.122	142.418	-0.100	-0.130
-115.107	-7.356	-0.245	-0.164
-114.093	38.215	0.089	0.078
-113.078	108.983	-0.109	-0.128
-112.064	64.766	-0.068	-0.067
-111.049	-14.638	-0.106	-0.067
-110.034	-60.293	0.122	-0.051
-109.020	264.656	0.064	-0.109
-108.005	12.204	0.199	0.151
-106.991	800.000	0.050	0.149
-105.976	316.581	-0.062	0.116
-104.962	312.593	0.095	0.176
-103.947	-200.000	-0.043	-0.205
-102.932	-25.123	0.100	-0.058
-101.918	-12.845	-0.163	0.105
-100.903	-37.757	0.229	-0.120
-99.889	480.581	0.043	-0.095
-98.874	-200.000	0.030	0.382
-97.859	17.277	0.169	0.132
-96.845	-172.883	0.165	-0.005
-95.830	-186.059	0.418	-0.006
-94.816	800.000	0.082	-0.301
-93.801	-200.000	0.100	0.447
-92.786	130.236	-0.164	0.206
-91.772	-89.216	0.136	0.040
-90.757	524.875	-0.080	-0.184
-89.743	39.455	-0.198	0.174
-88.728	800.000	-0.119	0.443
-87.713	371.731	0.196	0.393
-86.699	800.000	0.084	0.282
-85.684	535.710	-0.019	-0.044
-84.670	-200.000	-0.018	-0.274
-83.655	-84.535	-0.142	-0.044
-82.640	-200.000	-0.012	0.094
-81.626	800.000	0.105	0.305
-80.611	112.175	0.094	0.112
-79.597	-200.000	0.082	-0.414
-78.582	-200.000	0.000	-0.111
-77.567	95.501	0.173	0.194
-76.553	-200.000	-0.047	0.272
-75.538	78.302	0.161	-0.169
-74.524	-8.111	0.160	0.106
-73.509	95.247	-0.243	-0.272
-72.494	89.636	-0.189	-0.208
-71.480	800.000	-0.118	0.361
-70.465	-48.039	-0.082	0.039
-69.451	800.000	0.080	0.287
-68.436	-65.097	-0.127	0.051
-67.422	-105.497	0.221	0.049
-66.407	-24.059	0.240	0.141
-65.392	47.145	-0.049	0.045
-64.378	356.306	0.120	0.234
-63.363	-119.851	0.064	0.011
-62.349	779.141	0.093	-0.251
-61.334	-30.183	-1.224	-0.684
-60.319	172.345	0.549	0.777
-59.305	800.000	-0.284	-1.056
-58.290	800.000	0.412	1.264
-57.276	317.500	0.947	1.761
-56.261	-200.000	103.712	566.386
-55.246	456.351	1457.692	3181.028
-54.232	148.456	2646.356	3513.942
-53.217	106.618	2188.502	2552.485
-52.203	40.522	1712.050	1516.144
-51.188	33.188	1521.002	1296.850
-50.173	30.755	1494.214	1257.540
-49.159	50.459	1547.294	1438.279
-48.144	51.108	1564.416	1458.601
-47.130	33.322	1521.818	1298.256
-46.115	30.292	1506.971	1264.920
-45.100	30.111	1503.670	1260.872
-44.086	29.994	1501.816	1258.471
-43.071	30.029	1499.340	1256.583
-42.057	29.965	1497.894	1254.886
-41.042	30.000	1495.941	1253.435
-40.027	29.954	1495.076	1252.354
-39.013	29.938	1493.413	1250.801
-37.998	29.945	1491.799	1249.449
-36.984	29.922	1490.780	1248.389
-35.969	29.992	1489.804	1247.997
-34.954	29.981	1487.880	1246.261
-33.940	29.954	1486.778	1245.103
-32.925	30.041	1484.893	1244.064
-31.911	30.028	1483.940	1243.128
-30.896	30.077	1482.595	1242.277
-29.881	30.159	1481.026	1241.463
-28.867	30.073	1479.721	1239.747
-27.852	30.026	1478.443	1238.309
-26.838	30.014	1477.599	1237.476
-25.823	30.055	1475.890	1236.268
-24.809	30.080	1474.018	1234.815
-23.794	30.044	1472.903	1233.596
-22.779	30.039	1471.611	1232.429
-21.765	29.957	1470.838	1231.189
-20.750	30.029	1469.549	1230.541
-19.736	30.090	1468.298	1229.850
-18.721	29.996	1467.042	1228.120
-17.706	29.948	1466.064	1226.941
-16.692	29.970	1464.987	1226.131
-15.677	30.054	1463.987	1225.806
-14.663	30.065	1462.887	1224.909
-13.648	29.927	1461.831	1223.062
-12.633	29.990	1460.945	1222.686
-11.619	29.948	1460.844	1222.279
-10.604	30.046	1458.819	1221.179
-9.590	30.023	1457.999	1220.297
-8.575	30.105	1457.396	1220.281
-7.560	29.910	1456.565	1218.256
-6.546	29.967	1455.393	1217.602
-5.531	29.847	1455.268	1216.659
-4.517	29.960	1454.306	1216.547
-3.502	30.020	1453.028	1215.826
-2.487	30.022	1452.267	1215.155
-1.473	29.888	1451.087	1213.242
-0.458	29.883	1449.681	1211.981
0.556	28.334	1440.037	1202.437
1.571	25.521	1414.433	1162.788
2.586	22.080	1353.274	1091.077
3.600	20.332	1270.377	1013.948
4.615	19.120	1226.175	971.747
5.629	16.712	1170.324	914.411
6.644	8.472	1084.871	806.160
7.659	1.376	1044.216	741.337
8.673	0.400	1038.401	732.408
9.688	0.154	1035.816	729.326
10.702	0.056	1033.981	727.495
11.717	0.041	1032.224	726.122
12.731	2.826	1034.737	741.292
13.746	11.130	1045.933	789.651
14.761	17.076	1052.797	823.695
15.775	17.270	1052.682	824.475
16.790	16.445	1050.552	818.737
17.804	15.307	1048.597	811.637
18.819	14.571	1046.530	806.408
19.834	14.164	1045.226	803.367
20.848	13.835	1044.347	801.035
21.863	13.565	1043.601	799.090
22.877	13.608	1042.090	798.069
23.892	13.232	1041.466	795.709
24.907	13.150	1040.721	794.675
25.921	13.127	1040.153	794.063
26.936	12.996	1039.733	793.043
27.950	13.021	1039.323	792.777
28.965	13.155	1038.203	792.499
29.980	13.215	1037.254	791.991
30.994	13.285	1036.322	791.543
32.009	13.422	1035.215	791.285
33.023	13.317	1035.043	790.578
34.038	13.305	1034.442	789.995
35.053	13.310	1033.203	789.002
36.067	13.277	1032.271	788.062
37.082	13.270	1031.388	787.284
38.096	13.369	1030.988	787.382
39.111	13.279	1030.050	786.169
40.126	13.345	1029.308	785.842
41.140	13.256	1028.567	784.788
42.155	13.198	1027.063	783.293
43.169	13.159	1026.311	782.470
44.184	13.020	1025.846	781.388
45.199	13.095	1024.383	780.557
46.213	13.050	1023.865	779.882
47.228	13.192	1022.493	779.434
48.242	13.284	1021.268	778.867
49.257	13.310	1020.418	778.271
50.271	13.204	1019.859	777.276
51.286	13.210	1018.640	776.311
52.301	13.242	1017.900	775.828
53.315	13.301	1016.979	775.331
54.330	13.315	1016.152	774.697
55.344	13.113	1015.926	773.514
56.359	13.156	1014.473	772.539
57.374	13.176	1013.810	772.060
58.388	13.125	1012.813	770.993
59.403	13.107	1012.019	770.236
60.417	13.151	1011.051	769.637
61.432	13.171	1010.611	769.327
62.447	13.063	1009.984	768.278
63.461	13.049	1009.067	767.449
64.476	13.015	1008.269	766.616
65.490	12.994	1006.991	765.479
66.505	12.949	1006.548	764.864
67.520	12.944	1005.925	764.302
68.534	13.114	1005.150	764.433
69.549	13.095	1004.493	763.776
70.563	13.177	1003.288	763.172
71.578	13.184	1002.607	762.618
72.593	12.999	1001.644	760.965
73.607	13.048	1000.701	760.405
74.622	12.900	1000.235	759.306
75.636	12.976	999.099	758.726
76.651	13.008	998.083	758.033
77.666	13.047	997.392	757.622
78.680	12.898	996.764	756.391
79.695	13.001	996.243	756.402
80.709	12.999	995.797	755.987
81.724	13.127	994.607	755.604
82.739	13.115	993.993	755.013
83.753	13.155	993.126	754.474
84.768	13.261	992.635	754.518
85.782	13.196	992.209	753.827
86.797	13.225	991.291	753.196
87.812	13.411	990.264	753.195
88.826	13.196	989.164	751.315
89.841	13.120	988.910	750.713
90.855	13.418	987.573	750.980
91.870	13.183	987.237	749.593
92.884	13.284	986.379	749.332
93.899	13.191	986.001	748.560
94.914	13.307	985.004	748.262
95.928	13.379	984.109	747.842
96.943	13.312	984.119	747.479
97.957	13.313	982.988	746.559
98.972	13.316	981.885	745.666
99.987	13.290	981.427	745.139
101.001	13.365	980.727	744.879
102.016	13.346	979.881	744.082
103.030	13.306	978.740	742.973
104.045	13.322	977.825	742.283
105.060	13.270	977.472	741.716
106.074	13.409	975.679	740.911
107.089	13.296	975.101	739.903
108.103	13.135	974.154	738.400
109.118	13.085	973.383	737.527
110.133	13.195	972.294	737.125
111.147	13.143	971.735	736.404
112.162	13.224	970.713	735.924
113.176	13.129	969.834	734.770
114.191	13.175	969.008	734.287
115.206	13.196	968.327	733.800
116.220	13.217	967.450	733.161
117.235	13.224	966.502	732.412
118.249	13.245	965.689	731.821
119.264	13.241	964.684	730.979
120.279	13.164	963.912	729.987
121.293	13.218	963.041	729.501
122.308	13.162	962.670	728.908
123.322	13.087	962.132	728.108
124.337	13.094	960.895	727.136
125.352	13.096	959.491	726.019
126.366	13.275	958.231	725.786
127.381	13.107	957.591	724.501
128.395	13.216	956.561	724.134
129.410	13.118	955.390	722.757
130.424	13.204	954.501	722.395
131.439	13.201	953.841	721.818
132.454	13.218	952.899	721.118
133.468	13.269	952.227	720.768
134.483	13.246	951.581	720.112
135.497	13.249	950.885	719.536
136.512	13.175	950.361	718.752
137.527	13.166	949.334	717.876
138.541	13.259	948.256	717.399
139.556	13.148	948.202	716.813
140.570	13.336	946.811	716.514
141.585	13.218	946.053	715.366
142.600	13.320	945.843	715.587
143.614	13.423	944.632	715.048
144.629	13.388	943.819	714.219
145.643	13.359	943.351	713.678
146.658	13.383	942.461	713.047
147.673	13.300	941.585	711.964
148.687	13.406	940.381	711.444
149.702	13.333	939.616	710.491
150.716	13.333	938.580	709.644
151.731	13.301	938.273	709.211
152.746	13.221	937.825	708.465
153.760	13.365	936.158	707.762
154.775	13.252	936.093	707.167
155.789	13.247	935.203	706.410
156.804	13.346	934.576	706.296
157.819	13.381	933.732	705.745
158.833	13.355	932.920	704.959
159.848	13.365	932.302	704.469
160.862	13.565	931.695	704.800
161.877	13.556	930.706	703.953
162.892	13.534	929.986	703.251
163.906	13.360	929.183	701.844
164.921	13.324	928.451	701.075
165.935	13.389	927.571	700.626
166.950	13.368	926.449	699.626
167.964	13.437	925.579	699.199
168.979	13.414	924.642	698.334
169.994	13.501	923.717	697.941
171.008	13.501	922.898	697.259
172.023	13.514	921.982	696.559
173.037	13.562	921.548	696.371
174.052	13.505	921.306	695.889
175.067	13.544	920.147	695.116
176.081	13.474	919.340	694.152
177.096	13.496	918.656	693.664
178.110	13.592	917.634	693.231
179.125	13.444	916.947	692.033
180.140	13.714	915.886	692.300
181.154	13.378	915.729	690.716
182.169	13.535	915.453	691.103
183.183	13.670	914.420	690.825
184.198	13.702	913.498	690.201
185.213	13.602	913.511	689.731
186.227	13.799	912.045	689.385
187.242	13.701	912.193	689.026
188.256	13.890	911.090	688.917
189.271	13.948	910.350	688.538
190.286	13.918	909.666	687.833
191.300	13.714	908.841	686.305
192.315	13.604	908.022	685.173
193.329	13.641	907.681	685.008
194.344	13.671	906.711	684.336
195.359	13.599	906.396	683.743
196.373	13.694	905.960	683.745
197.388	13.897	905.429	684.118
198.402	13.744	904.995	683.103
199.417	13.811	904.496	682.941
200.432	13.887	904.165	682.943
201.446	13.956	903.764	682.864
202.461	13.969	902.996	682.273
203.475	14.011	902.432	681.959
204.490	14.035	901.705	681.451
205.504	14.096	900.858	680.999
206.519	13.872	900.668	679.879
207.534	13.936	899.685	679.336
208.548	14.014	898.491	678.695
209.563	13.878	898.098	677.782
210.577	13.983	897.570	677.753
211.592	13.862	897.104	676.847
212.607	14.041	896.296	676.907
213.621	14.149	895.625	676.778
214.636	14.062	895.316	676.132
215.650	14.013	894.204	675.033
216.665	13.955	893.998	674.583
217.680	14.067	892.986	674.215
218.694	14.221	892.721	674.580
219.709	14.304	892.337	674.562
220.723	14.205	891.524	673.492
221.738	14.278	890.768	673.152
222.753	14.214	889.909	672.186
223.767	14.222	889.447	671.812
224.782	14.278	888.870	671.543
225.796	14.286	887.989	670.848
226.811	14.307	886.960	670.096
227.826	14.274	886.768	669.758
228.840	14.186	886.201	668.919
229.855	14.259	885.378	668.533
230.869	14.391	884.797	668.563
231.884	14.427	884.024	668.064
232.899	14.288	883.455	667.017
233.913	14.212	882.718	666.097
234.928	14.317	881.782	665.752
235.942	14.269	881.218	665.076
236.957	14.158	880.322	663.898
237.972	14.252	880.126	664.068
238.986	14.366	879.149	663.723
240.001	14.264	878.852	663.037
241.015	14.293	878.254	662.641
242.030	14.377	877.387	662.263
243.045	14.417	876.392	661.612
244.059	14.561	875.912	661.761
245.074	14.432	875.588	660.945
246.088	14.419	874.907	660.325
247.103	14.490	874.549	660.275
248.117	14.468	873.773	659.543
249.132	14.479	873.300	659.172
250.147	14.572	872.675	659.010
251.161	14.610	872.038	658.621
252.176	14.702	871.285	658.357
253.190	14.682	870.608	657.708
254.205	14.762	869.971	657.483
255.220	14.806	869.704	657.394
256.234	14.768	869.063	656.704
257.249	14.798	868.026	655.980
258.263	14.680	867.743	655.246
259.278	14.847	867.367	655.557
260.293	14.784	866.830	654.848
261.307	14.964	865.807	654.722
262.322	14.966	865.435	654.388
263.336	14.923	864.801	653.683
264.351	15.056	863.920	653.482
265.366	15.021	863.246	652.777
266.380	15.135	862.693	652.744
267.395	14.858	862.450	651.422
268.409	14.963	861.643	651.163
269.424	14.855	860.910	650.132
270.439	15.021	860.103	650.112
271.453	15.037	859.445	649.620
272.468	15.006	858.699	648.878
273.482	14.891	857.888	647.761
274.497	14.916	857.829	647.757
275.512	15.078	856.737	647.501
276.526	14.966	856.472	646.812
277.541	14.936	855.485	645.892
278.555	15.109	854.747	645.945
279.570	14.956	854.454	645.077
280.585	15.207	853.615	645.352
281.599	15.216	853.410	645.176
282.614	15.164	852.806	644.460
283.628	15.198	851.828	643.795
284.643	15.173	851.381	643.304
285.657	15.296	850.814	643.293
286.672	15.283	850.843	643.208
287.687	15.156	850.259	642.223
288.701	15.182	849.496	641.689
289.716	15.215	849.004	641.386
290.730	15.345	848.296	641.292
291.745	15.187	847.865	640.306
292.760	15.295	847.355	640.278
293.774	15.297	846.435	639.534
294.789	15.350	845.880	639.258
295.803	15.403	845.217	638.903
296.818	15.429	844.546	638.436
297.833	15.385	843.831	637.673
298.847	15.331	843.373	637.064
299.862	15.426	842.473	636.690
300.876	15.465	842.113	636.510
301.891	15.277	841.593	635.346
302.906	15.437	840.640	635.177
303.920	15.513	840.053	634.965
304.935	15.596	839.312	634.661
305.949	15.653	838.829	634.457
306.964	15.515	838.652	633.744
307.979	15.562	838.089	633.442
308.993	15.598	837.222	632.866
310.008	15.612	836.880	632.603
311.022	15.643	836.322	632.244
312.037	15.610	835.985	631.808
313.052	15.610	835.456	631.352
314.066	15.461	835.014	630.402
315.081	15.607	833.635	629.852
316.095	15.641	833.131	629.543
317.110	15.609	832.721	629.058
318.125	15.696	832.121	628.876
319.139	15.685	831.745	628.494
320.154	15.655	831.453	628.104
321.168	15.707	830.732	627.699
322.183	15.576	830.371	626.882
323.197	15.835	829.466	627.108
324.212	15.817	828.901	626.558
325.227	15.608	829.091	625.869
326.241	15.785	828.162	625.770
327.256	15.770	827.471	625.136
328.270	15.768	827.231	624.894
329.285	15.733	826.930	624.481
330.300	15.751	825.976	623.772
331.314	15.758	825.361	623.277
332.329	15.825	824.757	623.016
333.343	15.753	823.866	622.019
334.358	15.843	823.662	622.143
335.373	15.965	823.052	622.078
336.387	16.021	822.387	621.729
337.402	16.009	821.910	621.266
338.416	16.015	821.398	620.848
339.431	15.916	820.939	620.083
340.446	15.918	820.464	619.676
341.460	16.074	819.581	619.528
342.475	16.121	819.241	619.388
343.489	16.077	818.722	618.778
344.504	16.172	818.247	618.715
345.519	16.056	817.449	617.631
346.533	16.294	817.195	618.254
347.548	16.196	816.969	617.671
348.562	16.158	816.078	616.803
349.577	16.257	815.153	616.410
350.592	16.265	814.732	616.070
351.606	16.241	814.262	615.572
352.621	16.199	813.983	615.152
353.635	16.220	813.680	614.946
354.650	16.171	813.595	614.648
355.665	16.204	812.665	614.010
356.679	16.170	812.859	613.982
357.694	16.242	811.938	613.491
358.708	16.329	811.565	613.470
359.723	16.350	810.699	612.840
360.738	16.261	809.973	611.912
361.752	16.164	809.807	611.383
362.767	16.423	809.293	611.877
363.781	16.410	809.089	611.624
364.796	16.336	808.614	610.941
365.810	16.504	807.899	610.955
366.825	16.510	807.560	610.667
367.840	16.565	807.095	610.457
368.854	16.606	806.795	610.324
369.869	16.540	806.571	609.864
370.883	16.434	805.708	608.776
371.898	16.685	805.098	609.165
372.913	16.692	804.500	608.683
373.927	16.601	804.150	608.038
374.942	16.505	803.678	607.283
375.956	16.658	802.710	607.047
376.971	16.643	802.027	606.422
377.986	16.704	801.594	606.258
379.000	16.740	801.078	605.943
380.015	16.764	800.779	605.750
381.029	16.807	800.211	605.420
382.044	16.677	799.652	604.479
383.059	16.846	799.240	604.717
384.073	16.768	798.852	604.093
385.088	16.741	798.153	603.415
386.102	16.742	797.791	603.089
387.117	16.857	796.999	602.849
388.132	16.812	796.410	602.187
389.146	16.890	796.256	602.294
390.161	16.898	795.965	602.051
391.175	16.888	795.675	601.742
392.190	16.927	795.066	601.367
393.205	16.890	794.674	600.885
394.219	16.783	794.412	600.257
395.234	16.886	793.860	600.150
396.248	16.925	793.078	599.645
397.263	16.716	793.212	598.953
398.278	16.979	792.017	598.927
399.292	16.807	791.425	597.819
400.307	16.822	791.397	597.797
401.321	16.900	790.962	597.692
402.336	16.859	790.656	597.263
403.350	16.971	790.613	597.573
404.365	16.888	790.120	596.854
405.380	16.900	789.705	596.532
406.394	16.985	789.237	596.422
407.409	17.052	788.605	596.127
408.423	17.127	787.898	595.805
409.438	17.248	787.539	595.906
410.453	17.170	787.009	595.176
411.467	17.250	786.774	595.227
412.482	17.226	786.299	594.730
413.496	17.238	785.757	594.311
414.511	17.240	785.553	594.111
415.526	17.245	785.190	593.800
416.540	17.284	784.570	593.415
417.555	17.352	784.224	593.338
418.569	17.307	783.856	592.850
419.584	17.261	783.707	592.523
420.599	17.339	782.977	592.191
421.613	108.613	1288.511	1466.001
422.628	93.008	1362.129	1466.113
