DTS Sentinel unit serial number:	SN413079Multiplexer serial number:	ORYXHardware model number:	OX4-SRSoftware version number:	ORYX F/W v4.00 Oryx Data Collector v3.7.2.0data status	okinstallation	princeton_trtdifferential loss correction	single-endedforward channel	channel 3reverse channel	N/Adate	2019/09/18time	06:36:35forward acquisition time	60.00reverse acquisition time	0.00gamma	496.2192k internal	0.2343k external	0.2343temperature offset calibration	0.9948default loss term (dB/km)	0.3790temperature slope calibration	1.0000multiplexer offset coefficient	1.0000multiplexer slope coefficient	1.0000fibre end	0.00T internal ref (°C)	23.31T ext. ref 1 (°C)	0.19T ext. ref 2 (°C)	17.18length (m)	temperature (°C)	Stokes	anti-Stokes-747.200	-11.023	-0.173	-0.114
-746.185	272.147	0.066	0.116
-745.171	-9.746	-0.146	-0.097
-744.156	-154.356	-0.236	-0.016
-743.142	51.202	0.187	0.178
-742.127	-95.791	0.108	0.029
-741.112	-124.145	0.284	-0.045
-740.098	366.109	-0.217	0.437
-739.083	93.069	0.234	0.265
-738.069	216.630	0.119	0.190
-737.054	-0.928	0.072	-0.051
-736.039	297.867	-0.156	-0.286
-735.025	-5.039	0.103	-0.071
-734.010	122.552	-0.271	-0.339
-732.996	-200.000	-0.075	-0.400
-731.981	188.512	-0.126	0.189
-730.966	373.090	0.091	0.184
-729.952	3.285	0.226	-0.164
-728.937	-140.966	0.084	-0.009
-727.923	800.000	-0.087	0.379
-726.908	-200.000	-0.024	-0.381
-725.894	-103.354	-0.440	-0.104
-724.879	800.000	-0.056	0.166
-723.864	-117.323	0.255	0.046
-722.850	65.437	0.110	0.111
-721.835	-17.157	0.276	-0.174
-720.821	-95.281	-0.300	0.081
-719.806	800.000	0.083	-0.343
-718.791	-142.960	0.303	-0.029
-717.777	45.008	-0.289	-0.266
-716.762	-26.070	0.179	0.105
-715.748	12.035	-0.220	-0.169
-714.733	34.254	-0.207	-0.181
-713.718	48.528	-0.154	-0.144
-712.704	800.000	-0.034	-0.133
-711.689	-60.269	-0.279	0.119
-710.675	-112.376	0.357	0.071
-709.660	-200.000	-0.008	-0.321
-708.645	-200.000	0.002	-0.404
-707.631	-99.966	0.397	0.099
-706.616	247.483	0.239	-0.403
-705.602	627.171	-0.165	-0.416
-704.587	-200.000	0.271	0.000
-703.572	399.277	-0.083	-0.174
-702.558	165.010	-0.075	-0.105
-701.543	800.000	0.067	0.278
-700.529	-200.000	0.002	0.126
-699.514	-200.000	-0.045	-0.434
-698.499	800.000	-0.082	-0.267
-697.485	-200.000	-0.038	-0.369
-696.470	-123.699	-0.165	-0.026
-695.456	-86.668	0.186	-0.057
-694.441	21.352	-0.069	0.056
-693.426	-27.831	-0.098	-0.057
-692.412	-66.300	-0.483	0.192
-691.397	78.138	-0.114	-0.122
-690.383	11.535	0.100	-0.076
-689.368	-173.618	-0.124	-0.004
-688.354	800.000	-0.044	0.182
-687.339	-92.023	0.160	0.045
-686.324	-200.000	0.022	0.200
-685.310	800.000	0.109	0.455
-684.295	-200.000	-0.005	-0.363
-683.281	-51.040	-0.174	-0.081
-682.266	248.781	-0.132	0.224
-681.251	183.607	-0.155	-0.229
-680.237	-151.029	-0.146	0.011
-679.222	-200.000	-0.032	-0.273
-678.208	-97.831	0.081	0.021
-677.193	90.791	-0.106	0.118
-676.178	-112.402	0.190	-0.038
-675.164	800.000	-0.050	-0.183
-674.149	520.339	-0.188	0.440
-673.135	-43.351	-0.287	-0.145
-672.120	19.995	-0.334	-0.269
-671.105	-91.101	-0.089	-0.026
-670.091	205.973	-0.089	0.139
-669.076	-40.336	0.218	-0.113
-668.062	800.000	0.060	-0.181
-667.047	308.157	0.152	0.283
-666.032	-113.217	-0.483	-0.095
-665.018	112.741	0.088	0.107
-664.003	25.606	-0.084	-0.070
-662.989	55.123	-0.189	-0.183
-661.974	-55.804	0.219	0.098
-660.959	439.422	0.055	-0.120
-659.945	-200.000	0.009	0.107
-658.930	394.987	-0.106	0.221
-657.916	-200.000	0.016	-0.164
-656.901	800.000	-0.046	-0.190
-655.886	-70.171	0.066	0.025
-654.872	800.000	0.056	-0.198
-653.857	33.934	-0.174	0.151
-652.843	-155.913	0.105	0.007
-651.828	44.826	0.069	0.063
-650.814	202.141	-0.279	-0.429
-649.799	-125.793	-0.060	0.009
-648.784	-11.867	0.422	-0.276
-647.770	-40.377	-0.062	0.032
-646.755	-200.000	-0.027	0.272
-645.741	-34.843	-0.049	-0.027
-644.726	-88.446	0.284	-0.085
-643.711	587.646	-0.075	-0.184
-642.697	29.197	-0.015	-0.012
-641.682	-52.588	0.221	-0.102
-640.668	-95.435	0.422	-0.113
-639.653	-53.959	-0.100	0.045
-638.638	403.446	0.085	0.179
-637.624	-141.641	-0.012	-0.001
-636.609	-24.380	0.246	-0.146
-635.595	-162.362	0.093	0.005
-634.580	15.735	0.227	0.178
-633.565	-63.706	0.234	-0.095
-632.551	66.691	-0.050	-0.051
-631.536	323.670	0.102	-0.194
-630.522	-108.961	-0.589	0.125
-629.507	-193.770	-0.226	-0.002
-628.492	-123.551	0.248	-0.039
-627.478	25.600	0.060	-0.050
-626.463	-112.703	-0.361	-0.072
-625.449	281.376	-0.083	-0.149
-624.434	-127.234	-0.204	-0.030
-623.419	-72.551	-0.247	0.091
-622.405	134.144	0.157	-0.202
-621.390	800.000	0.073	0.225
-620.376	129.548	-0.230	0.293
-619.361	-80.805	-0.149	-0.049
-618.346	35.365	0.285	0.249
-617.332	138.493	0.119	0.155
-616.317	-186.807	0.128	0.002
-615.303	-1.201	-0.074	-0.052
-614.288	303.667	-0.103	-0.190
-613.273	-172.372	-0.399	0.013
-612.259	-50.788	0.271	0.127
-611.244	800.000	-0.019	0.054
-610.230	155.738	0.271	0.372
-609.215	-200.000	-0.043	0.194
-608.201	104.996	0.037	-0.043
-607.186	-114.271	-0.281	0.054
-606.171	64.779	-0.208	-0.209
-605.157	-58.651	0.212	-0.092
-604.142	800.000	0.083	0.268
-603.128	267.710	-0.048	0.084
-602.113	-95.081	-0.157	-0.042
-601.098	362.448	-0.008	-0.016
-600.084	-7.557	-0.261	0.176
-599.069	30.711	0.103	-0.087
-598.055	287.289	-0.175	-0.315
-597.040	61.776	0.124	-0.123
-596.025	-100.508	0.175	0.043
-595.011	-88.961	-0.086	-0.025
-593.996	406.103	-0.014	0.030
-592.982	800.000	0.028	-0.112
-591.967	51.890	0.062	0.058
-590.952	396.500	-0.076	0.158
-589.938	-104.764	-0.119	-0.027
-588.923	800.000	0.068	0.257
-587.909	-34.918	-0.260	-0.141
-586.894	-108.043	0.087	0.019
-585.879	123.601	0.176	-0.220
-584.865	476.666	0.094	0.210
-583.850	-114.889	-0.199	0.038
-582.836	-92.070	-0.153	-0.043
-581.821	-200.000	-0.018	0.494
-580.806	103.810	0.107	0.125
-579.792	-38.590	0.117	0.061
-578.777	800.000	-0.069	-0.279
-577.763	-200.000	-0.011	-0.207
-576.748	-200.000	0.061	0.000
-575.733	-200.000	-0.045	0.331
-574.719	800.000	0.077	0.218
-573.704	-124.542	0.140	0.022
-572.690	-85.112	0.233	-0.072
-571.675	22.640	-0.066	0.054
-570.661	65.073	-0.184	-0.185
-569.646	261.380	0.031	0.054
-568.631	-200.000	0.001	0.125
-567.617	-132.140	0.341	-0.044
-566.602	-200.000	-0.007	0.085
-565.588	-34.845	-0.390	-0.212
-564.573	191.818	-0.292	-0.438
-563.558	-146.753	-0.278	0.024
-562.544	-137.021	0.452	0.051
-561.529	104.873	-0.269	-0.315
-560.515	-158.111	0.152	-0.009
-559.500	800.000	-0.032	-0.135
-558.485	653.127	0.116	-0.296
-557.471	-123.857	0.144	-0.023
-556.456	1.919	-0.055	-0.039
-555.442	800.000	0.043	-0.157
-554.427	-141.586	0.155	-0.016
-553.412	-72.722	0.187	-0.068
-552.398	-118.939	-0.148	-0.026
-551.383	584.130	-0.054	-0.131
-550.369	-85.176	-0.534	-0.166
-549.354	-127.174	0.359	-0.052
-548.339	440.233	-0.060	0.130
-547.325	-200.000	0.052	-0.388
-546.310	-86.298	-0.204	0.062
-545.296	-21.001	0.331	-0.201
-544.281	-200.000	-0.029	0.372
-543.266	76.409	-0.268	-0.282
-542.252	3.486	-0.064	-0.046
-541.237	-154.345	-0.093	-0.006
-540.223	105.713	-0.070	-0.082
-539.208	-200.000	0.011	0.096
-538.193	70.159	-0.232	-0.238
-537.179	261.535	0.222	-0.382
-536.164	86.267	-0.079	0.087
-535.150	-7.233	-0.208	0.140
-534.135	-200.000	0.008	0.190
-533.121	-200.000	-0.051	0.297
-532.106	-77.113	-0.025	0.009
-531.091	-137.618	0.201	0.022
-530.077	-200.000	-0.003	-0.303
-529.062	800.000	0.026	-0.090
-528.048	-124.104	0.292	0.045
-527.033	-164.036	0.252	0.012
-526.018	121.859	0.063	0.078
-525.004	-153.920	-0.366	0.025
-523.989	-78.074	0.109	0.037
-522.975	199.395	-0.090	-0.137
-521.960	-200.000	-0.014	0.235
-520.945	-27.802	-0.232	-0.134
-519.931	-149.358	0.207	0.016
-518.916	20.044	-0.176	0.141
-517.902	800.000	-0.068	0.213
-516.887	-50.044	0.182	0.086
-515.872	118.987	0.067	-0.082
-514.858	-71.276	-0.065	-0.024
-513.843	33.970	-0.284	-0.246
-512.829	102.422	-0.009	-0.011
-511.814	1.635	0.326	0.233
-510.799	-158.883	-0.360	-0.020
-509.785	182.377	-0.286	0.419
-508.770	197.307	-0.136	-0.206
-507.756	61.838	0.074	0.073
-506.741	-11.895	0.171	-0.111
-505.726	800.000	0.132	0.426
-504.712	315.326	0.105	0.196
-503.697	282.438	-0.105	0.186
-502.683	-42.952	0.046	-0.023
-501.668	587.592	0.073	-0.179
-500.653	39.736	-0.217	-0.193
-499.639	800.000	0.059	0.171
-498.624	402.268	-0.091	0.190
-497.610	-37.451	0.019	-0.010
-496.595	800.000	-0.051	-0.193
-495.581	-136.179	0.374	-0.043
-494.566	-145.193	0.192	0.017
-493.551	37.857	0.096	0.085
-492.537	-174.658	-0.116	0.003
-491.522	-195.120	0.194	-0.001
-490.508	-82.017	0.188	-0.061
-489.493	-107.504	0.264	0.057
-488.478	-200.000	0.103	0.453
-487.464	-104.902	-0.250	-0.057
-486.449	-200.000	0.020	0.278
-485.435	-142.674	0.407	0.039
-484.420	800.000	0.017	-0.061
-483.405	-200.000	-0.036	-0.523
-482.391	800.000	-0.030	0.096
-481.376	-2.330	0.246	0.171
-480.362	443.210	0.066	-0.143
-479.347	-200.000	-0.043	0.287
-478.332	36.573	0.321	0.281
-477.318	60.822	-0.151	0.149
-476.303	-6.531	0.528	-0.356
-475.289	-175.754	0.308	0.008
-474.274	145.242	0.068	0.090
-473.259	-171.097	0.296	-0.010
-472.245	109.782	0.069	-0.082
-471.230	111.711	-0.145	-0.173
-470.216	16.917	-0.322	0.253
-469.201	405.674	0.036	-0.075
-468.186	800.000	-0.034	-0.134
-467.172	-200.000	0.068	-0.304
-466.157	-68.071	-0.168	0.065
-465.143	-200.000	0.009	0.231
-464.128	-118.207	-0.328	0.058
-463.113	20.813	-0.353	-0.283
-462.099	800.000	-0.049	-0.182
-461.084	-70.305	0.011	-0.004
-460.070	623.130	-0.060	0.149
-459.055	-112.824	0.315	0.062
-458.040	800.000	0.033	-0.111
-457.026	-200.000	0.056	0.336
-456.011	-200.000	-0.027	-0.289
-454.997	-37.942	0.196	-0.103
-453.982	134.473	0.165	-0.212
-452.968	-200.000	-0.055	-0.455
-451.953	164.395	-0.102	0.142
-450.938	-3.237	-0.219	-0.151
-449.924	95.276	0.178	0.201
-448.909	-72.185	-0.257	-0.094
-447.895	-85.651	-0.058	0.018
-446.880	-100.802	-0.031	0.007
-445.865	-36.306	0.199	-0.106
-444.851	101.646	0.029	0.034
-443.836	-115.358	-0.129	-0.024
-442.822	43.082	0.242	-0.218
-441.807	655.262	-0.136	0.346
-440.792	-25.055	-0.173	0.102
-439.778	436.486	0.129	0.279
-438.763	265.853	-0.020	0.035
-437.749	-71.219	-0.188	0.070
-436.734	24.306	-0.297	-0.243
-435.719	-200.000	0.062	0.383
-434.705	-103.954	0.111	0.026
-433.690	29.295	-0.183	0.154
-432.676	-122.404	-0.243	-0.039
-431.661	731.112	0.082	0.217
-430.646	-59.224	-0.233	0.099
-429.632	800.000	0.009	-0.040
-428.617	209.834	0.127	-0.198
-427.603	-122.081	-0.369	-0.060
-426.588	-90.355	0.063	-0.018
-425.573	-200.000	0.020	-0.088
-424.559	45.755	-0.140	-0.128
-423.544	165.616	-0.250	-0.349
-422.530	800.000	-0.038	-0.136
-421.515	-45.195	0.252	0.124
-420.500	-200.000	-0.002	0.025
-419.486	463.205	0.150	0.332
-418.471	-14.267	0.106	0.068
-417.457	-200.000	0.005	0.205
-416.442	-25.574	-0.299	-0.174
-415.428	-3.943	-0.138	0.095
-414.413	-200.000	-0.000	-0.058
-413.398	-200.000	-0.004	-0.201
-412.384	13.486	-0.202	-0.155
-411.369	344.639	0.252	0.488
-410.355	-200.000	0.033	0.319
-409.340	800.000	-0.128	0.382
-408.325	228.665	-0.151	-0.244
-407.311	13.575	0.284	-0.218
-406.296	224.591	-0.080	-0.127
-405.282	-200.000	-0.307	-0.001
-404.267	-46.649	0.368	0.178
-403.252	-200.000	-0.017	-0.280
-402.238	71.743	-0.237	-0.243
-401.223	-200.000	0.015	-0.178
-400.209	800.000	0.056	-0.161
-399.194	166.314	0.207	0.289
-398.179	-111.774	-0.033	0.007
-397.165	318.805	0.173	-0.324
-396.150	-91.948	-0.409	0.114
-395.136	196.197	-0.096	-0.144
-394.121	648.239	-0.128	-0.324
-393.106	296.865	0.098	-0.178
-392.092	-58.646	0.081	0.035
-391.077	-20.052	-0.439	0.267
-390.063	-104.042	0.122	0.028
-389.048	-91.367	-0.227	0.064
-388.033	-200.000	0.028	0.308
-387.019	-105.370	0.282	0.063
-386.004	229.880	-0.083	-0.133
-384.990	-200.000	-0.005	0.240
-383.975	133.622	-0.235	0.300
-382.960	122.474	-0.155	-0.192
-381.946	-186.263	0.095	0.001
-380.931	800.000	-0.044	-0.177
-379.917	-87.348	0.232	-0.069
-378.902	13.308	0.150	-0.115
-377.888	67.853	0.018	0.018
-376.873	-101.621	-0.133	0.032
-375.858	800.000	0.012	-0.039
-374.844	71.242	0.108	-0.110
-373.829	-32.209	-0.238	-0.131
-372.815	-89.865	0.211	-0.061
-371.800	-121.588	-0.213	0.035
-370.785	-9.172	-0.351	0.231
-369.771	314.586	-0.091	-0.170
-368.756	114.312	-0.098	-0.118
-367.742	23.486	0.256	-0.208
-366.727	245.418	0.079	-0.131
-365.712	-67.657	0.188	0.073
-364.698	-200.000	-0.007	0.150
-363.683	-200.000	-0.021	-0.202
-362.669	-133.130	0.220	-0.027
-361.654	8.171	0.228	0.169
-360.639	73.377	0.061	0.063
-359.625	-41.016	0.020	-0.010
-358.610	-70.926	-0.223	0.083
-357.596	-62.442	-0.252	-0.103
-356.581	-200.000	0.014	0.141
-355.566	-200.000	0.070	-0.330
-354.552	-101.308	-0.069	-0.017
-353.537	568.505	-0.017	-0.041
-352.523	-89.792	-0.101	-0.029
-351.508	-200.000	0.078	0.340
-350.493	58.701	-0.072	-0.069
-349.479	62.900	-0.079	-0.078
-348.464	-56.696	-0.320	-0.140
-347.450	800.000	0.079	-0.250
-346.435	34.225	0.107	0.092
-345.420	-147.911	-0.148	-0.012
-344.406	-200.000	0.020	0.228
-343.391	800.000	0.074	-0.271
-342.377	-43.928	-0.278	-0.138
-341.362	-99.447	-0.072	-0.018
-340.348	-131.624	-0.164	-0.021
-339.333	52.965	0.047	-0.045
-338.318	-33.872	-0.149	-0.081
-337.304	164.651	0.066	-0.091
-336.289	-20.362	-0.394	-0.239
-335.275	-200.000	0.018	0.313
-334.260	-200.000	0.040	-0.186
-333.245	611.471	-0.006	-0.016
-332.231	221.092	-0.093	0.147
-331.216	-200.000	0.047	0.341
-330.202	66.755	0.070	0.070
-329.187	-200.000	-0.037	-0.509
-328.172	-38.423	0.046	0.024
-327.158	800.000	-0.016	0.066
-326.143	153.085	0.141	0.190
-325.129	-57.544	-0.098	-0.042
-324.114	93.608	0.052	-0.058
-323.099	800.000	-0.057	0.205
-322.085	487.895	0.085	0.192
-321.070	42.577	0.136	0.122
-320.056	-42.933	-0.064	0.032
-319.041	-61.151	0.197	0.082
-318.026	245.879	-0.090	0.149
-317.012	117.158	0.086	-0.104
-315.997	-200.000	0.026	-0.179
-314.983	-72.316	0.110	-0.040
-313.968	107.258	-0.207	-0.243
-312.953	-10.895	0.077	0.050
-311.939	-200.000	0.026	0.120
-310.924	800.000	0.039	0.148
-309.910	489.274	0.075	-0.168
-308.895	115.537	0.193	0.232
-307.880	-83.102	-0.262	-0.083
-306.866	315.097	-0.115	-0.213
-305.851	-109.138	-0.117	-0.025
-304.837	11.246	0.105	-0.079
-303.822	343.324	-0.100	-0.192
-302.807	-90.716	0.266	0.075
-301.793	2.310	-0.187	0.133
-300.778	482.016	0.015	-0.034
-299.764	258.345	0.094	-0.160
-298.749	8.386	0.257	0.190
-297.735	-45.386	-0.081	0.040
-296.720	-10.330	0.195	-0.127
-295.705	-126.286	-0.247	-0.036
-294.691	-32.365	-0.195	0.107
-293.676	-29.564	-0.153	0.086
-292.662	-200.000	0.005	0.087
-291.647	-158.610	-0.357	-0.020
-290.632	-84.770	0.154	-0.048
-289.618	-176.643	-0.100	-0.003
-288.603	-200.000	-0.009	0.340
-287.589	-200.000	0.040	0.241
-286.574	800.000	0.075	0.216
-285.559	-38.709	-0.030	-0.016
-284.545	85.051	0.094	-0.102
-283.530	-134.080	0.103	-0.012
-282.516	-31.663	-0.305	-0.169
-281.501	30.697	0.376	0.317
-280.486	-19.028	0.108	-0.066
-279.472	729.750	0.053	-0.138
-278.457	134.168	-0.059	0.075
-277.443	-200.000	0.010	-0.053
-276.428	800.000	-0.029	0.120
-275.413	-72.805	0.348	0.126
-274.399	193.738	-0.131	-0.196
-273.384	-31.482	-0.144	0.079
-272.370	-200.000	0.001	-0.019
-271.355	-50.335	0.042	-0.019
-270.340	-200.000	-0.034	0.508
-269.326	-0.721	-0.252	0.175
-268.311	32.652	0.145	-0.123
-267.297	324.754	0.160	-0.300
-266.282	-98.766	0.142	0.036
-265.267	77.360	-0.075	-0.078
-264.253	67.403	0.168	0.168
-263.238	606.347	0.032	-0.079
-262.224	800.000	0.014	-0.055
-261.209	800.000	-0.047	0.163
-260.195	254.882	0.108	0.181
-259.180	204.662	-0.101	-0.155
-258.165	481.663	0.125	0.279
-257.151	-200.000	-0.011	0.212
-256.136	-46.446	-0.325	0.157
-255.122	44.648	0.072	0.065
-254.107	96.518	0.097	-0.109
-253.092	229.476	-0.165	-0.265
-252.078	106.945	-0.135	-0.157
-251.063	-158.913	0.170	0.010
-250.049	-82.500	-0.421	0.134
-249.034	-200.000	-0.027	0.288
-248.019	-21.771	0.066	0.040
-247.005	0.471	-0.046	0.033
-245.990	652.833	-0.083	0.209
-244.976	90.774	-0.117	0.128
-243.961	-81.774	-0.234	0.075
-242.946	699.358	0.080	-0.206
-241.932	-141.268	0.401	-0.040
-240.917	107.167	0.193	0.225
-239.903	-200.000	-0.034	-0.242
-238.888	-200.000	0.008	-0.243
-237.873	274.322	-0.045	0.077
-236.859	-92.150	0.357	-0.099
-235.844	-140.667	-0.525	-0.053
-234.830	419.150	0.088	0.185
-233.815	-110.066	0.208	-0.043
-232.800	19.296	0.163	-0.129
-231.786	-166.660	0.138	-0.006
-230.771	-46.492	0.096	0.046
-229.757	288.980	0.111	0.198
-228.742	-200.000	0.027	-0.123
-227.727	360.989	0.113	0.222
-226.713	-200.000	-0.016	-0.451
-225.698	-145.458	-0.106	0.009
-224.684	-140.627	-0.395	0.040
-223.669	-171.498	-0.475	0.015
-222.655	-105.346	0.144	-0.032
-221.640	-200.000	0.027	-0.220
-220.625	-15.693	0.312	0.195
-219.611	0.712	-0.285	-0.200
-218.596	-28.140	0.159	-0.090
-217.582	126.655	0.033	-0.041
-216.567	19.868	0.217	-0.171
-215.552	800.000	0.072	-0.211
-214.538	-200.000	-0.059	-0.315
-213.523	188.999	-0.170	-0.249
-212.509	101.075	0.203	0.231
-211.494	-200.000	-0.046	0.213
-210.479	800.000	-0.148	0.407
-209.465	104.388	0.133	0.154
-208.450	477.939	0.044	-0.097
-207.436	-100.979	-0.252	-0.061
-206.421	-66.838	0.132	-0.051
-205.406	-86.284	-0.419	-0.126
-204.392	-200.000	-0.039	-0.255
-203.377	294.055	0.068	-0.122
-202.363	89.176	-0.186	-0.203
-201.348	44.765	-0.169	-0.153
-200.333	118.772	0.182	-0.220
-199.319	-58.998	0.033	-0.014
-198.304	800.000	-0.081	-0.227
-197.290	136.420	0.265	0.339
-196.275	112.565	0.146	-0.173
-195.260	-200.000	0.013	-0.410
-194.246	616.183	0.082	0.202
-193.231	172.878	-0.064	-0.090
-192.217	-157.031	-0.194	-0.012
-191.202	1.742	0.178	-0.126
-190.187	6.779	0.202	-0.147
-189.173	800.000	0.092	0.249
-188.158	11.003	-0.239	0.179
-187.144	-30.524	-0.116	0.064
-186.129	-200.000	0.031	0.184
-185.114	-11.123	0.116	-0.075
-184.100	-50.619	0.411	0.190
-183.085	-72.939	0.126	0.045
-182.071	282.357	0.126	0.221
-181.056	213.728	-0.082	0.126
-180.042	800.000	0.086	0.244
-179.027	-24.372	0.113	0.066
-178.012	-31.680	-0.260	-0.143
-176.998	282.761	0.188	0.330
-175.983	800.000	0.061	-0.188
-174.969	368.552	0.180	-0.356
-173.954	-200.000	0.010	-0.240
-172.939	800.000	-0.028	0.109
-171.925	-17.380	-0.101	0.062
-170.910	322.961	-0.060	0.111
-169.896	-99.291	-0.183	-0.045
-168.881	217.004	0.136	-0.213
-167.866	37.187	-0.011	0.010
-166.852	-84.263	-0.169	-0.052
-165.837	-159.401	0.329	0.018
-164.823	6.036	0.392	-0.285
-163.808	800.000	0.053	0.179
-162.793	-200.000	-0.425	0.002
-161.779	-146.628	0.138	0.012
-160.764	-169.724	0.186	0.007
-159.750	-91.083	0.132	-0.037
-158.735	-137.921	0.113	0.012
-157.720	-83.654	-0.220	0.069
-156.706	281.035	-0.100	0.175
-155.691	-138.401	0.315	-0.034
-154.677	-200.000	0.039	0.382
-153.662	609.979	0.070	0.172
-152.647	-200.000	-0.026	0.256
-151.633	-118.536	-0.114	-0.020
-150.618	143.238	-0.140	0.182
-149.604	73.501	-0.097	0.100
-148.589	-115.080	0.250	-0.046
-147.574	-65.589	0.049	0.019
-146.560	461.019	0.182	0.396
-145.545	-109.323	0.433	-0.090
-144.531	115.673	0.121	0.145
-143.516	800.000	0.051	-0.160
-142.502	10.385	-0.082	0.061
-141.487	-200.000	-0.034	-0.170
-140.472	-62.644	-0.510	-0.207
-139.458	92.780	0.102	0.112
-138.443	800.000	0.077	0.307
-137.429	-16.104	-0.156	-0.097
-136.414	-200.000	0.014	0.254
-135.399	-38.842	-0.164	-0.084
-134.385	61.475	0.108	-0.105
-133.370	-6.823	0.262	0.174
-132.356	138.271	0.238	0.305
-131.341	-22.548	0.161	0.095
-130.326	-200.000	-0.043	-0.267
-129.312	93.263	0.031	-0.034
-128.297	-73.764	0.369	0.131
-127.283	207.758	0.084	0.129
-126.268	65.651	-0.452	0.447
-125.253	-105.484	0.068	-0.015
-124.239	703.164	-0.055	0.140
-123.224	78.157	0.227	0.236
-122.210	800.000	0.057	0.234
-121.195	110.374	0.173	0.204
-120.180	-4.556	0.226	0.153
-119.166	-70.845	0.089	-0.033
-118.151	-86.859	0.258	-0.077
-117.137	103.939	0.196	-0.225
-116.122	-142.923	0.322	0.030
-115.107	-140.591	0.207	0.021
-114.093	800.000	0.044	-0.170
-113.078	177.830	-0.194	0.276
-112.064	11.635	0.108	-0.081
-111.049	-44.466	-0.277	-0.136
-110.034	393.270	-0.100	-0.204
-109.020	-200.000	0.004	-0.050
-108.005	266.798	0.154	-0.262
-106.991	-200.000	-0.024	0.222
-105.976	-200.000	-0.033	-0.259
-104.962	135.924	-0.191	0.243
-103.947	-45.271	0.335	-0.162
-102.932	57.309	0.094	0.090
-101.918	246.996	-0.054	-0.088
-100.903	-93.504	0.241	-0.065
-99.889	-142.082	0.057	0.006
-98.874	-200.000	-0.028	-0.234
-97.859	-88.038	0.366	0.107
-96.845	-200.000	-0.015	0.210
-95.830	800.000	-0.066	0.251
-94.816	29.573	0.224	-0.186
-93.801	-200.000	0.017	0.116
-92.786	792.081	0.027	-0.071
-91.772	-200.000	-0.007	-0.077
-90.757	800.000	-0.078	0.220
-89.743	-174.333	-0.191	0.005
-88.728	-64.340	-0.058	-0.023
-87.713	45.278	0.121	-0.109
-86.699	-59.194	0.192	0.081
-85.684	-200.000	-0.035	0.171
-84.670	469.267	-0.115	-0.253
-83.655	-9.781	0.171	-0.111
-82.640	-74.641	0.357	0.125
-81.626	-171.882	-0.228	-0.007
-80.611	-105.851	0.123	0.027
-79.597	-138.037	0.242	-0.026
-78.582	-106.371	-0.362	0.079
-77.567	-200.000	-0.053	0.369
-76.553	-112.807	-0.378	0.073
-75.538	-84.027	0.192	0.059
-74.524	-24.511	-0.043	-0.025
-73.509	204.079	-0.121	0.182
-72.494	-200.000	0.016	0.119
-71.480	800.000	-0.117	0.345
-70.465	616.829	-0.065	-0.160
-69.451	145.037	0.120	-0.157
-68.436	-200.000	-0.028	0.199
-67.422	-200.000	-0.042	0.211
-66.407	800.000	-0.144	0.474
-65.392	204.210	0.189	0.285
-64.378	800.000	0.105	0.319
-63.363	800.000	0.079	0.232
-62.349	398.586	0.097	0.197
-61.334	124.936	-1.108	-1.360
-60.319	128.660	1.001	1.244
-59.305	800.000	-0.499	-1.344
-58.290	194.205	1.098	1.622
-57.276	376.209	0.589	1.172
-56.261	-200.000	124.296	645.072
-55.246	404.607	1573.400	3230.951
-54.232	142.253	2734.669	3536.396
-53.217	94.096	2189.438	2420.714
-52.203	33.732	1705.588	1445.575
-51.188	26.286	1523.350	1240.184
-50.173	24.468	1499.808	1208.673
-49.159	48.810	1570.996	1436.076
-48.144	45.985	1584.220	1428.486
-47.130	26.506	1532.852	1249.239
-46.115	23.521	1516.746	1215.643
-45.100	23.392	1512.931	1211.655
-44.086	23.318	1511.428	1209.898
-43.071	23.227	1509.547	1207.720
-42.057	23.350	1507.506	1206.878
-41.042	23.338	1506.047	1205.582
-40.027	23.196	1504.698	1203.489
-39.013	23.275	1503.285	1202.847
-37.998	23.168	1502.469	1201.419
-36.984	23.265	1501.054	1200.898
-35.969	23.236	1499.507	1199.414
-34.954	23.271	1497.598	1198.081
-33.940	23.359	1496.243	1197.541
-32.925	23.353	1495.157	1196.585
-31.911	23.315	1493.929	1195.297
-30.896	23.416	1492.312	1194.639
-29.881	23.374	1491.700	1193.816
-28.867	23.382	1490.016	1192.477
-27.852	23.457	1488.291	1191.553
-26.838	23.309	1487.343	1189.754
-25.823	23.374	1485.667	1188.803
-24.809	23.347	1484.022	1187.253
-23.794	23.365	1482.484	1186.103
-22.779	23.335	1481.536	1185.093
-21.765	23.292	1480.371	1183.828
-20.750	23.402	1478.834	1183.282
-19.736	23.319	1478.345	1182.293
-18.721	23.347	1476.942	1181.310
-17.706	23.302	1476.323	1180.466
-16.692	23.284	1474.895	1179.161
-15.677	23.329	1474.045	1178.732
-14.663	23.350	1473.074	1178.052
-13.648	23.266	1471.854	1176.472
-12.633	23.339	1470.813	1176.072
-11.619	23.312	1470.415	1175.530
-10.604	23.301	1469.281	1174.504
-9.590	23.243	1468.663	1173.581
-8.575	23.272	1467.768	1173.013
-7.560	23.220	1467.001	1172.004
-6.546	23.266	1465.779	1171.291
-5.531	23.396	1464.867	1171.373
-4.517	23.361	1464.402	1170.725
-3.502	23.279	1462.987	1169.000
-2.487	23.279	1462.379	1168.474
-1.473	23.278	1461.168	1167.453
-0.458	23.285	1459.593	1166.189
0.556	21.531	1449.988	1154.705
1.571	18.451	1425.627	1115.194
2.586	15.119	1363.807	1045.961
3.600	13.642	1279.930	972.882
4.615	12.684	1236.779	934.563
5.629	11.178	1179.859	883.315
6.644	5.407	1098.566	793.178
7.659	0.842	1062.645	744.738
8.673	0.285	1057.107	738.066
9.688	0.246	1053.897	735.568
10.702	0.204	1052.693	734.457
11.717	0.025	1050.748	732.163
12.731	2.006	1051.135	742.012
13.746	8.151	1060.028	778.285
14.761	14.269	1067.717	813.853
15.775	16.637	1070.112	827.196
16.790	16.460	1068.511	825.024
17.804	15.413	1067.111	818.760
18.819	14.547	1065.201	813.005
19.834	14.157	1063.470	809.712
20.848	13.855	1062.752	807.624
21.863	13.591	1062.214	805.862
22.877	13.528	1060.783	804.400
23.892	13.226	1060.331	802.520
24.907	13.277	1059.208	801.846
25.921	13.192	1058.586	800.891
26.936	13.200	1058.119	800.505
27.950	13.201	1057.792	800.190
28.965	13.266	1057.021	799.853
29.980	13.330	1055.411	798.873
30.994	13.386	1054.776	798.593
32.009	13.437	1053.608	797.885
33.023	13.455	1052.916	797.373
34.038	13.449	1052.619	797.050
35.053	13.452	1051.269	795.970
36.067	13.260	1050.887	794.691
37.082	13.231	1050.047	793.842
38.096	13.409	1049.018	793.849
39.111	13.358	1048.897	793.446
40.126	13.445	1047.411	792.668
41.140	13.325	1046.514	791.344
42.155	13.334	1045.498	790.547
43.169	13.169	1044.912	789.245
44.184	13.275	1043.662	788.741
45.199	13.219	1042.792	787.746
46.213	13.145	1042.069	786.776
47.228	13.139	1040.897	785.792
48.242	13.326	1039.623	785.652
49.257	13.263	1038.925	784.756
50.271	13.341	1037.509	783.985
51.286	13.489	1036.644	783.961
52.301	13.317	1035.986	782.584
53.315	13.305	1035.410	782.020
54.330	13.294	1034.257	781.029
55.344	13.259	1033.532	780.248
56.359	13.284	1032.253	779.328
57.374	13.269	1031.727	778.792
58.388	13.166	1031.042	777.722
59.403	13.142	1030.213	776.914
60.417	13.240	1029.219	776.556
61.432	13.201	1028.525	775.784
62.447	13.045	1028.181	774.720
63.461	13.197	1026.722	774.266
64.476	13.202	1026.116	773.764
65.490	13.257	1025.189	773.255
66.505	13.227	1023.989	772.142
67.520	13.145	1023.711	771.481
68.534	13.062	1022.864	770.386
69.549	13.188	1021.784	770.089
70.563	13.243	1021.254	769.879
71.578	13.093	1020.980	768.906
72.593	13.173	1019.645	768.204
73.607	13.058	1018.983	767.106
74.622	13.182	1017.895	766.793
75.636	13.160	1016.970	765.926
76.651	13.153	1016.373	765.378
77.666	13.084	1015.349	764.220
78.680	13.023	1014.847	763.489
79.695	13.129	1013.815	763.135
80.709	13.146	1013.345	762.793
81.724	13.216	1012.666	762.540
82.739	13.119	1011.980	761.505
83.753	13.162	1011.395	761.199
84.768	13.380	1010.521	761.477
85.782	13.334	1009.420	760.366
86.797	13.460	1008.376	760.092
87.812	13.371	1007.664	759.082
88.826	13.391	1007.144	758.712
89.841	13.395	1006.168	757.930
90.855	13.353	1005.285	757.005
91.870	13.431	1004.496	756.700
92.884	13.430	1004.098	756.330
93.899	13.401	1003.357	755.572
94.914	13.455	1002.427	755.050
95.928	13.496	1001.745	754.655
96.943	13.520	1000.837	754.013
97.957	13.373	1000.293	752.871
98.972	13.344	999.634	752.174
99.987	13.468	998.625	751.912
101.001	13.396	998.196	751.197
102.016	13.495	997.118	750.767
103.030	13.381	995.964	749.318
104.045	13.417	994.961	748.660
105.060	13.504	994.170	748.392
106.074	13.370	993.343	747.097
107.089	13.274	992.649	746.073
108.103	13.175	991.791	744.918
109.118	13.263	990.663	744.399
110.133	13.326	989.905	744.049
111.147	13.332	988.975	743.309
112.162	13.339	988.487	742.910
113.176	13.310	987.507	741.980
114.191	13.352	986.279	741.179
115.206	13.479	985.105	740.796
116.220	13.314	984.768	739.738
117.235	13.372	983.735	739.157
118.249	13.287	983.276	738.370
119.264	13.348	982.443	737.949
120.279	13.238	981.873	736.965
121.293	13.228	981.319	736.442
122.308	13.283	979.883	735.543
123.322	13.249	979.478	735.024
124.337	13.235	977.889	733.702
125.352	13.186	976.858	732.645
126.366	13.150	975.357	731.297
127.381	13.189	974.528	730.785
128.395	13.343	973.220	730.418
129.410	13.260	972.707	729.602
130.424	13.229	971.586	728.559
131.439	13.251	970.740	727.957
132.454	13.333	970.046	727.735
133.468	13.316	969.190	726.953
134.483	13.321	968.622	726.484
135.497	13.259	968.265	725.878
136.512	13.408	967.136	725.624
137.527	13.224	966.365	724.172
138.541	13.269	965.600	723.735
139.556	13.327	965.018	723.487
140.570	13.346	964.175	722.874
141.585	13.416	963.544	722.642
142.600	13.423	962.688	721.967
143.614	13.479	962.376	721.916
144.629	13.511	961.595	721.403
145.643	13.544	960.620	720.750
146.658	13.480	959.546	719.603
147.673	13.403	958.893	718.715
148.687	13.490	958.254	718.550
149.702	13.474	957.227	717.648
150.716	13.503	955.955	716.758
151.731	13.425	955.820	716.253
152.746	13.442	954.844	715.531
153.760	13.455	954.092	714.961
154.775	13.609	953.248	714.932
155.789	13.515	952.489	713.891
156.804	13.603	951.698	713.618
157.819	13.582	950.983	712.926
158.833	13.625	950.279	712.519
159.848	13.635	949.792	712.134
160.862	13.617	949.003	711.405
161.877	13.701	948.280	711.160
162.892	13.515	947.756	709.906
163.906	13.466	947.048	709.103
164.921	13.625	945.515	708.574
165.935	13.623	944.975	708.097
166.950	13.574	943.859	706.987
167.964	13.558	942.838	706.094
168.979	13.664	941.953	705.820
169.994	13.702	940.707	704.982
171.008	13.631	940.270	704.293
172.023	13.698	938.979	703.548
173.037	13.632	938.897	703.145
174.052	13.756	937.378	702.469
175.067	13.682	937.281	702.023
176.081	13.642	936.463	701.176
177.096	13.665	935.619	700.580
178.110	13.626	934.921	699.833
179.125	13.733	934.206	699.683
180.140	13.683	933.220	698.677
181.154	13.626	932.969	698.182
182.169	13.636	931.790	697.284
183.183	13.773	931.365	697.480
184.198	13.805	930.654	697.020
185.213	13.894	930.146	696.950
186.227	13.941	928.952	696.191
187.242	13.948	928.580	695.882
188.256	13.943	927.730	695.159
189.271	13.947	927.389	694.862
190.286	13.930	926.433	694.010
191.300	13.877	925.677	693.160
192.315	13.882	924.780	692.451
193.329	13.664	924.693	691.414
194.344	13.744	923.489	690.789
195.359	13.833	923.353	690.993
196.373	14.009	922.246	690.837
197.388	14.046	921.802	690.595
198.402	13.960	921.722	690.118
199.417	14.079	920.997	690.008
200.432	14.066	920.668	689.645
201.446	14.104	920.132	689.344
202.461	14.064	920.079	689.077
203.475	14.113	919.579	688.844
204.490	14.225	918.243	688.244
205.504	14.348	917.259	687.952
206.519	14.282	916.618	687.142
207.534	14.111	916.087	685.976
208.548	14.115	915.860	685.760
209.563	14.099	915.267	685.189
210.577	14.231	913.851	684.612
211.592	14.021	913.933	683.750
212.607	14.209	913.115	683.850
213.621	14.286	912.154	683.385
214.636	14.136	911.682	682.357
215.650	14.239	911.108	682.289
216.665	14.336	910.119	681.885
217.680	14.363	909.805	681.701
218.694	14.237	909.606	680.974
219.709	14.377	909.242	681.216
220.723	14.207	908.432	679.855
221.738	14.381	907.277	679.640
222.753	14.382	906.497	679.000
223.767	14.314	906.211	678.448
224.782	14.281	905.330	677.594
225.796	14.484	904.310	677.594
226.811	14.515	904.049	677.467
227.826	14.520	903.047	676.675
228.840	14.430	902.397	675.762
229.855	14.388	901.948	675.196
230.869	14.576	901.183	675.324
231.884	14.559	900.190	674.453
232.899	14.502	899.874	673.925
233.913	14.523	899.319	673.535
234.928	14.477	898.665	672.799
235.942	14.460	897.757	671.993
236.957	14.583	896.843	671.745
237.972	14.355	896.884	670.798
238.986	14.384	896.344	670.452
240.001	14.502	895.111	669.946
241.015	14.633	894.340	669.831
242.030	14.661	894.005	669.633
243.045	14.586	893.400	668.824
244.059	14.524	893.094	668.286
245.074	14.582	892.084	667.703
246.088	14.649	891.508	667.481
247.103	14.663	890.823	666.965
248.117	14.648	890.464	666.575
249.132	14.829	889.850	666.780
250.147	14.774	889.183	666.002
251.161	14.947	888.115	665.832
252.176	14.886	887.798	665.291
253.190	14.918	886.763	664.586
254.205	14.861	886.426	664.047
255.220	14.913	885.909	663.808
256.234	14.992	884.869	663.282
257.249	14.972	884.671	662.998
258.263	14.989	884.214	662.662
259.278	14.976	883.416	661.954
260.293	14.904	883.055	661.343
261.307	15.079	882.230	661.358
262.322	15.157	881.601	661.134
263.336	15.165	880.905	660.584
264.351	15.061	880.466	659.789
265.366	15.076	880.073	659.493
266.380	15.108	879.579	659.192
267.395	15.174	878.361	658.481
268.409	15.173	877.881	658.057
269.424	15.120	877.389	657.422
270.439	15.204	876.245	656.837
271.453	15.184	875.428	656.086
272.468	15.201	874.870	655.677
273.482	15.243	873.867	655.031
274.497	15.229	873.742	654.826
275.512	15.265	872.521	653.992
276.526	15.356	872.174	654.031
277.541	15.241	871.510	653.027
278.555	15.335	871.022	652.968
279.570	15.331	870.665	652.629
280.585	15.336	870.095	652.163
281.599	15.405	869.070	651.603
282.614	15.404	868.458	651.085
283.628	15.397	868.053	650.694
284.643	15.342	867.993	650.382
285.657	15.459	867.342	650.287
286.672	15.397	866.480	649.344
287.687	15.330	865.996	648.664
288.701	15.452	865.564	648.756
289.716	15.505	864.477	648.086
290.730	15.568	863.992	647.908
291.745	15.492	863.844	647.448
292.760	15.569	862.828	646.925
293.774	15.532	862.206	646.260
294.789	15.602	861.702	646.095
295.803	15.751	860.804	645.936
296.818	15.562	860.509	644.931
297.833	15.715	859.551	644.744
298.847	15.694	859.004	644.194
299.862	15.747	858.129	643.684
300.876	15.630	857.713	642.870
301.891	15.594	856.916	642.079
302.906	15.752	856.290	642.154
303.920	15.661	856.048	641.571
304.935	15.886	855.112	641.668
305.949	15.828	855.007	641.311
306.964	15.816	854.317	640.690
307.979	15.843	853.372	640.031
308.993	15.855	852.867	639.639
310.008	15.744	852.270	638.714
311.022	15.935	851.900	639.104
312.037	15.858	851.727	638.626
313.052	15.877	851.040	638.126
314.066	15.936	849.938	637.465
315.081	15.946	849.339	636.997
316.095	15.910	848.904	636.481
317.110	15.834	848.420	635.776
318.125	15.835	847.916	635.346
319.139	15.879	847.277	634.976
320.154	15.886	846.733	634.536
321.168	15.979	846.354	634.547
322.183	15.890	845.774	633.721
323.197	15.928	845.466	633.576
324.212	15.891	844.646	632.769
325.227	15.872	844.126	632.253
326.241	16.083	843.307	632.374
327.256	16.080	842.622	631.794
328.270	16.128	842.273	631.655
329.285	16.047	841.704	630.870
330.300	16.115	841.175	630.671
331.314	16.136	840.853	630.451
332.329	16.037	840.179	629.523
333.343	15.937	839.712	628.743
334.358	16.017	839.225	628.622
335.373	16.218	838.424	628.715
336.387	16.173	837.691	627.942
337.402	16.122	837.794	627.771
338.416	15.983	837.337	626.858
339.431	16.183	836.571	626.971
340.446	16.375	835.659	626.948
341.460	16.397	835.077	626.537
342.475	16.431	834.494	626.170
343.489	16.498	833.616	625.704
344.504	16.373	833.673	625.227
345.519	16.400	833.127	624.864
346.533	16.467	832.490	624.576
347.548	16.456	831.937	624.065
348.562	16.428	831.574	623.634
349.577	16.454	831.027	623.265
350.592	16.434	830.179	622.501
351.606	16.412	829.656	621.971
352.621	16.444	829.571	621.971
353.635	16.522	829.043	621.809
354.650	16.428	828.493	620.993
355.665	16.429	828.294	620.793
356.679	16.547	827.711	620.737
357.694	16.469	827.289	620.078
358.708	16.425	826.750	619.458
359.723	16.407	826.483	619.137
360.738	16.597	825.708	619.198
361.752	16.715	825.133	619.143
362.767	16.446	824.983	617.990
363.781	16.721	823.749	618.016
364.796	16.677	823.569	617.667
365.810	16.602	823.486	617.277
366.825	16.652	823.008	617.046
367.840	16.615	822.758	616.669
368.854	16.660	822.402	616.509
369.869	16.780	821.359	616.112
370.883	16.757	821.077	615.762
371.898	16.906	820.459	615.785
372.913	16.749	819.932	614.766
373.927	16.828	819.544	614.704
374.942	16.786	818.478	613.699
375.956	16.805	818.287	613.570
376.971	16.888	817.648	613.339
377.986	16.885	817.049	612.824
379.000	16.863	816.580	612.336
380.015	17.095	815.758	612.503
381.029	17.085	815.391	612.138
382.044	17.086	814.695	611.567
383.059	16.977	814.388	610.887
384.073	17.139	813.792	610.970
385.088	17.041	813.415	610.280
386.102	17.025	812.705	609.635
387.117	17.052	811.994	609.146
388.132	16.972	811.968	608.787
389.146	16.995	811.702	608.617
390.161	17.094	811.147	608.500
391.175	17.087	810.571	607.989
392.190	16.878	810.730	607.304
393.205	17.090	809.720	607.255
394.219	17.220	809.145	607.233
395.234	17.135	808.874	606.671
396.248	17.083	808.285	605.993
397.263	17.083	807.868	605.626
398.278	17.140	807.710	605.658
399.292	17.007	806.712	604.380
400.307	17.104	806.812	604.747
401.321	17.188	806.257	604.578
402.336	17.055	805.752	603.671
403.350	17.195	805.432	603.878
404.365	17.246	805.188	603.821
405.380	17.320	804.268	603.341
406.394	17.326	804.261	603.303
407.409	17.279	803.456	602.479
408.423	17.355	803.106	602.434
409.438	17.600	802.180	602.550
410.453	17.552	801.700	601.967
411.467	17.547	801.511	601.754
412.482	17.440	801.125	601.034
413.496	17.444	800.729	600.696
414.511	17.452	800.604	600.577
415.526	17.524	800.109	600.408
416.540	17.505	799.729	600.004
417.555	17.505	799.146	599.515
418.569	17.616	798.677	599.497
419.584	17.606	798.223	599.071
420.599	17.634	797.607	598.654
421.613	113.932	1298.027	1489.382
422.628	98.152	1370.898	1489.457
