DTS Sentinel unit serial number:	SN413079Multiplexer serial number:	ORYXHardware model number:	OX4-SRSoftware version number:	ORYX F/W v4.00 Oryx Data Collector v3.7.2.0data status	okinstallation	princeton_trtdifferential loss correction	single-endedforward channel	channel 3reverse channel	N/Adate	2019/09/18time	19:12:34forward acquisition time	60.00reverse acquisition time	0.00gamma	496.2192k internal	0.2315k external	0.2315temperature offset calibration	1.0017default loss term (dB/km)	0.3790temperature slope calibration	1.0000multiplexer offset coefficient	1.0000multiplexer slope coefficient	1.0000fibre end	0.00T internal ref (°C)	34.73T ext. ref 1 (°C)	1.17T ext. ref 2 (°C)	23.90length (m)	temperature (°C)	Stokes	anti-Stokes-747.200	-200.000	-0.039	0.194
-746.185	800.000	0.078	-0.341
-745.171	87.062	0.079	0.088
-744.156	280.876	-0.151	0.273
-743.142	-27.478	0.248	0.146
-742.127	800.000	0.017	0.072
-741.112	-200.000	-0.295	-0.001
-740.098	-117.284	-0.042	0.008
-739.083	-200.000	0.001	0.055
-738.069	-39.700	-0.283	0.150
-737.054	6.883	-0.258	0.195
-736.039	-0.790	-0.147	-0.105
-735.025	11.292	-0.260	0.202
-734.010	-101.591	0.075	-0.019
-732.996	33.917	0.181	-0.160
-731.981	-91.757	0.175	-0.050
-730.966	445.171	-0.176	0.391
-729.952	-200.000	0.008	0.246
-728.937	-21.909	-0.104	0.064
-727.923	-113.581	-0.212	0.042
-726.908	-174.132	0.123	-0.004
-725.894	-200.000	0.030	-0.398
-724.879	800.000	-0.086	0.316
-723.864	-184.588	-0.352	-0.006
-722.850	433.378	-0.096	0.212
-721.835	-21.248	-0.352	-0.218
-720.821	-169.287	0.097	-0.004
-719.806	-153.262	-0.091	0.006
-718.791	-32.867	0.068	-0.038
-717.777	14.933	-0.278	-0.220
-716.762	-41.504	-0.281	0.146
-715.748	230.910	0.058	-0.096
-714.733	-58.536	-0.141	-0.062
-713.718	106.822	0.156	-0.187
-712.704	-114.307	-0.227	0.044
-711.689	-40.738	-0.125	0.065
-710.675	110.551	-0.186	0.226
-709.660	800.000	-0.068	-0.242
-708.645	98.268	-0.062	-0.072
-707.631	195.580	0.232	-0.356
-706.616	179.644	-0.078	-0.116
-705.602	48.728	-0.445	-0.423
-704.587	-174.039	0.343	0.010
-703.572	-58.341	0.161	-0.071
-702.558	-80.711	0.153	-0.052
-701.543	-200.000	-0.021	0.180
-700.529	62.615	-0.263	0.266
-699.514	-121.155	0.266	0.045
-698.499	-200.000	0.014	-0.130
-697.485	800.000	-0.093	-0.303
-696.470	800.000	-0.020	0.079
-695.456	-28.429	-0.158	-0.092
-694.441	343.534	-0.037	0.073
-693.426	34.819	0.145	0.129
-692.412	-200.000	0.038	0.331
-691.397	800.000	-0.100	0.355
-690.383	-93.938	-0.329	0.091
-689.368	-200.000	0.027	0.132
-688.354	-200.000	-0.046	0.281
-687.339	50.278	-0.064	0.061
-686.324	116.178	-0.221	-0.273
-685.310	-18.457	0.387	0.244
-684.295	-164.573	-0.390	0.018
-683.281	-16.708	0.085	-0.054
-682.266	24.382	0.019	-0.016
-681.251	-151.538	0.168	-0.013
-680.237	227.349	-0.097	-0.159
-679.222	88.021	-0.136	0.152
-678.208	-76.409	-0.214	0.076
-677.193	414.350	0.102	0.220
-676.178	-42.340	0.057	0.030
-675.164	-200.000	0.004	0.166
-674.149	-200.000	-0.036	0.365
-673.135	-33.715	-0.347	-0.193
-672.120	-163.460	-0.496	0.024
-671.105	-26.635	-0.208	0.123
-670.091	-94.154	-0.054	0.015
-669.076	-160.514	-0.233	-0.013
-668.062	28.241	-0.255	-0.218
-667.047	125.289	0.117	0.150
-666.032	15.881	-0.068	0.054
-665.018	-200.000	0.059	0.368
-664.003	-56.088	-0.140	-0.063
-662.989	122.856	-0.104	-0.131
-661.974	-133.001	-0.026	0.003
-660.959	-200.000	-0.013	0.243
-659.945	-185.558	-0.188	-0.003
-658.930	495.824	0.091	-0.212
-657.916	800.000	-0.106	-0.304
-656.901	-21.275	-0.241	0.149
-655.886	-24.003	-0.394	-0.238
-654.872	71.245	0.036	-0.038
-653.857	12.445	-0.234	-0.182
-652.843	206.520	0.168	0.264
-651.828	800.000	0.077	0.253
-650.814	71.647	-0.187	0.196
-649.799	533.041	-0.086	-0.206
-648.784	-139.521	-0.196	0.021
-647.770	-7.868	-0.166	-0.113
-646.755	30.126	0.166	-0.143
-645.741	-200.000	-0.015	-0.126
-644.726	-7.543	-0.044	0.030
-643.711	-200.000	-0.009	0.061
-642.697	13.457	0.226	-0.177
-641.682	-31.828	-0.337	-0.191
-640.668	-34.191	-0.318	0.176
-639.653	-77.783	-0.280	-0.098
-638.638	140.141	0.174	-0.232
-637.624	800.000	0.083	0.252
-636.609	-83.206	0.338	-0.110
-635.595	425.846	0.036	0.079
-634.580	-200.000	0.003	-0.103
-633.565	188.893	0.073	-0.110
-632.551	-22.805	-0.186	-0.113
-631.536	218.592	0.135	-0.218
-630.522	-93.647	-0.268	0.075
-629.507	-15.985	-0.371	-0.238
-628.492	612.077	0.066	0.166
-627.478	95.755	-0.107	0.124
-626.463	800.000	0.042	-0.176
-625.449	-200.000	0.001	0.042
-624.434	-164.925	-0.182	0.008
-623.419	325.823	0.159	-0.307
-622.405	-110.128	0.253	-0.053
-621.390	800.000	-0.043	-0.164
-620.376	800.000	-0.061	0.175
-619.361	-47.891	0.107	-0.052
-618.346	605.251	0.037	0.092
-617.332	-80.972	0.268	0.089
-616.317	-200.000	0.022	-0.276
-615.303	147.185	-0.131	0.178
-614.288	-48.733	0.050	-0.024
-613.273	62.700	-0.156	-0.157
-612.259	-113.581	0.413	-0.081
-611.244	113.993	-0.196	0.240
-610.230	186.958	0.166	-0.249
-609.215	77.861	0.071	-0.076
-608.201	11.213	0.239	0.184
-607.186	122.524	-0.008	0.010
-606.171	-200.000	-0.001	0.121
-605.157	-158.158	-0.285	-0.017
-604.142	291.423	-0.162	-0.298
-603.128	-111.160	-0.215	-0.044
-602.113	-66.954	0.305	-0.121
-601.098	-200.000	0.030	-0.228
-600.084	416.506	0.075	0.161
-599.069	439.727	0.068	-0.149
-598.055	-151.851	0.205	-0.015
-597.040	435.976	0.100	-0.219
-596.025	-120.931	-0.402	-0.068
-595.011	-107.127	0.206	-0.046
-593.996	-139.504	-0.044	0.005
-592.982	-21.876	0.076	-0.047
-591.967	-43.748	0.275	-0.139
-590.952	18.819	0.124	-0.100
-589.938	109.108	0.125	0.151
-588.923	-14.305	0.229	-0.149
-587.909	96.370	-0.190	-0.219
-586.894	43.589	-0.091	-0.084
-585.879	457.144	-0.203	-0.454
-584.865	85.598	0.171	-0.189
-583.850	-170.167	0.078	-0.003
-582.836	-136.299	-0.228	-0.027
-581.821	800.000	0.122	-0.341
-580.806	-200.000	-0.002	-0.068
-579.792	-114.666	-0.257	0.050
-578.777	45.096	0.142	0.132
-577.763	-200.000	-0.053	-0.393
-576.748	-56.827	-0.252	0.112
-575.733	-57.065	-0.147	0.065
-574.719	108.494	0.166	0.200
-573.704	317.294	0.076	0.144
-572.690	-184.409	-0.096	0.002
-571.675	-200.000	-0.007	0.071
-570.661	4.396	0.268	0.198
-569.646	800.000	0.101	0.329
-568.631	-200.000	-0.050	-0.284
-567.617	78.402	0.174	-0.186
-566.602	-148.153	-0.124	-0.010
-565.588	800.000	-0.089	-0.380
-564.573	-174.322	0.146	0.004
-563.558	90.975	-0.073	-0.082
-562.544	-0.922	-0.210	-0.149
-561.529	-200.000	-0.055	0.352
-560.515	-66.364	-0.183	-0.073
-559.500	800.000	0.071	0.290
-558.485	-45.326	-0.201	-0.100
-557.471	-200.000	-0.011	0.088
-556.456	800.000	0.027	0.105
-555.442	-24.609	0.044	0.027
-554.427	-177.868	0.250	0.006
-553.412	-124.442	-0.100	-0.016
-552.398	45.227	0.199	0.184
-551.383	40.225	-0.030	0.027
-550.369	-104.340	-0.063	0.015
-549.354	-28.436	0.053	-0.031
-548.339	440.803	-0.058	-0.127
-547.325	327.094	0.093	0.179
-546.310	800.000	-0.051	-0.149
-545.296	245.262	-0.196	-0.332
-544.281	-117.307	-0.272	-0.050
-543.266	-85.045	0.013	-0.004
-542.252	-61.828	-0.310	-0.131
-541.237	155.446	0.258	0.357
-540.223	239.151	0.137	-0.229
-539.208	44.226	0.154	-0.142
-538.193	30.576	-0.142	-0.122
-537.179	-200.000	-0.004	-0.188
-536.164	-51.920	-0.129	0.060
-535.150	-137.108	0.073	-0.008
-534.135	151.441	0.072	0.098
-533.121	-200.000	0.079	-0.416
-532.106	-142.439	-0.223	0.022
-531.091	748.285	0.062	0.168
-530.077	-146.878	-0.222	-0.019
-529.062	193.716	-0.037	0.057
-528.048	-89.593	-0.174	0.051
-527.033	9.346	-0.255	-0.194
-526.018	800.000	0.009	0.036
-525.004	-70.378	-0.224	0.085
-523.989	28.949	-0.096	0.082
-522.975	-200.000	0.015	-0.150
-521.960	-12.711	-0.168	0.110
-520.945	-8.399	-0.035	0.024
-519.931	-146.237	-0.287	-0.025
-518.916	229.519	0.139	0.227
-517.902	-75.391	0.064	0.023
-516.887	-117.243	-0.155	0.028
-515.872	800.000	-0.092	-0.372
-514.858	-99.265	-0.299	-0.076
-513.843	-200.000	-0.036	-0.176
-512.829	-108.403	0.294	0.064
-511.814	800.000	-0.059	0.177
-510.799	314.227	0.143	-0.270
-509.785	573.688	-0.070	-0.170
-508.770	-200.000	-0.021	0.357
-507.756	-66.039	-0.214	0.086
-506.741	-136.918	-0.477	0.055
-505.726	162.444	0.192	-0.270
-504.712	-200.000	0.010	-0.367
-503.697	63.227	0.036	-0.037
-502.683	-165.735	0.124	0.005
-501.668	-173.054	-0.252	-0.008
-500.653	-2.970	0.094	-0.066
-499.639	-54.706	0.112	-0.051
-498.624	136.349	-0.227	0.296
-497.610	278.647	0.042	0.075
-496.595	157.418	-0.137	-0.191
-495.581	800.000	-0.022	-0.075
-494.566	282.005	-0.049	-0.088
-493.551	-109.808	0.169	0.036
-492.537	104.612	-0.154	-0.181
-491.522	-154.423	0.243	-0.016
-490.508	800.000	0.090	0.345
-489.493	-13.945	-0.253	0.164
-488.478	-84.237	-0.262	0.083
-487.464	-200.000	-0.032	-0.197
-486.449	-68.088	-0.248	0.097
-485.435	-24.896	-0.257	0.153
-484.420	-26.660	0.083	0.049
-483.405	99.819	0.050	0.058
-482.391	270.009	-0.282	-0.497
-481.376	800.000	0.062	-0.237
-480.362	800.000	0.116	-0.355
-479.347	126.677	-0.135	-0.172
-478.332	79.257	0.194	-0.208
-477.318	-150.710	0.063	0.005
-476.303	-89.653	-0.147	-0.043
-475.289	3.404	0.212	0.155
-474.274	800.000	-0.053	-0.228
-473.259	-35.644	0.132	-0.072
-472.245	-125.602	0.288	-0.044
-471.230	293.544	0.034	0.063
-470.216	43.035	0.233	-0.213
-469.201	91.366	0.243	0.273
-468.186	341.522	-0.160	0.313
-467.172	-121.428	0.088	-0.015
-466.157	315.077	0.110	0.209
-465.143	291.159	-0.037	-0.068
-464.128	591.915	-0.160	-0.397
-463.113	-89.076	0.134	0.040
-462.099	-36.774	0.070	0.038
-461.084	-95.944	0.078	0.021
-460.070	-100.171	0.103	-0.026
-459.055	10.160	-0.180	0.137
-458.040	184.571	0.114	-0.169
-457.026	-1.158	-0.303	-0.214
-456.011	448.222	0.065	-0.143
-454.997	167.076	0.191	-0.272
-453.982	-5.835	-0.143	-0.098
-452.968	95.885	0.011	0.013
-451.953	-41.856	0.116	-0.060
-450.938	282.201	-0.055	-0.099
-449.924	44.225	-0.261	0.240
-448.909	-146.396	-0.333	-0.029
-447.895	-200.000	0.034	0.265
-446.880	116.165	0.040	0.049
-445.865	-38.211	-0.279	-0.148
-444.851	90.189	-0.243	0.273
-443.836	-200.000	-0.031	0.243
-442.822	-45.293	-0.184	-0.091
-441.807	800.000	-0.058	0.194
-440.792	-18.336	0.297	0.186
-439.778	-166.633	0.106	-0.004
-438.763	48.314	-0.108	-0.101
-437.749	-200.000	0.043	0.296
-436.734	800.000	0.087	0.352
-435.719	-200.000	0.053	0.319
-434.705	800.000	-0.055	0.156
-433.690	396.621	-0.134	0.280
-432.676	-200.000	0.006	0.037
-431.661	-193.499	0.169	-0.001
-430.646	-200.000	-0.000	-0.301
-429.632	-8.765	-0.198	-0.133
-428.617	282.536	0.113	0.202
-427.603	294.898	0.080	0.147
-426.588	319.915	-0.146	0.278
-425.573	13.941	0.087	0.067
-424.559	800.000	-0.041	-0.119
-423.544	-79.397	-0.236	0.080
-422.530	290.110	0.012	-0.021
-421.515	358.254	-0.138	0.276
-420.500	39.284	0.042	0.037
-419.486	-193.744	0.242	-0.002
-418.471	16.943	0.162	-0.128
-417.457	702.269	-0.091	0.240
-416.442	46.771	0.179	0.166
-415.428	-106.061	0.183	-0.041
-414.413	101.293	0.284	-0.331
-413.398	-200.000	0.106	-0.517
-412.384	800.000	0.073	-0.257
-411.369	-130.261	0.324	0.044
-410.355	174.487	-0.033	0.048
-409.340	187.353	0.122	0.183
-408.325	-92.318	-0.114	-0.032
-407.311	-84.405	-0.224	-0.071
-406.296	-18.387	0.097	-0.061
-405.282	-37.110	-0.166	0.089
-404.267	-153.488	-0.322	-0.022
-403.252	419.136	0.021	-0.046
-402.238	-200.000	-0.025	0.278
-401.223	-70.234	0.221	0.084
-400.209	-200.000	-0.003	-0.141
-399.194	-200.000	-0.101	0.563
-398.179	-120.199	0.207	0.035
-397.165	-76.898	0.016	0.006
-396.150	-139.795	-0.207	0.022
-395.136	-88.678	0.380	0.113
-394.121	27.788	0.232	-0.196
-393.106	-105.890	-0.116	0.026
-392.092	-10.942	0.143	-0.095
-391.077	62.560	0.129	0.129
-390.063	-24.077	-0.096	0.058
-389.048	-66.125	0.198	-0.079
-388.033	433.046	-0.133	0.288
-387.019	6.263	-0.069	0.051
-386.004	-98.331	-0.070	-0.018
-384.990	-167.635	-0.169	0.007
-383.975	352.493	-0.148	0.293
-382.960	-128.160	0.287	0.041
-381.946	382.711	0.049	0.100
-380.931	-200.000	-0.012	-0.062
-379.917	-200.000	0.027	0.189
-378.902	129.213	-0.141	-0.180
-377.888	-90.083	0.185	0.054
-376.873	63.500	0.235	-0.236
-375.858	-200.000	0.031	-0.319
-374.844	-97.644	0.380	0.098
-373.829	-128.750	0.143	0.020
-372.815	56.734	0.104	-0.101
-371.800	-109.953	0.301	0.063
-370.785	-200.000	0.005	-0.055
-369.771	31.199	0.230	0.197
-368.756	68.155	-0.131	0.133
-367.742	106.265	0.166	0.196
-366.727	-190.987	-0.083	-0.001
-365.712	121.096	-0.038	-0.047
-364.698	175.466	-0.118	-0.171
-363.683	-81.895	0.323	-0.106
-362.669	-19.474	-0.071	0.044
-361.654	-200.000	0.057	0.287
-360.639	46.879	-0.172	-0.160
-359.625	-64.287	-0.271	0.110
-358.610	-96.266	-0.156	0.041
-357.596	-51.199	0.290	0.135
-356.581	536.411	0.114	-0.270
-355.566	-200.000	0.002	0.015
-354.552	800.000	0.048	-0.148
-353.537	81.026	0.151	0.163
-352.523	48.112	0.019	-0.018
-351.508	-200.000	-0.055	-0.285
-350.493	71.066	-0.066	-0.068
-349.479	119.811	-0.261	-0.323
-348.464	800.000	0.029	0.098
-347.450	-200.000	0.001	-0.008
-346.435	68.168	-0.154	-0.157
-345.420	-169.347	0.293	-0.011
-344.406	226.713	0.122	0.198
-343.391	-54.633	0.504	0.227
-342.377	159.899	0.103	-0.143
-341.362	7.328	0.208	-0.155
-340.348	50.421	-0.308	0.290
-339.333	800.000	0.069	-0.276
-338.318	32.230	0.023	-0.020
-337.304	-26.322	-0.057	0.033
-336.289	71.441	0.091	-0.094
-335.275	800.000	-0.020	0.064
-334.260	-14.127	-0.137	-0.088
-333.245	40.694	0.072	0.065
-332.231	-200.000	0.000	-0.057
-331.216	800.000	0.059	-0.172
-330.202	-200.000	0.045	0.425
-329.187	80.393	0.096	0.104
-328.172	-40.408	-0.182	-0.094
-327.158	-104.347	0.149	0.035
-326.143	41.021	0.060	0.054
-325.129	-156.382	-0.337	-0.021
-324.114	783.652	0.149	-0.408
-323.099	274.259	0.090	-0.159
-322.085	-200.000	0.042	-0.241
-321.070	-200.000	0.005	0.064
-320.056	113.487	0.057	-0.069
-319.041	-200.000	0.009	0.306
-318.026	359.914	0.133	0.265
-317.012	462.971	-0.031	0.070
-315.997	51.502	0.157	0.148
-314.983	-200.000	0.009	-0.065
-313.968	-200.000	0.000	-0.226
-312.953	233.422	-0.124	-0.203
-311.939	780.228	0.106	-0.289
-310.924	13.350	-0.194	-0.150
-309.910	-61.471	0.456	0.191
-308.895	-200.000	-0.001	0.264
-307.880	-40.670	0.095	0.049
-306.866	-25.459	-0.227	-0.134
-305.851	-200.000	-0.016	0.219
-304.837	-106.304	0.242	-0.054
-303.822	33.184	-0.052	-0.045
-302.807	126.745	0.214	-0.269
-301.793	-99.514	-0.320	-0.080
-300.778	-161.498	0.192	-0.010
-299.764	-200.000	0.005	0.094
-298.749	800.000	-0.032	0.092
-297.735	82.912	-0.156	-0.169
-296.720	84.085	0.187	-0.203
-295.705	53.437	0.122	0.116
-294.691	800.000	-0.056	-0.186
-293.676	265.519	0.091	0.159
-292.662	-92.331	-0.463	-0.130
-291.647	-177.690	-0.387	-0.009
-290.632	-68.865	0.174	-0.067
-289.618	-127.887	0.247	-0.035
-288.603	-84.026	0.329	0.104
-287.589	-200.000	-0.022	0.188
-286.574	398.231	-0.129	0.268
-285.559	150.254	0.162	0.219
-284.545	-8.045	0.318	0.214
-283.530	334.602	-0.121	-0.233
-282.516	-65.402	0.061	-0.024
-281.501	-29.674	-0.355	0.202
-280.486	-121.580	-0.209	-0.034
-279.472	-16.703	0.295	-0.186
-278.457	484.271	-0.177	-0.400
-277.443	-89.802	-0.089	-0.026
-276.428	-200.000	-0.004	-0.109
-275.413	-65.201	-0.493	-0.198
-274.399	538.373	-0.081	0.191
-273.384	-61.387	0.138	0.058
-272.370	-200.000	0.042	0.250
-271.355	-200.000	0.038	-0.372
-270.340	-200.000	-0.019	-0.133
-269.326	434.071	0.055	0.119
-268.311	800.000	0.042	0.135
-267.297	-28.802	0.088	0.050
-266.282	-21.694	-0.074	-0.045
-265.267	-114.884	-0.126	0.024
-264.253	80.036	-0.059	-0.063
-263.238	-200.000	0.024	0.173
-262.224	-76.948	-0.336	-0.117
-261.209	38.948	-0.055	0.049
-260.195	155.867	0.097	-0.133
-259.180	800.000	0.045	0.162
-258.165	-200.000	-0.019	0.466
-257.151	-71.867	0.114	0.042
-256.136	-200.000	-0.013	0.063
-255.122	-71.476	-0.296	-0.110
-254.107	-45.548	0.274	0.135
-253.092	136.954	0.091	0.119
-252.078	-100.528	-0.200	0.049
-251.063	216.817	0.060	0.095
-250.049	190.788	-0.108	-0.161
-249.034	-96.550	0.259	-0.068
-248.019	97.781	-0.146	0.167
-247.005	-97.526	0.091	-0.024
-245.990	-200.000	-0.039	0.184
-244.976	-9.596	0.168	0.111
-243.961	-106.211	0.280	-0.062
-242.946	-200.000	0.003	0.083
-241.932	4.957	-0.387	-0.283
-240.917	800.000	-0.032	-0.097
-239.903	3.265	0.267	0.193
-238.888	79.549	0.182	0.194
-237.873	406.756	0.169	0.355
-236.859	-200.000	0.007	-0.126
-235.844	312.007	-0.117	-0.219
-234.830	-200.000	0.011	-0.235
-233.815	-95.709	-0.127	0.034
-232.800	-73.504	-0.151	0.055
-231.786	-200.000	-0.003	-0.126
-230.771	-114.559	0.317	-0.060
-229.757	-98.039	-0.225	0.058
-228.742	119.193	-0.189	-0.232
-227.727	-95.495	0.239	0.064
-226.713	-142.652	0.141	0.014
-225.698	8.635	-0.106	-0.079
-224.684	-200.000	0.029	0.168
-223.669	66.231	0.177	0.179
-222.655	-67.215	-0.201	-0.079
-221.640	598.791	0.075	0.186
-220.625	617.966	0.034	0.084
-219.611	-14.010	0.198	0.127
-218.596	-151.935	0.243	-0.018
-217.582	20.393	0.242	0.194
-216.567	319.808	0.097	0.183
-215.552	648.510	-0.119	-0.303
-214.538	-7.805	0.210	0.141
-213.523	-120.330	-0.116	-0.020
-212.509	-200.000	-0.010	0.062
-211.494	742.372	0.174	0.464
-210.479	-200.000	0.003	-0.035
-209.465	-200.000	-0.070	0.390
-208.450	800.000	0.042	-0.144
-207.436	-36.573	-0.387	-0.207
-206.421	-44.126	-0.294	-0.147
-205.406	-164.398	-0.129	-0.006
-204.392	-122.907	-0.454	0.073
-203.377	26.489	0.131	0.109
-202.363	15.393	-0.256	-0.199
-201.348	-200.000	-0.047	0.326
-200.333	-189.193	0.237	-0.003
-199.319	129.255	0.106	0.135
-198.304	-40.671	-0.145	0.075
-197.290	-200.000	-0.044	0.251
-196.275	-83.796	-0.049	0.016
-195.260	17.465	0.146	0.115
-194.246	-200.000	0.021	-0.285
-193.231	-200.000	-0.031	0.275
-192.217	177.467	-0.154	0.223
-191.202	2.101	-0.113	0.081
-190.187	315.473	0.079	-0.147
-189.173	-200.000	-0.057	-0.310
-188.158	800.000	-0.157	0.571
-187.144	142.689	0.130	-0.171
-186.129	439.291	0.137	0.296
-185.114	-87.311	0.061	0.018
-184.100	102.694	-0.152	0.176
-183.085	26.922	-0.180	0.150
-182.071	-112.105	-0.295	-0.059
-181.056	-90.953	-0.172	-0.049
-180.042	-102.984	0.301	0.071
-179.027	-128.096	0.267	0.038
-178.012	-45.993	-0.349	0.170
-176.998	-92.021	-0.256	-0.072
-175.983	31.814	-0.349	-0.298
-174.969	-79.525	-0.351	0.117
-173.954	-46.909	0.003	-0.002
-172.939	-151.224	0.425	0.032
-171.925	-140.784	0.348	-0.036
-170.910	-69.214	0.212	0.081
-169.896	800.000	0.021	0.066
-168.881	-53.310	0.264	-0.120
-167.866	115.739	-0.127	0.154
-166.852	29.025	0.141	0.119
-165.837	800.000	0.062	0.266
-164.823	635.142	-0.118	0.295
-163.808	800.000	-0.087	0.275
-162.793	-129.210	0.223	0.031
-161.779	800.000	0.058	0.191
-160.764	12.526	-0.142	-0.109
-159.750	745.504	-0.165	0.439
-158.735	18.835	0.170	-0.135
-157.720	-35.880	-0.312	-0.167
-156.706	144.167	0.095	-0.126
-155.691	-200.000	0.013	-0.145
-154.677	-59.616	0.296	-0.126
-153.662	-30.316	0.152	-0.085
-152.647	12.207	-0.295	0.225
-151.633	800.000	-0.021	0.087
-150.618	141.191	0.147	-0.192
-149.604	-83.506	0.210	-0.066
-148.589	-179.283	-0.091	-0.002
-147.574	-141.175	-0.251	-0.025
-146.560	-45.981	0.151	-0.074
-145.545	464.235	-0.160	0.353
-144.531	53.729	-0.100	-0.095
-143.516	280.980	0.028	-0.049
-142.502	-138.872	0.141	-0.015
-141.487	125.030	0.130	-0.162
-140.472	738.917	0.112	-0.297
-139.458	158.342	-0.150	0.206
-138.443	-200.000	-0.046	0.305
-137.429	-12.373	-0.162	-0.105
-136.414	800.000	0.100	0.331
-135.399	238.895	0.125	-0.206
-134.385	-85.615	-0.049	-0.015
-133.370	800.000	-0.028	0.099
-132.356	800.000	0.046	0.143
-131.341	-186.740	0.151	0.002
-130.326	262.477	0.017	-0.030
-129.312	-181.561	-0.269	-0.005
-128.297	525.401	0.013	-0.030
-127.283	-3.744	-0.123	0.084
-126.268	-4.867	-0.301	-0.205
-125.253	25.518	0.081	0.067
-124.239	-140.420	-0.221	0.023
-123.224	201.531	-0.091	0.138
-122.210	6.359	-0.303	0.222
-121.195	102.387	0.129	-0.149
-120.180	-33.371	0.141	0.077
-119.166	408.454	-0.119	-0.249
-118.151	-102.846	0.332	-0.078
-117.137	800.000	-0.033	0.118
-116.122	235.696	0.085	0.139
-115.107	800.000	-0.019	0.080
-114.093	167.562	-0.156	0.219
-113.078	-200.000	-0.021	0.281
-112.064	800.000	0.138	-0.390
-111.049	202.849	0.100	0.152
-110.034	800.000	0.048	-0.192
-109.020	-29.223	0.131	-0.074
-108.005	-146.622	0.158	0.014
-106.991	-172.164	-0.089	0.003
-105.976	-53.130	0.095	-0.043
-104.962	52.634	-0.089	0.084
-103.947	4.162	-0.164	0.118
-102.932	178.154	-0.100	-0.144
-101.918	86.785	0.251	-0.274
-100.903	-8.772	0.235	0.156
-99.889	660.095	0.038	-0.095
-98.874	107.182	-0.179	-0.210
-97.859	51.195	-0.203	0.190
-96.845	-183.014	-0.091	-0.002
-95.830	-185.931	-0.227	-0.003
-94.816	800.000	0.064	0.229
-93.801	-84.874	0.374	-0.116
-92.786	-42.411	0.115	0.058
-91.772	-97.649	0.066	-0.017
-90.757	32.804	0.094	-0.080
-89.743	-200.000	-0.017	0.206
-88.728	117.655	0.087	0.106
-87.713	800.000	0.005	0.019
-86.699	-153.039	0.175	0.012
-85.684	-94.431	-0.142	0.038
-84.670	515.222	-0.069	-0.160
-83.655	22.896	0.152	0.123
-82.640	111.895	-0.150	-0.179
-81.626	800.000	-0.168	-0.504
-80.611	-118.235	-0.232	-0.041
-79.597	-116.314	-0.130	0.024
-78.582	-200.000	0.012	-0.131
-77.567	-200.000	0.042	-0.188
-76.553	29.912	-0.213	0.180
-75.538	409.625	-0.115	-0.240
-74.524	216.993	0.073	-0.115
-73.509	-10.221	-0.262	0.172
-72.494	-97.062	0.028	0.007
-71.480	408.330	-0.134	0.281
-70.465	659.934	-0.052	0.131
-69.451	-160.628	-0.414	0.022
-68.436	308.418	-0.071	0.132
-67.422	-49.427	-0.051	-0.024
-66.407	17.531	0.246	0.193
-65.392	354.245	0.091	0.178
-64.378	-14.935	-0.061	0.038
-63.363	-200.000	-0.047	-0.405
-62.349	699.439	-0.113	0.294
-61.334	81.519	-0.782	-0.834
-60.319	88.541	0.415	0.454
-59.305	800.000	-0.279	-0.852
-58.290	310.066	0.734	1.355
-57.276	782.347	0.647	1.748
-56.261	-200.000	93.227	563.283
-55.246	550.153	1377.859	3258.927
-54.232	157.758	2561.308	3499.066
-53.217	112.632	2183.818	2607.293
-52.203	45.123	1725.296	1567.943
-51.188	37.825	1535.868	1345.590
-50.173	35.423	1508.088	1304.893
-49.159	54.298	1554.871	1475.985
-48.144	56.570	1573.206	1509.002
-47.130	38.096	1533.330	1345.019
-46.115	35.014	1518.492	1310.881
-45.100	34.841	1514.946	1306.585
-44.086	34.701	1513.537	1304.363
-43.071	34.821	1511.081	1303.014
-42.057	34.709	1509.917	1301.193
-41.042	34.666	1508.620	1299.734
-40.027	34.778	1507.026	1299.073
-39.013	34.757	1505.712	1297.747
-37.998	34.645	1504.796	1296.141
-36.984	34.730	1503.367	1295.440
-35.969	34.732	1502.199	1294.391
-34.954	34.772	1500.567	1293.207
-33.940	34.731	1499.299	1291.785
-32.925	34.715	1497.894	1290.413
-31.911	34.709	1496.522	1289.143
-30.896	34.748	1494.966	1288.014
-29.881	34.755	1494.073	1287.241
-28.867	34.748	1492.444	1285.735
-27.852	34.715	1491.319	1284.498
-26.838	34.845	1489.077	1283.383
-25.823	34.832	1487.924	1282.253
-24.809	34.710	1486.339	1280.019
-23.794	34.828	1485.026	1279.627
-22.779	34.765	1484.099	1278.355
-21.765	34.724	1483.109	1277.182
-20.750	34.778	1482.148	1276.665
-19.736	34.821	1480.525	1275.502
-18.721	34.667	1480.057	1274.020
-17.706	34.768	1478.548	1273.345
-16.692	34.724	1477.683	1272.253
-15.677	34.781	1476.387	1271.469
-14.663	34.708	1475.586	1270.242
-13.648	34.766	1474.602	1269.727
-12.633	34.729	1473.948	1268.873
-11.619	34.704	1472.895	1267.746
-10.604	34.753	1472.061	1267.304
-9.590	34.655	1471.341	1265.986
-8.575	34.816	1469.944	1265.796
-7.560	34.722	1469.352	1264.618
-6.546	34.769	1468.709	1264.321
-5.531	34.589	1468.426	1262.841
-4.517	34.652	1466.506	1261.556
-3.502	34.714	1466.051	1261.522
-2.487	34.785	1464.556	1260.655
-1.473	34.687	1463.562	1259.100
-0.458	34.642	1462.433	1257.784
0.556	33.736	1451.515	1242.204
1.571	28.705	1422.444	1184.852
2.586	22.802	1356.933	1093.730
3.600	19.716	1271.489	1006.824
4.615	17.895	1225.647	960.204
5.629	15.562	1170.544	904.406
6.644	8.543	1087.029	804.600
7.659	2.436	1046.315	744.745
8.673	1.337	1041.059	735.616
9.688	1.115	1038.504	732.676
10.702	1.042	1036.920	731.140
11.717	1.176	1035.024	730.386
12.731	3.308	1036.802	741.852
13.746	10.375	1046.263	782.805
14.761	16.608	1053.337	818.258
15.775	17.956	1054.786	825.834
16.790	17.617	1053.185	822.873
17.804	16.460	1051.086	815.579
18.819	15.688	1049.077	810.231
19.834	15.197	1047.783	806.796
20.848	14.867	1046.873	804.438
21.863	14.706	1045.939	802.875
22.877	14.366	1045.444	800.788
23.892	14.300	1043.934	799.242
24.907	14.125	1043.251	797.809
25.921	14.111	1042.489	797.089
26.936	14.144	1042.176	796.940
27.950	14.066	1041.661	796.100
28.965	14.207	1040.930	796.145
29.980	14.275	1039.787	795.525
30.994	14.285	1039.283	795.119
32.009	14.251	1038.031	793.930
33.023	14.398	1037.854	794.425
34.038	14.435	1035.990	793.102
35.053	14.363	1035.909	792.627
36.067	14.266	1034.937	791.351
37.082	14.365	1034.120	791.126
38.096	14.299	1032.877	789.792
39.111	14.512	1031.981	790.050
40.126	14.374	1031.464	788.931
41.140	14.256	1030.489	787.557
42.155	14.074	1029.520	785.885
43.169	14.146	1028.706	785.534
44.184	14.037	1027.984	784.401
45.199	14.134	1026.872	783.936
46.213	13.990	1026.321	782.772
47.228	14.104	1024.771	782.056
48.242	14.106	1024.032	781.430
49.257	14.259	1023.026	781.314
50.271	14.101	1022.239	779.900
51.286	14.214	1021.444	779.758
52.301	14.326	1019.748	778.916
53.315	14.165	1019.664	778.029
54.330	14.198	1018.425	777.168
55.344	14.198	1017.749	776.583
56.359	14.136	1016.668	775.401
57.374	14.146	1016.072	774.927
58.388	14.264	1014.715	774.371
59.403	14.119	1014.557	773.510
60.417	14.077	1013.451	772.399
61.432	14.095	1013.076	772.130
62.447	14.215	1012.022	771.815
63.461	14.117	1011.438	770.845
64.476	14.038	1010.666	769.824
65.490	14.013	1009.683	768.894
66.505	14.063	1008.708	768.311
67.520	14.159	1007.847	768.031
68.534	14.128	1006.821	767.041
69.549	14.077	1006.480	766.478
70.563	14.151	1005.778	766.216
71.578	14.097	1005.378	765.593
72.593	14.102	1003.951	764.462
73.607	14.061	1003.220	763.649
74.622	14.070	1002.252	762.888
75.636	14.026	1001.251	761.854
76.651	14.102	1000.476	761.548
77.666	14.029	999.973	760.762
78.680	14.016	999.073	759.951
79.695	13.931	999.029	759.460
80.709	14.010	998.102	759.050
81.724	14.117	996.897	758.555
82.739	14.180	996.086	758.158
83.753	14.172	996.001	757.988
84.768	14.164	994.758	756.941
85.782	14.196	994.052	756.483
86.797	14.335	993.062	756.293
87.812	14.298	992.595	755.700
88.826	14.209	991.819	754.642
89.841	14.274	990.625	753.959
90.855	14.248	989.787	753.140
91.870	14.290	989.245	752.847
92.884	14.349	988.594	752.553
93.899	14.315	987.704	751.655
94.914	14.330	987.068	751.174
95.928	14.275	987.011	750.814
96.943	14.403	985.892	750.473
97.957	14.333	985.145	749.526
98.972	14.237	984.626	748.633
99.987	14.356	983.719	748.411
101.001	14.334	982.671	747.448
102.016	14.350	982.242	747.128
103.030	14.459	980.723	746.393
104.045	14.303	979.986	745.069
105.060	14.429	979.000	744.815
106.074	14.310	978.403	743.763
107.089	14.222	977.308	742.475
108.103	14.214	976.973	742.119
109.118	14.165	975.925	741.038
110.133	14.189	974.588	740.062
111.147	14.284	973.930	739.922
112.162	14.147	973.476	738.900
113.176	14.158	972.532	738.171
114.191	14.153	971.623	737.391
115.206	14.219	971.137	737.251
116.220	14.272	969.681	736.316
117.235	14.297	968.988	735.833
118.249	14.301	968.271	735.243
119.264	14.256	967.143	734.119
120.279	14.325	966.538	733.899
121.293	14.210	965.959	732.890
122.308	14.194	965.057	732.070
123.322	14.283	964.558	732.020
124.337	14.316	963.020	730.929
125.352	14.155	962.408	729.696
126.366	14.266	960.907	728.980
127.381	14.323	960.372	728.757
128.395	14.183	959.533	727.444
129.410	14.300	958.267	726.934
130.424	14.178	957.601	725.831
131.439	14.341	956.777	725.852
132.454	14.367	956.102	725.389
133.468	14.395	955.102	724.688
134.483	14.286	954.668	723.822
135.497	14.383	954.312	723.910
136.512	14.308	953.381	722.813
137.527	14.379	952.554	722.429
138.541	14.380	951.567	721.622
139.556	14.348	950.689	720.753
140.570	14.319	950.296	720.264
141.585	14.252	949.278	719.139
142.600	14.335	948.715	719.008
143.614	14.425	947.663	718.535
144.629	14.423	947.185	718.100
145.643	14.542	946.373	717.935
146.658	14.551	945.558	717.290
147.673	14.505	944.316	716.088
148.687	14.344	943.996	715.093
149.702	14.296	943.270	714.273
150.716	14.447	942.040	713.926
151.731	14.425	941.477	713.338
152.746	14.321	941.134	712.573
153.760	14.317	940.479	711.998
154.775	14.394	939.705	711.678
155.789	14.490	938.534	711.138
156.804	14.557	937.689	710.718
157.819	14.603	937.155	710.445
158.833	14.518	936.645	709.636
159.848	14.541	935.984	709.171
160.862	14.619	935.184	708.833
161.877	14.508	934.257	707.596
162.892	14.448	933.963	707.058
163.906	14.561	932.763	706.562
164.921	14.449	932.307	705.680
165.935	14.441	931.100	704.674
166.950	14.483	930.174	704.088
167.964	14.519	929.266	703.490
168.979	14.632	927.960	702.913
169.994	14.547	927.188	701.907
171.008	14.547	926.349	701.210
172.023	14.568	925.482	700.581
173.037	14.681	924.772	700.458
174.052	14.680	924.178	699.939
175.067	14.684	923.420	699.322
176.081	14.688	922.810	698.813
177.096	14.639	922.079	697.993
178.110	14.619	921.066	697.083
179.125	14.624	920.310	696.470
180.140	14.593	919.720	695.830
181.154	14.675	918.676	695.320
182.169	14.659	918.387	694.972
183.183	14.763	917.714	694.837
184.198	14.689	916.878	693.833
185.213	14.664	916.305	693.236
186.227	14.829	915.459	693.217
187.242	14.841	915.119	692.947
188.256	14.775	914.850	692.412
189.271	14.939	913.667	692.133
190.286	15.012	912.761	691.686
191.300	14.723	912.404	690.160
192.315	14.695	911.539	689.328
193.329	14.687	911.007	688.833
194.344	14.695	910.478	688.407
195.359	14.714	909.800	687.909
196.373	14.787	909.182	687.685
197.388	14.857	908.723	687.563
198.402	14.918	907.951	687.167
199.417	14.970	907.678	687.114
200.432	15.069	906.912	686.880
201.446	15.085	906.293	686.417
202.461	15.008	906.411	686.130
203.475	15.111	905.565	685.849
204.490	15.179	904.811	685.497
205.504	15.155	903.987	684.713
206.519	14.945	903.614	683.513
207.534	14.991	902.617	682.886
208.548	15.010	901.982	682.421
209.563	15.062	901.075	681.888
210.577	15.049	900.495	681.337
211.592	15.046	900.101	680.964
212.607	15.227	899.335	681.058
213.621	15.406	898.653	681.209
214.636	15.207	897.925	679.789
215.650	15.235	897.422	679.462
216.665	15.288	896.687	679.060
217.680	15.308	895.909	678.492
218.694	15.135	896.044	677.834
219.709	15.453	895.244	678.457
220.723	15.392	894.398	677.508
221.738	15.204	893.874	676.292
222.753	15.324	893.234	676.233
223.767	15.260	892.873	675.643
224.782	15.373	891.832	675.247
225.796	15.378	891.185	674.719
226.811	15.434	890.561	674.414
227.826	15.437	889.591	673.629
228.840	15.414	889.257	673.225
229.855	15.520	888.541	673.046
230.869	15.466	887.559	672.029
231.884	15.588	886.847	671.918
232.899	15.459	886.577	671.138
233.913	15.496	885.639	670.516
234.928	15.481	884.874	669.817
235.942	15.404	884.494	669.165
236.957	15.540	883.195	668.664
237.972	15.348	883.341	667.952
238.986	15.304	882.505	667.085
240.001	15.441	882.015	667.198
241.015	15.567	881.004	666.874
242.030	15.428	880.525	665.902
243.045	15.497	879.926	665.663
244.059	15.520	879.079	665.057
245.074	15.527	878.739	664.769
246.088	15.598	877.983	664.420
247.103	15.546	877.216	663.574
248.117	15.668	876.642	663.562
249.132	15.661	876.273	663.197
250.147	15.768	875.584	663.037
251.161	15.678	874.977	662.164
252.176	15.837	874.055	662.037
253.190	15.816	873.607	661.554
254.205	15.901	873.247	661.556
255.220	15.786	872.557	660.525
256.234	15.869	871.855	660.259
257.249	15.890	871.139	659.743
258.263	15.917	870.654	659.421
259.278	15.812	870.279	658.670
260.293	15.979	869.516	658.684
261.307	15.981	868.695	658.014
262.322	16.059	868.386	658.026
263.336	16.016	867.851	657.395
264.351	16.144	866.979	657.173
265.366	15.979	866.324	655.977
266.380	16.108	865.738	655.977
267.395	15.979	865.086	654.924
268.409	15.994	864.305	654.331
269.424	16.070	863.891	654.258
270.439	16.190	862.641	653.717
271.453	16.023	862.394	652.825
272.468	15.950	861.792	652.027
273.482	16.116	861.227	652.185
274.497	16.129	860.705	651.783
275.512	16.069	860.091	651.028
276.526	16.037	859.515	650.411
277.541	16.171	858.568	650.153
278.555	16.303	857.702	649.949
279.570	16.149	857.525	649.163
280.585	16.418	857.003	649.746
281.599	16.203	856.378	648.390
282.614	16.351	855.740	648.417
283.628	16.279	855.177	647.658
284.643	16.166	854.989	647.024
285.657	16.377	853.904	646.954
286.672	16.322	853.891	646.676
287.687	16.265	853.609	646.187
288.701	16.400	852.544	645.839
289.716	16.512	851.718	645.585
290.730	16.447	851.694	645.260
291.745	16.357	850.899	644.257
292.760	16.376	850.324	643.838
293.774	16.447	849.779	643.640
294.789	16.425	848.852	642.794
295.803	16.520	848.178	642.588
296.818	16.382	848.220	642.040
297.833	16.408	847.621	641.627
298.847	16.472	846.809	641.201
299.862	16.538	845.819	640.645
300.876	16.466	845.358	639.966
301.891	16.495	844.373	639.274
302.906	16.716	843.569	639.441
303.920	16.670	843.297	639.004
304.935	16.683	842.630	638.491
305.949	16.749	841.916	638.144
306.964	16.623	841.599	637.371
307.979	16.599	841.262	636.972
308.993	16.734	840.265	636.665
310.008	16.725	839.666	636.125
311.022	16.872	838.929	636.060
312.037	16.787	838.910	635.668
313.052	16.783	838.163	635.031
314.066	16.753	837.571	634.416
315.081	16.734	837.158	633.977
316.095	16.859	836.452	633.851
317.110	16.866	835.880	633.391
318.125	16.777	835.323	632.579
319.139	16.806	834.960	632.358
320.154	16.865	834.542	632.205
321.168	16.898	834.029	631.880
322.183	17.063	833.215	631.825
323.197	16.884	832.916	630.874
324.212	16.781	832.344	630.003
325.227	16.907	831.954	630.119
326.241	16.969	831.212	629.730
327.256	16.942	830.343	628.918
328.270	16.964	830.262	628.883
329.285	16.960	829.391	628.151
330.300	16.911	828.844	627.500
331.314	17.027	828.172	627.367
332.329	16.903	827.962	626.695
333.343	16.920	827.225	626.141
334.358	17.048	826.660	626.131
335.373	17.080	826.046	625.730
336.387	17.095	825.493	625.309
337.402	17.146	824.830	624.942
338.416	17.198	824.240	624.631
339.431	17.193	823.511	624.004
340.446	17.163	823.373	623.732
341.460	17.206	822.712	623.334
342.475	17.117	822.370	622.696
343.489	17.334	821.614	622.862
344.504	17.273	821.149	622.229
345.519	17.410	820.801	622.415
346.533	17.452	820.425	622.228
347.548	17.373	819.707	621.338
348.562	17.376	818.941	620.715
349.577	17.319	818.828	620.365
350.592	17.465	817.886	620.129
351.606	17.209	817.801	619.077
352.621	17.112	817.399	618.365
353.635	17.479	816.786	619.182
354.650	17.219	816.643	618.072
355.665	17.283	816.515	618.155
356.679	17.326	815.534	617.514
357.694	17.553	814.950	617.839
358.708	17.535	814.164	617.123
359.723	17.448	813.653	616.365
360.738	17.401	813.422	615.966
361.752	17.473	813.056	615.895
362.767	17.488	812.710	615.634
363.781	17.403	812.690	615.258
364.796	17.449	811.877	614.752
365.810	17.653	811.129	614.869
366.825	17.658	810.901	614.657
367.840	17.624	810.543	614.212
368.854	17.716	809.909	614.005
369.869	17.547	809.762	613.233
370.883	17.746	808.836	613.194
371.898	17.657	808.447	612.525
372.913	17.702	807.792	612.136
373.927	17.589	807.391	611.372
374.942	17.689	807.043	611.412
375.956	17.661	806.207	610.625
376.971	17.836	805.641	610.770
377.986	17.848	804.846	610.154
379.000	17.849	804.401	609.767
380.015	17.816	804.007	609.295
381.029	17.928	803.661	609.379
382.044	17.999	802.886	608.990
383.059	17.925	801.980	607.986
384.073	17.928	801.614	607.665
385.088	18.123	801.001	607.840
386.102	18.014	800.697	607.170
387.117	17.970	800.279	606.642
388.132	17.879	799.713	605.835
389.146	17.905	799.582	605.777
390.161	17.932	799.574	605.814
391.175	18.022	798.468	605.239
392.190	18.157	798.117	605.396
393.205	17.910	798.543	604.793
394.219	17.930	797.910	604.329
395.234	17.959	797.249	603.878
396.248	17.880	796.439	602.931
397.263	17.988	795.801	602.778
398.278	17.949	795.484	602.347
399.292	18.018	795.180	602.306
400.307	17.900	794.866	601.598
401.321	18.020	794.293	601.535
402.336	18.100	793.540	601.193
403.350	18.055	793.581	601.012
404.365	18.149	793.182	600.989
405.380	18.258	792.380	600.710
406.394	18.230	792.018	600.285
407.409	18.288	791.690	600.183
408.423	18.158	791.132	599.253
409.438	18.324	790.768	599.507
410.453	18.263	790.435	598.986
411.467	18.307	789.858	598.652
412.482	18.440	789.299	598.640
413.496	18.423	788.992	598.292
414.511	18.304	788.626	597.548
415.526	18.444	788.101	597.586
416.540	18.494	787.846	597.514
417.555	18.408	787.445	596.857
418.569	18.435	786.825	596.429
419.584	18.455	786.167	595.946
420.599	18.531	785.548	595.687
421.613	107.693	1284.986	1451.046
422.628	92.293	1357.760	1451.179
