DTS Sentinel unit serial number:	SN413079Multiplexer serial number:	ORYXHardware model number:	OX4-SRSoftware version number:	ORYX F/W v4.00 Oryx Data Collector v3.7.2.0data status	okinstallation	princeton_trtdifferential loss correction	single-endedforward channel	channel 3reverse channel	N/Adate	2019/09/18time	20:20:35forward acquisition time	60.00reverse acquisition time	0.00gamma	496.2192k internal	0.2335k external	0.2335temperature offset calibration	1.0009default loss term (dB/km)	0.3790temperature slope calibration	1.0000multiplexer offset coefficient	1.0000multiplexer slope coefficient	1.0000fibre end	0.00T internal ref (°C)	28.94T ext. ref 1 (°C)	1.05T ext. ref 2 (°C)	19.66length (m)	temperature (°C)	Stokes	anti-Stokes-747.200	0.613	-0.291	0.209
-746.185	-156.614	-0.199	0.012
-745.171	-200.000	-0.005	-0.323
-744.156	359.720	-0.070	-0.140
-743.142	-155.537	0.384	0.025
-742.127	-200.000	-0.066	0.424
-741.112	-200.000	0.025	0.126
-740.098	109.581	-0.174	0.210
-739.083	83.583	-0.111	0.122
-738.069	183.775	-0.075	-0.111
-737.054	500.566	-0.057	-0.132
-736.039	800.000	-0.101	-0.393
-735.025	142.376	0.150	0.200
-734.010	-200.000	0.024	-0.508
-732.996	-76.350	-0.239	-0.085
-731.981	800.000	0.036	-0.111
-730.966	-200.000	0.045	-0.227
-729.952	-101.174	0.193	0.047
-728.937	-200.000	0.010	0.144
-727.923	-118.269	-0.321	-0.057
-726.908	66.574	0.131	0.134
-725.894	-104.638	0.225	0.052
-724.879	10.077	-0.149	-0.113
-723.864	-26.858	0.296	0.174
-722.850	-146.130	0.315	0.028
-721.835	-49.269	-0.122	0.058
-720.821	-32.544	-0.125	-0.070
-719.806	-18.151	-0.145	0.091
-718.791	171.238	0.182	-0.262
-717.777	-200.000	-0.015	-0.082
-716.762	-60.660	0.386	-0.164
-715.748	12.968	-0.052	-0.041
-714.733	-164.446	0.026	-0.001
-713.718	-15.444	0.101	-0.065
-712.704	35.561	0.263	0.231
-711.689	98.560	0.172	-0.198
-710.675	-175.742	-0.060	0.002
-709.660	-44.604	0.323	0.162
-708.645	-2.988	0.053	0.037
-707.631	-142.456	0.135	0.013
-706.616	-52.756	-0.276	-0.128
-705.602	278.934	0.062	-0.111
-704.587	-200.000	-0.018	-0.178
-703.572	218.232	-0.339	-0.543
-702.558	-200.000	0.051	-0.303
-701.543	-48.255	0.156	-0.076
-700.529	-149.062	0.147	-0.012
-699.514	201.579	0.077	-0.118
-698.499	-200.000	-0.056	0.260
-697.485	636.801	0.111	0.282
-696.470	56.221	-0.299	-0.292
-695.456	-107.465	0.248	0.055
-694.441	-119.010	0.261	0.046
-693.426	-200.000	-0.044	-0.200
-692.412	17.744	0.069	0.055
-691.397	135.997	0.094	0.123
-690.383	-82.815	0.406	-0.132
-689.368	160.430	-0.085	-0.119
-688.354	419.800	0.209	-0.449
-687.339	-129.519	0.220	0.031
-686.324	74.560	-0.152	-0.160
-685.310	-108.534	-0.141	-0.030
-684.295	-200.000	0.008	-0.200
-683.281	-56.626	0.238	-0.106
-682.266	19.620	-0.356	-0.287
-681.251	-200.000	0.016	0.347
-680.237	61.298	0.152	-0.151
-679.222	282.176	-0.233	-0.419
-678.208	15.600	-0.108	-0.085
-677.193	800.000	-0.025	0.084
-676.178	91.404	-0.104	-0.118
-675.164	91.326	-0.245	0.275
-674.149	-200.000	0.001	-0.286
-673.135	-82.705	-0.256	0.083
-672.120	246.575	-0.018	0.030
-671.105	-40.574	0.157	-0.082
-670.091	-102.835	0.119	0.028
-669.076	-78.084	0.187	0.065
-668.062	-200.000	0.038	-0.445
-667.047	-160.743	0.089	0.005
-666.032	800.000	0.095	-0.283
-665.018	800.000	0.141	-0.394
-664.003	-200.000	0.012	-0.102
-662.989	800.000	0.050	-0.195
-661.974	-135.260	0.324	-0.039
-660.959	-154.948	0.210	-0.014
-659.945	-93.457	-0.008	0.002
-658.930	800.000	-0.054	-0.223
-657.916	293.452	0.134	-0.244
-656.901	-60.696	0.219	0.093
-655.886	455.475	0.029	0.065
-654.872	-2.589	0.101	0.071
-653.857	-35.122	-0.469	-0.256
-652.843	1.261	-0.067	-0.048
-651.828	-62.068	0.307	0.128
-650.814	800.000	0.083	-0.248
-649.799	-139.213	0.078	-0.008
-648.784	-200.000	-0.009	-0.285
-647.770	90.186	-0.089	-0.100
-646.755	-116.406	-0.201	-0.037
-645.741	-170.581	-0.115	0.004
-644.726	-52.066	-0.231	0.107
-643.711	-58.605	0.345	0.150
-642.697	-28.709	0.207	-0.119
-641.682	-200.000	0.012	0.057
-640.668	-146.487	0.344	-0.030
-639.653	800.000	0.169	-0.568
-638.638	70.878	0.068	-0.070
-637.624	-121.594	0.463	0.077
-636.609	800.000	-0.148	-0.411
-635.595	-200.000	0.015	-0.088
-634.580	32.650	0.181	-0.156
-633.565	470.151	0.159	-0.356
-632.551	800.000	0.058	-0.179
-631.536	-68.462	-0.136	0.053
-630.522	-67.016	0.185	-0.073
-629.507	-200.000	0.018	0.097
-628.492	-82.030	-0.179	0.058
-627.478	219.564	0.037	0.060
-626.463	303.110	0.087	0.161
-625.449	98.282	0.057	0.066
-624.434	42.070	0.076	-0.069
-623.419	-41.922	-0.228	0.117
-622.405	-14.446	-0.242	0.156
-621.390	-6.516	0.067	-0.045
-620.376	431.372	0.118	0.256
-619.361	-200.000	-0.000	0.105
-618.346	-200.000	-0.025	-0.180
-617.332	-200.000	-0.006	-0.128
-616.317	-42.447	0.189	0.096
-615.303	-102.386	0.085	0.020
-614.288	-140.994	0.188	0.019
-613.273	-200.000	0.035	-0.296
-612.259	-74.303	-0.077	-0.028
-611.244	-33.491	-0.210	0.116
-610.230	77.432	-0.155	0.165
-609.215	-87.865	-0.380	-0.114
-608.201	800.000	-0.110	-0.427
-607.186	-157.412	0.291	-0.018
-606.171	800.000	0.065	0.264
-605.157	-138.894	0.138	0.015
-604.142	22.138	0.062	-0.051
-603.128	-194.738	-0.325	-0.003
-602.113	252.865	-0.150	0.256
-601.098	-200.000	-0.026	0.322
-600.084	-138.537	-0.284	-0.031
-599.069	800.000	-0.063	0.245
-598.055	-200.000	-0.003	-0.127
-597.040	-200.000	-0.014	0.101
-596.025	9.854	-0.461	0.349
-595.011	-128.574	0.651	0.092
-593.996	-200.000	0.067	0.297
-592.982	-57.656	0.142	0.062
-591.967	-50.104	0.256	-0.121
-590.952	-14.279	0.132	0.085
-589.938	77.178	0.256	0.272
-588.923	-200.000	-0.039	-0.207
-587.909	162.925	0.145	-0.203
-586.894	-76.334	0.237	0.083
-585.879	-90.128	-0.129	0.037
-584.865	-160.377	-0.114	-0.006
-583.850	-187.373	-0.163	0.002
-582.836	-200.000	-0.057	-0.255
-581.821	-86.453	-0.264	-0.081
-580.806	-125.669	-0.213	-0.032
-579.792	62.534	0.194	-0.194
-578.777	-104.834	-0.052	0.012
-577.763	-57.986	-0.150	-0.065
-576.748	152.737	-0.029	0.040
-575.733	-27.664	0.474	0.274
-574.719	490.202	0.044	0.100
-573.704	-70.676	-0.118	-0.045
-572.690	92.650	0.081	0.091
-571.675	-157.399	-0.308	0.018
-570.661	800.000	-0.065	-0.187
-569.646	42.863	0.127	0.116
-568.631	479.738	-0.125	-0.283
-567.617	-103.711	-0.119	-0.028
-566.602	800.000	0.066	-0.183
-565.588	-39.865	-0.191	-0.100
-564.573	147.834	0.158	-0.213
-563.558	-136.377	-0.128	-0.015
-562.544	12.165	-0.176	0.135
-561.529	-67.019	-0.084	0.033
-560.515	93.953	-0.003	-0.003
-559.500	-200.000	0.020	0.249
-558.485	86.951	0.113	-0.125
-557.471	195.674	0.116	-0.175
-556.456	-158.202	-0.409	0.024
-555.442	50.102	-0.167	-0.157
-554.427	-88.085	-0.295	0.088
-553.412	800.000	0.087	-0.252
-552.398	-200.000	-0.060	0.348
-551.383	200.990	0.060	-0.092
-550.369	231.724	0.161	-0.263
-549.354	66.077	0.096	-0.097
-548.339	800.000	-0.018	-0.051
-547.325	387.120	-0.156	-0.322
-546.310	718.098	-0.202	-0.534
-545.296	-23.162	-0.098	-0.059
-544.281	-18.488	0.240	0.149
-543.266	-171.187	-0.250	0.008
-542.252	-88.143	0.280	-0.084
-541.237	-2.366	-0.108	-0.075
-540.223	-64.342	-0.201	0.082
-539.208	-200.000	0.003	-0.126
-538.193	678.557	-0.032	-0.083
-537.179	-28.355	0.299	0.172
-536.164	210.021	0.034	-0.053
-535.150	14.308	0.067	-0.052
-534.135	-86.219	-0.149	0.046
-533.121	-103.065	0.204	0.048
-532.106	-81.167	0.218	-0.072
-531.091	-14.407	0.134	-0.086
-530.077	-5.475	0.136	0.093
-529.062	-158.039	0.122	-0.007
-528.048	410.655	0.052	-0.110
-527.033	-46.377	-0.048	-0.023
-526.018	149.824	-0.069	-0.093
-525.004	188.045	0.160	0.238
-523.989	-200.000	0.020	0.518
-522.975	229.932	-0.018	0.030
-521.960	-200.000	0.002	-0.030
-520.945	-154.750	-0.343	0.023
-519.931	-63.854	-0.072	-0.029
-518.916	-47.502	0.397	-0.192
-517.902	-161.991	-0.322	-0.016
-516.887	95.126	-0.121	0.137
-515.872	408.405	-0.083	0.175
-514.858	-200.000	0.056	0.448
-513.843	48.988	-0.159	0.149
-512.829	-57.022	0.088	-0.039
-511.814	442.885	-0.153	-0.333
-510.799	724.465	-0.019	0.051
-509.785	136.890	-0.270	-0.351
-508.770	-200.000	-0.011	0.150
-507.756	462.712	-0.116	0.259
-506.741	-124.787	-0.366	-0.056
-505.726	-200.000	0.020	0.101
-504.712	-71.723	-0.259	0.096
-503.697	-200.000	0.012	-0.193
-502.683	-170.074	0.368	0.013
-501.668	455.733	0.112	0.248
-500.653	-54.774	-0.173	0.078
-499.639	800.000	-0.040	0.126
-498.624	374.973	0.234	0.474
-497.610	-200.000	-0.009	-0.081
-496.595	-68.874	-0.213	0.082
-495.581	-200.000	-0.054	-0.299
-494.566	-6.400	-0.277	-0.188
-493.551	800.000	0.075	0.251
-492.537	122.391	-0.119	0.147
-491.522	-200.000	-0.023	0.118
-490.508	696.838	-0.057	0.149
-489.493	-126.707	0.294	-0.043
-488.478	3.725	-0.195	-0.141
-487.464	108.686	0.187	-0.223
-486.449	-72.875	0.304	0.111
-485.435	162.959	-0.118	-0.164
-484.420	-200.000	-0.058	-0.338
-483.405	161.526	-0.162	-0.225
-482.391	155.949	0.209	-0.286
-481.376	58.442	0.009	0.009
-480.362	335.035	-0.232	-0.446
-479.347	83.867	-0.200	0.218
-478.332	-200.000	-0.279	-0.000
-477.318	-200.000	0.008	-0.051
-476.303	151.988	0.062	-0.084
-475.289	-62.957	-0.052	0.021
-474.274	-179.106	-0.171	0.004
-473.259	-200.000	0.061	0.346
-472.245	-40.350	-0.261	0.135
-471.230	-39.742	0.107	0.056
-470.216	247.499	0.061	-0.103
-469.201	211.288	-0.264	-0.412
-468.186	-134.237	0.320	0.039
-467.172	10.288	-0.201	-0.152
-466.157	-142.899	0.202	-0.019
-465.143	-200.000	-0.025	-0.205
-464.128	-33.929	0.170	0.093
-463.113	170.611	-0.031	-0.044
-462.099	85.405	-0.127	-0.139
-461.084	320.331	0.044	0.083
-460.070	800.000	-0.069	-0.189
-459.055	84.100	0.184	-0.199
-458.040	-105.571	0.124	0.028
-457.026	-139.352	-0.054	-0.006
-456.011	-200.000	0.030	-0.278
-454.997	-162.268	0.323	-0.016
-453.982	-134.994	-0.100	0.012
-452.968	-91.870	0.112	-0.032
-451.953	-67.934	0.081	0.032
-450.938	-48.814	-0.173	0.082
-449.924	90.332	0.139	0.154
-448.909	-18.504	-0.286	0.177
-447.895	461.722	-0.130	-0.288
-446.880	-96.671	-0.090	-0.023
-445.865	-26.177	-0.167	0.098
-444.851	5.597	0.520	0.382
-443.836	601.825	0.109	0.269
-442.822	-132.935	-0.100	-0.013
-441.807	142.257	-0.144	0.189
-440.792	-158.178	0.194	0.011
-439.778	39.472	-0.083	0.074
-438.763	-200.000	0.002	0.017
-437.749	-200.000	-0.003	-0.157
-436.734	-48.770	-0.157	0.075
-435.719	175.992	0.037	-0.053
-434.705	241.324	-0.037	0.061
-433.690	-119.180	-0.214	-0.037
-432.676	800.000	0.170	0.513
-431.661	-200.000	0.008	0.281
-430.646	160.164	0.160	0.221
-429.632	-55.150	0.283	0.126
-428.617	22.173	-0.195	0.158
-427.603	88.857	-0.222	-0.245
-426.588	800.000	0.043	0.129
-425.573	-38.171	-0.017	0.009
-424.559	-6.709	-0.218	0.147
-423.544	472.236	0.086	-0.191
-422.530	-9.384	0.121	-0.080
-421.515	272.876	0.131	-0.229
-420.500	-107.938	0.254	-0.055
-419.486	-54.163	-0.093	0.042
-418.471	800.000	-0.074	-0.209
-417.457	-146.189	-0.170	0.015
-416.442	-112.232	-0.210	-0.042
-415.428	-61.128	-0.307	0.129
-414.413	-74.826	-0.124	-0.044
-413.398	145.329	-0.039	-0.052
-412.384	38.793	0.228	-0.202
-411.369	568.631	-0.088	-0.212
-410.355	231.546	0.070	0.113
-409.340	-21.661	0.227	0.137
-408.325	74.128	-0.248	0.258
-407.311	-100.573	-0.471	0.115
-406.296	150.686	-0.134	-0.180
-405.282	-28.427	-0.122	-0.070
-404.267	800.000	-0.117	0.327
-403.252	106.238	-0.211	-0.248
-402.238	-25.047	0.106	0.062
-401.223	41.881	-0.271	0.244
-400.209	-6.994	-0.056	0.037
-399.194	4.387	0.169	-0.123
-398.179	-49.226	-0.167	-0.079
-397.165	-89.626	0.164	0.048
-396.150	-78.165	-0.192	0.065
-395.136	451.551	-0.083	-0.183
-394.121	-169.267	0.455	-0.017
-393.106	800.000	-0.011	-0.037
-392.092	-200.000	-0.029	0.151
-391.077	-84.386	-0.069	0.022
-390.063	-162.979	-0.099	-0.005
-389.048	-40.465	-0.113	0.058
-388.033	-200.000	-0.045	-0.509
-387.019	125.781	-0.175	-0.219
-386.004	111.367	-0.148	-0.176
-384.990	800.000	-0.058	0.159
-383.975	42.080	-0.246	0.221
-382.960	105.100	0.100	-0.117
-381.946	-20.838	-0.174	-0.106
-380.931	-85.405	-0.163	0.050
-379.917	-28.765	0.172	0.098
-378.902	-110.415	0.223	-0.046
-377.888	43.801	0.015	0.014
-376.873	-200.000	-0.034	0.158
-375.858	302.668	-0.037	-0.067
-374.844	-63.028	-0.325	0.133
-373.829	-55.505	-0.045	0.020
-372.815	564.140	0.161	-0.385
-371.800	-102.266	-0.398	0.095
-370.785	800.000	0.104	0.335
-369.771	-1.259	0.263	-0.184
-368.756	491.793	0.045	0.101
-367.742	-200.000	-0.029	-0.150
-366.727	6.612	-0.149	0.110
-365.712	318.499	0.147	0.275
-364.698	800.000	0.107	0.318
-363.683	-200.000	0.006	-0.050
-362.669	-122.762	0.243	0.039
-361.654	56.716	-0.169	-0.163
-360.639	-16.284	-0.256	-0.161
-359.625	145.330	-0.214	0.284
-358.610	-153.429	-0.086	0.006
-357.596	-100.909	-0.283	-0.069
-356.581	133.275	-0.188	0.240
-355.566	-181.734	0.344	-0.007
-354.552	-200.000	0.007	0.233
-353.537	800.000	-0.078	0.217
-352.523	230.836	-0.196	0.317
-351.508	64.794	0.401	0.400
-350.493	-136.492	-0.263	-0.030
-349.479	0.928	0.176	-0.125
-348.464	-29.030	-0.150	0.085
-347.450	-42.105	-0.216	-0.109
-346.435	124.216	0.194	-0.241
-345.420	268.511	0.142	0.246
-344.406	89.310	0.099	-0.110
-343.391	744.954	0.141	0.375
-342.377	10.775	-0.140	0.106
-341.362	-119.916	-0.127	-0.022
-340.348	-43.766	0.314	-0.156
-339.333	-92.443	0.164	-0.046
-338.318	78.486	0.089	0.094
-337.304	-79.787	-0.130	-0.043
-336.289	-91.778	0.335	-0.094
-335.275	113.588	0.136	-0.164
-334.260	-200.000	-0.047	-0.251
-333.245	-121.440	0.064	-0.011
-332.231	800.000	-0.117	0.444
-331.216	613.871	0.032	-0.078
-330.202	-5.729	0.287	-0.194
-329.187	-55.822	0.265	0.117
-328.172	-28.960	-0.018	0.010
-327.158	68.138	-0.103	0.104
-326.143	234.775	0.135	-0.220
-325.129	-3.459	-0.190	0.131
-324.114	264.146	-0.100	0.173
-323.099	-200.000	0.071	0.365
-322.085	27.833	0.178	-0.148
-321.070	499.270	-0.044	-0.100
-320.056	-71.516	0.213	-0.079
-319.041	80.100	0.033	-0.035
-318.026	800.000	-0.122	-0.342
-317.012	-101.032	-0.130	0.032
-315.997	-68.855	0.182	0.070
-314.983	-121.709	-0.110	0.018
-313.968	90.208	-0.185	-0.205
-312.953	-10.316	-0.245	0.161
-311.939	-170.754	-0.021	0.001
-310.924	-200.000	0.012	-0.390
-309.910	393.005	0.135	-0.278
-308.895	116.743	0.252	-0.306
-307.880	260.425	0.152	-0.260
-306.866	46.678	0.084	-0.077
-305.851	172.675	-0.044	0.063
-304.837	800.000	0.068	0.275
-303.822	728.483	-0.056	0.149
-302.807	29.007	-0.209	-0.175
-301.793	-200.000	-0.021	-0.185
-300.778	800.000	0.106	-0.409
-299.764	-200.000	0.001	-0.239
-298.749	33.637	0.091	-0.078
-297.735	49.019	0.066	-0.061
-296.720	-58.047	0.131	0.056
-295.705	-121.797	0.317	-0.052
-294.691	-73.064	0.075	-0.027
-293.676	247.248	-0.030	-0.051
-292.662	-200.000	0.016	0.169
-291.647	46.240	0.156	0.143
-290.632	-200.000	-0.035	0.299
-289.618	800.000	0.056	0.182
-288.603	-66.730	-0.304	-0.119
-287.589	31.011	-0.101	-0.086
-286.574	315.863	-0.056	-0.105
-285.559	26.651	0.320	-0.264
-284.545	-58.812	-0.103	0.044
-283.530	800.000	0.053	0.220
-282.516	634.425	-0.027	-0.069
-281.501	-43.680	-0.134	-0.067
-280.486	267.240	0.035	-0.060
-279.472	97.289	-0.155	0.176
-278.457	103.503	-0.064	0.074
-277.443	476.355	-0.088	-0.197
-276.428	511.304	0.037	0.084
-275.413	-108.090	-0.179	0.038
-274.399	-200.000	-0.015	0.306
-273.384	-200.000	0.001	-0.058
-272.370	-83.175	-0.227	-0.072
-271.355	-45.508	-0.330	0.161
-270.340	-107.415	0.132	-0.029
-269.326	-180.150	0.169	0.004
-268.311	-65.606	0.142	0.056
-267.297	250.081	0.010	-0.018
-266.282	151.190	0.200	-0.268
-265.267	7.638	0.215	-0.158
-264.253	-200.000	-0.037	0.213
-263.238	-2.683	0.295	0.204
-262.224	800.000	-0.063	-0.175
-261.209	-61.281	0.224	-0.093
-260.195	-200.000	0.003	0.085
-259.180	524.038	0.151	0.350
-258.165	-40.046	0.202	-0.104
-257.151	-85.811	0.080	-0.024
-256.136	116.176	-0.071	-0.086
-255.122	-50.375	-0.254	-0.118
-254.107	-170.254	0.137	-0.005
-253.092	-82.340	0.057	-0.018
-252.078	541.340	0.018	0.042
-251.063	-111.373	-0.059	-0.012
-250.049	309.447	-0.066	0.122
-249.034	-79.283	0.308	0.103
-248.019	585.034	0.080	0.194
-247.005	37.994	-0.156	-0.136
-245.990	138.539	0.141	-0.182
-244.976	-129.281	-0.280	0.038
-243.961	-86.212	0.302	0.092
-242.946	11.234	-0.028	-0.021
-241.932	48.676	-0.098	-0.091
-240.917	-87.351	0.252	-0.075
-239.903	135.642	-0.175	-0.224
-238.888	12.954	0.157	0.120
-237.873	-83.748	0.343	0.108
-236.859	-29.802	-0.463	-0.260
-235.844	-64.502	0.282	0.113
-234.830	326.166	-0.126	-0.238
-233.815	-200.000	0.015	0.151
-232.800	-200.000	0.032	0.344
-231.786	-13.663	0.255	0.163
-230.771	-52.612	0.526	0.239
-229.757	-200.000	-0.006	-0.135
-228.742	-72.346	-0.330	0.120
-227.727	262.708	0.110	-0.188
-226.713	166.804	0.119	-0.166
-225.698	-197.847	-0.303	-0.002
-224.684	800.000	0.015	0.055
-223.669	-84.667	0.310	-0.096
-222.655	113.099	-0.151	-0.180
-221.640	143.288	-0.045	0.058
-220.625	-50.870	0.258	0.119
-219.611	-159.339	0.224	-0.012
-218.596	800.000	-0.085	0.313
-217.582	308.803	-0.195	-0.359
-216.567	-1.540	0.171	0.119
-215.552	-132.347	-0.260	0.033
-214.538	-145.059	0.279	0.025
-213.523	-0.554	0.135	-0.094
-212.509	-91.159	0.127	-0.036
-211.494	-200.000	-0.011	-0.235
-210.479	3.045	-0.119	-0.085
-209.465	-200.000	-0.027	0.304
-208.450	-73.498	0.157	0.056
-207.436	-176.797	0.082	0.002
-206.421	-37.076	0.334	0.176
-205.406	-70.187	-0.195	-0.073
-204.392	3.691	-0.145	0.104
-203.377	800.000	0.028	0.093
-202.363	-122.620	0.111	0.018
-201.348	-119.145	0.409	-0.070
-200.333	-200.000	0.053	0.268
-199.319	-76.639	0.154	-0.053
-198.304	400.673	0.030	-0.063
-197.290	-35.372	0.126	-0.067
-196.275	-119.470	-0.058	-0.010
-195.260	322.558	0.136	-0.255
-194.246	98.847	-0.074	0.084
-193.231	-132.862	0.249	0.031
-192.217	800.000	-0.115	0.404
-191.202	-200.000	0.005	0.031
-190.187	37.546	0.195	-0.170
-189.173	-46.492	-0.331	-0.160
-188.158	-73.387	0.241	0.087
-187.144	173.149	-0.098	0.139
-186.129	181.191	-0.321	0.464
-185.114	800.000	-0.053	0.147
-184.100	-99.134	-0.327	-0.081
-183.085	-33.535	-0.076	0.041
-182.071	-4.698	0.137	0.093
-181.056	74.569	-0.302	0.312
-180.042	328.005	-0.081	-0.153
-179.027	29.994	0.127	-0.107
-178.012	108.686	0.235	0.275
-176.998	77.039	0.118	-0.123
-175.983	23.931	0.310	-0.252
-174.969	-41.927	0.041	-0.021
-173.954	-38.942	0.089	0.046
-172.939	-83.854	-0.314	-0.098
-171.925	246.577	-0.143	0.237
-170.910	45.305	0.012	0.011
-169.896	-127.571	-0.104	0.015
-168.881	-34.792	-0.224	0.120
-167.866	53.156	-0.320	-0.301
-166.852	-148.131	-0.273	0.022
-165.837	135.874	0.149	0.191
-164.823	-200.000	-0.046	0.239
-163.808	4.170	0.319	0.229
-162.793	176.190	0.083	-0.118
-161.779	-119.052	0.430	-0.074
-160.764	91.609	-0.216	0.238
-159.750	-113.726	-0.330	0.063
-158.735	-200.000	0.017	-0.134
-157.720	-200.000	0.004	-0.117
-156.706	-200.000	-0.074	-0.319
-155.691	-49.138	-0.145	-0.068
-154.677	81.350	-0.052	0.055
-153.662	-10.419	0.073	-0.047
-152.647	37.488	0.116	0.101
-151.633	-200.000	0.039	-0.221
-150.618	-200.000	0.007	-0.276
-149.604	592.535	0.020	0.049
-148.589	-200.000	0.015	-0.686
-147.574	-200.000	0.059	-0.331
-146.560	-53.963	0.427	-0.191
-145.545	723.793	0.066	0.172
-144.531	800.000	-0.053	0.145
-143.516	-9.238	-0.246	0.162
-142.502	-78.220	0.055	0.019
-141.487	800.000	-0.068	-0.260
-140.472	389.135	0.121	-0.247
-139.458	-120.965	0.216	0.036
-138.443	505.562	-0.078	0.177
-137.429	105.560	-0.097	0.113
-136.414	-93.697	0.291	-0.079
-135.399	103.349	0.092	-0.106
-134.385	239.320	0.066	-0.108
-133.370	-200.000	0.025	0.266
-132.356	478.942	-0.015	-0.034
-131.341	-200.000	0.007	-0.136
-130.326	161.833	0.121	-0.166
-129.312	800.000	-0.171	0.493
-128.297	162.434	0.325	-0.448
-127.283	256.733	0.146	-0.245
-126.268	-24.148	0.252	0.148
-125.253	-115.352	0.662	-0.123
-124.239	102.367	-0.207	0.238
-123.224	151.287	-0.149	0.199
-122.210	-174.646	0.217	0.006
-121.195	-32.366	0.176	0.096
-120.180	498.798	0.011	-0.024
-119.166	-98.879	-0.355	0.088
-118.151	-200.000	0.019	-0.447
-117.137	-86.766	0.149	0.045
-116.122	715.367	-0.153	-0.397
-115.107	-200.000	0.029	0.416
-114.093	372.113	0.086	-0.172
-113.078	-200.000	0.016	-0.246
-112.064	78.765	0.110	-0.115
-111.049	-9.358	0.131	0.086
-110.034	-134.182	0.059	0.007
-109.020	-24.481	0.579	0.338
-108.005	-101.100	-0.176	-0.042
-106.991	-120.955	-0.309	0.051
-105.976	66.680	0.153	-0.153
-104.962	323.935	0.097	-0.182
-103.947	740.308	0.068	0.179
-102.932	83.370	0.135	0.144
-101.918	-200.000	-0.115	-0.515
-100.903	-0.077	0.153	-0.107
-99.889	-200.000	0.019	-0.133
-98.874	94.902	-0.216	-0.241
-97.859	252.346	0.084	-0.140
-96.845	417.589	0.050	-0.104
-95.830	-81.156	0.076	0.024
-94.816	769.296	0.101	0.269
-93.801	220.408	0.043	0.068
-92.786	112.663	-0.101	0.120
-91.772	-53.698	0.198	0.088
-90.757	86.446	0.031	-0.033
-89.743	-200.000	0.012	-0.097
-88.728	800.000	-0.057	-0.180
-87.713	177.570	0.077	-0.109
-86.699	-200.000	-0.025	0.136
-85.684	-33.557	0.325	0.176
-84.670	24.451	-0.190	-0.154
-83.655	-115.256	-0.274	-0.051
-82.640	92.898	0.210	0.233
-81.626	184.519	0.092	0.133
-80.611	-200.000	-0.065	0.353
-79.597	-81.738	0.147	0.047
-78.582	41.970	0.362	0.321
-77.567	-200.000	0.001	0.047
-76.553	-72.618	0.159	-0.057
-75.538	262.516	-0.117	0.198
-74.524	-200.000	0.023	0.134
-73.509	79.453	-0.165	0.173
-72.494	13.642	-0.264	0.200
-71.480	800.000	0.067	-0.252
-70.465	-200.000	-0.057	0.336
-69.451	84.998	0.081	0.087
-68.436	9.661	-0.506	0.376
-67.422	-65.290	-0.144	-0.057
-66.407	27.610	-0.020	-0.017
-65.392	800.000	0.062	0.225
-64.378	221.266	0.268	-0.422
-63.363	56.616	0.028	-0.027
-62.349	-141.258	0.274	-0.027
-61.334	35.932	-1.169	-1.006
-60.319	-26.478	0.573	0.329
-59.305	800.000	-0.546	-1.505
-58.290	100.575	0.973	1.105
-57.276	517.797	0.754	1.724
-56.261	-200.000	112.800	695.660
-55.246	528.859	1475.577	3405.633
-54.232	153.399	2634.167	3526.459
-53.217	107.760	2160.433	2515.849
-52.203	39.460	1701.759	1490.788
-51.188	31.978	1523.226	1283.395
-50.173	29.764	1498.721	1247.776
-49.159	55.441	1556.701	1472.981
-48.144	54.193	1572.180	1479.028
-47.130	32.372	1529.371	1291.071
-46.115	29.190	1514.232	1256.575
-45.100	28.997	1510.981	1252.512
-44.086	28.966	1508.813	1250.460
-43.071	28.887	1507.109	1248.460
-42.057	28.807	1505.844	1246.819
-41.042	28.898	1504.123	1245.965
-40.027	28.950	1502.524	1244.938
-39.013	28.940	1500.550	1243.185
-37.998	28.907	1499.800	1242.292
-36.984	28.882	1499.157	1241.543
-35.969	28.892	1497.940	1240.555
-34.954	28.835	1496.366	1238.814
-33.940	28.906	1494.610	1237.791
-32.925	28.955	1493.190	1236.897
-31.911	28.918	1491.844	1235.479
-30.896	28.919	1490.948	1234.696
-29.881	28.978	1489.352	1233.723
-28.867	29.058	1487.725	1232.862
-27.852	29.061	1486.693	1231.976
-26.838	28.991	1485.749	1230.676
-25.823	29.090	1483.538	1229.461
-24.809	28.991	1482.452	1227.849
-23.794	28.927	1481.085	1226.243
-22.779	28.924	1479.946	1225.229
-21.765	28.995	1478.870	1224.764
-20.750	29.025	1477.156	1223.492
-19.736	29.055	1476.232	1222.883
-18.721	28.995	1474.864	1221.304
-17.706	28.911	1474.283	1220.213
-16.692	28.884	1473.398	1219.256
-15.677	28.922	1472.189	1218.454
-14.663	29.037	1470.729	1217.958
-13.648	28.856	1470.020	1216.125
-12.633	28.918	1468.954	1215.609
-11.619	28.933	1468.515	1215.294
-10.604	28.897	1467.878	1214.484
-9.590	28.902	1466.485	1213.315
-8.575	28.843	1466.095	1212.554
-7.560	28.900	1464.984	1211.965
-6.546	28.979	1463.882	1211.521
-5.531	28.876	1463.769	1210.702
-4.517	28.801	1462.642	1209.231
-3.502	28.942	1460.861	1208.634
-2.487	28.759	1460.065	1206.729
-1.473	28.824	1459.395	1206.554
-0.458	28.787	1458.044	1205.149
0.556	27.930	1447.226	1191.288
1.571	23.583	1419.997	1140.893
2.586	18.783	1354.944	1059.006
3.600	16.461	1269.899	979.018
4.615	15.065	1224.915	936.444
5.629	13.293	1169.849	884.798
6.644	7.136	1089.050	792.860
7.659	1.969	1050.869	739.979
8.673	1.151	1045.958	732.501
9.688	1.001	1042.618	729.375
10.702	0.981	1040.568	727.782
11.717	1.058	1039.033	727.014
12.731	2.972	1040.686	737.294
13.746	9.556	1049.158	775.001
14.761	15.760	1056.708	810.488
15.775	17.694	1058.219	820.898
16.790	17.382	1057.106	818.460
17.804	16.417	1055.082	812.185
18.819	15.524	1053.280	806.439
19.834	15.128	1051.629	803.205
20.848	14.647	1051.292	800.571
21.863	14.391	1050.748	798.856
22.877	14.299	1049.071	797.072
23.892	13.999	1048.175	794.883
24.907	14.060	1047.329	794.464
25.921	13.951	1046.936	793.578
26.936	13.967	1046.542	793.285
27.950	14.066	1045.759	793.092
28.965	14.162	1044.562	792.573
29.980	14.166	1044.076	792.151
30.994	14.192	1042.821	791.252
32.009	14.097	1042.259	790.307
33.023	14.138	1041.609	789.937
34.038	14.087	1041.200	789.317
35.053	14.257	1039.507	788.767
36.067	14.113	1039.095	787.705
37.082	14.125	1038.362	787.136
38.096	14.191	1037.362	786.618
39.111	14.146	1036.728	785.855
40.126	14.120	1035.458	784.699
41.140	14.168	1034.438	784.086
42.155	14.116	1033.657	783.176
43.169	13.911	1032.785	781.482
44.184	13.960	1031.723	780.843
45.199	13.877	1030.938	779.789
46.213	13.898	1029.933	779.059
47.228	13.970	1028.554	778.281
48.242	14.036	1027.773	777.931
49.257	13.959	1027.224	777.088
50.271	14.020	1025.994	776.373
51.286	14.095	1024.890	775.820
52.301	14.061	1024.388	775.214
53.315	14.036	1023.755	774.549
54.330	14.068	1022.648	773.792
55.344	14.013	1021.722	772.768
56.359	14.047	1020.999	772.309
57.374	13.916	1020.289	771.097
58.388	13.971	1018.930	770.256
59.403	13.998	1018.061	769.654
60.417	13.912	1017.477	768.747
61.432	13.935	1016.942	768.379
62.447	14.060	1015.931	768.126
63.461	13.965	1015.054	766.957
64.476	14.065	1014.077	766.612
65.490	13.951	1013.754	765.775
66.505	13.824	1013.123	764.643
67.520	14.001	1011.816	764.405
68.534	13.913	1011.278	763.527
69.549	14.012	1010.479	763.312
70.563	13.955	1009.727	762.416
71.578	13.984	1008.862	761.829
72.593	13.874	1008.450	760.942
73.607	13.908	1007.060	759.982
74.622	13.858	1006.027	758.908
75.636	13.725	1005.507	757.840
76.651	13.769	1004.641	757.324
77.666	13.939	1003.714	757.333
78.680	13.955	1002.812	756.655
79.695	13.888	1002.474	756.028
80.709	13.812	1002.161	755.383
81.724	13.955	1000.998	755.088
82.739	13.977	1000.220	754.532
83.753	14.025	999.504	754.144
84.768	14.096	998.638	753.748
85.782	14.122	997.888	753.230
86.797	14.161	997.192	752.814
87.812	14.135	996.058	751.776
88.826	14.051	995.575	750.964
89.841	14.100	994.906	750.616
90.855	14.056	994.199	749.817
91.870	14.104	993.495	749.435
92.884	14.395	992.211	749.709
93.899	14.212	991.917	748.599
94.914	14.148	991.385	747.845
95.928	14.227	990.393	747.385
96.943	14.320	989.586	747.125
97.957	14.315	988.624	746.313
98.972	14.156	988.478	745.423
99.987	14.244	987.441	744.967
101.001	14.189	986.805	744.175
102.016	14.222	985.924	743.594
103.030	14.131	985.389	742.720
104.045	14.134	984.320	741.861
105.060	14.213	982.854	741.042
106.074	14.305	981.652	740.478
107.089	14.063	981.413	739.157
108.103	14.001	980.812	738.365
109.118	14.027	979.579	737.485
110.133	14.053	978.979	737.082
111.147	14.039	977.871	736.123
112.162	14.062	977.195	735.650
113.176	14.007	976.479	734.805
114.191	14.039	975.768	734.346
115.206	14.119	974.547	733.712
116.220	14.179	973.487	733.114
117.235	14.072	972.856	732.102
118.249	14.182	971.996	731.874
119.264	14.196	971.136	731.225
120.279	14.215	970.230	730.563
121.293	14.100	969.853	729.707
122.308	14.199	968.761	729.258
123.322	14.066	968.042	728.069
124.337	14.196	966.577	727.468
125.352	14.181	965.600	726.605
126.366	13.977	964.671	724.953
127.381	14.000	963.984	724.473
128.395	14.050	962.942	723.840
129.410	14.033	962.029	723.019
130.424	14.081	961.124	722.483
131.439	14.087	960.405	721.905
132.454	14.106	959.651	721.353
133.468	14.185	958.836	721.022
134.483	14.183	958.232	720.493
135.497	14.145	957.240	719.520
136.512	14.055	956.643	718.620
137.527	14.284	955.419	718.625
138.541	14.079	954.950	717.322
139.556	14.109	954.484	717.038
140.570	14.109	953.821	716.479
141.585	14.207	952.683	715.980
142.600	14.127	952.386	715.352
143.614	14.152	951.232	714.530
144.629	14.146	950.834	714.142
145.643	14.438	949.650	714.439
146.658	14.182	949.346	713.052
147.673	14.219	948.214	712.294
148.687	14.299	947.184	711.802
149.702	14.211	946.946	711.182
150.716	14.116	945.791	709.846
151.731	14.166	944.443	708.984
152.746	14.173	944.054	708.661
153.760	14.249	943.170	708.258
154.775	14.375	942.079	707.912
155.789	14.304	941.650	707.226
156.804	14.377	940.583	706.670
157.819	14.333	939.764	705.805
158.833	14.300	939.499	705.404
159.848	14.366	939.037	705.277
160.862	14.430	938.205	704.859
161.877	14.405	937.510	704.170
162.892	14.321	936.464	702.967
163.906	14.404	935.737	702.710
164.921	14.320	935.454	702.080
165.935	14.316	934.131	701.006
166.950	14.253	933.422	700.150
167.964	14.443	932.409	700.126
168.979	14.407	931.492	699.225
169.994	14.356	930.352	698.094
171.008	14.451	929.345	697.671
172.023	14.343	929.212	697.061
173.037	14.385	928.131	696.363
174.052	14.400	927.497	695.885
175.067	14.485	926.672	695.560
176.081	14.452	926.019	694.871
177.096	14.464	925.023	694.112
178.110	14.491	924.292	693.616
179.125	14.390	923.502	692.541
180.140	14.503	922.633	692.299
181.154	14.519	922.034	691.852
182.169	14.469	921.412	691.120
183.183	14.401	921.079	690.525
184.198	14.673	920.065	690.829
185.213	14.587	919.379	689.899
186.227	14.612	918.946	689.617
187.242	14.529	918.700	689.025
188.256	14.663	917.949	688.954
189.271	14.621	917.261	688.208
190.286	14.770	915.949	687.773
191.300	14.672	915.494	686.969
192.315	14.638	914.370	685.923
193.329	14.483	914.014	684.958
194.344	14.600	913.297	684.843
195.359	14.480	913.168	684.191
196.373	14.644	912.463	684.276
197.388	14.782	911.992	684.429
198.402	14.680	911.632	683.679
199.417	14.851	910.623	683.560
200.432	14.918	909.984	683.293
201.446	14.823	910.170	682.986
202.461	14.848	909.614	682.610
203.475	14.964	908.605	682.266
204.490	14.932	908.323	681.864
205.504	14.848	907.357	680.734
206.519	14.986	906.317	680.458
207.534	14.835	905.867	679.444
208.548	14.870	905.171	679.006
209.563	14.921	904.459	678.616
210.577	15.020	903.599	678.313
211.592	14.940	903.116	677.566
212.607	14.985	902.588	677.292
213.621	14.950	902.508	677.032
214.636	14.995	901.341	676.278
215.650	14.966	900.932	675.793
216.665	15.077	899.999	675.481
217.680	14.939	899.526	674.509
218.694	15.043	899.055	674.516
219.709	15.092	898.714	674.400
220.723	15.175	897.672	673.893
221.738	15.033	897.202	672.906
222.753	15.194	896.568	673.020
223.767	15.059	895.953	671.958
224.782	15.096	895.211	671.489
225.796	15.356	894.202	671.714
226.811	15.293	893.578	670.935
227.826	15.297	892.722	670.247
228.840	15.152	892.433	669.391
229.855	15.213	891.761	669.070
230.869	15.232	890.896	668.440
231.884	15.230	890.304	667.930
232.899	15.171	889.881	667.318
233.913	15.135	889.260	666.650
234.928	15.169	888.354	666.048
235.942	15.172	887.834	665.607
236.957	15.131	886.881	664.674
237.972	15.262	886.323	664.717
238.986	15.188	885.923	664.065
240.001	15.247	885.396	663.843
241.015	15.268	884.452	663.158
242.030	15.166	883.660	662.105
243.045	15.282	883.166	662.133
244.059	15.360	882.178	661.643
245.074	15.405	881.973	661.609
246.088	15.458	881.233	661.204
247.103	15.455	880.701	660.735
248.117	15.438	880.397	660.378
249.132	15.491	879.812	660.090
250.147	15.521	879.283	659.754
251.161	15.512	878.519	659.087
252.176	15.601	877.934	658.936
253.190	15.702	876.771	658.404
254.205	15.651	876.442	657.897
255.220	15.667	875.866	657.468
256.234	15.802	875.360	657.558
257.249	15.844	874.579	657.077
258.263	15.708	873.824	655.922
259.278	15.790	873.203	655.716
260.293	15.835	872.760	655.501
261.307	15.868	872.150	655.114
262.322	15.823	871.765	654.594
263.336	15.849	871.283	654.274
264.351	15.809	870.625	653.565
265.366	15.847	869.967	653.162
266.380	15.910	869.244	652.807
267.395	15.933	868.445	652.239
268.409	15.986	867.540	651.703
269.424	15.926	867.056	651.049
270.439	16.014	866.464	650.888
271.453	15.999	865.534	650.077
272.468	15.936	864.820	649.240
273.482	15.830	864.642	648.641
274.497	15.968	863.796	648.477
275.512	15.953	863.081	647.827
276.526	15.984	862.030	647.100
277.541	16.068	861.753	647.159
278.555	16.065	860.879	646.433
279.570	16.052	860.532	646.063
280.585	16.125	860.436	646.215
281.599	16.030	859.712	645.250
282.614	16.145	859.312	645.330
283.628	16.022	858.358	644.087
284.643	16.083	858.192	644.142
285.657	16.175	857.190	643.684
286.672	16.106	856.774	643.051
287.687	16.283	856.414	643.399
288.701	16.286	855.739	642.846
289.716	16.264	854.852	642.040
290.730	16.177	854.606	641.467
291.745	16.250	853.904	641.158
292.760	16.314	853.003	640.671
293.774	16.177	852.778	639.925
294.789	16.291	852.241	639.895
295.803	16.304	851.223	639.122
296.818	16.344	850.972	639.031
297.833	16.397	849.948	638.406
298.847	16.310	849.793	637.902
299.862	16.367	848.802	637.319
300.876	16.352	848.385	636.894
301.891	16.474	847.418	636.568
302.906	16.574	846.635	636.300
303.920	16.472	845.921	635.325
304.935	16.489	845.415	634.952
305.949	16.549	844.979	634.793
306.964	16.450	844.675	634.140
307.979	16.485	843.792	633.551
308.993	16.802	843.024	634.106
310.008	16.581	842.844	633.086
311.022	16.469	842.630	632.451
312.037	16.636	841.796	632.392
313.052	16.631	841.312	631.953
314.066	16.797	840.596	631.981
315.081	16.627	839.805	630.697
316.095	16.617	839.573	630.429
317.110	16.629	838.844	629.869
318.125	16.549	838.582	629.321
319.139	16.641	837.923	629.111
320.154	16.647	837.403	628.689
321.168	16.666	836.987	628.389
322.183	16.672	836.592	628.059
323.197	16.776	835.891	627.863
324.212	16.705	835.613	627.338
325.227	16.786	835.182	627.257
326.241	16.631	834.798	626.339
327.256	16.691	834.085	625.970
328.270	16.738	832.981	625.261
329.285	16.793	832.266	624.871
330.300	16.716	831.902	624.259
331.314	16.679	831.620	623.855
332.329	16.857	830.766	623.816
333.343	16.789	830.250	623.121
334.358	16.987	829.632	623.332
335.373	16.933	829.576	623.036
336.387	17.046	828.651	622.702
337.402	16.796	828.575	621.672
338.416	17.049	827.362	621.634
339.431	17.030	827.141	621.341
340.446	17.126	826.224	620.950
341.460	17.025	825.864	620.256
342.475	17.004	825.611	619.934
343.489	17.156	824.299	619.447
344.504	17.161	824.049	619.224
345.519	17.023	824.025	618.648
346.533	17.150	823.193	618.429
347.548	17.079	822.928	617.918
348.562	17.125	822.282	617.547
349.577	17.108	821.554	616.882
350.592	17.128	820.866	616.383
351.606	17.130	820.688	616.202
352.621	17.192	820.143	615.962
353.635	17.128	820.112	615.655
354.650	17.187	819.111	615.062
355.665	17.146	819.018	614.787
356.679	17.265	818.564	614.824
357.694	17.228	818.062	614.258
358.708	17.320	817.243	613.921
359.723	17.119	817.107	613.040
360.738	17.197	816.247	612.620
361.752	17.375	815.604	612.724
362.767	17.438	815.235	612.622
363.781	17.404	815.110	612.351
364.796	17.324	814.704	611.705
365.810	17.467	814.023	611.653
366.825	17.544	813.602	611.559
367.840	17.603	813.362	611.535
368.854	17.384	812.897	610.347
369.869	17.508	812.309	610.294
370.883	17.637	811.638	610.199
371.898	17.522	811.340	609.509
372.913	17.624	810.414	609.125
373.927	17.548	809.914	608.425
374.942	17.624	809.340	608.209
375.956	17.543	808.850	607.500
376.971	17.605	808.394	607.325
377.986	17.765	807.529	607.189
379.000	17.898	807.141	607.319
380.015	17.715	806.727	606.303
381.029	17.722	806.198	605.876
382.044	17.621	805.957	605.282
383.059	17.694	805.249	604.954
384.073	17.820	804.729	604.956
385.088	17.912	803.931	604.631
386.102	17.675	804.006	603.795
387.117	17.651	803.045	602.935
388.132	17.826	802.600	603.166
389.146	17.687	802.496	602.544
390.161	17.821	801.896	602.511
391.175	17.841	801.611	602.314
392.190	17.842	801.001	601.808
393.205	17.811	800.335	601.143
394.219	17.916	800.382	601.495
395.234	17.875	799.707	600.793
396.248	17.769	798.978	599.816
397.263	17.925	798.599	600.029
398.278	17.848	798.310	599.489
399.292	17.861	797.749	599.058
400.307	17.784	797.668	598.676
401.321	17.734	797.417	598.259
402.336	17.824	796.850	598.095
403.350	17.827	796.702	597.941
404.365	18.011	796.100	598.081
405.380	18.234	795.322	598.223
406.394	18.101	794.820	597.326
407.409	18.093	794.330	596.879
408.423	18.214	794.043	597.034
409.438	18.094	793.241	595.957
410.453	18.033	793.249	595.698
411.467	18.229	792.663	595.889
412.482	18.167	792.177	595.255
413.496	18.143	791.737	594.789
414.511	18.251	791.377	594.840
415.526	18.369	790.742	594.722
416.540	18.441	790.278	594.570
417.555	18.232	790.316	593.818
418.569	18.156	790.054	593.306
419.584	18.295	789.148	593.056
420.599	18.235	789.042	592.715
421.613	113.608	1293.515	1478.626
422.628	97.686	1366.978	1478.723
