DTS Sentinel unit serial number:	SN413079Multiplexer serial number:	ORYXHardware model number:	OX4-SRSoftware version number:	ORYX F/W v4.00 Oryx Data Collector v3.7.2.0data status	okinstallation	princeton_trtdifferential loss correction	single-endedforward channel	channel 3reverse channel	N/Adate	2019/09/11time	08:46:10forward acquisition time	60.00reverse acquisition time	0.00gamma	496.2192k internal	0.2311k external	0.2311temperature offset calibration	0.9937default loss term (dB/km)	0.3790temperature slope calibration	1.0000multiplexer offset coefficient	1.0000multiplexer slope coefficient	1.0000fibre end	0.00T internal ref (°C)	33.69T ext. ref 1 (°C)	0.12T ext. ref 2 (°C)	30.91length (m)	temperature (°C)	Stokes	anti-Stokes-747.200	-113.663	0.405	0.080
-746.185	-44.149	-0.257	0.131
-745.171	-155.640	-0.263	0.017
-744.156	-51.621	-0.379	0.179
-743.142	-156.228	0.173	-0.011
-742.127	800.000	-0.078	-0.245
-741.112	728.323	0.061	0.165
-740.098	-117.063	-0.291	0.054
-739.083	-77.876	-0.168	-0.059
-738.069	-138.074	0.040	-0.004
-737.054	121.748	0.112	0.142
-736.039	-84.571	-0.300	0.096
-735.025	-121.591	0.349	0.059
-734.010	224.199	-0.095	0.156
-732.996	-67.659	-0.282	0.112
-731.981	25.484	0.161	0.136
-730.966	-17.313	0.154	-0.098
-729.952	706.492	0.019	-0.050
-728.937	-37.251	0.250	0.135
-727.923	-74.681	0.124	-0.045
-726.908	-200.000	-0.032	-0.197
-725.894	-200.000	-0.001	-0.125
-724.879	800.000	0.052	0.200
-723.864	648.618	-0.060	0.156
-722.850	56.818	-0.173	-0.170
-721.835	800.000	0.065	-0.228
-720.821	-105.270	0.324	0.075
-719.806	-64.727	0.185	-0.076
-718.791	-88.242	0.361	-0.110
-717.777	217.916	-0.080	0.130
-716.762	449.928	0.081	-0.182
-715.748	549.417	0.120	0.293
-714.733	-72.825	-0.102	-0.038
-713.718	-200.000	0.003	-0.088
-712.704	80.573	-0.202	0.221
-711.689	-43.789	-0.402	-0.205
-710.675	546.948	0.075	0.181
-709.660	-200.000	0.409	-0.001
-708.645	79.036	0.112	0.121
-707.631	124.772	-0.017	-0.022
-706.616	-157.496	0.167	0.010
-705.602	-160.944	0.056	-0.003
-704.587	582.860	0.047	0.117
-703.572	68.984	0.146	0.152
-702.558	18.907	-0.212	-0.172
-701.543	378.398	-0.099	0.206
-700.529	285.779	-0.026	0.047
-699.514	795.285	-0.083	0.230
-698.499	436.097	-0.039	-0.086
-697.485	-138.796	-0.276	-0.030
-696.470	44.341	-0.132	-0.123
-695.456	81.189	-0.148	0.162
-694.441	-150.184	-0.218	-0.017
-693.426	800.000	-0.034	-0.125
-692.412	-105.412	-0.230	0.053
-691.397	800.000	0.086	0.268
-690.383	-83.248	0.333	0.108
-689.368	386.076	0.095	-0.198
-688.354	168.833	0.110	-0.158
-687.339	-70.451	-0.179	-0.069
-686.324	197.153	-0.113	-0.175
-685.310	248.951	0.097	-0.167
-684.295	84.831	0.252	-0.280
-683.281	-69.853	-0.259	0.100
-682.266	-38.589	-0.298	-0.159
-681.251	-0.447	0.101	-0.073
-680.237	-3.668	0.067	-0.047
-679.222	-105.530	-0.058	-0.013
-678.208	-132.415	0.311	-0.041
-677.193	-182.681	-0.127	0.002
-676.178	76.039	0.124	-0.133
-675.164	-116.459	0.347	0.065
-674.149	-71.376	-0.051	-0.020
-673.135	33.179	-0.266	-0.234
-672.120	-96.946	-0.165	-0.044
-671.105	11.403	-0.093	-0.072
-670.091	-106.262	0.248	-0.056
-669.076	83.943	-0.061	0.067
-668.062	-171.582	-0.104	0.003
-667.047	-62.177	0.331	0.140
-666.032	-6.868	-0.227	0.156
-665.018	214.163	-0.129	-0.207
-664.003	205.650	0.128	0.201
-662.989	800.000	-0.076	0.246
-661.974	-98.244	0.193	0.050
-660.959	-200.000	-0.057	0.344
-659.945	-121.579	0.123	0.021
-658.930	-78.245	-0.258	-0.090
-657.916	58.951	-0.122	-0.121
-656.901	121.554	0.079	0.100
-655.886	277.131	0.015	0.028
-654.872	-200.000	0.006	-0.240
-653.857	565.260	0.116	-0.286
-652.843	-101.478	0.302	0.074
-651.828	-134.684	-0.036	0.004
-650.814	-92.867	0.280	0.079
-649.799	1.246	0.175	0.127
-648.784	403.775	-0.049	-0.104
-647.770	-25.618	0.161	0.096
-646.755	453.527	-0.051	-0.115
-645.741	-39.114	0.405	0.215
-644.726	11.198	0.121	0.094
-643.711	-159.763	-0.385	0.021
-642.697	-104.571	0.150	-0.035
-641.682	528.995	-0.126	-0.301
-640.668	141.462	0.123	0.164
-639.653	151.842	-0.182	0.251
-638.638	-109.581	-0.130	0.028
-637.624	-26.987	-0.159	0.094
-636.609	751.331	0.062	-0.169
-635.595	-200.000	-0.086	-0.398
-634.580	60.072	-0.210	-0.210
-633.565	-0.355	-0.090	-0.065
-632.551	-200.000	-0.040	-0.307
-631.536	-22.059	-0.341	-0.209
-630.522	-77.841	0.192	-0.067
-629.507	-152.981	0.082	-0.006
-628.492	-55.272	0.259	0.118
-627.478	-113.189	0.082	0.016
-626.463	144.436	-0.171	-0.231
-625.449	34.451	0.146	0.128
-624.434	172.124	-0.078	0.113
-623.419	800.000	-0.105	-0.299
-622.405	162.477	-0.257	-0.364
-621.390	462.299	0.199	-0.448
-620.376	-6.500	0.127	0.088
-619.361	800.000	-0.050	0.195
-618.346	53.163	0.203	-0.197
-617.332	800.000	-0.102	-0.292
-616.317	-45.353	-0.049	-0.025
-615.303	116.862	0.147	-0.182
-614.288	208.558	-0.122	-0.193
-613.273	-200.000	-0.077	-0.393
-612.259	92.090	-0.164	-0.186
-611.244	57.105	0.124	-0.122
-610.230	-31.433	0.124	0.070
-609.215	501.681	-0.025	0.059
-608.201	2.991	-0.198	-0.146
-607.186	93.129	0.148	-0.169
-606.171	-200.000	-0.012	0.256
-605.157	5.548	0.216	0.161
-604.142	800.000	-0.032	0.111
-603.128	150.973	-0.036	0.049
-602.113	252.141	0.165	-0.284
-601.098	-200.000	-0.022	0.117
-600.084	800.000	-0.035	0.106
-599.069	-49.800	0.391	0.188
-598.055	19.374	-0.204	0.165
-597.040	-40.071	0.139	-0.073
-596.025	31.316	-0.057	0.049
-595.011	365.180	-0.087	-0.177
-593.996	-200.000	-0.059	0.327
-592.982	110.016	-0.228	0.277
-591.967	145.170	-0.190	-0.257
-590.952	-117.991	0.276	-0.050
-589.938	-137.092	0.205	-0.024
-588.923	-184.306	-0.326	0.005
-587.909	-11.073	0.092	0.062
-586.894	-73.045	-0.095	-0.035
-585.879	800.000	-0.049	0.170
-584.865	462.819	0.104	0.233
-583.850	-66.887	-0.348	0.139
-582.836	-200.000	-0.248	-0.001
-581.821	-35.433	0.248	0.136
-580.806	-24.878	0.161	-0.096
-579.792	-37.773	0.168	-0.090
-578.777	800.000	0.122	-0.382
-577.763	-200.000	0.019	0.093
-576.748	501.270	0.132	0.307
-575.733	248.189	0.147	-0.251
-574.719	278.540	-0.132	0.238
-573.704	351.128	0.160	-0.320
-572.690	356.309	-0.178	0.357
-571.675	483.778	0.117	0.269
-570.661	800.000	-0.033	0.114
-569.646	-63.517	0.330	-0.136
-568.631	-20.207	0.067	-0.042
-567.617	-5.007	0.102	-0.071
-566.602	788.206	-0.085	0.236
-565.588	-200.000	-0.033	0.244
-564.573	-200.000	-0.024	0.337
-563.558	-86.874	-0.242	0.075
-562.544	-161.900	-0.208	-0.011
-561.529	-121.299	0.197	0.033
-560.515	652.906	-0.032	0.083
-559.500	51.905	-0.161	0.154
-558.485	-126.447	-0.020	0.003
-557.471	-107.923	-0.285	0.063
-556.456	-159.117	-0.296	-0.017
-555.442	53.089	0.205	-0.197
-554.427	326.127	-0.125	-0.241
-553.412	-124.128	0.022	0.004
-552.398	22.293	-0.288	0.237
-551.383	419.761	-0.084	0.182
-550.369	329.759	0.163	0.316
-549.354	800.000	-0.038	0.119
-548.339	-200.000	0.016	-0.178
-547.325	-163.231	0.194	-0.009
-546.310	-180.814	-0.388	0.008
-545.296	86.746	0.140	0.156
-544.281	800.000	-0.082	-0.287
-543.266	-6.614	-0.089	-0.061
-542.252	-125.843	0.357	-0.054
-541.237	127.837	-0.084	0.107
-540.223	-200.000	-0.029	-0.279
-539.208	376.127	0.034	0.069
-538.193	-200.000	0.028	0.186
-537.179	-99.585	0.152	-0.038
-536.164	800.000	-0.093	0.297
-535.150	-154.932	0.117	-0.008
-534.135	75.857	0.102	-0.109
-533.121	800.000	0.041	-0.133
-532.106	130.800	-0.098	0.127
-531.091	-13.224	-0.135	0.088
-530.077	800.000	0.082	0.254
-529.062	-196.476	-0.093	-0.001
-528.048	332.379	-0.086	-0.168
-527.033	72.378	-0.086	-0.091
-526.018	462.097	-0.193	0.434
-525.004	343.941	-0.121	0.239
-523.989	-147.128	0.111	-0.010
-522.975	-79.302	0.274	0.094
-521.960	800.000	-0.125	-0.383
-520.945	32.773	0.178	-0.155
-519.931	-3.106	-0.195	0.137
-518.916	-92.069	-0.347	-0.099
-517.902	-200.000	0.031	-0.253
-516.887	800.000	0.059	0.252
-515.872	56.207	-0.131	-0.128
-514.858	-154.316	0.158	-0.011
-513.843	-26.053	0.103	0.061
-512.829	-153.936	0.277	-0.019
-511.814	-200.000	0.014	0.369
-510.799	-27.764	-0.393	0.229
-509.785	187.162	0.113	0.170
-508.770	-63.748	-0.051	-0.021
-507.756	-157.428	0.126	0.008
-506.741	46.033	0.201	0.187
-505.726	345.343	-0.060	0.119
-504.712	-87.130	0.346	0.106
-503.697	228.556	-0.099	-0.163
-502.683	252.135	0.146	-0.251
-501.668	-200.000	0.072	0.410
-500.653	10.189	0.206	-0.157
-499.639	800.000	-0.034	-0.114
-498.624	-101.416	-0.197	0.048
-497.610	-200.000	0.009	0.127
-496.595	701.333	-0.220	0.582
-495.581	-132.691	0.464	-0.060
-494.566	-123.658	-0.177	0.028
-493.551	68.815	0.229	0.236
-492.537	628.311	0.037	-0.093
-491.522	-200.000	0.007	-0.237
-490.508	345.163	-0.070	-0.138
-489.493	800.000	-0.050	-0.181
-488.478	400.715	0.042	-0.089
-487.464	-97.754	-0.399	-0.104
-486.449	800.000	-0.096	-0.378
-485.435	-62.690	-0.269	-0.112
-484.420	-200.000	0.050	-0.252
-483.405	37.204	0.012	0.010
-482.391	800.000	0.035	0.125
-481.376	165.427	0.162	0.230
-480.362	-137.536	0.169	-0.019
-479.347	78.694	-0.193	0.208
-478.332	-87.652	0.264	-0.080
-477.318	104.198	-0.350	-0.414
-476.303	-144.410	0.155	0.014
-475.289	-45.522	-0.142	-0.071
-474.274	-200.000	0.021	0.262
-473.259	800.000	-0.050	-0.144
-472.245	23.570	-0.202	-0.167
-471.230	800.000	0.030	-0.097
-470.216	-14.043	0.137	0.089
-469.201	-200.000	0.020	-0.244
-468.186	80.831	-0.088	-0.096
-467.172	800.000	-0.116	-0.404
-466.157	-17.328	0.133	0.084
-465.143	74.428	-0.015	-0.016
-464.128	31.626	0.016	-0.014
-463.113	-62.132	-0.069	0.029
-462.099	421.044	-0.267	-0.574
-461.084	264.470	0.074	-0.129
-460.070	-200.000	-0.006	-0.157
-459.055	330.345	0.126	-0.243
-458.040	-0.028	0.280	0.200
-457.026	433.477	-0.099	0.215
-456.011	17.856	-0.138	0.110
-454.997	735.044	0.059	0.159
-453.982	-41.517	0.152	0.079
-452.968	75.986	-0.171	0.181
-451.953	-200.000	0.019	-0.237
-450.938	-165.196	-0.222	0.010
-449.924	-165.682	-0.139	0.006
-448.909	292.842	-0.100	-0.183
-447.895	363.503	-0.154	0.311
-446.880	283.392	-0.059	0.107
-445.865	-10.346	-0.103	-0.069
-444.851	-189.847	0.397	-0.005
-443.836	-200.000	0.031	0.196
-442.822	-67.694	0.416	-0.163
-441.807	237.407	0.075	0.125
-440.792	-81.461	0.152	-0.050
-439.778	192.561	-0.151	-0.229
-438.763	-200.000	0.017	-0.117
-437.749	439.495	-0.072	0.157
-436.734	-153.997	0.260	-0.018
-435.719	-11.311	-0.173	-0.114
-434.705	-200.000	0.025	0.320
-433.690	-166.026	-0.561	0.024
-432.676	-158.778	0.265	0.015
-431.661	-147.697	-0.282	-0.024
-430.646	282.275	-0.004	0.008
-429.632	-200.000	0.036	0.230
-428.617	-76.019	0.221	-0.078
-427.603	220.624	0.030	-0.047
-426.588	-83.414	0.344	0.110
-425.573	5.476	0.206	-0.152
-424.559	-52.735	0.432	0.200
-423.544	-7.932	-0.274	-0.185
-422.530	427.065	-0.043	-0.093
-421.515	-94.571	0.076	-0.021
-420.500	-36.304	-0.125	0.068
-419.486	-7.033	0.081	-0.055
-418.471	-200.000	-0.056	-0.278
-417.457	-107.439	0.239	0.052
-416.442	800.000	-0.035	0.097
-415.428	-54.009	-0.442	0.202
-414.413	-200.000	-0.022	-0.280
-413.398	-77.473	-0.112	0.039
-412.384	-102.956	0.479	-0.114
-411.369	-200.000	-0.036	-0.197
-410.355	-48.866	0.213	-0.102
-409.340	800.000	0.056	0.218
-408.325	-73.416	0.038	0.014
-407.311	-131.264	0.098	-0.013
-406.296	65.285	0.163	0.165
-405.282	-86.557	0.095	-0.029
-404.267	85.908	-0.294	-0.324
-403.252	123.100	-0.098	0.123
-402.238	-104.630	0.115	-0.027
-401.223	246.074	-0.021	-0.035
-400.209	288.538	0.140	-0.254
-399.194	119.514	-0.111	-0.138
-398.179	-43.867	0.149	0.075
-397.165	130.586	-0.087	-0.112
-396.150	-71.630	0.168	0.063
-395.136	84.519	0.066	0.072
-394.121	-30.869	-0.304	-0.172
-393.106	800.000	-0.033	-0.144
-392.092	-80.334	0.499	-0.167
-391.077	-114.161	-0.160	0.031
-390.063	-98.240	0.383	0.099
-389.048	-24.014	0.103	-0.061
-388.033	-130.723	-0.295	0.040
-387.019	271.585	0.024	0.042
-386.004	78.782	-0.079	0.085
-384.990	156.531	-0.097	0.134
-383.975	32.523	-0.120	0.104
-382.960	-53.009	0.251	-0.116
-381.946	800.000	-0.017	0.062
-380.931	-87.333	0.330	-0.100
-379.917	711.912	-0.065	0.171
-378.902	-137.039	-0.240	-0.027
-377.888	-179.172	-0.176	-0.004
-376.873	142.311	0.207	-0.275
-375.858	-103.875	0.144	-0.034
-374.844	24.058	-0.148	-0.122
-373.829	-57.702	-0.268	0.117
-372.815	-200.000	0.024	0.322
-371.800	-78.183	-0.200	0.069
-370.785	-19.850	-0.127	-0.078
-369.771	-200.000	0.032	-0.377
-368.756	-7.046	-0.129	-0.087
-367.742	-60.838	-0.249	0.106
-366.727	-77.227	-0.073	-0.026
-365.712	72.720	0.174	-0.181
-364.698	-200.000	0.006	0.133
-363.683	669.117	-0.040	0.103
-362.669	195.660	-0.190	-0.288
-361.654	-200.000	-0.064	0.377
-360.639	-200.000	0.027	0.258
-359.625	33.274	0.165	0.143
-358.610	-85.426	0.193	0.060
-357.596	-200.000	0.030	0.320
-356.581	237.308	-0.113	0.188
-355.566	-31.089	-0.052	-0.030
-354.552	142.146	0.129	-0.171
-353.537	-200.000	0.009	0.353
-352.523	308.795	-0.091	-0.169
-351.508	22.783	-0.128	-0.105
-350.493	-200.000	0.061	0.280
-349.479	74.520	0.117	-0.123
-348.464	800.000	-0.107	0.323
-347.450	-49.936	-0.220	0.104
-346.435	798.073	0.084	0.230
-345.420	31.884	0.163	0.140
-344.406	-200.000	-0.022	0.112
-343.391	-96.321	-0.237	-0.063
-342.377	73.392	0.031	0.032
-341.362	800.000	-0.079	0.231
-340.348	-200.000	-0.054	0.341
-339.333	-110.989	-0.196	-0.040
-338.318	208.527	0.132	0.206
-337.304	308.287	0.140	0.261
-336.289	-2.732	-0.298	0.208
-335.275	-180.170	-0.067	-0.001
-334.260	186.475	-0.096	-0.142
-333.245	-40.880	0.370	-0.191
-332.231	-124.926	-0.244	-0.038
-331.216	112.263	-0.143	0.173
-330.202	-170.117	0.185	-0.007
-329.187	568.933	0.120	-0.291
-328.172	-200.000	0.029	-0.169
-327.158	634.058	-0.176	0.446
-326.143	19.154	0.220	0.177
-325.129	103.418	-0.051	0.060
-324.114	800.000	0.021	-0.063
-323.099	800.000	-0.067	0.264
-322.085	800.000	0.079	0.337
-321.070	-31.338	0.144	-0.081
-320.056	-108.910	-0.269	-0.057
-319.041	-22.122	-0.217	-0.132
-318.026	236.465	0.114	-0.189
-317.012	-159.805	-0.261	-0.014
-315.997	-200.000	-0.020	-0.330
-314.983	-107.848	-0.208	0.045
-313.968	228.602	-0.057	0.092
-312.953	157.724	-0.195	-0.270
-311.939	-126.778	0.111	-0.016
-310.924	-49.538	-0.174	0.083
-309.910	23.250	0.244	0.200
-308.895	119.636	-0.103	0.128
-307.880	-132.934	0.474	0.060
-306.866	419.209	0.088	-0.188
-305.851	325.321	-0.173	-0.330
-304.837	76.732	-0.220	0.233
-303.822	8.035	0.090	0.068
-302.807	322.977	-0.092	-0.175
-301.793	-40.791	0.086	0.045
-300.778	-110.510	0.106	-0.022
-299.764	800.000	-0.068	0.283
-298.749	-200.000	-0.023	0.128
-297.735	591.544	-0.109	-0.268
-296.720	-113.980	-0.273	-0.053
-295.705	-136.393	-0.055	-0.006
-294.691	-200.000	-0.015	0.235
-293.676	800.000	0.098	0.321
-292.662	-121.289	-0.232	-0.039
-291.647	22.869	0.189	-0.155
-290.632	-200.000	-0.032	0.196
-289.618	87.426	-0.166	-0.183
-288.603	-11.569	-0.220	0.144
-287.589	92.909	-0.203	-0.228
-286.574	341.313	0.057	-0.111
-285.559	147.539	-0.102	0.138
-284.545	0.198	0.202	0.143
-283.530	-25.784	0.319	-0.187
-282.516	-200.000	-0.060	0.441
-281.501	800.000	0.014	0.051
-280.486	-136.823	-0.290	-0.033
-279.472	-200.000	-0.034	-0.191
-278.457	-85.035	-0.097	-0.030
-277.443	23.577	0.247	0.203
-276.428	-39.873	-0.150	-0.078
-275.413	16.300	0.191	0.150
-274.399	-200.000	0.045	0.203
-273.384	-57.937	-0.087	0.038
-272.370	-27.210	-0.180	-0.104
-271.355	580.554	-0.074	0.181
-270.340	-19.104	-0.166	-0.103
-269.326	-200.000	-0.038	-0.352
-268.311	163.907	-0.047	-0.065
-267.297	-27.520	0.116	-0.067
-266.282	-200.000	-0.036	-0.193
-265.267	-147.666	-0.180	0.015
-264.253	-112.682	-0.149	-0.029
-263.238	-36.990	-0.207	0.111
-262.224	442.104	0.139	0.304
-261.209	159.032	0.030	-0.042
-260.195	89.994	0.142	0.158
-259.180	67.480	0.102	0.104
-258.165	177.823	-0.155	0.225
-257.151	477.866	0.067	-0.150
-256.136	60.034	-0.086	0.085
-255.122	253.424	-0.105	-0.179
-254.107	-15.288	-0.138	-0.088
-253.092	-194.207	-0.269	0.002
-252.078	-17.856	-0.222	0.139
-251.063	347.993	0.111	-0.217
-250.049	-140.112	0.240	-0.025
-249.034	92.187	-0.232	-0.261
-248.019	-37.266	-0.258	-0.138
-247.005	325.312	0.048	-0.091
-245.990	-200.000	0.047	-0.381
-244.976	800.000	-0.017	0.051
-243.961	-200.000	-0.056	0.331
-242.946	49.577	-0.278	-0.260
-241.932	179.756	0.112	-0.164
-240.917	-34.988	0.073	-0.040
-239.903	98.509	0.074	0.085
-238.888	-151.542	0.115	-0.008
-237.873	-200.000	-0.010	0.266
-236.859	147.495	0.076	0.101
-235.844	-29.688	0.282	-0.160
-234.830	-200.000	0.015	0.107
-233.815	-98.876	0.062	0.016
-232.800	-187.322	0.124	-0.002
-231.786	-48.124	0.123	0.059
-230.771	201.894	-0.112	0.172
-229.757	-200.000	0.010	0.067
-228.742	761.343	-0.080	0.216
-227.727	6.604	0.209	-0.155
-226.713	-23.677	-0.200	0.119
-225.698	139.164	-0.107	-0.140
-224.684	-135.313	-0.177	-0.021
-223.669	-166.710	0.355	-0.015
-222.655	241.662	-0.110	-0.183
-221.640	95.057	0.125	0.141
-220.625	-38.411	0.123	0.064
-219.611	-116.973	0.212	-0.038
-218.596	68.273	0.180	0.184
-217.582	65.476	0.216	-0.217
-216.567	-200.000	0.015	0.109
-215.552	521.813	0.116	-0.270
-214.538	346.421	0.126	0.246
-213.523	-115.872	0.245	-0.045
-212.509	64.091	0.121	-0.121
-211.494	137.832	-0.146	-0.190
-210.479	5.912	-0.211	0.155
-209.465	-169.315	0.051	-0.002
-208.450	340.499	-0.039	0.076
-207.436	800.000	0.020	-0.072
-206.421	539.336	0.141	0.334
-205.406	153.323	0.061	-0.084
-204.392	800.000	-0.046	-0.161
-203.377	-85.297	0.136	0.042
-202.363	-174.427	0.528	0.015
-201.348	76.779	0.096	-0.101
-200.333	36.808	-0.164	-0.144
-199.319	800.000	0.105	-0.314
-198.304	-200.000	-0.114	0.669
-197.290	498.661	-0.080	0.182
-196.275	121.767	-0.205	0.254
-195.260	-117.451	0.175	0.032
-194.246	17.069	-0.339	-0.267
-193.231	-11.502	0.314	0.205
-192.217	-69.638	0.254	-0.096
-191.202	-200.000	0.015	-0.157
-190.187	14.874	0.185	0.144
-189.173	673.934	-0.055	-0.142
-188.158	288.594	0.151	-0.272
-187.144	257.411	-0.085	0.145
-186.129	-125.240	-0.132	0.020
-185.114	-200.000	-0.016	-0.094
-184.100	84.827	0.107	0.117
-183.085	38.493	-0.079	0.070
-182.071	571.445	0.027	-0.066
-181.056	385.012	0.158	-0.323
-180.042	-95.603	0.230	-0.061
-179.027	-200.000	-0.037	-0.180
-178.012	201.271	0.157	-0.239
-176.998	800.000	0.049	0.173
-175.983	172.883	0.117	-0.168
-174.969	-26.018	0.208	-0.122
-173.954	-200.000	-0.034	0.340
-172.939	30.708	-0.353	0.300
-171.925	800.000	-0.085	-0.321
-170.910	-64.444	-0.163	0.066
-169.896	315.906	0.133	-0.249
-168.881	289.356	0.093	-0.168
-167.866	800.000	-0.040	-0.124
-166.852	-96.925	0.411	-0.107
-165.837	-200.000	-0.059	-0.293
-164.823	-43.889	0.112	0.056
-163.808	-64.197	-0.230	-0.093
-162.793	-200.000	0.047	-0.454
-161.779	-44.445	-0.070	-0.035
-160.764	-91.682	0.354	0.100
-159.750	227.489	0.067	-0.108
-158.735	-157.238	-0.433	0.026
-157.720	-124.009	0.364	0.057
-156.706	800.000	-0.040	0.128
-155.691	800.000	-0.066	0.180
-154.677	-161.887	-0.300	0.015
-153.662	-104.474	-0.315	0.072
-152.647	83.232	0.361	-0.390
-151.633	17.244	-0.063	0.049
-150.618	204.361	0.140	0.216
-149.604	106.443	0.182	0.214
-148.589	95.795	0.186	0.210
-147.574	-16.397	-0.089	-0.056
-146.560	-61.168	-0.126	-0.053
-145.545	191.088	0.091	-0.135
-144.531	249.454	0.067	0.112
-143.516	459.067	0.098	-0.216
-142.502	800.000	0.033	0.116
-141.487	-19.570	0.170	0.105
-140.472	81.895	-0.134	-0.144
-139.458	-99.929	0.340	-0.084
-138.443	52.057	0.122	0.115
-137.429	-114.869	-0.316	0.060
-136.414	800.000	-0.077	0.239
-135.399	548.859	0.158	-0.374
-134.385	229.723	-0.198	0.320
-133.370	-85.515	0.235	-0.073
-132.356	7.223	0.205	-0.152
-131.341	172.682	-0.168	0.239
-130.326	-200.000	0.023	-0.178
-129.312	-200.000	0.021	-0.196
-128.297	152.331	0.025	-0.033
-127.283	-103.852	0.198	0.046
-126.268	-14.308	0.110	0.070
-125.253	118.835	-0.073	-0.089
-124.239	83.567	-0.025	0.028
-123.224	434.041	-0.105	0.225
-122.210	800.000	-0.030	0.102
-121.195	-200.000	-0.019	0.159
-120.180	-125.946	-0.280	-0.042
-119.166	11.610	0.195	0.148
-118.151	-110.007	0.083	-0.017
-117.137	83.682	0.097	0.105
-116.122	128.159	-0.175	-0.221
-115.107	-27.299	0.204	0.117
-114.093	-200.000	0.048	0.443
-113.078	34.681	-0.108	-0.093
-112.064	-125.225	0.242	-0.037
-111.049	11.827	0.058	-0.044
-110.034	49.628	-0.170	-0.158
-109.020	-119.583	0.278	0.048
-108.005	-20.951	0.252	0.153
-106.991	800.000	0.041	-0.166
-105.976	-200.000	-0.009	0.204
-104.962	172.789	-0.177	0.253
-103.947	-200.000	0.068	0.350
-102.932	800.000	0.102	-0.375
-101.918	800.000	-0.035	-0.125
-100.903	-117.022	0.295	0.053
-99.889	800.000	-0.104	-0.330
-98.874	293.800	0.074	0.133
-97.859	432.487	-0.060	0.128
-96.845	800.000	0.023	0.065
-95.830	800.000	0.089	0.379
-94.816	46.634	0.204	-0.187
-93.801	-100.895	-0.190	-0.046
-92.786	-30.850	-0.187	-0.105
-91.772	-200.000	0.029	0.196
-90.757	-122.652	0.199	0.032
-89.743	352.390	-0.038	0.075
-88.728	800.000	0.074	0.300
-87.713	-99.170	0.138	-0.035
-86.699	27.118	-0.248	-0.206
-85.684	-18.408	-0.110	0.068
-84.670	-91.257	0.392	0.111
-83.655	-50.495	0.383	-0.179
-82.640	800.000	-0.041	0.121
-81.626	189.623	0.030	-0.044
-80.611	62.764	0.061	0.060
-79.597	-137.555	0.267	-0.030
-78.582	299.304	0.039	-0.071
-77.567	81.736	0.146	-0.156
-76.553	-200.000	0.003	-0.024
-75.538	84.964	-0.267	0.289
-74.524	361.948	0.095	0.188
-73.509	-86.407	-0.022	0.007
-72.494	15.760	-0.133	0.104
-71.480	-200.000	-0.005	-0.142
-70.465	-143.074	0.303	-0.029
-69.451	-117.644	0.077	0.014
-68.436	106.963	-0.200	0.235
-67.422	455.088	-0.013	-0.029
-66.407	-187.823	-0.215	0.003
-65.392	80.259	0.073	-0.077
-64.378	800.000	-0.032	0.090
-63.363	-78.446	0.115	0.039
-62.349	-131.363	0.208	-0.027
-61.334	20.209	-1.234	-0.984
-60.319	-200.000	0.100	0.572
-59.305	-200.000	0.137	-1.008
-58.290	219.489	0.582	0.920
-57.276	275.984	0.822	1.442
-56.261	-200.000	99.224	580.853
-55.246	606.936	1413.388	3481.738
-54.232	181.257	2644.385	3841.096
-53.217	118.274	2221.525	2706.780
-52.203	44.317	1749.320	1586.334
-51.188	36.897	1559.828	1362.505
-50.173	34.497	1532.193	1321.709
-49.159	53.380	1584.767	1500.652
-48.144	56.716	1602.531	1540.912
-47.130	37.321	1556.720	1362.551
-46.115	33.998	1541.625	1326.149
-45.100	33.757	1538.543	1321.767
-44.086	33.723	1536.545	1319.767
-43.071	33.544	1535.102	1317.231
-42.057	33.666	1533.263	1316.447
-41.042	33.716	1531.599	1315.315
-40.027	33.732	1530.728	1314.624
-39.013	33.698	1528.803	1312.679
-37.998	33.649	1527.581	1311.240
-36.984	33.689	1526.806	1310.803
-35.969	33.620	1525.487	1309.144
-34.954	33.698	1523.552	1307.967
-33.940	33.738	1522.165	1307.001
-32.925	33.653	1520.849	1305.230
-31.911	33.702	1519.925	1304.723
-30.896	33.688	1518.814	1303.621
-29.881	33.706	1517.424	1302.500
-28.867	33.729	1515.530	1300.980
-27.852	33.773	1514.022	1299.937
-26.838	33.769	1512.483	1298.536
-25.823	33.679	1511.147	1296.725
-24.809	33.754	1509.211	1295.520
-23.794	33.656	1508.284	1294.006
-22.779	33.771	1507.064	1293.689
-21.765	33.746	1505.714	1292.314
-20.750	33.802	1504.112	1291.263
-19.736	33.735	1503.890	1290.572
-18.721	33.691	1502.462	1288.990
-17.706	33.699	1501.683	1288.329
-16.692	33.744	1500.122	1287.245
-15.677	33.650	1499.312	1285.862
-14.663	33.682	1498.311	1285.167
-13.648	33.602	1496.918	1283.376
-12.633	33.708	1495.904	1283.176
-11.619	33.653	1495.272	1282.213
-10.604	33.662	1494.601	1281.643
-9.590	33.656	1493.835	1280.899
-8.575	33.764	1492.399	1280.344
-7.560	33.662	1491.952	1279.219
-6.546	33.567	1491.389	1278.050
-5.531	33.611	1490.165	1277.242
-4.517	33.552	1489.150	1275.927
-3.502	33.660	1487.765	1275.414
-2.487	33.713	1487.069	1275.124
-1.473	33.703	1486.135	1274.206
-0.458	33.699	1484.661	1272.863
0.556	32.050	1475.127	1263.485
1.571	29.602	1449.152	1224.917
2.586	26.571	1388.162	1153.972
3.600	25.110	1306.493	1077.216
4.615	23.617	1260.518	1030.552
5.629	19.332	1200.931	957.993
6.644	8.833	1111.271	832.133
7.659	1.249	1067.653	761.447
8.673	0.276	1062.172	752.614
9.688	0.242	1058.969	750.111
10.702	-0.014	1057.707	747.876
11.717	-0.014	1055.609	746.329
12.731	3.474	1059.851	766.621
13.746	13.296	1074.178	826.204
14.761	20.428	1083.660	869.245
15.775	21.745	1084.791	876.666
16.790	21.882	1084.052	876.679
17.804	21.829	1083.097	875.561
18.819	21.618	1082.536	873.979
19.834	21.580	1082.117	873.375
20.848	21.889	1081.072	873.992
21.863	21.894	1081.134	873.989
22.877	21.818	1080.847	873.302
23.892	21.780	1079.972	872.330
24.907	21.738	1078.999	871.257
25.921	21.758	1077.966	870.444
26.936	21.823	1077.350	870.194
27.950	21.718	1076.532	868.936
28.965	21.799	1075.038	868.055
29.980	21.513	1074.061	865.775
30.994	21.702	1071.960	864.935
32.009	21.811	1071.458	864.991
33.023	21.864	1070.818	864.660
34.038	21.767	1069.746	863.243
35.053	21.676	1068.537	861.740
36.067	21.807	1068.169	862.013
37.082	21.728	1067.635	861.114
38.096	21.938	1066.870	861.456
39.111	22.044	1065.778	861.015
40.126	22.114	1065.527	861.083
41.140	22.038	1064.139	859.510
42.155	21.799	1062.088	856.611
43.169	21.369	1061.197	853.719
44.184	21.387	1060.120	852.863
45.199	21.514	1058.829	852.369
46.213	21.362	1057.883	850.791
47.228	21.373	1057.251	850.258
48.242	21.589	1056.180	850.374
49.257	21.677	1055.603	850.260
50.271	21.750	1054.647	849.771
51.286	21.801	1053.926	849.362
52.301	21.780	1053.608	848.927
53.315	21.791	1052.955	848.381
54.330	21.955	1051.600	848.006
55.344	21.704	1050.943	846.188
56.359	21.769	1049.746	845.461
57.374	21.736	1049.069	844.685
58.388	21.664	1048.009	843.410
59.403	21.495	1047.338	841.982
60.417	21.568	1046.663	841.714
61.432	21.284	1046.029	839.764
62.447	21.431	1045.033	839.599
63.461	21.591	1044.187	839.613
64.476	21.750	1043.231	839.531
65.490	21.633	1042.383	838.213
66.505	21.510	1041.253	836.643
67.520	21.527	1040.453	836.005
68.534	21.617	1039.781	835.821
69.549	21.549	1038.652	834.517
70.563	21.192	1037.241	831.606
71.578	21.116	1036.766	830.794
72.593	21.052	1036.115	829.891
73.607	20.981	1034.962	828.557
74.622	20.948	1034.056	827.601
75.636	21.308	1033.172	828.529
76.651	21.399	1032.777	828.570
77.666	21.346	1031.352	827.105
78.680	21.245	1030.734	826.056
79.695	21.385	1029.561	825.703
80.709	21.278	1029.564	825.131
81.724	21.367	1028.651	824.744
82.739	21.529	1027.424	824.453
83.753	21.402	1026.582	823.107
84.768	21.842	1025.693	824.386
85.782	21.822	1025.968	824.440
86.797	22.172	1024.776	825.056
87.812	22.178	1023.834	824.249
88.826	21.866	1022.963	822.014
89.841	21.953	1022.441	821.931
90.855	22.052	1021.338	821.432
91.870	21.988	1020.508	820.394
92.884	22.027	1019.568	819.747
93.899	21.878	1018.722	818.302
94.914	21.940	1017.776	817.757
95.928	21.968	1017.358	817.477
96.943	21.972	1016.503	816.737
97.957	21.601	1015.353	814.018
98.972	21.335	1014.180	811.771
99.987	21.286	1013.060	810.575
101.001	21.367	1012.635	810.536
102.016	21.599	1012.332	811.297
103.030	21.688	1010.962	810.542
104.045	21.600	1009.939	809.245
105.060	21.558	1008.412	807.754
106.074	21.487	1006.966	806.199
107.089	21.397	1006.780	805.564
108.103	21.733	1006.562	806.864
109.118	21.851	1005.566	806.535
110.133	21.591	1003.985	804.002
111.147	21.594	1003.318	803.411
112.162	21.355	1002.130	801.293
113.176	21.192	1001.104	799.656
114.191	21.382	999.863	799.463
115.206	21.492	999.444	799.560
116.220	21.166	997.847	796.724
117.235	21.031	996.906	795.289
118.249	21.284	996.141	795.760
119.264	21.296	995.205	794.995
120.279	21.190	994.389	793.792
121.293	21.215	993.553	793.169
122.308	21.361	993.009	793.323
123.322	21.293	992.055	792.184
124.337	21.178	991.088	790.820
125.352	21.226	989.636	789.810
126.366	20.651	988.212	786.008
127.381	20.377	986.728	783.521
128.395	20.902	986.636	785.746
129.410	21.558	986.199	788.283
130.424	21.763	985.139	788.289
131.439	21.812	984.169	787.666
132.454	21.586	983.573	786.100
133.468	21.700	982.522	785.702
134.483	21.690	981.469	784.748
135.497	21.540	981.350	783.910
136.512	21.860	980.183	784.342
137.527	21.981	979.531	784.289
138.541	21.963	978.788	783.547
139.556	21.869	978.220	782.602
140.570	21.953	977.075	781.991
141.585	21.950	976.309	781.297
142.600	21.967	975.684	780.804
143.614	22.001	974.395	779.854
144.629	22.009	973.593	779.177
145.643	22.236	973.401	779.961
146.658	22.055	972.136	778.076
147.673	21.978	970.312	776.206
148.687	21.768	969.907	774.886
149.702	21.779	969.020	774.160
150.716	21.660	967.554	772.394
151.731	21.559	966.553	771.082
152.746	21.756	966.088	771.510
153.760	21.950	965.274	771.646
154.775	21.957	964.938	771.341
155.789	22.179	963.437	771.043
156.804	22.032	962.565	769.633
157.819	22.006	961.778	768.822
158.833	22.036	960.849	768.145
159.848	22.153	960.487	768.299
160.862	22.218	959.516	767.739
161.877	21.991	958.489	765.857
162.892	21.975	957.371	764.825
163.906	22.123	956.807	764.952
164.921	22.054	955.741	763.731
165.935	21.998	954.535	762.457
166.950	22.023	953.497	761.671
167.964	22.076	952.547	761.073
168.979	22.028	951.670	760.097
169.994	21.993	950.417	758.878
171.008	21.800	949.642	757.357
172.023	22.006	948.539	757.299
173.037	22.022	948.114	756.963
174.052	21.919	946.864	755.454
175.067	21.829	945.576	753.972
176.081	21.679	944.920	752.739
177.096	21.851	944.008	752.685
178.110	21.862	943.214	752.034
179.125	21.627	942.006	749.997
180.140	21.378	940.602	747.749
181.154	21.330	940.281	747.220
182.169	21.401	940.045	747.270
183.183	21.801	939.701	748.637
184.198	22.030	939.476	749.371
185.213	21.906	938.381	747.904
186.227	21.821	937.974	747.151
187.242	21.917	937.658	747.241
188.256	22.183	936.578	747.447
189.271	22.047	935.755	746.147
190.286	22.123	935.126	745.898
191.300	21.951	933.888	744.117
192.315	21.449	933.041	741.248
193.329	20.952	931.047	737.498
194.344	20.613	929.619	734.869
195.359	20.930	930.488	736.830
196.373	21.704	931.130	740.546
197.388	21.974	930.622	741.220
198.402	21.947	929.427	740.086
199.417	21.885	929.007	739.424
200.432	22.063	928.564	739.758
201.446	21.787	928.014	738.092
202.461	21.518	927.436	736.434
203.475	21.553	926.803	736.014
204.490	21.083	924.884	732.452
205.504	19.974	922.882	726.154
206.519	20.415	923.132	728.137
207.534	21.398	923.541	732.515
208.548	21.558	922.659	732.420
209.563	21.899	922.414	733.588
210.577	21.931	921.889	733.239
211.592	21.582	920.944	730.963
212.607	21.980	920.634	732.315
213.621	22.180	920.127	732.681
214.636	22.151	919.172	731.736
215.650	22.239	918.904	731.823
216.665	22.043	918.126	730.322
217.680	21.970	918.087	729.925
218.694	22.094	917.535	729.936
219.709	21.732	916.527	727.569
220.723	21.403	915.144	725.039
221.738	21.683	914.484	725.615
222.753	21.873	914.063	726.003
223.767	21.998	913.442	725.961
224.782	21.833	912.978	724.847
225.796	22.115	912.002	725.171
226.811	22.246	911.943	725.602
227.826	21.887	910.213	722.683
228.840	21.170	908.499	718.308
229.855	20.960	908.165	717.118
230.869	21.231	907.879	717.942
231.884	20.875	907.128	715.819
232.899	20.898	906.647	715.472
233.913	21.729	906.391	718.616
234.928	21.887	906.135	718.998
235.942	21.821	905.775	718.378
236.957	21.769	904.819	717.345
237.972	21.550	903.652	715.458
238.986	21.502	903.022	714.701
240.001	21.636	902.562	714.822
241.015	21.546	902.016	713.957
242.030	21.670	900.867	713.490
243.045	21.886	900.441	713.970
244.059	21.871	900.090	713.566
245.074	22.139	899.584	714.193
246.088	22.013	898.564	712.809
247.103	21.532	898.068	710.400
248.117	21.603	897.355	710.061
249.132	22.216	897.102	712.283
250.147	22.483	897.092	713.293
251.161	22.476	896.541	712.764
252.176	22.810	895.854	713.502
253.190	22.798	895.373	713.010
254.205	22.768	895.232	712.711
255.220	22.902	894.553	712.651
256.234	22.918	893.462	711.782
257.249	22.914	892.731	711.120
258.263	22.736	892.425	710.096
259.278	22.678	891.752	709.264
260.293	22.880	891.242	709.608
261.307	22.800	891.027	709.055
262.322	22.786	890.056	708.162
263.336	22.530	889.267	706.445
264.351	22.078	887.964	703.538
265.366	21.016	885.982	697.658
266.380	20.748	884.929	695.699
267.395	21.553	885.085	698.975
268.409	22.338	885.528	702.399
269.424	22.396	884.640	701.862
270.439	22.469	884.543	702.012
271.453	22.513	884.098	701.774
272.468	22.511	883.325	701.089
273.482	22.762	882.442	701.323
274.497	22.980	882.099	701.858
275.512	22.613	881.244	699.658
276.526	22.032	879.820	696.162
277.541	22.160	879.494	696.349
278.555	22.638	879.457	698.154
279.570	22.484	878.359	696.610
280.585	22.314	877.563	695.247
281.599	22.301	877.307	694.929
282.614	22.426	876.824	694.978
283.628	22.197	875.268	692.781
284.643	21.851	874.754	690.953
285.657	22.162	874.683	692.057
286.672	22.028	873.708	690.697
287.687	21.436	872.777	687.574
288.701	21.874	872.750	689.215
289.716	22.403	872.089	690.707
290.730	21.826	871.833	688.180
291.745	21.832	870.736	687.278
292.760	21.732	869.670	685.982
293.774	21.561	869.228	684.906
294.789	22.601	869.243	688.922
295.803	23.143	869.820	691.438
296.818	23.083	869.475	690.866
297.833	23.168	868.853	690.643
298.847	23.033	867.508	688.990
299.862	22.601	866.843	686.716
300.876	22.809	866.044	686.833
301.891	23.060	865.579	687.379
302.906	22.998	865.522	687.033
303.920	22.644	864.033	684.415
304.935	22.664	862.984	683.600
305.949	22.999	862.853	684.736
306.964	23.119	862.532	684.883
307.979	22.870	862.004	683.440
308.993	22.789	861.490	682.658
310.008	23.102	861.401	683.738
311.022	23.289	860.722	683.863
312.037	23.143	859.972	682.640
313.052	22.764	859.899	681.061
314.066	22.558	858.881	679.401
315.081	22.147	857.187	676.418
316.095	21.391	855.822	672.375
317.110	21.918	856.503	674.877
318.125	22.690	856.811	678.029
319.139	22.507	855.172	675.973
320.154	21.287	853.670	670.049
321.168	20.782	852.297	666.977
322.183	21.612	852.482	670.242
323.197	22.291	853.411	673.512
324.212	22.543	853.155	674.216
325.227	22.858	852.392	674.757
326.241	23.040	852.355	675.365
327.256	22.810	851.535	673.778
328.270	22.812	850.770	673.119
329.285	22.674	850.285	672.151
330.300	22.608	849.252	671.021
331.314	22.204	848.919	669.162
332.329	22.333	847.968	668.843
333.343	22.709	847.560	669.893
334.358	23.103	847.001	670.886
335.373	22.944	846.700	669.983
336.387	23.118	846.070	670.087
337.402	23.315	845.963	670.689
338.416	23.468	845.613	670.931
339.431	23.387	844.837	669.948
340.446	23.416	844.293	669.567
341.460	23.503	843.956	669.572
342.475	23.401	843.429	668.709
343.489	23.355	842.459	667.707
344.504	23.237	842.280	667.059
345.519	23.535	842.019	667.918
346.533	23.756	841.553	668.320
347.548	23.680	840.808	667.385
348.562	23.859	840.512	667.761
349.577	23.828	839.961	667.148
350.592	23.783	838.937	666.108
351.606	23.647	839.057	665.635
352.621	23.679	838.218	665.028
353.635	23.643	837.531	664.292
354.650	23.584	836.564	663.243
355.665	23.112	836.235	661.161
356.679	22.124	834.425	655.984
357.694	22.081	834.019	655.446
358.708	22.757	833.950	657.855
359.723	22.661	833.526	657.105
360.738	22.877	833.256	657.638
361.752	23.435	833.019	659.470
362.767	23.456	832.364	658.972
363.781	23.751	832.461	660.087
364.796	24.013	832.318	660.887
365.810	23.962	831.805	660.231
366.825	24.098	831.434	660.384
367.840	24.006	831.344	659.912
368.854	23.892	830.272	658.581
369.869	23.615	829.291	656.722
370.883	23.320	829.058	655.386
371.898	23.482	828.292	655.320
372.913	23.457	827.348	654.425
373.927	23.362	827.087	653.810
374.942	23.522	826.494	653.875
375.956	23.657	825.691	653.678
376.971	23.807	825.121	653.721
377.986	24.017	824.569	653.997
379.000	24.057	824.624	654.131
380.015	24.047	823.797	653.380
381.029	23.900	823.022	652.165
382.044	23.926	822.719	651.963
383.059	24.066	822.134	651.957
384.073	23.933	821.793	651.142
385.088	23.975	821.474	650.982
386.102	24.106	820.395	650.552
387.117	23.978	819.644	649.428
388.132	23.893	818.886	648.462
389.146	23.745	818.381	647.465
390.161	23.132	817.385	644.389
391.175	23.167	817.472	644.526
392.190	23.559	817.728	646.099
393.205	23.900	816.559	646.358
394.219	22.711	815.386	641.056
395.234	21.305	812.942	633.979
396.248	20.436	811.950	630.000
397.263	21.537	812.634	634.468
398.278	23.273	814.235	641.963
399.292	23.869	813.796	643.716
400.307	23.348	813.727	641.720
401.321	23.359	812.964	641.102
402.336	23.357	812.116	640.367
403.350	23.683	812.390	641.704
404.365	24.069	812.434	643.077
405.380	24.317	812.114	643.661
406.394	24.636	812.202	644.828
407.409	24.787	811.574	644.816
408.423	24.586	811.203	643.740
409.438	24.562	810.325	642.899
410.453	24.784	809.682	643.131
411.467	24.699	809.563	642.675
412.482	24.600	808.912	641.746
413.496	24.729	808.470	641.799
414.511	24.825	807.825	641.575
415.526	24.670	807.566	640.759
416.540	24.893	806.891	640.962
417.555	24.696	806.446	639.850
418.569	24.413	805.329	637.893
419.584	24.243	805.174	637.109
420.599	24.537	804.724	637.743
421.613	154.038	1365.685	1793.786
422.628	133.730	1447.425	1793.900
