DTS Sentinel unit serial number:	SN413079Multiplexer serial number:	ORYXHardware model number:	OX4-SRSoftware version number:	ORYX F/W v4.00 Oryx Data Collector v3.7.2.0data status	okinstallation	princeton_trtdifferential loss correction	single-endedforward channel	channel 3reverse channel	N/Adate	2019/09/18time	14:44:35forward acquisition time	60.00reverse acquisition time	0.00gamma	496.2192k internal	0.2306k external	0.2306temperature offset calibration	0.9975default loss term (dB/km)	0.3790temperature slope calibration	1.0000multiplexer offset coefficient	1.0000multiplexer slope coefficient	1.0000fibre end	0.00T internal ref (°C)	34.91T ext. ref 1 (°C)	0.70T ext. ref 2 (°C)	33.19length (m)	temperature (°C)	Stokes	anti-Stokes-747.200	184.442	0.160	0.241
-746.185	421.616	0.074	0.162
-745.171	-172.055	-0.128	0.004
-744.156	-4.866	0.204	0.143
-743.142	47.192	-0.024	-0.022
-742.127	800.000	-0.074	0.286
-741.112	-135.448	-0.161	-0.020
-740.098	48.574	0.061	-0.058
-739.083	-200.000	-0.011	-0.201
-738.069	-104.217	-0.290	0.069
-737.054	-161.309	0.153	0.008
-736.039	-94.672	-0.360	0.100
-735.025	-112.165	0.273	0.056
-734.010	-70.269	0.207	0.080
-732.996	800.000	-0.069	0.242
-731.981	548.394	-0.067	0.164
-730.966	112.708	-0.170	0.209
-729.952	-45.522	-0.330	-0.166
-728.937	-200.000	0.035	0.204
-727.923	-18.373	-0.154	-0.098
-726.908	10.851	-0.073	-0.056
-725.894	772.036	-0.061	-0.169
-724.879	608.106	-0.048	-0.122
-723.864	34.539	0.166	0.147
-722.850	-48.244	-0.197	0.097
-721.835	-184.473	-0.188	0.003
-720.821	424.860	-0.219	-0.480
-719.806	-104.128	-0.163	0.039
-718.791	6.599	-0.195	0.147
-717.777	-80.267	-0.264	0.090
-716.762	800.000	0.043	-0.158
-715.748	800.000	-0.051	-0.178
-714.733	-200.000	0.038	0.289
-713.718	140.378	-0.268	-0.359
-712.704	151.047	0.113	-0.156
-711.689	-200.000	-0.056	-0.253
-710.675	-92.622	-0.231	0.066
-709.660	20.978	-0.064	-0.053
-708.645	241.799	0.038	-0.065
-707.631	-200.000	0.018	0.176
-706.616	-62.172	0.128	0.054
-705.602	-63.168	-0.143	0.060
-704.587	-184.219	0.268	0.004
-703.572	126.956	-0.199	-0.257
-702.558	-4.722	0.093	0.065
-701.543	800.000	0.054	-0.202
-700.529	-111.627	0.220	0.045
-699.514	-104.921	-0.292	-0.068
-698.499	42.796	0.217	0.201
-697.485	-33.070	-0.023	-0.013
-696.470	125.378	-0.058	0.075
-695.456	128.998	-0.039	0.050
-694.441	-16.551	0.103	-0.066
-693.426	252.953	-0.164	-0.284
-692.412	-166.382	-0.238	0.010
-691.397	-112.172	0.156	0.032
-690.383	582.980	-0.062	0.154
-689.368	269.952	-0.087	0.156
-688.354	-200.000	0.012	0.289
-687.339	1.391	-0.362	0.264
-686.324	-145.136	-0.287	0.026
-685.310	21.986	-0.159	-0.132
-684.295	589.981	-0.106	0.266
-683.281	-0.644	0.202	0.145
-682.266	-145.301	0.161	-0.015
-681.251	72.094	-0.137	-0.145
-680.237	-200.000	-0.035	0.313
-679.222	-154.955	-0.262	0.018
-678.208	-200.000	-0.003	0.128
-677.193	-19.570	-0.151	-0.095
-676.178	-120.023	-0.134	-0.023
-675.164	126.691	0.079	-0.102
-674.149	-43.556	-0.119	-0.061
-673.135	800.000	-0.144	-0.434
-672.120	-200.000	0.023	0.249
-671.105	428.847	-0.087	0.191
-670.091	800.000	0.039	0.138
-669.076	800.000	-0.104	0.383
-668.062	-200.000	0.035	0.250
-667.047	37.590	0.427	0.384
-666.032	153.803	-0.085	-0.118
-665.018	-200.000	-0.011	0.222
-664.003	-200.000	-0.004	0.246
-662.989	-79.331	-0.192	-0.066
-661.974	22.684	-0.336	-0.279
-660.959	-200.000	-0.062	-0.315
-659.945	141.963	-0.131	0.176
-658.930	298.138	-0.031	-0.058
-657.916	-122.401	-0.293	-0.048
-656.901	382.096	-0.110	-0.229
-655.886	-189.234	-0.375	0.004
-654.872	-12.453	0.182	0.121
-653.857	-200.000	-0.053	0.292
-652.843	-12.609	-0.031	0.021
-651.828	-28.277	0.143	0.084
-650.814	-200.000	-0.024	-0.245
-649.799	-12.999	0.039	-0.026
-648.784	800.000	0.040	0.178
-647.770	-200.000	-0.019	-0.246
-646.755	-85.817	0.060	-0.019
-645.741	108.367	-0.231	-0.280
-644.726	-125.427	0.222	0.034
-643.711	130.635	0.116	0.150
-642.697	-200.000	-0.049	0.268
-641.682	-100.282	0.180	-0.045
-640.668	-110.181	0.083	0.018
-639.653	-68.892	-0.089	0.035
-638.638	-79.863	-0.210	0.072
-637.624	-120.186	-0.316	-0.055
-636.609	-200.000	-0.009	0.101
-635.595	-105.260	-0.200	-0.046
-634.580	252.777	-0.164	0.283
-633.565	-114.701	-0.319	0.062
-632.551	-16.878	-0.124	-0.079
-631.536	800.000	0.124	0.458
-630.522	-130.883	0.224	0.030
-629.507	269.048	0.060	0.107
-628.492	-72.659	0.195	0.073
-627.478	257.474	-0.037	-0.064
-626.463	273.915	-0.066	-0.119
-625.449	-136.907	0.242	-0.028
-624.434	800.000	-0.078	-0.243
-623.419	800.000	-0.127	0.379
-622.405	525.592	0.085	-0.203
-621.390	-115.427	0.092	-0.018
-620.376	-14.728	0.186	-0.121
-619.361	398.155	-0.078	-0.166
-618.346	-17.704	0.160	-0.102
-617.332	-15.060	-0.236	-0.153
-616.317	800.000	-0.118	-0.366
-615.303	800.000	-0.050	-0.156
-614.288	-200.000	0.021	0.261
-613.273	15.132	-0.160	-0.127
-612.259	-47.987	0.236	-0.116
-611.244	-157.776	-0.238	0.014
-610.230	-135.243	-0.471	-0.057
-609.215	-200.000	-0.081	-0.377
-608.201	305.001	0.073	0.138
-607.186	-152.517	0.224	-0.016
-606.171	312.103	-0.123	-0.233
-605.157	-45.577	-0.176	-0.088
-604.142	-200.000	0.010	-0.076
-603.128	-50.029	0.423	-0.203
-602.113	-200.000	0.003	-0.228
-601.098	-9.119	0.235	-0.159
-600.084	-200.000	0.039	0.225
-599.069	73.324	-0.192	-0.203
-598.055	74.562	0.288	-0.306
-597.040	33.685	-0.148	-0.131
-596.025	-0.903	0.171	0.123
-595.011	-200.000	-0.021	0.204
-593.996	140.926	0.159	-0.212
-592.982	34.825	-0.114	-0.101
-591.967	100.801	-0.153	-0.180
-590.952	2.091	-0.323	-0.236
-589.938	-165.602	-0.294	-0.013
-588.923	-143.751	-0.205	0.020
-587.909	81.828	-0.147	-0.161
-586.894	-139.725	0.220	-0.024
-585.879	-117.734	-0.122	-0.022
-584.865	-65.293	0.091	-0.037
-583.850	-200.000	-0.013	-0.148
-582.836	-7.165	0.057	0.039
-581.821	800.000	0.050	-0.165
-580.806	257.338	-0.152	-0.264
-579.792	-200.000	-0.071	0.383
-578.777	-200.000	0.015	0.141
-577.763	-200.000	0.030	-0.302
-576.748	532.660	0.099	-0.238
-575.733	666.752	-0.015	0.039
-574.719	231.747	0.173	0.287
-573.704	35.941	0.025	-0.022
-572.690	-84.908	-0.342	0.108
-571.675	-48.587	-0.082	0.040
-570.661	21.690	-0.141	-0.116
-569.646	800.000	-0.040	-0.121
-568.631	-32.451	-0.268	-0.151
-567.617	800.000	-0.091	-0.271
-566.602	-55.861	0.270	-0.122
-565.588	-124.890	0.126	0.020
-564.573	-200.000	-0.012	0.191
-563.558	174.950	-0.244	0.357
-562.544	361.515	-0.179	-0.362
-561.529	75.589	-0.194	-0.207
-560.515	53.030	0.092	0.089
-559.500	-200.000	0.011	-0.152
-558.485	-200.000	-0.009	0.228
-557.471	-200.000	0.006	0.287
-556.456	-30.797	0.357	0.204
-555.442	-200.000	0.023	0.154
-554.427	-60.455	-0.240	-0.103
-553.412	43.716	-0.068	0.063
-552.398	364.440	-0.100	-0.204
-551.383	-148.456	0.246	-0.020
-550.369	314.994	-0.199	0.378
-549.354	472.061	-0.056	0.127
-548.339	-14.396	0.347	-0.226
-547.325	-66.197	0.260	-0.104
-546.310	-123.318	0.013	-0.002
-545.296	-43.608	0.159	0.081
-544.281	-200.000	0.059	0.443
-543.266	-38.521	0.054	-0.029
-542.252	13.232	-0.253	-0.198
-541.237	219.196	-0.134	0.217
-540.223	-16.948	0.392	0.250
-539.208	-124.874	0.356	-0.055
-538.193	-122.642	0.202	0.033
-537.179	212.575	-0.198	0.315
-536.164	-115.396	-0.091	0.017
-535.150	-73.379	-0.159	-0.059
-534.135	168.202	-0.038	0.055
-533.121	142.536	0.198	-0.265
-532.106	754.274	-0.062	-0.169
-531.091	-94.188	-0.382	0.105
-530.077	154.954	0.149	-0.206
-529.062	800.000	0.081	0.323
-528.048	-165.362	-0.063	-0.003
-527.033	-82.677	0.083	0.027
-526.018	465.034	-0.070	-0.158
-525.004	-143.720	-0.157	-0.015
-523.989	-21.771	0.100	0.061
-522.975	115.256	-0.023	-0.029
-521.960	-137.518	-0.173	-0.020
-520.945	-200.000	-0.011	-0.211
-519.931	253.588	0.059	-0.101
-518.916	-66.961	-0.239	0.095
-517.902	671.375	-0.076	0.199
-516.887	-200.000	-0.001	0.156
-515.872	13.390	0.195	-0.153
-514.858	-64.600	-0.093	-0.038
-513.843	-105.180	0.170	0.039
-512.829	-172.070	0.123	0.004
-511.814	-200.000	-0.022	0.141
-510.799	-57.418	-0.098	0.043
-509.785	800.000	0.155	-0.480
-508.770	535.447	0.110	-0.263
-507.756	-200.000	0.023	-0.134
-506.741	-99.902	0.073	0.018
-505.726	304.317	0.154	0.287
-504.712	-156.356	0.459	-0.029
-503.697	56.422	-0.146	0.143
-502.683	1.520	0.346	-0.251
-501.668	-131.779	-0.266	0.035
-500.653	-200.000	0.031	0.179
-499.639	352.753	0.216	0.433
-498.624	-26.024	-0.132	-0.078
-497.610	-67.602	0.194	0.076
-496.595	-110.746	-0.199	0.041
-495.581	101.563	0.099	0.116
-494.566	146.652	0.106	-0.143
-493.551	-75.781	0.108	-0.039
-492.537	-42.221	-0.202	-0.104
-491.522	-94.643	0.254	0.069
-490.508	210.227	-0.047	-0.074
-489.493	-194.001	-0.130	0.001
-488.478	-56.867	0.250	0.111
-487.464	627.548	0.056	-0.141
-486.449	195.306	-0.234	0.358
-485.435	97.249	0.037	-0.043
-484.420	-120.151	-0.143	0.025
-483.405	-24.238	0.139	0.083
-482.391	206.540	0.130	0.205
-481.376	-58.766	0.168	0.073
-480.362	-118.673	0.310	-0.055
-479.347	-200.000	-0.035	0.219
-478.332	-200.000	0.000	0.125
-477.318	86.533	-0.392	0.435
-476.303	307.863	0.080	0.150
-475.289	-200.000	-0.072	0.373
-474.274	-109.870	0.171	-0.036
-473.259	-200.000	0.009	-0.186
-472.245	-169.003	0.363	-0.014
-471.230	573.132	0.119	-0.292
-470.216	-200.000	-0.011	-0.053
-469.201	-114.390	-0.227	0.044
-468.186	464.702	-0.148	-0.332
-467.172	9.396	-0.066	-0.050
-466.157	800.000	-0.025	-0.107
-465.143	343.656	0.054	-0.107
-464.128	-6.358	-0.452	0.310
-463.113	-200.000	0.036	0.213
-462.099	92.039	-0.018	0.021
-461.084	161.603	0.115	-0.162
-460.070	68.494	0.088	0.091
-459.055	130.967	-0.204	0.263
-458.040	510.097	-0.050	0.116
-457.026	110.012	0.025	0.031
-456.011	564.321	-0.071	0.174
-454.997	36.390	-0.230	0.204
-453.982	243.296	0.183	-0.309
-452.968	-200.000	-0.058	-0.261
-451.953	127.823	0.164	-0.210
-450.938	-59.704	-0.143	-0.062
-449.924	-135.656	-0.408	-0.049
-448.909	-122.345	0.238	-0.039
-447.895	-128.399	-0.051	-0.007
-446.880	800.000	0.058	-0.249
-445.865	800.000	0.041	0.135
-444.851	-74.951	0.218	0.079
-443.836	27.987	-0.047	0.039
-442.822	97.198	0.157	-0.181
-441.807	-92.188	-0.199	-0.056
-440.792	619.666	0.041	-0.104
-439.778	-79.730	0.145	0.049
-438.763	-109.844	-0.171	0.036
-437.749	255.937	-0.063	-0.109
-436.734	-200.000	-0.094	0.420
-435.719	765.533	0.109	0.299
-434.705	413.222	0.115	-0.247
-433.690	-200.000	-0.008	0.100
-432.676	385.854	-0.142	0.295
-431.661	800.000	0.057	-0.229
-430.646	661.731	-0.109	-0.282
-429.632	-100.528	0.108	0.027
-428.617	-14.455	-0.092	-0.060
-427.603	46.066	-0.151	-0.140
-426.588	-108.179	0.103	-0.022
-425.573	351.232	-0.110	0.218
-424.559	147.242	0.108	0.146
-423.544	-108.006	-0.127	-0.028
-422.530	-139.929	-0.058	0.006
-421.515	520.248	-0.041	0.097
-420.500	-200.000	0.013	-0.219
-419.486	800.000	0.071	-0.299
-418.471	-151.681	0.047	0.003
-417.457	195.066	-0.171	0.261
-416.442	12.218	0.236	0.183
-415.428	27.504	-0.232	0.196
-414.413	-2.618	0.296	0.208
-413.398	-200.000	0.000	-0.056
-412.384	-152.198	-0.377	-0.027
-411.369	108.403	0.205	-0.245
-410.355	31.119	-0.056	-0.048
-409.340	-6.968	0.204	-0.139
-408.325	-140.361	0.123	-0.013
-407.311	-52.673	0.215	-0.100
-406.296	87.497	-0.258	-0.287
-405.282	-200.000	-0.001	0.127
-404.267	-200.000	0.080	-0.429
-403.252	-120.970	0.127	-0.022
-402.238	-97.191	-0.106	-0.028
-401.223	800.000	-0.060	0.188
-400.209	-200.000	0.005	0.053
-399.194	-38.772	-0.256	-0.135
-398.179	565.463	0.095	0.231
-397.165	169.821	-0.169	0.243
-396.150	192.198	0.101	0.153
-395.136	85.925	0.131	0.144
-394.121	153.016	0.242	-0.332
-393.106	-20.801	-0.210	0.129
-392.092	74.935	0.362	-0.383
-391.077	-94.232	-0.081	0.022
-390.063	-200.000	-0.011	-0.121
-389.048	-92.968	0.101	0.028
-388.033	368.387	0.031	-0.063
-387.019	-186.915	-0.256	-0.004
-386.004	-200.000	-0.054	0.304
-384.990	397.328	0.088	-0.184
-383.975	15.767	0.116	0.092
-382.960	-158.025	-0.309	0.018
-381.946	800.000	0.101	0.292
-380.931	-178.225	-0.138	0.003
-379.917	-96.926	-0.043	0.011
-378.902	17.860	-0.380	-0.304
-377.888	342.116	-0.037	-0.073
-376.873	44.469	0.112	0.103
-375.858	120.609	0.237	-0.296
-374.844	218.174	-0.109	-0.175
-373.829	-130.054	0.326	0.045
-372.815	218.857	-0.135	0.217
-371.800	172.780	0.040	-0.058
-370.785	-200.000	-0.013	0.100
-369.771	76.900	-0.091	-0.097
-368.756	145.079	0.214	0.287
-367.742	40.147	-0.207	0.187
-366.727	-55.705	-0.228	-0.102
-365.712	-200.000	0.026	0.319
-364.698	146.396	-0.025	0.033
-363.683	125.752	-0.107	-0.136
-362.669	89.102	-0.085	-0.095
-361.654	800.000	0.040	0.157
-360.639	-200.000	-0.006	-0.125
-359.625	-61.050	0.266	0.113
-358.610	-88.157	0.086	0.026
-357.596	-39.424	-0.019	0.010
-356.581	-121.828	-0.050	0.008
-355.566	-12.001	-0.074	-0.049
-354.552	800.000	-0.039	-0.125
-353.537	-122.832	0.161	0.026
-352.523	-200.000	-0.003	0.340
-351.508	51.586	-0.061	-0.058
-350.493	586.107	0.042	0.104
-349.479	142.168	-0.096	-0.127
-348.464	-200.000	-0.043	-0.319
-347.450	154.733	0.105	-0.145
-346.435	16.659	-0.156	-0.124
-345.420	800.000	-0.050	-0.190
-344.406	122.987	0.141	-0.177
-343.391	335.064	0.153	-0.297
-342.377	-200.000	0.078	0.359
-341.362	-188.704	-0.346	-0.004
-340.348	-200.000	0.003	-0.253
-339.333	800.000	0.067	0.264
-338.318	22.981	-0.104	-0.085
-337.304	461.497	0.082	0.183
-336.289	-37.268	0.033	-0.018
-335.275	-50.439	0.075	-0.035
-334.260	152.511	-0.043	-0.058
-333.245	-112.873	-0.199	-0.040
-332.231	-53.916	0.119	0.054
-331.216	-200.000	-0.029	0.135
-330.202	-148.329	-0.169	0.014
-329.187	-96.299	0.080	-0.021
-328.172	-112.761	-0.437	0.087
-327.158	291.195	-0.044	-0.081
-326.143	89.858	0.066	-0.074
-325.129	-200.000	-0.018	-0.117
-324.114	-100.809	-0.149	0.037
-323.099	315.421	-0.089	0.169
-322.085	-37.089	0.231	-0.124
-321.070	506.430	0.049	-0.114
-320.056	-12.517	-0.053	-0.035
-319.041	-200.000	-0.019	-0.121
-318.026	-200.000	0.017	-0.156
-317.012	311.554	-0.099	0.187
-315.997	-38.507	-0.060	-0.032
-314.983	381.261	-0.083	0.171
-313.968	-74.987	0.444	0.159
-312.953	-156.950	-0.600	-0.037
-311.939	-96.519	0.361	0.095
-310.924	800.000	0.088	-0.251
-309.910	-142.908	-0.303	-0.029
-308.895	40.205	0.266	-0.239
-307.880	89.165	0.122	-0.136
-306.866	581.629	0.101	0.247
-305.851	257.156	-0.030	-0.051
-304.837	132.393	-0.110	0.142
-303.822	208.743	0.175	-0.274
-302.807	264.669	-0.103	0.179
-301.793	128.919	0.242	0.309
-300.778	-55.079	-0.086	-0.039
-299.764	-200.000	0.051	0.292
-298.749	-29.330	-0.128	0.073
-297.735	800.000	-0.109	0.304
-296.720	-35.448	-0.186	-0.101
-295.705	-67.779	-0.146	0.057
-294.691	49.476	0.199	-0.187
-293.676	-200.000	0.011	-0.166
-292.662	-200.000	-0.011	0.117
-291.647	-200.000	-0.004	-0.364
-290.632	188.724	-0.046	0.069
-289.618	60.267	-0.127	0.125
-288.603	107.792	-0.114	-0.136
-287.589	491.067	0.160	-0.366
-286.574	-200.000	-0.044	-0.238
-285.559	79.158	-0.150	-0.160
-284.545	-37.197	-0.119	-0.063
-283.530	34.353	0.073	0.064
-282.516	357.168	0.029	0.057
-281.501	32.975	-0.237	-0.205
-280.486	-137.827	0.150	0.017
-279.472	-40.932	-0.309	0.159
-278.457	-78.263	-0.278	-0.096
-277.443	-120.296	0.233	-0.040
-276.428	-151.345	-0.232	0.017
-275.413	593.076	0.062	-0.153
-274.399	343.627	-0.108	0.212
-273.384	565.177	-0.034	-0.083
-272.370	-86.584	-0.171	-0.052
-271.355	800.000	0.162	0.481
-270.340	233.775	0.144	-0.237
-269.326	800.000	0.065	-0.184
-268.311	41.784	-0.113	-0.103
-267.297	16.929	-0.272	0.215
-266.282	-160.007	-0.189	0.010
-265.267	18.781	0.276	0.221
-264.253	-185.506	0.266	0.004
-263.238	-200.000	-0.042	-0.297
-262.224	227.463	-0.061	-0.100
-261.209	-200.000	-0.058	0.367
-260.195	326.747	0.149	0.285
-259.180	0.340	-0.046	0.033
-258.165	665.381	0.112	-0.290
-257.151	-200.000	-0.022	-0.311
-256.136	-106.027	0.155	0.035
-255.122	-94.628	-0.136	-0.037
-254.107	69.040	-0.140	0.143
-253.092	-200.000	0.011	0.132
-252.078	309.101	-0.143	0.266
-251.063	-115.212	0.204	0.039
-250.049	-200.000	0.028	0.335
-249.034	173.957	0.141	-0.203
-248.019	-200.000	-0.007	0.223
-247.005	800.000	0.026	-0.099
-245.990	67.419	0.160	-0.163
-244.976	244.521	-0.049	-0.082
-243.961	-15.671	0.272	0.173
-242.946	-114.253	0.052	-0.010
-241.932	19.140	0.159	0.127
-240.917	117.214	0.170	0.208
-239.903	357.530	-0.088	0.175
-238.888	-75.372	-0.070	0.025
-237.873	-115.249	-0.187	0.035
-236.859	66.330	-0.138	-0.140
-235.844	64.031	0.133	-0.134
-234.830	738.595	0.056	0.151
-233.815	128.037	0.048	0.061
-232.800	19.951	0.083	-0.066
-231.786	217.097	0.100	-0.159
-230.771	800.000	-0.062	-0.183
-229.757	-58.726	-0.254	-0.110
-228.742	-200.000	0.057	0.264
-227.727	43.360	0.131	0.119
-226.713	-59.828	0.201	0.086
-225.698	-200.000	-0.035	0.348
-224.684	-48.824	0.192	0.092
-223.669	7.879	-0.134	0.100
-222.655	-147.451	0.278	0.023
-221.640	-200.000	0.036	-0.267
-220.625	-129.707	0.136	0.019
-219.611	-200.000	0.037	-0.301
-218.596	800.000	0.098	0.359
-217.582	-2.674	0.220	0.153
-216.567	46.949	0.237	-0.220
-215.552	5.243	-0.199	-0.146
-214.538	350.402	-0.087	-0.171
-213.523	580.776	-0.031	0.075
-212.509	31.975	-0.255	-0.219
-211.494	-176.386	0.078	-0.002
-210.479	-41.424	0.274	0.140
-209.465	297.985	-0.045	-0.083
-208.450	-45.770	-0.335	0.165
-207.436	-165.541	0.420	-0.018
-206.421	-168.785	0.126	-0.005
-205.406	-24.858	0.191	0.113
-204.392	-75.332	-0.244	-0.087
-203.377	514.663	-0.114	-0.266
-202.363	-36.484	0.315	0.169
-201.348	-200.000	-0.024	0.405
-200.333	-200.000	-0.011	-0.141
-199.319	-125.736	0.299	-0.045
-198.304	72.655	0.261	-0.271
-197.290	96.619	0.124	0.142
-196.275	99.850	0.123	-0.142
-195.260	177.524	0.108	-0.156
-194.246	-159.460	0.168	0.009
-193.231	-200.000	0.052	0.261
-192.217	-120.944	-0.074	-0.012
-191.202	-123.810	-0.132	0.021
-190.187	-26.101	-0.281	-0.165
-189.173	155.609	-0.094	-0.129
-188.158	618.035	-0.070	0.174
-187.144	316.141	0.131	0.246
-186.129	179.497	0.123	0.180
-185.114	46.455	-0.197	0.182
-184.100	800.000	0.016	0.059
-183.085	-139.453	0.190	0.020
-182.071	69.614	0.092	0.094
-181.056	-115.324	0.359	-0.067
-180.042	163.270	0.099	0.138
-179.027	428.215	-0.041	-0.089
-178.012	-200.000	-0.007	0.035
-176.998	271.759	0.206	-0.361
-175.983	-200.000	0.032	-0.353
-174.969	129.878	0.113	-0.144
-173.954	800.000	-0.062	-0.256
-172.939	60.320	-0.141	0.138
-171.925	-62.557	-0.169	0.070
-170.910	-200.000	-0.003	0.278
-169.896	161.013	-0.100	0.139
-168.881	52.575	0.120	0.114
-167.866	-18.997	-0.105	-0.065
-166.852	-200.000	0.016	0.174
-165.837	800.000	0.033	0.121
-164.823	8.033	-0.265	0.198
-163.808	800.000	0.054	0.170
-162.793	-34.222	-0.306	-0.167
-161.779	800.000	-0.090	0.292
-160.764	795.030	-0.049	-0.133
-159.750	-200.000	0.011	0.297
-158.735	162.185	-0.048	-0.067
-157.720	-30.956	0.223	0.125
-156.706	216.786	-0.218	-0.345
-155.691	-200.000	-0.010	-0.066
-154.677	388.268	-0.252	0.518
-153.662	57.777	-0.117	0.114
-152.647	-66.537	0.163	-0.064
-151.633	-200.000	-0.066	-0.307
-150.618	-102.704	0.224	0.053
-149.604	-62.353	0.207	-0.085
-148.589	416.451	0.082	-0.174
-147.574	-200.000	-0.019	-0.407
-146.560	425.202	0.099	0.212
-145.545	231.132	0.138	-0.225
-144.531	800.000	0.089	0.301
-143.516	-26.634	-0.283	0.164
-142.502	-141.726	-0.146	0.015
-141.487	-200.000	-0.016	-0.141
-140.472	-200.000	0.045	-0.268
-139.458	44.187	0.192	-0.175
-138.443	-22.250	0.280	0.169
-137.429	65.272	-0.201	-0.202
-136.414	34.339	0.095	-0.082
-135.399	133.810	0.015	-0.019
-134.385	-118.145	0.345	0.061
-133.370	-115.712	-0.120	-0.022
-132.356	-49.792	0.300	-0.142
-131.341	332.922	0.089	0.172
-130.326	800.000	0.074	-0.251
-129.312	-200.000	0.006	0.143
-128.297	308.276	0.022	-0.041
-127.283	-53.699	0.143	-0.065
-126.268	227.363	-0.242	0.390
-125.253	-96.074	-0.221	-0.058
-124.239	-184.652	-0.152	0.002
-123.224	800.000	-0.084	0.319
-122.210	-176.947	0.075	-0.002
-121.195	-117.653	-0.340	-0.061
-120.180	-105.351	-0.163	-0.037
-119.166	-111.221	0.045	0.009
-118.151	-200.000	-0.031	-0.196
-117.137	-128.648	-0.256	0.036
-116.122	118.794	0.316	-0.388
-115.107	-32.533	0.232	-0.128
-114.093	-68.301	0.034	0.013
-113.078	799.702	-0.041	-0.112
-112.064	-6.075	-0.151	0.102
-111.049	46.371	0.068	0.062
-110.034	493.703	0.094	-0.213
-109.020	9.200	0.076	0.057
-108.005	-123.463	-0.231	0.037
-106.991	800.000	-0.108	0.316
-105.976	60.013	-0.208	-0.204
-104.962	-168.107	-0.442	0.017
-103.947	22.811	-0.121	-0.098
-102.932	-148.424	-0.129	0.011
-101.918	187.031	0.133	0.197
-100.903	-150.131	-0.251	0.019
-99.889	-132.022	-0.171	-0.022
-98.874	-101.963	-0.355	0.085
-97.859	800.000	0.041	-0.150
-96.845	-66.862	-0.160	0.063
-95.830	-66.186	0.424	0.167
-94.816	-200.000	0.068	0.391
-93.801	-43.229	-0.188	-0.094
-92.786	800.000	-0.059	-0.162
-91.772	278.124	0.157	0.278
-90.757	101.037	-0.179	-0.206
-89.743	26.465	0.200	-0.166
-88.728	84.024	0.039	0.042
-87.713	-200.000	0.003	0.248
-86.699	-200.000	0.033	0.175
-85.684	58.471	0.244	0.238
-84.670	58.831	0.072	-0.070
-83.655	-101.923	0.251	-0.060
-82.640	140.081	-0.104	-0.136
-81.626	-200.000	0.033	0.242
-80.611	-73.813	0.149	-0.054
-79.597	-108.630	-0.140	0.030
-78.582	-60.517	-0.146	-0.062
-77.567	-144.496	0.260	-0.024
-76.553	-93.051	-0.187	-0.052
-75.538	-91.443	0.307	0.087
-74.524	-200.000	-0.031	-0.411
-73.509	800.000	0.053	-0.193
-72.494	-84.218	-0.102	-0.032
-71.480	-157.152	0.176	0.011
-70.465	-23.071	-0.156	-0.093
-69.451	-123.848	0.322	-0.050
-68.436	350.088	0.087	-0.171
-67.422	224.861	-0.142	0.228
-66.407	-123.903	0.289	0.045
-65.392	-53.427	-0.034	0.016
-64.378	193.047	-0.112	-0.168
-63.363	-144.164	-0.331	-0.031
-62.349	74.167	-0.138	0.144
-61.334	71.748	-0.769	-0.792
-60.319	-200.000	0.099	0.479
-59.305	620.200	-0.331	-0.824
-58.290	483.925	0.409	0.922
-57.276	800.000	0.645	1.834
-56.261	-200.000	94.322	552.408
-55.246	519.994	1406.692	3265.183
-54.232	145.697	2630.421	3490.655
-53.217	111.614	2242.124	2678.842
-52.203	45.281	1767.469	1614.162
-51.188	37.934	1575.253	1386.575
-50.173	35.473	1547.197	1344.613
-49.159	52.581	1596.318	1509.488
-48.144	55.884	1615.590	1551.194
-47.130	38.344	1571.305	1385.792
-46.115	35.177	1555.624	1349.639
-45.100	34.935	1551.941	1344.691
-44.086	34.994	1550.550	1343.849
-43.071	34.987	1548.459	1341.934
-42.057	34.870	1546.799	1339.618
-41.042	34.823	1545.887	1338.446
-40.027	34.886	1543.815	1337.044
-39.013	34.873	1542.748	1335.975
-37.998	34.897	1541.339	1334.864
-36.984	34.921	1540.146	1333.947
-35.969	34.913	1538.971	1332.823
-34.954	34.856	1537.412	1331.022
-33.940	34.847	1535.769	1329.486
-32.925	35.037	1534.014	1329.232
-31.911	34.906	1533.339	1327.683
-30.896	34.995	1531.563	1326.710
-29.881	34.990	1530.317	1325.548
-28.867	34.982	1528.792	1324.113
-27.852	35.021	1526.745	1322.561
-26.838	34.929	1525.621	1320.897
-25.823	35.012	1523.933	1319.955
-24.809	34.966	1522.800	1318.605
-23.794	34.987	1521.183	1317.297
-22.779	34.927	1520.037	1315.841
-21.765	34.950	1518.966	1315.018
-20.750	34.878	1517.759	1313.426
-19.736	34.938	1516.263	1312.491
-18.721	35.027	1515.012	1311.968
-17.706	34.912	1514.304	1310.516
-16.692	34.811	1513.711	1309.260
-15.677	34.894	1512.403	1308.641
-14.663	34.906	1511.534	1307.920
-13.648	34.779	1510.181	1305.833
-12.633	34.791	1509.537	1305.304
-11.619	34.912	1508.257	1304.970
-10.604	34.854	1507.224	1303.632
-9.590	34.873	1506.682	1303.236
-8.575	34.949	1505.356	1302.556
-7.560	34.843	1504.980	1301.457
-6.546	34.787	1504.508	1300.619
-5.531	34.891	1502.782	1299.783
-4.517	34.760	1502.548	1298.640
-3.502	34.794	1501.276	1297.715
-2.487	34.733	1500.270	1296.381
-1.473	34.792	1499.085	1295.704
-0.458	34.915	1497.656	1295.254
0.556	34.048	1488.874	1286.994
1.571	31.837	1462.861	1249.677
2.586	28.205	1399.140	1171.933
3.600	25.860	1312.093	1084.823
4.615	23.403	1264.251	1030.905
5.629	19.791	1205.435	962.785
6.644	10.212	1114.547	840.577
7.659	2.190	1070.349	767.022
8.673	0.887	1064.404	756.183
9.688	0.708	1061.209	752.956
10.702	0.621	1059.452	751.211
11.717	0.595	1057.959	749.958
12.731	3.323	1060.994	765.616
13.746	11.970	1072.707	817.295
14.761	17.715	1079.726	851.338
15.775	17.675	1078.635	850.204
16.790	16.903	1076.547	844.638
17.804	15.974	1074.165	838.075
18.819	15.052	1072.411	832.052
19.834	14.666	1070.900	828.891
20.848	14.154	1070.222	825.749
21.863	13.978	1069.406	824.176
22.877	13.765	1068.495	822.346
23.892	13.401	1067.934	820.034
24.907	13.463	1066.654	819.287
25.921	13.494	1065.798	818.709
26.936	13.477	1065.516	818.339
27.950	13.554	1064.629	817.964
28.965	13.516	1063.939	817.172
29.980	13.638	1063.104	817.063
30.994	13.591	1062.274	816.118
32.009	13.658	1061.210	815.561
33.023	13.606	1060.795	814.915
34.038	13.741	1059.780	814.722
35.053	13.697	1058.722	813.624
36.067	13.593	1058.118	812.579
37.082	13.619	1056.772	811.600
38.096	13.522	1056.422	810.783
39.111	13.662	1055.272	810.512
40.126	13.687	1054.304	809.820
41.140	13.598	1053.786	808.917
42.155	13.474	1052.133	806.971
43.169	13.392	1051.991	806.393
44.184	13.368	1050.893	805.364
45.199	13.441	1049.499	804.576
46.213	13.400	1048.781	803.756
47.228	13.463	1047.860	803.283
48.242	13.573	1046.059	802.364
49.257	13.558	1045.421	801.732
50.271	13.481	1044.674	800.719
51.286	13.506	1043.733	800.048
52.301	13.502	1043.302	799.623
53.315	13.535	1042.328	798.966
54.330	13.614	1041.080	798.322
55.344	13.452	1040.472	797.006
56.359	13.384	1039.378	795.768
57.374	13.407	1038.439	795.088
58.388	13.549	1037.189	794.743
59.403	13.505	1036.759	794.133
60.417	13.414	1036.232	793.224
61.432	13.339	1036.042	792.648
62.447	13.446	1034.904	792.219
63.461	13.435	1033.613	791.109
64.476	13.497	1032.174	790.232
65.490	13.386	1031.709	789.276
66.505	13.366	1031.179	788.704
67.520	13.375	1030.254	787.970
68.534	13.371	1029.548	787.343
69.549	13.380	1028.644	786.627
70.563	13.542	1027.602	786.527
71.578	13.336	1027.649	785.519
72.593	13.326	1026.711	784.684
73.607	13.339	1025.594	783.823
74.622	13.358	1024.781	783.222
75.636	13.329	1023.689	782.181
76.651	13.229	1022.996	781.110
77.666	13.384	1022.142	781.117
78.680	13.288	1021.715	780.271
79.695	13.228	1021.392	779.671
80.709	13.367	1020.599	779.651
81.724	13.461	1019.262	779.005
82.739	13.442	1018.553	778.304
83.753	13.556	1017.499	777.964
84.768	13.511	1016.910	777.233
85.782	13.554	1016.459	777.024
86.797	13.646	1015.650	776.769
87.812	13.669	1014.482	775.914
88.826	13.515	1014.159	774.878
89.841	13.521	1013.308	774.186
90.855	13.511	1012.532	773.477
91.870	13.659	1011.397	773.231
92.884	13.479	1010.839	771.900
93.899	13.597	1010.252	771.933
94.914	13.492	1009.637	770.905
95.928	13.700	1008.698	771.089
96.943	13.687	1007.593	770.113
97.957	13.595	1007.390	769.462
98.972	13.531	1006.202	768.189
99.987	13.576	1005.181	767.550
101.001	13.544	1004.559	766.860
102.016	13.535	1004.032	766.351
103.030	13.463	1003.140	765.268
104.045	13.575	1001.913	764.780
105.060	13.612	1000.778	764.020
106.074	13.639	999.727	763.271
107.089	13.561	999.215	762.453
108.103	13.530	998.274	761.526
109.118	13.428	997.704	760.555
110.133	13.511	996.778	760.162
111.147	13.426	995.603	758.809
112.162	13.455	994.998	758.414
113.176	13.546	994.160	758.124
114.191	13.501	993.247	757.156
115.206	13.465	992.228	756.148
116.220	13.564	991.481	755.964
117.235	13.555	990.546	755.141
118.249	13.497	989.830	754.265
119.264	13.542	988.661	753.512
120.279	13.625	987.592	753.010
121.293	13.503	987.200	752.092
122.308	13.364	987.114	751.326
123.322	13.531	985.746	750.977
124.337	13.343	984.965	749.462
125.352	13.404	983.625	748.654
126.366	13.396	982.664	747.817
127.381	13.412	981.315	746.798
128.395	13.470	980.260	746.191
129.410	13.458	979.720	745.659
130.424	13.485	978.658	744.908
131.439	13.552	977.654	744.378
132.454	13.609	976.310	743.547
133.468	13.683	975.573	743.251
134.483	13.642	975.254	742.758
135.497	13.651	974.757	742.351
136.512	13.505	974.153	741.173
137.527	13.571	973.234	740.702
138.541	13.579	972.436	740.069
139.556	13.651	971.604	739.688
140.570	13.554	971.012	738.743
141.585	13.665	970.032	738.426
142.600	13.666	969.506	737.965
143.614	13.643	968.856	737.302
144.629	13.695	967.840	736.694
145.643	13.684	967.367	736.218
146.658	13.712	966.523	735.635
147.673	13.628	965.640	734.528
148.687	13.626	964.968	733.944
149.702	13.629	963.530	732.794
150.716	13.607	962.817	732.092
151.731	13.550	962.143	731.263
152.746	13.603	961.093	730.634
153.760	13.553	960.465	729.871
154.775	13.561	959.868	729.387
155.789	13.625	958.978	728.928
156.804	13.721	958.459	728.893
157.819	13.764	957.443	728.246
158.833	13.653	957.320	727.600
159.848	13.820	955.989	727.257
160.862	13.747	955.422	726.438
161.877	13.754	955.099	726.162
162.892	13.791	953.950	725.382
163.906	13.702	953.233	724.387
164.921	13.703	952.454	723.736
165.935	13.795	951.576	723.402
166.950	13.758	950.614	722.447
167.964	13.765	949.981	721.933
168.979	13.737	948.910	720.934
169.994	13.811	947.607	720.201
171.008	13.762	946.694	719.233
172.023	13.849	946.044	719.049
173.037	13.867	945.106	718.354
174.052	13.879	944.321	717.743
175.067	13.866	943.834	717.255
176.081	13.846	942.953	716.436
177.096	13.839	941.812	715.474
178.110	13.926	940.799	715.014
179.125	13.892	940.316	714.440
180.140	13.832	939.800	713.724
181.154	13.838	939.398	713.383
182.169	13.945	938.647	713.209
183.183	13.866	937.962	712.285
184.198	13.962	937.165	712.028
185.213	13.915	936.572	711.315
186.227	14.063	935.479	711.054
187.242	14.119	935.146	710.979
188.256	14.148	934.294	710.391
189.271	14.246	933.358	710.034
190.286	14.091	933.148	709.154
191.300	14.106	932.137	708.385
192.315	14.140	931.318	707.845
193.329	13.848	930.968	706.272
194.344	13.978	929.827	705.896
195.359	14.017	929.452	705.718
196.373	14.043	929.067	705.474
197.388	14.091	928.472	705.160
198.402	14.091	927.711	704.522
199.417	14.185	927.361	704.591
200.432	14.358	926.608	704.690
201.446	14.241	926.326	703.914
202.461	14.259	926.046	703.716
203.475	14.369	925.318	703.568
204.490	14.476	924.588	703.399
205.504	14.359	923.745	702.204
206.519	14.321	922.789	701.257
207.534	14.228	922.270	700.407
208.548	14.178	921.627	699.647
209.563	14.263	920.885	699.379
210.577	14.408	920.083	699.316
211.592	14.306	919.520	698.398
212.607	14.360	918.797	698.013
213.621	14.400	918.589	697.960
214.636	14.265	917.680	696.646
215.650	14.482	916.792	696.815
216.665	14.537	916.341	696.643
217.680	14.464	915.893	695.935
218.694	14.446	915.473	695.479
219.709	14.565	914.561	695.220
220.723	14.404	914.166	694.186
221.738	14.499	913.494	694.013
222.753	14.350	912.724	692.744
223.767	14.460	912.126	692.685
224.782	14.550	911.362	692.420
225.796	14.644	910.434	692.044
226.811	14.635	909.831	691.484
227.826	14.739	909.155	691.342
228.840	14.594	908.375	690.087
229.855	14.571	907.764	689.466
230.869	14.579	907.151	688.974
231.884	14.649	906.274	688.535
232.899	14.571	905.884	687.855
233.913	14.566	904.717	686.887
234.928	14.627	904.003	686.537
235.942	14.686	903.903	686.642
236.957	14.618	903.281	685.832
237.972	14.575	902.365	684.900
238.986	14.546	901.926	684.386
240.001	14.681	901.065	684.223
241.015	14.568	900.493	683.268
242.030	14.787	899.559	683.393
243.045	14.729	899.207	682.830
244.059	14.645	898.492	681.880
245.074	14.875	897.445	681.967
246.088	14.792	897.219	681.396
247.103	14.779	896.730	680.909
248.117	14.952	896.023	681.018
249.132	14.861	895.090	679.878
250.147	14.982	894.747	680.050
251.161	14.824	894.346	679.042
252.176	15.022	893.394	679.061
253.190	14.980	893.027	678.554
254.205	15.026	892.356	678.171
255.220	15.075	891.590	677.727
256.234	15.092	890.949	677.246
257.249	15.142	890.461	677.021
258.263	15.114	889.780	676.329
259.278	15.043	888.983	675.378
260.293	15.127	888.941	675.623
261.307	15.252	888.141	675.461
262.322	15.165	887.615	674.648
263.336	15.185	886.803	674.052
264.351	15.166	886.254	673.498
265.366	15.263	885.520	673.271
266.380	15.316	885.060	673.076
267.395	15.240	884.395	672.206
268.409	15.283	883.481	671.623
269.424	15.322	883.012	671.363
270.439	15.309	882.120	670.575
271.453	15.436	881.160	670.291
272.468	15.224	880.599	668.959
273.482	15.292	879.967	668.692
274.497	15.248	879.349	667.987
275.512	15.410	878.704	668.085
276.526	15.394	877.898	667.349
277.541	15.465	876.919	666.827
278.555	15.489	876.500	666.545
279.570	15.391	876.078	665.777
280.585	15.535	875.508	665.856
281.599	15.606	874.817	665.550
282.614	15.621	874.185	665.070
283.628	15.486	873.552	663.996
284.643	15.533	872.925	663.647
285.657	15.607	872.728	663.730
286.672	15.500	872.236	662.874
287.687	15.506	871.574	662.338
288.701	15.539	870.889	661.889
289.716	15.679	870.670	662.213
290.730	15.609	869.872	661.275
291.745	15.629	869.000	660.630
292.760	15.599	868.197	659.845
293.774	15.602	868.164	659.772
294.789	15.714	867.471	659.625
295.803	15.676	866.761	658.879
296.818	15.678	866.137	658.353
297.833	15.747	865.321	657.947
298.847	15.729	864.522	657.209
299.862	15.688	863.888	656.512
300.876	15.715	863.336	656.136
301.891	15.904	862.196	655.949
302.906	15.739	862.015	655.111
303.920	15.848	861.098	654.780
304.935	15.967	860.701	654.884
305.949	15.844	860.113	653.899
306.964	16.043	859.299	653.995
307.979	15.993	858.494	653.131
308.993	15.920	858.205	652.572
310.008	15.969	857.826	652.417
311.022	16.128	856.843	652.222
312.037	16.088	856.763	651.952
313.052	15.841	856.549	650.775
314.066	16.039	855.344	650.565
315.081	15.996	855.069	650.135
316.095	15.859	854.532	649.139
317.110	16.140	853.642	649.490
318.125	15.947	853.189	648.342
319.139	16.005	853.111	648.449
320.154	16.000	852.132	647.628
321.168	16.094	851.398	647.374
322.183	16.074	851.086	647.004
323.197	16.037	850.843	646.619
324.212	15.988	850.408	646.045
325.227	16.007	849.716	645.535
326.241	16.108	849.023	645.339
327.256	16.003	848.629	644.580
328.270	16.152	847.789	644.452
329.285	16.147	847.153	643.894
330.300	16.121	846.851	643.509
331.314	16.075	846.362	642.905
332.329	16.189	845.413	642.560
333.343	16.297	844.506	642.226
334.358	16.332	844.420	642.238
335.373	16.174	843.860	641.153
336.387	16.279	843.297	641.069
337.402	16.288	842.899	640.744
338.416	16.303	842.236	640.239
339.431	16.334	841.640	639.847
340.446	16.322	841.045	639.294
341.460	16.379	840.755	639.229
342.475	16.365	839.833	638.421
343.489	16.436	839.354	638.269
344.504	16.444	838.913	637.905
345.519	16.620	838.322	638.062
346.533	16.639	837.592	637.524
347.548	16.643	837.379	637.320
348.562	16.402	837.272	636.273
349.577	16.568	836.188	636.018
350.592	16.615	835.566	635.668
351.606	16.492	835.246	634.903
352.621	16.439	835.200	634.615
353.635	16.410	834.546	633.953
354.650	16.461	833.899	633.596
355.665	16.419	833.542	633.112
356.679	16.613	832.740	633.172
357.694	16.557	832.506	632.729
358.708	16.383	832.256	631.831
359.723	16.580	831.212	631.718
360.738	16.693	830.661	631.667
361.752	16.615	830.168	630.946
362.767	16.630	830.095	630.889
363.781	16.678	829.863	630.838
364.796	16.731	829.136	630.424
365.810	16.699	829.089	630.215
366.825	16.761	828.480	629.926
367.840	16.801	828.155	629.771
368.854	16.800	827.735	629.393
369.869	16.769	826.943	628.619
370.883	16.854	825.874	628.068
371.898	16.796	825.805	627.743
372.913	16.866	825.326	627.585
373.927	16.931	824.671	627.269
374.942	17.050	823.376	626.668
375.956	16.861	823.213	625.790
376.971	16.935	822.872	625.751
377.986	16.940	822.202	625.204
379.000	17.006	821.533	624.884
380.015	17.153	820.874	624.868
381.029	17.214	820.341	624.630
382.044	17.144	819.861	623.953
383.059	17.159	819.441	623.634
384.073	17.030	818.741	622.570
385.088	17.064	818.636	622.561
386.102	17.007	818.086	621.878
387.117	17.094	817.359	621.590
388.132	17.000	816.839	620.797
389.146	17.066	816.338	620.600
390.161	17.175	816.445	621.026
391.175	17.201	815.772	620.554
392.190	17.146	815.682	620.229
393.205	17.273	814.969	620.097
394.219	17.246	814.487	619.578
395.234	17.202	813.841	618.871
396.248	17.017	813.493	617.878
397.263	17.156	812.800	617.804
398.278	17.181	812.534	617.634
399.292	17.169	811.760	616.948
400.307	17.153	811.793	616.861
401.321	17.095	811.508	616.380
402.336	17.240	810.459	616.053
403.350	17.419	809.840	616.178
404.365	17.323	809.842	615.778
405.380	17.375	809.676	615.786
406.394	17.300	808.970	614.921
407.409	17.378	808.601	614.866
408.423	17.327	808.096	614.244
409.438	17.494	807.353	614.230
410.453	17.470	807.201	613.973
411.467	17.517	806.627	613.651
412.482	17.545	806.304	613.452
413.496	17.542	805.882	613.066
414.511	17.464	805.637	612.545
415.526	17.580	805.110	612.506
416.540	17.634	804.392	612.100
417.555	17.560	804.139	611.589
418.569	17.567	803.758	611.268
419.584	17.585	803.282	610.917
420.599	17.553	803.062	610.582
421.613	103.797	1284.068	1442.634
422.628	89.216	1354.127	1442.727
