DTS Sentinel unit serial number:	SN413079Multiplexer serial number:	ORYXHardware model number:	OX4-SRSoftware version number:	ORYX F/W v4.00 Oryx Data Collector v3.7.2.0data status	okinstallation	princeton_trtdifferential loss correction	single-endedforward channel	channel 3reverse channel	N/Adate	2019/09/12time	18:21:04forward acquisition time	15.00reverse acquisition time	0.00gamma	496.2192k internal	0.2316k external	0.2316temperature offset calibration	1.0111default loss term (dB/km)	0.3790temperature slope calibration	1.0000multiplexer offset coefficient	1.0000multiplexer slope coefficient	1.0000fibre end	0.00T internal ref (°C)	33.37T ext. ref 1 (°C)	3.05T ext. ref 2 (°C)	28.11length (m)	temperature (°C)	Stokes	anti-Stokes-747.200	29.442	-0.305	-0.263
-746.185	-200.000	-0.046	0.237
-745.171	159.917	-0.145	-0.204
-744.156	-171.255	0.614	-0.021
-743.142	258.862	0.172	0.300
-742.127	800.000	-0.102	0.321
-741.112	-110.922	-0.404	0.084
-740.098	-15.711	-0.805	-0.520
-739.083	-71.116	0.032	0.012
-738.069	-139.104	0.120	0.013
-737.054	-26.374	-0.298	0.177
-736.039	390.847	0.165	0.346
-735.025	401.788	0.176	0.375
-734.010	13.805	-0.631	0.497
-732.996	-200.000	-0.023	-0.399
-731.981	151.936	-0.204	0.281
-730.966	-200.000	0.016	0.464
-729.952	29.213	0.397	0.341
-728.937	-200.000	0.300	0.000
-727.923	800.000	-0.243	-0.887
-726.908	800.000	-0.347	-1.002
-725.894	-5.107	0.569	0.396
-724.879	-58.522	0.507	-0.223
-723.864	-124.366	-0.290	-0.046
-722.850	-36.386	0.074	0.040
-721.835	-58.166	0.455	-0.201
-720.821	-61.799	0.257	0.109
-719.806	203.931	0.215	-0.336
-718.791	253.156	0.077	-0.134
-717.777	-30.895	-0.483	0.276
-716.762	-162.737	-0.882	-0.044
-715.748	1.502	0.319	0.232
-714.733	10.412	-0.826	-0.636
-713.718	-33.650	-0.175	-0.098
-712.704	-111.298	-1.127	0.233
-711.689	-97.018	0.714	0.189
-710.675	-136.294	-0.340	-0.040
-709.660	269.310	0.519	0.922
-708.645	-200.000	-0.004	0.314
-707.631	784.758	-0.230	0.637
-706.616	800.000	-0.058	0.218
-705.602	42.311	0.415	-0.381
-704.587	-84.301	0.475	0.152
-703.572	512.680	-0.389	-0.915
-702.558	-84.145	-0.330	-0.106
-701.543	800.000	0.092	-0.373
-700.529	-42.501	0.171	-0.088
-699.514	-74.291	0.106	0.039
-698.499	259.392	-0.327	-0.571
-697.485	134.704	-0.485	-0.636
-696.470	-57.270	-0.187	-0.083
-695.456	163.432	0.127	0.180
-694.441	-200.000	-0.054	-0.561
-693.426	-200.000	-0.005	-0.397
-692.412	32.760	-0.208	-0.182
-691.397	-36.273	0.239	0.131
-690.383	-74.323	0.720	-0.263
-689.368	-83.340	-0.199	0.065
-688.354	-43.620	-0.331	-0.169
-687.339	-140.369	-0.744	-0.078
-686.324	-17.275	-0.545	-0.347
-685.310	21.273	-0.117	0.096
-684.295	800.000	0.040	0.161
-683.281	-178.969	0.561	0.013
-682.266	-80.202	1.340	0.453
-681.251	-200.000	0.046	-0.397
-680.237	-47.328	0.146	-0.072
-679.222	114.439	-0.202	0.249
-678.208	-200.000	-0.103	-0.683
-677.193	-45.111	0.316	-0.159
-676.178	234.449	0.361	-0.601
-675.164	-31.391	1.098	-0.624
-674.149	86.185	0.499	0.556
-673.135	-200.000	0.058	0.300
-672.120	617.222	-0.231	0.586
-671.105	-78.067	-1.030	0.358
-670.091	0.678	-0.572	0.414
-669.076	51.955	0.771	0.741
-668.062	-200.000	0.010	0.692
-667.047	157.814	-0.534	-0.747
-666.032	58.392	-0.576	-0.571
-665.018	346.649	-0.410	-0.814
-664.003	140.094	0.460	-0.613
-662.989	-36.740	-0.644	-0.349
-661.974	-155.119	0.743	-0.049
-660.959	-89.119	-0.519	-0.155
-659.945	95.720	-0.169	-0.195
-658.930	26.920	0.262	-0.222
-657.916	-73.964	1.121	-0.410
-656.901	-40.251	-0.088	-0.046
-655.886	-99.501	-0.468	-0.119
-654.872	408.902	0.245	-0.524
-653.857	59.242	0.597	0.593
-652.843	-49.201	0.255	0.123
-651.828	-29.684	0.745	0.429
-650.814	378.621	0.153	-0.316
-649.799	307.313	0.142	0.267
-648.784	-102.715	-0.430	0.103
-647.770	282.565	0.187	0.339
-646.755	-127.423	0.477	-0.070
-645.741	14.796	0.197	0.155
-644.726	-135.793	-0.475	-0.057
-643.711	-172.620	-0.701	-0.022
-642.697	-69.385	0.565	-0.219
-641.682	800.000	-0.249	0.879
-640.668	422.085	-0.110	0.237
-639.653	153.926	0.426	-0.589
-638.638	92.855	0.617	-0.703
-637.624	-34.589	-0.997	-0.550
-636.609	-53.005	0.553	-0.257
-635.595	-200.000	0.149	0.822
-634.580	-90.984	0.337	0.098
-633.565	-66.800	-0.458	-0.183
-632.551	-93.352	-0.162	0.045
-631.536	-56.196	-0.562	0.252
-630.522	776.090	0.152	0.419
-629.507	-87.114	0.283	-0.087
-628.492	242.477	0.274	0.462
-627.478	-183.567	-0.703	0.012
-626.463	-5.124	-0.627	0.435
-625.449	800.000	-0.218	0.803
-624.434	245.343	-0.547	-0.928
-623.419	800.000	0.173	0.524
-622.405	-80.222	0.180	-0.061
-621.390	396.343	-0.663	1.395
-620.376	13.109	-0.551	0.430
-619.361	188.745	0.325	-0.490
-618.346	-54.565	0.654	-0.298
-617.332	-54.725	-0.621	-0.283
-616.317	800.000	-0.191	0.561
-615.303	147.707	-0.256	0.348
-614.288	-19.140	-1.213	0.759
-613.273	800.000	-0.083	-0.256
-612.259	-200.000	-0.008	-0.590
-611.244	-200.000	0.011	-0.813
-610.230	-89.570	-0.824	0.244
-609.215	-152.406	0.819	0.059
-608.201	-191.963	0.423	0.004
-607.186	161.821	-0.330	-0.466
-606.171	-90.059	-0.808	-0.237
-605.157	33.215	-0.487	0.425
-604.142	56.392	0.516	-0.506
-603.128	29.604	0.277	-0.237
-602.113	-200.000	-0.145	0.648
-601.098	-11.097	0.339	0.225
-600.084	-177.098	-0.406	-0.010
-599.069	-118.520	-0.388	-0.069
-598.055	-200.000	0.040	0.381
-597.040	75.128	0.486	0.516
-596.025	-200.000	-0.005	0.608
-595.011	-57.054	0.505	0.224
-593.996	-88.058	-0.812	-0.245
-592.982	316.131	-0.152	-0.288
-591.967	115.474	-0.348	-0.428
-590.952	-200.000	0.002	0.165
-589.938	-47.327	0.535	-0.262
-588.923	-200.000	-0.104	-0.470
-587.909	-108.110	-0.249	-0.054
-586.894	313.538	-0.266	0.504
-585.879	-174.918	-0.549	-0.016
-584.865	218.645	0.198	-0.318
-583.850	7.849	-0.171	-0.129
-582.836	-105.774	-0.569	0.129
-581.821	178.906	0.272	-0.400
-580.806	-200.000	0.028	-0.448
-579.792	-73.463	-0.385	0.141
-578.777	-96.350	-0.453	0.121
-577.763	-75.228	0.219	0.079
-576.748	-92.048	0.311	-0.088
-575.733	369.822	-0.275	-0.561
-574.719	800.000	-0.135	-0.556
-573.704	-85.887	0.844	-0.263
-572.690	-200.000	0.037	-0.365
-571.675	36.299	-0.781	-0.693
-570.661	-200.000	-0.110	-0.593
-569.646	-142.698	0.668	0.066
-568.631	-1.798	0.889	-0.630
-567.617	468.082	0.091	0.206
-566.602	622.811	-0.168	0.425
-565.588	637.767	0.207	-0.529
-564.573	31.098	0.444	0.383
-563.558	-200.000	-0.033	-0.220
-562.544	21.666	0.451	-0.369
-561.529	-200.000	0.010	-0.793
-560.515	-200.000	-0.034	-0.313
-559.500	800.000	0.138	0.425
-558.485	-29.222	0.384	0.221
-557.471	800.000	0.292	-0.943
-556.456	-15.621	0.839	0.538
-555.442	-28.889	0.378	-0.218
-554.427	157.076	0.426	-0.593
-553.412	-50.496	0.438	-0.208
-552.398	-89.874	-1.026	0.302
-551.383	164.860	-0.314	-0.446
-550.369	-200.000	0.019	0.459
-549.354	-200.000	0.056	0.499
-548.339	-57.518	0.721	0.318
-547.325	253.005	0.464	-0.795
-546.310	-200.000	0.038	-0.508
-545.296	58.683	-0.511	-0.504
-544.281	-134.185	0.660	0.082
-543.266	-2.163	0.303	0.214
-542.252	188.092	-0.682	-1.025
-541.237	314.477	-0.523	0.990
-540.223	76.050	-0.064	-0.068
-539.208	-131.168	0.850	-0.114
-538.193	-200.000	-0.005	0.074
-537.179	-17.098	0.475	-0.301
-536.164	417.017	-0.199	0.426
-535.150	-37.981	-0.322	0.172
-534.135	35.934	0.560	-0.495
-533.121	-126.133	0.788	-0.119
-532.106	5.447	-0.747	-0.553
-531.091	43.755	-0.747	0.687
-530.077	93.734	-0.431	0.490
-529.062	-192.973	-0.636	-0.006
-528.048	278.561	0.187	-0.335
-527.033	145.639	-0.175	-0.235
-526.018	-200.000	-0.002	-1.057
-525.004	-123.375	0.269	-0.043
-523.989	-113.341	-0.164	0.032
-522.975	-53.505	-0.848	0.390
-521.960	-86.531	-0.155	-0.048
-520.945	-8.933	0.704	-0.473
-519.931	-141.755	-0.680	-0.069
-518.916	-20.996	0.161	-0.099
-517.902	164.737	-0.289	-0.409
-516.887	-89.365	0.547	0.162
-515.872	151.898	0.235	-0.322
-514.858	800.000	-0.157	-0.541
-513.843	-64.870	-0.267	-0.108
-512.829	-30.534	-0.305	-0.174
-511.814	260.044	-0.181	0.314
-510.799	-110.613	-0.259	0.054
-509.785	67.040	-0.388	-0.396
-508.770	800.000	0.139	0.567
-507.756	-200.000	0.032	0.191
-506.741	107.832	0.470	-0.562
-505.726	-200.000	-0.021	-0.342
-504.712	45.330	0.278	0.258
-503.697	150.393	-0.059	0.080
-502.683	-200.000	0.036	-0.490
-501.668	-4.390	-0.282	0.195
-500.653	87.754	-0.251	0.279
-499.639	303.261	0.191	-0.356
-498.624	-113.194	-0.463	-0.091
-497.610	-200.000	-0.172	1.111
-496.595	-57.570	0.270	-0.119
-495.581	-108.394	0.631	0.136
-494.566	-0.871	0.281	0.200
-493.551	231.936	0.378	0.622
-492.537	25.549	-0.820	-0.684
-491.522	-123.234	0.571	-0.092
-490.508	800.000	-0.162	-0.506
-489.493	-43.992	0.249	0.126
-488.478	140.574	0.257	0.340
-487.464	-146.655	1.118	0.097
-486.449	800.000	-0.270	0.930
-485.435	-200.000	0.447	0.000
-484.420	239.809	0.183	0.306
-483.405	342.471	0.592	1.162
-482.391	196.554	0.323	-0.493
-481.376	-84.998	-0.571	-0.179
-480.362	-200.000	-0.127	-0.633
-479.347	-152.720	0.106	-0.008
-478.332	62.916	0.627	-0.629
-477.318	800.000	-0.199	-0.713
-476.303	-200.000	0.154	-0.899
-475.289	-96.710	0.294	-0.078
-474.274	-159.727	0.439	-0.024
-473.259	447.219	-0.080	-0.177
-472.245	-17.713	0.623	-0.392
-471.230	-28.891	0.292	0.168
-470.216	21.053	-0.477	-0.388
-469.201	-98.813	0.821	-0.209
-468.186	228.498	-0.207	0.337
-467.172	649.627	-0.112	0.286
-466.157	-187.385	0.507	0.007
-465.143	-17.791	-0.148	-0.093
-464.128	-200.000	-0.020	0.232
-463.113	-134.869	0.492	-0.060
-462.099	-200.000	0.076	0.721
-461.084	-200.000	-0.035	-0.360
-460.070	221.856	0.144	0.232
-459.055	169.635	0.341	-0.488
-458.040	-200.000	0.038	-0.678
-457.026	42.194	-0.661	-0.602
-456.011	117.047	0.248	-0.305
-454.997	-200.000	-0.008	-0.630
-453.982	-155.864	-0.236	-0.015
-452.968	800.000	-0.169	-0.568
-451.953	-96.760	-0.554	-0.146
-450.938	800.000	-0.218	-0.775
-449.924	-16.249	-0.243	0.154
-448.909	-148.916	-0.323	0.026
-447.895	-141.272	-0.149	-0.015
-446.880	302.369	0.492	0.911
-445.865	59.247	0.593	0.585
-444.851	187.574	-0.335	-0.500
-443.836	252.144	-0.073	0.124
-442.822	-200.000	-0.088	0.443
-441.807	-55.057	0.686	0.309
-440.792	-200.000	-0.094	-0.461
-439.778	-107.031	0.198	-0.044
-438.763	241.949	-0.457	-0.765
-437.749	214.418	0.043	0.067
-436.734	-200.000	-0.085	-0.522
-435.719	800.000	-0.158	0.517
-434.705	-200.000	0.055	0.254
-433.690	-200.000	0.479	-0.001
-432.676	-200.000	0.013	0.386
-431.661	-200.000	0.055	0.415
-430.646	-113.641	0.198	0.039
-429.632	-147.006	-0.127	0.011
-428.617	-138.757	-0.298	0.033
-427.603	-15.543	0.418	-0.267
-426.588	800.000	-0.125	-0.359
-425.573	-146.488	-0.115	-0.010
-424.559	72.046	-0.240	0.250
-423.544	-45.177	0.047	0.023
-422.530	-44.449	-0.480	0.240
-421.515	-65.422	-0.493	0.198
-420.500	-200.000	0.085	0.513
-419.486	593.051	0.305	0.754
-418.471	-200.000	0.007	0.129
-417.457	25.089	0.260	0.216
-416.442	800.000	-0.133	0.486
-415.428	-69.951	-0.309	0.118
-414.413	96.144	0.095	-0.108
-413.398	-169.115	0.253	0.009
-412.384	-169.511	0.419	-0.015
-411.369	72.376	0.343	-0.358
-410.355	-139.332	-1.178	-0.127
-409.340	-129.150	-0.371	0.052
-408.325	264.037	-0.116	0.201
-407.311	73.927	-0.751	0.787
-406.296	694.835	-0.122	-0.321
-405.282	-124.939	0.495	-0.076
-404.267	366.769	0.230	0.465
-403.252	241.243	-0.103	-0.172
-402.238	-160.386	1.562	0.084
-401.223	160.271	-0.055	0.077
-400.209	-136.934	0.916	-0.105
-399.194	224.938	-0.405	0.654
-398.179	-199.733	-0.005	0.000
-397.165	-50.518	-0.513	-0.242
-396.150	60.743	0.235	0.233
-395.136	-200.000	-0.065	0.610
-394.121	554.779	0.401	0.965
-393.106	-38.238	-0.646	0.342
-392.092	-133.666	-0.609	0.076
-391.077	-200.000	0.079	-0.706
-390.063	158.584	0.243	-0.337
-389.048	312.017	-0.421	0.789
-388.033	76.279	-0.525	-0.555
-387.019	-80.093	-0.614	-0.206
-386.004	800.000	0.158	-0.611
-384.990	-200.000	0.020	0.755
-383.975	34.246	-0.426	0.371
-382.960	-11.663	-0.658	-0.432
-381.946	40.407	-0.360	0.324
-380.931	-28.538	-0.764	-0.440
-379.917	-81.373	-0.296	0.097
-378.902	-200.000	0.041	0.279
-377.888	-200.000	0.021	0.389
-376.873	-200.000	0.033	-0.427
-375.858	42.907	-0.373	-0.340
-374.844	-54.007	-0.672	-0.306
-373.829	-142.223	-0.257	-0.025
-372.815	-200.000	-0.144	-0.984
-371.800	37.960	-0.374	0.331
-370.785	175.689	-0.645	-0.933
-369.771	-59.723	-0.205	-0.087
-368.756	-200.000	0.013	0.524
-367.742	-164.701	-0.279	0.013
-366.727	800.000	0.302	0.870
-365.712	-200.000	-0.046	-0.368
-364.698	-93.608	0.832	-0.229
-363.683	68.328	-0.070	-0.072
-362.669	-75.570	0.172	-0.061
-361.654	-80.407	1.467	-0.489
-360.639	800.000	0.085	-0.357
-359.625	675.715	-0.208	-0.539
-358.610	-174.257	0.672	-0.019
-357.596	-79.451	-0.193	-0.065
-356.581	-94.893	0.186	-0.050
-355.566	110.121	0.014	-0.017
-354.552	-136.322	0.540	0.063
-353.537	-200.000	0.008	0.178
-352.523	-200.000	-0.218	1.289
-351.508	111.175	-0.509	0.611
-350.493	92.478	0.340	-0.382
-349.479	212.557	0.462	-0.727
-348.464	-70.856	-0.763	0.287
-347.450	-64.178	0.203	-0.082
-346.435	89.422	-0.331	0.368
-345.420	-200.000	-0.079	0.441
-344.406	362.911	-0.019	-0.039
-343.391	79.571	-0.650	-0.695
-342.377	800.000	0.149	0.625
-341.362	-140.656	-1.127	0.116
-340.348	63.872	0.263	0.264
-339.333	76.286	0.559	0.591
-338.318	-200.000	0.054	0.546
-337.304	-83.695	-0.574	-0.183
-336.289	-112.928	0.555	0.110
-335.275	67.193	-0.702	-0.714
-334.260	-128.824	0.643	-0.090
-333.245	-200.000	-0.010	-0.344
-332.231	-116.509	0.644	0.118
-331.216	136.846	0.454	-0.592
-330.202	-151.077	0.438	-0.033
-329.187	-200.000	0.007	0.037
-328.172	-156.624	-0.845	0.052
-327.158	-50.242	0.699	0.329
-326.143	800.000	-0.133	0.392
-325.129	-93.007	-0.786	0.218
-324.114	-44.290	0.709	0.354
-323.099	-200.000	0.019	0.413
-322.085	-38.649	-0.524	0.275
-321.070	-178.277	0.088	-0.002
-320.056	469.382	-0.274	-0.612
-319.041	800.000	-0.076	0.331
-318.026	39.837	0.735	0.657
-317.012	-67.841	0.553	-0.215
-315.997	298.290	0.541	0.992
-314.983	-59.471	-0.516	-0.221
-313.968	-200.000	-0.044	-0.793
-312.953	311.718	0.503	0.940
-311.939	-78.810	0.615	0.209
-310.924	385.712	0.185	0.381
-309.910	-26.282	0.628	-0.367
-308.895	117.057	-0.060	0.073
-307.880	289.693	0.345	0.622
-306.866	-200.000	-0.034	0.412
-305.851	354.078	-0.280	0.554
-304.837	-66.784	0.669	0.264
-303.822	-103.860	0.394	-0.092
-302.807	-200.000	-0.096	0.716
-301.793	200.599	0.143	-0.218
-300.778	-38.605	-0.368	-0.194
-299.764	-185.361	-0.476	0.007
-298.749	491.562	0.261	-0.594
-297.735	-200.000	-0.038	-1.080
-296.720	800.000	0.072	-0.264
-295.705	-22.740	0.849	-0.510
-294.691	-165.640	-0.538	0.023
-293.676	-200.000	-0.071	0.359
-292.662	661.258	0.053	-0.137
-291.647	-11.117	0.451	-0.296
-290.632	800.000	-0.284	-1.058
-289.618	-200.000	0.018	0.911
-288.603	-126.687	0.353	0.052
-287.589	-200.000	0.064	-0.378
-286.574	77.360	-0.425	0.450
-285.559	97.335	-0.471	-0.538
-284.545	490.265	0.237	-0.538
-283.530	-200.000	-0.035	0.320
-282.516	-200.000	0.017	0.916
-281.501	-15.826	0.326	0.206
-280.486	-108.803	0.124	0.026
-279.472	-60.035	0.670	0.284
-278.457	323.833	0.146	0.277
-277.443	-200.000	-0.114	0.742
-276.428	319.275	-0.389	0.734
-275.413	246.941	-0.091	0.153
-274.399	13.129	-0.149	0.115
-273.384	800.000	-0.031	-0.095
-272.370	120.085	0.589	-0.726
-271.355	353.579	0.134	0.265
-270.340	-102.498	-0.691	-0.164
-269.326	217.393	-0.102	-0.161
-268.311	336.547	-0.307	0.593
-267.297	710.671	-0.246	0.647
-266.282	194.364	0.285	0.429
-265.267	-32.543	0.437	0.242
-264.253	800.000	-0.259	1.004
-263.238	-83.766	0.011	-0.003
-262.224	-134.465	0.925	0.113
-261.209	-75.900	-0.092	-0.032
-260.195	17.461	0.597	0.471
-259.180	209.087	-0.162	0.252
-258.165	655.626	-0.239	0.610
-257.151	197.289	0.315	-0.478
-256.136	360.025	0.267	-0.531
-255.122	465.274	0.135	-0.299
-254.107	-112.915	-0.314	0.062
-253.092	-87.511	0.515	-0.155
-252.078	-31.803	-0.597	0.332
-251.063	-127.061	0.109	0.016
-250.049	-200.000	0.000	-0.306
-249.034	509.551	-0.212	-0.489
-248.019	144.581	-0.161	0.213
-247.005	-200.000	-0.008	-0.061
-245.990	800.000	0.134	-0.499
-244.976	-3.148	-0.546	-0.378
-243.961	800.000	0.091	0.336
-242.946	192.234	-0.525	-0.786
-241.932	-109.623	0.701	-0.147
-240.917	-131.848	-0.434	-0.056
-239.903	155.689	-0.098	-0.134
-238.888	800.000	0.247	0.728
-237.873	-121.044	0.201	-0.033
-236.859	-70.010	0.509	-0.193
-235.844	-87.658	-0.302	-0.091
-234.830	-151.690	0.273	0.020
-233.815	800.000	0.176	-0.731
-232.800	800.000	-0.158	0.548
-231.786	269.171	0.160	-0.279
-230.771	-148.508	-0.016	0.001
-229.757	7.569	0.606	0.450
-228.742	-171.810	-0.335	0.011
-227.727	800.000	-0.181	-0.571
-226.713	-150.671	0.362	-0.027
-225.698	-200.000	-0.033	0.511
-224.684	152.667	-0.093	0.126
-223.669	479.230	-0.205	0.460
-222.655	20.930	-0.180	0.145
-221.640	545.816	-0.149	0.354
-220.625	-36.960	0.402	0.214
-219.611	800.000	0.213	0.619
-218.596	-65.441	-1.010	-0.403
-217.582	-42.814	0.490	0.247
-216.567	155.573	0.090	0.123
-215.552	39.480	0.368	-0.327
-214.538	-79.359	1.009	0.339
-213.523	-200.000	-0.130	-0.614
-212.509	-90.360	-0.460	0.132
-211.494	33.787	0.665	0.574
-210.479	-200.000	-0.023	-0.543
-209.465	333.341	0.340	-0.651
-208.450	-200.000	-0.041	0.366
-207.436	-169.871	-0.270	0.010
-206.421	10.852	0.359	-0.272
-205.406	-96.192	0.744	-0.196
-204.392	712.643	0.236	-0.619
-203.377	-48.165	-0.197	-0.095
-202.363	207.247	-0.547	0.847
-201.348	-200.000	0.121	0.707
-200.333	-200.000	0.011	0.252
-199.319	73.149	0.394	-0.409
-198.304	182.812	-0.415	-0.607
-197.290	136.324	0.303	-0.391
-196.275	-94.143	-0.249	-0.068
-195.260	-129.356	0.753	-0.104
-194.246	91.874	0.122	-0.136
-193.231	182.319	0.073	0.107
-192.217	-200.000	0.004	0.254
-191.202	396.979	-0.212	0.440
-190.187	-95.052	-0.738	0.198
-189.173	-88.449	-0.824	-0.244
-188.158	32.882	0.276	-0.237
-187.144	12.630	-0.234	-0.179
-186.129	-200.000	-0.172	-0.780
-185.114	-200.000	-0.025	-0.323
-184.100	-200.000	0.046	-0.459
-183.085	-200.000	-0.128	0.866
-182.071	-200.000	0.013	0.805
-181.056	-200.000	-0.020	-0.410
-180.042	-93.155	-0.241	-0.066
-179.027	-32.994	0.419	-0.230
-178.012	-175.452	-0.494	0.013
-176.998	-200.000	-0.022	0.226
-175.983	127.773	-0.356	0.448
-174.969	-124.252	-0.745	0.115
-173.954	316.278	0.087	0.162
-172.939	58.544	-0.620	0.602
-171.925	-95.612	-1.014	-0.269
-170.910	-200.000	0.015	-0.345
-169.896	630.801	0.233	-0.585
-168.881	-112.279	-0.308	0.061
-167.866	-69.030	0.179	0.068
-166.852	38.432	-0.136	-0.120
-165.837	12.254	0.207	-0.158
-164.823	-81.344	-0.238	0.078
-163.808	-91.724	-0.971	-0.273
-162.793	-200.000	0.011	0.532
-161.779	-96.776	-0.160	0.042
-160.764	-57.262	0.569	-0.248
-159.750	319.235	0.433	0.812
-158.735	-200.000	0.067	-0.883
-157.720	652.276	-0.268	-0.680
-156.706	-142.955	0.260	-0.025
-155.691	-144.440	-0.614	0.056
-154.677	734.083	-0.115	-0.303
-153.662	-191.179	0.781	0.008
-152.647	-200.000	0.027	0.429
-151.633	-21.149	-0.224	-0.135
-150.618	800.000	-0.056	0.168
-149.604	800.000	0.167	-0.576
-148.589	167.325	-0.498	0.700
-147.574	-111.366	0.849	0.171
-146.560	-30.801	0.286	0.160
-145.545	-157.675	0.670	-0.040
-144.531	57.156	0.520	0.502
-143.516	-200.000	-0.110	-0.652
-142.502	-196.003	0.173	0.001
-141.487	250.543	0.149	-0.250
-140.472	-200.000	0.057	0.288
-139.458	800.000	0.072	0.280
-138.443	17.185	0.192	0.151
-137.429	-200.000	-0.023	-0.363
-136.414	-200.000	0.015	-0.227
-135.399	-114.247	0.875	0.167
-134.385	-71.005	-0.756	-0.281
-133.370	-0.737	-0.109	0.076
-132.356	-200.000	0.088	1.045
-131.341	193.663	0.415	-0.620
-130.326	157.795	0.252	-0.345
-129.312	83.022	0.334	-0.359
-128.297	-4.359	0.453	0.310
-127.283	-63.983	-0.457	0.185
-126.268	800.000	-0.120	0.403
-125.253	-69.833	0.771	0.291
-124.239	119.912	0.154	-0.189
-123.224	800.000	0.240	0.677
-122.210	-200.000	-0.059	0.734
-121.195	-200.000	-0.067	0.571
-120.180	-53.924	0.389	-0.175
-119.166	-73.030	-0.242	-0.088
-118.151	-73.466	-0.191	0.069
-117.137	-61.795	0.568	-0.235
-116.122	800.000	-0.035	-0.144
-115.107	-116.847	-0.414	0.075
-114.093	-200.000	-0.085	-0.497
-113.078	202.368	0.212	-0.323
-112.064	83.831	-0.187	0.202
-111.049	79.612	0.111	0.118
-110.034	83.684	0.393	-0.423
-109.020	243.516	0.433	0.718
-108.005	-86.037	-0.339	0.104
-106.991	-142.684	-0.232	0.022
-105.976	800.000	0.092	-0.259
-104.962	-8.939	-0.821	0.543
-103.947	-24.603	0.521	-0.306
-102.932	26.054	-0.680	0.560
-101.918	744.731	-0.209	-0.555
-100.903	-93.067	0.650	-0.179
-99.889	-22.507	0.624	0.373
-98.874	11.025	0.413	-0.312
-97.859	-82.890	0.787	-0.251
-96.845	63.694	-0.218	0.216
-95.830	153.384	-0.152	-0.205
-94.816	26.276	0.193	0.159
-93.801	-96.956	0.325	0.084
-92.786	97.541	0.358	-0.406
-91.772	53.044	0.365	0.345
-90.757	217.516	-0.497	0.783
-89.743	-200.000	0.007	0.444
-88.728	-50.255	0.182	0.085
-87.713	800.000	0.228	0.867
-86.699	800.000	0.114	0.402
-85.684	-120.735	0.402	-0.067
-84.670	-101.416	0.132	0.032
-83.655	-11.824	0.596	-0.386
-82.640	35.470	-0.119	0.103
-81.626	-200.000	-0.095	-0.531
-80.611	-200.000	-0.005	0.433
-79.597	800.000	-0.078	0.219
-78.582	-200.000	-0.053	-0.247
-77.567	-103.728	0.819	0.189
-76.553	55.619	-0.651	-0.622
-75.538	-200.000	0.030	-0.236
-74.524	14.383	0.240	-0.185
-73.509	800.000	-0.117	0.321
-72.494	208.808	-0.184	0.285
-71.480	-138.855	-0.216	-0.023
-70.465	-46.174	-0.297	0.144
-69.451	110.157	0.697	0.826
-68.436	800.000	0.033	0.090
-67.422	-85.488	-0.344	0.106
-66.407	301.619	-0.198	-0.361
-65.392	151.779	0.473	0.636
-64.378	183.294	0.513	0.748
-63.363	-34.181	0.306	0.166
-62.349	18.499	0.538	0.424
-61.334	1.631	-1.073	-0.762
-60.319	800.000	0.381	1.505
-59.305	800.000	0.331	-1.374
-58.290	66.830	1.089	1.093
-57.276	532.347	0.790	1.843
-56.261	-200.000	96.302	571.397
-55.246	630.983	1374.894	3430.668
-54.232	198.783	2543.690	3839.445
-53.217	116.553	2153.202	2603.254
-52.203	43.779	1699.705	1533.939
-51.188	36.696	1514.621	1318.795
-50.173	34.237	1487.279	1278.447
-49.159	54.539	1538.741	1461.758
-48.144	55.151	1557.284	1483.495
-47.130	36.574	1515.909	1318.870
-46.115	33.669	1500.645	1285.883
-45.100	33.457	1497.133	1281.391
-44.086	33.316	1495.357	1278.870
-43.071	33.371	1493.519	1277.619
-42.057	33.221	1492.353	1275.556
-41.042	33.375	1490.264	1274.754
-40.027	33.458	1489.376	1274.508
-39.013	33.160	1488.872	1272.021
-37.998	33.307	1486.331	1270.789
-36.984	33.378	1484.948	1270.031
-35.969	33.316	1484.644	1269.301
-34.954	33.560	1481.515	1268.212
-33.940	33.349	1480.569	1265.939
-32.925	33.426	1479.084	1265.132
-31.911	33.523	1477.700	1264.549
-30.896	33.539	1476.471	1263.550
-29.881	33.526	1474.629	1261.840
-28.867	33.329	1474.296	1260.190
-27.852	33.400	1473.229	1259.701
-26.838	33.361	1471.972	1258.319
-25.823	33.521	1470.449	1258.029
-24.809	33.416	1467.412	1254.688
-23.794	33.239	1468.138	1254.085
-22.779	33.324	1466.343	1253.060
-21.765	33.368	1464.793	1251.982
-20.750	33.511	1463.848	1252.065
-19.736	33.552	1462.749	1251.347
-18.721	33.377	1462.519	1249.945
-17.706	33.309	1461.723	1248.767
-16.692	33.476	1458.895	1247.404
-15.677	33.352	1459.402	1246.971
-14.663	33.348	1457.193	1245.006
-13.648	33.383	1455.896	1244.080
-12.633	33.438	1455.596	1244.131
-11.619	33.320	1454.766	1242.601
-10.604	33.429	1453.433	1242.129
-9.590	33.185	1452.938	1240.056
-8.575	33.375	1451.920	1240.381
-7.560	33.150	1451.644	1238.621
-6.546	33.450	1449.889	1239.038
-5.531	33.297	1450.032	1238.111
-4.517	33.234	1448.982	1236.751
-3.502	33.255	1447.375	1235.471
-2.487	33.305	1446.572	1235.063
-1.473	33.169	1446.466	1234.037
-0.458	33.455	1444.043	1233.782
0.556	34.615	1435.219	1222.041
1.571	31.580	1409.280	1180.734
2.586	27.873	1348.713	1107.457
3.600	25.856	1268.748	1030.183
4.615	24.616	1222.216	985.481
5.629	21.013	1165.468	920.656
6.644	11.537	1081.998	807.976
7.659	4.088	1040.443	741.330
8.673	3.186	1035.455	733.415
9.688	3.063	1031.099	729.684
10.702	2.893	1029.745	727.853
11.717	3.058	1027.363	726.886
12.731	6.410	1029.739	744.367
13.746	15.804	1043.857	799.327
14.761	23.532	1054.245	844.135
15.775	25.655	1056.397	855.894
16.790	26.160	1055.311	857.336
17.804	25.861	1055.757	856.201
18.819	25.697	1053.627	853.622
19.834	26.110	1053.244	855.195
20.848	25.818	1054.220	854.527
21.863	26.015	1053.399	854.716
22.877	26.032	1052.615	854.086
23.892	25.928	1051.719	852.791
24.907	25.933	1051.600	852.642
25.921	25.780	1050.060	850.599
26.936	25.871	1049.498	850.495
27.950	25.898	1048.395	849.655
28.965	25.939	1047.683	849.195
29.980	25.672	1046.488	846.897
30.994	25.695	1044.657	845.447
32.009	25.472	1045.641	845.121
33.023	25.954	1043.724	845.759
34.038	25.852	1042.788	844.445
35.053	25.868	1041.973	843.787
36.067	25.971	1040.561	843.050
37.082	25.810	1040.568	842.227
38.096	25.696	1039.269	840.569
39.111	26.332	1038.099	842.514
40.126	26.210	1037.605	841.470
41.140	25.653	1037.391	838.629
42.155	25.922	1035.403	838.200
43.169	25.454	1034.987	835.609
44.184	25.407	1033.932	834.466
45.199	25.503	1032.577	833.745
46.213	25.421	1032.133	832.931
47.228	25.498	1031.407	832.630
48.242	25.988	1029.692	833.435
49.257	25.888	1029.460	832.713
50.271	25.641	1029.722	831.708
51.286	25.619	1028.969	830.925
52.301	25.782	1028.605	831.310
53.315	25.872	1027.329	830.619
54.330	25.799	1026.817	829.796
55.344	25.767	1026.039	828.946
56.359	25.768	1024.951	828.002
57.374	26.280	1023.693	829.261
58.388	25.563	1023.383	825.645
59.403	25.688	1023.303	826.084
60.417	25.635	1021.713	824.485
61.432	25.411	1021.513	823.223
62.447	25.544	1021.160	823.475
63.461	25.833	1019.855	823.670
64.476	25.615	1019.519	822.328
65.490	25.483	1017.634	820.134
66.505	25.270	1018.500	819.785
67.520	25.446	1017.127	819.412
68.534	25.553	1016.409	819.247
69.549	25.539	1015.417	818.313
70.563	25.450	1014.016	816.706
71.578	25.096	1013.186	814.357
72.593	25.164	1012.452	814.005
73.607	25.149	1010.983	812.682
74.622	25.104	1010.379	811.924
75.636	25.511	1009.031	812.606
76.651	25.620	1008.475	812.579
77.666	25.473	1008.273	811.682
78.680	25.268	1007.564	810.114
79.695	25.477	1007.300	810.772
80.709	25.238	1005.963	808.548
81.724	25.880	1004.322	810.047
82.739	25.630	1004.352	808.873
83.753	25.484	1003.526	807.482
84.768	25.877	1003.321	809.009
85.782	26.291	1002.427	810.072
86.797	26.055	1002.479	808.986
87.812	26.464	1000.563	809.197
88.826	26.088	1000.389	807.304
89.841	25.888	999.424	805.557
90.855	26.357	998.745	807.037
91.870	26.502	998.074	807.067
92.884	26.353	997.552	805.911
93.899	26.303	996.446	804.723
94.914	25.880	996.825	803.071
95.928	26.044	994.846	802.138
96.943	26.258	994.460	802.705
97.957	25.997	993.174	800.437
98.972	25.783	992.164	798.606
99.987	25.383	991.302	796.068
101.001	25.851	989.749	796.821
102.016	25.959	989.960	797.399
103.030	25.953	989.239	796.718
104.045	26.023	988.422	796.299
105.060	26.192	987.228	796.012
106.074	25.836	985.902	793.306
107.089	26.137	985.220	794.012
108.103	25.800	985.813	792.934
109.118	25.954	984.783	792.715
110.133	25.847	983.089	790.811
111.147	25.918	982.437	790.528
112.162	25.691	981.642	788.825
113.176	25.664	979.262	786.725
114.191	25.762	979.045	786.906
115.206	25.925	978.676	787.251
116.220	25.411	977.374	783.895
117.235	25.352	976.820	783.124
118.249	25.394	977.050	783.422
119.264	25.355	975.270	781.757
120.279	25.352	974.573	781.114
121.293	25.287	974.358	780.590
122.308	25.623	973.108	780.978
123.322	25.590	972.210	780.048
124.337	25.474	971.563	778.955
125.352	25.719	969.921	778.628
126.366	25.185	968.010	774.719
127.381	24.871	967.787	773.116
128.395	25.388	966.980	774.633
129.410	25.886	966.752	776.531
130.424	25.672	966.670	775.472
131.439	25.786	966.001	775.360
132.454	26.122	964.259	775.338
133.468	25.994	963.426	774.049
134.483	25.953	962.299	772.898
135.497	25.739	962.653	772.195
136.512	26.141	961.285	772.754
137.527	25.713	961.989	771.417
138.541	26.368	960.299	772.792
139.556	26.065	959.985	771.177
140.570	26.146	958.550	770.301
141.585	26.440	957.325	770.503
142.600	26.097	957.635	769.220
143.614	26.303	956.889	769.432
144.629	26.262	955.930	768.420
145.643	26.300	955.397	768.084
146.658	26.383	954.801	767.888
147.673	26.022	952.664	764.574
148.687	26.369	951.085	764.703
149.702	26.175	951.472	764.127
150.716	25.855	950.543	761.961
151.731	25.672	949.134	759.990
152.746	26.250	947.552	761.094
153.760	25.859	948.245	759.934
154.775	26.120	947.178	760.112
155.789	26.341	946.399	760.350
156.804	26.497	944.916	759.746
157.819	26.161	944.442	757.887
158.833	26.455	944.311	758.946
159.848	26.637	942.921	758.526
160.862	26.411	942.728	757.355
161.877	26.506	940.601	755.977
162.892	26.042	941.293	754.529
163.906	26.508	939.104	754.649
164.921	26.181	938.884	753.041
165.935	26.573	936.159	752.418
166.950	26.446	936.942	752.456
167.964	26.462	936.092	751.770
168.979	26.195	935.529	750.144
169.994	26.373	934.127	749.692
171.008	26.316	933.257	748.691
172.023	26.301	932.807	748.200
173.037	26.569	931.325	748.055
174.052	26.275	931.127	746.615
175.067	26.158	930.073	745.222
176.081	26.141	928.360	743.712
177.096	26.314	927.965	744.043
178.110	26.107	926.862	742.241
179.125	26.117	926.926	742.267
180.140	25.808	926.505	740.593
181.154	25.692	924.995	738.846
182.169	25.841	925.090	739.469
183.183	26.463	923.876	740.978
184.198	26.767	922.454	741.016
185.213	26.505	922.293	739.752
186.227	26.090	922.858	738.442
187.242	26.545	922.244	739.744
188.256	26.650	920.888	739.020
189.271	26.240	921.555	737.815
190.286	26.524	920.337	737.932
191.300	26.447	919.090	736.554
192.315	26.124	917.238	733.691
193.329	24.869	916.786	728.166
194.344	24.709	916.038	726.856
195.359	25.357	915.505	728.998
196.373	26.053	915.912	732.085
197.388	26.496	915.730	733.672
198.402	26.595	914.590	733.092
199.417	26.355	914.633	732.091
200.432	26.663	913.774	732.585
201.446	26.616	913.606	732.195
202.461	26.081	913.254	729.685
203.475	26.349	912.651	730.221
204.490	25.897	910.884	726.920
205.504	24.976	909.206	721.810
206.519	25.160	908.577	721.988
207.534	25.856	909.151	725.182
208.548	26.111	908.847	725.899
209.563	26.537	908.486	727.260
210.577	26.301	907.564	725.510
211.592	26.196	906.426	724.115
212.607	26.503	906.102	725.024
213.621	26.731	905.785	725.619
214.636	26.945	905.399	726.099
215.650	26.828	905.260	725.454
216.665	26.568	904.165	723.476
217.680	26.652	904.009	723.622
218.694	26.433	904.245	722.873
219.709	26.457	902.318	721.362
220.723	26.441	901.620	720.678
221.738	26.558	901.056	720.631
222.753	26.670	900.354	720.450
223.767	26.373	900.062	718.971
224.782	26.399	898.987	718.153
225.796	26.962	898.184	719.680
226.811	26.686	897.786	718.204
227.826	26.231	897.830	716.372
228.840	25.653	896.515	712.970
229.855	25.510	895.758	711.737
230.869	25.880	895.753	713.137
231.884	25.512	894.481	710.605
232.899	25.746	893.505	710.690
233.913	26.336	893.356	712.838
234.928	26.467	892.417	712.541
235.942	26.400	892.728	712.462
236.957	26.424	892.033	711.939
237.972	25.758	890.664	708.166
238.986	25.765	889.910	707.531
240.001	26.216	889.434	708.860
241.015	26.191	888.983	708.340
242.030	26.166	888.685	707.942
243.045	26.368	888.396	708.439
244.059	26.642	887.176	708.476
245.074	26.634	886.979	708.223
246.088	26.708	886.455	708.032
247.103	26.407	885.127	705.734
248.117	26.546	884.512	705.724
249.132	26.925	884.345	707.005
250.147	27.208	884.571	708.225
251.161	27.086	885.251	708.231
252.176	27.659	883.918	709.333
253.190	27.447	883.567	708.164
254.205	27.401	882.524	707.088
255.220	27.532	882.951	707.874
256.234	27.429	882.156	706.775
257.249	27.098	882.174	705.444
258.263	27.119	881.197	704.680
259.278	27.312	880.264	704.618
260.293	27.259	879.941	704.094
261.307	27.544	878.992	704.373
262.322	27.430	878.121	703.171
263.336	27.548	877.141	702.781
264.351	26.455	877.584	698.855
265.366	25.811	874.971	694.231
266.380	25.371	874.758	692.303
267.395	26.434	874.016	695.747
268.409	27.031	874.081	698.033
269.424	26.892	874.430	697.714
270.439	26.693	874.166	696.676
271.453	27.054	872.328	696.537
272.468	27.198	872.083	696.832
273.482	27.677	870.946	697.693
274.497	27.321	871.771	696.929
275.512	27.718	869.589	696.641
276.526	26.856	869.347	693.092
277.541	27.154	868.736	693.679
278.555	27.417	868.072	694.093
279.570	27.261	867.459	692.947
280.585	27.208	867.883	693.022
281.599	27.119	867.219	692.091
282.614	26.618	866.896	689.863
283.628	26.650	865.462	688.785
284.643	26.566	863.910	687.170
285.657	26.721	864.340	688.037
286.672	26.932	862.526	687.332
287.687	26.161	863.215	684.899
288.701	26.337	863.946	686.084
289.716	26.810	863.198	687.224
290.730	26.633	860.414	684.276
291.745	26.480	860.068	683.363
292.760	26.834	858.641	683.505
293.774	26.541	857.992	681.825
294.789	27.424	859.322	686.149
295.803	27.671	859.824	687.423
296.818	28.169	858.711	688.343
297.833	28.164	858.476	688.075
298.847	27.409	857.262	684.207
299.862	27.463	855.832	683.207
300.876	27.611	855.270	683.254
301.891	28.123	854.279	684.315
302.906	27.606	855.331	683.161
303.920	27.781	853.392	682.205
304.935	27.731	853.145	681.763
305.949	27.726	853.237	681.755
306.964	27.760	853.106	681.718
307.979	27.658	851.860	680.281
308.993	27.161	851.844	678.354
310.008	27.896	850.795	680.198
311.022	27.767	850.973	679.801
312.037	27.822	850.462	679.536
313.052	27.772	849.019	678.138
314.066	27.429	848.923	676.727
315.081	26.932	847.689	673.837
316.095	26.166	845.894	669.510
317.110	26.668	846.224	671.574
318.125	27.343	846.214	674.009
319.139	26.809	846.137	671.910
320.154	26.039	843.574	666.970
321.168	25.626	843.204	665.091
322.183	26.063	843.321	666.741
323.197	26.837	843.719	669.855
324.212	27.012	843.267	670.083
325.227	27.159	842.768	670.170
326.241	27.486	842.245	670.899
327.256	27.973	841.554	672.082
328.270	27.519	840.741	669.705
329.285	27.482	840.148	669.037
330.300	27.065	840.128	667.428
331.314	26.756	838.894	665.256
332.329	27.027	838.518	665.895
333.343	27.291	839.050	667.224
334.358	27.274	838.247	666.465
335.373	27.434	837.693	666.553
336.387	27.935	836.481	667.359
337.402	27.948	836.764	667.572
338.416	28.005	836.161	667.241
339.431	28.284	835.589	667.743
340.446	28.038	835.870	667.011
341.460	28.171	835.043	666.777
342.475	28.310	833.918	666.324
343.489	28.469	833.100	666.189
344.504	28.575	832.144	665.751
345.519	28.394	832.476	665.302
346.533	28.135	833.009	664.728
347.548	28.548	832.511	665.770
348.562	28.713	831.446	665.460
349.577	28.265	831.442	663.771
350.592	28.114	830.902	662.734
351.606	28.399	829.943	662.943
352.621	28.098	828.713	660.814
353.635	28.830	827.305	662.272
354.650	28.656	826.988	661.331
355.665	27.987	827.172	659.009
356.679	27.018	825.926	654.468
357.694	26.703	825.606	653.021
358.708	27.527	824.983	655.436
359.723	27.232	824.618	654.028
360.738	27.759	824.784	655.997
361.752	28.071	824.677	656.974
362.767	28.366	823.962	657.406
363.781	28.123	823.993	656.502
364.796	28.799	823.475	658.454
365.810	28.590	823.483	657.654
366.825	29.021	822.505	658.355
367.840	29.017	821.937	657.830
368.854	28.757	821.810	656.739
369.869	28.127	821.073	653.841
370.883	28.359	820.908	654.480
371.898	28.237	820.292	653.496
372.913	28.381	819.510	653.330
373.927	28.039	818.648	651.364
374.942	28.005	818.047	650.708
375.956	28.265	818.034	651.566
376.971	28.724	815.442	651.071
377.986	28.695	815.813	651.208
379.000	28.734	816.157	651.562
380.015	29.209	815.315	652.517
381.029	29.086	814.433	651.318
382.044	28.501	813.848	648.722
383.059	28.642	814.411	649.614
384.073	29.021	813.510	650.176
385.088	29.002	812.598	649.322
386.102	29.214	811.676	649.275
387.117	28.482	811.294	646.333
388.132	28.473	811.199	646.168
389.146	28.000	810.053	643.534
390.161	27.666	809.570	641.918
391.175	27.942	808.814	642.231
392.190	28.609	808.871	644.565
393.205	28.811	808.309	644.769
394.219	27.812	807.031	640.190
395.234	25.911	804.561	631.521
396.248	25.192	803.370	628.015
397.263	25.949	805.007	631.891
398.278	27.468	806.544	638.371
399.292	28.020	806.166	639.948
400.307	27.893	804.991	638.516
401.321	27.902	804.376	638.003
402.336	28.023	804.677	638.609
403.350	28.677	803.443	639.851
404.365	28.650	804.131	640.251
405.380	29.518	803.619	642.809
406.394	29.411	803.828	642.548
407.409	29.683	802.868	642.669
408.423	29.734	802.288	642.327
409.438	29.581	802.073	641.563
410.453	29.383	802.336	641.029
411.467	29.769	801.328	641.507
412.482	29.468	800.881	640.049
413.496	29.572	800.438	640.000
414.511	29.766	800.696	640.819
415.526	29.120	800.096	638.047
416.540	29.214	799.373	637.740
417.555	29.692	798.828	638.901
418.569	29.055	797.785	635.812
419.584	29.079	797.879	635.912
420.599	28.906	797.648	635.073
421.613	159.930	1370.607	1793.652
422.628	138.716	1454.124	1793.732
