DTS Sentinel unit serial number:	SN413079Multiplexer serial number:	ORYXHardware model number:	OX4-SRSoftware version number:	ORYX F/W v4.00 Oryx Data Collector v3.7.2.0data status	okinstallation	princeton_trtdifferential loss correction	single-endedforward channel	channel 2reverse channel	N/Adate	2019/09/12time	03:49:11forward acquisition time	60.00reverse acquisition time	0.00gamma	496.2192k internal	0.2326k external	0.2326temperature offset calibration	1.0095default loss term (dB/km)	0.3790temperature slope calibration	1.0000multiplexer offset coefficient	1.0000multiplexer slope coefficient	1.0000fibre end	0.00T internal ref (°C)	32.16T ext. ref 1 (°C)	2.16T ext. ref 2 (°C)	27.28length (m)	temperature (°C)	Stokes	anti-Stokes-747.200	321.311	-0.097	0.187
-746.185	443.212	-0.087	0.191
-745.171	1.454	0.358	-0.260
-744.156	-116.994	0.378	0.070
-743.142	-163.895	-0.086	0.004
-742.127	-132.916	-0.253	0.032
-741.112	-30.514	-0.229	0.131
-740.098	415.539	-0.120	0.258
-739.083	-117.834	0.049	0.009
-738.069	800.000	-0.100	0.284
-737.054	133.771	0.110	0.143
-736.039	-133.703	-0.258	-0.032
-735.025	38.639	0.204	-0.184
-734.010	27.817	-0.190	0.161
-732.996	-200.000	-0.002	0.240
-731.981	217.071	-0.095	0.153
-730.966	-100.865	0.300	-0.074
-729.952	153.359	-0.153	-0.210
-728.937	-152.088	-0.474	0.035
-727.923	231.792	-0.206	0.341
-726.908	-29.923	0.192	0.110
-725.894	295.417	0.133	-0.246
-724.879	-200.000	0.012	-0.079
-723.864	-126.861	0.057	-0.008
-722.850	-200.000	0.025	0.118
-721.835	13.896	-0.041	0.032
-720.821	178.502	0.036	-0.053
-719.806	165.450	-0.080	0.114
-718.791	354.220	-0.178	0.357
-717.777	100.882	-0.172	-0.201
-716.762	-49.700	-0.183	0.088
-715.748	-200.000	-0.060	0.435
-714.733	-14.251	0.285	-0.185
-713.718	-87.869	0.432	-0.131
-712.704	334.206	0.041	0.080
-711.689	439.284	0.159	-0.350
-710.675	-1.748	0.317	0.225
-709.660	-51.979	0.121	0.057
-708.645	-56.886	0.157	0.070
-707.631	238.659	-0.102	0.170
-706.616	800.000	0.048	0.137
-705.602	-165.027	-0.145	0.007
-704.587	102.202	-0.085	0.100
-703.572	84.310	-0.143	0.157
-702.558	-200.000	0.040	-0.336
-701.543	-26.010	0.258	0.153
-700.529	-104.661	0.116	-0.027
-699.514	-112.815	0.170	0.034
-698.499	306.690	0.050	-0.094
-697.485	-145.422	-0.100	0.009
-696.470	-63.767	-0.160	0.066
-695.456	-35.190	0.113	0.062
-694.441	-155.824	0.196	-0.013
-693.426	-100.778	-0.086	-0.021
-692.412	169.121	0.112	-0.161
-691.397	78.483	0.056	-0.060
-690.383	61.356	-0.078	0.078
-689.368	-200.000	-0.047	0.230
-688.354	-138.238	0.247	-0.028
-687.339	-29.270	-0.213	0.123
-686.324	800.000	-0.061	0.184
-685.310	-70.239	-0.294	0.113
-684.295	-200.000	0.001	0.049
-683.281	352.402	-0.052	0.104
-682.266	274.768	-0.102	-0.182
-681.251	800.000	-0.079	0.284
-680.237	471.909	0.085	0.193
-679.222	-45.763	-0.150	0.075
-678.208	800.000	-0.160	0.454
-677.193	-200.000	0.025	-0.557
-676.178	210.933	-0.204	0.322
-675.164	467.385	0.119	-0.268
-674.149	800.000	-0.040	0.154
-673.135	32.027	0.087	0.075
-672.120	-200.000	-0.019	0.106
-671.105	300.521	-0.166	-0.308
-670.091	45.798	0.063	0.059
-669.076	-200.000	-0.027	-0.150
-668.062	800.000	-0.054	0.152
-667.047	-200.000	-0.040	-0.182
-666.032	-200.000	0.009	-0.183
-665.018	-200.000	-0.025	-0.224
-664.003	-200.000	0.008	0.233
-662.989	238.897	-0.065	-0.108
-661.974	93.692	0.066	0.076
-660.959	75.641	-0.109	-0.116
-659.945	330.398	0.091	-0.176
-658.930	-193.721	0.172	0.001
-657.916	273.753	0.182	0.324
-656.901	-129.170	0.080	0.011
-655.886	-119.305	0.191	-0.033
-654.872	-80.701	-0.065	0.022
-653.857	1.360	0.156	0.113
-652.843	-26.439	-0.465	0.274
-651.828	-200.000	-0.026	-0.302
-650.814	-200.000	-0.028	-0.201
-649.799	-200.000	-0.029	-0.461
-648.784	800.000	0.072	0.245
-647.770	-15.757	-0.376	-0.241
-646.755	-124.145	-0.197	-0.031
-645.741	-73.047	-0.308	-0.113
-644.726	-200.000	0.074	-0.357
-643.711	-44.868	0.049	-0.024
-642.697	800.000	-0.116	0.434
-641.682	-116.366	-0.213	0.040
-640.668	-34.107	-0.310	0.171
-639.653	800.000	0.166	0.462
-638.638	-143.612	-0.315	-0.030
-637.624	-157.853	0.266	-0.016
-636.609	-91.616	0.249	0.071
-635.595	-47.345	-0.122	-0.060
-634.580	-200.000	-0.034	-0.317
-633.565	-200.000	0.034	0.205
-632.551	-106.366	0.301	-0.067
-631.536	311.547	-0.075	-0.141
-630.522	62.642	-0.182	-0.183
-629.507	165.214	-0.221	0.313
-628.492	-200.000	0.023	0.280
-627.478	-200.000	-0.002	0.147
-626.463	-62.341	0.129	0.054
-625.449	133.388	-0.148	0.193
-624.434	800.000	-0.086	0.365
-623.419	800.000	-0.056	-0.234
-622.405	17.664	0.142	0.113
-621.390	-200.000	-0.026	-0.255
-620.376	-37.258	-0.095	-0.051
-619.361	327.904	-0.113	-0.217
-618.346	-161.786	-0.299	0.015
-617.332	153.761	0.046	0.064
-616.317	800.000	0.075	-0.275
-615.303	-200.000	-0.072	-0.415
-614.288	38.021	-0.137	-0.122
-613.273	-94.826	-0.171	0.047
-612.259	34.322	-0.159	0.139
-611.244	-41.867	-0.161	0.083
-610.230	112.531	-0.065	-0.079
-609.215	42.668	0.170	-0.156
-608.201	-62.449	0.120	-0.050
-607.186	71.533	0.183	-0.191
-606.171	-200.000	-0.006	0.097
-605.157	-16.998	0.206	-0.131
-604.142	-26.899	-0.050	0.029
-603.128	-56.812	0.134	-0.060
-602.113	41.048	-0.184	0.166
-601.098	-100.605	0.080	-0.020
-600.084	-56.024	-0.287	0.128
-599.069	800.000	-0.038	-0.134
-598.055	-18.720	-0.221	-0.138
-597.040	-200.000	-0.191	-0.001
-596.025	51.691	0.053	-0.050
-595.011	800.000	0.093	0.283
-593.996	-187.960	-0.181	0.002
-592.982	-41.043	-0.163	-0.084
-591.967	84.927	0.196	-0.215
-590.952	-200.000	0.038	-0.316
-589.938	-200.000	0.011	0.198
-588.923	-27.230	0.127	-0.074
-587.909	42.727	-0.190	0.174
-586.894	104.528	0.148	-0.174
-585.879	676.169	-0.044	0.114
-584.865	-179.968	0.158	-0.003
-583.850	-200.000	-0.028	0.347
-582.836	-2.658	-0.249	0.175
-581.821	-30.526	0.129	-0.073
-580.806	-90.207	-0.156	0.046
-579.792	-200.000	0.042	-0.198
-578.777	155.176	-0.123	-0.169
-577.763	800.000	-0.052	-0.177
-576.748	-44.524	0.370	-0.185
-575.733	-19.350	0.153	0.095
-574.719	2.699	-0.245	0.178
-573.704	-139.386	0.075	-0.008
-572.690	-200.000	0.029	-0.159
-571.675	65.049	0.088	0.090
-570.661	221.778	-0.204	0.329
-569.646	800.000	0.084	0.268
-568.631	-200.000	0.063	0.281
-567.617	-154.319	0.227	-0.015
-566.602	118.311	0.011	0.014
-565.588	-45.583	-0.127	-0.063
-564.573	206.400	0.065	0.102
-563.558	-200.000	-0.041	0.184
-562.544	313.715	-0.044	-0.082
-561.529	-118.894	-0.100	-0.018
-560.515	-200.000	-0.012	0.241
-559.500	-77.765	0.153	-0.053
-558.485	274.940	-0.121	0.214
-557.471	-140.635	0.126	-0.013
-556.456	669.677	0.058	-0.151
-555.442	-200.000	-0.019	-0.100
-554.427	276.627	-0.039	0.069
-553.412	-133.052	-0.253	-0.032
-552.398	-200.000	0.026	0.161
-551.383	99.854	-0.035	-0.041
-550.369	118.040	0.223	0.276
-549.354	-200.000	-0.007	0.125
-548.339	-156.575	-0.146	0.009
-547.325	21.890	0.447	-0.365
-546.310	14.096	-0.173	0.135
-545.296	-44.424	-0.256	0.128
-544.281	-17.744	0.248	-0.156
-543.266	-99.451	0.245	0.062
-542.252	-97.747	-0.176	0.046
-541.237	-31.724	-0.330	0.185
-540.223	279.964	-0.182	-0.326
-539.208	-5.343	-0.164	-0.113
-538.193	330.107	0.125	-0.241
-537.179	3.556	-0.170	-0.124
-536.164	-200.000	-0.008	0.188
-535.150	31.726	-0.166	0.143
-534.135	-58.287	-0.190	0.083
-533.121	-33.569	0.296	-0.164
-532.106	-23.040	-0.163	-0.098
-531.091	78.810	-0.162	-0.174
-530.077	-95.164	-0.222	-0.060
-529.062	-37.879	0.180	0.096
-528.048	415.849	0.164	-0.350
-527.033	29.571	-0.170	-0.145
-526.018	-33.266	-0.269	-0.149
-525.004	-200.000	0.043	0.393
-523.989	800.000	0.090	-0.305
-522.975	-49.149	0.325	0.156
-521.960	-42.471	0.132	0.067
-520.945	430.360	-0.161	-0.349
-519.931	-106.254	0.181	-0.041
-518.916	302.468	0.092	-0.170
-517.902	-92.906	0.252	0.070
-516.887	-200.000	0.026	0.195
-515.872	-157.172	0.190	-0.012
-514.858	129.204	0.072	-0.092
-513.843	-200.000	-0.319	0.000
-512.829	-9.084	-0.241	0.161
-511.814	118.878	0.101	0.125
-510.799	800.000	0.115	-0.330
-509.785	116.741	0.305	-0.374
-508.770	134.683	0.070	-0.090
-507.756	442.452	0.106	-0.231
-506.741	170.055	-0.252	-0.361
-505.726	-200.000	-0.007	-0.040
-504.712	-86.302	-0.069	-0.021
-503.697	57.514	-0.117	0.114
-502.683	61.994	0.315	-0.314
-501.668	-123.104	0.208	-0.033
-500.653	4.033	-0.417	-0.305
-499.639	-200.000	-0.015	-0.120
-498.624	-200.000	-0.048	0.406
-497.610	-56.293	-0.484	-0.215
-496.595	-22.652	0.439	-0.265
-495.581	409.933	-0.082	0.173
-494.566	-74.049	0.236	-0.085
-493.551	-27.680	-0.268	0.156
-492.537	-52.599	-0.219	-0.101
-491.522	764.033	-0.132	-0.359
-490.508	-68.672	-0.163	-0.063
-489.493	-200.000	-0.024	-0.167
-488.478	-200.000	0.022	-0.202
-487.464	-78.320	0.320	0.110
-486.449	-38.325	0.054	0.029
-485.435	174.846	-0.118	-0.171
-484.420	227.450	0.174	0.282
-483.405	-57.519	0.081	0.035
-482.391	188.853	-0.065	-0.097
-481.376	-36.847	0.061	0.033
-480.362	244.622	0.043	0.072
-479.347	97.245	0.203	-0.233
-478.332	-122.041	0.216	-0.035
-477.318	-119.906	-0.243	-0.042
-476.303	-121.891	0.354	0.058
-475.289	-85.998	0.101	0.031
-474.274	235.853	0.268	-0.441
-473.259	169.769	-0.209	-0.298
-472.245	-125.497	0.074	-0.011
-471.230	-2.909	-0.085	-0.059
-470.216	-200.000	-0.016	-0.161
-469.201	800.000	-0.032	-0.093
-468.186	132.948	0.053	0.068
-467.172	290.666	0.147	0.266
-466.157	13.150	-0.321	-0.248
-465.143	57.712	0.145	0.142
-464.128	85.122	0.138	-0.151
-463.113	-200.000	0.281	0.000
-462.099	-103.432	0.157	0.037
-461.084	-143.516	0.233	0.022
-460.070	800.000	-0.061	0.222
-459.055	800.000	-0.056	-0.171
-458.040	-180.244	-0.148	0.003
-457.026	-132.581	0.274	-0.035
-456.011	-68.682	0.292	-0.113
-454.997	800.000	0.140	-0.431
-453.982	178.362	-0.153	-0.223
-452.968	-200.000	0.007	-0.076
-451.953	-200.000	-0.009	0.063
-450.938	249.950	-0.050	0.085
-449.924	255.852	-0.192	0.329
-448.909	-42.293	-0.198	0.101
-447.895	-200.000	0.029	-0.244
-446.880	553.253	0.064	-0.154
-445.865	292.191	0.124	-0.226
-444.851	800.000	-0.096	-0.272
-443.836	800.000	-0.063	0.241
-442.822	23.621	0.252	-0.207
-441.807	639.825	0.072	-0.182
-440.792	-200.000	0.022	0.262
-439.778	-200.000	0.022	-0.108
-438.763	-13.954	0.038	0.024
-437.749	241.839	-0.047	-0.079
-436.734	122.880	-0.177	-0.221
-435.719	-115.483	0.065	0.012
-434.705	-135.178	-0.205	0.025
-433.690	-14.763	0.121	0.077
-432.676	-17.435	-0.353	0.221
-431.661	-200.000	-0.052	-0.343
-430.646	713.073	0.053	-0.141
-429.632	-51.196	-0.143	-0.067
-428.617	-57.590	0.132	0.058
-427.603	-121.881	0.294	0.048
-426.588	57.354	0.237	0.231
-425.573	-200.000	-0.007	-0.188
-424.559	-58.488	0.306	-0.132
-423.544	421.164	0.156	-0.333
-422.530	-200.000	0.028	0.332
-421.515	-200.000	-0.006	0.085
-420.500	494.703	0.129	-0.294
-419.486	104.847	-0.063	-0.074
-418.471	39.941	0.121	0.108
-417.457	258.635	0.124	0.213
-416.442	273.445	-0.178	-0.312
-415.428	-200.000	0.004	-0.102
-414.413	44.888	0.187	-0.172
-413.398	-200.000	0.156	0.001
-412.384	-200.000	-0.016	-0.158
-411.369	513.645	0.162	0.376
-410.355	800.000	-0.025	-0.103
-409.340	-200.000	0.001	-0.108
-408.325	144.143	-0.115	0.153
-407.311	800.000	-0.048	-0.149
-406.296	-85.397	-0.373	-0.116
-405.282	-102.551	-0.220	-0.052
-404.267	-53.037	0.134	0.061
-403.252	318.392	0.180	0.338
-402.238	-136.718	-0.013	0.002
-401.223	144.482	0.207	0.274
-400.209	-182.839	-0.098	-0.002
-399.194	-5.973	0.411	-0.280
-398.179	103.506	0.233	-0.272
-397.165	-10.048	0.403	-0.267
-396.150	-168.327	-0.241	0.009
-395.136	67.929	0.180	-0.183
-394.121	184.746	0.260	-0.383
-393.106	-79.044	-0.144	0.049
-392.092	-82.525	0.315	0.102
-391.077	102.150	-0.227	-0.264
-390.063	57.902	-0.150	0.146
-389.048	-200.000	-0.018	0.359
-388.033	800.000	0.081	0.232
-387.019	-28.569	-0.176	0.101
-386.004	-110.984	-0.170	-0.035
-384.990	10.701	0.109	0.083
-383.975	-200.000	0.019	0.343
-382.960	-200.000	0.015	0.152
-381.946	-37.878	0.249	0.131
-380.931	383.912	0.134	-0.274
-379.917	62.340	-0.085	-0.084
-378.902	-53.447	0.116	0.053
-377.888	-112.770	0.152	-0.030
-376.873	187.906	-0.167	-0.249
-375.858	800.000	0.120	-0.365
-374.844	-134.809	-0.262	-0.032
-373.829	-13.887	-0.130	-0.083
-372.815	-111.852	0.120	0.024
-371.800	220.365	0.137	-0.219
-370.785	138.588	-0.226	-0.295
-369.771	-71.636	0.182	0.068
-368.756	-73.737	-0.089	0.032
-367.742	366.364	0.135	0.270
-366.727	150.111	-0.158	0.213
-365.712	284.444	-0.144	0.258
-364.698	-100.187	-0.377	0.093
-363.683	48.523	-0.291	-0.271
-362.669	343.500	0.116	0.227
-361.654	-200.000	0.005	0.569
-360.639	-3.406	0.276	-0.191
-359.625	-103.972	0.334	0.077
-358.610	-185.689	0.227	0.003
-357.596	269.927	-0.251	-0.438
-356.581	482.533	-0.119	0.269
-355.566	-158.698	-0.327	-0.019
-354.552	462.718	-0.124	0.275
-353.537	-200.000	0.008	0.331
-352.523	33.249	-0.251	-0.217
-351.508	800.000	-0.036	0.147
-350.493	-200.000	0.042	0.210
-349.479	61.155	-0.106	0.104
-348.464	800.000	-0.028	0.109
-347.450	558.213	-0.146	-0.349
-346.435	-200.000	0.003	0.040
-345.420	-128.785	-0.369	-0.052
-344.406	-80.324	-0.129	0.043
-343.391	232.659	0.132	-0.216
-342.377	-66.065	-0.179	-0.071
-341.362	30.011	0.179	0.151
-340.348	43.452	-0.230	-0.208
-339.333	662.446	0.126	-0.323
-338.318	143.411	-0.150	-0.198
-337.304	74.531	0.254	0.265
-336.289	-63.234	0.391	0.160
-335.275	-157.814	0.260	0.015
-334.260	155.487	0.204	0.278
-333.245	218.302	-0.154	0.244
-332.231	222.966	0.179	0.286
-331.216	609.752	0.031	-0.076
-330.202	-31.443	-0.186	-0.104
-329.187	426.871	-0.130	0.279
-328.172	-111.329	-0.154	-0.031
-327.158	800.000	0.050	-0.204
-326.143	-46.245	0.162	0.079
-325.129	-200.000	0.006	-0.156
-324.114	800.000	0.052	-0.144
-323.099	166.626	-0.170	-0.239
-322.085	-77.784	0.170	-0.058
-321.070	-200.000	-0.021	0.092
-320.056	-200.000	-0.019	-0.253
-319.041	281.482	-0.073	-0.130
-318.026	46.103	-0.130	0.120
-317.012	80.800	-0.149	0.160
-315.997	685.153	0.193	0.499
-314.983	-43.988	-0.270	-0.134
-313.968	49.889	-0.038	0.035
-312.953	-182.258	0.306	0.006
-311.939	48.338	-0.129	0.120
-310.924	-200.000	0.259	0.001
-309.910	800.000	-0.022	0.070
-308.895	202.296	-0.142	0.217
-307.880	-134.633	0.233	-0.028
-306.866	-67.232	-0.360	-0.141
-305.851	-63.396	-0.294	-0.120
-304.837	-36.730	0.135	0.072
-303.822	-18.810	-0.279	0.172
-302.807	-200.000	0.004	0.108
-301.793	186.435	0.081	-0.119
-300.778	139.091	-0.098	-0.128
-299.764	-200.000	-0.005	-0.157
-298.749	-200.000	0.022	0.127
-297.735	800.000	-0.056	-0.226
-296.720	800.000	-0.052	0.148
-295.705	-200.000	0.023	-0.260
-294.691	41.894	-0.232	-0.208
-293.676	-40.830	-0.154	-0.079
-292.662	-73.387	-0.285	-0.103
-291.647	-87.455	-0.240	0.072
-290.632	-153.951	-0.058	0.004
-289.618	-69.366	-0.121	0.046
-288.603	175.484	0.183	0.263
-287.589	-57.375	0.081	0.035
-286.574	-200.000	0.003	-0.201
-285.559	-71.067	0.271	0.101
-284.545	375.542	-0.044	-0.088
-283.530	445.581	0.154	0.336
-282.516	63.244	-0.066	-0.065
-281.501	-88.302	0.263	0.078
-280.486	800.000	-0.108	0.321
-279.472	-69.675	0.351	-0.133
-278.457	64.377	-0.137	-0.137
-277.443	17.726	-0.254	0.200
-276.428	-200.000	-0.002	0.179
-275.413	9.645	0.113	0.085
-274.399	107.814	0.134	0.158
-273.384	-143.973	0.048	-0.004
-272.370	800.000	0.130	0.420
-271.355	800.000	-0.069	0.234
-270.340	-26.706	0.282	0.163
-269.326	-200.000	-0.004	0.180
-268.311	-200.000	0.000	-0.025
-267.297	267.398	0.046	0.079
-266.282	-162.312	-0.169	0.008
-265.267	800.000	-0.116	0.402
-264.253	607.164	-0.179	0.443
-263.238	231.792	0.036	0.058
-262.224	70.568	0.135	-0.139
-261.209	-200.000	0.004	-0.172
-260.195	-41.835	-0.163	-0.083
-259.180	112.739	0.244	0.293
-258.165	800.000	0.083	0.278
-257.151	-86.423	0.232	0.070
-256.136	-200.000	-0.032	0.315
-255.122	-142.308	-0.157	-0.015
-254.107	295.025	0.188	0.340
-253.092	62.931	0.182	0.180
-252.078	-37.104	0.281	-0.149
-251.063	-200.000	-0.035	-0.162
-250.049	-200.000	0.141	0.000
-249.034	-121.881	-0.229	-0.037
-248.019	-143.777	0.365	0.034
-247.005	-120.255	-0.227	0.038
-245.990	-200.000	-0.017	0.105
-244.976	800.000	0.063	0.243
-243.961	-8.645	-0.337	-0.224
-242.946	228.518	-0.046	0.074
-241.932	-149.954	0.287	0.022
-240.917	-153.997	-0.277	0.019
-239.903	117.094	-0.173	0.210
-238.888	-65.578	-0.153	0.061
-237.873	569.662	-0.165	0.396
-236.859	-20.577	0.071	-0.043
-235.844	-16.624	0.155	0.097
-234.830	800.000	0.033	0.140
-233.815	800.000	-0.021	-0.092
-232.800	-105.949	-0.192	0.043
-231.786	403.688	-0.037	0.077
-230.771	-135.760	-0.144	0.017
-229.757	-0.634	0.178	-0.125
-228.742	-200.000	0.002	0.106
-227.727	800.000	0.027	0.105
-226.713	-26.118	-0.336	-0.195
-225.698	332.850	0.120	0.229
-224.684	83.609	0.121	-0.131
-223.669	135.656	0.088	0.113
-222.655	82.682	0.226	-0.243
-221.640	-26.097	-0.366	0.212
-220.625	105.891	-0.098	0.114
-219.611	-200.000	0.021	0.190
-218.596	105.700	0.136	0.159
-217.582	-86.656	-0.195	0.059
-216.567	-0.107	-0.272	-0.191
-215.552	-70.407	0.107	-0.040
-214.538	80.438	0.147	0.156
-213.523	167.785	-0.083	0.116
-212.509	-18.451	-0.053	0.033
-211.494	21.134	0.115	-0.092
-210.479	94.193	-0.198	-0.222
-209.465	42.631	-0.042	0.038
-208.450	-144.053	0.251	0.023
-207.436	-6.668	0.066	0.044
-206.421	262.765	-0.196	-0.336
-205.406	-200.000	0.030	-0.153
-204.392	100.327	-0.127	0.146
-203.377	-104.593	0.035	-0.008
-202.363	-200.000	0.006	-0.253
-201.348	-114.158	-0.013	0.002
-200.333	-104.812	0.217	0.049
-199.319	-125.278	0.435	0.066
-198.304	345.917	-0.140	0.272
-197.290	286.137	-0.117	-0.209
-196.275	36.352	0.195	-0.170
-195.260	591.657	0.121	0.295
-194.246	-103.125	0.057	0.013
-193.231	-88.829	-0.139	0.041
-192.217	-80.443	-0.335	0.110
-191.202	23.790	-0.065	-0.053
-190.187	800.000	0.085	0.295
-189.173	-156.426	-0.077	-0.005
-188.158	290.815	0.161	-0.289
-187.144	84.585	0.092	-0.099
-186.129	-200.000	0.005	-0.211
-185.114	62.511	0.283	0.279
-184.100	-71.620	-0.191	0.070
-183.085	800.000	0.092	0.344
-182.071	170.361	0.145	0.204
-181.056	-200.000	0.000	0.177
-180.042	-82.303	-0.197	-0.063
-179.027	31.569	-0.034	0.029
-178.012	-111.428	-0.235	0.047
-176.998	-200.000	0.001	0.057
-175.983	-145.450	0.299	-0.027
-174.969	-200.000	0.042	-0.445
-173.954	-142.795	0.233	-0.022
-172.939	220.075	0.097	0.154
-171.925	586.010	-0.025	0.061
-170.910	-200.000	-0.030	-0.293
-169.896	-74.532	0.081	0.029
-168.881	258.329	-0.095	-0.161
-167.866	109.273	0.199	-0.235
-166.852	-119.986	0.455	-0.077
-165.837	800.000	-0.075	-0.207
-164.823	613.348	-0.034	0.083
-163.808	-110.337	-0.422	0.086
-162.793	-130.792	-0.526	-0.070
-161.779	214.240	-0.103	0.161
-160.764	333.310	0.143	0.273
-159.750	-136.880	0.237	-0.027
-158.735	-200.000	0.022	-0.217
-157.720	-67.572	0.270	0.104
-156.706	800.000	-0.065	0.184
-155.691	-200.000	0.007	-0.166
-154.677	-66.773	-0.128	0.050
-153.662	278.569	0.060	-0.106
-152.647	675.699	0.122	0.311
-151.633	800.000	0.052	0.158
-150.618	-173.446	0.273	-0.008
-149.604	304.887	-0.085	-0.156
-148.589	645.368	0.030	-0.075
-147.574	-200.000	0.017	-0.082
-146.560	-200.000	-0.013	0.130
-145.545	311.923	-0.078	-0.144
-144.531	-107.854	0.374	0.080
-143.516	-200.000	-0.250	0.001
-142.502	800.000	0.016	0.045
-141.487	-193.324	0.415	-0.004
-140.472	224.714	0.155	-0.246
-139.458	-71.746	-0.069	0.025
-138.443	-136.289	-0.336	-0.039
-137.429	-120.967	0.280	0.046
-136.414	43.687	0.116	-0.105
-135.399	198.657	0.112	-0.169
-134.385	-63.595	-0.449	-0.182
-133.370	-43.351	0.216	0.107
-132.356	379.165	0.090	0.182
-131.341	800.000	0.035	0.110
-130.326	-110.324	-0.037	-0.008
-129.312	295.021	-0.075	0.136
-128.297	800.000	0.055	-0.234
-127.283	30.046	0.147	-0.123
-126.268	126.131	0.099	0.123
-125.253	667.349	-0.075	0.191
-124.239	0.247	0.180	-0.126
-123.224	-68.351	0.125	0.048
-122.210	-58.686	-0.326	-0.139
-121.195	30.448	-0.322	-0.271
-120.180	-15.515	0.228	-0.143
-119.166	800.000	-0.076	0.246
-118.151	-104.627	0.211	0.048
-117.137	-65.985	-0.090	-0.035
-116.122	48.778	-0.146	0.135
-115.107	-126.366	-0.069	-0.010
-114.093	-200.000	-0.005	-0.115
-113.078	800.000	-0.029	-0.108
-112.064	-3.295	-0.190	-0.130
-111.049	117.781	0.188	0.228
-110.034	145.958	0.092	0.121
-109.020	515.363	-0.085	-0.195
-108.005	-200.000	0.019	-0.088
-106.991	603.967	-0.135	0.331
-105.976	213.785	0.061	0.096
-104.962	6.743	-0.152	-0.112
-103.947	800.000	0.088	0.337
-102.932	29.284	0.055	-0.046
-101.918	365.055	-0.062	-0.122
-100.903	-29.393	-0.301	-0.169
-99.889	-14.275	-0.187	0.119
-98.874	-200.000	0.032	-0.382
-97.859	-200.000	0.004	-0.311
-96.845	-92.549	-0.188	-0.052
-95.830	-200.000	-0.082	-0.381
-94.816	-41.626	0.093	-0.047
-93.801	257.211	0.152	-0.257
-92.786	730.389	0.111	0.291
-91.772	-102.035	-0.312	-0.074
-90.757	-192.722	-0.146	0.001
-89.743	29.138	-0.087	0.072
-88.728	115.102	0.244	-0.292
-87.713	-52.797	0.140	-0.063
-86.699	-200.000	0.026	0.175
-85.684	-26.164	-0.067	-0.039
-84.670	-85.635	0.182	0.056
-83.655	-0.540	0.210	0.146
-82.640	63.430	-0.175	0.172
-81.626	108.981	-0.244	0.287
-80.611	-200.000	0.033	-0.239
-79.597	208.221	0.141	-0.216
-78.582	141.430	-0.120	0.157
-77.567	457.467	-0.115	0.252
-76.553	-200.000	0.008	0.149
-75.538	-200.000	-0.011	0.132
-74.524	-174.935	-0.222	-0.006
-73.509	10.217	0.383	0.286
-72.494	-89.844	0.104	-0.030
-71.480	-194.583	0.290	0.002
-70.465	220.511	0.135	0.212
-69.451	-20.998	0.289	0.174
-68.436	-41.238	0.328	0.166
-67.422	-139.995	0.209	0.022
-66.407	-47.381	0.104	0.050
-65.392	-65.288	-0.239	0.095
-64.378	-200.000	-0.006	0.312
-63.363	-40.028	-0.247	0.127
-62.349	92.124	-0.240	0.265
-61.334	158.416	-0.664	-0.905
-60.319	-41.591	0.281	0.142
-59.305	-200.000	-0.176	-0.950
-58.290	456.532	0.550	1.199
-57.276	800.000	0.541	1.683
-56.261	-200.000	95.425	595.471
-55.246	576.890	1363.250	3271.366
-54.232	162.324	2547.652	3506.908
-53.217	107.267	2263.588	2642.059
-52.203	41.555	1892.481	1682.180
-51.188	35.406	1682.775	1449.449
-50.173	32.734	1638.605	1391.657
-49.159	50.179	1684.920	1561.830
-48.144	51.943	1701.382	1590.207
-47.130	35.017	1662.088	1428.500
-46.115	32.285	1648.118	1396.183
-45.100	32.080	1643.320	1390.541
-44.086	32.042	1640.582	1387.890
-43.071	32.128	1637.323	1385.712
-42.057	32.020	1635.593	1383.399
-41.042	32.001	1633.610	1381.527
-40.027	32.032	1631.985	1380.322
-39.013	32.030	1629.424	1378.087
-37.998	32.016	1628.249	1376.935
-36.984	32.081	1627.079	1376.372
-35.969	32.195	1625.057	1375.438
-34.954	32.141	1623.937	1374.040
-33.940	32.133	1622.191	1372.451
-32.925	32.108	1620.388	1370.688
-31.911	32.134	1618.728	1369.424
-30.896	32.176	1616.713	1367.965
-29.881	32.064	1615.326	1365.925
-28.867	32.055	1613.376	1364.156
-27.852	32.093	1612.092	1363.294
-26.838	32.222	1610.210	1362.581
-25.823	32.059	1609.444	1360.702
-24.809	32.232	1607.692	1360.418
-23.794	32.122	1606.238	1358.334
-22.779	32.193	1604.612	1357.422
-21.765	32.180	1602.934	1355.850
-20.750	32.198	1601.501	1354.719
-19.736	32.204	1600.318	1353.704
-18.721	32.198	1599.227	1352.683
-17.706	32.175	1597.632	1351.120
-16.692	32.167	1595.860	1349.512
-15.677	32.265	1594.078	1348.650
-14.663	32.218	1593.406	1347.692
-13.648	32.257	1591.696	1346.471
-12.633	32.259	1589.899	1344.915
-11.619	32.228	1588.787	1343.697
-10.604	32.193	1587.148	1342.005
-9.590	32.192	1586.247	1341.184
-8.575	32.262	1584.962	1340.544
-7.560	32.209	1583.537	1338.910
-6.546	32.187	1582.352	1337.698
-5.531	32.115	1581.628	1336.520
-4.517	32.206	1579.737	1335.514
-3.502	32.209	1578.723	1334.625
-2.487	32.217	1577.230	1333.366
-1.473	32.020	1565.596	1322.092
-0.458	29.421	1547.021	1288.232
0.556	26.487	1547.589	1258.085
1.571	24.318	1571.189	1261.830
2.586	23.911	1584.929	1269.847
3.600	21.536	1532.293	1211.149
4.615	12.416	1421.946	1064.987
5.629	3.820	1356.498	962.546
6.644	2.304	1348.022	947.060
7.659	2.174	1346.394	945.032
8.673	2.083	1345.420	943.703
9.688	2.069	1343.567	942.231
10.702	1.903	1340.126	938.712
11.717	5.445	1347.371	965.600
12.731	15.537	1366.725	1042.303
13.746	24.044	1380.994	1106.203
14.761	26.351	1384.481	1123.251
15.775	26.649	1384.437	1124.969
16.790	26.775	1383.721	1125.070
17.804	26.804	1382.579	1124.219
18.819	26.975	1382.958	1125.487
19.834	27.174	1381.739	1125.627
20.848	27.129	1381.669	1125.191
21.863	27.200	1380.427	1124.525
22.877	27.148	1379.675	1123.492
23.892	27.272	1378.545	1123.233
24.907	27.146	1378.040	1121.947
25.921	27.122	1377.096	1120.931
26.936	27.178	1376.013	1120.292
27.950	27.233	1374.758	1119.512
28.965	27.133	1373.929	1118.122
29.980	27.234	1372.441	1117.435
30.994	27.250	1370.987	1116.250
32.009	27.216	1370.079	1115.206
33.023	27.182	1368.976	1113.998
34.038	27.196	1367.852	1113.070
35.053	27.199	1366.683	1112.040
36.067	27.212	1366.059	1111.515
37.082	27.165	1365.322	1110.528
38.096	27.156	1364.388	1109.614
39.111	27.187	1363.361	1108.872
40.126	27.171	1362.917	1108.314
41.140	27.174	1362.016	1107.502
42.155	27.129	1361.802	1106.954
43.169	27.257	1361.774	1107.612
44.184	27.233	1361.399	1107.066
45.199	27.256	1360.946	1106.741
46.213	27.126	1360.403	1105.406
47.228	27.244	1359.042	1104.923
48.242	27.245	1358.123	1104.080
49.257	27.132	1357.148	1102.506
50.271	27.212	1355.609	1101.641
51.286	27.111	1354.274	1099.848
52.301	27.100	1353.264	1098.868
53.315	27.140	1352.621	1098.488
54.330	27.236	1351.530	1098.086
55.344	27.235	1349.979	1096.724
56.359	27.094	1349.169	1095.117
57.374	27.184	1348.141	1094.727
58.388	27.146	1348.057	1094.333
59.403	27.019	1347.390	1092.934
60.417	27.211	1346.408	1093.190
61.432	27.226	1346.008	1092.860
62.447	27.171	1344.891	1091.526
63.461	27.214	1343.905	1090.887
64.476	27.236	1343.248	1090.388
65.490	27.091	1341.977	1088.391
66.505	27.151	1340.575	1087.521
67.520	27.155	1339.159	1086.299
68.534	27.257	1338.128	1085.972
69.549	27.226	1337.206	1084.946
70.563	27.355	1335.603	1084.317
71.578	27.166	1335.353	1082.892
72.593	27.159	1334.718	1082.242
73.607	27.193	1334.336	1082.039
74.622	27.225	1333.354	1081.338
75.636	27.212	1332.553	1080.514
76.651	27.229	1331.900	1079.989
77.666	27.156	1331.520	1079.151
78.680	27.161	1330.960	1078.630
79.695	27.156	1330.178	1077.871
80.709	27.179	1329.659	1077.495
81.724	27.220	1328.761	1076.916
82.739	27.141	1327.673	1075.467
83.753	27.161	1327.031	1074.970
84.768	27.162	1325.587	1073.710
85.782	27.259	1324.280	1073.133
86.797	27.245	1323.502	1072.320
87.812	27.217	1322.302	1071.093
88.826	27.292	1320.956	1070.350
89.841	27.264	1320.264	1069.528
90.855	27.243	1319.365	1068.582
91.870	27.260	1318.776	1068.108
92.884	27.243	1318.033	1067.312
93.899	27.227	1317.205	1066.455
94.914	27.126	1316.374	1065.093
95.928	27.245	1315.565	1065.043
96.943	27.278	1314.786	1064.513
97.957	27.257	1314.023	1063.675
98.972	27.207	1313.326	1062.729
99.987	27.255	1311.959	1061.809
101.001	27.194	1311.284	1060.809
102.016	27.223	1310.368	1060.145
103.030	27.243	1309.124	1059.159
104.045	27.211	1308.835	1058.649
105.060	27.218	1308.037	1057.950
106.074	27.342	1306.617	1057.427
107.089	27.325	1305.543	1056.365
108.103	27.329	1304.365	1055.343
109.118	27.325	1303.826	1054.792
110.133	27.271	1302.710	1053.484
111.147	27.469	1300.905	1053.073
112.162	27.309	1300.420	1051.665
113.176	27.338	1299.232	1050.774
114.191	27.275	1298.499	1049.726
115.206	27.258	1297.821	1048.989
116.220	27.323	1296.489	1048.193
117.235	27.241	1295.637	1046.937
118.249	27.410	1294.324	1046.760
119.264	27.227	1294.201	1045.512
120.279	27.460	1292.887	1045.698
121.293	27.422	1292.336	1044.944
122.308	27.422	1291.679	1044.315
123.322	27.412	1290.515	1043.225
124.337	27.355	1290.015	1042.401
125.352	27.351	1289.040	1041.502
126.366	27.387	1288.249	1040.973
127.381	27.518	1286.812	1040.468
128.395	27.422	1286.335	1039.444
129.410	27.430	1285.706	1038.890
130.424	27.434	1284.925	1038.188
131.439	27.406	1283.958	1037.159
132.454	27.305	1283.476	1036.102
133.468	27.404	1282.424	1035.722
134.483	27.327	1282.412	1035.186
135.497	27.455	1281.163	1034.811
136.512	27.343	1280.388	1033.460
137.527	27.418	1278.849	1032.550
138.541	27.394	1277.556	1031.278
139.556	27.315	1276.785	1030.118
140.570	27.389	1275.978	1029.791
141.585	27.299	1275.133	1028.512
142.600	27.344	1273.745	1027.555
143.614	27.396	1273.295	1027.395
144.629	27.295	1272.388	1026.000
145.643	27.230	1271.113	1024.519
146.658	27.250	1270.477	1024.024
147.673	27.343	1269.020	1023.288
148.687	27.269	1268.055	1022.003
149.702	27.302	1267.055	1021.287
150.716	27.250	1265.992	1020.050
151.731	27.360	1265.055	1019.821
152.746	27.350	1264.058	1018.873
153.760	27.367	1263.472	1018.405
154.775	27.375	1262.089	1017.246
155.789	27.414	1261.078	1016.560
156.804	27.362	1260.422	1015.651
157.819	27.314	1259.927	1014.889
158.833	27.354	1258.725	1014.058
159.848	27.461	1258.076	1014.040
160.862	27.528	1256.786	1013.282
161.877	27.461	1256.305	1012.432
162.892	27.500	1255.333	1011.776
163.906	27.537	1254.700	1011.383
164.921	27.564	1253.842	1010.750
165.935	27.441	1253.052	1009.341
166.950	27.473	1252.828	1009.251
167.964	27.488	1252.080	1008.642
168.979	27.430	1251.939	1008.119
169.994	27.449	1251.340	1007.652
171.008	27.564	1249.938	1007.067
172.023	27.600	1249.316	1006.675
173.037	27.630	1248.877	1006.399
174.052	27.506	1248.094	1004.999
175.067	27.472	1247.481	1004.227
176.081	27.560	1246.542	1003.866
177.096	27.485	1245.920	1002.865
178.110	27.513	1244.895	1002.102
179.125	27.566	1243.919	1001.521
180.140	27.607	1243.036	1000.946
181.154	27.492	1242.112	999.481
182.169	27.549	1240.622	998.510
183.183	27.527	1239.912	997.730
184.198	27.553	1239.032	997.071
185.213	27.530	1238.144	996.143
186.227	27.572	1236.981	995.350
187.242	27.547	1236.414	994.667
188.256	27.607	1235.073	993.832
189.271	27.580	1234.764	993.347
190.286	27.599	1233.979	992.728
191.300	27.516	1233.225	991.582
192.315	27.488	1233.080	991.226
193.329	27.609	1232.638	991.441
194.344	27.641	1232.204	991.180
195.359	27.627	1231.620	990.546
196.373	27.643	1230.932	989.991
197.388	27.483	1230.837	988.961
198.402	27.622	1230.083	989.017
199.417	27.562	1229.858	988.423
200.432	27.586	1229.401	988.103
201.446	27.489	1228.754	986.968
202.461	27.521	1228.076	986.509
203.475	27.716	1227.015	986.625
204.490	27.559	1226.623	985.376
205.504	27.668	1225.131	984.674
206.519	27.687	1224.215	983.955
207.534	27.700	1223.168	983.095
208.548	27.721	1222.168	982.320
209.563	27.669	1221.989	981.808
210.577	27.659	1221.036	980.902
211.592	27.674	1220.124	980.163
212.607	27.782	1219.051	979.796
213.621	27.736	1218.619	979.112
214.636	27.786	1217.507	978.401
215.650	27.789	1216.637	977.634
216.665	27.624	1216.343	976.426
217.680	27.648	1215.226	975.569
218.694	27.701	1214.573	975.242
219.709	27.822	1213.554	974.988
220.723	27.868	1213.210	974.867
221.738	27.853	1212.334	974.000
222.753	27.715	1211.498	972.506
223.767	27.661	1210.809	971.577
224.782	27.760	1210.958	972.142
225.796	27.833	1210.001	971.673
226.811	27.715	1209.733	970.743
227.826	27.806	1208.981	970.540
228.840	27.742	1208.635	969.838
229.855	27.786	1207.850	969.356
230.869	27.788	1206.978	968.576
231.884	27.821	1206.155	968.009
232.899	27.792	1205.634	967.349
233.913	27.937	1204.806	967.367
234.928	27.856	1204.750	966.810
235.942	27.858	1204.223	966.309
236.957	27.821	1203.785	965.679
237.972	27.857	1202.539	964.783
238.986	27.888	1201.886	964.335
240.001	27.923	1201.696	964.283
241.015	27.881	1200.764	963.231
242.030	28.055	1199.295	962.883
243.045	28.050	1198.773	962.352
244.059	28.029	1198.124	961.635
245.074	28.037	1197.687	961.244
246.088	27.994	1196.744	960.176
247.103	28.024	1195.998	959.646
248.117	28.002	1195.317	958.899
249.132	28.103	1194.614	958.783
250.147	28.079	1193.626	957.779
251.161	28.142	1192.990	957.512
252.176	28.077	1192.382	956.597
253.190	28.121	1191.632	956.145
254.205	28.043	1191.200	955.307
255.220	28.020	1190.976	954.918
256.234	28.082	1190.406	954.704
257.249	27.947	1189.875	953.487
258.263	28.068	1188.964	953.304
259.278	28.164	1188.259	953.156
260.293	28.056	1187.722	952.079
261.307	28.182	1187.312	952.319
262.322	28.106	1186.315	951.044
263.336	28.081	1186.067	950.628
264.351	28.129	1185.650	950.460
265.366	28.141	1185.131	950.019
266.380	28.110	1184.139	948.982
267.395	27.986	1183.302	947.582
268.409	28.091	1182.774	947.622
269.424	28.057	1182.253	946.943
270.439	28.186	1181.769	947.142
271.453	28.218	1181.054	946.649
272.468	28.086	1180.164	945.169
273.482	28.204	1179.143	944.877
274.497	28.222	1179.103	944.855
275.512	28.149	1178.765	944.120
276.526	28.205	1178.105	943.800
277.541	28.196	1177.049	942.823
278.555	28.231	1176.858	942.770
279.570	28.223	1175.850	941.835
280.585	28.210	1175.057	941.053
281.599	28.259	1174.301	940.612
282.614	28.228	1173.483	939.717
283.628	28.300	1172.651	939.334
284.643	28.378	1171.617	938.823
285.657	28.327	1170.852	937.869
286.672	28.338	1169.967	937.131
287.687	28.368	1169.017	936.440
288.701	28.510	1168.399	936.590
289.716	28.370	1167.866	935.365
290.730	28.392	1167.274	934.917
291.745	28.552	1166.312	934.882
292.760	28.367	1166.389	933.915
293.774	28.368	1165.748	933.328
294.789	28.480	1165.221	933.390
295.803	28.397	1164.455	932.274
296.818	28.358	1164.094	931.704
297.833	28.456	1163.553	931.685
298.847	28.491	1162.406	930.865
299.862	28.555	1161.397	930.296
300.876	28.426	1161.344	929.518
301.891	28.667	1160.640	930.094
302.906	28.582	1159.767	928.881
303.920	28.583	1159.140	928.301
304.935	28.510	1158.529	927.363
305.949	28.463	1158.028	926.643
306.964	28.601	1157.296	926.671
307.979	28.593	1156.810	926.161
308.993	28.598	1156.171	925.590
310.008	28.572	1155.505	924.846
311.022	28.702	1154.720	924.789
312.037	28.644	1153.770	923.654
313.052	28.593	1152.862	922.588
314.066	28.579	1151.926	921.689
315.081	28.695	1151.235	921.635
316.095	28.558	1151.087	920.749
317.110	28.563	1150.552	920.263
318.125	28.752	1149.292	920.120
319.139	28.607	1149.105	919.162
320.154	28.642	1148.380	918.678
321.168	28.673	1147.998	918.446
322.183	28.570	1147.738	917.643
323.197	28.575	1147.098	917.073
324.212	28.619	1146.387	916.643
325.227	28.629	1145.888	916.217
326.241	28.597	1145.256	915.470
327.256	28.783	1144.244	915.505
328.270	28.798	1143.651	915.023
329.285	28.876	1142.748	914.608
330.300	28.848	1142.052	913.831
331.314	28.792	1141.268	912.846
332.329	28.703	1140.512	911.719
333.343	28.782	1140.131	911.725
334.358	28.806	1139.308	911.107
335.373	28.785	1138.574	910.333
336.387	28.911	1137.685	910.166
337.402	28.928	1136.954	909.584
338.416	28.816	1136.660	908.716
339.431	28.932	1136.179	908.823
340.446	28.814	1135.348	907.495
341.460	29.005	1134.743	907.875
342.475	28.945	1133.616	906.597
343.489	28.990	1132.884	906.152
344.504	28.977	1132.073	905.358
345.519	28.883	1131.699	904.519
346.533	28.926	1130.768	903.904
347.548	29.005	1129.756	903.407
348.562	28.938	1129.381	902.695
349.577	29.032	1128.516	902.384
350.592	28.907	1127.589	900.949
351.606	28.994	1126.942	900.782
352.621	29.068	1126.608	900.798
353.635	28.884	1126.339	899.603
354.650	29.025	1125.511	899.551
355.665	29.017	1124.489	898.613
356.679	29.059	1124.255	898.555
357.694	29.112	1123.699	898.288
358.708	29.166	1122.849	897.790
359.723	29.053	1122.380	896.789
360.738	28.983	1122.154	896.186
361.752	29.028	1121.671	895.941
362.767	29.198	1120.605	895.838
363.781	29.218	1119.808	895.215
364.796	29.210	1119.262	894.662
365.810	29.182	1118.959	894.207
366.825	29.217	1118.574	893.986
367.840	29.410	1117.441	893.937
368.854	29.280	1116.960	892.845
369.869	29.274	1116.386	892.276
370.883	29.274	1115.945	891.845
371.898	29.262	1115.076	891.015
372.913	29.255	1114.597	890.518
373.927	29.241	1113.949	889.854
374.942	29.365	1113.486	890.004
375.956	29.404	1112.883	889.631
376.971	29.281	1112.753	888.859
377.986	29.372	1111.940	888.567
379.000	29.373	1111.493	888.136
380.015	29.511	1110.712	888.097
381.029	29.353	1110.599	887.168
382.044	29.459	1109.828	886.982
383.059	29.385	1108.920	885.825
384.073	29.451	1107.782	885.154
385.088	29.312	1107.154	883.906
386.102	29.435	1106.633	884.004
387.117	29.467	1105.684	883.318
388.132	29.528	1104.744	882.784
389.146	29.405	1104.317	881.773
390.161	29.366	1103.862	881.147
391.175	29.517	1103.127	881.203
392.190	29.602	1102.298	880.869
393.205	29.479	1101.616	879.661
394.219	29.467	1101.058	879.078
395.234	29.530	1100.452	878.818
396.248	29.588	1099.287	878.085
397.263	29.549	1098.506	877.198
398.278	29.623	1098.448	877.425
399.292	29.580	1097.879	876.688
400.307	29.594	1096.817	875.829
401.321	29.520	1096.561	875.195
402.336	29.567	1096.050	874.936
403.350	29.671	1094.956	874.473
404.365	29.712	1094.258	874.033
405.380	29.771	1093.828	873.893
406.394	29.692	1092.868	872.674
407.409	29.719	1091.946	871.987
408.423	29.713	1091.305	871.374
409.438	29.883	1090.467	871.429
410.453	29.756	1090.374	870.679
411.467	29.769	1089.675	870.101
412.482	29.867	1088.306	869.396
413.496	29.813	1088.178	868.960
414.511	29.773	1087.948	868.513
415.526	29.903	1087.371	868.587
416.540	29.702	1087.279	867.492
417.555	29.890	1086.047	867.312
418.569	29.947	1085.763	867.276
419.584	29.883	1085.215	866.464
420.599	29.981	1084.840	866.544
421.613	104.684	1321.559	1458.929
422.628	97.463	1356.025	1459.030
