DTS Sentinel unit serial number:	SN413079Multiplexer serial number:	ORYXHardware model number:	OX4-SRSoftware version number:	ORYX F/W v4.00 Oryx Data Collector v3.7.2.0data status	okinstallation	princeton_trtdifferential loss correction	single-endedforward channel	channel 2reverse channel	N/Adate	2019/09/11time	15:09:10forward acquisition time	60.00reverse acquisition time	0.00gamma	496.2192k internal	0.2288k external	0.2288temperature offset calibration	1.0012default loss term (dB/km)	0.3790temperature slope calibration	1.0000multiplexer offset coefficient	1.0000multiplexer slope coefficient	1.0000fibre end	0.00T internal ref (°C)	42.94T ext. ref 1 (°C)	0.97T ext. ref 2 (°C)	37.14length (m)	temperature (°C)	Stokes	anti-Stokes-747.200	608.816	-0.098	0.251
-746.185	-200.000	0.060	0.447
-745.171	144.762	-0.096	0.132
-744.156	-116.064	0.333	-0.063
-743.142	800.000	-0.074	0.326
-742.127	-200.000	0.043	0.214
-741.112	293.059	-0.051	0.096
-740.098	191.399	0.066	0.101
-739.083	-63.651	0.124	0.052
-738.069	-162.274	0.205	0.010
-737.054	268.290	0.113	0.203
-736.039	-91.660	-0.033	-0.010
-735.025	-80.959	0.282	0.096
-734.010	-200.000	0.021	0.120
-732.996	471.258	0.099	-0.227
-731.981	210.957	0.054	0.086
-730.966	-192.538	0.214	-0.002
-729.952	-181.644	-0.221	0.004
-728.937	606.990	0.074	0.188
-727.923	40.932	-0.097	-0.090
-726.908	-108.877	-0.484	0.106
-725.894	-200.000	-0.019	0.134
-724.879	-148.708	-0.298	0.025
-723.864	-28.425	0.127	-0.075
-722.850	-96.819	-0.122	0.033
-721.835	-200.000	-0.039	0.177
-720.821	-150.511	-0.419	-0.033
-719.806	-193.049	0.103	-0.001
-718.791	-200.000	0.030	0.160
-717.777	-200.000	-0.015	0.212
-716.762	-63.190	0.150	0.063
-715.748	800.000	-0.049	0.159
-714.733	52.835	-0.071	0.069
-713.718	638.507	0.114	-0.297
-712.704	1.520	-0.082	-0.061
-711.689	-147.675	0.291	0.025
-710.675	-34.783	-0.029	-0.016
-709.660	20.763	-0.046	0.038
-708.645	-110.513	-0.097	0.021
-707.631	800.000	-0.036	-0.129
-706.616	77.545	0.080	0.087
-705.602	-55.172	-0.305	-0.140
-704.587	-93.019	-0.305	-0.087
-703.572	274.015	-0.268	0.485
-702.558	800.000	0.114	0.345
-701.543	-200.000	-0.033	0.212
-700.529	-152.094	-0.262	-0.020
-699.514	-45.758	-0.257	-0.130
-698.499	249.399	0.122	-0.211
-697.485	788.949	0.104	0.292
-696.470	-13.652	0.093	0.062
-695.456	-75.556	0.197	0.072
-694.441	-132.346	0.200	0.026
-693.426	194.687	-0.168	0.260
-692.412	44.040	-0.158	-0.149
-691.397	22.686	-0.179	-0.150
-690.383	800.000	-0.047	-0.150
-689.368	-71.258	0.114	0.044
-688.354	800.000	0.025	-0.110
-687.339	226.033	-0.139	-0.230
-686.324	-200.000	0.225	0.000
-685.310	-32.823	0.119	-0.068
-684.295	102.773	0.229	0.274
-683.281	-42.014	-0.249	0.130
-682.266	268.899	0.078	-0.139
-681.251	275.638	0.036	-0.065
-680.237	134.555	-0.149	0.197
-679.222	-200.000	0.011	0.241
-678.208	-70.080	0.024	-0.009
-677.193	101.037	-0.143	-0.170
-676.178	-44.159	-0.059	-0.030
-675.164	-71.522	-0.159	-0.061
-674.149	-74.509	-0.089	-0.033
-673.135	-155.411	-0.198	0.013
-672.120	267.992	-0.126	0.226
-671.105	-27.848	0.177	-0.105
-670.091	-53.499	0.242	0.113
-669.076	-95.899	-0.242	0.066
-668.062	-200.000	0.028	-0.182
-667.047	-200.000	0.000	-0.034
-666.032	-26.399	-0.093	-0.056
-665.018	74.464	0.231	-0.249
-664.003	-200.000	0.044	-0.371
-662.989	-200.000	0.018	-0.125
-661.974	-151.364	0.243	-0.018
-660.959	800.000	-0.026	-0.081
-659.945	-136.851	-0.354	-0.042
-658.930	226.063	-0.181	0.300
-657.916	-142.757	-0.209	0.021
-656.901	800.000	-0.084	-0.245
-655.886	800.000	-0.071	0.309
-654.872	19.750	-0.202	-0.166
-653.857	377.191	-0.167	-0.350
-652.843	800.000	0.060	-0.227
-651.828	-200.000	0.004	0.039
-650.814	-21.833	-0.074	-0.046
-649.799	-112.875	0.275	0.056
-648.784	-200.000	0.021	-0.197
-647.770	22.084	-0.200	-0.166
-646.755	190.731	0.100	-0.154
-645.741	-200.000	0.013	-0.061
-644.726	-200.000	-0.044	0.231
-643.711	242.382	-0.156	-0.267
-642.697	-70.951	-0.048	0.019
-641.682	-70.108	0.225	-0.088
-640.668	49.954	-0.222	0.213
-639.653	-73.818	-0.050	0.019
-638.638	-200.000	-0.005	0.112
-637.624	-36.343	-0.283	0.156
-636.609	27.838	0.324	0.279
-635.595	65.766	0.146	-0.151
-634.580	66.787	0.160	-0.166
-633.565	-29.012	0.120	-0.070
-632.551	-126.400	-0.446	-0.068
-631.536	142.795	-0.162	0.220
-630.522	652.421	-0.087	-0.227
-629.507	472.265	-0.152	0.350
-628.492	-99.607	-0.141	-0.036
-627.478	208.296	-0.180	-0.288
-626.463	6.706	0.079	0.060
-625.449	-71.218	-0.214	-0.082
-624.434	99.251	-0.347	-0.409
-623.419	-79.966	-0.297	-0.102
-622.405	9.489	-0.101	0.078
-621.390	69.693	0.174	0.183
-620.376	800.000	0.046	0.158
-619.361	56.023	0.038	0.038
-618.346	209.791	-0.142	-0.228
-617.332	-77.970	-0.214	0.075
-616.317	-62.478	0.448	0.190
-615.303	-53.808	0.272	0.127
-614.288	-74.349	0.080	0.029
-613.273	-200.000	0.029	0.300
-612.259	-200.000	-0.062	0.354
-611.244	800.000	0.061	0.240
-610.230	-109.536	-0.107	-0.023
-609.215	-103.378	-0.245	-0.059
-608.201	-8.393	-0.142	-0.097
-607.186	261.505	-0.171	-0.302
-606.171	-200.000	0.017	0.187
-605.157	316.046	-0.068	-0.131
-604.142	-168.764	-0.426	0.016
-603.128	139.416	-0.195	-0.262
-602.113	-200.000	0.004	-0.063
-601.098	-155.296	0.067	-0.004
-600.084	546.722	-0.060	0.145
-599.069	-101.878	-0.221	-0.054
-598.055	800.000	-0.072	0.252
-597.040	-200.000	-0.062	0.383
-596.025	118.718	-0.133	-0.168
-595.011	800.000	0.032	0.141
-593.996	239.283	0.043	0.073
-592.982	-200.000	-0.038	-0.232
-591.967	800.000	0.058	-0.228
-590.952	800.000	-0.121	0.425
-589.938	-45.582	0.024	-0.012
-588.923	-110.821	0.432	-0.091
-587.909	-106.014	0.216	-0.050
-586.894	287.589	-0.047	-0.086
-585.879	800.000	-0.050	-0.184
-584.865	-14.396	-0.058	0.038
-583.850	-35.781	-0.277	-0.153
-582.836	-105.651	-0.206	-0.048
-581.821	-200.000	-0.001	0.060
-580.806	800.000	-0.034	-0.145
-579.792	641.163	-0.098	0.253
-578.777	509.754	0.063	0.148
-577.763	-200.000	0.015	0.428
-576.748	-121.189	0.144	0.024
-575.733	-73.941	0.210	0.078
-574.719	-200.000	0.045	0.204
-573.704	-102.076	0.166	0.041
-572.690	161.683	-0.234	-0.334
-571.675	-200.000	0.033	0.407
-570.661	-39.235	0.395	0.211
-569.646	59.394	0.228	-0.229
-568.631	17.481	-0.250	-0.202
-567.617	-75.491	0.097	-0.035
-566.602	800.000	0.052	0.220
-565.588	34.152	-0.307	-0.273
-564.573	-56.069	0.396	0.180
-563.558	181.531	0.192	-0.288
-562.544	-60.846	0.050	0.021
-561.529	-50.935	0.212	-0.101
-560.515	10.466	0.074	-0.057
-559.500	36.817	-0.141	-0.127
-558.485	-200.000	0.001	0.007
-557.471	-200.000	0.007	-0.058
-556.456	800.000	-0.027	-0.093
-555.442	249.265	0.098	-0.168
-554.427	-143.907	0.131	-0.013
-553.412	-11.282	-0.335	0.224
-552.398	29.032	-0.438	0.378
-551.383	9.880	-0.272	-0.210
-550.369	-29.853	0.268	-0.156
-549.354	290.182	-0.035	0.064
-548.339	-133.726	-0.380	0.048
-547.325	41.581	0.182	0.168
-546.310	-200.000	0.011	0.257
-545.296	-200.000	0.019	0.113
-544.281	-146.404	0.225	0.020
-543.266	6.078	-0.288	-0.217
-542.252	139.755	0.081	-0.109
-541.237	-200.000	0.024	-0.241
-540.223	-200.000	-0.006	-0.059
-539.208	-200.000	-0.027	0.280
-538.193	800.000	0.098	0.296
-537.179	-65.992	0.215	-0.087
-536.164	-139.138	0.034	0.004
-535.150	621.614	0.045	0.115
-534.135	800.000	-0.068	0.242
-533.121	0.218	-0.171	0.124
-532.106	26.523	-0.225	-0.191
-531.091	-200.000	-0.015	-0.201
-530.077	-26.508	0.148	0.088
-529.062	-54.197	-0.419	0.193
-528.048	800.000	0.074	-0.327
-527.033	-32.075	0.464	-0.264
-526.018	-12.993	-0.247	-0.164
-525.004	-122.361	-0.125	-0.021
-523.989	-200.000	-0.013	0.144
-522.975	273.539	-0.157	0.283
-521.960	30.874	0.249	-0.216
-520.945	-74.231	0.188	-0.069
-519.931	-200.000	-0.017	0.245
-518.916	38.397	0.183	-0.166
-517.902	-200.000	0.016	0.196
-516.887	-137.241	-0.293	-0.034
-515.872	-200.000	0.049	-0.274
-514.858	98.756	0.275	-0.322
-513.843	86.163	-0.145	-0.163
-512.829	-99.549	-0.206	0.053
-511.814	800.000	-0.056	0.159
-510.799	91.792	-0.019	-0.022
-509.785	-200.000	0.014	0.220
-508.770	67.614	0.155	0.161
-507.756	197.988	-0.069	0.107
-506.741	75.467	-0.133	-0.142
-505.726	15.317	0.320	0.255
-504.712	245.664	0.019	-0.033
-503.697	756.493	0.132	0.363
-502.683	-200.000	-0.002	-0.262
-501.668	800.000	-0.075	-0.319
-500.653	-158.171	-0.210	-0.013
-499.639	-200.000	0.038	0.169
-498.624	-200.000	0.014	-0.196
-497.610	-138.821	0.217	-0.024
-496.595	-26.894	-0.278	0.165
-495.581	-200.000	-0.013	-0.080
-494.566	768.204	0.071	-0.195
-493.551	177.185	0.275	0.406
-492.537	239.116	-0.078	-0.133
-491.522	205.382	-0.110	-0.173
-490.508	-112.953	0.159	-0.032
-489.493	-69.267	-0.195	-0.076
-488.478	575.166	-0.053	-0.131
-487.464	-62.396	0.204	-0.086
-486.449	-149.997	-0.196	0.016
-485.435	-164.914	0.148	0.007
-484.420	-59.856	-0.058	-0.025
-483.405	454.835	-0.091	0.205
-482.391	800.000	0.060	-0.180
-481.376	-200.000	-0.006	-0.067
-480.362	-39.753	0.173	0.092
-479.347	800.000	0.009	-0.033
-478.332	212.834	-0.135	-0.216
-477.318	-123.121	0.222	-0.036
-476.303	-186.542	0.312	-0.005
-475.289	88.631	0.208	0.235
-474.274	-93.945	-0.211	-0.059
-473.259	-59.558	-0.115	0.050
-472.245	-200.000	-0.007	0.473
-471.230	-200.000	0.002	0.014
-470.216	-200.000	-0.002	-0.283
-469.201	-200.000	0.014	-0.062
-468.186	800.000	0.050	0.162
-467.172	438.286	0.083	0.183
-466.157	-107.739	-0.136	-0.030
-465.143	-200.000	0.005	-0.074
-464.128	355.489	-0.016	-0.033
-463.113	-156.142	0.097	-0.006
-462.099	64.278	-0.106	0.108
-461.084	78.892	0.036	0.039
-460.070	72.874	-0.060	0.064
-459.055	-96.469	-0.060	0.016
-458.040	-115.183	-0.143	0.028
-457.026	800.000	0.026	-0.090
-456.011	-28.115	0.314	-0.184
-454.997	28.986	0.335	0.288
-453.982	234.101	0.074	-0.123
-452.968	11.617	-0.267	0.208
-451.953	96.209	0.442	0.513
-450.938	-200.000	-0.002	0.270
-449.924	174.901	-0.134	-0.196
-448.909	583.995	-0.109	-0.271
-447.895	118.716	-0.138	0.172
-446.880	-200.000	0.020	0.217
-445.865	-120.425	-0.219	0.038
-444.851	800.000	-0.080	0.314
-443.836	-14.734	0.111	0.072
-442.822	46.577	0.199	-0.187
-441.807	-100.915	-0.146	0.036
-440.792	61.128	-0.199	0.201
-439.778	-63.550	-0.282	-0.117
-438.763	146.993	-0.100	0.137
-437.749	432.772	-0.084	0.185
-436.734	512.242	0.066	0.155
-435.719	43.977	0.119	0.110
-434.705	-200.000	-0.005	-0.143
-433.690	38.078	0.184	0.165
-432.676	37.873	0.391	0.352
-431.661	-115.667	-0.141	-0.027
-430.646	-39.098	0.156	-0.083
-429.632	78.474	0.066	0.071
-428.617	-94.595	-0.339	0.094
-427.603	312.265	0.112	-0.214
-426.588	286.273	-0.022	-0.040
-425.573	-44.887	0.048	0.024
-424.559	-100.750	0.124	0.031
-423.544	-29.993	0.065	0.037
-422.530	-28.813	-0.208	-0.121
-421.515	800.000	-0.004	-0.016
-420.500	70.356	0.220	0.230
-419.486	11.512	-0.465	-0.361
-418.471	-133.044	0.113	0.015
-417.457	-167.082	-0.357	-0.015
-416.442	-121.434	-0.229	-0.038
-415.428	-33.127	0.306	0.172
-414.413	-98.206	-0.070	0.018
-413.398	171.616	0.135	0.196
-412.384	-72.224	-0.149	-0.056
-411.369	419.036	-0.036	0.078
-410.355	-70.156	-0.275	0.106
-409.340	4.532	0.257	-0.191
-408.325	75.335	0.058	0.062
-407.311	109.454	-0.021	-0.026
-406.296	-101.469	-0.231	0.057
-405.282	239.874	0.098	-0.166
-404.267	22.270	0.162	-0.134
-403.252	-90.291	-0.224	0.066
-402.238	800.000	-0.034	0.122
-401.223	108.413	0.118	-0.142
-400.209	33.311	-0.244	0.214
-399.194	134.988	-0.119	0.157
-398.179	710.478	0.091	0.244
-397.165	56.107	0.071	0.069
-396.150	412.939	0.200	-0.429
-395.136	49.350	0.413	-0.393
-394.121	-200.000	-0.053	-0.365
-393.106	-200.000	-0.015	-0.226
-392.092	6.000	0.160	0.120
-391.077	-200.000	0.026	0.146
-390.063	-125.401	0.176	-0.027
-389.048	-103.760	0.303	-0.072
-388.033	-45.585	-0.357	0.179
-387.019	127.631	0.226	0.290
-386.004	3.923	-0.135	-0.100
-384.990	380.226	0.073	-0.151
-383.975	-105.863	-0.298	0.068
-382.960	-124.878	0.302	0.047
-381.946	-101.608	0.146	-0.036
-380.931	-200.000	0.026	0.211
-379.917	-200.000	0.025	0.249
-378.902	-104.372	-0.184	-0.043
-377.888	-200.000	-0.028	0.246
-376.873	800.000	-0.050	-0.147
-375.858	247.259	0.096	-0.164
-374.844	33.706	0.251	0.221
-373.829	800.000	-0.036	0.124
-372.815	-89.512	0.179	0.053
-371.800	-118.369	-0.170	0.030
-370.785	800.000	-0.112	-0.328
-369.771	80.666	0.248	-0.270
-368.756	66.241	0.069	-0.071
-367.742	8.047	0.058	0.044
-366.727	309.438	-0.154	0.291
-365.712	-189.707	0.125	-0.001
-364.698	239.348	-0.096	0.161
-363.683	-91.753	-0.166	0.048
-362.669	651.482	-0.077	-0.200
-361.654	522.140	-0.040	0.095
-360.639	-98.259	0.033	0.009
-359.625	263.256	0.174	-0.306
-358.610	125.215	0.121	0.154
-357.596	800.000	0.095	0.367
-356.581	-200.000	-0.052	0.254
-355.566	173.462	0.131	-0.191
-354.552	-29.287	0.246	0.142
-353.537	-34.421	0.023	0.013
-352.523	-104.151	-0.008	-0.002
-351.508	-72.150	0.128	0.048
-350.493	342.727	0.025	0.049
-349.479	-17.184	-0.139	0.088
-348.464	800.000	-0.048	0.151
-347.450	-34.185	-0.485	-0.269
-346.435	-84.770	-0.161	0.051
-345.420	-68.686	0.163	-0.064
-344.406	-119.710	-0.225	0.039
-343.391	557.568	0.119	-0.289
-342.377	140.215	-0.096	0.128
-341.362	-145.966	0.158	0.014
-340.348	37.492	-0.339	-0.304
-339.333	-200.000	0.018	-0.212
-338.318	-200.000	-0.027	0.243
-337.304	-200.000	-0.009	-0.110
-336.289	124.097	-0.077	-0.098
-335.275	622.613	-0.197	0.501
-334.260	136.208	0.190	0.250
-333.245	-105.687	0.109	0.025
-332.231	-163.370	0.137	0.007
-331.216	-200.000	-0.016	-0.180
-330.202	-200.000	0.025	-0.111
-329.187	-200.000	0.009	-0.212
-328.172	20.514	0.166	0.136
-327.158	-50.522	-0.118	-0.056
-326.143	120.962	0.207	-0.259
-325.129	-200.000	-0.008	-0.130
-324.114	398.130	0.139	0.293
-323.099	-102.644	0.173	-0.042
-322.085	800.000	0.081	0.235
-321.070	-158.515	-0.266	-0.016
-320.056	800.000	-0.051	0.168
-319.041	50.853	0.157	0.150
-318.026	6.931	0.111	-0.083
-317.012	-200.000	-0.015	-0.100
-315.997	-107.125	0.253	-0.056
-314.983	-200.000	-0.031	-0.217
-313.968	-32.110	0.221	-0.125
-312.953	-200.000	0.011	0.215
-311.939	18.024	-0.258	0.207
-310.924	800.000	0.051	0.158
-309.910	380.285	-0.107	-0.220
-308.895	-52.821	-0.185	0.086
-307.880	800.000	-0.016	-0.062
-306.866	27.932	-0.257	-0.218
-305.851	183.174	0.123	-0.182
-304.837	131.473	0.077	-0.099
-303.822	26.152	0.129	0.108
-302.807	-200.000	0.017	-0.101
-301.793	-125.169	-0.218	-0.034
-300.778	152.695	-0.163	-0.225
-299.764	-200.000	-0.021	-0.194
-298.749	70.780	0.267	0.278
-297.735	-153.751	0.063	0.004
-296.720	-200.000	-0.028	0.154
-295.705	800.000	-0.124	-0.501
-294.691	800.000	-0.050	-0.198
-293.676	-101.053	0.214	0.053
-292.662	-138.778	-0.290	-0.032
-291.647	191.398	0.071	-0.108
-290.632	56.290	-0.024	-0.023
-289.618	-132.534	0.069	0.009
-288.603	130.709	-0.074	0.096
-287.589	0.862	0.255	-0.184
-286.574	-80.471	-0.098	-0.033
-285.559	28.378	-0.148	0.126
-284.545	-62.232	0.194	0.081
-283.530	114.368	0.122	-0.150
-282.516	32.903	-0.031	-0.027
-281.501	-200.000	-0.065	0.289
-280.486	-200.000	-0.021	-0.099
-279.472	800.000	0.062	0.208
-278.457	40.100	0.108	-0.097
-277.443	80.368	0.125	0.135
-276.428	87.633	-0.021	0.023
-275.413	171.628	0.283	-0.409
-274.399	-30.539	-0.133	-0.076
-273.384	-8.050	-0.094	0.064
-272.370	-159.235	-0.422	0.024
-271.355	-15.689	0.152	0.098
-270.340	-156.298	-0.058	-0.004
-269.326	-90.971	0.209	-0.061
-268.311	-200.000	-0.001	-0.291
-267.297	800.000	-0.122	0.367
-266.282	-200.000	-0.026	0.146
-265.267	-1.681	-0.137	0.097
-264.253	-200.000	0.031	-0.245
-263.238	-102.304	-0.205	-0.050
-262.224	413.704	0.089	-0.190
-261.209	-200.000	0.016	0.165
-260.195	-67.614	-0.052	0.020
-259.180	85.814	-0.097	-0.107
-258.165	800.000	0.109	-0.335
-257.151	-122.913	-0.121	-0.020
-256.136	103.864	-0.210	0.248
-255.122	-17.777	-0.104	-0.066
-254.107	-86.804	-0.250	0.077
-253.092	113.851	0.078	-0.095
-252.078	-85.529	-0.129	0.040
-251.063	-146.029	0.366	-0.033
-250.049	315.789	0.050	-0.096
-249.034	455.284	-0.029	0.064
-248.019	375.081	-0.105	0.216
-247.005	-122.750	-0.282	-0.046
-245.990	-200.000	-0.034	-0.240
-244.976	-114.980	0.108	0.021
-243.961	800.000	-0.047	0.130
-242.946	-182.443	-0.149	0.003
-241.932	47.883	0.240	-0.226
-240.917	-200.000	0.017	-0.252
-239.903	251.558	0.045	-0.077
-238.888	98.404	0.272	0.315
-237.873	139.428	0.061	-0.081
-236.859	330.405	0.204	0.395
-235.844	211.873	0.190	-0.301
-234.830	-130.593	0.312	0.042
-233.815	-61.786	0.329	-0.139
-232.800	-131.821	0.011	-0.001
-231.786	-200.000	0.059	-0.311
-230.771	-124.283	-0.274	-0.043
-229.757	139.489	-0.147	0.195
-228.742	47.733	-0.126	0.118
-227.727	-200.000	-0.019	0.265
-226.713	12.145	0.202	-0.157
-225.698	383.213	-0.008	-0.016
-224.684	-200.000	-0.022	0.332
-223.669	19.582	-0.072	0.059
-222.655	800.000	-0.046	0.172
-221.640	434.273	0.078	-0.170
-220.625	-171.161	-0.347	-0.012
-219.611	39.741	0.053	0.048
-218.596	-200.000	-0.051	-0.226
-217.582	73.374	0.279	-0.293
-216.567	23.145	0.289	-0.238
-215.552	-200.000	0.038	-0.201
-214.538	-200.000	-0.006	-0.261
-213.523	-200.000	0.027	-0.312
-212.509	-200.000	0.151	-0.686
-211.494	-125.344	0.232	0.036
-210.479	426.134	-0.091	-0.198
-209.465	-200.000	-0.031	0.235
-208.450	800.000	-0.073	0.208
-207.436	-200.000	-0.070	-0.349
-206.421	-15.006	0.071	-0.046
-205.406	-200.000	0.001	-0.114
-204.392	-71.964	0.154	-0.058
-203.377	229.935	-0.107	-0.176
-202.363	800.000	-0.066	-0.197
-201.348	-200.000	-0.020	-0.114
-200.333	-125.715	-0.218	-0.033
-199.319	-200.000	0.028	-0.236
-198.304	-200.000	-0.018	-0.131
-197.290	-200.000	0.030	-0.259
-196.275	800.000	-0.051	0.150
-195.260	-48.782	-0.327	0.158
-194.246	-200.000	-0.024	-0.125
-193.231	-93.278	0.354	0.099
-192.217	126.731	0.187	0.238
-191.202	-140.059	-0.124	-0.013
-190.187	95.476	0.135	0.155
-189.173	-153.795	0.388	0.027
-188.158	-200.000	0.003	0.168
-187.144	104.684	0.122	-0.144
-186.129	800.000	0.093	0.296
-185.114	241.012	0.188	0.314
-184.100	800.000	-0.033	-0.124
-183.085	281.006	0.047	0.085
-182.071	-156.989	-0.250	0.015
-181.056	800.000	-0.055	0.202
-180.042	-13.317	-0.257	0.167
-179.027	-1.554	-0.307	0.217
-178.012	-200.000	0.020	0.091
-176.998	-127.955	0.165	-0.024
-175.983	-43.057	0.366	-0.186
-174.969	-128.456	-0.038	-0.005
-173.954	129.315	-0.271	0.347
-172.939	98.026	0.268	-0.309
-171.925	-200.000	-0.005	0.116
-170.910	554.316	0.117	-0.281
-169.896	107.531	-0.154	0.183
-168.881	-22.711	-0.100	0.060
-167.866	-200.000	0.007	-0.098
-166.852	-17.491	0.262	-0.165
-165.837	-131.605	-0.174	0.023
-164.823	100.716	-0.104	0.121
-163.808	245.194	-0.052	0.088
-162.793	-98.223	-0.099	-0.026
-161.779	66.570	-0.130	-0.132
-160.764	169.200	-0.095	-0.136
-159.750	800.000	0.070	-0.228
-158.735	205.751	-0.022	0.034
-157.720	-108.010	-0.207	-0.045
-156.706	-119.054	0.053	-0.009
-155.691	-5.634	0.074	0.051
-154.677	227.706	0.115	0.187
-153.662	-200.000	0.022	-0.104
-152.647	-89.274	-0.138	-0.041
-151.633	-123.164	0.093	-0.015
-150.618	718.413	-0.064	0.171
-149.604	140.535	-0.113	-0.149
-148.589	366.742	-0.056	0.114
-147.574	4.748	0.143	0.105
-146.560	492.692	0.079	-0.182
-145.545	-200.000	-0.025	0.118
-144.531	-142.662	0.149	-0.015
-143.516	-50.814	-0.344	-0.162
-142.502	399.769	0.060	-0.126
-141.487	255.718	-0.083	0.143
-140.472	-200.000	0.024	-0.127
-139.458	-162.376	-0.150	-0.007
-138.443	-17.377	0.238	0.150
-137.429	-148.373	0.388	-0.032
-136.414	-48.259	0.235	-0.114
-135.399	49.902	-0.210	-0.198
-134.385	16.553	0.185	0.147
-133.370	26.017	0.220	0.184
-132.356	-12.419	-0.097	-0.063
-131.341	-52.772	0.092	0.043
-130.326	-173.526	-0.242	0.007
-129.312	-200.000	-0.018	-0.148
-128.297	-142.314	0.218	0.022
-127.283	-200.000	-0.014	0.134
-126.268	-65.097	0.391	0.158
-125.253	-200.000	0.020	-0.418
-124.239	-200.000	-0.011	-0.177
-123.224	800.000	-0.070	-0.269
-122.210	-146.130	0.226	0.020
-121.195	19.572	-0.065	0.052
-120.180	-148.796	-0.339	0.027
-119.166	-32.717	0.398	-0.221
-118.151	20.700	0.091	-0.074
-117.137	800.000	-0.114	-0.415
-116.122	-64.980	-0.099	0.040
-115.107	800.000	-0.065	-0.186
-114.093	-16.002	0.189	-0.121
-113.078	-20.204	0.201	0.124
-112.064	309.068	-0.162	-0.303
-111.049	51.147	-0.220	0.209
-110.034	214.273	-0.105	-0.166
-109.020	130.069	-0.040	-0.051
-108.005	-3.738	-0.114	0.079
-106.991	-157.464	0.085	0.005
-105.976	-130.602	-0.167	0.023
-104.962	-106.677	0.134	0.030
-103.947	202.408	0.089	0.138
-102.932	-42.903	0.014	-0.007
-101.918	-129.198	-0.258	0.036
-100.903	-200.000	0.037	-0.186
-99.889	-141.505	-0.105	-0.011
-98.874	207.335	0.037	0.057
-97.859	800.000	0.020	0.063
-96.845	-178.342	-0.182	0.004
-95.830	800.000	0.092	-0.316
-94.816	-31.769	-0.201	-0.113
-93.801	140.935	0.096	0.126
-92.786	-163.576	0.029	-0.001
-91.772	-143.188	0.223	-0.021
-90.757	-104.932	-0.148	-0.034
-89.743	-80.078	-0.131	0.044
-88.728	438.886	-0.123	-0.268
-87.713	-126.809	0.243	0.036
-86.699	273.263	0.032	0.057
-85.684	508.430	-0.017	0.039
-84.670	29.553	0.107	0.091
-83.655	66.205	0.139	0.141
-82.640	229.867	0.283	0.462
-81.626	-200.000	0.044	-0.205
-80.611	800.000	-0.089	0.373
-79.597	-27.172	-0.106	-0.062
-78.582	800.000	-0.096	-0.309
-77.567	-200.000	0.007	-0.177
-76.553	218.281	-0.039	0.063
-75.538	3.749	0.150	-0.109
-74.524	-160.720	-0.259	0.014
-73.509	26.685	-0.162	0.135
-72.494	-65.335	0.189	0.076
-71.480	-200.000	-0.064	0.303
-70.465	222.864	-0.047	-0.076
-69.451	-179.255	0.065	-0.001
-68.436	-121.937	-0.465	-0.076
-67.422	-53.246	-0.247	0.113
-66.407	-104.915	-0.168	-0.039
-65.392	800.000	0.105	0.325
-64.378	-200.000	0.020	0.296
-63.363	800.000	-0.019	0.080
-62.349	96.167	0.158	0.180
-61.334	35.285	-0.648	-0.567
-60.319	-122.376	0.063	-0.010
-59.305	-200.000	0.070	-0.367
-58.290	168.566	0.573	0.816
-57.276	342.331	0.750	1.464
-56.261	-200.000	73.990	534.137
-55.246	579.364	1297.712	3170.491
-54.232	145.198	2528.157	3375.894
-53.217	114.818	2348.066	2857.197
-52.203	52.816	1963.026	1872.761
-51.188	46.659	1749.960	1621.209
-50.173	43.489	1702.130	1552.528
-49.159	57.535	1734.954	1691.325
-48.144	63.956	1753.237	1758.636
-47.130	46.274	1717.520	1587.928
-46.115	42.983	1703.464	1549.608
-45.100	42.824	1698.541	1543.852
-44.086	42.794	1696.395	1541.608
-43.071	42.725	1693.899	1538.754
-42.057	42.706	1691.578	1536.433
-41.042	42.785	1689.350	1534.951
-40.027	42.765	1687.144	1532.737
-39.013	42.745	1685.522	1531.052
-37.998	42.713	1683.787	1529.171
-36.984	42.814	1682.366	1528.585
-35.969	42.899	1680.942	1527.874
-34.954	43.132	1678.817	1527.650
-33.940	43.063	1676.892	1525.313
-32.925	42.936	1675.704	1523.217
-31.911	42.955	1673.710	1521.485
-30.896	43.036	1671.676	1520.184
-29.881	42.908	1670.238	1517.851
-28.867	42.899	1668.429	1516.083
-27.852	42.911	1666.917	1514.737
-26.838	42.922	1665.787	1513.733
-25.823	42.931	1664.199	1512.297
-24.809	42.922	1662.854	1510.946
-23.794	42.985	1661.223	1509.882
-22.779	42.927	1660.176	1508.434
-21.765	42.944	1658.221	1506.723
-20.750	42.950	1656.396	1505.047
-19.736	43.013	1654.619	1503.845
-18.721	42.926	1653.653	1502.260
-17.706	42.993	1651.678	1500.902
-16.692	42.907	1650.547	1499.181
-15.677	42.933	1649.131	1498.029
-14.663	42.947	1647.740	1496.805
-13.648	43.000	1646.122	1495.670
-12.633	42.959	1644.200	1493.563
-11.619	42.914	1643.052	1492.124
-10.604	43.005	1641.196	1491.054
-9.590	42.959	1639.950	1489.525
-8.575	42.994	1639.009	1488.866
-7.560	43.005	1637.590	1487.599
-6.546	43.067	1635.901	1486.465
-5.531	42.917	1635.346	1484.796
-4.517	43.006	1633.319	1483.551
-3.502	42.987	1632.423	1482.542
-2.487	42.996	1631.427	1481.646
-1.473	42.993	1619.973	1471.159
-0.458	40.461	1599.914	1434.590
0.556	35.527	1597.411	1396.996
1.571	32.683	1620.253	1395.826
2.586	31.957	1634.829	1402.830
3.600	28.128	1581.941	1329.564
4.615	15.486	1460.415	1141.893
5.629	3.543	1383.484	1004.291
6.644	1.181	1372.453	980.925
7.659	1.009	1370.646	978.440
8.673	0.900	1369.934	977.140
9.688	0.801	1368.775	975.590
10.702	0.595	1365.681	971.970
11.717	4.659	1374.035	1004.105
12.731	16.198	1396.236	1095.565
13.746	24.086	1409.218	1157.137
14.761	24.590	1409.021	1160.149
15.775	24.695	1408.266	1160.104
16.790	24.698	1407.948	1159.757
17.804	24.843	1407.121	1159.917
18.819	24.922	1407.347	1160.513
19.834	24.960	1406.139	1159.660
20.848	24.975	1405.363	1159.009
21.863	24.965	1405.066	1158.599
22.877	24.928	1403.893	1157.289
23.892	25.113	1402.858	1157.527
24.907	25.049	1401.826	1156.161
25.921	25.058	1400.916	1155.367
26.936	24.987	1399.713	1153.819
27.950	24.935	1399.134	1152.903
28.965	25.060	1397.509	1152.268
29.980	25.016	1396.452	1151.008
30.994	25.002	1395.116	1149.719
32.009	25.029	1393.855	1148.747
33.023	25.026	1392.546	1147.551
34.038	24.982	1391.805	1146.556
35.053	25.006	1390.761	1145.744
36.067	25.073	1389.032	1144.646
37.082	24.941	1389.058	1143.724
38.096	25.029	1387.384	1142.809
39.111	25.002	1386.866	1142.109
40.126	24.981	1386.314	1141.418
41.140	24.977	1386.153	1141.159
42.155	24.957	1385.484	1140.381
43.169	24.928	1385.627	1140.214
44.184	24.987	1385.160	1140.104
45.199	24.913	1385.040	1139.430
46.213	25.053	1383.793	1139.194
47.228	25.074	1383.319	1138.837
48.242	25.076	1381.520	1137.266
49.257	25.025	1380.113	1135.684
50.271	24.979	1379.163	1134.511
51.286	25.043	1377.308	1133.294
52.301	24.960	1376.782	1132.235
53.315	24.911	1375.578	1130.836
54.330	25.050	1374.751	1130.934
55.344	25.049	1373.232	1129.575
56.359	25.019	1372.383	1128.590
57.374	24.930	1371.864	1127.501
58.388	24.994	1370.982	1127.078
59.403	24.901	1371.207	1126.578
60.417	24.961	1370.489	1126.267
61.432	24.899	1369.546	1125.004
62.447	24.872	1369.567	1124.751
63.461	24.955	1367.697	1123.637
64.476	24.968	1366.589	1122.710
65.490	25.023	1365.020	1121.667
66.505	24.976	1363.480	1120.009
67.520	25.011	1362.404	1119.243
68.534	25.056	1361.201	1118.437
69.549	25.008	1360.359	1117.343
70.563	24.987	1359.418	1116.339
71.578	24.997	1358.542	1115.589
72.593	25.038	1357.831	1115.156
73.607	24.960	1357.143	1114.010
74.622	24.963	1356.309	1113.247
75.636	24.960	1355.591	1112.537
76.651	25.034	1354.595	1112.084
77.666	25.002	1354.316	1111.554
78.680	24.988	1353.983	1111.098
79.695	24.968	1353.441	1110.429
80.709	25.059	1352.199	1109.876
81.724	25.010	1350.872	1108.387
82.739	24.961	1349.721	1107.040
83.753	24.961	1348.844	1106.224
84.768	24.947	1348.529	1105.784
85.782	24.934	1347.007	1104.355
86.797	25.085	1346.039	1104.396
87.812	25.032	1344.697	1102.868
88.826	25.033	1343.523	1101.815
89.841	25.018	1342.639	1100.901
90.855	25.045	1341.508	1100.039
91.870	25.041	1340.883	1099.410
92.884	25.064	1339.954	1098.692
93.899	25.097	1339.239	1098.206
94.914	25.071	1338.346	1097.221
95.928	25.092	1337.252	1096.355
96.943	25.058	1336.961	1095.812
97.957	25.004	1336.396	1094.919
98.972	24.995	1335.580	1094.098
99.987	25.057	1334.170	1093.224
101.001	24.957	1333.661	1092.100
102.016	24.992	1332.490	1091.261
103.030	25.041	1331.579	1090.715
104.045	24.970	1331.007	1089.722
105.060	24.981	1330.394	1089.187
106.074	25.061	1328.670	1088.164
107.089	24.965	1328.211	1087.113
108.103	25.037	1326.455	1086.011
109.118	25.005	1325.632	1085.052
110.133	25.079	1324.510	1084.481
111.147	25.138	1323.461	1083.883
112.162	25.141	1321.985	1082.600
113.176	25.204	1320.832	1081.940
114.191	25.186	1320.443	1081.418
115.206	25.157	1319.351	1080.249
116.220	25.075	1318.398	1078.878
117.235	25.123	1317.135	1078.041
118.249	25.125	1315.877	1076.928
119.264	25.127	1315.248	1076.331
120.279	25.101	1314.681	1075.613
121.293	25.136	1313.804	1075.011
122.308	25.251	1313.075	1075.011
123.322	25.081	1312.528	1073.450
124.337	25.154	1311.349	1072.826
125.352	25.252	1310.217	1072.390
126.366	25.305	1308.949	1071.573
127.381	25.164	1308.650	1070.395
128.395	25.195	1307.407	1069.466
129.410	25.150	1306.907	1068.697
130.424	25.174	1306.178	1068.145
131.439	25.137	1305.217	1067.047
132.454	25.199	1304.596	1066.810
133.468	25.199	1303.797	1066.065
134.483	25.152	1303.272	1065.264
135.497	25.090	1303.016	1064.594
136.512	25.255	1301.124	1063.929
137.527	25.184	1300.656	1063.031
138.541	25.288	1298.835	1062.064
139.556	25.238	1297.474	1060.561
140.570	25.221	1296.470	1059.548
141.585	25.145	1295.575	1058.272
142.600	25.159	1294.507	1057.391
143.614	25.162	1293.612	1056.584
144.629	25.128	1292.554	1055.427
145.643	25.105	1291.574	1054.399
146.658	25.029	1290.589	1053.055
147.673	25.035	1289.539	1052.138
148.687	25.158	1288.588	1051.988
149.702	25.027	1287.644	1050.361
150.716	25.058	1286.290	1049.343
151.731	25.076	1285.512	1048.721
152.746	25.153	1284.111	1047.936
153.760	25.175	1282.903	1046.984
154.775	25.145	1282.081	1046.045
155.789	25.118	1281.279	1045.142
156.804	25.173	1280.057	1044.372
157.819	25.050	1279.731	1043.297
158.833	25.241	1278.421	1043.248
159.848	25.136	1278.322	1042.468
160.862	25.184	1277.235	1041.767
161.877	25.190	1276.083	1040.768
162.892	25.246	1275.292	1040.358
163.906	25.254	1275.058	1040.122
164.921	25.182	1274.365	1039.046
165.935	25.206	1273.484	1038.375
166.950	25.171	1272.905	1037.606
167.964	25.197	1272.271	1037.148
168.979	25.261	1271.615	1036.893
169.994	25.301	1270.708	1036.292
171.008	25.282	1270.179	1035.659
172.023	25.316	1269.331	1035.071
173.037	25.288	1268.688	1034.294
174.052	25.277	1268.115	1033.674
175.067	25.223	1267.313	1032.618
176.081	25.263	1266.770	1032.314
177.096	25.260	1265.594	1031.243
178.110	25.238	1264.662	1030.268
179.125	25.333	1263.845	1030.056
180.140	25.328	1262.584	1028.913
181.154	25.385	1261.566	1028.316
182.169	25.259	1260.579	1026.698
183.183	25.218	1259.715	1025.670
184.198	25.180	1258.828	1024.639
185.213	25.306	1257.565	1024.241
186.227	25.299	1256.951	1023.608
187.242	25.307	1255.738	1022.578
188.256	25.234	1255.265	1021.688
189.271	25.232	1254.173	1020.697
190.286	25.274	1253.684	1020.446
191.300	25.276	1252.912	1019.740
192.315	25.276	1252.186	1019.056
193.329	25.350	1251.593	1018.905
194.344	25.305	1251.704	1018.648
195.359	25.403	1250.910	1018.466
196.373	25.246	1250.678	1017.301
197.388	25.231	1250.474	1016.961
198.402	25.367	1249.598	1016.924
199.417	25.334	1249.454	1016.530
200.432	25.371	1248.731	1016.061
201.446	25.412	1247.803	1015.451
202.461	25.393	1247.034	1014.630
203.475	25.314	1246.532	1013.686
204.490	25.373	1245.227	1012.864
205.504	25.420	1244.171	1012.183
206.519	25.367	1243.812	1011.504
207.534	25.429	1241.929	1010.229
208.548	25.350	1241.889	1009.663
209.563	25.318	1241.241	1008.865
210.577	25.290	1240.457	1007.983
211.592	25.338	1239.223	1007.162
212.607	25.440	1238.556	1007.102
213.621	25.527	1237.509	1006.650
214.636	25.522	1236.610	1005.797
215.650	25.390	1235.953	1004.438
216.665	25.457	1235.072	1004.009
217.680	25.523	1234.159	1003.543
218.694	25.453	1233.574	1002.591
219.709	25.492	1232.503	1001.849
220.723	25.473	1232.146	1001.365
221.738	25.490	1231.192	1000.593
222.753	25.348	1230.669	999.287
223.767	25.460	1230.278	999.508
224.782	25.616	1229.472	999.630
225.796	25.475	1229.015	998.389
226.811	25.518	1228.326	997.977
227.826	25.518	1227.503	997.224
228.840	25.623	1226.852	997.188
229.855	25.578	1225.989	996.146
230.869	25.529	1225.616	995.485
231.884	25.494	1224.900	994.621
232.899	25.545	1223.788	993.912
233.913	25.543	1223.221	993.353
234.928	25.653	1222.893	993.606
235.942	25.685	1222.393	993.286
236.957	25.684	1221.358	992.355
237.972	25.654	1221.136	991.924
238.986	25.630	1220.484	991.171
240.001	25.667	1219.698	990.648
241.015	25.727	1219.139	990.436
242.030	25.707	1218.327	989.579
243.045	25.742	1217.209	988.779
244.059	25.683	1216.647	987.910
245.074	25.717	1215.664	987.209
246.088	25.702	1215.127	986.605
247.103	25.755	1214.350	986.178
248.117	25.626	1213.441	984.642
249.132	25.789	1212.726	984.869
250.147	25.836	1212.048	984.489
251.161	25.789	1211.229	983.482
252.176	25.776	1210.682	982.880
253.190	25.781	1210.156	982.388
254.205	25.809	1209.593	982.001
255.220	25.773	1208.899	981.153
256.234	25.923	1208.205	981.319
257.249	25.809	1207.765	980.256
258.263	25.790	1206.838	979.309
259.278	25.836	1206.416	979.132
260.293	25.770	1206.138	978.463
261.307	25.806	1205.893	978.372
262.322	25.881	1204.748	977.762
263.336	25.880	1204.086	977.135
264.351	25.793	1203.436	976.050
265.366	25.814	1203.071	975.780
266.380	25.834	1202.459	975.303
267.395	25.850	1201.610	974.618
268.409	25.833	1200.858	973.832
269.424	25.859	1200.198	973.346
270.439	25.861	1200.284	973.342
271.453	25.957	1199.225	972.918
272.468	25.830	1198.269	971.372
273.482	25.857	1197.700	970.966
274.497	25.891	1197.152	970.622
275.512	25.986	1196.684	970.666
276.526	25.900	1196.313	969.819
277.541	25.887	1195.283	968.825
278.555	25.993	1194.597	968.754
279.570	25.976	1194.341	968.371
280.585	26.005	1193.046	967.392
281.599	26.062	1192.089	966.836
282.614	25.997	1191.330	965.784
283.628	26.058	1190.154	965.074
284.643	26.042	1189.451	964.328
285.657	25.955	1188.994	963.412
286.672	26.125	1187.508	963.028
287.687	26.110	1187.013	962.463
288.701	26.007	1186.582	961.477
289.716	26.029	1185.895	960.952
290.730	26.046	1185.342	960.508
291.745	26.151	1184.619	960.396
292.760	26.126	1183.911	959.605
293.774	26.164	1183.458	959.354
294.789	26.164	1183.120	958.997
295.803	26.187	1182.487	958.522
296.818	26.095	1182.063	957.605
297.833	26.081	1181.263	956.799
298.847	26.239	1180.204	956.694
299.862	26.158	1179.618	955.703
300.876	26.160	1178.683	954.870
301.891	26.241	1178.193	954.821
302.906	26.286	1177.729	954.596
303.920	26.274	1176.930	953.798
304.935	26.222	1176.082	952.755
305.949	26.230	1175.489	952.232
306.964	26.246	1175.095	951.915
307.979	26.234	1174.710	951.453
308.993	26.155	1174.063	950.433
310.008	26.288	1173.270	950.404
311.022	26.355	1172.075	949.702
312.037	26.367	1171.445	949.169
313.052	26.278	1170.765	948.069
314.066	26.350	1169.399	947.257
315.081	26.307	1168.990	946.619
316.095	26.402	1168.500	946.631
317.110	26.282	1168.094	945.591
318.125	26.435	1167.256	945.628
319.139	26.394	1166.644	944.837
320.154	26.293	1166.031	943.727
321.168	26.413	1165.735	944.032
322.183	26.317	1165.416	943.191
323.197	26.408	1164.307	942.681
324.212	26.336	1163.750	941.772
325.227	26.381	1163.223	941.500
326.241	26.570	1162.682	941.960
327.256	26.376	1162.237	940.506
328.270	26.395	1161.185	939.674
329.285	26.458	1160.570	939.420
330.300	26.408	1159.825	938.472
331.314	26.455	1158.859	937.853
332.329	26.592	1157.704	937.544
333.343	26.512	1156.968	936.451
334.358	26.546	1156.258	935.967
335.373	26.477	1156.093	935.398
336.387	26.525	1155.185	934.825
337.402	26.633	1154.534	934.776
338.416	26.683	1153.838	934.385
339.431	26.680	1152.887	933.516
340.446	26.755	1152.310	933.355
341.460	26.693	1151.747	932.499
342.475	26.688	1151.067	931.835
343.489	26.722	1150.212	931.239
344.504	26.622	1149.307	929.908
345.519	26.708	1148.588	929.684
346.533	26.603	1148.253	928.795
347.548	26.656	1147.081	928.033
348.562	26.630	1146.662	927.479
349.577	26.647	1145.650	926.666
350.592	26.696	1144.661	926.036
351.606	26.612	1144.158	925.117
352.621	26.726	1143.443	925.039
353.635	26.611	1143.467	924.392
354.650	26.612	1142.668	923.668
355.665	26.769	1141.463	923.414
356.679	26.776	1141.276	923.217
357.694	26.849	1140.764	923.091
358.708	26.736	1139.800	921.654
359.723	26.665	1139.481	920.954
360.738	26.710	1138.630	920.414
361.752	26.755	1137.839	919.919
362.767	26.794	1137.560	919.813
363.781	26.866	1136.783	919.469
364.796	26.868	1136.327	919.028
365.810	26.946	1135.455	918.633
366.825	26.885	1134.890	917.788
367.840	26.980	1134.404	917.795
368.854	27.078	1133.766	917.690
369.869	27.042	1133.075	916.872
370.883	26.992	1132.579	916.134
371.898	26.926	1132.053	915.295
372.913	26.861	1131.178	914.180
373.927	26.942	1131.007	914.370
374.942	27.076	1130.110	914.239
375.956	26.912	1129.694	912.996
376.971	26.987	1129.320	912.987
377.986	26.988	1128.835	912.522
379.000	27.004	1128.141	911.961
380.015	27.073	1127.722	911.888
381.029	27.137	1126.498	911.135
382.044	27.037	1126.526	910.579
383.059	27.100	1125.263	909.791
384.073	27.046	1124.734	909.010
385.088	27.031	1124.098	908.345
386.102	27.099	1123.018	907.732
387.117	26.990	1122.291	906.520
388.132	27.060	1121.345	906.024
389.146	27.074	1120.672	905.470
390.161	27.063	1120.124	904.891
391.175	27.199	1119.608	905.073
392.190	27.175	1118.923	904.320
393.205	27.179	1117.992	903.507
394.219	27.274	1117.163	903.225
395.234	27.133	1116.750	902.115
396.248	27.258	1115.784	901.871
397.263	27.257	1114.898	901.073
398.278	27.244	1114.119	900.300
399.292	27.396	1113.696	900.630
400.307	27.383	1113.187	900.073
401.321	27.252	1112.570	898.845
402.336	27.288	1111.625	898.182
403.350	27.337	1110.951	897.799
404.365	27.398	1110.494	897.653
405.380	27.347	1109.753	896.724
406.394	27.415	1108.673	896.105
407.409	27.502	1107.901	895.832
408.423	27.417	1107.596	895.085
409.438	27.419	1107.198	894.696
410.453	27.470	1106.460	894.269
411.467	27.483	1105.414	893.412
412.482	27.474	1104.884	892.858
413.496	27.409	1104.602	892.233
414.511	27.603	1103.474	892.192
415.526	27.401	1103.353	891.025
416.540	27.546	1102.429	890.910
417.555	27.479	1102.211	890.330
418.569	27.529	1101.904	890.246
419.584	27.580	1101.424	890.028
420.599	27.596	1101.079	889.749
421.613	80.166	1285.597	1327.802
422.628	75.081	1312.465	1327.920
