DTS Sentinel unit serial number:	SN413079Multiplexer serial number:	ORYXHardware model number:	OX4-SRSoftware version number:	ORYX F/W v4.00 Oryx Data Collector v3.7.2.0data status	okinstallation	princeton_trtdifferential loss correction	single-endedforward channel	channel 2reverse channel	N/Adate	2019/09/11time	10:41:11forward acquisition time	60.00reverse acquisition time	0.00gamma	496.2192k internal	0.2310k external	0.2310temperature offset calibration	0.9967default loss term (dB/km)	0.3790temperature slope calibration	1.0000multiplexer offset coefficient	1.0000multiplexer slope coefficient	1.0000fibre end	0.00T internal ref (°C)	36.69T ext. ref 1 (°C)	0.15T ext. ref 2 (°C)	33.90length (m)	temperature (°C)	Stokes	anti-Stokes-747.200	-200.000	0.017	0.105
-746.185	800.000	-0.070	0.225
-745.171	453.973	0.123	-0.277
-744.156	459.285	0.146	0.330
-743.142	800.000	0.064	0.234
-742.127	156.242	0.072	0.101
-741.112	-21.238	0.235	0.146
-740.098	741.061	0.049	0.135
-739.083	32.694	-0.073	-0.064
-738.069	24.091	-0.242	0.203
-737.054	-2.652	-0.235	0.167
-736.039	115.881	-0.032	-0.039
-735.025	39.446	-0.167	0.152
-734.010	-138.952	-0.086	0.010
-732.996	62.226	-0.040	-0.040
-731.981	-144.243	-0.379	0.036
-730.966	-94.012	-0.303	-0.084
-729.952	-20.715	0.041	0.025
-728.937	563.243	-0.156	-0.384
-727.923	-80.674	-0.249	0.084
-726.908	-57.849	-0.315	0.140
-725.894	4.608	-0.130	-0.097
-724.879	-77.173	0.098	0.035
-723.864	-83.024	0.178	-0.058
-722.850	54.640	0.152	-0.149
-721.835	-17.322	0.111	-0.071
-720.821	-98.070	0.267	0.070
-719.806	800.000	0.071	-0.229
-718.791	381.261	0.104	-0.217
-717.777	-14.061	-0.291	0.190
-716.762	692.943	-0.101	-0.268
-715.748	-11.133	-0.128	-0.086
-714.733	800.000	-0.053	0.171
-713.718	101.223	0.209	0.247
-712.704	63.686	-0.170	-0.173
-711.689	-60.085	-0.092	-0.040
-710.675	-200.000	0.009	-0.093
-709.660	-113.934	0.198	0.039
-708.645	-144.572	-0.117	-0.011
-707.631	348.055	0.118	0.237
-706.616	800.000	0.089	-0.339
-705.602	277.569	-0.061	0.111
-704.587	-170.878	0.176	0.006
-703.572	-185.323	-0.121	-0.002
-702.558	800.000	0.104	-0.440
-701.543	-200.000	0.002	0.025
-700.529	143.334	0.113	-0.153
-699.514	-175.141	-0.289	-0.008
-698.499	-116.981	-0.219	0.041
-697.485	207.879	0.104	-0.164
-696.470	350.743	0.150	-0.300
-695.456	171.526	0.016	-0.023
-694.441	-64.939	0.165	-0.068
-693.426	-116.032	-0.427	0.081
-692.412	-200.000	0.067	-0.424
-691.397	-53.344	0.235	0.109
-690.383	-15.934	0.059	0.038
-689.368	-100.053	-0.252	-0.064
-688.354	-94.981	0.182	0.050
-687.339	756.836	0.059	0.161
-686.324	256.107	-0.078	-0.136
-685.310	63.267	0.064	-0.065
-684.295	-111.903	-0.070	0.014
-683.281	-154.624	0.243	-0.016
-682.266	-200.000	-0.012	-0.132
-681.251	10.638	0.089	0.069
-680.237	-8.841	0.362	0.246
-679.222	553.085	0.067	0.164
-678.208	510.884	0.086	0.202
-677.193	-200.000	0.019	-0.200
-676.178	-54.008	0.300	0.138
-675.164	711.618	-0.051	0.137
-674.149	-119.635	0.061	-0.011
-673.135	175.464	0.122	-0.180
-672.120	-61.162	0.252	-0.107
-671.105	800.000	-0.030	-0.092
-670.091	-102.860	0.188	-0.045
-669.076	-145.780	-0.171	-0.015
-668.062	-120.881	-0.322	-0.055
-667.047	-182.267	0.395	0.007
-666.032	84.812	0.049	-0.054
-665.018	-95.991	-0.047	-0.013
-664.003	40.947	0.042	0.039
-662.989	155.645	0.056	0.078
-661.974	-34.531	0.143	0.079
-660.959	-128.806	-0.140	-0.020
-659.945	-29.622	-0.160	0.092
-658.930	252.625	-0.092	0.159
-657.916	800.000	-0.072	-0.246
-656.901	260.496	0.290	-0.507
-655.886	-95.175	0.306	-0.084
-654.872	153.407	0.199	-0.275
-653.857	60.018	0.072	-0.072
-652.843	-30.657	-0.242	0.139
-651.828	599.713	-0.072	-0.181
-650.814	465.899	-0.194	-0.439
-649.799	-200.000	-0.008	-0.155
-648.784	-200.000	0.011	-0.232
-647.770	-90.212	-0.102	0.030
-646.755	-200.000	0.029	-0.454
-645.741	800.000	-0.072	-0.279
-644.726	-200.000	0.043	-0.317
-643.711	-200.000	-0.002	-0.246
-642.697	800.000	0.078	0.278
-641.682	-200.000	-0.012	0.431
-640.668	-120.126	0.229	0.040
-639.653	-26.257	-0.191	-0.114
-638.638	800.000	0.029	0.113
-637.624	-16.329	-0.187	0.120
-636.609	-109.312	-0.069	0.015
-635.595	135.138	0.195	-0.256
-634.580	-42.772	-0.333	0.171
-633.565	-48.292	0.194	0.094
-632.551	800.000	-0.112	-0.429
-631.536	-13.229	-0.083	0.055
-630.522	240.531	0.054	-0.091
-629.507	49.217	-0.090	0.085
-628.492	75.694	0.057	0.061
-627.478	507.236	-0.114	-0.268
-626.463	-200.000	0.023	-0.527
-625.449	-22.522	-0.181	0.111
-624.434	314.320	0.082	0.157
-623.419	800.000	-0.059	-0.215
-622.405	800.000	0.029	-0.114
-621.390	-23.630	-0.277	-0.168
-620.376	-173.290	-0.257	0.008
-619.361	-81.524	0.267	0.089
-618.346	800.000	0.096	-0.352
-617.332	42.737	0.220	-0.203
-616.317	230.642	0.036	-0.060
-615.303	-200.000	-0.034	-0.182
-614.288	398.354	-0.070	0.148
-613.273	257.620	-0.054	0.094
-612.259	74.132	0.129	-0.137
-611.244	-64.907	-0.310	0.127
-610.230	-124.299	-0.233	-0.037
-609.215	-200.000	-0.013	-0.355
-608.201	800.000	0.065	-0.206
-607.186	-66.250	-0.195	0.078
-606.171	-64.837	0.500	-0.205
-605.157	-50.103	-0.240	0.115
-604.142	-200.000	0.006	0.132
-603.128	5.412	0.090	0.067
-602.113	-158.297	-0.201	-0.012
-601.098	280.449	-0.058	-0.105
-600.084	800.000	-0.024	-0.093
-599.069	27.810	-0.044	0.037
-598.055	407.702	0.118	-0.253
-597.040	281.692	-0.133	-0.242
-596.025	800.000	0.127	-0.375
-595.011	-200.000	0.000	0.049
-593.996	-49.405	-0.047	-0.022
-592.982	800.000	-0.079	-0.229
-591.967	-155.184	-0.107	-0.007
-590.952	63.897	0.080	-0.081
-589.938	-200.000	0.068	-0.340
-588.923	185.467	-0.115	-0.173
-587.909	-61.553	0.322	0.136
-586.894	-37.395	-0.262	0.141
-585.879	-63.520	0.290	0.120
-584.865	-95.776	0.184	-0.050
-583.850	-95.279	0.169	-0.046
-582.836	-24.822	0.159	-0.095
-581.821	-122.461	0.190	-0.031
-580.806	-81.397	0.427	-0.142
-579.792	115.478	0.235	0.289
-578.777	-80.440	0.095	-0.032
-577.763	-110.591	0.019	-0.004
-576.748	-200.000	0.272	0.001
-575.733	-110.575	-0.205	-0.043
-574.719	-200.000	0.016	0.216
-573.704	229.325	0.020	0.032
-572.690	-8.313	0.184	0.125
-571.675	334.890	-0.079	-0.155
-570.661	800.000	0.056	0.187
-569.646	135.608	0.074	-0.097
-568.631	-95.447	0.310	-0.084
-567.617	137.101	0.030	0.039
-566.602	-200.000	-0.010	-0.156
-565.588	788.303	-0.090	0.250
-564.573	-61.268	-0.081	0.034
-563.558	-200.000	-0.055	0.335
-562.544	-109.097	0.233	-0.050
-561.529	-108.460	0.183	-0.040
-560.515	25.483	-0.183	-0.154
-559.500	800.000	0.040	0.165
-558.485	43.255	-0.089	-0.082
-557.471	-52.991	0.327	-0.152
-556.456	-41.008	0.235	0.123
-555.442	-200.000	-0.029	0.188
-554.427	58.589	-0.117	0.116
-553.412	800.000	-0.080	0.250
-552.398	-200.000	-0.008	-0.084
-551.383	26.921	-0.103	0.087
-550.369	-36.545	0.173	0.094
-549.354	169.190	0.106	-0.153
-548.339	187.724	0.021	-0.031
-547.325	-200.000	-0.024	-0.144
-546.310	260.500	0.117	0.203
-545.296	-200.000	0.029	0.278
-544.281	21.936	-0.230	0.189
-543.266	460.652	0.076	0.171
-542.252	-200.000	0.035	0.343
-541.237	35.543	-0.024	-0.021
-540.223	-64.183	-0.182	-0.075
-539.208	-86.949	-0.298	-0.091
-538.193	-135.993	0.256	0.030
-537.179	78.100	-0.094	-0.102
-536.164	-72.095	0.193	0.072
-535.150	-131.055	-0.147	0.020
-534.135	42.334	0.134	-0.122
-533.121	-88.410	-0.253	0.076
-532.106	209.773	-0.082	-0.129
-531.091	74.111	-0.230	-0.243
-530.077	-25.942	0.109	0.065
-529.062	19.207	-0.203	0.164
-528.048	-9.868	-0.081	-0.054
-527.033	154.543	0.204	-0.283
-526.018	-35.875	0.261	0.142
-525.004	-96.159	0.060	-0.016
-523.989	463.548	-0.041	-0.091
-522.975	59.618	-0.104	0.103
-521.960	188.533	-0.045	0.068
-520.945	661.867	0.110	0.285
-519.931	800.000	0.057	-0.198
-518.916	800.000	-0.027	-0.114
-517.902	-100.183	0.125	-0.031
-516.887	80.617	-0.223	-0.242
-515.872	-111.408	-0.410	-0.084
-514.858	418.742	0.122	0.262
-513.843	-78.127	0.162	-0.056
-512.829	88.044	0.218	0.244
-511.814	-38.762	-0.156	0.083
-510.799	-200.000	-0.003	0.114
-509.785	41.846	-0.026	-0.024
-508.770	19.370	-0.176	-0.142
-507.756	-17.716	0.214	-0.135
-506.741	800.000	-0.062	-0.195
-505.726	-143.147	0.315	0.031
-504.712	-200.000	-0.037	0.310
-503.697	-89.570	-0.182	0.054
-502.683	-200.000	0.043	-0.195
-501.668	264.373	0.056	-0.098
-500.653	49.601	-0.114	-0.108
-499.639	-61.914	-0.122	0.051
-498.624	49.479	0.052	0.049
-497.610	60.693	0.145	-0.144
-496.595	84.478	-0.078	-0.086
-495.581	-200.000	-0.058	0.265
-494.566	-200.000	-0.011	-0.070
-493.551	-200.000	0.052	-0.395
-492.537	-200.000	-0.044	0.203
-491.522	-200.000	0.017	0.192
-490.508	759.803	-0.122	0.333
-489.493	-36.199	0.340	-0.184
-488.478	645.147	-0.085	0.218
-487.464	191.880	0.223	0.338
-486.449	800.000	-0.097	0.317
-485.435	130.489	0.066	-0.085
-484.420	800.000	0.119	0.330
-483.405	-154.560	-0.188	0.013
-482.391	-87.324	0.263	0.080
-481.376	253.082	-0.091	0.157
-480.362	377.958	-0.098	-0.201
-479.347	32.050	0.368	-0.319
-478.332	-26.501	-0.251	0.148
-477.318	-121.858	-0.258	-0.043
-476.303	-94.158	-0.243	-0.067
-475.289	800.000	0.120	-0.362
-474.274	-53.377	0.354	-0.163
-473.259	244.007	0.097	-0.164
-472.245	215.368	0.206	-0.328
-471.230	12.089	0.353	-0.273
-470.216	-138.873	0.079	0.009
-469.201	800.000	0.058	0.249
-468.186	-90.692	0.240	0.070
-467.172	15.107	-0.097	0.076
-466.157	800.000	-0.042	0.164
-465.143	-97.953	-0.334	0.087
-464.128	225.713	0.185	-0.301
-463.113	-200.000	0.014	-0.135
-462.099	-109.701	-0.258	0.055
-461.084	-30.256	-0.097	-0.055
-460.070	-200.000	-0.016	0.288
-459.055	170.866	0.028	0.040
-458.040	-124.034	0.259	0.041
-457.026	-83.946	0.209	-0.067
-456.011	-200.000	-0.005	-0.077
-454.997	-200.000	0.046	-0.300
-453.982	56.782	-0.109	-0.107
-452.968	-92.408	-0.082	-0.023
-451.953	26.989	0.184	0.155
-450.938	-90.331	0.443	-0.129
-449.924	460.829	-0.133	-0.298
-448.909	-21.429	0.089	0.054
-447.895	-138.690	0.144	-0.016
-446.880	-200.000	0.016	0.317
-445.865	-200.000	0.009	-0.183
-444.851	-3.264	0.088	0.061
-443.836	-36.786	-0.195	0.105
-442.822	800.000	0.047	-0.166
-441.807	-149.206	-0.108	0.009
-440.792	278.412	0.135	-0.242
-439.778	344.569	-0.087	0.171
-438.763	17.526	0.166	-0.132
-437.749	800.000	-0.094	-0.270
-436.734	172.131	-0.143	-0.206
-435.719	0.772	-0.160	0.115
-434.705	-200.000	0.020	0.178
-433.690	800.000	0.144	-0.472
-432.676	-57.757	-0.114	0.050
-431.661	-6.060	-0.352	0.242
-430.646	227.076	0.072	0.117
-429.632	19.855	0.113	0.092
-428.617	165.576	0.083	0.118
-427.603	84.927	-0.090	-0.099
-426.588	543.376	-0.132	0.315
-425.573	257.583	-0.149	0.257
-424.559	71.501	-0.216	-0.225
-423.544	46.699	0.210	-0.196
-422.530	800.000	0.051	-0.171
-421.515	-140.594	0.338	0.035
-420.500	128.435	-0.069	0.088
-419.486	-200.000	0.011	0.233
-418.471	4.631	-0.246	0.181
-417.457	-200.000	-0.038	0.295
-416.442	556.069	-0.126	0.303
-415.428	-63.531	-0.266	0.110
-414.413	-117.074	0.096	0.018
-413.398	-200.000	-0.014	-0.419
-412.384	458.007	0.092	-0.206
-411.369	24.605	0.301	0.250
-410.355	-200.000	-0.018	0.124
-409.340	-200.000	-0.039	-0.222
-408.325	800.000	0.021	0.067
-407.311	-78.591	-0.261	0.089
-406.296	477.249	0.109	0.248
-405.282	77.578	0.095	-0.101
-404.267	-200.000	0.009	-0.191
-403.252	-76.692	-0.024	0.008
-402.238	800.000	0.069	0.295
-401.223	535.822	0.058	-0.139
-400.209	-200.000	0.066	-0.302
-399.194	-56.958	0.240	-0.106
-398.179	-148.640	0.225	-0.018
-397.165	-90.183	0.446	0.130
-396.150	-101.309	-0.328	-0.080
-395.136	-200.000	-0.024	-0.210
-394.121	89.894	-0.082	0.092
-393.106	-200.000	-0.013	0.219
-392.092	72.071	-0.215	0.224
-391.077	-178.911	0.191	0.004
-390.063	74.537	0.103	-0.109
-389.048	800.000	0.071	0.303
-388.033	-200.000	-0.012	-0.356
-387.019	142.895	0.107	0.142
-386.004	160.430	-0.082	0.115
-384.990	-135.871	-0.284	0.034
-383.975	-102.556	-0.293	0.070
-382.960	11.494	-0.021	0.016
-381.946	-80.770	0.110	-0.037
-380.931	-200.000	0.029	-0.238
-379.917	-88.042	0.397	0.119
-378.902	-200.000	-0.004	0.183
-377.888	245.796	-0.041	-0.068
-376.873	263.875	-0.154	-0.269
-375.858	800.000	-0.085	-0.285
-374.844	-200.000	-0.023	0.207
-373.829	800.000	0.060	0.226
-372.815	800.000	-0.106	0.464
-371.800	-113.272	-0.202	-0.040
-370.785	-200.000	0.003	0.013
-369.771	-132.277	-0.262	0.034
-368.756	47.009	0.259	0.241
-367.742	-92.538	-0.218	0.061
-366.727	116.186	-0.156	0.191
-365.712	52.442	0.245	-0.234
-364.698	13.634	-0.149	0.116
-363.683	-130.345	0.372	0.050
-362.669	180.263	0.113	-0.166
-361.654	-200.000	0.016	0.076
-360.639	-45.754	-0.101	0.050
-359.625	-108.713	-0.205	-0.044
-358.610	-200.000	-0.008	0.078
-357.596	196.639	-0.139	-0.212
-356.581	-200.000	-0.037	0.358
-355.566	-156.146	0.174	0.011
-354.552	-23.001	-0.167	-0.100
-353.537	385.466	-0.146	-0.301
-352.523	226.848	0.021	-0.033
-351.508	172.014	-0.175	0.251
-350.493	-200.000	-0.004	-0.108
-349.479	800.000	0.104	0.378
-348.464	-130.905	-0.052	-0.007
-347.450	86.822	-0.038	0.042
-346.435	-200.000	0.002	-0.098
-345.420	-174.856	0.220	-0.006
-344.406	126.721	-0.278	0.352
-343.391	41.737	0.282	0.256
-342.377	-133.521	0.272	0.034
-341.362	-200.000	-0.012	0.216
-340.348	-24.084	-0.089	0.053
-339.333	-169.880	-0.421	-0.015
-338.318	-200.000	0.001	0.088
-337.304	-94.084	-0.423	-0.116
-336.289	234.575	-0.162	0.267
-335.275	-117.843	0.139	0.025
-334.260	-50.504	-0.171	0.080
-333.245	-4.724	0.073	-0.050
-332.231	757.663	0.046	-0.124
-331.216	-8.424	-0.045	-0.030
-330.202	-134.612	-0.219	-0.027
-329.187	-5.593	0.304	-0.209
-328.172	-10.200	0.131	-0.087
-327.158	800.000	-0.088	-0.384
-326.143	346.592	0.155	0.304
-325.129	800.000	-0.019	-0.066
-324.114	-41.970	0.173	-0.089
-323.099	-51.606	-0.024	0.011
-322.085	-87.260	0.272	0.082
-321.070	-81.118	-0.291	0.096
-320.056	-124.736	0.259	-0.040
-319.041	107.169	-0.008	0.009
-318.026	-200.000	-0.023	-0.252
-317.012	-200.000	-0.012	0.160
-315.997	-11.641	-0.089	-0.059
-314.983	22.788	-0.219	0.180
-313.968	-125.412	0.307	-0.047
-312.953	-138.131	-0.171	0.019
-311.939	153.628	-0.108	-0.148
-310.924	-200.000	0.039	0.380
-309.910	-200.000	-0.052	0.270
-308.895	-105.715	0.066	0.015
-307.880	-200.000	0.020	0.152
-306.866	149.398	0.110	-0.149
-305.851	-200.000	0.000	-0.204
-304.837	-60.043	-0.267	0.114
-303.822	-17.416	-0.247	0.155
-302.807	-200.000	0.054	-0.472
-301.793	-200.000	0.043	-0.225
-300.778	-25.882	0.199	0.117
-299.764	-126.930	-0.226	-0.033
-298.749	97.897	-0.101	0.116
-297.735	-97.146	0.243	-0.063
-296.720	63.164	0.358	-0.358
-295.705	-148.492	0.211	0.017
-294.691	800.000	-0.042	0.176
-293.676	-75.233	-0.095	-0.034
-292.662	-200.000	-0.047	-0.242
-291.647	-200.000	-0.015	0.111
-290.632	71.903	-0.159	-0.165
-289.618	-200.000	-0.039	-0.214
-288.603	-47.872	-0.047	0.023
-287.589	-156.275	0.198	-0.012
-286.574	366.007	0.130	0.261
-285.559	-200.000	-0.043	0.218
-284.545	800.000	-0.019	0.058
-283.530	-42.138	0.209	0.107
-282.516	7.833	0.207	0.155
-281.501	-60.507	0.173	-0.074
-280.486	-200.000	0.013	0.095
-279.472	-103.955	-0.358	0.083
-278.457	77.193	-0.184	-0.195
-277.443	386.808	0.032	-0.065
-276.428	-130.574	-0.209	0.028
-275.413	-132.429	-0.006	0.001
-274.399	109.770	-0.060	-0.072
-273.384	-39.447	0.286	0.150
-272.370	59.769	-0.145	-0.143
-271.355	35.219	0.117	0.103
-270.340	-55.291	0.067	-0.030
-269.326	-23.827	-0.185	0.110
-268.311	800.000	0.009	-0.032
-267.297	280.828	-0.160	-0.285
-266.282	295.272	0.181	0.330
-265.267	87.180	-0.087	-0.096
-264.253	484.351	-0.119	-0.271
-263.238	146.725	-0.132	0.177
-262.224	125.008	0.071	0.089
-261.209	-112.245	0.118	-0.024
-260.195	800.000	-0.085	0.319
-259.180	-159.060	0.285	0.016
-258.165	87.773	-0.289	0.319
-257.151	-39.609	0.184	-0.096
-256.136	620.651	0.034	0.086
-255.122	376.256	-0.145	-0.294
-254.107	68.006	0.110	0.113
-253.092	-200.000	0.007	0.247
-252.078	2.561	0.133	0.096
-251.063	482.350	0.073	0.166
-250.049	-124.951	-0.093	-0.014
-249.034	-107.463	0.297	0.065
-248.019	130.593	-0.192	0.245
-247.005	-68.561	-0.355	-0.137
-245.990	-15.491	0.144	-0.092
-244.976	-200.000	-0.039	-0.207
-243.961	-200.000	0.041	0.192
-242.946	-15.970	-0.276	-0.175
-241.932	705.211	-0.096	0.252
-240.917	196.947	0.099	-0.150
-239.903	602.143	0.105	0.261
-238.888	-200.000	-0.005	0.282
-237.873	-94.105	-0.132	-0.036
-236.859	562.689	-0.083	-0.201
-235.844	-200.000	-0.030	-0.167
-234.830	88.905	-0.243	0.270
-233.815	-1.842	-0.115	-0.081
-232.800	-46.113	0.211	-0.103
-231.786	145.965	0.109	0.145
-230.771	-200.000	-0.000	-0.375
-229.757	-200.000	-0.033	-0.170
-228.742	800.000	-0.011	0.036
-227.727	-154.661	0.130	0.009
-226.713	-74.670	-0.245	0.088
-225.698	-94.988	0.214	-0.057
-224.684	-84.718	-0.175	0.055
-223.669	-142.208	0.221	0.022
-222.655	130.120	0.146	0.186
-221.640	-200.000	0.036	-0.166
-220.625	311.505	0.018	0.034
-219.611	36.975	-0.061	0.053
-218.596	35.153	-0.084	0.073
-217.582	83.219	0.206	0.223
-216.567	-63.139	0.106	0.044
-215.552	-85.805	-0.293	-0.090
-214.538	-200.000	-0.005	-0.228
-213.523	-36.085	-0.317	0.171
-212.509	-181.627	0.218	0.004
-211.494	196.307	0.144	-0.218
-210.479	800.000	0.053	-0.206
-209.465	-154.878	0.128	-0.008
-208.450	-200.000	0.030	-0.251
-207.436	-59.470	0.247	-0.106
-206.421	8.898	0.225	0.169
-205.406	-200.000	0.050	0.252
-204.392	442.938	0.072	0.158
-203.377	-106.738	0.070	-0.015
-202.363	-64.427	-0.265	0.107
-201.348	24.933	-0.232	0.192
-200.333	194.822	0.139	-0.210
-199.319	239.108	-0.086	0.142
-198.304	-55.236	-0.172	0.077
-197.290	-178.396	0.130	0.003
-196.275	761.909	-0.079	-0.214
-195.260	-200.000	0.040	-0.193
-194.246	755.549	0.064	-0.172
-193.231	642.692	-0.078	-0.197
-192.217	-67.457	0.243	-0.095
-191.202	-200.000	-0.002	-0.216
-190.187	321.315	-0.158	-0.299
-189.173	137.364	0.186	-0.242
-188.158	750.909	0.032	0.087
-187.144	173.509	0.050	-0.072
-186.129	-76.466	-0.377	0.132
-185.114	-178.723	-0.073	0.002
-184.100	257.188	-0.140	0.239
-183.085	444.679	-0.147	0.321
-182.071	-200.000	0.065	-0.301
-181.056	-56.732	-0.126	-0.055
-180.042	410.971	-0.102	0.215
-179.027	-48.330	-0.185	-0.089
-178.012	800.000	-0.093	0.280
-176.998	-200.000	0.010	0.211
-175.983	139.120	0.150	-0.197
-174.969	800.000	-0.088	0.333
-173.954	-200.000	-0.020	0.359
-172.939	420.315	-0.023	0.049
-171.925	41.980	-0.124	-0.111
-170.910	-200.000	-0.016	0.077
-169.896	-4.175	-0.190	-0.131
-168.881	146.179	0.208	0.278
-167.866	-89.659	-0.206	-0.060
-166.852	-23.503	-0.069	-0.041
-165.837	358.000	0.022	0.043
-164.823	-59.931	0.128	-0.054
-163.808	-140.730	0.070	-0.007
-162.793	110.162	-0.181	0.215
-161.779	25.040	0.191	0.157
-160.764	-67.728	-0.034	0.013
-159.750	53.107	-0.076	-0.072
-158.735	-36.386	-0.198	0.106
-157.720	-200.000	-0.003	0.093
-156.706	190.584	-0.066	0.098
-155.691	-11.518	-0.149	0.097
-154.677	-24.892	-0.411	-0.242
-153.662	195.008	-0.290	-0.437
-152.647	-10.950	0.188	-0.123
-151.633	-111.235	-0.024	0.005
-150.618	237.220	-0.170	-0.280
-149.604	-75.161	0.106	0.038
-148.589	-102.919	0.229	-0.054
-147.574	-129.944	-0.218	-0.030
-146.560	800.000	-0.071	-0.201
-145.545	-200.000	0.059	-0.292
-144.531	-155.761	-0.290	0.018
-143.516	-200.000	0.075	0.445
-142.502	-200.000	0.070	-0.356
-141.487	-36.786	0.265	-0.141
-140.472	-200.000	0.020	0.189
-139.458	-55.952	0.129	0.057
-138.443	800.000	0.093	0.316
-137.429	-21.232	0.028	-0.017
-136.414	785.223	0.024	0.066
-135.399	8.605	-0.229	0.171
-134.385	235.720	-0.075	-0.122
-133.370	-200.000	0.030	0.152
-132.356	-44.038	-0.195	0.097
-131.341	-200.000	0.008	-0.048
-130.326	154.042	0.120	-0.163
-129.312	349.675	-0.026	-0.052
-128.297	-200.000	-0.004	0.162
-127.283	8.772	-0.210	-0.157
-126.268	666.896	0.150	-0.383
-125.253	-77.115	0.178	-0.062
-124.239	-86.576	0.362	0.110
-123.224	-10.019	0.075	-0.049
-122.210	152.639	-0.101	0.137
-121.195	-200.000	-0.014	0.073
-120.180	105.722	0.195	0.229
-119.166	121.299	-0.079	-0.097
-118.151	-66.241	0.214	-0.084
-117.137	-57.184	-0.439	-0.192
-116.122	88.357	-0.229	-0.252
-115.107	-107.491	-0.136	-0.029
-114.093	800.000	0.077	-0.220
-113.078	93.751	0.175	-0.196
-112.064	52.715	0.193	-0.182
-111.049	-126.354	0.336	0.050
-110.034	211.356	0.092	0.144
-109.020	335.725	0.047	0.089
-108.005	-200.000	-0.008	-0.068
-106.991	111.306	-0.043	-0.052
-105.976	-77.667	-0.244	-0.084
-104.962	800.000	0.066	0.201
-103.947	214.541	-0.136	-0.214
-102.932	-120.295	-0.416	0.070
-101.918	-64.267	-0.239	0.096
-100.903	264.093	-0.046	0.079
-99.889	-63.033	0.269	-0.110
-98.874	-119.901	-0.316	-0.054
-97.859	32.257	0.177	-0.152
-96.845	211.057	0.149	0.232
-95.830	208.028	-0.151	-0.233
-94.816	700.708	0.095	0.248
-93.801	-200.000	0.104	-0.637
-92.786	156.161	-0.108	0.147
-91.772	-200.000	0.027	-0.128
-90.757	362.599	-0.052	-0.103
-89.743	-49.602	0.080	-0.038
-88.728	121.601	-0.026	-0.033
-87.713	737.365	-0.018	0.047
-86.699	-200.000	0.053	-0.262
-85.684	-68.902	0.231	0.088
-84.670	-17.825	0.212	-0.132
-83.655	-15.140	-0.196	0.124
-82.640	-25.078	-0.051	0.030
-81.626	150.160	-0.122	0.164
-80.611	-200.000	0.022	-0.179
-79.597	-130.794	-0.229	0.030
-78.582	300.689	0.078	0.143
-77.567	281.968	-0.107	-0.190
-76.553	-115.012	0.093	0.018
-75.538	-75.239	0.412	-0.146
-74.524	-200.000	-0.349	-0.000
-73.509	-64.810	0.101	0.040
-72.494	800.000	0.030	-0.125
-71.480	-78.607	0.379	-0.128
-70.465	-1.470	0.052	0.037
-69.451	227.445	0.071	0.113
-68.436	-94.089	0.054	-0.015
-67.422	-86.257	-0.102	-0.031
-66.407	-173.274	-0.164	0.005
-65.392	-111.733	-0.253	0.051
-64.378	40.458	-0.109	0.097
-63.363	461.994	-0.074	-0.164
-62.349	20.039	-0.166	-0.132
-61.334	-21.822	-1.008	-0.606
-60.319	174.113	0.242	0.345
-59.305	466.221	-0.312	-0.691
-58.290	26.857	0.974	0.807
-57.276	653.520	0.641	1.625
-56.261	-200.000	87.239	502.911
-55.246	547.723	1379.475	3264.886
-54.232	184.099	2620.587	3834.948
-53.217	111.878	2356.331	2813.030
-52.203	45.612	1965.283	1794.687
-51.188	39.920	1748.298	1551.928
-50.173	37.161	1702.375	1489.954
-49.159	52.451	1744.917	1646.223
-48.144	56.191	1762.799	1692.059
-47.130	39.710	1722.855	1527.474
-46.115	36.725	1708.901	1492.066
-45.100	36.612	1703.540	1486.461
-44.086	36.574	1701.274	1484.136
-43.071	36.536	1698.670	1481.511
-42.057	36.496	1696.126	1478.928
-41.042	36.481	1694.081	1476.974
-40.027	36.584	1692.008	1475.892
-39.013	36.480	1690.015	1473.302
-37.998	36.565	1687.816	1471.975
-36.984	36.531	1686.696	1470.680
-35.969	36.671	1685.044	1470.243
-34.954	36.750	1683.704	1469.618
-33.940	36.693	1681.894	1467.548
-32.925	36.730	1679.989	1466.103
-31.911	36.663	1678.424	1464.176
-30.896	36.692	1676.729	1462.856
-29.881	36.663	1674.825	1460.920
-28.867	36.680	1673.200	1459.576
-27.852	36.736	1671.494	1458.451
-26.838	36.720	1670.487	1457.392
-25.823	36.731	1668.488	1455.675
-24.809	36.746	1667.470	1454.840
-23.794	36.687	1666.261	1453.286
-22.779	36.789	1664.052	1452.065
-21.765	36.644	1662.884	1449.902
-20.750	36.656	1661.073	1448.355
-19.736	36.736	1659.408	1447.442
-18.721	36.788	1657.616	1446.212
-17.706	36.662	1656.261	1444.031
-16.692	36.659	1654.946	1442.803
-15.677	36.678	1653.357	1441.502
-14.663	36.809	1652.299	1441.500
-13.648	36.712	1651.124	1439.694
-12.633	36.749	1649.310	1438.332
-11.619	36.679	1647.656	1436.315
-10.604	36.756	1646.009	1435.387
-9.590	36.718	1644.401	1433.648
-8.575	36.762	1643.325	1432.983
-7.560	36.758	1642.093	1431.822
-6.546	36.684	1641.082	1430.338
-5.531	36.639	1640.337	1429.296
-4.517	36.748	1638.607	1428.533
-3.502	36.760	1637.325	1427.449
-2.487	36.850	1635.830	1426.749
-1.473	36.782	1625.110	1416.850
-0.458	34.545	1605.908	1383.850
0.556	29.377	1606.044	1352.853
1.571	27.027	1631.484	1356.627
2.586	26.410	1646.172	1364.066
3.600	22.928	1590.095	1292.067
4.615	11.884	1470.026	1119.296
5.629	1.993	1399.081	1000.563
6.644	0.305	1389.630	982.716
7.659	0.248	1387.784	980.953
8.673	0.069	1387.101	979.217
9.688	-0.011	1385.609	977.556
10.702	-0.214	1382.476	973.942
11.717	3.411	1389.644	1002.514
12.731	14.119	1410.726	1088.024
13.746	21.969	1424.341	1150.070
14.761	23.191	1425.455	1158.879
15.775	23.356	1424.890	1159.397
16.790	23.405	1424.546	1159.336
17.804	23.455	1423.977	1159.093
18.819	23.571	1424.398	1160.095
19.834	23.910	1422.666	1160.792
20.848	23.672	1422.473	1158.977
21.863	23.684	1421.745	1158.364
22.877	23.713	1420.536	1157.465
23.892	23.736	1419.270	1156.476
24.907	23.722	1418.669	1155.796
25.921	23.822	1417.148	1155.106
26.936	23.870	1416.577	1154.849
27.950	23.713	1415.709	1153.017
28.965	23.799	1414.171	1152.226
29.980	23.733	1412.888	1150.648
30.994	23.704	1411.681	1149.379
32.009	23.811	1410.600	1149.087
33.023	23.795	1409.288	1147.814
34.038	23.742	1408.424	1146.667
35.053	23.748	1407.083	1145.513
36.067	23.705	1406.441	1144.608
37.082	23.641	1405.604	1143.413
38.096	23.686	1404.183	1142.450
39.111	23.897	1403.171	1142.879
40.126	23.779	1402.844	1141.755
41.140	23.681	1402.265	1140.551
42.155	23.616	1402.513	1140.232
43.169	23.676	1402.193	1140.259
44.184	23.635	1401.929	1139.678
45.199	23.726	1401.100	1139.488
46.213	23.708	1400.887	1139.099
47.228	23.667	1399.919	1137.948
48.242	23.775	1398.398	1137.301
49.257	23.767	1396.536	1135.634
50.271	23.797	1395.080	1134.543
51.286	23.706	1394.229	1133.171
52.301	23.659	1392.862	1131.661
53.315	23.678	1392.121	1131.076
54.330	23.837	1391.271	1131.301
55.344	23.754	1389.952	1129.597
56.359	23.731	1388.970	1128.554
57.374	23.665	1388.181	1127.393
58.388	23.756	1387.817	1127.581
59.403	23.710	1387.248	1126.727
60.417	23.604	1387.053	1125.791
61.432	23.835	1385.778	1126.121
62.447	23.668	1384.732	1124.117
63.461	23.702	1384.085	1123.709
64.476	23.767	1382.957	1123.101
65.490	23.697	1381.838	1121.653
66.505	23.704	1379.898	1120.020
67.520	23.703	1378.880	1119.090
68.534	23.806	1377.343	1118.389
69.549	23.768	1376.601	1117.449
70.563	23.800	1375.894	1116.978
71.578	23.812	1374.826	1116.090
72.593	23.778	1374.161	1115.236
73.607	23.816	1373.597	1114.918
74.622	23.796	1372.297	1113.643
75.636	23.742	1371.959	1112.927
76.651	23.795	1370.990	1112.373
77.666	23.717	1370.664	1111.527
78.680	23.671	1370.597	1111.083
79.695	23.719	1369.595	1110.475
80.709	23.702	1368.714	1109.552
81.724	23.708	1367.657	1108.639
82.739	23.739	1366.395	1107.713
83.753	23.732	1365.474	1106.821
84.768	23.697	1364.615	1105.810
85.782	23.788	1363.539	1105.406
86.797	23.819	1361.978	1104.237
87.812	23.805	1360.872	1103.151
88.826	23.703	1359.805	1101.557
89.841	23.869	1358.654	1101.557
90.855	23.841	1357.824	1100.613
91.870	23.766	1356.957	1099.349
92.884	23.782	1356.114	1098.668
93.899	23.800	1355.770	1098.406
94.914	23.788	1354.465	1097.175
95.928	23.818	1353.558	1096.530
96.943	23.741	1352.998	1095.505
97.957	23.773	1352.087	1094.865
98.972	23.894	1351.126	1094.734
99.987	23.850	1349.890	1093.369
101.001	23.850	1348.770	1092.360
102.016	23.842	1348.201	1091.759
103.030	23.827	1347.651	1091.120
104.045	23.804	1346.471	1089.928
105.060	23.747	1345.808	1088.944
106.074	23.770	1344.967	1088.312
107.089	23.820	1343.590	1087.403
108.103	23.826	1342.241	1086.255
109.118	23.859	1341.389	1085.668
110.133	23.835	1340.188	1084.454
111.147	23.782	1339.384	1083.385
112.162	23.779	1338.209	1082.324
113.176	23.896	1337.028	1081.984
114.191	23.816	1336.287	1080.801
115.206	23.884	1334.724	1079.855
116.220	23.811	1333.800	1078.565
117.235	23.882	1333.072	1078.315
118.249	23.803	1331.844	1076.745
119.264	23.770	1330.814	1075.621
120.279	23.825	1330.595	1075.678
121.293	23.908	1328.991	1074.788
122.308	23.912	1327.987	1073.907
123.322	23.941	1327.396	1073.508
124.337	23.939	1326.914	1073.015
125.352	23.941	1325.681	1071.932
126.366	23.881	1325.011	1070.933
127.381	23.918	1324.294	1070.482
128.395	24.024	1323.192	1070.133
129.410	23.958	1321.864	1068.570
130.424	23.922	1321.420	1067.899
131.439	23.882	1320.836	1067.092
132.454	24.001	1319.680	1066.780
133.468	23.955	1319.012	1065.866
134.483	23.978	1318.573	1065.555
135.497	23.891	1317.499	1064.076
136.512	23.945	1316.232	1063.281
137.527	23.976	1315.428	1062.724
138.541	23.914	1314.398	1061.426
139.556	23.899	1312.970	1060.086
140.570	23.812	1312.393	1059.008
141.585	23.917	1311.084	1058.488
142.600	23.842	1310.148	1057.189
143.614	23.866	1309.292	1056.552
144.629	23.842	1308.015	1055.279
145.643	23.831	1306.842	1054.177
146.658	23.817	1305.797	1053.157
147.673	23.807	1305.118	1052.461
148.687	23.799	1304.310	1051.664
149.702	23.708	1303.011	1049.986
150.716	23.840	1301.468	1049.430
151.731	23.876	1300.408	1048.696
152.746	23.931	1299.179	1047.934
153.760	23.916	1298.407	1047.130
154.775	23.879	1297.589	1046.164
155.789	23.927	1296.716	1045.646
156.804	23.858	1295.731	1044.358
157.819	23.963	1294.865	1044.179
158.833	23.922	1293.993	1043.145
159.848	23.925	1293.626	1042.773
160.862	23.902	1292.893	1041.955
161.877	24.052	1291.360	1041.508
162.892	23.863	1291.490	1040.413
163.906	24.002	1290.556	1040.385
164.921	24.032	1289.621	1039.709
165.935	24.030	1288.759	1038.910
166.950	23.987	1288.331	1038.223
167.964	24.028	1287.120	1037.397
168.979	24.061	1286.532	1037.023
169.994	23.955	1286.250	1036.088
171.008	24.042	1284.969	1035.468
172.023	24.130	1284.220	1035.286
173.037	23.986	1283.998	1034.178
174.052	23.993	1283.082	1033.392
175.067	24.100	1282.015	1033.058
176.081	24.004	1281.092	1031.666
177.096	24.090	1280.509	1031.605
178.110	24.004	1279.963	1030.575
179.125	24.067	1278.434	1029.619
180.140	24.111	1277.423	1028.968
181.154	23.978	1276.898	1027.684
182.169	24.072	1275.272	1026.827
183.183	24.121	1274.558	1026.447
184.198	24.103	1273.300	1025.238
185.213	24.026	1272.261	1023.869
186.227	24.170	1271.483	1023.979
187.242	24.130	1270.654	1022.989
188.256	24.236	1269.518	1022.591
189.271	24.144	1268.739	1021.350
190.286	24.152	1268.293	1020.947
191.300	24.094	1267.737	1020.071
192.315	24.077	1266.957	1019.257
193.329	24.107	1266.472	1018.949
194.344	24.236	1266.344	1019.495
195.359	24.118	1266.134	1018.562
196.373	24.047	1265.334	1017.421
197.388	24.117	1264.627	1017.159
198.402	24.107	1264.366	1016.806
199.417	24.074	1264.090	1016.304
200.432	24.091	1263.298	1015.677
201.446	24.021	1262.905	1014.869
202.461	24.064	1261.882	1014.205
203.475	24.044	1261.071	1013.349
204.490	24.086	1260.142	1012.751
205.504	24.199	1258.811	1012.231
206.519	24.235	1258.190	1011.847
207.534	24.214	1256.777	1010.503
208.548	24.132	1256.070	1009.379
209.563	24.141	1255.625	1008.982
210.577	24.231	1254.372	1008.400
211.592	24.237	1253.603	1007.725
212.607	24.264	1252.887	1007.213
213.621	24.276	1252.391	1006.792
214.636	24.182	1251.692	1005.613
215.650	24.279	1250.577	1005.175
216.665	24.097	1249.740	1003.384
217.680	24.186	1248.504	1002.805
218.694	24.251	1247.810	1002.522
219.709	24.121	1247.397	1001.375
220.723	24.266	1246.858	1001.665
221.738	24.304	1245.614	1000.792
222.753	24.110	1245.204	999.287
223.767	24.242	1244.666	999.509
224.782	24.282	1243.742	998.898
225.796	24.381	1242.971	998.745
226.811	24.289	1242.866	998.058
227.826	24.157	1242.590	997.008
228.840	24.236	1241.767	996.703
229.855	24.340	1240.876	996.483
230.869	24.276	1240.494	995.730
231.884	24.330	1239.537	995.176
232.899	24.279	1238.721	994.148
233.913	24.331	1238.056	993.816
234.928	24.426	1237.954	994.174
235.942	24.364	1236.951	992.934
236.957	24.323	1236.643	992.373
237.972	24.314	1235.665	991.450
238.986	24.312	1235.054	990.859
240.001	24.362	1234.209	990.370
241.015	24.506	1233.232	990.301
242.030	24.493	1232.496	989.549
243.045	24.627	1231.415	989.334
244.059	24.593	1230.793	988.558
245.074	24.575	1230.389	988.047
246.088	24.560	1229.319	987.016
247.103	24.554	1228.681	986.387
248.117	24.505	1227.893	985.398
249.132	24.531	1227.234	984.925
250.147	24.573	1226.439	984.427
251.161	24.624	1225.918	984.205
252.176	24.503	1225.003	982.718
253.190	24.604	1224.545	982.821
254.205	24.582	1224.038	982.204
255.220	24.592	1223.427	981.684
256.234	24.627	1222.945	981.400
257.249	24.686	1222.135	980.984
258.263	24.632	1221.703	980.259
259.278	24.563	1221.072	979.288
260.293	24.474	1220.814	978.502
261.307	24.565	1220.177	978.406
262.322	24.635	1219.417	978.094
263.336	24.567	1218.805	977.140
264.351	24.509	1218.391	976.407
265.366	24.597	1217.131	975.791
266.380	24.580	1216.953	975.471
267.395	24.556	1216.384	974.795
268.409	24.573	1215.360	973.984
269.424	24.610	1214.859	973.696
270.439	24.659	1214.313	973.441
271.453	24.779	1213.713	973.524
272.468	24.683	1212.492	971.937
273.482	24.699	1211.984	971.534
274.497	24.756	1211.665	971.501
275.512	24.684	1210.970	970.465
276.526	24.694	1210.274	969.878
277.541	24.743	1209.347	969.316
278.555	24.740	1209.265	969.148
279.570	24.781	1208.334	968.535
280.585	24.693	1207.601	967.386
281.599	24.822	1206.419	967.052
282.614	24.840	1205.824	966.587
283.628	24.753	1205.189	965.522
284.643	24.855	1203.883	964.938
285.657	24.766	1203.287	963.898
286.672	24.878	1202.597	963.862
287.687	24.771	1202.155	962.847
288.701	24.844	1201.151	962.352
289.716	24.917	1199.984	961.723
290.730	24.868	1199.423	960.923
291.745	24.912	1198.910	960.666
292.760	24.864	1198.471	959.969
293.774	24.869	1197.606	959.219
294.789	24.861	1197.383	958.914
295.803	24.959	1196.728	958.827
296.818	24.918	1195.907	957.867
297.833	24.946	1195.105	957.287
298.847	25.063	1194.078	957.005
299.862	25.028	1193.576	956.331
300.876	24.946	1193.153	955.473
301.891	24.969	1192.682	955.132
302.906	25.109	1191.579	954.908
303.920	24.989	1191.377	954.025
304.935	25.008	1190.859	953.627
305.949	24.999	1190.053	952.846
306.964	24.995	1189.516	952.313
307.979	24.988	1189.019	951.793
308.993	25.062	1188.089	951.356
310.008	25.096	1187.203	950.743
311.022	25.099	1186.308	949.961
312.037	25.025	1186.048	949.278
313.052	25.126	1184.838	948.760
314.066	25.082	1184.053	947.811
315.081	25.052	1183.387	947.039
316.095	25.172	1182.245	946.674
317.110	25.104	1182.173	946.173
318.125	25.142	1181.446	945.707
319.139	25.164	1180.847	945.263
320.154	25.260	1179.850	944.883
321.168	25.073	1179.890	943.846
322.183	25.141	1179.393	943.725
323.197	25.152	1178.395	942.899
324.212	25.119	1177.930	942.273
325.227	25.172	1177.406	942.049
326.241	25.184	1176.999	941.698
327.256	25.238	1176.211	941.269
328.270	25.292	1175.030	940.528
329.285	25.222	1174.338	939.520
330.300	25.241	1173.763	939.080
331.314	25.299	1172.681	938.430
332.329	25.252	1172.199	937.718
333.343	25.244	1171.032	936.662
334.358	25.197	1170.555	935.950
335.373	25.263	1169.987	935.758
336.387	25.344	1168.876	935.207
337.402	25.413	1168.073	934.840
338.416	25.358	1167.771	934.233
339.431	25.332	1167.181	933.540
340.446	25.448	1166.292	933.350
341.460	25.426	1165.987	932.910
342.475	25.467	1164.943	932.206
343.489	25.475	1163.973	931.389
344.504	25.512	1163.034	930.745
345.519	25.518	1162.077	929.930
346.533	25.438	1161.294	928.805
347.548	25.555	1160.720	928.867
348.562	25.527	1160.142	928.177
349.577	25.530	1159.330	927.461
350.592	25.533	1158.215	926.505
351.606	25.330	1158.009	925.212
352.621	25.551	1157.237	925.653
353.635	25.661	1156.654	925.667
354.650	25.549	1156.121	924.583
355.665	25.523	1155.562	923.922
356.679	25.638	1154.599	923.660
357.694	25.555	1154.610	923.162
358.708	25.641	1153.444	922.588
359.723	25.534	1152.749	921.402
360.738	25.525	1152.477	921.057
361.752	25.547	1152.118	920.800
362.767	25.590	1151.237	920.234
363.781	25.573	1150.707	919.645
364.796	25.661	1149.926	919.389
365.810	25.725	1149.332	919.158
366.825	25.726	1148.548	918.455
367.840	25.804	1148.052	918.373
368.854	25.747	1147.630	917.665
369.869	25.693	1146.942	916.759
370.883	25.799	1145.835	916.331
371.898	25.665	1145.274	915.123
372.913	25.759	1144.810	915.146
373.927	25.774	1144.396	914.813
374.942	25.907	1143.556	914.736
375.956	25.939	1142.792	914.204
376.971	25.859	1142.692	913.640
377.986	25.735	1142.196	912.531
379.000	25.787	1141.819	912.415
380.015	25.872	1140.821	911.965
381.029	25.901	1140.215	911.548
382.044	25.891	1139.484	910.832
383.059	25.697	1139.393	909.696
384.073	25.842	1138.308	909.482
385.088	25.811	1137.809	908.847
386.102	25.880	1136.675	908.207
387.117	25.996	1135.464	907.747
388.132	25.934	1134.766	906.796
389.146	25.851	1134.137	905.793
390.161	25.936	1133.757	905.836
391.175	25.945	1132.800	905.036
392.190	25.877	1132.493	904.370
393.205	25.907	1131.881	903.955
394.219	25.945	1130.909	903.289
395.234	26.020	1130.166	902.991
396.248	26.032	1128.968	902.016
397.263	26.014	1128.337	901.341
398.278	26.099	1127.813	901.265
399.292	26.055	1127.232	900.501
400.307	26.055	1126.816	900.091
401.321	26.004	1126.274	899.324
402.336	26.037	1125.351	898.673
403.350	26.133	1124.370	898.286
404.365	26.131	1123.758	897.706
405.380	26.120	1123.143	897.082
406.394	26.160	1122.111	896.378
407.409	26.227	1121.380	896.044
408.423	26.227	1121.378	895.966
409.438	26.236	1120.185	894.979
410.453	26.300	1119.487	894.658
411.467	26.255	1118.997	893.961
412.482	26.235	1118.183	893.135
413.496	26.310	1117.267	892.696
414.511	26.249	1116.936	892.051
415.526	26.233	1116.366	891.437
416.540	26.286	1115.782	891.153
417.555	26.335	1115.270	890.905
418.569	26.306	1114.502	890.072
419.584	26.406	1114.115	890.176
420.599	26.323	1113.922	889.533
421.613	144.032	1402.925	1787.907
422.628	133.969	1445.012	1788.031
