DTS Sentinel unit serial number:	SN413079Multiplexer serial number:	ORYXHardware model number:	OX4-SRSoftware version number:	ORYX F/W v4.00 Oryx Data Collector v3.7.2.0data status	okinstallation	princeton_trtdifferential loss correction	single-endedforward channel	channel 2reverse channel	N/Adate	2019/09/11time	19:57:11forward acquisition time	60.00reverse acquisition time	0.00gamma	496.2192k internal	0.2312k external	0.2312temperature offset calibration	1.0050default loss term (dB/km)	0.3790temperature slope calibration	1.0000multiplexer offset coefficient	1.0000multiplexer slope coefficient	1.0000fibre end	0.00T internal ref (°C)	38.95T ext. ref 1 (°C)	1.38T ext. ref 2 (°C)	32.05length (m)	temperature (°C)	Stokes	anti-Stokes-747.200	271.726	0.152	-0.272
-746.185	76.276	-0.049	0.052
-745.171	-200.000	0.016	0.349
-744.156	-50.366	0.170	0.081
-743.142	800.000	0.044	-0.122
-742.127	-200.000	-0.088	0.450
-741.112	800.000	-0.015	-0.058
-740.098	73.056	-0.094	0.100
-739.083	800.000	-0.125	0.403
-738.069	-200.000	0.015	-0.089
-737.054	96.372	-0.109	-0.127
-736.039	-200.000	0.027	0.142
-735.025	95.510	-0.296	0.343
-734.010	-12.851	-0.265	-0.175
-732.996	63.063	0.091	0.093
-731.981	131.670	0.081	0.106
-730.966	-139.312	-0.174	0.019
-729.952	800.000	-0.059	0.175
-728.937	-200.000	0.020	-0.091
-727.923	-67.000	-0.238	0.095
-726.908	-31.318	0.468	-0.267
-725.894	-53.033	-0.212	-0.099
-724.879	220.043	-0.202	-0.329
-723.864	25.445	-0.199	-0.168
-722.850	800.000	-0.056	0.184
-721.835	-11.060	-0.229	-0.153
-720.821	-62.005	0.124	-0.052
-719.806	-36.072	0.206	0.113
-718.791	45.972	-0.119	0.111
-717.777	-100.357	-0.137	-0.034
-716.762	562.410	-0.025	0.062
-715.748	-200.000	0.010	-0.342
-714.733	55.476	-0.133	-0.131
-713.718	-68.262	0.318	0.126
-712.704	562.110	-0.138	0.338
-711.689	-53.172	-0.259	0.120
-710.675	18.171	-0.317	0.257
-709.660	436.628	-0.072	0.158
-708.645	-85.937	-0.364	-0.114
-707.631	106.921	0.119	-0.143
-706.616	-200.000	-0.002	-0.086
-705.602	507.908	0.060	0.140
-704.587	27.102	0.241	0.205
-703.572	627.915	0.109	-0.280
-702.558	473.702	-0.088	-0.201
-701.543	-200.000	-0.027	-0.404
-700.529	586.545	-0.071	0.177
-699.514	29.314	0.183	0.157
-698.499	361.590	-0.126	0.255
-697.485	-97.293	-0.261	-0.069
-696.470	800.000	-0.020	0.063
-695.456	61.973	0.177	-0.178
-694.441	-53.714	-0.100	0.046
-693.426	0.825	-0.118	-0.086
-692.412	800.000	-0.068	-0.263
-691.397	-161.333	-0.201	-0.011
-690.383	-200.000	-0.001	0.114
-689.368	800.000	0.095	-0.282
-688.354	-43.277	-0.253	0.130
-687.339	-120.838	-0.072	0.012
-686.324	800.000	0.068	-0.241
-685.310	263.447	0.099	-0.174
-684.295	-22.627	-0.131	0.080
-683.281	321.165	-0.182	0.350
-682.266	-114.351	0.266	0.052
-681.251	424.995	0.067	0.147
-680.237	179.381	-0.064	-0.095
-679.222	-200.000	0.020	-0.294
-678.208	0.015	-0.094	-0.068
-677.193	-96.460	-0.366	-0.098
-676.178	230.291	-0.029	-0.048
-675.164	-200.000	-0.026	-0.205
-674.149	-152.771	0.234	-0.017
-673.135	-60.916	-0.225	0.096
-672.120	-167.057	0.184	-0.008
-671.105	-86.923	0.318	-0.098
-670.091	-13.351	0.181	-0.119
-669.076	800.000	0.092	0.394
-668.062	-44.085	-0.306	-0.155
-667.047	-173.430	-0.222	0.007
-666.032	-200.000	0.002	0.110
-665.018	-200.000	0.022	-0.178
-664.003	157.070	0.097	0.136
-662.989	109.060	-0.014	-0.017
-661.974	800.000	0.051	0.167
-660.959	800.000	-0.051	-0.203
-659.945	348.934	-0.020	0.039
-658.930	-76.770	0.068	-0.024
-657.916	-19.600	-0.037	0.023
-656.901	800.000	0.023	-0.087
-655.886	58.406	0.239	-0.237
-654.872	-73.561	-0.196	0.072
-653.857	800.000	-0.043	-0.181
-652.843	800.000	-0.058	-0.185
-651.828	155.041	0.164	-0.227
-650.814	-0.871	-0.141	0.101
-649.799	800.000	0.055	-0.180
-648.784	-128.290	0.286	0.041
-647.770	113.429	0.264	0.324
-646.755	800.000	0.048	0.162
-645.741	-117.088	-0.152	-0.028
-644.726	92.627	-0.008	0.009
-643.711	-132.809	-0.163	0.021
-642.697	-200.000	0.050	-0.243
-641.682	-200.000	-0.001	0.021
-640.668	0.651	0.104	0.076
-639.653	41.131	0.382	0.349
-638.638	270.734	0.202	0.359
-637.624	73.785	-0.150	-0.159
-636.609	1.358	0.133	-0.096
-635.595	537.439	-0.116	-0.278
-634.580	71.016	-0.103	-0.108
-633.565	-200.000	0.021	-0.251
-632.551	-81.859	0.415	0.137
-631.536	-99.386	-0.368	-0.094
-630.522	-200.000	0.004	-0.083
-629.507	74.765	0.139	-0.148
-628.492	121.896	0.119	0.150
-627.478	24.324	-0.107	0.090
-626.463	-200.000	-0.038	-0.262
-625.449	229.562	-0.218	-0.360
-624.434	-174.893	-0.158	-0.004
-623.419	95.234	0.151	0.174
-622.405	800.000	0.038	-0.137
-621.390	-29.778	-0.190	-0.109
-620.376	153.341	0.108	0.149
-619.361	-106.505	0.133	-0.030
-618.346	800.000	-0.084	-0.280
-617.332	-103.760	0.161	0.038
-616.317	800.000	0.096	0.395
-615.303	-45.409	0.260	0.130
-614.288	-174.745	0.207	0.006
-613.273	-200.000	0.035	0.312
-612.259	-145.347	-0.192	0.017
-611.244	98.321	-0.173	-0.201
-610.230	-131.608	0.037	-0.005
-609.215	-69.775	-0.384	0.148
-608.201	631.097	0.043	-0.110
-607.186	194.024	0.125	-0.191
-606.171	32.511	0.085	-0.075
-605.157	-200.000	0.020	0.318
-604.142	800.000	-0.040	0.113
-603.128	800.000	0.107	-0.379
-602.113	-169.400	0.424	0.016
-601.098	4.253	0.122	-0.090
-600.084	213.155	-0.141	-0.225
-599.069	-74.504	-0.195	-0.071
-598.055	-88.987	0.267	-0.080
-597.040	261.236	0.050	-0.088
-596.025	800.000	-0.023	-0.100
-595.011	-192.509	-0.217	0.002
-593.996	-139.402	0.148	0.016
-592.982	19.564	-0.114	0.093
-591.967	-80.788	-0.258	0.087
-590.952	77.656	0.119	-0.127
-589.938	-42.301	-0.471	-0.243
-588.923	-200.000	0.054	-0.286
-587.909	-54.464	-0.071	-0.032
-586.894	-1.451	-0.316	-0.225
-585.879	409.626	0.066	0.140
-584.865	-200.000	-0.020	-0.270
-583.850	99.371	-0.193	-0.226
-582.836	662.713	0.126	-0.327
-581.821	-200.000	0.002	0.160
-580.806	-200.000	-0.030	-0.205
-579.792	80.840	-0.100	-0.108
-578.777	-85.254	-0.211	-0.067
-577.763	428.191	-0.054	-0.117
-576.748	300.824	-0.177	-0.330
-575.733	-46.397	-0.305	0.151
-574.719	197.826	-0.124	0.190
-573.704	508.239	0.098	0.230
-572.690	48.266	-0.140	0.132
-571.675	800.000	0.146	0.418
-570.661	-200.000	0.001	0.027
-569.646	-200.000	0.019	-0.263
-568.631	800.000	0.039	0.110
-567.617	-200.000	-0.016	0.081
-566.602	151.387	-0.156	0.214
-565.588	-75.426	0.196	0.070
-564.573	792.717	-0.080	-0.222
-563.558	-35.292	0.292	0.160
-562.544	-47.110	-0.068	0.033
-561.529	-200.000	-0.018	-0.138
-560.515	545.981	-0.043	0.104
-559.500	-123.103	-0.295	-0.048
-558.485	-12.361	-0.099	-0.065
-557.471	800.000	-0.084	-0.320
-556.456	-107.754	-0.118	0.026
-555.442	800.000	0.018	0.066
-554.427	-115.063	-0.373	-0.071
-553.412	-68.051	-0.391	-0.153
-552.398	-30.655	-0.215	-0.122
-551.383	800.000	0.036	0.128
-550.369	-200.000	-0.050	-0.298
-549.354	-89.394	-0.086	-0.025
-548.339	-151.055	-0.228	-0.017
-547.325	371.645	-0.099	-0.203
-546.310	142.203	0.169	0.226
-545.296	36.706	0.050	-0.045
-544.281	-141.210	-0.231	0.024
-543.266	-148.614	-0.208	0.017
-542.252	76.881	0.091	-0.098
-541.237	101.825	-0.070	-0.083
-540.223	-20.971	0.194	0.120
-539.208	252.452	0.077	0.132
-538.193	800.000	-0.091	0.321
-537.179	538.158	-0.113	-0.271
-536.164	74.337	0.181	-0.192
-535.150	0.149	0.206	-0.148
-534.135	299.210	-0.133	0.247
-533.121	66.678	0.046	-0.047
-532.106	-150.150	-0.168	-0.013
-531.091	-64.625	0.274	-0.112
-530.077	-200.000	0.041	0.230
-529.062	-73.695	-0.289	0.106
-528.048	-200.000	-0.005	0.057
-527.033	713.951	0.112	-0.300
-526.018	-59.526	0.117	0.051
-525.004	-200.000	-0.032	-0.233
-523.989	331.779	0.143	-0.277
-522.975	-200.000	-0.130	0.000
-521.960	800.000	-0.054	-0.156
-520.945	35.059	0.245	0.215
-519.931	-107.803	0.432	0.095
-518.916	-80.740	0.187	0.063
-517.902	800.000	0.082	0.350
-516.887	115.579	0.198	0.243
-515.872	-80.746	0.258	-0.086
-514.858	103.007	-0.048	-0.057
-513.843	-35.215	0.107	0.059
-512.829	-101.666	-0.130	0.032
-511.814	-89.639	0.159	-0.047
-510.799	-200.000	-0.002	0.035
-509.785	-103.494	-0.374	0.089
-508.770	-73.956	-0.613	-0.224
-507.756	220.167	0.074	-0.119
-506.741	800.000	0.103	0.315
-505.726	-154.681	0.152	-0.010
-504.712	-200.000	0.015	0.100
-503.697	-54.433	-0.159	0.072
-502.683	417.994	-0.137	0.294
-501.668	22.101	-0.066	0.054
-500.653	-53.285	0.069	-0.032
-499.639	-152.679	0.168	-0.012
-498.624	34.831	-0.227	-0.199
-497.610	188.134	0.027	0.041
-496.595	272.295	-0.183	-0.324
-495.581	68.486	0.175	0.180
-494.566	-195.584	0.280	0.002
-493.551	191.116	0.048	-0.072
-492.537	507.983	0.022	-0.052
-491.522	-47.797	-0.122	-0.060
-490.508	45.551	-0.021	-0.019
-489.493	148.654	-0.189	-0.257
-488.478	4.867	-0.179	0.132
-487.464	167.899	-0.106	0.151
-486.449	52.642	-0.264	0.254
-485.435	-198.704	-0.072	0.000
-484.420	-120.701	0.158	-0.027
-483.405	15.418	0.125	-0.098
-482.391	-43.364	0.355	-0.180
-481.376	800.000	0.038	-0.110
-480.362	97.910	-0.125	0.145
-479.347	89.555	-0.136	0.153
-478.332	277.218	-0.153	-0.274
-477.318	-38.020	-0.130	0.069
-476.303	-189.551	-0.130	-0.002
-475.289	307.206	0.162	0.302
-474.274	-99.340	0.246	0.062
-473.259	-31.251	-0.057	0.032
-472.245	-145.054	-0.415	0.038
-471.230	30.281	0.126	-0.108
-470.216	800.000	-0.083	0.264
-469.201	-79.760	-0.216	-0.073
-468.186	-108.688	-0.200	0.043
-467.172	-170.036	0.130	-0.005
-466.157	-97.908	-0.219	0.057
-465.143	85.862	-0.056	0.062
-464.128	120.908	0.253	-0.316
-463.113	-97.105	0.324	-0.085
-462.099	-63.463	0.159	-0.066
-461.084	253.659	-0.217	-0.372
-460.070	166.192	-0.114	0.161
-459.055	-200.000	0.047	0.239
-458.040	-8.630	0.274	-0.184
-457.026	225.385	0.068	-0.110
-456.011	-120.572	-0.098	0.017
-454.997	-18.366	-0.150	-0.094
-453.982	88.390	-0.189	-0.211
-452.968	-200.000	-0.049	0.222
-451.953	-200.000	-0.065	0.408
-450.938	293.632	-0.068	-0.124
-449.924	-84.077	-0.409	0.130
-448.909	-200.000	0.008	0.467
-447.895	178.602	0.154	-0.226
-446.880	-125.276	-0.133	0.020
-445.865	-70.503	-0.245	-0.093
-444.851	-19.699	0.161	0.100
-443.836	-200.000	0.051	0.265
-442.822	37.351	0.316	-0.281
-441.807	-200.000	0.057	-0.425
-440.792	-95.419	0.165	0.044
-439.778	236.033	-0.131	-0.216
-438.763	-51.953	-0.070	0.032
-437.749	-200.000	-0.195	-0.000
-436.734	138.487	-0.084	0.111
-435.719	-103.244	0.341	-0.081
-434.705	-200.000	0.008	-0.041
-433.690	165.098	-0.229	0.324
-432.676	-200.000	0.050	0.243
-431.661	143.260	0.107	0.142
-430.646	-28.774	0.277	0.160
-429.632	800.000	-0.049	-0.149
-428.617	-22.674	-0.171	0.103
-427.603	101.509	-0.082	0.095
-426.588	429.968	0.068	-0.148
-425.573	-78.841	0.088	-0.030
-424.559	231.427	-0.180	-0.296
-423.544	229.103	-0.060	0.098
-422.530	800.000	-0.089	-0.318
-421.515	-191.399	0.309	-0.003
-420.500	-53.077	-0.318	0.146
-419.486	-78.534	0.082	0.028
-418.471	-120.531	-0.197	-0.033
-417.457	379.558	0.123	-0.253
-416.442	72.854	-0.034	0.036
-415.428	-37.792	0.081	0.043
-414.413	161.063	0.105	-0.147
-413.398	-0.660	-0.166	-0.118
-412.384	-200.000	-0.013	-0.080
-411.369	-120.602	-0.444	-0.075
-410.355	-123.697	-0.115	-0.018
-409.340	91.426	-0.049	0.055
-408.325	-200.000	0.010	-0.133
-407.311	3.110	-0.087	-0.064
-406.296	-67.292	0.212	0.084
-405.282	-25.952	-0.137	-0.081
-404.267	-49.131	0.231	0.111
-403.252	203.517	0.106	0.165
-402.238	-136.530	-0.494	-0.057
-401.223	-45.937	-0.332	0.164
-400.209	-14.645	0.194	-0.125
-399.194	800.000	-0.067	0.188
-398.179	-53.208	-0.453	-0.208
-397.165	-94.342	0.183	0.050
-396.150	-131.741	-0.055	0.007
-395.136	113.816	-0.171	-0.208
-394.121	343.766	0.120	-0.236
-393.106	36.987	0.188	0.166
-392.092	-67.749	-0.376	-0.147
-391.077	490.110	-0.097	0.221
-390.063	-200.000	-0.006	0.104
-389.048	800.000	0.037	0.113
-388.033	-48.967	0.026	-0.013
-387.019	99.903	-0.117	-0.136
-386.004	-21.618	0.184	-0.112
-384.990	800.000	-0.087	0.355
-383.975	800.000	0.096	0.267
-382.960	-54.364	0.227	-0.103
-381.946	-29.508	0.092	0.053
-380.931	27.680	-0.124	-0.104
-379.917	-200.000	-0.062	-0.421
-378.902	-42.454	-0.068	0.035
-377.888	-5.493	0.093	0.064
-376.873	-200.000	0.028	0.248
-375.858	800.000	-0.077	-0.215
-374.844	-145.113	0.195	-0.018
-373.829	800.000	0.076	0.271
-372.815	-42.380	0.305	-0.156
-371.800	-114.709	-0.246	-0.047
-370.785	-157.483	-0.151	-0.009
-369.771	18.731	0.167	-0.134
-368.756	-54.585	0.270	-0.122
-367.742	-115.052	-0.231	0.044
-366.727	-200.000	-0.014	-0.253
-365.712	-136.502	0.247	-0.029
-364.698	84.513	-0.214	0.234
-363.683	44.077	-0.190	0.174
-362.669	-23.951	0.082	-0.049
-361.654	-57.809	-0.215	-0.094
-360.639	-200.000	-0.066	0.430
-359.625	4.550	-0.345	-0.253
-358.610	181.103	0.045	-0.066
-357.596	112.417	-0.075	-0.091
-356.581	-55.030	0.496	-0.223
-355.566	-44.584	0.056	-0.028
-354.552	382.539	-0.112	0.229
-353.537	-125.191	0.297	-0.045
-352.523	-68.198	-0.053	-0.021
-351.508	123.661	-0.040	0.050
-350.493	319.879	0.101	0.192
-349.479	80.290	-0.172	0.185
-348.464	-200.000	-0.005	0.165
-347.450	86.642	0.064	0.070
-346.435	-85.035	-0.163	0.051
-345.420	-200.000	-0.008	-0.227
-344.406	-55.422	-0.198	-0.089
-343.391	-27.652	-0.301	-0.175
-342.377	557.125	-0.096	0.231
-341.362	-200.000	0.033	0.166
-340.348	-113.335	0.203	-0.040
-339.333	-200.000	-0.006	0.194
-338.318	147.213	-0.204	0.274
-337.304	489.137	0.043	0.098
-336.289	38.041	-0.180	-0.160
-335.275	-33.574	0.132	0.073
-334.260	333.743	0.101	-0.195
-333.245	800.000	0.046	-0.184
-332.231	-0.271	-0.215	-0.153
-331.216	-169.511	0.182	0.007
-330.202	61.669	-0.251	-0.250
-329.187	800.000	-0.045	-0.125
-328.172	-200.000	-0.042	0.301
-327.158	-34.691	0.170	0.093
-326.143	178.716	0.165	0.241
-325.129	-87.767	0.056	0.017
-324.114	800.000	-0.109	0.364
-323.099	-148.471	0.328	0.027
-322.085	74.151	-0.057	0.060
-321.070	-200.000	0.006	0.229
-320.056	-200.000	0.029	0.254
-319.041	-138.079	0.204	-0.023
-318.026	-35.885	0.497	0.268
-317.012	-29.485	0.070	-0.040
-315.997	40.150	-0.118	0.106
-314.983	-128.192	-0.168	0.024
-313.968	-200.000	0.055	0.000
-312.953	-40.905	0.044	-0.023
-311.939	97.692	0.214	0.246
-310.924	153.135	-0.115	0.157
-309.910	-200.000	0.009	0.243
-308.895	-85.626	-0.339	-0.105
-307.880	-18.395	0.228	0.142
-306.866	-200.000	0.047	0.400
-305.851	-90.949	0.047	-0.014
-304.837	-7.135	-0.179	-0.121
-303.822	-200.000	0.030	0.364
-302.807	-96.904	-0.162	-0.042
-301.793	291.097	-0.180	0.327
-300.778	-99.831	0.160	0.040
-299.764	-161.131	0.535	0.028
-298.749	626.730	-0.050	0.125
-297.735	-139.210	-0.063	0.007
-296.720	62.704	0.139	-0.139
-295.705	-193.196	-0.149	0.001
-294.691	86.746	0.110	0.122
-293.676	69.915	0.127	-0.131
-292.662	-99.737	0.172	-0.043
-291.647	3.660	0.052	0.038
-290.632	166.480	0.046	0.065
-289.618	276.156	0.020	0.035
-288.603	107.219	-0.179	0.212
-287.589	800.000	-0.038	-0.156
-286.574	800.000	0.057	0.164
-285.559	-41.159	-0.216	-0.111
-284.545	-88.262	-0.214	-0.064
-283.530	-85.039	-0.322	0.101
-282.516	72.977	-0.230	-0.240
-281.501	-12.602	-0.088	-0.057
-280.486	-35.280	0.056	-0.030
-279.472	-53.215	0.030	-0.014
-278.457	-137.992	0.272	-0.030
-277.443	-200.000	-0.041	-0.454
-276.428	235.500	0.042	-0.069
-275.413	317.083	0.179	-0.336
-274.399	-108.842	-0.226	-0.048
-273.384	141.999	0.102	0.135
-272.370	143.436	0.259	0.344
-271.355	-81.184	0.216	-0.071
-270.340	342.078	-0.040	-0.078
-269.326	467.265	-0.109	-0.244
-268.311	6.897	0.087	-0.064
-267.297	110.845	0.053	-0.064
-266.282	0.327	-0.347	0.247
-265.267	-96.348	0.317	0.084
-264.253	-87.697	0.218	0.066
-263.238	-65.259	-0.057	-0.023
-262.224	94.677	0.115	0.131
-261.209	-12.818	0.231	-0.150
-260.195	800.000	0.074	-0.211
-259.180	-200.000	0.099	-0.483
-258.165	146.022	-0.161	-0.215
-257.151	-128.902	0.263	0.037
-256.136	77.684	-0.112	0.119
-255.122	800.000	0.041	-0.151
-254.107	-48.373	0.181	0.087
-253.092	282.869	0.196	0.351
-252.078	-177.388	0.244	-0.006
-251.063	92.769	-0.143	0.161
-250.049	-86.778	0.244	-0.074
-249.034	-32.294	0.308	-0.171
-248.019	-154.083	-0.362	0.024
-247.005	-27.020	-0.345	0.200
-245.990	166.391	0.227	0.320
-244.976	-80.795	0.250	0.083
-243.961	-123.477	0.296	-0.047
-242.946	-69.549	-0.353	0.135
-241.932	179.945	0.143	0.209
-240.917	3.650	0.211	-0.153
-239.903	-96.044	0.110	-0.029
-238.888	43.594	-0.058	-0.053
-237.873	658.684	0.152	0.388
-236.859	-18.034	0.094	0.059
-235.844	-106.471	-0.190	0.042
-234.830	128.651	0.092	-0.117
-233.815	-200.000	0.063	0.416
-232.800	800.000	-0.011	-0.040
-231.786	-72.815	0.267	0.098
-230.771	800.000	0.139	-0.395
-229.757	76.280	-0.326	-0.343
-228.742	210.826	0.319	0.499
-227.727	800.000	-0.055	-0.224
-226.713	117.680	-0.187	-0.229
-225.698	31.894	0.285	0.244
-224.684	-145.227	0.151	0.014
-223.669	42.375	0.135	0.122
-222.655	148.768	-0.111	-0.149
-221.640	128.979	-0.115	0.146
-220.625	127.067	0.032	-0.040
-219.611	379.649	0.072	0.146
-218.596	-86.955	-0.170	-0.052
-217.582	18.993	0.148	-0.118
-216.567	-185.944	0.261	0.004
-215.552	-63.705	-0.159	0.065
-214.538	800.000	-0.054	-0.228
-213.523	800.000	-0.029	-0.101
-212.509	-42.788	-0.118	0.059
-211.494	-14.874	0.111	-0.071
-210.479	-71.408	-0.517	0.192
-209.465	-154.193	0.213	-0.014
-208.450	-200.000	-0.059	-0.264
-207.436	660.554	-0.039	0.099
-206.421	759.410	0.142	-0.382
-205.406	23.746	0.078	-0.064
-204.392	-87.276	0.133	-0.040
-203.377	-200.000	0.009	0.109
-202.363	267.048	-0.139	0.241
-201.348	-200.000	-0.002	-0.103
-200.333	-1.212	-0.164	0.115
-199.319	1.702	-0.068	0.048
-198.304	-158.913	-0.063	-0.004
-197.290	410.624	0.106	0.223
-196.275	-171.427	0.107	0.004
-195.260	4.583	0.234	0.171
-194.246	210.642	-0.083	-0.129
-193.231	214.596	0.096	0.151
-192.217	170.213	0.055	-0.078
-191.202	-4.282	-0.158	0.109
-190.187	5.533	0.165	0.121
-189.173	-200.000	0.034	-0.186
-188.158	38.370	-0.128	0.113
-187.144	213.113	-0.167	-0.261
-186.129	-200.000	-0.027	0.317
-185.114	-42.396	-0.231	-0.117
-184.100	294.642	0.128	-0.232
-183.085	800.000	0.053	-0.179
-182.071	114.916	0.134	0.163
-181.056	-200.000	-0.027	-0.208
-180.042	110.203	-0.292	0.349
-179.027	147.482	-0.197	-0.263
-178.012	682.881	0.078	0.201
-176.998	-4.821	-0.061	0.042
-175.983	532.985	-0.048	0.113
-174.969	-200.000	-0.004	-0.147
-173.954	-200.000	0.047	0.203
-172.939	-200.000	-0.023	0.201
-171.925	-178.637	-0.222	-0.005
-170.910	-38.426	0.322	0.169
-169.896	-162.106	-0.054	-0.003
-168.881	457.661	-0.116	0.256
-167.866	800.000	-0.136	-0.455
-166.852	87.760	0.082	0.090
-165.837	601.638	0.116	-0.285
-164.823	-188.168	0.461	-0.006
-163.808	48.957	-0.083	0.078
-162.793	15.471	-0.122	0.095
-161.779	109.911	0.255	-0.303
-160.764	296.336	0.049	-0.089
-159.750	800.000	-0.100	-0.297
-158.735	-66.778	0.243	-0.095
-157.720	-137.838	0.223	0.025
-156.706	-36.405	0.280	0.150
-155.691	-200.000	0.033	-0.474
-154.677	-110.068	0.063	-0.013
-153.662	-108.088	-0.048	-0.010
-152.647	-2.632	0.129	0.090
-151.633	25.335	0.049	-0.041
-150.618	40.606	-0.172	0.154
-149.604	-21.436	0.145	-0.088
-148.589	-56.631	0.169	0.074
-147.574	106.213	0.175	-0.205
-146.560	222.503	0.158	-0.252
-145.545	-25.639	-0.192	0.112
-144.531	-200.000	-0.017	-0.187
-143.516	-45.227	-0.417	0.206
-142.502	-116.630	0.241	0.044
-141.487	-200.000	-0.073	0.397
-140.472	800.000	0.058	0.212
-139.458	26.936	-0.203	0.169
-138.443	-56.048	0.138	-0.061
-137.429	664.209	-0.117	0.300
-136.414	19.727	-0.190	0.151
-135.399	-16.443	-0.226	0.142
-134.385	800.000	-0.086	0.296
-133.370	800.000	-0.131	0.408
-132.356	301.113	0.214	-0.392
-131.341	-43.478	0.183	0.091
-130.326	-124.292	-0.240	0.037
-129.312	800.000	-0.031	0.104
-128.297	-193.092	0.257	-0.002
-127.283	16.513	-0.128	-0.100
-126.268	333.291	0.057	-0.109
-125.253	-67.606	0.072	-0.028
-124.239	44.341	0.228	0.207
-123.224	-122.048	0.202	0.033
-122.210	-165.963	0.071	-0.003
-121.195	-151.778	-0.330	0.024
-120.180	88.971	-0.018	0.020
-119.166	233.203	0.096	0.157
-118.151	-39.191	0.173	0.090
-117.137	263.143	-0.032	0.055
-116.122	-200.000	0.013	-0.155
-115.107	-139.468	0.262	-0.028
-114.093	-200.000	-0.038	-0.340
-113.078	56.352	-0.120	0.115
-112.064	-145.777	0.030	0.003
-111.049	280.768	0.114	-0.202
-110.034	58.184	0.043	-0.042
-109.020	800.000	0.052	-0.148
-108.005	248.847	0.129	0.217
-106.991	380.799	0.031	0.064
-105.976	84.182	0.086	-0.093
-104.962	-37.527	0.267	-0.141
-103.947	-98.378	-0.236	0.060
-102.932	185.999	0.033	-0.049
-101.918	-1.904	-0.188	-0.131
-100.903	-200.000	-0.027	0.270
-99.889	218.603	-0.086	-0.135
-98.874	65.483	0.231	-0.231
-97.859	571.741	-0.027	-0.065
-96.845	-54.459	0.172	0.077
-95.830	800.000	0.158	0.439
-94.816	369.608	0.173	-0.347
-93.801	-96.924	0.083	-0.022
-92.786	25.605	-0.312	0.257
-91.772	441.692	0.073	0.157
-90.757	86.356	-0.062	-0.068
-89.743	800.000	0.093	-0.292
-88.728	-23.373	0.278	0.165
-87.713	49.911	0.350	0.326
-86.699	-43.006	0.339	0.170
-85.684	-200.000	0.046	0.210
-84.670	-200.000	0.000	0.048
-83.655	-11.566	0.247	0.161
-82.640	282.138	-0.136	-0.241
-81.626	-200.000	0.000	-0.083
-80.611	-79.450	0.235	0.079
-79.597	-154.085	-0.148	0.010
-78.582	-200.000	-0.080	0.449
-77.567	45.965	-0.145	-0.132
-76.553	-94.646	-0.372	-0.100
-75.538	-200.000	0.027	-0.222
-74.524	83.260	-0.164	0.176
-73.509	-92.592	0.232	0.064
-72.494	-143.079	0.360	0.034
-71.480	-200.000	0.021	-0.253
-70.465	800.000	-0.046	0.199
-69.451	287.775	0.131	0.234
-68.436	179.715	-0.025	-0.036
-67.422	-2.945	-0.062	-0.043
-66.407	260.052	0.047	0.081
-65.392	30.402	0.293	0.248
-64.378	481.901	0.109	0.245
-63.363	-200.000	0.007	-0.425
-62.349	-63.041	-0.267	-0.109
-61.334	44.326	-0.840	-0.762
-60.319	-141.064	0.587	0.059
-59.305	-200.000	-0.133	-0.715
-58.290	490.902	0.321	0.726
-57.276	657.647	0.630	1.601
-56.261	-200.000	83.945	502.984
-55.246	506.428	1351.363	3095.175
-54.232	150.912	2573.516	3456.753
-53.217	108.585	2318.023	2734.596
-52.203	47.812	1937.736	1787.144
-51.188	42.267	1726.508	1549.575
-50.173	39.415	1681.195	1487.336
-49.159	53.957	1723.529	1636.230
-48.144	58.311	1741.972	1686.955
-47.130	41.992	1701.836	1525.091
-46.115	39.017	1686.965	1489.191
-45.100	38.924	1682.084	1484.118
-44.086	38.914	1680.105	1482.236
-43.071	38.924	1677.389	1479.855
-42.057	38.685	1674.956	1475.857
-41.042	38.851	1672.914	1475.245
-40.027	38.775	1670.815	1472.761
-39.013	38.749	1668.990	1470.898
-37.998	38.802	1667.266	1469.722
-36.984	38.777	1666.062	1468.415
-35.969	38.924	1664.317	1467.921
-34.954	39.019	1662.505	1466.975
-33.940	39.038	1660.360	1465.162
-32.925	38.973	1658.535	1463.010
-31.911	38.890	1657.501	1461.417
-30.896	39.031	1655.290	1460.463
-29.881	38.916	1654.350	1458.720
-28.867	38.911	1652.707	1457.178
-27.852	38.974	1651.095	1456.165
-26.838	38.882	1649.871	1454.346
-25.823	38.955	1648.011	1453.190
-24.809	38.983	1647.102	1452.534
-23.794	39.032	1645.499	1451.424
-22.779	38.999	1644.385	1450.140
-21.765	39.066	1642.044	1448.515
-20.750	38.940	1640.758	1446.398
-19.736	38.989	1639.267	1445.387
-18.721	38.942	1637.920	1443.796
-17.706	39.028	1636.215	1442.862
-16.692	38.940	1635.284	1441.338
-15.677	38.967	1633.902	1440.264
-14.663	38.979	1632.473	1439.036
-13.648	39.033	1630.929	1438.014
-12.633	38.997	1629.344	1436.290
-11.619	38.819	1628.354	1434.059
-10.604	39.065	1626.109	1433.823
-9.590	39.003	1624.859	1432.210
-8.575	39.025	1623.990	1431.554
-7.560	38.978	1622.585	1429.917
-6.546	39.017	1621.025	1428.767
-5.531	39.016	1619.868	1427.682
-4.517	38.866	1619.343	1426.070
-3.502	38.884	1617.781	1424.772
-2.487	38.942	1616.042	1423.600
-1.473	38.604	1603.778	1410.309
-0.458	35.306	1582.445	1368.017
0.556	30.629	1580.593	1328.315
1.571	27.673	1603.384	1325.898
2.586	27.019	1617.285	1332.477
3.600	23.991	1564.470	1267.319
4.615	13.449	1449.573	1104.190
5.629	3.485	1378.053	986.155
6.644	1.570	1368.439	967.026
7.659	1.408	1367.112	964.971
8.673	1.261	1366.250	963.341
9.688	1.302	1364.464	962.257
10.702	1.007	1361.816	958.439
11.717	4.768	1368.669	987.062
12.731	15.271	1388.929	1068.869
13.746	23.497	1403.114	1132.453
14.761	25.291	1404.409	1144.852
15.775	25.480	1404.830	1146.299
16.790	25.504	1404.291	1145.908
17.804	25.599	1403.613	1145.861
18.819	25.835	1403.645	1147.290
19.834	25.995	1402.569	1147.326
20.848	25.795	1402.129	1145.590
21.863	25.908	1401.189	1145.439
22.877	25.919	1400.044	1144.472
23.892	25.747	1400.015	1143.252
24.907	25.912	1398.639	1143.075
25.921	25.908	1397.576	1142.084
26.936	25.834	1396.723	1140.816
27.950	25.831	1395.893	1140.018
28.965	25.883	1394.240	1138.892
29.980	25.893	1392.958	1137.808
30.994	25.875	1391.931	1136.755
32.009	25.860	1390.630	1135.497
33.023	25.790	1389.528	1134.060
34.038	25.900	1388.355	1133.692
35.053	25.858	1387.069	1132.277
36.067	25.871	1386.234	1131.575
37.082	25.839	1385.121	1130.368
38.096	25.859	1384.279	1129.706
39.111	25.809	1383.989	1129.055
40.126	25.783	1383.122	1128.087
41.140	25.779	1382.769	1127.674
42.155	25.773	1382.267	1127.128
43.169	25.884	1382.050	1127.546
44.184	25.842	1381.385	1126.642
45.199	25.837	1381.266	1126.409
46.213	25.781	1380.944	1125.697
47.228	25.792	1380.252	1125.107
48.242	25.937	1378.378	1124.383
49.257	25.928	1377.140	1123.214
50.271	25.831	1376.041	1121.614
51.286	25.931	1374.103	1120.561
52.301	25.924	1373.131	1119.627
53.315	25.805	1372.696	1118.430
54.330	25.870	1371.610	1117.853
55.344	25.873	1369.863	1116.348
56.359	25.816	1369.086	1115.259
57.374	25.805	1368.496	1114.615
58.388	25.850	1367.963	1114.360
59.403	25.780	1367.961	1113.827
60.417	25.772	1367.115	1112.989
61.432	25.848	1365.964	1112.427
62.447	25.885	1364.859	1111.655
63.461	25.846	1363.970	1110.588
64.476	25.844	1363.116	1109.785
65.490	25.782	1362.035	1108.427
66.505	25.821	1360.373	1107.214
67.520	25.861	1358.873	1106.142
68.534	25.868	1358.283	1105.605
69.549	25.856	1357.076	1104.452
70.563	25.893	1356.237	1103.899
71.578	25.892	1355.495	1103.192
72.593	25.885	1354.174	1101.974
73.607	25.905	1353.682	1101.601
74.622	25.923	1352.959	1101.024
75.636	25.756	1352.210	1099.300
76.651	25.827	1351.654	1099.184
77.666	25.928	1350.906	1099.094
78.680	25.852	1350.729	1098.390
79.695	25.885	1349.825	1097.758
80.709	25.821	1349.209	1096.765
81.724	25.879	1348.095	1096.117
82.739	25.901	1346.908	1095.190
83.753	25.891	1345.913	1094.221
84.768	25.833	1345.041	1093.067
85.782	25.844	1344.122	1092.288
86.797	25.886	1342.641	1091.239
87.812	25.891	1341.589	1090.323
88.826	25.845	1340.758	1089.273
89.841	25.921	1339.378	1088.513
90.855	25.913	1338.629	1087.757
91.870	25.903	1337.688	1086.840
92.884	25.946	1336.911	1086.368
93.899	25.920	1336.030	1085.399
94.914	25.931	1335.152	1084.655
95.928	25.784	1334.787	1083.381
96.943	25.970	1333.567	1083.416
97.957	25.854	1333.294	1082.399
98.972	25.926	1332.358	1081.976
99.987	26.007	1331.261	1081.474
101.001	25.890	1330.367	1079.952
102.016	25.871	1329.412	1078.966
103.030	25.914	1328.359	1078.272
104.045	25.823	1327.698	1077.098
105.060	25.929	1326.609	1076.755
106.074	25.900	1325.550	1075.623
107.089	25.965	1324.818	1075.325
108.103	26.017	1323.004	1074.064
109.118	25.985	1322.745	1073.572
110.133	25.947	1321.676	1072.380
111.147	25.984	1320.497	1071.547
112.162	26.004	1319.157	1070.487
113.176	25.986	1317.912	1069.276
114.191	25.981	1317.263	1068.621
115.206	25.948	1316.262	1067.522
116.220	25.983	1315.014	1066.620
117.235	25.953	1314.172	1065.668
118.249	25.861	1313.432	1064.429
119.264	26.043	1312.669	1064.789
120.279	26.122	1311.443	1064.167
121.293	26.150	1310.576	1063.538
122.308	26.041	1309.943	1062.285
123.322	25.982	1309.452	1061.448
124.337	26.003	1308.265	1060.511
125.352	26.071	1307.422	1060.138
126.366	26.100	1306.213	1059.231
127.381	25.978	1305.602	1057.930
128.395	26.091	1304.921	1057.941
129.410	26.042	1304.110	1056.908
130.424	25.996	1303.453	1056.009
131.439	26.067	1302.941	1055.919
132.454	25.967	1301.873	1054.377
133.468	26.038	1301.049	1054.028
134.483	26.010	1300.491	1053.317
135.497	26.045	1299.428	1052.572
136.512	25.965	1298.621	1051.358
137.527	26.120	1297.224	1051.033
138.541	26.085	1295.758	1049.548
139.556	26.038	1294.518	1048.182
140.570	26.026	1293.621	1047.294
141.585	26.060	1292.732	1046.678
142.600	26.074	1291.587	1045.735
143.614	26.059	1291.232	1045.270
144.629	25.944	1290.165	1043.648
145.643	25.884	1289.172	1042.405
146.658	25.870	1287.837	1041.157
147.673	26.009	1286.753	1040.989
148.687	25.909	1286.469	1040.088
149.702	25.837	1285.039	1038.426
150.716	25.894	1284.306	1038.068
151.731	25.911	1282.999	1037.020
152.746	25.999	1281.833	1036.492
153.760	25.977	1281.099	1035.680
154.775	25.997	1280.197	1034.976
155.789	25.927	1279.400	1033.838
156.804	26.032	1277.918	1033.151
157.819	26.012	1276.871	1032.097
158.833	25.969	1276.574	1031.516
159.848	26.021	1275.742	1031.053
160.862	26.103	1275.016	1030.843
161.877	26.150	1273.806	1030.043
162.892	25.988	1273.244	1028.569
163.906	25.989	1272.742	1028.083
164.921	26.042	1271.875	1027.592
165.935	26.109	1270.827	1027.033
166.950	26.082	1270.730	1026.715
167.964	26.015	1269.949	1025.610
168.979	25.988	1269.881	1025.309
169.994	26.120	1268.505	1024.859
171.008	26.171	1267.972	1024.629
172.023	26.170	1267.036	1023.772
173.037	26.019	1267.046	1022.832
174.052	26.170	1265.945	1022.712
175.067	26.123	1264.722	1021.364
176.081	26.039	1264.175	1020.358
177.096	26.089	1263.685	1020.158
178.110	26.105	1262.510	1019.208
179.125	26.203	1261.294	1018.686
180.140	26.137	1260.460	1017.554
181.154	26.033	1259.549	1016.143
182.169	26.087	1258.087	1015.178
183.183	26.182	1256.864	1014.635
184.198	26.189	1256.210	1014.056
185.213	26.233	1255.069	1013.290
186.227	26.131	1254.392	1012.083
187.242	26.249	1253.549	1011.977
188.256	26.214	1253.055	1011.290
189.271	26.204	1252.020	1010.311
190.286	26.265	1250.847	1009.613
191.300	26.178	1250.995	1009.158
192.315	26.207	1250.239	1008.620
193.329	26.118	1249.689	1007.591
194.344	26.207	1249.117	1007.535
195.359	26.230	1248.715	1007.249
196.373	26.157	1248.072	1006.237
197.388	26.002	1247.909	1005.153
198.402	26.148	1247.368	1005.439
199.417	26.127	1246.934	1004.885
200.432	26.199	1246.314	1004.698
201.446	26.207	1245.681	1004.141
202.461	26.255	1244.851	1003.654
203.475	26.211	1244.029	1002.656
204.490	26.262	1242.794	1001.856
205.504	26.247	1242.336	1001.315
206.519	26.302	1241.109	1000.541
207.534	26.234	1240.339	999.454
208.548	26.194	1239.521	998.486
209.563	26.286	1238.525	998.103
210.577	26.281	1237.960	997.531
211.592	26.341	1236.976	996.984
212.607	26.289	1236.404	996.149
213.621	26.226	1235.975	995.366
214.636	26.446	1234.416	995.230
215.650	26.293	1233.978	993.951
216.665	26.345	1232.725	993.138
217.680	26.348	1231.939	992.436
218.694	26.410	1230.834	991.796
219.709	26.347	1230.531	991.122
220.723	26.358	1229.946	990.621
221.738	26.267	1229.120	989.368
222.753	26.242	1228.623	988.747
223.767	26.339	1227.688	988.437
224.782	26.344	1227.596	988.302
225.796	26.404	1226.946	988.017
226.811	26.465	1226.309	987.752
227.826	26.423	1225.484	986.770
228.840	26.432	1224.826	986.204
229.855	26.392	1224.280	985.458
230.869	26.434	1223.482	984.956
231.884	26.399	1222.732	984.073
232.899	26.492	1222.158	984.034
233.913	26.440	1221.615	983.226
234.928	26.507	1221.165	983.140
235.942	26.570	1220.222	982.637
236.957	26.459	1219.634	981.472
237.972	26.471	1219.108	981.026
238.986	26.520	1218.052	980.355
240.001	26.494	1217.939	980.038
241.015	26.617	1217.137	979.968
242.030	26.653	1216.224	979.343
243.045	26.519	1215.649	978.072
244.059	26.530	1214.522	977.136
245.074	26.587	1214.141	977.053
246.088	26.622	1213.142	976.347
247.103	26.639	1212.001	975.438
248.117	26.642	1211.275	974.782
249.132	26.576	1210.825	973.978
250.147	26.643	1210.751	974.194
251.161	26.687	1209.693	973.494
252.176	26.671	1208.702	972.522
253.190	26.683	1208.266	972.151
254.205	26.622	1207.611	971.210
255.220	26.663	1206.836	970.723
256.234	26.645	1206.761	970.478
257.249	26.726	1205.613	969.900
258.263	26.671	1205.143	969.146
259.278	26.698	1204.836	968.953
260.293	26.807	1204.106	968.863
261.307	26.726	1203.495	967.857
262.322	26.755	1203.501	967.930
263.336	26.758	1202.383	966.961
264.351	26.702	1201.454	965.828
265.366	26.740	1200.720	965.356
266.380	26.718	1200.422	964.915
267.395	26.658	1199.641	963.881
268.409	26.731	1198.705	963.430
269.424	26.670	1198.637	962.965
270.439	26.805	1197.930	963.030
271.453	26.794	1196.960	962.110
272.468	26.760	1196.114	961.166
273.482	26.744	1195.803	960.742
274.497	26.843	1195.143	960.651
275.512	26.887	1194.825	960.543
276.526	26.863	1194.183	959.818
277.541	26.817	1193.585	959.010
278.555	26.939	1192.394	958.611
279.570	26.944	1191.610	957.920
280.585	26.858	1191.271	957.113
281.599	26.951	1190.278	956.716
282.614	26.924	1189.418	955.801
283.628	26.853	1188.976	954.987
284.643	26.918	1187.992	954.455
285.657	26.918	1186.912	953.504
286.672	26.877	1186.060	952.517
287.687	26.869	1185.025	951.559
288.701	26.910	1184.793	951.504
289.716	27.020	1184.192	951.514
290.730	26.952	1183.149	950.236
291.745	27.055	1182.498	950.169
292.760	27.008	1182.150	949.556
293.774	27.103	1181.387	949.356
294.789	27.063	1181.185	948.903
295.803	27.041	1180.513	948.162
296.818	26.999	1179.608	947.136
297.833	27.053	1179.176	946.987
298.847	27.077	1178.683	946.631
299.862	27.024	1177.752	945.521
300.876	26.932	1177.371	944.656
301.891	27.051	1176.648	944.609
302.906	27.188	1175.911	944.644
303.920	27.121	1175.184	943.629
304.935	27.190	1174.403	943.281
305.949	27.188	1173.623	942.560
306.964	27.078	1172.951	941.362
307.979	27.203	1172.475	941.546
308.993	27.144	1171.950	940.739
310.008	27.177	1171.101	940.143
311.022	27.179	1170.667	939.720
312.037	27.193	1170.039	939.205
313.052	27.165	1168.857	938.030
314.066	27.178	1168.354	937.609
315.081	27.095	1167.235	936.199
316.095	27.168	1166.762	936.114
317.110	27.246	1166.536	936.254
318.125	27.257	1165.345	935.271
319.139	27.233	1164.730	934.573
320.154	27.233	1164.320	934.158
321.168	27.197	1163.899	933.554
322.183	27.162	1163.144	932.689
323.197	27.225	1162.403	932.332
324.212	27.106	1162.186	931.468
325.227	27.242	1161.839	931.801
326.241	27.344	1161.143	931.683
327.256	27.280	1160.256	930.561
328.270	27.354	1159.129	929.953
329.285	27.358	1158.532	929.416
330.300	27.407	1157.773	928.973
331.314	27.391	1157.037	928.217
332.329	27.455	1155.961	927.601
333.343	27.463	1155.404	927.111
334.358	27.377	1154.845	926.144
335.373	27.396	1154.084	925.544
336.387	27.348	1153.961	925.123
337.402	27.487	1152.551	924.616
338.416	27.474	1152.046	924.063
339.431	27.402	1151.760	923.388
340.446	27.522	1150.991	923.295
341.460	27.483	1150.451	922.583
342.475	27.400	1150.046	921.760
343.489	27.545	1148.722	921.348
344.504	27.501	1147.606	920.150
345.519	27.523	1146.905	919.616
346.533	27.613	1145.946	919.222
347.548	27.533	1145.327	918.242
348.562	27.596	1144.841	918.088
349.577	27.678	1143.978	917.724
350.592	27.427	1142.938	915.547
351.606	27.539	1142.171	915.414
352.621	27.538	1141.883	915.100
353.635	27.592	1141.132	914.688
354.650	27.521	1140.923	914.084
355.665	27.675	1139.918	913.969
356.679	27.857	1139.459	914.430
357.694	27.777	1138.816	913.432
358.708	27.704	1137.981	912.316
359.723	27.668	1137.341	911.545
360.738	27.743	1136.522	911.180
361.752	27.718	1135.775	910.378
362.767	27.758	1135.588	910.344
363.781	27.692	1135.467	909.840
364.796	27.772	1134.634	909.488
365.810	27.696	1134.419	908.859
366.825	27.822	1133.522	908.686
367.840	27.781	1133.253	908.186
368.854	27.897	1132.234	907.865
369.869	27.827	1131.817	907.104
370.883	27.831	1130.788	906.221
371.898	28.034	1129.944	906.470
372.913	27.958	1129.172	905.392
373.927	27.897	1129.193	905.027
374.942	27.854	1128.758	904.383
375.956	27.783	1128.291	903.577
376.971	28.022	1127.031	903.673
377.986	27.962	1127.068	903.324
379.000	27.956	1126.587	902.829
380.015	28.058	1125.583	902.451
381.029	27.939	1125.359	901.599
382.044	28.054	1124.461	901.369
383.059	28.077	1123.598	900.713
384.073	28.056	1123.313	900.300
385.088	28.011	1122.437	899.300
386.102	28.037	1121.497	898.594
387.117	28.130	1120.460	898.137
388.132	28.106	1119.775	897.394
389.146	28.044	1119.255	896.591
390.161	27.987	1118.681	895.772
391.175	28.070	1118.217	895.729
392.190	27.988	1117.863	894.967
393.205	28.105	1116.441	894.318
394.219	28.055	1115.975	893.622
395.234	28.054	1115.313	893.009
396.248	28.171	1114.503	892.851
397.263	28.165	1113.558	891.986
398.278	28.174	1112.924	891.442
399.292	28.263	1112.084	891.125
400.307	28.189	1111.545	890.254
401.321	28.283	1111.177	890.336
402.336	28.110	1110.519	888.892
403.350	28.248	1109.446	888.625
404.365	28.338	1108.901	888.547
405.380	28.327	1107.990	887.682
406.394	28.342	1107.396	887.201
407.409	28.289	1106.884	886.454
408.423	28.384	1106.122	886.226
409.438	28.362	1105.492	885.537
410.453	28.505	1104.545	885.392
411.467	28.443	1104.139	884.688
412.482	28.312	1103.128	883.167
413.496	28.416	1102.723	883.266
414.511	28.401	1102.007	882.541
415.526	28.386	1101.761	882.193
416.540	28.401	1101.140	881.690
417.555	28.578	1100.530	881.979
418.569	28.397	1100.345	880.882
419.584	28.544	1099.517	880.845
420.599	28.437	1099.802	880.481
421.613	94.638	1308.680	1408.714
422.628	88.526	1339.100	1408.841
