DTS Sentinel unit serial number:	SN413079Multiplexer serial number:	ORYXHardware model number:	OX4-SRSoftware version number:	ORYX F/W v4.00 Oryx Data Collector v3.7.2.0data status	okinstallation	princeton_trtdifferential loss correction	single-endedforward channel	channel 2reverse channel	N/Adate	2019/09/11time	21:13:10forward acquisition time	60.00reverse acquisition time	0.00gamma	496.2192k internal	0.2323k external	0.2323temperature offset calibration	1.0061default loss term (dB/km)	0.3790temperature slope calibration	1.0000multiplexer offset coefficient	1.0000multiplexer slope coefficient	1.0000fibre end	0.00T internal ref (°C)	36.37T ext. ref 1 (°C)	1.57T ext. ref 2 (°C)	30.67length (m)	temperature (°C)	Stokes	anti-Stokes-747.200	-200.000	-0.020	0.257
-746.185	114.919	-0.176	0.217
-745.171	264.168	0.121	-0.213
-744.156	-0.422	0.291	0.208
-743.142	-162.871	-0.136	-0.007
-742.127	-114.907	-0.484	0.093
-741.112	227.313	-0.244	0.400
-740.098	544.934	0.139	0.334
-739.083	83.428	0.035	0.038
-738.069	-118.166	-0.204	-0.037
-737.054	232.777	-0.193	-0.320
-736.039	35.683	0.202	0.179
-735.025	-60.304	-0.084	-0.036
-734.010	652.263	-0.105	-0.271
-732.996	319.791	0.201	0.386
-731.981	65.793	-0.230	0.235
-730.966	-113.958	0.140	-0.027
-729.952	-42.059	0.047	0.024
-728.937	-191.584	-0.208	-0.002
-727.923	-200.000	-0.038	0.265
-726.908	454.279	0.102	-0.227
-725.894	234.086	-0.054	-0.090
-724.879	200.004	0.079	0.122
-723.864	-78.436	-0.303	-0.105
-722.850	-200.000	-0.008	-0.180
-721.835	15.581	-0.129	-0.103
-720.821	48.812	0.085	0.080
-719.806	800.000	0.098	-0.354
-718.791	-200.000	-0.028	-0.280
-717.777	445.519	-0.097	-0.215
-716.762	168.264	-0.161	0.231
-715.748	115.398	-0.238	-0.294
-714.733	140.562	0.114	-0.152
-713.718	-107.267	0.141	-0.031
-712.704	-39.877	0.137	0.072
-711.689	-200.000	-0.045	0.219
-710.675	-131.618	0.047	0.006
-709.660	-71.590	0.274	-0.103
-708.645	-1.804	-0.012	0.009
-707.631	800.000	0.093	0.301
-706.616	-95.068	0.122	-0.033
-705.602	129.793	0.123	-0.158
-704.587	-84.710	-0.050	-0.016
-703.572	329.319	-0.096	0.185
-702.558	-138.552	0.072	0.008
-701.543	-110.148	-0.019	-0.004
-700.529	298.004	0.111	0.205
-699.514	-200.000	0.045	-0.473
-698.499	73.417	0.094	-0.099
-697.485	-200.000	0.040	-0.212
-696.470	-119.865	0.407	-0.071
-695.456	102.427	0.067	-0.079
-694.441	27.686	-0.201	0.171
-693.426	203.634	-0.081	0.126
-692.412	139.606	-0.090	-0.119
-691.397	-115.664	-0.047	-0.009
-690.383	-64.530	-0.186	-0.076
-689.368	-149.252	-0.249	-0.020
-688.354	267.523	-0.039	-0.069
-687.339	-119.526	0.069	-0.012
-686.324	-200.000	0.017	-0.176
-685.310	-44.990	-0.390	0.196
-684.295	800.000	-0.038	-0.163
-683.281	-116.012	-0.222	-0.042
-682.266	507.177	0.085	-0.200
-681.251	8.273	-0.140	-0.106
-680.237	-39.123	0.203	-0.107
-679.222	-84.567	0.135	0.043
-678.208	-22.624	0.108	-0.066
-677.193	-102.115	-0.231	-0.056
-676.178	80.445	0.146	0.159
-675.164	-106.366	0.079	0.018
-674.149	-33.682	0.288	-0.160
-673.135	48.077	0.188	0.177
-672.120	-69.992	-0.039	0.015
-671.105	483.894	-0.051	0.117
-670.091	-38.671	0.099	0.053
-669.076	-190.956	-0.122	0.001
-668.062	-106.359	-0.271	-0.061
-667.047	-10.781	0.156	0.104
-666.032	-27.991	0.217	0.126
-665.018	-179.155	-0.150	0.003
-664.003	-37.497	0.091	0.049
-662.989	642.052	-0.009	-0.023
-661.974	-200.000	0.012	0.091
-660.959	-15.645	-0.111	-0.071
-659.945	136.758	-0.110	0.145
-658.930	-200.000	-0.200	0.000
-657.916	-86.899	0.181	0.056
-656.901	69.601	0.087	-0.090
-655.886	78.695	0.178	0.192
-654.872	380.846	-0.039	-0.081
-653.857	92.507	0.332	-0.376
-652.843	-97.616	-0.400	0.104
-651.828	118.150	-0.146	0.182
-650.814	-137.037	0.262	0.030
-649.799	-94.044	0.138	-0.038
-648.784	-88.216	-0.275	0.083
-647.770	51.542	0.107	0.102
-646.755	730.472	-0.097	0.262
-645.741	-45.844	-0.072	-0.036
-644.726	457.855	-0.028	0.062
-643.711	-200.000	0.016	-0.242
-642.697	-131.342	0.108	0.014
-641.682	363.305	-0.073	-0.147
-640.668	-34.982	0.416	-0.228
-639.653	-7.950	-0.028	0.019
-638.638	106.637	-0.302	0.360
-637.624	800.000	-0.012	0.038
-636.609	139.249	0.090	0.118
-635.595	415.182	-0.104	0.223
-634.580	-148.552	-0.285	0.023
-633.565	-200.000	-0.031	0.292
-632.551	172.463	0.151	-0.218
-631.536	800.000	-0.093	-0.295
-630.522	800.000	-0.071	-0.296
-629.507	-200.000	0.001	0.063
-628.492	-36.015	0.118	-0.064
-627.478	37.437	-0.073	0.065
-626.463	-70.028	-0.142	-0.054
-625.449	312.383	-0.063	0.119
-624.434	498.061	0.130	-0.301
-623.419	0.189	-0.208	0.149
-622.405	-76.440	0.240	-0.085
-621.390	-109.373	0.222	0.047
-620.376	465.623	-0.065	-0.146
-619.361	101.826	-0.211	-0.247
-618.346	-45.460	0.079	-0.039
-617.332	236.972	-0.148	0.246
-616.317	13.951	-0.124	0.097
-615.303	726.629	0.070	-0.187
-614.288	78.955	-0.085	0.092
-613.273	35.331	-0.215	-0.189
-612.259	251.550	0.128	-0.218
-611.244	-200.000	-0.021	0.095
-610.230	-200.000	-0.023	-0.284
-609.215	149.061	0.262	0.356
-608.201	50.377	0.078	-0.074
-607.186	800.000	-0.033	-0.102
-606.171	-200.000	-0.012	-0.152
-605.157	-167.291	0.345	-0.014
-604.142	93.494	0.105	0.119
-603.128	-83.787	0.068	0.022
-602.113	-200.000	0.082	0.425
-601.098	-32.040	-0.183	-0.103
-600.084	152.569	0.154	-0.211
-599.069	-97.147	-0.228	-0.060
-598.055	-30.469	-0.301	0.171
-597.040	-141.140	-0.223	-0.023
-596.025	250.481	-0.272	-0.464
-595.011	-0.546	0.135	0.097
-593.996	-69.062	0.130	0.050
-592.982	214.870	0.095	0.152
-591.967	-175.389	0.133	0.004
-590.952	-121.178	-0.414	0.070
-589.938	90.624	-0.050	0.056
-588.923	800.000	-0.029	-0.115
-587.909	-62.965	-0.264	0.109
-586.894	-6.110	-0.323	0.221
-585.879	-54.622	-0.358	-0.163
-584.865	71.486	0.190	-0.198
-583.850	359.930	0.185	-0.371
-582.836	-2.566	0.129	0.091
-581.821	-165.219	0.329	-0.015
-580.806	168.196	-0.160	-0.229
-579.792	-75.862	-0.123	-0.044
-578.777	58.383	-0.173	0.171
-577.763	41.911	-0.103	0.094
-576.748	172.791	0.132	0.191
-575.733	-81.371	-0.093	0.031
-574.719	28.611	0.221	0.188
-573.704	-58.214	-0.283	0.123
-572.690	-200.000	0.006	0.072
-571.675	-5.056	0.268	0.185
-570.661	371.706	-0.066	0.134
-569.646	-41.775	-0.074	-0.038
-568.631	-127.418	-0.266	0.039
-567.617	-125.706	-0.249	-0.038
-566.602	-87.031	0.188	-0.057
-565.588	98.009	-0.207	0.238
-564.573	800.000	0.083	0.359
-563.558	-111.838	-0.090	0.018
-562.544	800.000	0.109	-0.327
-561.529	51.646	0.201	0.191
-560.515	320.404	0.094	0.180
-559.500	-59.716	0.281	-0.121
-558.485	-200.000	-0.069	0.404
-557.471	360.112	-0.168	-0.336
-556.456	800.000	-0.103	-0.415
-555.442	55.682	0.254	-0.247
-554.427	-115.623	-0.176	0.033
-553.412	151.675	0.130	0.177
-552.398	-200.000	-0.039	0.194
-551.383	-200.000	0.024	0.165
-550.369	181.399	0.066	-0.097
-549.354	-56.136	0.103	0.046
-548.339	800.000	0.027	-0.077
-547.325	800.000	0.009	0.037
-546.310	-142.697	-0.241	0.024
-545.296	-200.000	-0.057	0.322
-544.281	163.796	-0.223	0.314
-543.266	183.486	-0.057	-0.085
-542.252	106.572	-0.161	-0.192
-541.237	800.000	-0.095	-0.296
-540.223	800.000	-0.074	-0.214
-539.208	234.393	0.143	0.236
-538.193	191.944	0.120	0.181
-537.179	-67.425	0.362	-0.142
-536.164	50.206	0.246	0.233
-535.150	792.064	0.138	-0.379
-534.135	-200.000	-0.001	0.316
-533.121	800.000	0.079	-0.335
-532.106	-103.855	0.539	0.126
-531.091	106.156	0.090	0.107
-530.077	-19.914	0.106	-0.065
-529.062	-142.629	0.281	-0.027
-528.048	-200.000	0.016	0.355
-527.033	144.221	0.105	-0.140
-526.018	470.135	-0.018	-0.042
-525.004	-200.000	0.007	0.129
-523.989	-133.736	0.083	0.010
-522.975	-53.345	0.123	0.057
-521.960	29.508	0.089	0.076
-520.945	50.306	0.165	-0.157
-519.931	220.071	0.105	-0.168
-518.916	225.296	0.150	-0.243
-517.902	133.464	0.046	0.060
-516.887	-200.000	-0.019	0.193
-515.872	-75.334	-0.231	-0.082
-514.858	235.087	-0.115	0.190
-513.843	-200.000	-0.055	-0.267
-512.829	-200.000	0.010	0.310
-511.814	-116.182	0.214	-0.040
-510.799	631.169	-0.013	-0.033
-509.785	-200.000	0.049	0.253
-508.770	136.781	0.211	-0.276
-507.756	-159.382	0.189	-0.011
-506.741	152.483	0.137	-0.187
-505.726	-12.805	-0.269	-0.175
-504.712	-200.000	-0.056	0.322
-503.697	35.118	0.045	0.040
-502.683	-81.422	-0.103	-0.034
-501.668	-151.967	-0.226	-0.016
-500.653	-74.548	-0.216	0.078
-499.639	-200.000	0.012	0.163
-498.624	-64.979	-0.248	0.100
-497.610	-6.231	0.149	0.102
-496.595	-4.313	-0.027	0.018
-495.581	184.925	0.023	-0.034
-494.566	-200.000	0.004	-0.135
-493.551	-200.000	-0.026	0.207
-492.537	800.000	-0.059	-0.196
-491.522	-200.000	-0.035	-0.163
-490.508	180.189	0.140	-0.205
-489.493	323.590	-0.114	0.217
-488.478	460.096	-0.100	0.224
-487.464	-117.010	-0.279	0.051
-486.449	-37.629	-0.318	0.169
-485.435	789.775	0.073	-0.199
-484.420	-50.506	-0.533	0.251
-483.405	-200.000	0.050	0.287
-482.391	212.925	-0.052	0.082
-481.376	228.210	0.164	-0.268
-480.362	-200.000	-0.012	-0.140
-479.347	-125.040	-0.165	-0.025
-478.332	146.509	0.256	-0.344
-477.318	-16.955	0.127	0.080
-476.303	156.497	0.069	-0.096
-475.289	-200.000	-0.001	-0.051
-474.274	800.000	0.035	0.111
-473.259	-36.937	-0.216	-0.116
-472.245	-84.123	-0.307	-0.097
-471.230	197.129	-0.136	-0.207
-470.216	800.000	0.072	-0.273
-469.201	-32.089	-0.162	0.090
-468.186	-26.987	-0.180	-0.105
-467.172	-53.843	0.047	-0.021
-466.157	800.000	0.020	-0.071
-465.143	735.257	0.166	-0.444
-464.128	213.769	-0.179	0.283
-463.113	-131.196	0.026	-0.003
-462.099	60.966	-0.369	0.366
-461.084	40.898	-0.208	0.188
-460.070	117.548	0.333	-0.409
-459.055	193.109	-0.172	-0.260
-458.040	-107.916	0.048	0.010
-457.026	-200.000	-0.001	-0.107
-456.011	-2.000	0.316	0.222
-454.997	-125.854	-0.088	0.013
-453.982	-144.064	0.439	-0.041
-452.968	-56.090	0.040	0.018
-451.953	54.367	0.182	-0.175
-450.938	-33.362	-0.190	-0.105
-449.924	-32.804	0.272	0.151
-448.909	800.000	-0.081	0.304
-447.895	-160.513	0.240	-0.013
-446.880	-131.985	0.156	-0.020
-445.865	-200.000	-0.035	-0.159
-444.851	-35.153	-0.092	0.050
-443.836	153.066	0.031	0.042
-442.822	800.000	-0.028	-0.119
-441.807	303.898	-0.033	0.062
-440.792	-93.218	0.079	0.022
-439.778	-95.995	0.230	-0.061
-438.763	-200.000	0.037	-0.336
-437.749	196.843	0.060	0.091
-436.734	535.753	0.075	-0.177
-435.719	-77.742	-0.178	0.061
-434.705	8.987	0.393	-0.296
-433.690	281.079	-0.095	-0.170
-432.676	-107.522	0.267	-0.058
-431.661	-6.875	0.391	-0.265
-430.646	-200.000	-0.045	0.272
-429.632	187.109	-0.075	0.111
-428.617	800.000	-0.037	0.139
-427.603	-200.000	0.037	0.250
-426.588	-111.593	0.230	0.047
-425.573	13.183	-0.125	0.096
-424.559	-156.909	0.104	0.006
-423.544	-200.000	0.060	0.306
-422.530	-130.065	0.382	0.052
-421.515	-200.000	0.065	0.322
-420.500	-79.894	0.137	-0.046
-419.486	128.748	0.190	-0.242
-418.471	-97.182	0.343	-0.089
-417.457	256.409	-0.273	0.468
-416.442	-96.479	-0.276	-0.073
-415.428	-200.000	0.047	-0.303
-414.413	-200.000	-0.010	0.053
-413.398	-139.734	0.082	-0.009
-412.384	-200.000	0.001	0.285
-411.369	116.959	-0.142	-0.174
-410.355	59.776	0.094	-0.093
-409.340	800.000	-0.077	-0.315
-408.325	-80.498	0.238	-0.079
-407.311	800.000	0.070	0.197
-406.296	468.850	-0.132	0.295
-405.282	364.053	0.076	0.153
-404.267	584.623	0.088	0.216
-403.252	-42.597	0.307	0.156
-402.238	26.074	0.264	0.220
-401.223	108.013	-0.122	-0.145
-400.209	-75.442	0.440	-0.156
-399.194	800.000	-0.027	0.094
-398.179	-200.000	0.016	-0.496
-397.165	74.363	0.075	-0.078
-396.150	-200.000	0.063	-0.483
-395.136	52.222	0.066	-0.063
-394.121	800.000	-0.116	-0.342
-393.106	-200.000	-0.030	-0.393
-392.092	-65.377	0.175	0.070
-391.077	-132.065	0.253	-0.033
-390.063	31.843	0.295	-0.253
-389.048	137.573	0.083	-0.109
-388.033	119.692	0.078	0.096
-387.019	430.864	0.069	0.150
-386.004	-57.986	-0.096	-0.042
-384.990	-57.999	0.052	-0.023
-383.975	-77.011	0.115	-0.040
-382.960	2.794	-0.118	0.085
-381.946	-68.777	0.226	0.087
-380.931	-10.997	-0.131	0.086
-379.917	304.485	0.211	-0.389
-378.902	-30.567	0.221	0.125
-377.888	43.992	0.068	-0.062
-376.873	-0.692	0.292	-0.206
-375.858	3.378	0.119	-0.086
-374.844	-54.860	-0.295	0.133
-373.829	800.000	0.021	0.057
-372.815	-164.799	-0.423	0.019
-371.800	78.005	-0.231	0.245
-370.785	800.000	-0.126	-0.452
-369.771	235.373	-0.099	-0.163
-368.756	84.794	0.301	0.329
-367.742	73.061	-0.157	0.164
-366.727	139.746	-0.222	-0.291
-365.712	9.461	0.417	-0.314
-364.698	-118.281	-0.067	0.012
-363.683	3.477	-0.106	0.076
-362.669	800.000	-0.035	-0.141
-361.654	-110.306	-0.274	0.057
-360.639	-151.486	-0.068	0.005
-359.625	-83.179	-0.293	0.094
-358.610	-200.000	-0.014	-0.317
-357.596	-118.755	-0.100	-0.018
-356.581	161.612	0.112	-0.156
-355.566	179.118	-0.028	0.040
-354.552	-107.557	-0.165	0.036
-353.537	-41.581	-0.008	0.004
-352.523	-142.926	-0.521	0.050
-351.508	800.000	-0.076	0.233
-350.493	-15.571	-0.115	0.073
-349.479	-85.629	-0.241	0.075
-348.464	387.799	-0.066	-0.135
-347.450	-62.145	-0.131	0.054
-346.435	491.138	0.067	0.152
-345.420	133.320	0.042	0.054
-344.406	-12.264	-0.216	0.141
-343.391	523.417	0.072	-0.167
-342.377	-51.164	-0.177	-0.082
-341.362	16.647	-0.099	-0.078
-340.348	91.986	0.165	-0.185
-339.333	800.000	-0.026	-0.100
-338.318	-180.112	-0.259	0.005
-337.304	-16.453	0.256	0.161
-336.289	137.601	0.028	-0.036
-335.275	-140.388	0.299	0.031
-334.260	-26.716	-0.159	0.092
-333.245	-99.557	-0.109	-0.027
-332.231	212.669	0.188	0.295
-331.216	-79.141	0.211	-0.071
-330.202	206.226	-0.152	0.235
-329.187	235.796	0.060	-0.098
-328.172	2.805	-0.323	0.233
-327.158	-18.460	0.155	-0.096
-326.143	-200.000	-0.044	-0.357
-325.129	52.898	0.313	-0.297
-324.114	-96.295	0.138	0.036
-323.099	-200.000	0.057	0.277
-322.085	27.631	0.158	0.132
-321.070	48.608	0.201	0.187
-320.056	23.474	0.108	0.088
-319.041	36.042	-0.044	0.039
-318.026	800.000	0.097	-0.357
-317.012	-200.000	0.010	-0.143
-315.997	-76.638	0.090	-0.031
-314.983	-200.000	-0.028	0.144
-313.968	-135.013	-0.180	-0.022
-312.953	-37.986	-0.243	-0.128
-311.939	800.000	0.031	0.085
-310.924	-48.945	0.121	0.058
-309.910	-200.000	0.029	-0.165
-308.895	800.000	-0.052	-0.176
-307.880	93.723	-0.129	0.145
-306.866	-36.320	-0.228	-0.122
-305.851	330.255	-0.126	0.241
-304.837	-200.000	-0.065	-0.312
-303.822	-200.000	-0.032	0.327
-302.807	714.923	-0.135	0.356
-301.793	-200.000	-0.047	-0.481
-300.778	25.577	-0.305	0.252
-299.764	-200.000	-0.002	-0.177
-298.749	-51.725	0.159	0.074
-297.735	-200.000	-0.039	0.263
-296.720	370.967	0.096	0.192
-295.705	-200.000	-0.006	0.073
-294.691	-4.675	-0.037	0.025
-293.676	-200.000	0.087	0.453
-292.662	-173.490	-0.212	0.006
-291.647	-200.000	0.010	-0.086
-290.632	146.476	-0.069	-0.092
-289.618	143.557	0.164	-0.216
-288.603	82.807	0.297	0.320
-287.589	800.000	-0.073	-0.206
-286.574	-61.323	-0.288	0.120
-285.559	-42.521	-0.076	-0.038
-284.545	-129.869	0.496	-0.067
-283.530	-162.939	0.107	0.005
-282.516	-116.088	-0.165	0.030
-281.501	-35.613	-0.063	-0.034
-280.486	0.832	-0.248	-0.176
-279.472	535.037	0.062	-0.145
-278.457	-200.000	-0.029	0.309
-277.443	-186.007	-0.206	-0.003
-276.428	-41.161	-0.065	0.033
-275.413	63.314	-0.136	0.135
-274.399	98.705	0.029	-0.033
-273.384	-200.000	-0.069	0.413
-272.370	-64.675	-0.138	-0.055
-271.355	94.432	-0.094	-0.106
-270.340	800.000	0.037	0.139
-269.326	157.007	0.106	-0.145
-268.311	26.544	0.347	-0.288
-267.297	-200.000	-0.050	-0.422
-266.282	-200.000	-0.008	0.234
-265.267	701.853	-0.108	-0.282
-264.253	308.000	0.036	0.067
-263.238	298.085	-0.162	-0.295
-262.224	-200.000	0.008	-0.397
-261.209	800.000	0.055	0.163
-260.195	192.254	-0.145	-0.216
-259.180	118.350	-0.055	0.067
-258.165	35.746	0.256	0.223
-257.151	86.562	0.226	0.246
-256.136	-110.396	-0.411	-0.085
-255.122	-21.651	0.241	-0.146
-254.107	88.188	-0.083	-0.091
-253.092	124.756	0.176	-0.220
-252.078	16.518	-0.158	-0.124
-251.063	-75.756	-0.346	0.121
-250.049	-45.597	-0.039	-0.019
-249.034	-48.107	0.227	-0.109
-248.019	-62.064	0.217	-0.090
-247.005	312.880	0.083	-0.155
-245.990	-75.665	-0.167	-0.059
-244.976	-77.818	-0.146	0.050
-243.961	242.776	0.169	0.281
-242.946	800.000	-0.046	0.158
-241.932	-200.000	0.013	-0.114
-240.917	-200.000	-0.001	0.348
-239.903	39.874	0.092	0.081
-238.888	-200.000	-0.011	0.200
-237.873	-200.000	0.037	-0.267
-236.859	800.000	-0.040	-0.154
-235.844	-200.000	0.002	0.228
-234.830	-200.000	-0.043	0.225
-233.815	-161.055	-0.074	0.004
-232.800	-28.313	-0.355	0.203
-231.786	-8.835	-0.131	-0.087
-230.771	-200.000	-0.069	0.326
-229.757	633.805	-0.064	-0.162
-228.742	-152.431	0.299	-0.021
-227.727	147.405	0.027	-0.035
-226.713	-200.000	-0.068	0.461
-225.698	14.537	-0.095	0.073
-224.684	-200.000	-0.046	0.288
-223.669	184.115	0.134	-0.197
-222.655	131.692	0.048	-0.061
-221.640	-67.796	-0.079	-0.031
-220.625	800.000	0.019	0.055
-219.611	-95.967	-0.252	-0.066
-218.596	800.000	0.052	0.144
-217.582	-83.799	-0.275	-0.087
-216.567	-142.238	-0.298	0.029
-215.552	-3.307	-0.304	0.210
-214.538	-200.000	-0.027	0.227
-213.523	435.521	-0.097	0.208
-212.509	406.160	-0.046	-0.096
-211.494	-25.415	-0.079	-0.046
-210.479	800.000	0.039	-0.111
-209.465	0.853	-0.041	-0.029
-208.450	-121.491	-0.183	-0.030
-207.436	-200.000	-0.001	-0.128
-206.421	389.427	0.107	0.219
-205.406	-163.720	-0.182	-0.008
-204.392	-148.865	-0.080	-0.006
-203.377	-200.000	0.072	0.370
-202.363	-200.000	0.003	0.161
-201.348	-112.483	0.087	-0.017
-200.333	102.624	-0.217	-0.251
-199.319	36.179	-0.115	-0.100
-198.304	-200.000	0.005	0.177
-197.290	188.433	0.104	0.153
-196.275	45.452	0.222	-0.203
-195.260	800.000	0.080	0.244
-194.246	-93.286	0.146	0.040
-193.231	-142.057	-0.246	0.024
-192.217	800.000	0.008	-0.026
-191.202	240.093	-0.133	-0.218
-190.187	152.631	-0.153	0.207
-189.173	7.715	0.313	-0.231
-188.158	361.367	0.040	-0.080
-187.144	-139.235	0.159	-0.017
-186.129	605.366	0.075	0.185
-185.114	-200.000	0.004	0.322
-184.100	-169.606	-0.040	0.001
-183.085	-54.895	0.068	0.030
-182.071	-17.746	0.197	-0.122
-181.056	-118.462	-0.123	0.021
-180.042	-200.000	-0.052	-0.239
-179.027	800.000	0.034	-0.115
-178.012	-54.531	-0.231	0.103
-176.998	-106.278	-0.138	-0.030
-175.983	-62.886	0.270	-0.110
-174.969	-17.712	0.033	0.021
-173.954	64.470	0.095	0.094
-172.939	-38.777	-0.104	0.054
-171.925	800.000	-0.077	0.260
-170.910	800.000	-0.124	-0.378
-169.896	-200.000	0.004	-0.293
-168.881	-23.266	0.128	-0.076
-167.866	-89.245	-0.196	-0.057
-166.852	19.984	0.081	-0.064
-165.837	137.014	0.143	0.185
-164.823	-35.228	-0.203	0.109
-163.808	280.465	0.258	-0.456
-162.793	86.256	0.117	-0.127
-161.779	-126.556	0.148	-0.022
-160.764	81.959	-0.119	0.127
-159.750	-53.118	0.259	0.117
-158.735	449.788	-0.067	-0.146
-157.720	500.157	0.068	-0.155
-156.706	-51.398	0.245	0.113
-155.691	186.330	0.206	0.303
-154.677	-27.438	0.171	-0.098
-153.662	240.617	-0.134	0.221
-152.647	-48.271	-0.073	0.035
-151.633	51.527	-0.151	0.142
-150.618	228.346	-0.108	-0.173
-149.604	-50.665	0.296	-0.138
-148.589	-140.201	0.056	-0.006
-147.574	-200.000	0.030	0.187
-146.560	-17.720	-0.177	-0.110
-145.545	-29.088	0.263	0.149
-144.531	-200.000	-0.018	-0.241
-143.516	-127.505	0.168	0.024
-142.502	-108.411	-0.038	-0.008
-141.487	5.781	0.234	0.171
-140.472	427.093	0.220	0.468
-139.458	80.668	-0.104	-0.111
-138.443	264.194	-0.049	0.084
-137.429	-200.000	0.034	0.363
-136.414	-200.000	0.013	-0.308
-135.399	-160.957	-0.155	-0.008
-134.385	187.418	-0.178	0.261
-133.370	196.634	0.262	0.394
-132.356	94.426	-0.178	-0.199
-131.341	714.560	-0.082	0.216
-130.326	-101.575	0.205	-0.049
-129.312	335.011	0.115	0.220
-128.297	-200.000	-0.027	-0.175
-127.283	-101.491	0.132	0.032
-126.268	800.000	-0.040	-0.136
-125.253	121.106	-0.261	-0.320
-124.239	-30.696	-0.289	-0.161
-123.224	145.813	-0.140	0.185
-122.210	10.138	-0.175	0.131
-121.195	-33.533	0.340	0.185
-120.180	800.000	0.042	0.139
-119.166	-96.140	-0.474	-0.124
-118.151	-200.000	0.016	-0.230
-117.137	-200.000	-0.023	0.325
-116.122	-18.755	0.241	-0.148
-115.107	-200.000	0.018	-0.193
-114.093	-200.000	-0.048	0.387
-113.078	737.887	-0.092	0.243
-112.064	157.719	0.122	0.166
-111.049	474.631	0.079	0.175
-110.034	-125.156	-0.254	0.038
-109.020	-192.072	0.162	-0.002
-108.005	800.000	-0.101	0.349
-106.991	-103.212	0.323	-0.075
-105.976	243.048	0.057	-0.094
-104.962	-161.974	-0.335	-0.017
-103.947	-86.589	-0.127	-0.038
-102.932	800.000	-0.072	0.199
-101.918	-144.357	0.100	0.009
-100.903	800.000	-0.009	-0.029
-99.889	79.004	-0.121	0.128
-98.874	97.612	-0.199	-0.225
-97.859	54.840	-0.228	0.217
-96.845	85.715	-0.279	0.301
-95.830	310.706	0.157	0.289
-94.816	115.893	-0.058	0.070
-93.801	82.689	-0.107	0.115
-92.786	123.836	0.111	-0.137
-91.772	-89.593	-0.095	-0.027
-90.757	-81.597	-0.125	-0.040
-89.743	360.104	0.148	0.291
-88.728	67.626	0.190	0.191
-87.713	561.174	-0.133	-0.317
-86.699	403.415	-0.224	-0.464
-85.684	408.646	-0.135	-0.281
-84.670	-200.000	0.033	0.203
-83.655	181.338	-0.145	0.210
-82.640	61.293	-0.277	0.271
-81.626	-200.000	0.049	0.472
-80.611	275.766	0.124	-0.216
-79.597	800.000	0.085	0.231
-78.582	-200.000	-0.018	0.366
-77.567	-5.105	0.051	-0.034
-76.553	398.926	0.087	0.179
-75.538	281.816	0.149	0.263
-74.524	52.063	-0.265	0.249
-73.509	-200.000	0.002	0.058
-72.494	87.280	-0.218	-0.237
-71.480	-20.125	0.121	0.073
-70.465	472.597	-0.108	0.239
-69.451	-200.000	0.030	0.403
-68.436	-35.506	0.085	-0.045
-67.422	-36.063	0.087	-0.046
-66.407	-73.212	-0.298	0.107
-65.392	4.704	0.211	-0.152
-64.378	-164.939	0.262	0.012
-63.363	433.444	-0.037	-0.078
-62.349	425.056	-0.110	0.233
-61.334	-5.765	-0.856	-0.576
-60.319	-5.338	0.445	0.301
-59.305	242.930	-0.462	-0.760
-58.290	293.159	0.406	0.728
-57.276	309.564	0.858	1.577
-56.261	-200.000	91.274	543.701
-55.246	542.331	1363.546	3195.518
-54.232	154.218	2581.899	3481.763
-53.217	111.535	2294.635	2720.233
-52.203	46.154	1913.488	1741.775
-51.188	39.716	1702.099	1500.531
-50.173	36.826	1657.623	1439.814
-49.159	54.038	1704.503	1610.552
-48.144	57.581	1722.394	1654.046
-47.130	39.604	1679.154	1479.226
-46.115	36.480	1664.981	1443.395
-45.100	36.330	1659.512	1437.476
-44.086	36.240	1656.650	1434.272
-43.071	36.269	1654.122	1432.242
-42.057	36.318	1651.921	1430.640
-41.042	36.186	1650.038	1427.976
-40.027	36.232	1648.168	1426.641
-39.013	36.175	1646.511	1424.730
-37.998	36.304	1644.529	1423.907
-36.984	36.270	1643.240	1422.484
-35.969	36.311	1641.972	1421.637
-34.954	36.430	1640.590	1421.258
-33.940	36.460	1638.629	1419.722
-32.925	36.406	1636.478	1417.410
-31.911	36.447	1635.435	1416.748
-30.896	36.370	1633.218	1414.209
-29.881	36.350	1631.760	1412.744
-28.867	36.321	1630.678	1411.540
-27.852	36.349	1628.907	1410.155
-26.838	36.306	1627.475	1408.541
-25.823	36.430	1625.868	1408.004
-24.809	36.374	1624.518	1406.371
-23.794	36.387	1623.299	1405.355
-22.779	36.324	1622.059	1403.763
-21.765	36.322	1619.838	1401.773
-20.750	36.375	1617.851	1400.381
-19.736	36.360	1617.105	1399.568
-18.721	36.423	1615.599	1398.669
-17.706	36.445	1613.927	1397.323
-16.692	36.410	1612.159	1395.488
-15.677	36.419	1610.713	1394.246
-14.663	36.356	1609.921	1393.047
-13.648	36.420	1608.456	1392.187
-12.633	36.485	1606.723	1391.098
-11.619	36.482	1605.270	1389.763
-10.604	36.450	1603.124	1387.620
-9.590	36.515	1601.874	1386.947
-8.575	36.341	1601.090	1384.969
-7.560	36.378	1599.975	1384.214
-6.546	36.405	1598.651	1383.209
-5.531	36.409	1597.487	1382.176
-4.517	36.435	1596.214	1381.204
-3.502	36.402	1595.630	1380.405
-2.487	36.497	1593.799	1379.447
-1.473	36.185	1582.246	1367.181
-0.458	33.245	1562.854	1329.746
0.556	29.358	1563.148	1296.606
1.571	26.817	1587.166	1298.242
2.586	26.310	1600.959	1305.747
3.600	23.376	1547.924	1241.851
4.615	13.170	1434.877	1084.403
5.629	3.581	1365.112	971.460
6.644	1.701	1356.308	953.342
7.659	1.618	1354.375	951.385
8.673	1.507	1353.202	949.782
9.688	1.454	1351.440	948.128
10.702	1.283	1348.333	944.804
11.717	4.927	1355.746	972.686
12.731	15.354	1375.475	1052.489
13.746	23.714	1389.517	1115.901
14.761	25.520	1391.739	1128.945
15.775	25.954	1391.321	1131.228
16.790	25.866	1391.504	1130.723
17.804	25.942	1390.921	1130.624
18.819	26.194	1390.457	1131.727
19.834	26.249	1389.730	1131.379
20.848	26.310	1388.586	1130.732
21.863	26.243	1387.830	1129.596
22.877	26.291	1386.800	1128.957
23.892	26.256	1386.484	1128.386
24.907	26.304	1385.603	1127.868
25.921	26.319	1384.769	1127.180
26.936	26.273	1383.517	1125.778
27.950	26.240	1382.316	1124.492
28.965	26.345	1381.194	1124.131
29.980	26.281	1380.322	1122.926
30.994	26.246	1378.829	1121.394
32.009	26.269	1377.941	1120.718
33.023	26.196	1376.728	1119.180
34.038	26.200	1375.787	1118.340
35.053	26.295	1374.703	1117.946
36.067	26.335	1373.238	1116.905
37.082	26.251	1372.868	1115.984
38.096	26.286	1371.776	1115.213
39.111	26.210	1371.278	1114.242
40.126	26.278	1370.380	1113.834
41.140	26.190	1369.879	1112.785
42.155	26.254	1369.391	1112.682
43.169	26.216	1369.652	1112.564
44.184	26.209	1369.358	1112.182
45.199	26.214	1368.663	1111.552
46.213	26.255	1368.423	1111.514
47.228	26.233	1367.086	1110.191
48.242	26.287	1366.043	1109.576
49.257	26.309	1364.700	1108.522
50.271	26.265	1363.527	1107.206
51.286	26.168	1362.363	1105.567
52.301	26.264	1360.791	1104.780
53.315	26.255	1359.841	1103.854
54.330	26.220	1359.120	1102.960
55.344	26.260	1357.746	1101.991
56.359	26.197	1356.703	1100.666
57.374	26.205	1356.324	1100.306
58.388	26.178	1355.612	1099.467
59.403	26.262	1355.159	1099.515
60.417	26.255	1354.373	1098.736
61.432	26.246	1353.595	1097.950
62.447	26.180	1353.241	1097.168
63.461	26.285	1351.541	1096.327
64.476	26.156	1350.771	1094.823
65.490	26.250	1349.461	1094.238
66.505	26.244	1347.540	1092.543
67.520	26.185	1346.742	1091.444
68.534	26.178	1346.290	1090.941
69.549	26.226	1344.849	1089.967
70.563	26.254	1344.211	1089.522
71.578	26.403	1342.998	1089.338
72.593	26.184	1342.119	1087.212
73.607	26.230	1341.376	1086.789
74.622	26.234	1340.854	1086.293
75.636	26.294	1339.854	1085.747
76.651	26.228	1339.328	1084.830
77.666	26.211	1338.866	1084.258
78.680	26.167	1338.395	1083.516
79.695	26.294	1337.207	1083.220
80.709	26.188	1336.823	1082.179
81.724	26.098	1336.320	1081.139
82.739	26.265	1334.894	1080.885
83.753	26.161	1334.101	1079.528
84.768	26.171	1333.189	1078.752
85.782	26.281	1331.230	1077.727
86.797	26.281	1330.632	1077.149
87.812	26.217	1329.323	1075.615
88.826	26.250	1328.694	1075.203
89.841	26.319	1327.494	1074.549
90.855	26.151	1326.558	1072.701
91.870	26.201	1326.196	1072.609
92.884	26.248	1324.911	1071.751
93.899	26.203	1324.488	1071.048
94.914	26.203	1323.538	1070.184
95.928	26.311	1322.157	1069.614
96.943	26.250	1321.833	1068.893
97.957	26.219	1321.150	1068.065
98.972	26.368	1319.637	1067.631
99.987	26.280	1319.140	1066.614
101.001	26.366	1317.876	1066.000
102.016	26.325	1317.504	1065.367
103.030	26.271	1316.534	1064.170
104.045	26.337	1315.422	1063.562
105.060	26.342	1314.533	1062.782
106.074	26.356	1313.573	1061.995
107.089	26.360	1312.854	1061.340
108.103	26.429	1311.256	1060.359
109.118	26.423	1310.529	1059.641
110.133	26.315	1309.431	1058.031
111.147	26.358	1308.305	1057.279
112.162	26.333	1306.892	1055.896
113.176	26.398	1305.948	1055.417
114.191	26.392	1305.369	1054.825
115.206	26.349	1304.277	1053.599
116.220	26.385	1302.778	1052.503
117.235	26.324	1302.372	1051.725
118.249	26.344	1301.571	1051.102
119.264	26.329	1300.648	1050.176
120.279	26.328	1300.076	1049.614
121.293	26.312	1299.337	1048.832
122.308	26.467	1298.007	1048.568
123.322	26.374	1297.427	1047.467
124.337	26.376	1296.628	1046.741
125.352	26.351	1295.646	1045.710
126.366	26.430	1294.849	1045.429
127.381	26.442	1294.027	1044.746
128.395	26.450	1292.635	1043.573
129.410	26.535	1291.833	1043.324
130.424	26.463	1291.312	1042.395
131.439	26.423	1290.747	1041.617
132.454	26.419	1289.820	1040.756
133.468	26.517	1288.799	1040.400
134.483	26.482	1288.759	1040.074
135.497	26.511	1287.711	1039.303
136.512	26.364	1286.930	1037.738
137.527	26.324	1286.210	1036.839
138.541	26.378	1284.526	1035.697
139.556	26.372	1283.247	1034.541
140.570	26.455	1282.139	1034.029
141.585	26.417	1281.589	1033.275
142.600	26.422	1280.390	1032.245
143.614	26.471	1279.691	1031.872
144.629	26.346	1278.493	1030.103
145.643	26.321	1277.817	1029.327
146.658	26.199	1276.724	1027.661
147.673	26.335	1275.831	1027.620
148.687	26.224	1274.974	1026.209
149.702	26.318	1273.455	1025.433
150.716	26.361	1272.478	1024.794
151.731	26.343	1271.647	1023.934
152.746	26.270	1270.830	1022.774
153.760	26.385	1269.489	1022.257
154.775	26.478	1268.580	1021.956
155.789	26.344	1267.812	1020.489
156.804	26.381	1266.351	1019.431
157.819	26.373	1265.711	1018.781
158.833	26.283	1265.381	1017.919
159.848	26.364	1264.339	1017.449
160.862	26.478	1263.498	1017.321
161.877	26.421	1262.322	1015.965
162.892	26.483	1261.894	1015.878
163.906	26.499	1261.110	1015.248
164.921	26.527	1260.236	1014.611
165.935	26.531	1259.855	1014.236
166.950	26.410	1259.536	1013.212
167.964	26.476	1258.364	1012.548
168.979	26.466	1258.032	1012.136
169.994	26.474	1257.343	1011.538
171.008	26.538	1256.284	1010.953
172.023	26.537	1255.738	1010.417
173.037	26.520	1255.007	1009.647
174.052	26.492	1254.521	1009.012
175.067	26.496	1253.675	1008.260
176.081	26.524	1252.803	1007.629
177.096	26.464	1252.437	1006.912
178.110	26.486	1251.338	1006.061
179.125	26.615	1250.239	1005.805
180.140	26.566	1248.838	1004.319
181.154	26.562	1248.009	1003.539
182.169	26.585	1246.897	1002.682
183.183	26.512	1246.308	1001.720
184.198	26.579	1244.736	1000.736
185.213	26.574	1244.194	1000.181
186.227	26.543	1243.299	999.203
187.242	26.613	1242.377	998.759
188.256	26.554	1241.506	997.645
189.271	26.605	1240.971	997.407
190.286	26.604	1240.206	996.701
191.300	26.626	1239.238	995.955
192.315	26.418	1239.215	994.703
193.329	26.630	1238.398	995.126
194.344	26.625	1237.865	994.581
195.359	26.566	1237.781	994.102
196.373	26.499	1236.976	992.999
197.388	26.493	1236.809	992.748
198.402	26.533	1236.132	992.332
199.417	26.609	1235.915	992.487
200.432	26.669	1235.081	992.061
201.446	26.695	1234.486	991.638
202.461	26.685	1233.888	991.016
203.475	26.509	1233.350	989.533
204.490	26.565	1232.062	988.719
205.504	26.570	1231.363	988.092
206.519	26.683	1230.161	987.659
207.534	26.707	1229.168	986.904
208.548	26.640	1228.594	985.990
209.563	26.751	1227.711	985.801
210.577	26.713	1226.773	984.754
211.592	26.818	1225.570	984.269
212.607	26.679	1225.673	983.510
213.621	26.683	1225.033	982.933
214.636	26.755	1223.720	982.180
215.650	26.702	1223.250	981.429
216.665	26.775	1221.739	980.527
217.680	26.808	1221.179	980.168
218.694	26.733	1220.625	979.232
219.709	26.788	1219.780	978.767
220.723	26.858	1218.776	978.249
221.738	26.845	1217.823	977.327
222.753	26.640	1217.443	975.836
223.767	26.774	1217.108	976.202
224.782	26.770	1216.542	975.640
225.796	26.765	1216.221	975.270
226.811	26.776	1215.269	974.475
227.826	26.918	1215.028	974.960
228.840	26.798	1214.384	973.713
229.855	26.801	1213.573	972.992
230.869	26.866	1212.804	972.641
231.884	26.884	1211.848	971.883
232.899	26.865	1211.289	971.244
233.913	26.846	1210.472	970.402
234.928	26.993	1210.316	970.977
235.942	26.953	1209.527	970.045
236.957	26.995	1208.648	969.480
237.972	26.924	1208.106	968.579
238.986	26.938	1207.423	968.021
240.001	26.947	1206.862	967.535
241.015	27.102	1206.084	967.652
242.030	26.977	1205.368	966.327
243.045	27.018	1204.362	965.652
244.059	26.946	1204.020	964.908
245.074	26.990	1203.173	964.376
246.088	27.142	1202.331	964.424
247.103	27.050	1201.427	963.127
248.117	27.049	1200.717	962.467
249.132	27.001	1200.120	961.647
250.147	27.038	1199.489	961.256
251.161	27.070	1198.755	960.747
252.176	26.991	1198.087	959.714
253.190	27.120	1197.315	959.691
254.205	27.121	1196.582	959.022
255.220	26.936	1196.671	958.032
256.234	27.098	1195.645	957.980
257.249	27.070	1195.130	957.336
258.263	27.052	1194.520	956.665
259.278	27.100	1193.741	956.212
260.293	27.026	1193.211	955.311
261.307	27.128	1192.815	955.450
262.322	27.162	1192.238	955.080
263.336	27.088	1191.694	954.173
264.351	27.077	1190.706	953.236
265.366	27.191	1190.251	953.386
266.380	27.181	1189.507	952.655
267.395	27.132	1188.837	951.776
268.409	26.992	1188.663	950.821
269.424	27.194	1187.948	951.219
270.439	27.155	1187.275	950.396
271.453	27.145	1186.832	949.901
272.468	27.193	1185.706	949.167
273.482	27.098	1185.110	948.111
274.497	27.192	1184.650	948.150
275.512	27.252	1183.949	947.820
276.526	27.236	1182.997	946.887
277.541	27.232	1182.649	946.508
278.555	27.294	1182.284	946.450
279.570	27.267	1181.339	945.473
280.585	27.303	1180.473	944.884
281.599	27.199	1179.700	943.640
282.614	27.220	1179.353	943.390
283.628	27.300	1177.597	942.311
284.643	27.357	1176.986	942.036
285.657	27.182	1176.888	940.969
286.672	27.292	1175.299	940.185
287.687	27.422	1174.548	940.173
288.701	27.439	1174.044	939.775
289.716	27.420	1173.264	938.967
290.730	27.437	1172.654	938.482
291.745	27.352	1172.287	937.667
292.760	27.440	1171.635	937.519
293.774	27.504	1170.758	937.062
294.789	27.301	1170.868	936.024
295.803	27.408	1169.986	935.786
296.818	27.473	1169.213	935.419
297.833	27.446	1168.762	934.834
298.847	27.359	1168.252	933.898
299.862	27.391	1167.490	933.372
300.876	27.384	1166.668	932.593
301.891	27.480	1165.805	932.311
302.906	27.549	1165.283	932.169
303.920	27.543	1164.756	931.630
304.935	27.526	1164.068	930.910
305.949	27.477	1163.614	930.218
306.964	27.582	1162.810	930.026
307.979	27.604	1162.088	929.480
308.993	27.580	1161.431	928.749
310.008	27.584	1160.783	928.170
311.022	27.488	1160.051	927.013
312.037	27.713	1159.501	927.638
313.052	27.430	1158.583	925.382
314.066	27.454	1157.750	924.758
315.081	27.660	1157.006	925.125
316.095	27.612	1156.289	924.226
317.110	27.680	1155.650	923.981
318.125	27.709	1154.967	923.501
319.139	27.621	1154.278	922.419
320.154	27.657	1154.186	922.449
321.168	27.686	1153.269	921.780
322.183	27.598	1152.906	920.966
323.197	27.695	1152.095	920.722
324.212	27.693	1151.526	920.177
325.227	27.682	1151.174	919.760
326.241	27.811	1150.609	919.876
327.256	27.719	1149.880	918.750
328.270	27.780	1148.850	918.152
329.285	27.832	1147.731	917.437
330.300	27.739	1147.389	916.615
331.314	27.897	1146.260	916.426
332.329	27.802	1145.817	915.515
333.343	27.713	1145.260	914.542
334.358	27.792	1144.626	914.349
335.373	27.901	1143.613	914.003
336.387	27.918	1142.923	913.460
337.402	27.797	1142.265	912.246
338.416	27.885	1141.537	912.022
339.431	27.920	1141.239	911.878
340.446	27.944	1139.980	910.913
341.460	27.968	1139.397	910.486
342.475	27.948	1138.962	909.956
343.489	27.922	1138.162	909.110
344.504	27.899	1137.351	908.266
345.519	27.968	1136.327	907.712
346.533	27.971	1135.953	907.345
347.548	28.089	1134.931	907.035
348.562	27.942	1134.346	905.760
349.577	28.017	1133.723	905.555
350.592	28.011	1132.593	904.541
351.606	27.907	1132.303	903.717
352.621	27.924	1132.069	903.531
353.635	27.952	1131.269	902.954
354.650	28.027	1130.712	902.798
355.665	28.116	1129.846	902.465
356.679	28.051	1129.400	901.708
357.694	28.138	1128.784	901.568
358.708	28.103	1128.106	900.774
359.723	28.047	1127.302	899.777
360.738	28.106	1126.468	899.319
361.752	28.068	1126.330	898.941
362.767	28.018	1126.008	898.363
363.781	28.100	1125.415	898.213
364.796	28.183	1124.346	897.684
365.810	28.238	1123.887	897.509
366.825	28.197	1123.503	896.925
367.840	28.297	1123.128	897.034
368.854	28.245	1122.211	895.969
369.869	28.196	1121.444	895.036
370.883	28.412	1120.265	895.069
371.898	28.225	1119.771	893.683
372.913	28.236	1119.418	893.375
373.927	28.291	1119.141	893.343
374.942	28.453	1118.462	893.516
375.956	28.216	1118.185	892.061
376.971	28.253	1117.461	891.584
377.986	28.410	1116.562	891.550
379.000	28.367	1116.365	891.103
380.015	28.445	1115.746	890.912
381.029	28.361	1115.435	890.175
382.044	28.411	1114.519	889.606
383.059	28.327	1114.017	888.723
384.073	28.395	1113.279	888.385
385.088	28.459	1112.466	887.968
386.102	28.503	1111.354	887.213
387.117	28.428	1110.831	886.355
388.132	28.438	1109.776	885.482
389.146	28.371	1109.382	884.764
390.161	28.415	1108.727	884.377
391.175	28.543	1107.840	884.210
392.190	28.452	1107.534	883.447
393.205	28.400	1106.871	882.593
394.219	28.316	1106.168	881.547
395.234	28.472	1105.060	881.338
396.248	28.586	1103.950	880.923
397.263	28.670	1103.381	880.793
398.278	28.666	1102.663	880.121
399.292	28.591	1102.519	879.571
400.307	28.657	1102.057	879.440
401.321	28.733	1100.785	878.708
402.336	28.673	1100.539	878.151
403.350	28.667	1100.024	877.629
404.365	28.794	1099.034	877.372
405.380	28.619	1098.475	876.010
406.394	28.801	1097.480	876.007
407.409	28.669	1097.244	875.114
408.423	28.738	1096.271	874.586
409.438	28.784	1095.382	874.022
410.453	28.779	1094.890	873.529
411.467	28.836	1094.131	873.114
412.482	28.774	1093.343	872.116
413.496	28.751	1092.963	871.625
414.511	28.751	1092.520	871.193
415.526	28.782	1091.786	870.680
416.540	28.849	1091.234	870.480
417.555	28.768	1091.092	869.904
418.569	28.866	1090.680	869.962
419.584	28.881	1090.359	869.700
420.599	28.873	1089.768	869.116
421.613	100.136	1313.822	1433.712
422.628	93.418	1346.442	1433.819
