DTS Sentinel unit serial number:	SN413079Multiplexer serial number:	ORYXHardware model number:	OX4-SRSoftware version number:	ORYX F/W v4.00 Oryx Data Collector v3.7.2.0data status	okinstallation	princeton_trtdifferential loss correction	single-endedforward channel	channel 2reverse channel	N/Adate	2019/09/12time	05:09:10forward acquisition time	60.00reverse acquisition time	0.00gamma	496.2192k internal	0.2325k external	0.2325temperature offset calibration	1.0068default loss term (dB/km)	0.3790temperature slope calibration	1.0000multiplexer offset coefficient	1.0000multiplexer slope coefficient	1.0000fibre end	0.00T internal ref (°C)	31.80T ext. ref 1 (°C)	1.67T ext. ref 2 (°C)	27.15length (m)	temperature (°C)	Stokes	anti-Stokes-747.200	-200.000	0.033	-0.179
-746.185	558.233	0.070	0.171
-745.171	514.166	-0.075	-0.177
-744.156	76.715	-0.351	0.376
-743.142	-1.766	0.138	0.098
-742.127	-200.000	0.046	0.531
-741.112	-58.980	0.093	-0.040
-740.098	76.735	-0.096	0.103
-739.083	-200.000	-0.069	0.432
-738.069	-88.000	-0.361	0.109
-737.054	8.523	0.201	0.153
-736.039	-117.921	-0.039	-0.007
-735.025	-79.306	0.566	-0.194
-734.010	-123.525	-0.202	0.032
-732.996	-200.000	-0.042	-0.215
-731.981	173.403	0.199	-0.290
-730.966	-8.904	0.100	0.068
-729.952	576.358	-0.099	-0.245
-728.937	15.789	-0.222	-0.176
-727.923	798.464	0.121	0.336
-726.908	-161.029	-0.222	-0.012
-725.894	103.265	-0.172	0.204
-724.879	9.616	-0.143	-0.109
-723.864	-20.458	-0.164	-0.102
-722.850	-74.864	-0.247	0.089
-721.835	153.857	0.095	-0.131
-720.821	161.686	0.036	0.051
-719.806	47.633	0.203	-0.191
-718.791	79.751	-0.145	-0.157
-717.777	103.227	-0.080	-0.094
-716.762	800.000	0.054	-0.193
-715.748	800.000	0.081	0.259
-714.733	-66.975	-0.406	0.162
-713.718	80.311	-0.078	0.085
-712.704	593.442	-0.059	0.146
-711.689	-173.797	0.521	-0.016
-710.675	-91.916	0.307	-0.088
-709.660	-159.422	-0.240	-0.014
-708.645	-33.526	0.254	0.141
-707.631	8.004	-0.065	0.049
-706.616	-16.676	-0.235	0.150
-705.602	-189.910	0.090	0.001
-704.587	-86.751	-0.117	-0.036
-703.572	-14.158	-0.174	0.113
-702.558	800.000	0.022	-0.066
-701.543	-142.200	-0.146	-0.015
-700.529	-200.000	0.013	-0.102
-699.514	-170.659	-0.038	0.001
-698.499	800.000	-0.052	-0.178
-697.485	-35.558	0.131	-0.072
-696.470	168.725	-0.080	-0.115
-695.456	800.000	0.046	-0.150
-694.441	-4.656	0.247	-0.172
-693.426	-180.490	-0.291	0.006
-692.412	-49.504	0.167	-0.080
-691.397	37.615	0.277	0.248
-690.383	-169.012	-0.276	-0.010
-689.368	-25.752	0.217	-0.129
-688.354	74.995	-0.200	0.212
-687.339	-109.494	0.224	-0.048
-686.324	-200.000	-0.046	-0.425
-685.310	-176.977	0.106	-0.003
-684.295	204.902	-0.082	0.129
-683.281	681.987	-0.107	-0.281
-682.266	800.000	0.063	0.186
-681.251	102.071	-0.163	0.192
-680.237	448.860	-0.019	0.043
-679.222	-75.570	-0.224	-0.080
-678.208	528.183	0.038	-0.090
-677.193	-200.000	0.026	0.294
-676.178	-196.410	-0.326	-0.002
-675.164	-109.208	0.437	-0.093
-674.149	-200.000	-0.001	-0.093
-673.135	-57.817	-0.202	-0.089
-672.120	-98.058	0.060	-0.015
-671.105	199.889	0.086	0.133
-670.091	800.000	-0.124	0.425
-669.076	345.978	-0.022	-0.043
-668.062	-200.000	-0.075	-0.378
-667.047	-59.932	-0.151	-0.065
-666.032	-170.154	-0.245	0.009
-665.018	170.479	0.143	-0.205
-664.003	133.820	0.306	-0.398
-662.989	-116.487	0.095	-0.018
-661.974	192.446	-0.097	-0.147
-660.959	-36.962	0.104	0.056
-659.945	800.000	-0.033	-0.146
-658.930	482.056	0.113	0.259
-657.916	-200.000	-0.010	-0.249
-656.901	790.503	0.052	0.143
-655.886	800.000	-0.055	0.213
-654.872	-60.161	-0.172	-0.074
-653.857	-52.611	-0.081	-0.038
-652.843	-182.269	-0.389	-0.007
-651.828	800.000	-0.061	-0.225
-650.814	630.344	-0.171	0.435
-649.799	161.710	0.051	-0.072
-648.784	-200.000	0.000	-0.165
-647.770	44.781	0.224	-0.207
-646.755	383.704	-0.091	0.189
-645.741	2.139	0.162	0.118
-644.726	64.682	-0.140	-0.142
-643.711	800.000	-0.050	-0.213
-642.697	24.619	-0.144	0.120
-641.682	109.466	0.367	0.442
-640.668	320.685	-0.077	-0.147
-639.653	-200.000	-0.016	-0.186
-638.638	-80.632	0.514	-0.172
-637.624	-200.000	-0.098	-0.630
-636.609	-24.194	0.195	-0.117
-635.595	800.000	-0.078	-0.256
-634.580	-45.627	0.093	-0.046
-633.565	693.616	-0.105	-0.276
-632.551	800.000	-0.113	-0.387
-631.536	-200.000	-0.024	0.257
-630.522	800.000	0.074	0.278
-629.507	383.229	-0.095	0.195
-628.492	-200.000	-0.050	0.242
-627.478	800.000	-0.058	-0.196
-626.463	164.835	0.141	0.200
-625.449	-49.122	-0.166	-0.080
-624.434	-145.024	0.276	-0.025
-623.419	112.089	-0.072	-0.088
-622.405	-33.255	-0.306	0.170
-621.390	9.855	-0.436	0.332
-620.376	42.230	0.173	-0.158
-619.361	-89.343	-0.097	-0.029
-618.346	23.185	0.096	0.079
-617.332	43.442	0.026	-0.024
-616.317	24.894	0.019	0.015
-615.303	225.741	0.076	0.123
-614.288	-147.913	-0.397	0.033
-613.273	-50.255	-0.224	0.106
-612.259	-32.745	0.339	-0.189
-611.244	-88.137	-0.265	0.080
-610.230	71.115	-0.043	0.045
-609.215	-123.085	-0.338	0.054
-608.201	-103.772	-0.127	-0.030
-607.186	149.883	0.169	-0.230
-606.171	-145.331	0.292	-0.026
-605.157	86.469	0.142	0.158
-604.142	304.783	0.069	0.129
-603.128	108.836	-0.185	-0.222
-602.113	-161.203	-0.286	0.015
-601.098	130.756	-0.043	-0.056
-600.084	800.000	-0.023	0.090
-599.069	-200.000	-0.033	-0.268
-598.055	558.488	-0.076	-0.184
-597.040	259.219	-0.144	-0.250
-596.025	-200.000	-0.006	-0.367
-595.011	-46.778	-0.020	0.010
-593.996	-104.228	-0.123	0.029
-592.982	-46.190	0.197	0.097
-591.967	486.048	-0.040	0.092
-590.952	216.266	-0.087	-0.138
-589.938	213.132	0.083	-0.131
-588.923	-200.000	0.016	-0.203
-587.909	-109.021	0.185	0.040
-586.894	-131.392	0.206	0.027
-585.879	87.523	-0.126	0.140
-584.865	-200.000	-0.037	0.208
-583.850	800.000	0.067	-0.219
-582.836	162.464	-0.104	0.146
-581.821	-133.223	-0.190	0.024
-580.806	-200.000	0.079	0.358
-579.792	97.577	0.216	-0.249
-578.777	188.925	0.250	0.375
-577.763	800.000	-0.133	-0.437
-576.748	195.329	0.159	-0.242
-575.733	82.755	-0.126	0.137
-574.719	53.730	0.286	-0.276
-573.704	-59.195	0.177	0.077
-572.690	-200.000	-0.006	0.233
-571.675	387.666	-0.123	-0.254
-570.661	-40.237	0.132	-0.069
-569.646	26.196	-0.188	0.158
-568.631	-165.729	-0.383	0.017
-567.617	9.637	-0.389	-0.295
-566.602	252.886	0.103	-0.176
-565.588	221.545	0.118	-0.190
-564.573	2.952	-0.238	-0.173
-563.558	-124.062	-0.326	-0.051
-562.544	-118.853	0.225	0.040
-561.529	-39.860	0.093	0.048
-560.515	166.448	0.228	-0.323
-559.500	57.629	0.098	-0.096
-558.485	-119.597	0.110	-0.019
-557.471	800.000	0.146	-0.578
-556.456	-78.106	0.159	-0.055
-555.442	9.878	0.246	0.187
-554.427	-59.996	0.164	0.070
-553.412	-89.608	-0.250	0.073
-552.398	-33.799	-0.105	0.058
-551.383	102.364	-0.227	-0.266
-550.369	-39.208	0.252	-0.132
-549.354	-77.718	-0.150	0.052
-548.339	16.801	0.165	-0.131
-547.325	38.041	-0.046	-0.041
-546.310	53.620	-0.122	-0.117
-545.296	176.655	0.109	-0.158
-544.281	504.287	0.144	-0.335
-543.266	-69.469	0.351	-0.135
-542.252	24.770	-0.109	-0.090
-541.237	800.000	0.130	-0.405
-540.223	800.000	-0.014	0.047
-539.208	-27.494	-0.135	-0.079
-538.193	-64.341	0.247	0.101
-537.179	56.634	-0.144	0.140
-536.164	800.000	-0.109	0.335
-535.150	127.150	0.087	-0.110
-534.135	-136.209	-0.013	-0.001
-533.121	-102.700	0.147	0.035
-532.106	69.502	0.167	0.172
-531.091	-85.067	0.296	-0.093
-530.077	-200.000	0.020	-0.152
-529.062	211.616	-0.031	0.049
-528.048	800.000	-0.017	0.056
-527.033	-200.000	-0.028	0.186
-526.018	252.366	0.049	0.084
-525.004	161.360	0.068	0.095
-523.989	306.337	0.115	-0.214
-522.975	-109.035	-0.145	0.031
-521.960	-200.000	-0.039	0.186
-520.945	-200.000	0.037	-0.234
-519.931	-31.871	0.045	0.025
-518.916	-52.691	0.103	-0.048
-517.902	-114.879	0.249	0.047
-516.887	-200.000	0.013	0.294
-515.872	-200.000	-0.010	-0.169
-514.858	323.289	0.066	0.127
-513.843	95.685	0.169	-0.192
-512.829	155.635	-0.302	0.416
-511.814	-200.000	0.005	0.048
-510.799	182.690	0.091	0.134
-509.785	-200.000	0.014	0.263
-508.770	-200.000	-0.029	0.214
-507.756	82.988	-0.152	-0.166
-506.741	800.000	-0.109	-0.378
-505.726	-104.863	-0.159	0.036
-504.712	52.817	-0.087	-0.083
-503.697	-200.000	0.006	0.280
-502.683	-19.016	-0.329	-0.205
-501.668	-33.486	0.300	-0.166
-500.653	22.703	-0.085	0.070
-499.639	-5.323	0.132	0.091
-498.624	800.000	-0.079	-0.266
-497.610	-110.442	0.251	-0.052
-496.595	-160.397	-0.428	0.023
-495.581	216.700	-0.074	0.118
-494.566	-42.704	-0.099	-0.050
-493.551	-200.000	0.004	0.319
-492.537	351.575	-0.063	-0.124
-491.522	-93.988	-0.140	-0.038
-490.508	2.201	0.066	0.048
-489.493	475.081	-0.029	-0.066
-488.478	324.801	-0.176	0.337
-487.464	-200.000	-0.033	0.210
-486.449	-200.000	-0.012	0.126
-485.435	-20.506	-0.131	-0.081
-484.420	800.000	-0.087	-0.247
-483.405	562.899	0.154	-0.373
-482.391	682.949	0.128	-0.334
-481.376	-59.030	-0.293	-0.126
-480.362	-24.753	0.193	0.114
-479.347	138.122	0.054	0.070
-478.332	-33.705	-0.127	-0.070
-477.318	51.909	0.207	0.196
-476.303	-3.098	0.119	-0.083
-475.289	566.085	0.092	-0.222
-474.274	-152.422	-0.361	0.026
-473.259	-81.443	0.212	0.070
-472.245	800.000	-0.136	0.448
-471.230	-101.524	0.231	0.056
-470.216	7.457	-0.283	0.211
-469.201	-30.621	0.273	-0.154
-468.186	-12.685	0.115	0.075
-467.172	-8.344	-0.054	0.036
-466.157	-87.351	0.076	0.023
-465.143	66.917	-0.180	-0.183
-464.128	-200.000	0.017	-0.168
-463.113	-200.000	-0.023	-0.140
-462.099	322.896	0.146	-0.277
-461.084	709.330	0.126	-0.331
-460.070	37.561	0.215	0.190
-459.055	-21.557	0.219	-0.133
-458.040	800.000	0.014	0.043
-457.026	99.268	-0.181	-0.208
-456.011	-52.181	0.195	0.090
-454.997	-200.000	0.017	0.081
-453.982	-27.114	-0.213	-0.124
-452.968	200.641	-0.016	-0.025
-451.953	-200.000	0.026	0.326
-450.938	-43.318	-0.328	-0.166
-449.924	-200.000	-0.083	0.455
-448.909	-200.000	-0.032	0.331
-447.895	-150.289	-0.071	0.005
-446.880	-12.233	-0.242	0.158
-445.865	-85.635	-0.146	0.045
-444.851	-57.471	0.232	-0.101
-443.836	148.556	0.145	-0.195
-442.822	-145.723	-0.230	0.020
-441.807	732.047	0.047	0.124
-440.792	-72.734	0.262	-0.096
-439.778	26.260	-0.115	-0.096
-438.763	800.000	0.028	-0.115
-437.749	800.000	-0.102	-0.303
-436.734	-85.237	0.380	0.118
-435.719	-44.385	0.091	0.046
-434.705	465.717	-0.039	0.088
-433.690	-110.086	-0.238	-0.050
-432.676	-179.389	-0.148	0.003
-431.661	124.950	-0.261	0.328
-430.646	-78.221	0.232	0.080
-429.632	-65.232	0.098	-0.039
-428.617	-30.690	-0.234	-0.132
-427.603	-144.895	-0.241	0.022
-426.588	800.000	0.127	0.362
-425.573	-200.000	-0.013	0.184
-424.559	195.930	0.103	-0.156
-423.544	-66.188	0.278	0.110
-422.530	-56.353	0.099	-0.044
-421.515	134.096	0.089	-0.115
-420.500	800.000	0.024	-0.098
-419.486	29.144	-0.287	-0.243
-418.471	15.231	0.176	0.137
-417.457	-87.136	0.082	0.025
-416.442	22.213	-0.103	-0.084
-415.428	800.000	0.087	-0.373
-414.413	-9.371	-0.123	0.082
-413.398	-28.256	-0.115	-0.066
-412.384	-157.412	0.267	-0.016
-411.369	-3.004	-0.078	0.055
-410.355	-163.863	-0.319	-0.015
-409.340	1.159	0.228	-0.163
-408.325	-63.089	-0.268	-0.110
-407.311	113.170	0.060	0.073
-406.296	-24.947	-0.112	-0.066
-405.282	176.989	0.131	-0.189
-404.267	800.000	-0.058	0.168
-403.252	-200.000	0.239	0.001
-402.238	-136.979	-0.121	-0.014
-401.223	52.573	-0.085	0.081
-400.209	-69.955	-0.127	-0.048
-399.194	800.000	0.040	-0.128
-398.179	463.605	0.118	0.263
-397.165	800.000	-0.096	0.323
-396.150	-72.730	-0.245	0.090
-395.136	-26.341	-0.232	0.135
-394.121	-200.000	-0.000	-0.137
-393.106	-3.636	-0.280	-0.194
-392.092	-80.579	-0.014	0.005
-391.077	643.533	0.125	-0.316
-390.063	-98.148	-0.101	-0.026
-389.048	-161.700	0.190	-0.010
-388.033	800.000	0.032	0.089
-387.019	173.044	0.170	0.243
-386.004	-78.793	-0.165	-0.056
-384.990	-69.508	0.279	-0.106
-383.975	-200.000	0.027	0.201
-382.960	616.307	0.065	0.163
-381.946	800.000	0.070	0.231
-380.931	160.844	-0.016	0.022
-379.917	248.133	0.037	-0.062
-378.902	-200.000	0.023	0.120
-377.888	133.645	-0.114	0.147
-376.873	395.229	-0.096	-0.198
-375.858	-200.000	-0.009	-0.157
-374.844	-77.030	-0.182	0.063
-373.829	-167.394	0.438	0.017
-372.815	-107.994	0.128	0.028
-371.800	347.528	-0.048	-0.094
-370.785	800.000	0.070	0.297
-369.771	79.845	-0.121	0.129
-368.756	294.296	0.164	0.299
-367.742	-200.000	0.012	0.103
-366.727	800.000	-0.039	-0.116
-365.712	164.848	0.103	0.144
-364.698	340.854	-0.057	0.110
-363.683	64.902	-0.117	-0.118
-362.669	-121.655	-0.083	0.014
-361.654	473.709	0.151	-0.339
-360.639	265.663	0.201	0.349
-359.625	-82.964	0.239	0.077
-358.610	618.196	0.057	0.142
-357.596	142.845	-0.129	0.171
-356.581	-72.794	0.084	-0.031
-355.566	-57.747	-0.331	0.144
-354.552	594.650	-0.062	0.152
-353.537	-14.584	-0.276	-0.176
-352.523	-200.000	0.028	0.499
-351.508	800.000	-0.030	0.106
-350.493	-9.630	0.015	-0.010
-349.479	38.294	0.073	-0.065
-348.464	480.303	0.037	-0.084
-347.450	-182.602	-0.253	0.005
-346.435	518.292	-0.070	0.163
-345.420	-11.852	0.150	0.098
-344.406	800.000	-0.069	0.230
-343.391	39.575	-0.133	0.118
-342.377	207.909	0.142	0.220
-341.362	512.463	-0.045	-0.103
-340.348	-110.482	0.107	0.022
-339.333	-75.362	-0.142	0.050
-338.318	800.000	-0.056	0.198
-337.304	-104.255	-0.138	-0.032
-336.289	-132.675	0.256	0.033
-335.275	-47.204	-0.222	-0.107
-334.260	800.000	0.036	-0.124
-333.245	-59.494	0.126	-0.054
-332.231	-38.310	0.100	0.053
-331.216	590.711	-0.129	-0.315
-330.202	435.015	-0.108	-0.234
-329.187	-97.412	-0.349	0.090
-328.172	-144.891	0.165	0.015
-327.158	-200.000	-0.001	-0.118
-326.143	-101.129	0.331	-0.080
-325.129	800.000	0.126	0.373
-324.114	800.000	-0.169	-0.545
-323.099	-71.344	-0.158	-0.059
-322.085	154.548	-0.070	0.096
-321.070	56.024	-0.077	-0.074
-320.056	-111.034	-0.436	0.089
-319.041	-200.000	-0.014	-0.350
-318.026	-177.231	0.308	-0.008
-317.012	-59.898	-0.400	0.170
-315.997	-3.280	-0.335	0.232
-314.983	450.288	0.086	-0.188
-313.968	-104.009	-0.330	-0.076
-312.953	-104.632	0.130	-0.030
-311.939	-142.598	-0.256	0.025
-310.924	38.080	0.029	-0.025
-309.910	490.835	-0.101	0.230
-308.895	-107.775	0.228	0.049
-307.880	-149.678	0.209	0.016
-306.866	36.508	-0.254	0.222
-305.851	0.258	-0.159	0.113
-304.837	-59.127	-0.081	0.035
-303.822	-155.412	0.256	0.016
-302.807	44.042	0.164	-0.149
-301.793	127.920	0.261	0.329
-300.778	800.000	-0.073	0.233
-299.764	54.080	0.207	-0.197
-298.749	800.000	0.036	0.134
-297.735	-9.970	-0.373	0.246
-296.720	47.184	0.198	0.183
-295.705	-37.917	-0.269	0.142
-294.691	-96.306	0.421	0.111
-293.676	159.166	-0.220	-0.304
-292.662	-200.000	-0.067	-0.478
-291.647	96.390	0.087	-0.098
-290.632	-200.000	0.027	-0.317
-289.618	165.438	0.052	0.073
-288.603	10.596	0.101	-0.076
-287.589	21.944	0.144	0.116
-286.574	800.000	0.031	0.111
-285.559	-51.232	-0.237	-0.110
-284.545	800.000	0.037	0.151
-283.530	-144.947	-0.149	0.013
-282.516	-112.010	0.362	0.072
-281.501	-33.306	0.037	-0.020
-280.486	-200.000	0.028	-0.182
-279.472	146.349	0.076	-0.102
-278.457	800.000	0.160	0.565
-277.443	-125.604	0.226	0.034
-276.428	-38.183	-0.304	0.160
-275.413	-91.625	0.063	-0.018
-274.399	800.000	-0.064	-0.212
-273.384	-200.000	-0.004	-0.179
-272.370	375.734	-0.165	0.334
-271.355	259.133	0.126	0.215
-270.340	574.637	0.126	0.304
-269.326	44.798	0.165	0.151
-268.311	200.965	0.146	0.223
-267.297	60.803	-0.304	-0.299
-266.282	-58.968	0.252	-0.108
-265.267	-200.000	-0.053	-0.279
-264.253	-133.861	-0.053	-0.007
-263.238	15.685	0.082	0.064
-262.224	-15.765	0.056	-0.035
-261.209	9.939	0.024	0.018
-260.195	-5.643	0.013	0.009
-259.180	-36.215	-0.048	-0.026
-258.165	800.000	0.085	0.276
-257.151	-200.000	0.019	0.085
-256.136	-20.098	-0.234	-0.143
-255.122	37.354	-0.072	0.063
-254.107	-79.632	0.239	-0.080
-253.092	800.000	-0.053	-0.190
-252.078	-200.000	-0.134	0.000
-251.063	-111.260	0.374	-0.076
-250.049	193.102	0.145	-0.218
-249.034	-106.236	0.503	0.112
-248.019	665.433	-0.027	-0.068
-247.005	51.824	0.198	0.187
-245.990	-21.723	0.077	0.046
-244.976	-116.231	-0.213	-0.039
-243.961	-34.082	-0.158	-0.086
-242.946	-92.619	-0.232	0.064
-241.932	-73.818	0.231	0.083
-240.917	10.393	-0.070	0.053
-239.903	-91.170	-0.082	0.023
-238.888	258.638	-0.154	0.262
-237.873	108.985	-0.142	0.168
-236.859	-87.466	-0.377	0.113
-235.844	-59.496	0.122	-0.052
-234.830	215.875	0.061	-0.096
-233.815	-31.544	-0.171	0.095
-232.800	-200.000	0.001	-0.145
-231.786	-200.000	0.035	-0.202
-230.771	355.513	0.142	0.279
-229.757	369.040	-0.079	0.157
-228.742	508.595	0.017	-0.038
-227.727	-200.000	0.032	0.221
-226.713	-166.631	0.127	-0.005
-225.698	-72.291	0.273	0.100
-224.684	-129.459	0.196	0.027
-223.669	305.359	0.086	0.158
-222.655	-143.601	0.165	0.016
-221.640	-200.000	-0.004	0.110
-220.625	329.772	-0.118	-0.225
-219.611	-20.395	-0.072	0.044
-218.596	-125.501	-0.313	0.047
-217.582	163.434	-0.241	0.336
-216.567	21.244	0.183	0.147
-215.552	-162.529	0.164	0.008
-214.538	62.426	0.111	-0.109
-213.523	800.000	0.050	-0.168
-212.509	-200.000	0.000	0.109
-211.494	-200.000	0.033	0.199
-210.479	-100.292	0.288	-0.071
-209.465	-30.597	-0.258	-0.145
-208.450	800.000	0.030	-0.092
-207.436	-194.936	0.076	0.001
-206.421	800.000	0.023	0.093
-205.406	248.744	0.114	0.191
-204.392	-63.345	0.143	-0.058
-203.377	125.559	-0.140	-0.174
-202.363	-127.759	-0.182	-0.026
-201.348	-54.549	0.293	-0.131
-200.333	-49.640	-0.380	-0.179
-199.319	246.362	-0.062	-0.103
-198.304	152.200	0.381	0.513
-197.290	62.458	-0.179	0.177
-196.275	39.072	-0.099	0.088
-195.260	-23.776	-0.184	-0.109
-194.246	-89.115	-0.181	-0.053
-193.231	-10.030	-0.042	0.028
-192.217	800.000	-0.023	-0.072
-191.202	-77.011	-0.037	0.013
-190.187	-200.000	0.002	0.044
-189.173	-200.000	0.023	-0.110
-188.158	4.011	0.275	-0.199
-187.144	58.827	-0.296	0.287
-186.129	63.703	-0.213	0.211
-185.114	160.291	-0.120	0.165
-184.100	57.737	0.140	-0.135
-183.085	143.139	-0.016	-0.022
-182.071	36.277	0.172	-0.149
-181.056	-1.249	-0.141	0.098
-180.042	-62.116	0.145	0.060
-179.027	5.786	-0.174	0.127
-178.012	124.576	0.238	-0.295
-176.998	-117.347	-0.283	0.051
-175.983	-19.409	-0.099	0.060
-174.969	53.320	0.138	-0.131
-173.954	-101.508	-0.240	0.058
-172.939	-200.000	0.039	0.321
-171.925	-90.001	0.107	0.031
-170.910	-52.357	-0.172	0.079
-169.896	10.245	0.094	0.071
-168.881	-48.670	0.260	-0.123
-167.866	603.999	-0.046	0.113
-166.852	193.340	-0.251	-0.375
-165.837	119.578	-0.110	-0.135
-164.823	207.825	-0.168	-0.259
-163.808	416.198	0.132	0.277
-162.793	401.860	-0.133	-0.276
-161.779	-200.000	0.040	-0.254
-160.764	-122.715	0.260	0.042
-159.750	800.000	0.126	-0.425
-158.735	119.595	0.133	0.163
-157.720	691.522	-0.102	0.262
-156.706	-46.248	0.168	0.081
-155.691	267.440	0.138	-0.239
-154.677	-80.587	-0.025	0.008
-153.662	-200.000	0.010	-0.143
-152.647	393.913	-0.055	-0.112
-151.633	484.577	0.074	0.165
-150.618	142.245	-0.138	0.180
-149.604	-194.909	-0.173	0.001
-148.589	-12.257	-0.034	-0.022
-147.574	-26.793	0.361	0.208
-146.560	41.880	0.120	0.107
-145.545	-200.000	0.032	0.454
-144.531	-200.000	-0.045	-0.217
-143.516	171.155	-0.182	0.257
-142.502	800.000	0.054	0.189
-141.487	-41.162	-0.101	0.051
-140.472	-145.082	0.083	0.007
-139.458	-37.166	0.283	0.149
-138.443	-95.245	-0.442	-0.117
-137.429	-200.000	-0.004	0.177
-136.414	-116.104	-0.044	-0.008
-135.399	-121.291	-0.199	0.033
-134.385	410.841	0.161	-0.337
-133.370	-98.210	-0.160	-0.041
-132.356	-35.808	-0.172	0.092
-131.341	-200.000	-0.027	-0.222
-130.326	-86.555	0.304	0.092
-129.312	-41.394	0.216	0.109
-128.297	49.745	-0.044	0.041
-127.283	-95.309	-0.243	-0.064
-126.268	-32.130	-0.116	-0.064
-125.253	800.000	0.153	-0.521
-124.239	-95.974	-0.156	0.041
-123.224	190.885	0.154	0.229
-122.210	76.140	0.341	0.356
-121.195	-49.970	0.229	0.107
-120.180	-22.523	0.151	-0.090
-119.166	262.221	-0.125	-0.214
-118.151	46.756	0.208	0.190
-117.137	155.771	-0.272	-0.370
-116.122	579.604	0.072	0.174
-115.107	800.000	-0.072	-0.197
-114.093	711.420	-0.037	-0.097
-113.078	89.027	-0.286	-0.314
-112.064	193.052	-0.142	-0.211
-111.049	-200.000	0.034	-0.162
-110.034	181.450	-0.050	0.072
-109.020	308.895	0.030	0.055
-108.005	28.479	-0.214	0.178
-106.991	-96.019	0.243	-0.064
-105.976	-200.000	0.009	0.053
-104.962	-8.042	0.104	0.069
-103.947	336.269	0.042	0.080
-102.932	61.992	-0.132	-0.129
-101.918	-200.000	-0.022	0.256
-100.903	42.229	-0.145	-0.130
-99.889	336.767	0.150	-0.287
-98.874	-37.867	0.110	-0.058
-97.859	-158.678	-0.134	0.008
-96.845	-200.000	-0.009	0.048
-95.830	176.930	-0.031	0.045
-94.816	-16.012	0.128	0.080
-93.801	-200.000	0.035	-0.265
-92.786	145.300	0.193	0.254
-91.772	-90.536	-0.043	0.012
-90.757	-179.030	0.403	-0.009
-89.743	-200.000	0.060	-0.272
-88.728	13.656	-0.156	-0.119
-87.713	-120.428	0.265	-0.044
-86.699	-200.000	-0.030	-0.162
-85.684	220.849	-0.239	-0.378
-84.670	-200.000	0.073	-0.331
-83.655	-15.385	0.178	0.112
-82.640	-59.183	0.221	-0.094
-81.626	-85.261	0.261	-0.080
-80.611	-200.000	-0.033	-0.199
-79.597	491.646	-0.144	-0.324
-78.582	378.735	-0.171	-0.345
-77.567	800.000	-0.030	0.103
-76.553	10.072	0.215	-0.160
-75.538	-200.000	0.024	-0.213
-74.524	-63.764	-0.137	0.055
-73.509	-200.000	-0.025	-0.246
-72.494	-109.266	-0.238	0.050
-71.480	-159.000	-0.019	-0.001
-70.465	-200.000	-0.072	0.361
-69.451	800.000	0.159	0.517
-68.436	266.455	-0.158	-0.271
-67.422	-80.381	-0.319	0.105
-66.407	-58.008	-0.132	0.056
-65.392	-105.289	0.160	0.036
-64.378	14.237	0.247	-0.189
-63.363	-9.058	-0.205	0.134
-62.349	14.481	-0.066	0.051
-61.334	187.275	-0.667	-0.977
-60.319	-10.827	0.421	0.273
-59.305	209.291	-0.720	-1.108
-58.290	229.442	0.510	0.817
-57.276	525.110	0.628	1.453
-56.261	-200.000	95.731	594.000
-55.246	560.530	1366.750	3243.327
-54.232	161.493	2553.541	3508.364
-53.217	106.594	2265.772	2639.253
-52.203	41.183	1893.718	1680.617
-51.188	35.040	1683.684	1447.878
-50.173	32.440	1639.163	1390.353
-49.159	50.131	1685.784	1562.717
-48.144	51.631	1702.515	1589.391
-47.130	34.750	1662.759	1427.486
-46.115	31.939	1648.704	1394.502
-45.100	31.797	1644.107	1389.506
-44.086	31.756	1641.288	1386.765
-43.071	31.833	1638.415	1384.848
-42.057	31.670	1636.450	1381.934
-41.042	31.673	1634.618	1380.350
-40.027	31.735	1632.436	1378.908
-39.013	31.650	1630.750	1376.811
-37.998	31.645	1629.377	1375.560
-36.984	31.695	1627.814	1374.548
-35.969	31.764	1626.429	1373.833
-34.954	31.872	1623.982	1372.498
-33.940	31.810	1622.603	1370.825
-32.925	31.790	1621.258	1369.494
-31.911	31.744	1619.355	1367.497
-30.896	31.834	1617.513	1366.542
-29.881	31.655	1616.413	1364.253
-28.867	31.717	1614.496	1363.034
-27.852	31.747	1613.097	1362.014
-26.838	31.886	1611.251	1361.411
-25.823	31.781	1610.204	1359.711
-24.809	31.873	1608.452	1358.847
-23.794	31.814	1607.221	1357.326
-22.779	31.851	1605.597	1356.165
-21.765	31.863	1603.866	1354.732
-20.750	31.843	1602.284	1353.199
-19.736	31.812	1601.563	1352.317
-18.721	31.928	1599.424	1351.291
-17.706	31.734	1598.280	1348.875
-16.692	31.913	1596.517	1348.624
-15.677	31.783	1595.504	1346.774
-14.663	31.923	1594.178	1346.612
-13.648	31.810	1592.779	1344.565
-12.633	31.757	1591.454	1343.009
-11.619	31.824	1589.828	1342.064
-10.604	31.748	1588.656	1340.482
-9.590	31.839	1586.892	1339.585
-8.575	31.900	1585.305	1338.633
-7.560	31.903	1584.442	1337.872
-6.546	31.811	1583.355	1336.247
-5.531	31.814	1582.129	1335.181
-4.517	31.843	1580.596	1334.038
-3.502	31.876	1579.722	1333.482
-2.487	32.011	1577.832	1332.791
-1.473	31.595	1566.866	1320.543
-0.458	29.212	1547.553	1287.581
0.556	25.800	1549.514	1258.635
1.571	23.904	1572.502	1263.737
2.586	23.520	1585.970	1271.693
3.600	20.454	1531.067	1206.306
4.615	11.083	1419.639	1057.800
5.629	3.057	1355.314	959.831
6.644	1.742	1347.470	946.030
7.659	1.742	1345.814	944.779
8.673	1.664	1344.774	943.486
9.688	1.532	1342.895	941.264
10.702	1.298	1339.947	937.673
11.717	4.761	1346.660	963.756
12.731	14.808	1366.096	1040.419
13.746	23.559	1380.294	1105.941
14.761	25.836	1383.898	1122.943
15.775	26.270	1383.625	1125.328
16.790	26.289	1383.245	1125.031
17.804	26.396	1382.757	1125.203
18.819	26.645	1382.180	1126.184
19.834	26.757	1381.760	1126.438
20.848	26.777	1380.876	1125.741
21.863	26.857	1380.085	1125.492
22.877	26.866	1378.830	1124.428
23.892	26.693	1378.540	1123.021
24.907	26.863	1377.493	1123.116
25.921	26.799	1376.485	1121.799
26.936	26.839	1375.497	1121.146
27.950	26.789	1374.370	1119.815
28.965	26.829	1373.164	1118.984
29.980	26.714	1372.083	1117.297
30.994	26.817	1370.448	1116.495
32.009	26.797	1369.670	1115.645
33.023	26.736	1368.795	1114.453
34.038	26.776	1367.583	1113.617
35.053	26.732	1366.562	1112.417
36.067	26.790	1365.275	1111.626
37.082	26.758	1364.729	1110.887
38.096	26.747	1363.798	1109.963
39.111	26.815	1362.749	1109.429
40.126	26.769	1362.587	1108.916
41.140	26.833	1361.502	1108.324
42.155	26.841	1361.352	1108.155
43.169	26.720	1361.692	1107.593
44.184	26.746	1361.361	1107.387
45.199	26.743	1360.680	1106.717
46.213	26.851	1360.174	1106.867
47.228	26.809	1359.080	1105.622
48.242	26.863	1357.526	1104.584
49.257	26.782	1356.421	1103.095
50.271	26.836	1354.836	1102.041
51.286	26.705	1353.977	1100.448
52.301	26.761	1352.625	1099.588
53.315	26.790	1351.936	1099.110
54.330	26.810	1350.866	1098.260
55.344	26.771	1349.965	1097.195
56.359	26.796	1349.124	1096.569
57.374	26.878	1347.895	1095.968
58.388	26.810	1347.521	1095.155
59.403	26.751	1347.384	1094.589
60.417	26.788	1346.438	1093.949
61.432	26.797	1345.951	1093.507
62.447	26.795	1344.711	1092.394
63.461	26.687	1344.098	1091.149
64.476	26.844	1342.617	1090.792
65.490	26.839	1341.733	1089.950
66.505	26.776	1340.138	1088.179
67.520	26.844	1339.132	1087.673
68.534	26.755	1338.129	1086.231
69.549	26.782	1337.362	1085.672
70.563	26.727	1336.434	1084.495
71.578	26.875	1335.172	1084.261
72.593	26.893	1334.672	1083.865
73.607	26.782	1334.078	1082.626
74.622	26.902	1332.827	1082.226
75.636	26.732	1332.644	1080.972
76.651	26.814	1331.589	1080.508
77.666	26.734	1331.817	1080.117
78.680	26.874	1330.921	1080.130
79.695	26.751	1330.025	1078.579
80.709	26.686	1329.457	1077.633
81.724	26.749	1328.660	1077.267
82.739	26.847	1327.294	1076.644
83.753	26.812	1326.527	1075.720
84.768	26.813	1325.583	1074.868
85.782	26.919	1324.146	1074.236
86.797	26.800	1323.486	1072.898
87.812	26.834	1322.012	1071.809
88.826	26.738	1321.231	1070.513
89.841	26.791	1320.101	1069.819
90.855	26.807	1319.207	1069.093
91.870	26.826	1319.007	1068.950
92.884	26.896	1317.946	1068.407
93.899	26.826	1317.203	1067.297
94.914	26.761	1316.038	1065.877
95.928	26.885	1315.230	1065.857
96.943	26.917	1314.497	1065.359
97.957	26.861	1313.900	1064.450
98.972	26.836	1313.553	1063.927
99.987	26.928	1312.093	1063.192
101.001	26.882	1311.276	1062.161
102.016	26.951	1310.125	1061.540
103.030	26.996	1309.185	1060.946
104.045	26.852	1308.978	1059.848
105.060	26.953	1307.579	1059.210
106.074	26.867	1306.832	1058.011
107.089	27.015	1305.525	1057.721
108.103	26.888	1304.827	1056.319
109.118	26.908	1303.705	1055.435
110.133	26.866	1302.334	1053.989
111.147	27.054	1301.081	1053.971
112.162	26.980	1300.255	1052.780
113.176	26.925	1299.184	1051.501
114.191	26.907	1298.325	1050.609
115.206	26.918	1297.381	1049.814
116.220	26.864	1296.250	1048.496
117.235	26.880	1295.501	1047.892
118.249	26.970	1294.596	1047.581
119.264	26.994	1293.610	1046.829
120.279	26.894	1293.180	1045.815
121.293	27.085	1292.285	1046.096
122.308	26.947	1291.725	1044.759
123.322	27.045	1290.657	1044.368
124.337	26.929	1290.144	1043.194
125.352	26.958	1289.252	1042.547
126.366	27.003	1288.234	1041.889
127.381	26.952	1287.716	1041.085
128.395	27.085	1286.491	1040.764
129.410	26.990	1285.357	1039.209
130.424	27.040	1285.112	1039.206
131.439	26.993	1284.175	1038.088
132.454	26.849	1283.856	1036.912
133.468	27.012	1282.551	1036.700
134.483	27.027	1282.465	1036.625
135.497	26.984	1281.608	1035.593
136.512	26.995	1280.300	1034.511
137.527	26.935	1279.286	1033.259
138.541	27.112	1277.477	1032.706
139.556	26.965	1276.907	1031.320
140.570	26.925	1276.070	1030.329
141.585	27.007	1274.595	1029.510
142.600	26.987	1273.851	1028.703
143.614	26.938	1273.137	1027.759
144.629	26.871	1272.635	1026.882
145.643	27.007	1270.612	1025.928
146.658	26.927	1269.828	1024.755
147.673	26.957	1269.188	1024.317
148.687	26.925	1267.958	1023.053
149.702	26.942	1266.969	1022.259
150.716	26.986	1266.070	1021.690
151.731	26.980	1264.892	1020.615
152.746	27.044	1263.906	1020.088
153.760	27.032	1262.951	1019.163
154.775	27.083	1261.911	1018.518
155.789	27.005	1261.500	1017.657
156.804	27.009	1260.477	1016.765
157.819	27.118	1259.635	1016.609
158.833	27.115	1258.790	1015.816
159.848	27.042	1258.338	1014.956
160.862	27.071	1257.569	1014.409
161.877	27.127	1256.429	1013.710
162.892	27.063	1255.724	1012.696
163.906	27.095	1255.147	1012.321
164.921	27.130	1254.239	1011.690
165.935	27.113	1253.544	1010.947
166.950	27.176	1253.016	1010.781
167.964	27.211	1252.254	1010.272
168.979	27.149	1251.862	1009.523
169.994	27.147	1251.391	1009.041
171.008	27.180	1250.401	1008.336
172.023	27.109	1249.842	1007.403
173.037	27.184	1248.914	1006.982
174.052	27.095	1248.641	1006.183
175.067	27.209	1247.760	1006.013
176.081	27.099	1247.290	1004.933
177.096	27.103	1246.332	1004.099
178.110	26.985	1245.893	1003.005
179.125	27.169	1244.024	1002.426
180.140	27.234	1243.138	1001.982
181.154	27.180	1241.843	1000.551
182.169	27.124	1241.033	999.500
183.183	27.152	1240.339	999.009
184.198	27.274	1238.937	998.463
185.213	27.226	1238.066	997.404
186.227	27.240	1237.531	996.966
187.242	27.188	1236.921	996.102
188.256	27.310	1235.417	995.468
189.271	27.167	1235.095	994.338
190.286	27.226	1234.108	993.777
191.300	27.211	1233.628	993.219
192.315	27.050	1233.227	991.932
193.329	27.092	1233.355	992.176
194.344	27.195	1232.499	991.963
195.359	27.171	1232.354	991.625
196.373	27.159	1231.243	990.580
197.388	27.213	1231.064	990.641
198.402	27.086	1230.965	989.785
199.417	27.263	1230.193	990.038
200.432	27.219	1229.523	989.172
201.446	27.190	1229.017	988.522
202.461	27.255	1227.806	987.810
203.475	27.185	1227.957	987.465
204.490	27.148	1226.280	985.831
205.504	27.181	1225.785	985.522
206.519	27.242	1224.527	984.751
207.534	27.361	1223.063	984.135
208.548	27.267	1222.554	983.128
209.563	27.283	1222.051	982.721
210.577	27.282	1221.101	981.866
211.592	27.339	1220.768	981.818
212.607	27.229	1219.842	980.397
213.621	27.405	1218.601	980.257
214.636	27.345	1218.330	979.630
215.650	27.299	1217.265	978.439
216.665	27.275	1216.179	977.350
217.680	27.316	1215.719	977.114
218.694	27.364	1215.366	977.004
219.709	27.326	1214.075	975.678
220.723	27.326	1213.547	975.163
221.738	27.282	1212.839	974.274
222.753	27.276	1211.970	973.456
223.767	27.238	1211.718	972.968
224.782	27.438	1210.716	973.146
225.796	27.474	1210.215	972.848
226.811	27.384	1210.025	972.130
227.826	27.486	1209.182	971.908
228.840	27.320	1209.158	970.916
229.855	27.442	1207.693	970.308
230.869	27.353	1207.610	969.677
231.884	27.452	1206.971	969.606
232.899	27.412	1205.776	968.351
233.913	27.479	1205.289	968.226
234.928	27.379	1205.059	967.426
235.942	27.501	1204.372	967.435
236.957	27.446	1204.017	966.772
237.972	27.466	1202.799	965.819
238.986	27.592	1202.059	965.803
240.001	27.524	1201.857	965.197
241.015	27.584	1200.778	964.563
242.030	27.698	1199.465	964.026
243.045	27.642	1199.173	963.409
244.059	27.614	1198.519	962.651
245.074	27.610	1197.612	961.817
246.088	27.643	1196.896	961.332
247.103	27.649	1196.122	960.654
248.117	27.656	1195.138	959.818
249.132	27.599	1194.836	959.188
250.147	27.693	1194.222	959.105
251.161	27.776	1192.932	958.422
252.176	27.691	1192.672	957.683
253.190	27.701	1192.263	957.320
254.205	27.704	1191.425	956.581
255.220	27.744	1190.541	955.995
256.234	27.780	1190.374	955.961
257.249	27.710	1189.762	955.022
258.263	27.795	1188.886	954.676
259.278	27.732	1188.709	954.123
260.293	27.640	1188.297	953.224
261.307	27.736	1187.577	953.065
262.322	27.686	1187.122	952.354
263.336	27.642	1186.252	951.342
264.351	27.789	1185.518	951.434
265.366	27.648	1185.524	950.623
266.380	27.753	1184.119	949.956
267.395	27.803	1183.927	949.982
268.409	27.756	1183.409	949.234
269.424	27.886	1182.293	948.933
270.439	27.865	1182.179	948.647
271.453	27.776	1181.356	947.439
272.468	27.773	1180.689	946.807
273.482	27.751	1179.756	945.863
274.497	27.879	1179.451	946.195
275.512	27.854	1179.040	945.654
276.526	27.888	1178.050	944.950
277.541	27.772	1177.760	944.036
278.555	28.035	1176.263	944.108
279.570	27.944	1175.861	943.231
280.585	27.829	1175.363	942.160
281.599	27.943	1174.309	941.818
282.614	27.873	1173.716	940.897
283.628	27.901	1172.661	940.114
284.643	27.890	1171.790	939.276
285.657	27.821	1170.750	938.001
286.672	27.877	1170.164	937.739
287.687	27.877	1169.354	937.005
288.701	28.021	1168.680	937.122
289.716	28.075	1168.009	936.775
290.730	27.996	1167.595	935.955
291.745	27.888	1167.201	935.007
292.760	27.931	1166.931	934.925
293.774	28.022	1166.186	934.714
294.789	28.223	1165.153	934.828
295.803	28.072	1165.206	934.016
296.818	28.028	1164.401	933.063
297.833	28.108	1163.362	932.556
298.847	28.117	1162.926	932.173
299.862	28.076	1162.087	931.208
300.876	28.138	1161.139	930.681
301.891	28.172	1160.790	930.493
302.906	28.170	1160.398	930.085
303.920	28.151	1159.746	929.382
304.935	28.137	1158.902	928.553
305.949	28.101	1157.875	927.467
306.964	28.155	1157.581	927.422
307.979	28.202	1157.091	927.187
308.993	28.145	1156.568	926.396
310.008	28.218	1155.642	925.941
311.022	28.194	1154.540	924.855
312.037	28.131	1154.087	924.091
313.052	28.191	1153.137	923.556
314.066	28.153	1152.590	922.843
315.081	28.148	1152.011	922.271
316.095	28.302	1151.102	922.239
317.110	28.192	1150.652	921.240
318.125	28.293	1150.040	921.177
319.139	28.210	1149.517	920.262
320.154	28.329	1148.691	920.114
321.168	28.334	1148.298	919.742
322.183	28.274	1147.574	918.782
323.197	28.236	1147.704	918.615
324.212	28.249	1146.741	917.827
325.227	28.278	1146.158	917.424
326.241	28.304	1145.905	917.270
327.256	28.450	1144.764	917.007
328.270	28.282	1144.006	915.479
329.285	28.235	1143.479	914.743
330.300	28.455	1142.040	914.610
331.314	28.345	1141.565	913.599
332.329	28.244	1141.278	912.786
333.343	28.422	1139.848	912.446
334.358	28.545	1139.232	912.483
335.373	28.404	1138.885	911.425
336.387	28.518	1138.228	911.384
337.402	28.594	1137.155	910.823
338.416	28.552	1136.599	910.086
339.431	28.509	1136.285	909.539
340.446	28.536	1135.473	908.944
341.460	28.569	1135.279	908.874
342.475	28.599	1134.145	908.032
343.489	28.560	1133.188	906.996
344.504	28.586	1132.329	906.351
345.519	28.587	1131.613	905.704
346.533	28.539	1131.401	905.220
347.548	28.664	1130.275	904.856
348.562	28.736	1129.189	904.258
349.577	28.575	1128.947	903.194
350.592	28.598	1127.999	902.467
351.606	28.439	1127.560	901.254
352.621	28.722	1126.621	901.815
353.635	28.615	1126.374	901.010
354.650	28.705	1125.300	900.516
355.665	28.651	1125.304	900.171
356.679	28.712	1124.714	899.919
357.694	28.694	1124.013	899.190
358.708	28.789	1122.984	898.752
359.723	28.761	1122.247	897.947
360.738	28.589	1121.915	896.759
361.752	28.674	1121.496	896.762
362.767	28.701	1121.059	896.466
363.781	28.747	1120.206	895.931
364.796	28.703	1119.635	895.180
365.810	28.834	1119.270	895.446
366.825	28.840	1118.411	894.709
367.840	28.796	1118.027	894.106
368.854	28.821	1117.645	893.844
369.869	28.892	1116.928	893.538
370.883	28.895	1116.093	892.805
371.898	28.759	1115.450	891.549
372.913	28.868	1114.837	891.512
373.927	28.989	1114.405	891.675
374.942	28.937	1113.754	890.820
375.956	28.871	1113.322	890.080
376.971	29.009	1112.730	890.196
377.986	28.939	1112.122	889.288
379.000	29.031	1111.731	889.344
380.015	29.007	1111.445	888.918
381.029	28.966	1110.458	887.852
382.044	29.002	1109.757	887.388
383.059	29.058	1108.977	886.957
384.073	28.966	1108.748	886.253
385.088	28.905	1108.016	885.294
386.102	28.999	1107.188	885.004
387.117	29.170	1105.485	884.387
388.132	28.939	1105.404	883.135
389.146	29.107	1104.402	883.061
390.161	29.091	1104.123	882.683
391.175	29.015	1103.444	881.701
392.190	29.134	1102.560	881.486
393.205	29.057	1101.781	880.417
394.219	29.085	1101.437	880.197
395.234	29.173	1100.449	879.748
396.248	29.174	1099.599	878.995
397.263	29.233	1098.110	878.009
398.278	29.233	1098.113	877.935
399.292	29.222	1097.965	877.686
400.307	29.203	1097.250	876.947
401.321	29.232	1097.001	876.807
402.336	29.199	1095.831	875.641
403.350	29.262	1095.559	875.642
404.365	29.318	1094.363	874.875
405.380	29.330	1093.661	874.292
406.394	29.288	1093.169	873.622
407.409	29.336	1092.596	873.316
408.423	29.315	1091.714	872.433
409.438	29.306	1091.122	871.841
410.453	29.252	1090.596	871.088
411.467	29.352	1089.913	870.939
412.482	29.345	1089.055	870.144
413.496	29.529	1087.995	870.086
414.511	29.378	1088.090	869.372
415.526	29.438	1087.437	869.056
416.540	29.360	1087.141	868.376
417.555	29.428	1086.379	868.010
418.569	29.449	1086.182	867.875
419.584	29.442	1085.959	867.586
420.599	29.391	1085.441	866.858
421.613	103.755	1323.182	1460.371
422.628	96.541	1357.817	1460.461
