DTS Sentinel unit serial number:	SN413079Multiplexer serial number:	ORYXHardware model number:	OX4-SRSoftware version number:	ORYX F/W v4.00 Oryx Data Collector v3.7.2.0data status	okinstallation	princeton_trtdifferential loss correction	single-endedforward channel	channel 2reverse channel	N/Adate	2019/09/11time	00:57:11forward acquisition time	60.00reverse acquisition time	0.00gamma	496.2192k internal	0.2332k external	0.2332temperature offset calibration	0.9943default loss term (dB/km)	0.3790temperature slope calibration	1.0000multiplexer offset coefficient	1.0000multiplexer slope coefficient	1.0000fibre end	0.00T internal ref (°C)	29.14T ext. ref 1 (°C)	-0.30T ext. ref 2 (°C)	22.92length (m)	temperature (°C)	Stokes	anti-Stokes-747.200	-200.000	-0.006	0.134
-746.185	-141.975	0.276	0.028
-745.171	-200.000	0.011	0.250
-744.156	161.002	-0.066	0.093
-743.142	-200.000	-0.008	0.091
-742.127	800.000	-0.084	0.266
-741.112	527.773	-0.055	-0.131
-740.098	-104.998	-0.266	0.061
-739.083	31.917	0.156	-0.135
-738.069	244.622	0.192	-0.324
-737.054	-200.000	0.046	-0.331
-736.039	-0.301	-0.165	-0.118
-735.025	162.563	0.097	0.137
-734.010	-138.758	-0.333	0.037
-732.996	30.396	0.320	-0.275
-731.981	-162.655	-0.346	-0.017
-730.966	608.529	0.064	-0.162
-729.952	651.608	-0.131	-0.338
-728.937	800.000	-0.049	-0.184
-727.923	-85.347	-0.209	0.066
-726.908	371.822	0.075	-0.152
-725.894	239.855	0.036	0.060
-724.879	29.399	-0.061	0.052
-723.864	800.000	-0.035	0.123
-722.850	800.000	-0.023	0.092
-721.835	-4.925	-0.091	-0.063
-720.821	-50.299	0.114	-0.054
-719.806	-200.000	0.024	0.222
-718.791	-200.000	-0.012	0.150
-717.777	-13.456	0.248	0.162
-716.762	148.418	-0.022	0.030
-715.748	800.000	0.038	0.110
-714.733	800.000	-0.042	-0.184
-713.718	647.987	-0.105	-0.270
-712.704	51.483	-0.249	-0.238
-711.689	-78.006	0.142	0.049
-710.675	-1.222	0.286	-0.203
-709.660	-200.000	-0.193	-0.000
-708.645	-11.618	-0.016	0.011
-707.631	-31.953	-0.118	-0.066
-706.616	-86.690	-0.197	0.061
-705.602	-200.000	-0.007	0.102
-704.587	-61.240	0.061	0.026
-703.572	-200.000	0.035	0.187
-702.558	-200.000	-0.035	0.355
-701.543	597.045	0.138	-0.343
-700.529	-35.162	0.198	-0.108
-699.514	-200.000	0.027	-0.301
-698.499	800.000	0.028	0.117
-697.485	-79.787	-0.157	0.053
-696.470	-200.000	0.014	-0.092
-695.456	-200.000	0.032	-0.299
-694.441	800.000	-0.041	-0.150
-693.426	158.245	0.185	0.258
-692.412	-200.000	0.006	-0.320
-691.397	-97.916	0.068	0.018
-690.383	144.464	-0.030	0.041
-689.368	-110.446	-0.374	-0.078
-688.354	483.649	-0.045	-0.103
-687.339	-47.501	0.178	-0.087
-686.324	-42.198	0.311	-0.159
-685.310	-50.120	-0.384	-0.182
-684.295	178.528	0.105	-0.153
-683.281	-200.000	-0.014	0.126
-682.266	153.879	-0.319	0.440
-681.251	-7.379	-0.120	-0.081
-680.237	-137.820	-0.413	-0.046
-679.222	-38.324	0.242	0.129
-678.208	-47.531	-0.324	-0.158
-677.193	566.048	0.124	-0.301
-676.178	11.474	-0.229	-0.176
-675.164	239.248	0.163	-0.273
-674.149	0.018	-0.184	0.131
-673.135	800.000	0.054	-0.227
-672.120	-162.561	0.098	0.005
-671.105	-133.645	0.179	0.022
-670.091	-64.205	-0.280	-0.114
-669.076	523.251	0.018	-0.043
-668.062	-141.161	0.316	-0.032
-667.047	74.850	-0.082	-0.087
-666.032	53.270	0.196	-0.189
-665.018	-60.307	0.088	-0.037
-664.003	-13.889	-0.131	0.085
-662.989	-200.000	-0.035	-0.215
-661.974	783.553	-0.044	-0.120
-660.959	223.941	0.107	0.173
-659.945	-114.466	-0.149	-0.029
-658.930	166.769	0.158	0.225
-657.916	-200.000	-0.019	0.132
-656.901	-135.238	0.237	-0.029
-655.886	800.000	0.040	0.154
-654.872	-158.848	0.224	-0.013
-653.857	20.236	-0.351	0.284
-652.843	-200.000	-0.053	-0.237
-651.828	-200.000	-0.013	-0.104
-650.814	74.453	-0.170	0.179
-649.799	-122.830	0.298	0.048
-648.784	-61.895	-0.177	0.074
-647.770	-200.000	-0.028	0.131
-646.755	-162.431	0.417	0.021
-645.741	-124.086	-0.153	-0.024
-644.726	83.096	0.202	-0.220
-643.711	-160.989	-0.212	-0.011
-642.697	-200.000	0.029	-0.143
-641.682	618.429	-0.056	-0.142
-640.668	-2.260	-0.217	-0.153
-639.653	-33.685	0.099	-0.055
-638.638	-12.062	0.179	0.117
-637.624	321.646	0.148	0.283
-636.609	-71.744	-0.267	0.100
-635.595	54.627	-0.076	0.073
-634.580	-113.820	-0.056	0.011
-633.565	-62.293	0.110	0.046
-632.551	-181.550	0.241	0.005
-631.536	278.868	-0.065	0.116
-630.522	-52.494	0.144	0.067
-629.507	-153.718	0.096	0.007
-628.492	-113.514	-0.289	0.057
-627.478	28.972	-0.382	-0.325
-626.463	757.925	0.023	-0.062
-625.449	-104.761	-0.293	0.068
-624.434	-97.633	0.119	0.031
-623.419	-200.000	0.013	-0.161
-622.405	-30.932	-0.171	-0.097
-621.390	16.334	0.083	0.066
-620.376	379.994	0.020	0.040
-619.361	-95.380	-0.264	0.071
-618.346	52.164	-0.160	0.153
-617.332	-41.635	0.355	-0.182
-616.317	18.141	0.158	-0.126
-615.303	159.333	0.021	-0.030
-614.288	443.497	0.127	-0.279
-613.273	-19.336	0.232	0.144
-612.259	-157.481	0.410	-0.025
-611.244	-179.740	-0.256	-0.006
-610.230	-200.000	-0.025	-0.142
-609.215	-170.433	0.260	-0.009
-608.201	79.576	0.086	0.092
-607.186	506.989	-0.061	0.142
-606.171	-139.117	-0.105	0.011
-605.157	-82.690	-0.346	0.112
-604.142	-200.000	-0.036	-0.231
-603.128	-200.000	-0.023	-0.102
-602.113	113.739	-0.075	-0.091
-601.098	-200.000	0.002	-0.081
-600.084	-25.278	-0.296	0.176
-599.069	-18.446	0.074	-0.046
-598.055	306.963	0.169	-0.314
-597.040	207.628	-0.189	-0.296
-596.025	-200.000	0.014	0.130
-595.011	723.696	-0.071	-0.189
-593.996	-51.644	-0.107	-0.050
-592.982	-10.450	-0.361	-0.240
-591.967	-39.538	-0.294	-0.154
-590.952	-200.000	0.024	0.317
-589.938	-112.527	0.267	0.053
-588.923	-200.000	-0.009	0.225
-587.909	-124.910	0.215	-0.033
-586.894	338.879	-0.060	-0.116
-585.879	-43.848	0.224	-0.113
-584.865	606.255	-0.148	0.368
-583.850	156.351	0.081	-0.112
-582.836	-118.408	-0.313	-0.056
-581.821	104.952	0.231	0.272
-580.806	60.078	-0.068	0.067
-579.792	17.301	0.325	0.258
-578.777	-103.623	0.245	0.057
-577.763	-200.000	-0.008	-0.157
-576.748	-200.000	-0.004	0.028
-575.733	96.936	0.283	0.324
-574.719	-121.726	-0.208	0.034
-573.704	-33.261	-0.294	-0.163
-572.690	-70.150	0.173	0.066
-571.675	452.028	0.103	-0.228
-570.661	-81.330	0.181	-0.060
-569.646	-200.000	0.000	0.082
-568.631	154.935	-0.175	-0.241
-567.617	-67.494	-0.198	-0.077
-566.602	800.000	0.089	0.334
-565.588	-200.000	-0.071	0.330
-564.573	-72.567	0.122	0.045
-563.558	-160.662	0.121	-0.006
-562.544	-42.533	0.195	0.099
-561.529	-96.697	-0.220	0.058
-560.515	-80.017	0.222	0.074
-559.500	161.121	-0.084	0.117
-558.485	297.040	0.114	0.210
-557.471	-73.111	-0.277	-0.102
-556.456	-62.242	0.228	-0.095
-555.442	48.156	0.091	-0.085
-554.427	7.893	-0.252	0.188
-553.412	204.147	-0.211	0.327
-552.398	-200.000	-0.071	-0.332
-551.383	141.333	0.098	-0.130
-550.369	52.940	0.192	0.184
-549.354	166.619	-0.104	0.148
-548.339	-200.000	0.036	0.254
-547.325	123.463	-0.249	-0.312
-546.310	800.000	-0.071	-0.206
-545.296	-81.866	-0.281	-0.092
-544.281	-107.453	-0.085	-0.019
-543.266	-47.866	-0.096	-0.046
-542.252	104.930	-0.109	-0.128
-541.237	800.000	0.078	0.221
-540.223	-167.420	0.358	0.014
-539.208	191.439	0.230	-0.346
-538.193	73.576	-0.161	-0.168
-537.179	-40.118	-0.402	0.209
-536.164	-27.110	-0.183	0.107
-535.150	-97.343	-0.047	0.012
-534.135	-200.000	-0.042	-0.437
-533.121	-200.000	-0.012	-0.384
-532.106	93.118	-0.203	0.230
-531.091	-200.000	0.008	0.176
-530.077	-200.000	0.003	0.074
-529.062	-35.083	-0.141	0.077
-528.048	85.931	0.107	-0.117
-527.033	121.455	0.198	0.246
-526.018	-124.668	0.242	-0.037
-525.004	-29.808	0.211	-0.120
-523.989	-200.000	0.012	-0.335
-522.975	-62.331	0.292	0.121
-521.960	17.459	-0.230	0.182
-520.945	-200.000	-0.026	0.219
-519.931	-200.000	-0.043	0.264
-518.916	666.508	-0.027	-0.070
-517.902	-43.917	-0.158	0.079
-516.887	-23.380	-0.149	0.089
-515.872	100.553	0.060	-0.070
-514.858	-87.582	-0.085	0.026
-513.843	141.449	0.104	0.137
-512.829	-89.040	-0.123	0.036
-511.814	40.096	0.192	-0.172
-510.799	126.920	0.077	0.097
-509.785	-77.468	0.304	0.105
-508.770	139.069	-0.265	-0.347
-507.756	-47.236	-0.231	0.112
-506.741	-107.494	0.289	0.063
-505.726	-200.000	-0.009	-0.087
-504.712	183.055	-0.057	-0.084
-503.697	38.664	0.323	0.287
-502.683	-106.951	-0.113	-0.025
-501.668	-171.887	0.117	0.004
-500.653	321.605	0.048	0.092
-499.639	800.000	-0.015	0.064
-498.624	-200.000	0.028	0.143
-497.610	-200.000	-0.043	0.400
-496.595	-131.001	-0.164	-0.022
-495.581	-140.491	-0.180	0.019
-494.566	-87.352	-0.068	-0.021
-493.551	25.332	-0.126	-0.104
-492.537	800.000	0.052	-0.205
-491.522	690.678	-0.136	-0.356
-490.508	-39.657	-0.124	-0.065
-489.493	-43.330	-0.242	0.122
-488.478	318.966	0.116	-0.218
-487.464	-192.670	0.352	0.003
-486.449	296.496	-0.055	-0.100
-485.435	427.012	0.177	0.381
-484.420	-89.378	0.331	0.097
-483.405	10.793	-0.197	-0.149
-482.391	58.350	-0.117	0.114
-481.376	-88.677	0.198	-0.059
-480.362	-200.000	-0.035	0.467
-479.347	187.879	-0.075	-0.111
-478.332	800.000	-0.069	-0.217
-477.318	135.072	-0.110	-0.142
-476.303	-162.635	-0.155	-0.008
-475.289	77.523	-0.077	-0.082
-474.274	95.710	0.086	0.098
-473.259	800.000	0.118	0.453
-472.245	-11.517	-0.356	0.233
-471.230	604.907	0.054	0.134
-470.216	117.410	0.100	0.122
-469.201	-200.000	-0.038	0.216
-468.186	-161.164	0.269	-0.014
-467.172	-45.530	0.161	0.079
-466.157	22.044	-0.195	-0.158
-465.143	-200.000	-0.039	0.185
-464.128	133.720	-0.355	0.458
-463.113	-8.986	0.210	0.140
-462.099	419.380	-0.080	0.169
-461.084	117.359	0.112	0.137
-460.070	-144.870	0.251	-0.023
-459.055	-141.511	-0.309	0.031
-458.040	-194.636	0.127	0.001
-457.026	-17.006	-0.161	-0.101
-456.011	-200.000	0.032	-0.394
-454.997	-1.753	-0.153	-0.107
-453.982	-83.097	0.225	0.072
-452.968	-45.107	0.116	0.057
-451.953	-200.000	-0.033	-0.178
-450.938	5.133	-0.236	-0.173
-449.924	800.000	-0.108	-0.417
-448.909	51.378	-0.252	0.238
-447.895	632.459	0.086	-0.216
-446.880	-54.689	0.572	-0.257
-445.865	224.353	0.120	-0.193
-444.851	13.180	-0.305	0.235
-443.836	-200.000	-0.020	0.322
-442.822	-200.000	-0.003	0.211
-441.807	-49.370	-0.083	0.039
-440.792	-200.000	-0.028	0.412
-439.778	-72.346	0.110	-0.040
-438.763	164.255	-0.141	-0.198
-437.749	157.324	-0.133	-0.183
-436.734	171.461	-0.191	0.273
-435.719	-26.639	0.123	0.071
-434.705	227.743	-0.084	-0.136
-433.690	-53.331	-0.212	0.096
-432.676	-159.311	-0.281	0.016
-431.661	-72.303	-0.177	-0.065
-430.646	93.498	-0.109	0.122
-429.632	-60.163	0.121	-0.051
-428.617	-200.000	0.015	0.200
-427.603	65.188	0.146	-0.147
-426.588	11.702	0.157	0.120
-425.573	800.000	-0.041	-0.146
-424.559	38.818	0.143	-0.127
-423.544	502.917	-0.145	0.332
-422.530	-200.000	0.008	-0.252
-421.515	-35.923	0.209	-0.112
-420.500	-59.445	-0.184	0.079
-419.486	-70.609	0.330	0.124
-418.471	-200.000	0.015	-0.224
-417.457	-83.486	0.381	-0.121
-416.442	-80.255	-0.250	-0.083
-415.428	134.317	-0.243	-0.313
-414.413	97.083	-0.073	-0.083
-413.398	-59.247	-0.155	-0.066
-412.384	-133.138	-0.069	0.009
-411.369	-87.826	0.105	0.031
-410.355	-164.809	-0.124	-0.006
-409.340	-200.000	0.037	0.262
-408.325	-84.340	0.203	0.064
-407.311	-127.958	0.078	-0.011
-406.296	-155.432	0.151	-0.010
-405.282	19.029	-0.202	0.161
-404.267	-160.580	-0.040	-0.002
-403.252	-200.000	-0.006	0.049
-402.238	-63.462	0.382	-0.156
-401.223	399.117	-0.124	-0.257
-400.209	-200.000	-0.060	-0.372
-399.194	111.592	0.069	0.083
-398.179	-200.000	-0.009	0.198
-397.165	-88.006	0.178	-0.053
-396.150	-200.000	0.069	-0.348
-395.136	800.000	-0.096	-0.325
-394.121	-62.270	-0.228	-0.094
-393.106	1.248	-0.366	0.261
-392.092	-93.669	0.156	-0.043
-391.077	800.000	0.025	0.072
-390.063	66.945	0.132	-0.133
-389.048	-200.000	-0.019	-0.253
-388.033	-176.412	-0.163	-0.004
-387.019	-7.028	0.108	-0.073
-386.004	800.000	-0.089	-0.244
-384.990	-200.000	-0.001	-0.425
-383.975	125.594	-0.085	-0.106
-382.960	-65.949	-0.127	-0.050
-381.946	-15.442	0.079	0.050
-380.931	213.829	0.053	-0.083
-379.917	-109.596	-0.286	-0.060
-378.902	74.445	-0.248	-0.259
-377.888	-36.929	-0.190	-0.101
-376.873	47.863	-0.255	-0.236
-375.858	312.745	0.175	0.326
-374.844	354.495	-0.030	-0.059
-373.829	11.602	-0.274	-0.209
-372.815	64.219	-0.346	0.346
-371.800	449.525	0.056	-0.123
-370.785	-44.409	0.111	0.055
-369.771	137.665	-0.129	0.167
-368.756	56.008	0.176	0.170
-367.742	-200.000	0.018	-0.108
-366.727	3.318	-0.175	0.126
-365.712	-200.000	0.235	0.000
-364.698	-200.000	0.023	0.466
-363.683	144.992	-0.089	-0.118
-362.669	-200.000	0.019	-0.557
-361.654	-63.175	0.104	-0.043
-360.639	311.934	0.074	-0.138
-359.625	-199.771	-0.096	-0.000
-358.610	111.983	0.092	0.111
-357.596	-4.464	-0.367	-0.251
-356.581	-92.468	0.145	0.040
-355.566	-24.553	0.153	-0.090
-354.552	579.480	0.117	0.285
-353.537	38.175	-0.099	-0.087
-352.523	74.736	0.340	0.355
-351.508	-200.000	0.008	-0.100
-350.493	21.210	-0.122	-0.098
-349.479	-115.102	-0.034	-0.006
-348.464	-3.401	0.172	-0.119
-347.450	122.552	-0.152	-0.188
-346.435	45.577	-0.083	0.076
-345.420	-200.000	-0.005	-0.142
-344.406	213.279	-0.042	0.066
-343.391	69.010	-0.118	-0.120
-342.377	-200.000	0.037	-0.237
-341.362	-179.451	-0.240	-0.005
-340.348	-23.694	0.075	-0.045
-339.333	-200.000	0.032	-0.154
-338.318	-99.424	0.128	0.032
-337.304	-106.694	0.268	0.059
-336.289	12.801	0.115	-0.088
-335.275	-6.742	0.258	-0.174
-334.260	134.968	-0.192	-0.247
-333.245	247.855	-0.095	0.159
-332.231	-200.000	-0.058	0.283
-331.216	-94.076	-0.117	0.032
-330.202	-161.322	-0.210	0.011
-329.187	-89.046	0.205	-0.060
-328.172	707.176	0.116	-0.302
-327.158	-200.000	-0.052	-0.331
-326.143	-65.232	0.099	-0.039
-325.129	-123.136	-0.207	-0.033
-324.114	800.000	-0.049	0.180
-323.099	438.423	0.143	0.308
-322.085	6.479	0.099	-0.073
-321.070	-200.000	0.015	0.105
-320.056	-62.865	-0.095	-0.039
-319.041	-126.264	0.085	-0.012
-318.026	-61.537	-0.237	0.098
-317.012	-138.422	0.113	-0.012
-315.997	-100.787	-0.304	0.074
-314.983	29.308	-0.481	-0.404
-313.968	613.620	-0.010	-0.024
-312.953	-186.640	-0.194	-0.003
-311.939	-200.000	-0.056	-0.246
-310.924	198.816	0.188	0.285
-309.910	800.000	-0.025	0.083
-308.895	-107.904	0.201	-0.043
-307.880	93.096	0.160	-0.179
-306.866	-200.000	-0.025	-0.705
-305.851	800.000	0.088	0.272
-304.837	-57.873	-0.176	0.076
-303.822	-200.000	0.012	-0.087
-302.807	-116.976	0.052	0.009
-301.793	-145.334	0.182	0.016
-300.778	-98.663	-0.290	0.073
-299.764	-200.000	-0.033	-0.245
-298.749	-126.851	0.054	0.008
-297.735	-61.760	0.225	-0.093
-296.720	6.182	-0.089	-0.065
-295.705	327.308	0.195	0.369
-294.691	26.128	0.308	0.254
-293.676	13.484	-0.110	0.085
-292.662	-35.882	-0.234	-0.125
-291.647	193.897	0.098	0.146
-290.632	-200.000	-0.030	-0.187
-289.618	-23.929	0.130	-0.077
-288.603	516.749	-0.087	0.200
-287.589	-101.831	0.225	0.054
-286.574	-200.000	-0.020	-0.298
-285.559	-69.031	0.172	-0.065
-284.545	451.139	-0.120	-0.263
-283.530	-111.103	-0.341	-0.069
-282.516	-166.098	-0.264	0.011
-281.501	-200.000	-0.006	0.164
-280.486	384.402	0.091	-0.184
-279.472	-30.319	0.374	0.210
-278.457	-200.000	-0.071	0.321
-277.443	-200.000	0.060	0.282
-276.428	774.535	0.018	-0.047
-275.413	800.000	-0.025	0.082
-274.399	81.915	-0.203	0.217
-273.384	-115.672	-0.162	0.030
-272.370	-39.239	0.094	0.049
-271.355	-79.738	-0.223	0.074
-270.340	-60.990	0.132	0.055
-269.326	-200.000	-0.026	0.157
-268.311	-78.097	0.324	-0.110
-267.297	-58.970	-0.076	-0.033
-266.282	-189.212	0.472	-0.006
-265.267	68.458	0.029	-0.030
-264.253	8.732	0.201	-0.150
-263.238	-200.000	0.003	-0.078
-262.224	79.251	0.117	0.124
-261.209	-21.921	-0.031	-0.018
-260.195	-200.000	-0.064	0.393
-259.180	117.544	0.165	0.200
-258.165	-116.269	0.138	0.025
-257.151	59.314	-0.275	0.267
-256.136	635.574	0.122	0.306
-255.122	284.273	0.148	-0.262
-254.107	-47.215	0.079	-0.038
-253.092	-200.000	-0.040	0.233
-252.078	800.000	-0.062	0.194
-251.063	106.046	-0.139	0.162
-250.049	-200.000	-0.046	0.276
-249.034	-200.000	0.054	-0.409
-248.019	800.000	0.027	0.084
-247.005	-200.000	0.001	0.020
-245.990	-110.928	0.252	0.051
-244.976	52.700	-0.123	0.116
-243.961	163.061	0.167	-0.231
-242.946	-200.000	0.020	0.151
-241.932	149.375	0.139	-0.186
-240.917	-117.038	-0.115	0.021
-239.903	-200.000	-0.031	-0.583
-238.888	10.896	0.202	0.152
-237.873	-200.000	0.016	0.121
-236.859	-55.095	-0.026	-0.011
-235.844	-106.162	-0.147	0.032
-234.830	8.817	0.051	0.038
-233.815	102.797	-0.137	0.158
-232.800	-200.000	0.018	-0.322
-231.786	-34.208	-0.067	-0.036
-230.771	365.485	0.093	-0.185
-229.757	-193.123	-0.385	0.003
-228.742	609.202	-0.130	-0.321
-227.727	-200.000	0.003	-0.380
-226.713	639.205	-0.047	0.117
-225.698	403.141	-0.159	0.330
-224.684	800.000	-0.060	-0.169
-223.669	-66.116	0.285	-0.112
-222.655	-123.736	-0.090	0.014
-221.640	-97.679	0.214	0.055
-220.625	-122.429	-0.306	0.049
-219.611	-34.976	0.479	-0.258
-218.596	575.986	-0.097	-0.233
-217.582	-137.547	0.304	-0.034
-216.567	-200.000	-0.021	-0.271
-215.552	215.200	0.155	0.242
-214.538	800.000	-0.100	0.399
-213.523	-200.000	0.084	0.449
-212.509	-200.000	0.011	0.257
-211.494	56.886	-0.346	0.332
-210.479	99.178	0.036	0.041
-209.465	-200.000	0.054	0.386
-208.450	85.119	-0.067	0.073
-207.436	-2.965	0.096	-0.066
-206.421	171.573	-0.198	0.280
-205.406	-200.000	0.089	-0.434
-204.392	179.323	-0.068	0.099
-203.377	742.865	0.082	0.216
-202.363	-80.783	0.257	-0.084
-201.348	-200.000	0.077	-0.437
-200.333	788.159	-0.039	-0.104
-199.319	44.548	-0.240	0.217
-198.304	-165.285	0.374	-0.016
-197.290	159.429	0.112	-0.153
-196.275	-117.095	0.129	-0.023
-195.260	-87.990	0.078	-0.023
-194.246	-200.000	0.027	0.149
-193.231	-41.191	-0.170	0.086
-192.217	-139.014	0.179	0.019
-191.202	707.134	0.057	-0.149
-190.187	-141.665	-0.328	-0.033
-189.173	-200.000	0.011	0.090
-188.158	-200.000	0.036	0.246
-187.144	800.000	-0.035	-0.122
-186.129	-30.767	-0.077	0.043
-185.114	18.673	0.284	-0.224
-184.100	800.000	-0.109	-0.399
-183.085	-61.033	-0.063	0.026
-182.071	12.926	0.321	-0.244
-181.056	-97.742	-0.381	0.097
-180.042	800.000	0.098	0.334
-179.027	-73.242	0.484	-0.174
-178.012	171.497	0.134	-0.189
-176.998	-115.477	0.157	0.029
-175.983	-97.454	-0.250	0.064
-174.969	664.403	0.114	0.288
-173.954	-65.768	0.353	0.139
-172.939	-127.329	-0.167	-0.024
-171.925	97.234	0.072	0.082
-170.910	120.413	0.048	-0.059
-169.896	-34.910	-0.157	0.084
-168.881	38.801	0.173	0.152
-167.866	11.350	0.306	-0.231
-166.852	-25.088	-0.049	-0.029
-165.837	89.664	0.249	0.273
-164.823	-88.342	-0.032	-0.009
-163.808	-29.050	-0.109	-0.061
-162.793	-200.000	0.004	-0.053
-161.779	-97.335	-0.266	0.068
-160.764	-31.947	0.086	0.047
-159.750	-78.983	-0.115	-0.038
-158.735	-25.236	0.165	-0.096
-157.720	-161.126	-0.246	-0.013
-156.706	-31.913	-0.117	0.065
-155.691	14.315	-0.146	0.112
-154.677	-46.712	0.285	0.137
-153.662	-43.875	0.228	0.113
-152.647	6.096	0.048	0.035
-151.633	517.939	0.036	-0.084
-150.618	-68.593	0.192	-0.073
-149.604	592.539	0.063	0.152
-148.589	-117.958	-0.409	-0.072
-147.574	159.149	0.081	0.111
-146.560	-44.019	0.196	-0.097
-145.545	-102.213	0.271	-0.064
-144.531	127.631	0.096	-0.120
-143.516	-5.056	-0.135	-0.091
-142.502	-200.000	-0.012	0.362
-141.487	68.981	-0.096	-0.097
-140.472	-79.062	-0.214	-0.071
-139.458	-83.377	0.179	-0.056
-138.443	29.888	-0.151	0.126
-137.429	389.195	-0.091	0.184
-136.414	220.266	-0.091	-0.144
-135.399	-33.914	-0.075	-0.041
-134.385	-200.000	-0.034	-0.172
-133.370	81.756	-0.135	0.143
-132.356	-97.402	0.146	-0.037
-131.341	-57.229	0.440	0.190
-130.326	260.194	-0.109	-0.186
-129.312	-141.716	0.533	0.053
-128.297	458.314	-0.070	-0.153
-127.283	800.000	-0.060	0.187
-126.268	151.831	-0.143	0.192
-125.253	-140.321	-0.184	0.019
-124.239	437.758	0.076	0.162
-123.224	-24.352	0.133	-0.078
-122.210	-98.512	-0.179	-0.045
-121.195	800.000	-0.019	-0.068
-120.180	48.564	0.185	-0.170
-119.166	26.428	0.243	0.199
-118.151	337.652	0.003	0.006
-117.137	211.095	0.225	0.347
-116.122	503.009	0.100	-0.227
-115.107	800.000	0.014	0.054
-114.093	88.266	-0.329	0.358
-113.078	112.106	0.191	0.227
-112.064	-163.005	0.180	0.009
-111.049	-112.971	-0.054	-0.010
-110.034	53.765	0.181	0.170
-109.020	-200.000	0.040	0.273
-108.005	-157.832	-0.114	0.007
-106.991	118.743	0.131	0.158
-105.976	-106.797	0.053	-0.011
-104.962	-200.000	0.036	-0.233
-103.947	146.946	0.226	-0.299
-102.932	800.000	-0.094	-0.291
-101.918	-200.000	0.033	-0.320
-100.903	11.991	0.168	-0.127
-99.889	800.000	0.047	-0.145
-98.874	61.368	-0.008	0.008
-97.859	55.630	0.194	0.184
-96.845	-161.288	0.141	-0.007
-95.830	-115.911	-0.089	-0.016
-94.816	800.000	0.111	-0.372
-93.801	800.000	0.058	-0.207
-92.786	54.642	-0.114	-0.108
-91.772	-200.000	-0.023	-0.368
-90.757	-97.109	0.184	0.047
-89.743	-39.835	-0.262	-0.134
-88.728	-44.335	-0.252	0.124
-87.713	601.381	0.097	0.236
-86.699	123.731	0.061	-0.076
-85.684	-46.328	0.042	0.020
-84.670	78.189	0.121	0.127
-83.655	800.000	-0.072	0.289
-82.640	627.658	-0.034	-0.085
-81.626	-10.255	-0.172	0.112
-80.611	-200.000	0.070	0.309
-79.597	-116.974	0.113	-0.020
-78.582	76.390	0.203	0.211
-77.567	-79.960	0.185	0.061
-76.553	-200.000	0.091	0.510
-75.538	4.046	-0.091	0.066
-74.524	-77.980	0.244	0.083
-73.509	-68.298	0.276	-0.105
-72.494	-59.035	0.086	-0.036
-71.480	307.015	0.178	0.326
-70.465	-200.000	-0.016	0.076
-69.451	-91.019	0.198	-0.056
-68.436	13.753	0.085	0.064
-67.422	-135.915	0.101	-0.012
-66.407	89.753	0.172	0.188
-65.392	-56.236	0.073	0.032
-64.378	-7.386	-0.328	0.217
-63.363	-96.849	0.268	-0.069
-62.349	-48.297	0.274	-0.130
-61.334	17.119	-1.119	-0.869
-60.319	800.000	0.275	0.764
-59.305	800.000	-0.335	-1.027
-58.290	281.920	0.773	1.358
-57.276	322.475	0.862	1.607
-56.261	-200.000	107.225	627.225
-55.246	525.480	1513.040	3487.927
-54.232	174.716	2713.114	3844.405
-53.217	104.894	2295.872	2651.062
-52.203	38.416	1900.370	1658.300
-51.188	32.485	1686.509	1426.838
-50.173	29.736	1643.369	1369.943
-49.159	48.617	1697.639	1557.928
-48.144	48.746	1713.091	1573.013
-47.130	31.848	1669.989	1407.852
-46.115	29.266	1655.470	1376.307
-45.100	29.204	1649.925	1371.181
-44.086	29.061	1647.744	1368.245
-43.071	29.134	1644.858	1366.341
-42.057	28.987	1642.810	1363.492
-41.042	29.080	1640.628	1362.318
-40.027	29.078	1638.481	1360.464
-39.013	29.120	1636.512	1359.087
-37.998	28.993	1635.466	1357.230
-36.984	29.060	1633.918	1356.384
-35.969	29.088	1632.596	1355.440
-34.954	29.180	1630.776	1354.549
-33.940	29.182	1628.800	1352.868
-32.925	29.169	1627.019	1351.242
-31.911	29.161	1625.212	1349.631
-30.896	29.112	1623.960	1348.176
-29.881	29.152	1622.234	1346.984
-28.867	29.185	1620.382	1345.633
-27.852	29.187	1619.085	1344.519
-26.838	29.165	1617.318	1342.835
-25.823	29.126	1616.313	1341.667
-24.809	29.138	1615.289	1340.847
-23.794	29.178	1613.461	1339.568
-22.779	29.209	1611.797	1338.359
-21.765	29.022	1610.790	1336.114
-20.750	29.222	1608.488	1335.596
-19.736	29.161	1607.716	1334.467
-18.721	29.152	1605.513	1332.516
-17.706	29.062	1604.755	1331.181
-16.692	29.172	1603.006	1330.475
-15.677	29.136	1602.009	1329.338
-14.663	29.200	1600.038	1328.111
-13.648	29.121	1599.385	1326.944
-12.633	29.160	1597.639	1325.724
-11.619	29.125	1595.850	1323.934
-10.604	29.144	1594.276	1322.716
-9.590	29.213	1593.118	1322.198
-8.575	29.192	1591.766	1320.870
-7.560	29.170	1591.145	1320.145
-6.546	29.181	1589.876	1319.121
-5.531	29.183	1588.540	1317.969
-4.517	29.170	1587.686	1317.114
-3.502	29.186	1586.492	1316.188
-2.487	29.273	1584.577	1315.169
-1.473	28.920	1572.730	1302.786
-0.458	26.183	1553.615	1267.714
0.556	20.451	1554.907	1237.275
1.571	18.352	1579.869	1241.814
2.586	18.090	1593.556	1250.549
3.600	16.402	1541.010	1197.254
4.615	8.655	1432.165	1061.390
5.629	1.180	1368.527	966.628
6.644	-0.195	1360.481	952.147
7.659	-0.318	1358.994	950.243
8.673	-0.360	1358.707	949.689
9.688	-0.328	1356.022	947.933
10.702	-0.586	1353.031	944.127
11.717	2.540	1358.970	967.966
12.731	11.604	1376.962	1038.521
13.746	19.208	1389.461	1096.442
14.761	21.133	1391.797	1110.449
15.775	21.313	1391.634	1111.367
16.790	21.452	1391.475	1112.022
17.804	21.409	1390.646	1110.993
18.819	21.782	1390.156	1112.871
19.834	21.769	1390.001	1112.565
20.848	21.824	1389.382	1112.319
21.863	21.956	1387.728	1111.731
22.877	21.800	1387.258	1110.271
23.892	21.832	1386.468	1109.745
24.907	21.801	1385.534	1108.704
25.921	21.801	1384.806	1108.023
26.936	21.845	1383.835	1107.426
27.950	21.884	1382.210	1106.273
28.965	21.864	1381.436	1105.427
29.980	21.871	1380.054	1104.269
30.994	21.808	1379.081	1102.998
32.009	21.907	1377.499	1102.252
33.023	21.865	1376.837	1101.365
34.038	21.873	1375.905	1100.569
35.053	21.828	1374.633	1099.172
36.067	21.784	1373.616	1097.988
37.082	21.893	1372.248	1097.481
38.096	21.828	1371.675	1096.517
39.111	21.777	1371.092	1095.637
40.126	21.789	1370.827	1095.403
41.140	21.850	1369.987	1095.017
42.155	21.795	1369.705	1094.347
43.169	21.764	1369.585	1093.964
44.184	21.771	1369.573	1093.898
45.199	21.862	1368.681	1093.656
46.213	21.874	1367.687	1092.844
47.228	21.779	1367.214	1091.776
48.242	21.852	1365.794	1091.002
49.257	21.966	1363.925	1090.120
50.271	21.912	1362.603	1088.632
51.286	21.753	1361.828	1086.926
52.301	21.795	1360.597	1086.110
53.315	21.825	1359.433	1085.269
54.330	21.786	1359.046	1084.623
55.344	21.812	1357.793	1083.692
56.359	21.841	1356.874	1083.038
57.374	21.720	1356.166	1081.633
58.388	21.753	1355.545	1081.240
59.403	21.903	1354.306	1081.083
60.417	21.922	1353.844	1080.736
61.432	21.796	1353.302	1079.432
62.447	21.741	1352.906	1078.684
63.461	21.748	1351.828	1077.772
64.476	21.795	1350.499	1076.903
65.490	21.871	1349.246	1076.276
66.505	21.860	1347.851	1074.998
67.520	21.985	1346.142	1074.310
68.534	21.852	1345.387	1072.797
69.549	21.772	1344.695	1071.662
70.563	21.890	1343.055	1070.976
71.578	21.884	1342.218	1070.180
72.593	21.871	1341.538	1069.464
73.607	21.871	1340.791	1068.775
74.622	21.852	1339.916	1067.865
75.636	21.935	1339.299	1067.782
76.651	21.866	1339.116	1067.127
77.666	21.901	1338.316	1066.606
78.680	21.848	1337.689	1065.692
79.695	21.874	1336.745	1064.999
80.709	21.778	1336.277	1063.950
81.724	21.817	1335.589	1063.549
82.739	21.892	1333.863	1062.531
83.753	21.875	1333.049	1061.687
84.768	21.803	1331.867	1060.215
85.782	21.899	1330.635	1059.724
86.797	21.905	1329.711	1058.929
87.812	21.863	1328.828	1057.876
88.826	21.998	1327.014	1057.151
89.841	21.921	1326.348	1056.063
90.855	21.973	1325.460	1055.578
91.870	21.962	1324.545	1054.692
92.884	22.008	1323.751	1054.237
93.899	21.989	1322.857	1053.320
94.914	21.962	1322.379	1052.684
95.928	21.897	1321.408	1051.431
96.943	21.891	1320.687	1050.726
97.957	21.879	1320.212	1050.184
98.972	21.907	1319.489	1049.685
99.987	21.945	1318.282	1048.858
101.001	21.968	1317.137	1047.990
102.016	21.971	1315.945	1046.969
103.030	21.970	1315.470	1046.494
104.045	21.986	1314.401	1045.642
105.060	21.908	1313.344	1044.248
106.074	21.994	1312.359	1043.883
107.089	21.969	1311.183	1042.706
108.103	21.978	1310.481	1042.108
109.118	22.018	1309.310	1041.323
110.133	21.953	1308.160	1039.932
111.147	21.938	1306.993	1038.823
112.162	21.924	1305.910	1037.785
113.176	22.079	1304.800	1037.726
114.191	21.955	1303.826	1036.128
115.206	21.929	1303.040	1035.263
116.220	22.047	1301.420	1034.575
117.235	22.009	1300.861	1033.820
118.249	21.959	1299.745	1032.547
119.264	22.066	1298.699	1032.250
120.279	22.142	1297.642	1031.768
121.293	22.064	1297.024	1030.726
122.308	22.174	1296.093	1030.539
123.322	22.063	1295.162	1029.060
124.337	22.020	1294.525	1028.208
125.352	22.095	1293.283	1027.568
126.366	22.207	1292.107	1027.200
127.381	22.011	1291.587	1025.550
128.395	22.047	1291.097	1025.278
129.410	22.091	1289.521	1024.196
130.424	22.133	1288.982	1023.920
131.439	22.044	1288.220	1022.706
132.454	21.979	1287.688	1021.818
133.468	22.077	1286.478	1021.337
134.483	22.084	1285.961	1020.876
135.497	21.998	1285.348	1019.797
136.512	22.094	1283.922	1019.131
137.527	22.042	1283.289	1018.241
138.541	22.124	1281.540	1017.234
139.556	22.011	1280.298	1015.504
140.570	22.040	1279.047	1014.594
141.585	21.931	1278.344	1013.316
142.600	22.004	1277.304	1012.820
143.614	22.103	1276.182	1012.412
144.629	21.935	1275.157	1010.543
145.643	21.948	1274.197	1009.767
146.658	21.932	1273.152	1008.759
147.673	22.044	1272.128	1008.503
148.687	21.932	1271.090	1006.947
149.702	22.000	1270.036	1006.411
150.716	22.038	1268.632	1005.426
151.731	21.959	1267.868	1004.285
152.746	22.040	1266.682	1003.719
153.760	22.210	1265.345	1003.542
154.775	22.095	1265.035	1002.547
155.789	22.123	1263.795	1001.635
156.804	22.052	1263.099	1000.593
157.819	22.037	1262.077	999.610
158.833	22.188	1261.214	999.698
159.848	22.119	1260.978	999.028
160.862	22.167	1259.586	998.112
161.877	22.108	1259.191	997.372
162.892	22.092	1258.417	996.582
163.906	22.199	1257.226	996.154
164.921	22.133	1257.016	995.525
165.935	22.188	1255.685	994.696
166.950	22.231	1255.054	994.351
167.964	22.245	1254.188	993.654
168.979	22.290	1253.826	993.534
169.994	22.212	1253.442	992.702
171.008	22.241	1252.593	992.109
172.023	22.163	1252.008	991.116
173.037	22.284	1250.994	990.908
174.052	22.171	1250.559	989.841
175.067	22.221	1249.653	989.313
176.081	22.122	1249.014	988.164
177.096	22.203	1247.551	987.372
178.110	22.154	1247.504	986.973
179.125	22.278	1246.095	986.466
180.140	22.236	1244.992	985.272
181.154	22.153	1243.954	983.898
182.169	22.191	1242.795	983.109
183.183	22.174	1241.969	982.271
184.198	22.306	1240.915	982.088
185.213	22.189	1240.180	980.770
186.227	22.197	1239.445	980.142
187.242	22.288	1238.097	979.498
188.256	22.328	1237.057	978.809
189.271	22.222	1236.554	977.738
190.286	22.351	1235.420	977.469
191.300	22.302	1235.399	977.096
192.315	22.221	1235.323	976.498
193.329	22.291	1234.499	976.150
194.344	22.382	1233.797	976.014
195.359	22.364	1233.410	975.523
196.373	22.215	1232.948	974.245
197.388	22.295	1232.343	974.121
198.402	22.239	1231.894	973.369
199.417	22.251	1231.875	973.335
200.432	22.326	1230.880	972.879
201.446	22.323	1229.847	971.958
202.461	22.268	1229.024	970.919
203.475	22.285	1228.280	970.340
204.490	22.169	1227.663	969.125
205.504	22.403	1226.069	969.072
206.519	22.311	1225.499	968.028
207.534	22.275	1224.799	967.193
208.548	22.335	1223.565	966.460
209.563	22.311	1223.342	966.069
210.577	22.322	1222.398	965.298
211.592	22.350	1221.451	964.618
212.607	22.334	1220.686	963.838
213.621	22.482	1219.573	963.689
214.636	22.451	1218.890	962.890
215.650	22.483	1218.002	962.278
216.665	22.298	1216.987	960.383
217.680	22.427	1216.539	960.650
218.694	22.396	1215.828	959.832
219.709	22.378	1215.281	959.218
220.723	22.393	1214.287	958.431
221.738	22.334	1213.262	957.218
222.753	22.211	1213.203	956.413
223.767	22.338	1212.172	956.207
224.782	22.366	1212.397	956.452
225.796	22.614	1210.817	956.466
226.811	22.520	1210.350	955.503
227.826	22.488	1210.094	955.042
228.840	22.476	1209.296	954.263
229.855	22.437	1208.551	953.382
230.869	22.451	1207.969	952.912
231.884	22.441	1207.271	952.226
232.899	22.472	1206.541	951.734
233.913	22.478	1205.998	951.252
234.928	22.673	1205.002	951.434
235.942	22.533	1204.637	950.309
236.957	22.630	1204.134	950.350
237.972	22.516	1203.182	948.901
238.986	22.498	1202.761	948.385
240.001	22.571	1201.913	948.028
241.015	22.574	1201.754	947.831
242.030	22.514	1200.788	946.666
243.045	22.701	1200.057	947.011
244.059	22.590	1199.190	945.648
245.074	22.581	1198.219	944.748
246.088	22.748	1197.336	944.864
247.103	22.604	1196.517	943.361
248.117	22.545	1196.150	942.672
249.132	22.680	1195.381	942.708
250.147	22.742	1194.363	942.151
251.161	22.763	1193.563	941.550
252.176	22.722	1192.751	940.608
253.190	22.723	1192.507	940.334
254.205	22.781	1191.739	939.955
255.220	22.613	1191.577	938.853
256.234	22.649	1191.009	938.514
257.249	22.660	1190.526	938.107
258.263	22.647	1189.543	937.180
259.278	22.870	1188.846	937.731
260.293	22.787	1188.561	936.984
261.307	22.865	1187.904	936.798
262.322	22.887	1187.132	936.222
263.336	22.739	1186.484	934.842
264.351	22.799	1186.104	934.778
265.366	22.730	1185.416	933.791
266.380	22.717	1184.950	933.272
267.395	22.817	1183.938	932.922
268.409	22.687	1183.883	932.106
269.424	22.766	1182.868	931.640
270.439	22.865	1182.228	931.580
271.453	22.919	1181.513	931.218
272.468	22.801	1180.480	929.697
273.482	22.881	1179.774	929.484
274.497	22.843	1179.792	929.215
275.512	22.841	1179.071	928.554
276.526	22.758	1178.641	927.695
277.541	22.893	1177.822	927.677
278.555	22.928	1177.348	927.405
279.570	23.037	1176.299	927.069
280.585	22.924	1175.943	926.116
281.599	22.998	1174.804	925.525
282.614	22.843	1174.003	923.999
283.628	22.928	1172.915	923.506
284.643	22.946	1172.265	923.005
285.657	23.014	1171.566	922.731
286.672	22.941	1170.302	921.270
287.687	22.979	1169.797	920.991
288.701	22.951	1169.275	920.354
289.716	22.933	1168.639	919.677
290.730	23.076	1167.738	919.628
291.745	22.965	1167.326	918.648
292.760	22.918	1166.876	917.967
293.774	23.007	1166.108	917.746
294.789	22.988	1165.800	917.322
295.803	23.032	1164.877	916.739
296.818	23.036	1164.092	916.062
297.833	23.044	1163.425	915.497
298.847	23.072	1163.115	915.320
299.862	23.131	1162.091	914.739
300.876	22.960	1161.432	913.253
301.891	23.172	1160.790	913.763
302.906	23.215	1159.824	913.141
303.920	23.158	1159.731	912.697
304.935	23.075	1159.196	911.766
305.949	23.189	1158.240	911.519
306.964	23.258	1157.655	911.333
307.979	23.225	1157.207	910.733
308.993	23.214	1156.449	910.000
310.008	23.228	1155.775	909.459
311.022	23.215	1155.050	908.739
312.037	23.211	1154.179	907.955
313.052	23.224	1153.131	907.119
314.066	23.190	1152.597	906.441
315.081	23.233	1151.743	905.911
316.095	23.185	1151.380	905.300
317.110	23.232	1150.249	904.569
318.125	23.293	1149.577	904.276
319.139	23.208	1149.341	903.574
320.154	23.346	1148.702	903.698
321.168	23.294	1147.895	902.717
322.183	23.323	1147.411	902.401
323.197	23.372	1146.754	902.054
324.212	23.295	1146.126	901.090
325.227	23.372	1145.313	900.765
326.241	23.445	1145.184	900.950
327.256	23.394	1144.397	899.992
328.270	23.386	1143.321	899.026
329.285	23.372	1142.525	898.253
330.300	23.397	1142.630	898.382
331.314	23.398	1141.464	897.392
332.329	23.355	1140.774	896.552
333.343	23.498	1139.630	896.297
334.358	23.512	1138.972	895.768
335.373	23.504	1138.485	895.268
336.387	23.501	1137.692	894.549
337.402	23.544	1136.740	893.939
338.416	23.514	1136.260	893.329
339.431	23.508	1135.828	892.880
340.446	23.471	1135.225	892.143
341.460	23.646	1134.207	892.143
342.475	23.511	1133.844	891.098
343.489	23.509	1133.097	890.423
344.504	23.459	1131.950	889.192
345.519	23.504	1131.271	888.807
346.533	23.576	1130.180	888.231
347.548	23.624	1129.720	888.030
348.562	23.542	1128.905	886.903
349.577	23.619	1128.209	886.661
350.592	23.548	1127.304	885.519
351.606	23.512	1127.035	885.048
352.621	23.648	1126.305	885.076
353.635	23.673	1125.759	884.692
354.650	23.655	1124.947	883.885
355.665	23.743	1124.190	883.648
356.679	23.672	1123.869	882.969
357.694	23.657	1123.275	882.349
358.708	23.740	1122.665	882.201
359.723	23.623	1122.008	881.030
360.738	23.587	1121.590	880.441
361.752	23.814	1120.861	880.917
362.767	23.731	1120.331	880.011
363.781	23.773	1119.595	879.563
364.796	23.815	1118.886	879.138
365.810	23.711	1118.484	878.228
366.825	23.734	1117.683	877.636
367.840	23.831	1117.006	877.505
368.854	23.925	1116.451	877.454
369.869	23.957	1115.374	876.689
370.883	23.958	1115.127	876.424
371.898	23.820	1114.444	875.126
372.913	23.931	1113.661	874.981
373.927	23.923	1113.476	874.721
374.942	23.984	1112.833	874.438
375.956	24.009	1112.249	874.022
376.971	23.966	1111.506	873.153
377.986	23.926	1111.286	872.707
379.000	23.919	1110.737	872.162
380.015	23.956	1110.463	872.053
381.029	24.055	1109.521	871.722
382.044	24.111	1108.753	871.315
383.059	23.901	1108.507	870.013
384.073	24.043	1107.285	869.672
385.088	24.051	1106.539	869.049
386.102	24.064	1105.610	868.306
387.117	23.990	1105.004	867.395
388.132	23.798	1104.414	865.919
389.146	24.004	1103.577	866.186
390.161	24.104	1102.961	866.114
391.175	24.051	1102.221	865.199
392.190	24.054	1101.542	864.605
393.205	24.018	1101.084	863.993
394.219	24.106	1100.174	863.631
395.234	24.287	1099.032	863.533
396.248	24.096	1098.701	862.273
397.263	24.282	1097.332	862.018
398.278	24.222	1096.943	861.348
399.292	24.237	1096.351	860.880
400.307	24.238	1095.961	860.503
401.321	24.127	1095.360	859.417
402.336	24.177	1094.838	859.176
403.350	24.199	1093.998	858.547
404.365	24.213	1093.781	858.367
405.380	24.252	1092.751	857.671
406.394	24.259	1092.180	857.180
407.409	24.320	1091.364	856.754
408.423	24.374	1090.175	856.007
409.438	24.290	1089.929	855.337
410.453	24.342	1088.924	854.721
411.467	24.362	1088.395	854.325
412.482	24.299	1087.844	853.512
413.496	24.424	1087.085	853.439
414.511	24.356	1086.401	852.504
415.526	24.422	1085.868	852.325
416.540	24.420	1085.420	851.889
417.555	24.446	1084.775	851.433
418.569	24.440	1084.606	851.194
419.584	24.430	1084.037	850.624
420.599	24.386	1083.558	849.962
421.613	148.542	1402.774	1797.829
422.628	137.222	1449.257	1797.920
