DTS Sentinel unit serial number:	SN413079Multiplexer serial number:	ORYXHardware model number:	OX4-SRSoftware version number:	ORYX F/W v4.00 Oryx Data Collector v3.7.2.0data status	okinstallation	princeton_trtdifferential loss correction	single-endedforward channel	channel 2reverse channel	N/Adate	2019/09/12time	00:09:11forward acquisition time	60.00reverse acquisition time	0.00gamma	496.2192k internal	0.2324k external	0.2324temperature offset calibration	1.0084default loss term (dB/km)	0.3790temperature slope calibration	1.0000multiplexer offset coefficient	1.0000multiplexer slope coefficient	1.0000fibre end	0.00T internal ref (°C)	33.64T ext. ref 1 (°C)	2.01T ext. ref 2 (°C)	28.20length (m)	temperature (°C)	Stokes	anti-Stokes-747.200	-133.087	0.389	-0.050
-746.185	30.886	-0.113	0.098
-745.171	-200.000	-0.005	-0.208
-744.156	-9.604	-0.176	0.118
-743.142	-98.769	0.238	0.061
-742.127	32.619	-0.169	0.147
-741.112	-21.194	-0.156	0.096
-740.098	70.001	-0.252	0.262
-739.083	-100.445	0.208	0.052
-738.069	243.808	-0.112	-0.189
-737.054	18.054	0.106	0.085
-736.039	143.661	-0.166	-0.223
-735.025	747.454	0.097	0.263
-734.010	-200.000	0.003	0.220
-732.996	-122.479	-0.324	-0.053
-731.981	-45.449	0.148	0.074
-730.966	30.644	-0.149	0.128
-729.952	36.255	-0.174	-0.155
-728.937	-142.493	0.130	0.013
-727.923	200.794	-0.168	-0.260
-726.908	244.976	0.150	-0.254
-725.894	-200.000	-0.003	-0.209
-724.879	0.758	0.316	-0.228
-723.864	-4.528	-0.124	0.086
-722.850	800.000	0.068	-0.251
-721.835	800.000	-0.126	-0.353
-720.821	18.384	0.092	0.074
-719.806	-200.000	-0.032	-0.169
-718.791	647.559	0.051	-0.133
-717.777	451.975	0.073	-0.163
-716.762	70.160	0.178	0.185
-715.748	800.000	0.010	0.036
-714.733	800.000	-0.027	-0.115
-713.718	530.101	-0.056	0.133
-712.704	-153.123	-0.148	0.010
-711.689	-172.778	-0.264	0.008
-710.675	-38.666	0.320	-0.171
-709.660	-62.672	-0.212	-0.089
-708.645	151.090	-0.015	0.021
-707.631	-200.000	-0.030	-0.421
-706.616	89.263	0.210	-0.236
-705.602	-5.749	0.209	0.144
-704.587	-9.812	-0.140	0.094
-703.572	12.192	0.061	0.047
-702.558	59.803	-0.205	0.204
-701.543	224.613	0.041	0.067
-700.529	-200.000	0.017	-0.164
-699.514	-34.868	-0.072	-0.040
-698.499	800.000	-0.078	-0.339
-697.485	-200.000	-0.057	-0.549
-696.470	61.447	-0.153	-0.154
-695.456	-200.000	-0.015	0.084
-694.441	71.725	0.137	-0.143
-693.426	-24.366	0.184	-0.111
-692.412	-22.749	0.210	-0.127
-691.397	800.000	-0.071	0.296
-690.383	-80.749	-0.144	-0.048
-689.368	-200.000	-0.050	0.308
-688.354	-3.140	-0.265	-0.186
-687.339	-157.213	0.386	-0.024
-686.324	-85.392	0.059	0.018
-685.310	800.000	-0.070	0.211
-684.295	122.835	-0.102	-0.128
-683.281	-200.000	0.028	0.276
-682.266	709.890	-0.082	-0.219
-681.251	46.465	-0.324	-0.303
-680.237	-200.000	0.026	-0.216
-679.222	609.243	0.140	0.352
-678.208	-67.187	0.116	-0.046
-677.193	13.061	-0.163	0.127
-676.178	208.525	-0.089	-0.140
-675.164	-78.540	0.150	-0.052
-674.149	-23.422	0.249	0.151
-673.135	286.490	-0.175	-0.317
-672.120	-12.031	0.189	-0.125
-671.105	800.000	-0.169	-0.515
-670.091	-103.833	0.375	0.088
-669.076	-3.691	-0.285	-0.200
-668.062	-107.088	0.116	-0.026
-667.047	-101.661	0.024	0.006
-666.032	127.602	-0.040	0.051
-665.018	800.000	0.062	-0.224
-664.003	740.896	-0.071	0.192
-662.989	41.961	0.113	-0.103
-661.974	102.441	0.185	0.217
-660.959	52.494	-0.256	-0.245
-659.945	-77.017	0.161	0.057
-658.930	-200.000	-0.023	0.205
-657.916	-200.000	-0.040	0.336
-656.901	-49.040	0.061	-0.029
-655.886	-22.795	-0.097	-0.059
-654.872	340.185	0.071	-0.140
-653.857	800.000	-0.056	0.198
-652.843	110.575	-0.243	0.294
-651.828	800.000	0.047	-0.150
-650.814	-40.943	0.345	0.180
-649.799	-168.403	-0.140	0.005
-648.784	623.952	0.071	-0.181
-647.770	-60.058	0.158	-0.068
-646.755	-151.281	-0.288	-0.022
-645.741	-98.137	0.321	0.083
-644.726	800.000	0.036	0.129
-643.711	430.894	-0.137	-0.298
-642.697	487.191	0.117	0.268
-641.682	72.111	0.103	-0.108
-640.668	-200.000	-0.029	0.177
-639.653	-200.000	0.071	-0.436
-638.638	-39.643	-0.132	0.069
-637.624	800.000	0.074	-0.220
-636.609	-127.855	-0.319	0.046
-635.595	81.714	-0.292	-0.318
-634.580	337.939	0.073	-0.143
-633.565	-200.000	0.061	0.290
-632.551	630.534	-0.057	-0.145
-631.536	50.830	0.083	0.079
-630.522	647.053	-0.088	-0.225
-629.507	357.569	-0.133	-0.267
-628.492	-166.148	0.578	0.025
-627.478	107.270	-0.049	0.058
-626.463	800.000	0.024	0.083
-625.449	3.628	-0.133	0.097
-624.434	254.776	0.074	-0.127
-623.419	-25.740	0.214	-0.127
-622.405	800.000	-0.037	0.126
-621.390	800.000	-0.051	0.143
-620.376	-31.096	-0.181	0.102
-619.361	-200.000	0.062	-0.384
-618.346	-200.000	-0.003	-0.109
-617.332	112.458	-0.133	0.162
-616.317	800.000	-0.117	0.326
-615.303	-112.893	0.370	0.074
-614.288	48.311	0.190	-0.179
-613.273	-20.647	0.233	-0.144
-612.259	232.676	-0.099	-0.164
-611.244	153.867	0.326	-0.449
-610.230	-116.909	-0.377	-0.069
-609.215	-200.000	-0.010	-0.391
-608.201	144.174	0.264	0.353
-607.186	72.899	0.141	0.148
-606.171	-200.000	-0.011	-0.441
-605.157	-8.921	-0.290	-0.195
-604.142	194.579	0.019	-0.029
-603.128	-42.750	0.111	0.057
-602.113	-200.000	-0.026	-0.124
-601.098	-53.681	0.299	-0.137
-600.084	236.946	-0.114	0.189
-599.069	202.546	0.122	-0.189
-598.055	373.985	-0.126	0.257
-597.040	40.364	0.027	-0.025
-596.025	-61.525	-0.107	0.045
-595.011	-200.000	0.086	-0.379
-593.996	-62.227	-0.138	-0.058
-592.982	2.418	-0.232	-0.169
-591.967	258.813	0.156	-0.270
-590.952	-200.000	-0.013	0.427
-589.938	548.869	-0.171	0.411
-588.923	-142.605	0.114	-0.011
-587.909	-200.000	-0.013	0.260
-586.894	610.222	-0.207	-0.518
-585.879	-81.750	0.365	0.120
-584.865	-200.000	-0.032	0.190
-583.850	-92.776	0.132	0.037
-582.836	-90.549	0.110	0.032
-581.821	-71.446	-0.022	-0.008
-580.806	-153.734	0.160	0.011
-579.792	800.000	0.078	0.268
-578.777	231.241	-0.020	-0.033
-577.763	61.608	0.146	-0.145
-576.748	-200.000	-0.029	-0.282
-575.733	-116.861	0.137	-0.025
-574.719	21.730	0.192	-0.156
-573.704	374.577	0.071	0.145
-572.690	109.762	-0.149	-0.179
-571.675	-200.000	-0.001	0.152
-570.661	78.507	0.171	-0.184
-569.646	-104.614	-0.152	0.035
-568.631	-74.967	0.223	-0.080
-567.617	800.000	-0.051	0.144
-566.602	52.565	-0.126	0.120
-565.588	96.612	-0.007	-0.008
-564.573	-57.892	-0.058	0.026
-563.558	-200.000	-0.012	0.143
-562.544	-74.722	-0.159	-0.057
-561.529	623.297	0.110	0.277
-560.515	-200.000	-0.128	-0.000
-559.500	-54.677	-0.157	-0.071
-558.485	-200.000	-0.036	0.352
-557.471	-46.394	0.359	0.177
-556.456	-200.000	-0.026	0.292
-555.442	516.778	0.065	-0.151
-554.427	-200.000	-0.009	-0.232
-553.412	-22.198	-0.059	0.036
-552.398	197.634	0.222	-0.339
-551.383	800.000	0.053	-0.189
-550.369	-77.455	-0.283	-0.099
-549.354	-29.411	-0.242	-0.139
-548.339	-200.000	0.025	0.152
-547.325	-55.677	-0.084	0.038
-546.310	-200.000	0.003	0.082
-545.296	9.011	0.159	-0.120
-544.281	344.057	-0.086	0.169
-543.266	-85.699	-0.172	-0.054
-542.252	-200.000	-0.016	0.204
-541.237	-37.923	-0.111	0.059
-540.223	424.087	0.130	-0.279
-539.208	-113.984	-0.264	0.051
-538.193	-200.000	-0.013	-0.143
-537.179	800.000	0.081	-0.252
-536.164	-78.497	-0.056	0.019
-535.150	-91.300	0.216	0.062
-534.135	800.000	0.072	-0.222
-533.121	62.581	-0.027	0.027
-532.106	-17.340	-0.151	-0.095
-531.091	-200.000	0.162	0.000
-530.077	314.733	0.071	-0.135
-529.062	-3.779	0.076	-0.053
-528.048	-200.000	0.007	-0.134
-527.033	-200.000	-0.223	-0.001
-526.018	-200.000	0.310	-0.001
-525.004	-103.944	-0.188	-0.044
-523.989	102.433	-0.135	-0.158
-522.975	308.266	-0.087	-0.163
-521.960	267.266	0.127	-0.222
-520.945	800.000	0.101	-0.369
-519.931	63.124	0.146	-0.146
-518.916	800.000	0.084	-0.291
-517.902	238.804	-0.082	0.136
-516.887	-149.043	0.088	-0.007
-515.872	347.665	-0.030	-0.058
-514.858	610.629	-0.111	-0.277
-513.843	169.969	-0.101	0.145
-512.829	24.080	-0.156	0.128
-511.814	-33.931	0.219	0.121
-510.799	54.841	-0.265	0.256
-509.785	-200.000	0.017	0.255
-508.770	-43.902	-0.506	-0.255
-507.756	-120.686	0.355	-0.060
-506.741	-39.104	-0.333	-0.175
-505.726	-200.000	0.005	0.318
-504.712	-4.512	0.025	0.017
-503.697	245.764	0.145	-0.244
-502.683	800.000	0.076	-0.229
-501.668	105.869	0.051	-0.060
-500.653	-200.000	-0.026	-0.186
-499.639	-85.397	0.254	0.079
-498.624	40.385	0.150	-0.135
-497.610	259.286	-0.125	0.216
-496.595	615.287	0.042	0.105
-495.581	26.252	-0.263	0.220
-494.566	800.000	-0.102	-0.353
-493.551	609.584	-0.167	0.418
-492.537	151.521	0.075	0.102
-491.522	-9.111	-0.501	0.335
-490.508	214.868	0.029	0.046
-489.493	-200.000	-0.023	-0.266
-488.478	-112.292	0.185	-0.037
-487.464	-71.716	0.187	-0.070
-486.449	60.088	0.013	-0.013
-485.435	536.933	-0.046	0.109
-484.420	-199.516	0.174	0.001
-483.405	3.459	0.032	-0.023
-482.391	-186.230	-0.112	-0.002
-481.376	-200.000	-0.013	-0.349
-480.362	-127.392	-0.292	0.042
-479.347	-74.581	-0.120	-0.043
-478.332	-142.555	0.077	-0.008
-477.318	-107.741	-0.120	-0.026
-476.303	-94.001	-0.322	0.088
-475.289	719.885	-0.160	0.424
-474.274	239.337	-0.133	-0.222
-473.259	461.586	-0.034	-0.076
-472.245	156.171	-0.102	-0.140
-471.230	592.885	0.175	-0.431
-470.216	13.744	-0.030	0.024
-469.201	21.250	-0.047	0.038
-468.186	-122.402	0.165	-0.027
-467.172	800.000	0.010	0.031
-466.157	19.530	-0.035	0.028
-465.143	-157.264	-0.205	-0.012
-464.128	800.000	0.101	0.316
-463.113	104.463	0.145	-0.170
-462.099	-95.503	-0.412	0.110
-461.084	-32.962	0.054	0.030
-460.070	-200.000	0.010	0.363
-459.055	-125.575	0.224	-0.034
-458.040	186.863	0.097	0.144
-457.026	170.380	-0.141	-0.202
-456.011	108.096	-0.124	-0.148
-454.997	7.423	-0.421	-0.314
-453.982	182.593	-0.158	0.233
-452.968	228.505	0.185	0.302
-451.953	366.280	0.169	-0.340
-450.938	698.968	0.048	0.126
-449.924	555.361	0.071	-0.169
-448.909	-178.964	-0.220	0.005
-447.895	42.435	-0.074	-0.067
-446.880	-200.000	0.024	0.269
-445.865	-111.131	-0.043	0.009
-444.851	800.000	0.077	0.317
-443.836	-200.000	0.002	0.133
-442.822	356.397	-0.217	-0.432
-441.807	-67.311	-0.336	0.132
-440.792	800.000	0.106	0.303
-439.778	-107.854	0.323	0.070
-438.763	-200.000	0.003	0.058
-437.749	-17.231	-0.301	0.189
-436.734	330.547	0.128	0.245
-435.719	304.947	-0.043	0.080
-434.705	437.847	-0.087	0.189
-433.690	800.000	-0.033	-0.132
-432.676	-69.962	0.360	-0.137
-431.661	66.557	-0.226	0.229
-430.646	-42.619	-0.102	-0.052
-429.632	-73.078	0.222	0.081
-428.617	-88.800	0.023	-0.007
-427.603	-200.000	-0.034	-0.181
-426.588	-97.579	-0.213	0.055
-425.573	17.487	-0.044	0.034
-424.559	506.088	-0.111	0.256
-423.544	-142.180	-0.475	0.047
-422.530	-200.000	-0.014	-0.155
-421.515	-180.642	0.290	-0.006
-420.500	657.132	0.070	0.180
-419.486	800.000	0.031	0.129
-418.471	-200.000	-0.032	0.203
-417.457	-88.068	0.068	0.020
-416.442	800.000	0.035	0.100
-415.428	238.673	0.041	0.067
-414.413	21.768	0.195	0.158
-413.398	-152.840	0.141	0.010
-412.384	-192.171	-0.069	0.001
-411.369	62.667	0.186	0.185
-410.355	-80.680	0.116	-0.039
-409.340	800.000	0.052	-0.181
-408.325	270.063	-0.179	0.313
-407.311	68.637	-0.163	0.167
-406.296	-139.434	-0.168	-0.018
-405.282	-20.193	-0.137	0.084
-404.267	242.038	-0.057	0.095
-403.252	-5.142	0.056	-0.038
-402.238	-200.000	0.014	0.315
-401.223	-5.851	0.045	-0.031
-400.209	35.388	0.094	0.082
-399.194	46.805	-0.143	-0.132
-398.179	21.924	0.277	0.225
-397.165	154.189	0.053	0.073
-396.150	-17.903	-0.149	-0.093
-395.136	162.684	0.094	0.131
-394.121	113.030	-0.099	0.119
-393.106	17.482	0.048	-0.038
-392.092	225.162	0.145	0.233
-391.077	-200.000	0.050	0.242
-390.063	28.559	-0.172	0.145
-389.048	-67.827	0.263	0.102
-388.033	-77.757	-0.165	-0.057
-387.019	-98.057	-0.210	-0.054
-386.004	-200.000	0.017	0.094
-384.990	755.624	-0.092	0.248
-383.975	-99.578	-0.208	0.052
-382.960	-74.436	-0.323	0.116
-381.946	-2.430	0.094	-0.065
-380.931	-65.614	0.190	0.076
-379.917	-153.351	-0.132	-0.009
-378.902	437.846	-0.057	0.124
-377.888	-111.921	-0.150	-0.030
-376.873	114.826	0.269	-0.327
-375.858	205.053	-0.225	0.348
-374.844	681.648	-0.068	0.176
-373.829	394.677	0.032	-0.067
-372.815	244.544	-0.061	-0.102
-371.800	-36.264	-0.235	-0.126
-370.785	-93.496	0.149	-0.041
-369.771	-54.497	0.095	-0.043
-368.756	213.479	0.222	0.349
-367.742	-101.090	0.091	0.022
-366.727	110.431	-0.016	0.019
-365.712	106.667	-0.231	-0.273
-364.698	-10.850	0.345	0.227
-363.683	166.720	-0.248	-0.350
-362.669	-51.956	-0.169	0.078
-361.654	-16.464	0.169	-0.107
-360.639	82.495	-0.110	-0.119
-359.625	152.673	-0.120	-0.163
-358.610	178.481	0.177	0.258
-357.596	170.748	0.332	0.472
-356.581	91.749	-0.042	0.046
-355.566	170.659	0.165	-0.235
-354.552	-122.431	0.236	0.038
-353.537	-13.193	-0.168	0.108
-352.523	-200.000	0.030	-0.234
-351.508	-200.000	-0.042	0.307
-350.493	13.628	-0.076	-0.059
-349.479	-67.096	0.261	-0.102
-348.464	-4.565	0.152	-0.105
-347.450	84.691	0.088	0.096
-346.435	-89.097	0.280	0.082
-345.420	800.000	-0.051	-0.155
-344.406	-53.234	0.106	-0.049
-343.391	-165.638	-0.095	-0.004
-342.377	-200.000	0.039	0.321
-341.362	574.730	0.088	0.214
-340.348	133.576	-0.241	0.310
-339.333	-66.398	-0.331	0.131
-338.318	800.000	0.024	-0.069
-337.304	-89.875	-0.136	0.040
-336.289	-104.647	0.473	0.108
-335.275	-200.000	0.077	-0.449
-334.260	-200.000	-0.019	0.262
-333.245	344.096	0.086	0.167
-332.231	-73.449	0.103	0.037
-331.216	-0.269	-0.129	-0.091
-330.202	-160.362	0.361	-0.019
-329.187	-139.204	0.067	0.007
-328.172	398.087	-0.084	-0.175
-327.158	583.215	0.011	0.028
-326.143	-49.244	-0.165	-0.078
-325.129	329.802	-0.078	-0.148
-324.114	-173.503	0.388	0.012
-323.099	-200.000	0.009	-0.174
-322.085	-200.000	0.031	0.173
-321.070	30.190	-0.110	0.093
-320.056	-148.791	-0.194	0.016
-319.041	-28.471	-0.184	-0.105
-318.026	78.481	-0.078	-0.083
-317.012	-68.456	0.131	-0.051
-315.997	-200.000	0.020	-0.217
-314.983	800.000	-0.031	0.098
-313.968	10.009	0.109	0.082
-312.953	151.335	-0.097	0.131
-311.939	195.979	0.106	0.160
-310.924	0.171	-0.201	-0.142
-309.910	-200.000	-0.013	0.209
-308.895	-81.277	0.301	0.099
-307.880	24.515	-0.259	-0.212
-306.866	699.325	0.069	0.180
-305.851	-131.812	0.063	-0.008
-304.837	-200.000	0.003	-0.400
-303.822	-121.626	0.138	0.023
-302.807	-8.893	0.178	-0.119
-301.793	-28.565	-0.098	0.056
-300.778	-125.639	-0.142	-0.021
-299.764	-200.000	0.001	-0.553
-298.749	41.109	0.111	0.100
-297.735	137.716	-0.061	-0.079
-296.720	-131.479	0.328	-0.043
-295.705	310.465	0.142	0.264
-294.691	308.884	-0.184	0.341
-293.676	262.542	0.093	-0.160
-292.662	800.000	-0.039	0.137
-291.647	-200.000	-0.014	0.134
-290.632	800.000	0.057	0.199
-289.618	-200.000	0.010	-0.067
-288.603	622.712	-0.121	-0.302
-287.589	800.000	0.112	-0.434
-286.574	381.998	0.056	0.113
-285.559	20.241	-0.406	0.325
-284.545	81.483	0.275	0.294
-283.530	-163.970	-0.235	0.011
-282.516	-157.236	0.318	-0.019
-281.501	34.734	0.215	0.186
-280.486	95.811	0.097	-0.110
-279.472	-77.391	-0.082	0.028
-278.457	13.649	0.051	-0.040
-277.443	800.000	-0.110	-0.341
-276.428	-171.391	0.289	0.010
-275.413	201.582	-0.114	0.175
-274.399	-181.266	-0.238	0.005
-273.384	-32.241	0.244	0.135
-272.370	-13.608	0.360	-0.231
-271.355	31.124	0.207	-0.176
-270.340	281.824	-0.127	0.225
-269.326	-60.383	-0.200	-0.084
-268.311	-98.786	-0.201	-0.051
-267.297	319.362	0.124	0.232
-266.282	-74.002	-0.097	-0.035
-265.267	246.304	0.193	0.322
-264.253	56.405	0.128	0.123
-263.238	-22.834	0.317	-0.190
-262.224	-43.622	0.192	-0.096
-261.209	547.711	0.076	0.181
-260.195	176.550	0.081	0.117
-259.180	127.841	-0.251	0.316
-258.165	-81.927	0.268	0.087
-257.151	373.365	-0.192	0.386
-256.136	-76.857	-0.250	0.086
-255.122	-200.000	0.041	-0.351
-254.107	666.515	-0.034	-0.086
-253.092	800.000	0.008	0.024
-252.078	-138.411	0.282	-0.031
-251.063	-200.000	-0.006	0.096
-250.049	-200.000	0.034	0.249
-249.034	388.171	0.114	-0.233
-248.019	-96.542	0.097	0.025
-247.005	-96.017	-0.151	0.040
-245.990	-200.000	-0.007	0.037
-244.976	-200.000	0.127	-0.591
-243.961	262.078	0.101	0.173
-242.946	-94.534	0.338	-0.091
-241.932	-200.000	0.043	-0.194
-240.917	-200.000	-0.030	-0.285
-239.903	-1.678	0.153	-0.107
-238.888	-136.227	0.311	0.036
-237.873	-200.000	-0.002	0.186
-236.859	-32.973	-0.072	-0.040
-235.844	-200.000	-0.031	0.218
-234.830	-200.000	0.046	-0.211
-233.815	-31.813	-0.140	0.078
-232.800	-200.000	0.019	-0.096
-231.786	800.000	-0.063	-0.267
-230.771	-124.565	-0.298	-0.046
-229.757	-109.343	-0.110	0.023
-228.742	612.902	-0.080	-0.197
-227.727	55.510	-0.112	-0.108
-226.713	800.000	0.133	-0.409
-225.698	196.819	0.183	0.277
-224.684	548.018	0.121	-0.285
-223.669	-49.498	0.055	-0.026
-222.655	-33.985	0.150	0.082
-221.640	168.636	-0.146	0.205
-220.625	-73.149	0.260	-0.094
-219.611	-179.773	-0.060	-0.001
-218.596	800.000	-0.041	0.116
-217.582	800.000	-0.104	-0.322
-216.567	433.355	0.053	0.113
-215.552	-98.938	0.148	-0.037
-214.538	-77.101	-0.215	0.074
-213.523	-98.773	-0.261	-0.066
-212.509	708.560	0.042	0.110
-211.494	167.699	-0.275	0.387
-210.479	-162.143	-0.201	0.010
-209.465	44.396	0.069	0.063
-208.450	-200.000	-0.017	-0.132
-207.436	-200.000	0.037	-0.194
-206.421	-200.000	-0.021	-0.125
-205.406	-140.143	0.118	-0.012
-204.392	-200.000	0.007	-0.145
-203.377	-124.573	0.249	-0.038
-202.363	308.998	-0.065	0.119
-201.348	-87.683	-0.210	0.063
-200.333	323.887	0.138	-0.260
-199.319	800.000	-0.075	0.292
-198.304	1.455	-0.220	-0.156
-197.290	-107.654	-0.308	0.066
-196.275	-200.000	-0.048	-0.214
-195.260	-85.003	-0.193	0.060
-194.246	272.099	0.211	0.368
-193.231	-110.206	0.289	0.060
-192.217	-28.343	-0.090	-0.051
-191.202	-200.000	-0.038	-0.173
-190.187	-120.833	0.061	-0.010
-189.173	800.000	0.156	-0.428
-188.158	195.192	-0.152	-0.228
-187.144	-200.000	0.013	-0.101
-186.129	-96.894	-0.400	0.104
-185.114	-31.423	0.100	0.055
-184.100	79.513	-0.187	-0.198
-183.085	-101.276	-0.419	0.101
-182.071	-76.127	0.397	0.138
-181.056	352.803	-0.155	0.304
-180.042	40.176	-0.262	0.232
-179.027	-123.077	-0.122	-0.019
-178.012	-37.414	-0.216	-0.114
-176.998	-200.000	-0.004	0.208
-175.983	-200.000	-0.020	-0.123
-174.969	800.000	0.056	-0.197
-173.954	1.412	-0.090	0.064
-172.939	243.962	0.024	-0.039
-171.925	-159.601	0.439	-0.024
-170.910	-130.871	-0.429	0.057
-169.896	-200.000	-0.004	0.190
-168.881	-200.000	-0.013	0.149
-167.866	416.816	0.159	-0.335
-166.852	1.475	-0.177	-0.126
-165.837	-200.000	0.012	0.097
-164.823	75.530	-0.088	0.092
-163.808	-53.297	-0.056	-0.026
-162.793	800.000	-0.103	-0.292
-161.779	-100.860	0.102	-0.025
-160.764	-160.744	0.158	-0.008
-159.750	-41.845	0.393	0.199
-158.735	80.054	-0.014	0.015
-157.720	-125.006	0.123	0.019
-156.706	-33.449	0.296	-0.162
-155.691	-73.472	-0.242	-0.087
-154.677	111.705	0.116	0.138
-153.662	800.000	-0.094	-0.282
-152.647	184.322	-0.193	0.281
-151.633	-168.115	-0.174	0.007
-150.618	-24.606	0.308	0.181
-149.604	-200.000	-0.061	0.294
-148.589	646.463	0.060	0.152
-147.574	-109.336	-0.099	-0.021
-146.560	649.272	-0.066	0.168
-145.545	-168.913	0.125	0.005
-144.531	-101.954	0.093	-0.022
-143.516	75.140	0.015	-0.015
-142.502	800.000	-0.031	-0.104
-141.487	-106.516	-0.051	0.011
-140.472	-27.990	0.089	-0.051
-139.458	98.161	-0.207	0.235
-138.443	505.812	-0.027	0.061
-137.429	-177.563	-0.315	0.008
-136.414	-200.000	0.036	0.267
-135.399	-23.158	0.179	-0.106
-134.385	800.000	0.029	-0.124
-133.370	22.991	-0.345	-0.279
-132.356	94.137	0.195	0.218
-131.341	-3.728	-0.291	-0.199
-130.326	-200.000	-0.026	0.249
-129.312	648.846	-0.091	0.230
-128.297	36.744	-0.234	-0.204
-127.283	229.544	-0.121	-0.195
-126.268	198.147	-0.119	-0.179
-125.253	106.966	-0.025	0.030
-124.239	-95.992	0.505	0.133
-123.224	-54.300	-0.333	-0.149
-122.210	126.184	-0.037	-0.046
-121.195	-37.440	-0.211	0.111
-120.180	800.000	-0.079	-0.277
-119.166	-200.000	0.004	-0.107
-118.151	443.173	0.011	-0.024
-117.137	-12.934	0.235	-0.151
-116.122	-78.216	0.233	0.079
-115.107	-18.099	0.236	0.146
-114.093	-63.531	0.221	-0.089
-113.078	234.036	0.071	-0.115
-112.064	394.016	0.117	-0.240
-111.049	-119.462	-0.156	-0.027
-110.034	-200.000	-0.017	0.095
-109.020	-200.000	-0.020	0.098
-108.005	-19.978	0.183	-0.111
-106.991	-57.485	-0.268	-0.116
-105.976	-21.001	0.185	0.112
-104.962	-78.551	0.211	-0.071
-103.947	-200.000	0.037	0.172
-102.932	11.954	0.233	-0.176
-101.918	-169.617	0.297	0.011
-100.903	-67.141	0.220	-0.086
-99.889	-200.000	-0.014	0.085
-98.874	-43.555	0.204	-0.101
-97.859	3.163	0.139	0.099
-96.845	800.000	0.107	-0.297
-95.830	135.477	0.125	-0.160
-94.816	-200.000	0.023	-0.111
-93.801	284.513	-0.090	-0.159
-92.786	-113.720	-0.220	0.042
-91.772	1.081	0.100	-0.070
-90.757	-109.403	0.078	-0.016
-89.743	-170.649	0.164	-0.006
-88.728	-200.000	-0.034	0.169
-87.713	370.781	0.032	0.064
-86.699	332.448	0.025	-0.048
-85.684	246.549	-0.062	-0.102
-84.670	-200.000	0.034	0.160
-83.655	-200.000	-0.020	0.190
-82.640	-68.192	0.101	0.039
-81.626	267.314	-0.026	-0.045
-80.611	-86.793	0.333	-0.100
-79.597	78.173	0.174	0.183
-78.582	64.910	0.209	-0.208
-77.567	-200.000	0.008	0.432
-76.553	417.716	-0.100	-0.210
-75.538	7.696	0.286	-0.210
-74.524	645.400	0.112	0.281
-73.509	-200.000	-0.017	0.249
-72.494	235.063	0.174	-0.283
-71.480	78.109	-0.124	-0.130
-70.465	800.000	0.045	0.195
-69.451	-200.000	-0.020	-0.334
-68.436	-200.000	0.001	-0.059
-67.422	178.620	-0.192	-0.276
-66.407	500.170	-0.116	0.262
-65.392	15.367	0.026	0.020
-64.378	-200.000	0.016	-0.070
-63.363	359.149	-0.175	-0.344
-62.349	-200.000	-0.055	0.243
-61.334	327.438	-0.521	-0.982
-60.319	-200.000	0.014	0.622
-59.305	-200.000	-0.162	-0.922
-58.290	595.085	0.441	1.071
-57.276	495.676	0.564	1.274
-56.261	-200.000	96.638	579.598
-55.246	546.893	1387.148	3260.510
-54.232	155.811	2584.234	3498.533
-53.217	105.610	2275.475	2642.545
-52.203	42.688	1897.122	1696.974
-51.188	36.921	1687.630	1466.055
-50.173	34.237	1643.932	1408.216
-49.159	51.781	1690.871	1580.275
-48.144	53.720	1706.863	1609.680
-47.130	36.623	1665.959	1444.774
-46.115	33.728	1652.135	1411.238
-45.100	33.470	1647.205	1405.059
-44.086	33.482	1644.590	1402.857
-43.071	33.451	1641.957	1400.328
-42.057	33.478	1639.294	1398.201
-41.042	33.499	1637.137	1396.460
-40.027	33.525	1634.877	1394.670
-39.013	33.396	1633.602	1392.577
-37.998	33.341	1632.600	1391.262
-36.984	33.549	1630.969	1391.342
-35.969	33.655	1628.990	1390.377
-34.954	33.690	1627.533	1389.338
-33.940	33.631	1625.685	1387.276
-32.925	33.676	1623.997	1386.103
-31.911	33.731	1621.945	1384.701
-30.896	33.556	1620.568	1382.192
-29.881	33.617	1618.525	1380.840
-28.867	33.682	1616.756	1379.752
-27.852	33.676	1615.018	1378.166
-26.838	33.705	1613.709	1377.208
-25.823	33.651	1612.700	1375.898
-24.809	33.701	1611.067	1374.818
-23.794	33.708	1609.472	1373.450
-22.779	33.644	1608.393	1372.011
-21.765	33.734	1606.803	1371.248
-20.750	33.588	1605.006	1368.612
-19.736	33.639	1603.823	1367.914
-18.721	33.683	1602.126	1366.731
-17.706	33.559	1601.251	1365.034
-16.692	33.583	1599.742	1363.864
-15.677	33.664	1598.111	1363.002
-14.663	33.673	1596.346	1361.512
-13.648	33.654	1595.094	1360.252
-12.633	33.644	1593.770	1359.001
-11.619	33.640	1592.410	1357.752
-10.604	33.689	1590.609	1356.515
-9.590	33.737	1588.937	1355.376
-8.575	33.687	1588.141	1354.286
-7.560	33.800	1586.850	1353.940
-6.546	33.769	1585.805	1352.775
-5.531	33.688	1584.566	1351.086
-4.517	33.693	1583.581	1350.227
-3.502	33.679	1582.169	1348.872
-2.487	33.678	1581.174	1347.965
-1.473	33.425	1569.006	1335.755
-0.458	30.807	1550.340	1301.534
0.556	27.767	1551.120	1272.105
1.571	25.554	1575.350	1276.176
2.586	25.203	1588.800	1284.440
3.600	22.530	1535.803	1222.960
4.615	12.827	1424.556	1071.495
5.629	3.774	1357.493	964.659
6.644	2.162	1348.504	948.182
7.659	2.001	1347.757	946.578
8.673	1.959	1346.011	945.007
9.688	1.928	1344.255	943.500
10.702	1.675	1341.327	939.801
11.717	5.101	1348.908	966.267
12.731	15.514	1367.972	1044.945
13.746	23.892	1382.494	1108.403
14.761	26.087	1384.669	1123.737
15.775	26.361	1384.671	1125.344
16.790	26.337	1384.446	1124.910
17.804	26.445	1383.597	1124.796
18.819	26.611	1383.798	1125.892
19.834	26.817	1382.582	1126.083
20.848	26.875	1381.656	1125.583
21.863	26.821	1381.132	1124.727
22.877	26.817	1380.249	1123.879
23.892	26.813	1379.341	1123.016
24.907	26.843	1378.425	1122.355
25.921	26.719	1377.961	1121.114
26.936	26.825	1376.509	1120.488
27.950	26.867	1375.254	1119.627
28.965	26.837	1374.316	1118.582
29.980	26.814	1372.945	1117.222
30.994	26.743	1371.958	1115.884
32.009	26.873	1370.488	1115.391
33.023	26.740	1369.780	1113.899
34.038	26.854	1368.585	1113.524
35.053	26.814	1367.987	1112.693
36.067	26.783	1366.884	1111.508
37.082	26.831	1365.231	1110.360
38.096	26.721	1364.864	1109.293
39.111	26.836	1363.977	1109.177
40.126	26.745	1363.495	1108.127
41.140	26.721	1362.674	1107.217
42.155	26.798	1362.622	1107.549
43.169	26.861	1362.261	1107.541
44.184	26.831	1361.895	1106.960
45.199	26.881	1361.548	1106.885
46.213	26.892	1360.728	1106.189
47.228	26.791	1360.260	1105.097
48.242	26.892	1358.842	1104.462
49.257	26.839	1357.798	1103.191
50.271	26.800	1356.110	1101.485
51.286	26.829	1354.400	1100.178
52.301	26.731	1353.634	1098.863
53.315	26.647	1353.039	1097.774
54.330	26.767	1352.091	1097.635
55.344	26.819	1350.702	1096.720
56.359	26.863	1349.692	1096.071
57.374	26.848	1348.750	1095.119
58.388	26.826	1348.173	1094.422
59.403	26.746	1348.160	1093.829
60.417	26.773	1347.318	1093.216
61.432	26.711	1347.029	1092.509
62.447	26.817	1345.803	1092.059
63.461	26.847	1344.592	1091.155
64.476	26.764	1343.993	1090.078
65.490	26.814	1342.693	1089.223
66.505	26.794	1341.390	1087.950
67.520	26.866	1340.008	1087.165
68.534	26.766	1339.268	1085.871
69.549	26.878	1337.899	1085.336
70.563	26.785	1337.414	1084.289
71.578	26.724	1336.278	1082.906
72.593	26.792	1335.451	1082.549
73.607	26.862	1335.004	1082.506
74.622	26.835	1334.064	1081.488
75.636	26.839	1333.500	1080.956
76.651	26.863	1332.285	1080.020
77.666	26.760	1332.600	1079.569
78.680	26.783	1331.839	1078.991
79.695	26.858	1330.742	1078.451
80.709	26.814	1330.263	1077.708
81.724	26.848	1329.247	1076.994
82.739	26.752	1328.357	1075.605
83.753	26.749	1327.511	1074.808
84.768	26.852	1326.302	1074.346
85.782	26.888	1324.886	1073.313
86.797	26.800	1324.154	1072.110
87.812	26.880	1323.260	1071.760
88.826	26.902	1322.368	1071.074
89.841	26.824	1320.981	1069.396
90.855	26.885	1319.935	1068.813
91.870	26.831	1319.524	1068.069
92.884	26.821	1318.493	1067.078
93.899	26.914	1317.818	1066.984
94.914	26.877	1316.763	1065.821
95.928	26.800	1316.508	1065.068
96.943	26.932	1315.181	1064.672
97.957	26.895	1314.492	1063.804
98.972	26.816	1314.175	1062.993
99.987	26.881	1312.623	1062.021
101.001	26.842	1311.946	1061.149
102.016	26.819	1311.430	1060.505
103.030	26.854	1310.381	1059.771
104.045	26.854	1309.536	1058.993
105.060	26.934	1308.800	1058.768
106.074	26.900	1307.200	1057.184
107.089	26.980	1306.171	1056.725
108.103	26.960	1305.449	1055.930
109.118	26.941	1304.745	1055.157
110.133	26.989	1303.320	1054.188
111.147	26.988	1301.888	1052.933
112.162	26.991	1301.070	1052.193
113.176	26.915	1300.070	1050.854
114.191	26.920	1299.474	1050.305
115.206	26.938	1298.280	1049.354
116.220	26.965	1297.228	1048.569
117.235	26.899	1296.624	1047.603
118.249	26.915	1295.820	1046.956
119.264	26.934	1294.806	1046.149
120.279	26.995	1294.155	1045.885
121.293	27.071	1293.550	1045.739
122.308	27.029	1292.537	1044.589
123.322	27.037	1291.657	1043.832
124.337	27.053	1290.695	1043.051
125.352	27.063	1290.183	1042.605
126.366	27.020	1289.238	1041.501
127.381	27.060	1288.382	1040.947
128.395	27.121	1287.388	1040.403
129.410	26.973	1286.709	1038.912
130.424	27.072	1286.092	1038.887
131.439	26.969	1285.541	1037.765
132.454	26.891	1284.642	1036.500
133.468	26.986	1284.029	1036.458
134.483	27.017	1283.323	1035.971
135.497	27.054	1282.653	1035.550
136.512	27.076	1281.623	1034.754
137.527	27.128	1280.134	1033.754
138.541	27.004	1279.223	1032.220
139.556	26.990	1278.112	1031.154
140.570	26.964	1277.149	1030.138
141.585	27.007	1276.250	1029.569
142.600	27.100	1274.788	1028.822
143.614	26.969	1274.427	1027.696
144.629	26.904	1273.778	1026.717
145.643	26.973	1271.987	1025.571
146.658	26.950	1271.055	1024.598
147.673	26.872	1270.444	1023.577
148.687	26.940	1269.210	1022.873
149.702	26.941	1268.068	1021.872
150.716	26.947	1266.634	1020.660
151.731	26.915	1265.687	1019.623
152.746	27.032	1264.675	1019.377
153.760	26.998	1264.259	1018.757
154.775	27.031	1263.031	1017.865
155.789	27.138	1262.108	1017.628
156.804	26.976	1261.268	1015.958
157.819	26.983	1260.415	1015.219
158.833	26.940	1259.817	1014.407
159.848	27.059	1258.805	1014.169
160.862	26.994	1258.414	1013.399
161.877	27.211	1257.323	1013.643
162.892	27.185	1256.246	1012.539
163.906	27.074	1256.272	1011.850
164.921	27.140	1255.335	1011.376
165.935	27.069	1254.690	1010.372
166.950	27.130	1254.368	1010.362
167.964	27.175	1252.870	1009.312
168.979	27.148	1253.041	1009.213
169.994	27.140	1252.046	1008.276
171.008	27.151	1251.539	1007.842
172.023	27.100	1250.649	1006.753
173.037	27.115	1249.964	1006.196
174.052	27.161	1249.328	1005.847
175.067	27.094	1248.622	1004.821
176.081	27.255	1247.654	1004.843
177.096	27.245	1246.710	1003.941
178.110	27.139	1246.010	1002.700
179.125	27.167	1244.809	1001.800
180.140	27.288	1243.669	1001.460
181.154	27.143	1242.746	999.831
182.169	27.184	1241.882	999.271
183.183	27.171	1240.644	998.117
184.198	27.113	1240.128	997.293
185.213	27.118	1238.854	996.212
186.227	27.196	1238.213	996.032
187.242	27.305	1237.193	995.722
188.256	27.319	1235.986	994.737
189.271	27.141	1235.783	993.514
190.286	27.182	1235.071	993.075
191.300	27.206	1234.453	992.624
192.315	27.173	1233.690	991.741
193.329	27.242	1233.208	991.641
194.344	27.187	1233.182	991.234
195.359	27.349	1232.170	991.217
196.373	27.263	1231.830	990.387
197.388	27.135	1231.770	989.555
198.402	27.170	1231.146	989.158
199.417	27.216	1231.041	989.234
200.432	27.250	1230.358	988.783
201.446	27.086	1230.195	987.673
202.461	27.174	1229.247	987.300
203.475	27.141	1228.531	986.462
204.490	27.074	1227.549	985.223
205.504	27.217	1226.369	984.958
206.519	27.221	1225.528	984.220
207.534	27.303	1224.103	983.433
208.548	27.247	1223.099	982.238
209.563	27.219	1222.841	981.788
210.577	27.186	1222.064	980.903
211.592	27.277	1220.962	980.423
212.607	27.411	1219.850	980.162
213.621	27.401	1219.247	979.540
214.636	27.342	1218.854	978.817
215.650	27.381	1217.853	978.140
216.665	27.441	1216.747	977.484
217.680	27.367	1215.670	976.135
218.694	27.203	1215.927	975.377
219.709	27.472	1214.674	975.726
220.723	27.356	1214.071	974.534
221.738	27.363	1213.219	973.802
222.753	27.245	1212.673	972.648
223.767	27.345	1212.317	972.808
224.782	27.352	1211.847	972.381
225.796	27.481	1211.174	972.448
226.811	27.434	1210.393	971.482
227.826	27.376	1210.126	970.872
228.840	27.437	1209.253	970.411
229.855	27.452	1208.431	969.744
230.869	27.458	1207.537	968.973
231.884	27.432	1206.957	968.288
232.899	27.364	1206.576	967.531
233.913	27.392	1205.952	967.096
234.928	27.488	1205.667	967.292
235.942	27.586	1204.659	966.917
236.957	27.402	1204.070	965.381
237.972	27.535	1203.046	965.181
238.986	27.446	1202.552	964.229
240.001	27.584	1202.101	964.509
241.015	27.685	1201.054	964.120
242.030	27.559	1200.473	962.903
243.045	27.621	1199.782	962.592
244.059	27.642	1199.156	962.112
245.074	27.583	1198.506	961.197
246.088	27.586	1197.562	960.369
247.103	27.601	1196.508	959.519
248.117	27.592	1195.872	958.874
249.132	27.683	1195.217	958.746
250.147	27.661	1194.328	957.830
251.161	27.606	1193.718	956.970
252.176	27.618	1193.165	956.501
253.190	27.681	1192.568	956.268
254.205	27.768	1191.409	955.711
255.220	27.674	1191.371	955.106
256.234	27.725	1190.668	954.723
257.249	27.734	1190.198	954.306
258.263	27.731	1189.535	953.675
259.278	27.836	1189.013	953.723
260.293	27.712	1188.378	952.483
261.307	27.723	1187.891	952.063
262.322	27.765	1187.295	951.724
263.336	27.880	1186.586	951.670
264.351	27.652	1186.264	950.139
265.366	27.721	1185.358	949.688
266.380	27.754	1184.741	949.283
267.395	27.703	1184.284	948.563
268.409	27.741	1183.486	948.037
269.424	27.876	1183.090	948.342
270.439	27.761	1182.649	947.305
271.453	27.781	1181.651	946.528
272.468	27.806	1180.845	945.926
273.482	27.695	1180.875	945.289
274.497	27.898	1179.651	945.279
275.512	27.923	1179.122	944.900
276.526	27.897	1178.626	944.283
277.541	27.799	1178.068	943.249
278.555	27.970	1177.433	943.538
279.570	27.771	1176.550	941.721
280.585	27.803	1175.839	941.232
281.599	27.887	1175.043	940.946
282.614	27.887	1173.657	939.754
283.628	27.992	1172.984	939.672
284.643	27.899	1172.416	938.654
285.657	27.942	1171.572	938.119
286.672	27.866	1171.013	937.194
287.687	27.894	1170.206	936.613
288.701	28.040	1169.501	936.713
289.716	28.034	1168.830	936.059
290.730	28.077	1167.962	935.500
291.745	28.031	1167.457	934.780
292.760	28.011	1166.876	934.130
293.774	28.037	1166.333	933.747
294.789	28.159	1165.707	933.785
295.803	28.098	1165.343	933.100
296.818	28.185	1164.398	932.705
297.833	28.076	1164.211	931.916
298.847	28.051	1162.997	930.732
299.862	27.983	1162.628	930.010
300.876	28.106	1161.657	929.775
301.891	28.100	1161.460	929.505
302.906	28.233	1160.247	929.126
303.920	28.277	1159.919	929.008
304.935	28.195	1159.302	928.014
305.949	28.160	1158.308	926.960
306.964	28.268	1157.826	927.036
307.979	28.179	1157.303	926.089
308.993	28.224	1156.765	925.805
310.008	28.218	1155.684	924.823
311.022	28.223	1154.930	924.163
312.037	28.311	1154.398	924.099
313.052	28.293	1153.262	923.022
314.066	28.116	1152.962	921.807
315.081	28.344	1151.982	922.091
316.095	28.083	1152.098	920.785
317.110	28.173	1150.757	920.086
318.125	28.258	1150.360	920.116
319.139	28.358	1149.376	919.746
320.154	28.230	1149.292	918.957
321.168	28.129	1148.927	918.076
322.183	28.183	1148.309	917.773
323.197	28.181	1147.456	917.001
324.212	28.261	1146.685	916.700
325.227	28.311	1146.614	916.815
326.241	28.335	1145.800	916.201
327.256	28.350	1144.852	915.440
328.270	28.273	1144.292	914.526
329.285	28.334	1143.627	914.215
330.300	28.412	1142.785	913.852
331.314	28.443	1141.424	912.840
332.329	28.421	1140.847	912.187
333.343	28.558	1139.829	911.971
334.358	28.449	1139.455	911.050
335.373	28.435	1139.052	910.580
336.387	28.502	1138.250	910.191
337.402	28.620	1137.389	910.006
338.416	28.521	1137.043	909.158
339.431	28.584	1136.144	908.671
340.446	28.479	1136.005	907.956
341.460	28.525	1135.503	907.704
342.475	28.523	1134.560	906.861
343.489	28.509	1133.655	905.989
344.504	28.523	1132.629	905.159
345.519	28.594	1131.526	904.548
346.533	28.639	1131.127	904.365
347.548	28.523	1130.613	903.303
348.562	28.622	1129.898	903.140
349.577	28.552	1128.902	901.921
350.592	28.525	1128.528	901.409
351.606	28.590	1127.572	900.887
352.621	28.690	1126.928	900.784
353.635	28.605	1126.761	900.152
354.650	28.673	1126.087	899.869
355.665	28.686	1125.284	899.209
356.679	28.700	1124.934	898.921
357.694	28.614	1124.415	898.004
358.708	28.687	1123.373	897.451
359.723	28.717	1122.618	896.914
360.738	28.619	1122.124	895.959
361.752	28.709	1121.417	895.754
362.767	28.854	1120.747	895.846
363.781	28.719	1120.309	894.762
364.796	28.853	1120.022	895.108
365.810	28.880	1119.194	894.496
366.825	28.791	1118.603	893.513
367.840	28.891	1118.336	893.707
368.854	28.955	1117.821	893.527
369.869	28.873	1117.110	892.482
370.883	28.955	1116.051	891.955
371.898	28.908	1114.937	890.758
372.913	28.839	1114.818	890.246
373.927	28.942	1114.594	890.488
374.942	28.878	1114.128	889.727
375.956	28.796	1113.894	889.067
376.971	28.844	1113.127	888.609
377.986	29.012	1112.087	888.511
379.000	29.115	1111.565	888.511
380.015	29.185	1110.886	888.227
381.029	28.925	1110.794	886.822
382.044	29.004	1109.698	886.246
383.059	29.136	1109.157	886.372
384.073	29.091	1108.585	885.621
385.088	29.049	1107.974	884.853
386.102	29.117	1106.888	884.236
387.117	29.120	1105.897	883.377
388.132	28.965	1105.234	882.027
389.146	29.128	1104.479	882.126
390.161	29.125	1104.018	881.667
391.175	29.053	1103.437	880.782
392.190	29.105	1102.789	880.433
393.205	29.091	1102.115	879.750
394.219	29.100	1101.428	879.167
395.234	29.278	1100.626	879.301
396.248	29.159	1099.798	877.991
397.263	29.132	1099.088	877.218
398.278	29.255	1098.596	877.334
399.292	29.260	1098.140	876.918
400.307	29.201	1097.180	875.792
401.321	29.235	1096.433	875.282
402.336	29.129	1096.321	874.608
403.350	29.323	1095.311	874.649
404.365	29.358	1094.089	873.759
405.380	29.320	1094.044	873.468
406.394	29.311	1093.676	873.053
407.409	29.409	1092.738	872.688
408.423	29.449	1091.695	871.968
409.438	29.347	1091.289	871.085
410.453	29.445	1090.516	870.856
411.467	29.418	1090.046	870.273
412.482	29.328	1089.159	869.067
413.496	29.332	1088.681	868.626
414.511	29.425	1088.050	868.484
415.526	29.324	1087.781	867.716
416.540	29.468	1087.047	867.729
417.555	29.363	1086.771	866.940
418.569	29.467	1086.001	866.736
419.584	29.364	1086.128	866.278
420.599	29.403	1085.543	865.918
421.613	102.813	1320.300	1450.588
422.628	95.725	1354.439	1450.705
