DTS Sentinel unit serial number:	SN413079Multiplexer serial number:	ORYXHardware model number:	OX4-SRSoftware version number:	ORYX F/W v4.00 Oryx Data Collector v3.7.2.0data status	okinstallation	princeton_trtdifferential loss correction	single-endedforward channel	channel 2reverse channel	N/Adate	2019/09/12time	07:13:11forward acquisition time	60.00reverse acquisition time	0.00gamma	496.2192k internal	0.2323k external	0.2323temperature offset calibration	1.0064default loss term (dB/km)	0.3790temperature slope calibration	1.0000multiplexer offset coefficient	1.0000multiplexer slope coefficient	1.0000fibre end	0.00T internal ref (°C)	32.20T ext. ref 1 (°C)	1.59T ext. ref 2 (°C)	28.13length (m)	temperature (°C)	Stokes	anti-Stokes-747.200	-200.000	0.042	-0.285
-746.185	111.518	0.149	0.181
-745.171	-200.000	0.010	-0.337
-744.156	78.473	0.219	0.237
-743.142	-33.090	0.147	-0.082
-742.127	-87.572	-0.353	0.108
-741.112	-57.393	-0.326	0.145
-740.098	381.235	-0.178	0.370
-739.083	84.729	0.303	-0.335
-738.069	800.000	-0.092	0.375
-737.054	-200.000	-0.004	-0.114
-736.039	800.000	0.019	-0.052
-735.025	-87.899	-0.095	0.029
-734.010	-113.231	0.217	-0.043
-732.996	-200.000	0.014	0.111
-731.981	-155.769	-0.029	-0.002
-730.966	-15.440	0.187	-0.120
-729.952	-122.328	-0.155	-0.025
-728.937	103.186	0.139	-0.165
-727.923	101.863	-0.124	-0.146
-726.908	28.129	0.138	0.118
-725.894	101.782	-0.229	-0.269
-724.879	120.724	0.187	-0.235
-723.864	-11.090	-0.268	-0.178
-722.850	21.467	0.251	0.206
-721.835	-200.000	0.014	-0.116
-720.821	-58.952	-0.159	-0.069
-719.806	125.447	-0.133	-0.169
-718.791	52.283	0.190	-0.183
-717.777	774.759	0.070	0.191
-716.762	-83.491	0.189	0.061
-715.748	-104.521	0.160	-0.037
-714.733	187.299	0.127	-0.191
-713.718	673.246	-0.090	-0.236
-712.704	-172.720	-0.346	0.011
-711.689	-200.000	0.054	-0.299
-710.675	80.292	0.039	-0.043
-709.660	-200.000	0.014	0.179
-708.645	-120.570	-0.110	0.019
-707.631	350.329	-0.072	-0.144
-706.616	-200.000	0.007	-0.247
-705.602	-77.723	0.046	-0.016
-704.587	65.193	-0.125	-0.128
-703.572	-200.000	0.009	-0.056
-702.558	-200.000	0.014	0.115
-701.543	800.000	-0.023	-0.099
-700.529	535.446	-0.081	0.195
-699.514	-94.243	0.173	0.048
-698.499	734.610	0.097	0.262
-697.485	-200.000	0.002	0.127
-696.470	800.000	-0.137	0.445
-695.456	60.674	0.182	0.182
-694.441	-11.462	-0.099	-0.065
-693.426	311.152	-0.238	-0.449
-692.412	-159.764	0.359	-0.020
-691.397	-41.438	0.123	0.064
-690.383	-134.411	-0.081	0.010
-689.368	-128.006	-0.076	-0.011
-688.354	-20.200	-0.142	-0.088
-687.339	149.347	-0.097	0.133
-686.324	-143.917	0.151	-0.014
-685.310	50.116	0.196	0.186
-684.295	-200.000	-0.027	0.269
-683.281	-51.738	0.288	0.135
-682.266	-57.636	-0.116	0.051
-681.251	-28.202	-0.091	0.053
-680.237	-200.000	0.008	-0.326
-679.222	-52.894	-0.100	-0.047
-678.208	-200.000	0.008	-0.093
-677.193	663.946	-0.021	-0.054
-676.178	361.273	-0.197	0.398
-675.164	-16.084	0.024	-0.016
-674.149	-200.000	0.062	0.320
-673.135	-200.000	-0.036	0.707
-672.120	-127.802	-0.328	-0.048
-671.105	-200.000	-0.017	0.175
-670.091	121.295	0.320	0.401
-669.076	48.759	-0.177	0.167
-668.062	599.456	0.060	0.150
-667.047	1.713	-0.232	-0.168
-666.032	155.695	0.117	0.162
-665.018	-200.000	-0.032	-0.156
-664.003	477.154	0.126	0.286
-662.989	-43.861	0.103	0.052
-661.974	-153.303	-0.321	0.023
-660.959	67.520	0.147	-0.151
-659.945	-25.992	0.175	0.104
-658.930	121.378	-0.020	0.025
-657.916	-45.275	0.242	-0.121
-656.901	-126.746	-0.373	0.055
-655.886	89.767	-0.127	-0.142
-654.872	700.826	0.166	-0.439
-653.857	-152.427	0.465	-0.034
-652.843	-115.762	-0.322	0.061
-651.828	-199.162	-0.256	-0.001
-650.814	279.452	-0.064	0.115
-649.799	-126.511	-0.265	-0.040
-648.784	-61.040	0.200	-0.085
-647.770	-18.813	-0.176	0.110
-646.755	229.984	-0.147	-0.242
-645.741	-139.670	0.257	-0.028
-644.726	-36.071	0.126	-0.069
-643.711	82.614	-0.096	0.104
-642.697	-181.619	-0.058	0.001
-641.682	-2.944	-0.108	-0.076
-640.668	-65.863	-0.272	0.110
-639.653	54.794	0.108	-0.104
-638.638	-200.000	0.011	-0.299
-637.624	242.221	-0.137	-0.231
-636.609	-45.936	0.208	0.103
-635.595	15.998	-0.052	0.042
-634.580	-200.000	0.017	0.078
-633.565	800.000	0.068	-0.190
-632.551	-20.048	-0.140	0.087
-631.536	-200.000	0.017	-0.281
-630.522	155.620	-0.217	0.300
-629.507	-200.000	0.011	0.122
-628.492	524.525	0.090	-0.213
-627.478	-200.000	-0.057	-0.412
-626.463	128.476	-0.067	-0.086
-625.449	800.000	0.073	0.245
-624.434	800.000	0.110	0.358
-623.419	56.542	0.433	-0.423
-622.405	6.100	-0.024	0.018
-621.390	4.554	0.221	0.163
-620.376	316.313	-0.181	-0.344
-619.361	256.688	0.115	-0.199
-618.346	195.336	0.259	-0.396
-617.332	107.047	0.048	-0.057
-616.317	-200.000	0.010	0.180
-615.303	800.000	0.028	-0.105
-614.288	-93.365	-0.234	0.065
-613.273	800.000	-0.053	-0.171
-612.259	-200.000	-0.045	0.233
-611.244	-3.692	0.183	-0.127
-610.230	-200.000	-0.089	-0.419
-609.215	-78.146	-0.113	-0.039
-608.201	448.761	0.027	-0.059
-607.186	-31.921	0.236	-0.133
-606.171	112.901	-0.275	0.335
-605.157	-200.000	0.023	-0.303
-604.142	800.000	0.086	0.256
-603.128	101.515	0.024	0.028
-602.113	609.339	0.075	0.188
-601.098	-59.455	-0.083	0.036
-600.084	247.562	0.154	-0.262
-599.069	24.251	0.343	-0.285
-598.055	800.000	-0.061	-0.175
-597.040	-165.415	0.126	-0.006
-596.025	39.721	-0.251	-0.226
-595.011	25.790	0.096	-0.080
-593.996	800.000	-0.037	0.134
-592.982	312.140	-0.131	-0.246
-591.967	-200.000	0.498	-0.002
-590.952	36.959	-0.165	0.146
-589.938	-112.772	-0.129	0.026
-588.923	-99.823	-0.170	-0.043
-587.909	-47.464	0.276	-0.135
-586.894	-133.800	-0.185	-0.023
-585.879	-92.038	-0.380	-0.108
-584.865	133.266	0.187	-0.243
-583.850	162.207	-0.069	0.096
-582.836	111.724	-0.165	-0.200
-581.821	2.470	0.191	-0.139
-580.806	325.375	0.161	-0.309
-579.792	-182.233	-0.114	-0.002
-578.777	-163.086	-0.188	-0.009
-577.763	-49.589	-0.317	0.151
-576.748	237.240	0.096	-0.160
-575.733	800.000	0.122	0.342
-574.719	-35.451	0.234	-0.128
-573.704	-133.134	-0.397	-0.050
-572.690	-143.961	0.226	0.021
-571.675	-200.000	-0.040	0.200
-570.661	699.724	0.102	-0.268
-569.646	-108.552	-0.225	0.048
-568.631	-200.000	-0.022	0.157
-567.617	-75.774	0.094	-0.033
-566.602	114.012	-0.176	0.214
-565.588	-152.402	-0.359	-0.026
-564.573	302.533	0.179	0.331
-563.558	-19.913	0.211	-0.131
-562.544	-19.019	-0.253	0.158
-561.529	47.366	0.121	0.113
-560.515	57.474	0.147	-0.144
-559.500	244.927	0.044	-0.074
-558.485	-200.000	-0.023	0.266
-557.471	150.260	-0.135	0.184
-556.456	800.000	0.068	-0.210
-555.442	-200.000	0.007	0.142
-554.427	-200.000	0.007	-0.141
-553.412	-200.000	-0.009	-0.096
-552.398	-89.783	-0.225	0.066
-551.383	-200.000	0.023	-0.159
-550.369	800.000	-0.049	-0.138
-549.354	-191.795	-0.278	-0.003
-548.339	105.214	0.255	-0.302
-547.325	189.941	-0.068	-0.103
-546.310	263.501	0.112	0.195
-545.296	394.484	-0.020	0.042
-544.281	-200.000	0.024	0.140
-543.266	800.000	0.029	0.110
-542.252	-154.908	0.367	-0.024
-541.237	-200.000	0.023	-0.177
-540.223	-200.000	-0.025	-0.200
-539.208	-42.267	-0.147	-0.075
-538.193	6.110	-0.099	-0.074
-537.179	-0.895	0.211	0.150
-536.164	76.552	-0.056	-0.059
-535.150	-116.277	-0.234	-0.043
-534.135	-200.000	0.001	0.110
-533.121	47.578	-0.057	-0.053
-532.106	20.509	0.155	0.126
-531.091	-79.718	0.338	0.114
-530.077	-200.000	-0.027	0.122
-529.062	-70.855	0.182	-0.069
-528.048	800.000	-0.087	0.261
-527.033	73.675	-0.226	-0.237
-526.018	800.000	-0.052	0.167
-525.004	144.368	-0.083	0.111
-523.989	-92.820	-0.114	-0.032
-522.975	800.000	-0.032	0.095
-521.960	634.133	-0.048	-0.122
-520.945	89.944	0.258	-0.288
-519.931	66.410	-0.100	0.102
-518.916	337.757	0.080	0.155
-517.902	-103.735	-0.409	-0.096
-516.887	169.786	-0.151	-0.216
-515.872	-3.142	-0.196	0.137
-514.858	800.000	0.079	0.287
-513.843	101.513	0.035	-0.041
-512.829	-200.000	-0.012	0.147
-511.814	-176.581	-0.285	-0.007
-510.799	448.287	0.188	0.413
-509.785	-200.000	-0.002	-0.210
-508.770	5.092	-0.330	-0.243
-507.756	-106.237	-0.455	-0.102
-506.741	219.179	-0.121	-0.193
-505.726	-200.000	-0.034	0.293
-504.712	800.000	0.022	0.076
-503.697	-92.925	0.114	0.032
-502.683	224.187	-0.058	-0.094
-501.668	270.555	-0.149	0.262
-500.653	-86.064	-0.104	0.032
-499.639	-137.877	-0.494	-0.055
-498.624	-19.910	0.115	-0.071
-497.610	-165.661	0.241	-0.010
-496.595	204.645	0.074	0.115
-495.581	-191.273	0.368	-0.004
-494.566	142.426	-0.251	0.333
-493.551	800.000	0.059	-0.218
-492.537	-157.711	-0.218	0.013
-491.522	-34.370	-0.245	0.134
-490.508	62.854	0.188	0.188
-489.493	125.077	-0.037	0.046
-488.478	-38.655	-0.110	0.058
-487.464	-33.119	0.135	-0.075
-486.449	134.002	0.089	0.116
-485.435	369.881	-0.051	0.103
-484.420	-24.689	-0.152	0.090
-483.405	-127.740	0.202	0.029
-482.391	521.269	-0.053	-0.124
-481.376	-164.861	-0.107	-0.005
-480.362	0.149	-0.113	-0.080
-479.347	24.408	-0.023	0.019
-478.332	328.921	0.009	0.017
-477.318	-153.047	-0.225	-0.016
-476.303	109.758	-0.051	0.062
-475.289	197.061	-0.080	0.122
-474.274	-123.888	-0.120	-0.019
-473.259	199.839	0.127	0.195
-472.245	-157.268	-0.173	0.010
-471.230	-132.214	-0.135	0.017
-470.216	335.106	0.064	0.124
-469.201	-200.000	-0.015	0.158
-468.186	-200.000	0.057	-0.283
-467.172	-82.635	0.080	0.026
-466.157	-67.882	0.053	0.021
-465.143	-46.016	-0.377	0.186
-464.128	1.653	0.208	0.149
-463.113	106.635	-0.302	-0.358
-462.099	-154.142	-0.069	-0.005
-461.084	-134.286	-0.072	0.009
-460.070	-72.417	-0.115	-0.042
-459.055	-53.444	0.292	0.134
-458.040	150.304	0.063	0.086
-457.026	-87.055	-0.186	-0.057
-456.011	563.695	-0.062	0.151
-454.997	800.000	-0.055	0.164
-453.982	121.426	-0.187	-0.233
-452.968	87.703	0.069	-0.077
-451.953	800.000	0.100	-0.277
-450.938	-181.524	-0.395	0.008
-449.924	345.248	-0.068	0.134
-448.909	-112.361	0.172	0.034
-447.895	47.412	0.199	-0.185
-446.880	240.610	-0.120	-0.200
-445.865	-167.091	-0.210	-0.009
-444.851	90.689	-0.045	-0.051
-443.836	-173.028	-0.258	0.008
-442.822	-75.356	-0.337	-0.120
-441.807	-200.000	-0.036	-0.167
-440.792	488.391	-0.175	-0.399
-439.778	-38.743	0.158	0.083
-438.763	712.027	0.035	0.092
-437.749	637.144	0.138	-0.351
-436.734	-152.440	-0.502	-0.036
-435.719	-116.161	0.329	-0.061
-434.705	-200.000	0.003	0.183
-433.690	33.191	-0.074	-0.064
-432.676	451.188	0.113	0.248
-431.661	-200.000	-0.000	0.182
-430.646	-13.519	-0.064	0.041
-429.632	-200.000	-0.038	0.208
-428.617	224.944	-0.296	-0.478
-427.603	-84.489	0.195	-0.062
-426.588	-140.044	0.200	0.021
-425.573	-30.281	-0.181	-0.103
-424.559	800.000	0.067	0.194
-423.544	70.413	0.248	-0.256
-422.530	89.399	0.136	0.151
-421.515	-126.304	0.311	-0.046
-420.500	800.000	-0.104	0.316
-419.486	-0.849	-0.308	-0.217
-418.471	514.376	-0.134	0.311
-417.457	-85.413	-0.320	0.099
-416.442	5.830	-0.330	0.243
-415.428	44.933	-0.170	0.156
-414.413	800.000	0.058	-0.234
-413.398	800.000	-0.073	0.304
-412.384	-157.488	0.073	-0.004
-411.369	800.000	-0.031	-0.116
-410.355	-35.144	-0.103	-0.056
-409.340	-4.438	-0.231	-0.159
-408.325	41.104	-0.091	-0.082
-407.311	-72.577	-0.130	-0.048
-406.296	-200.000	-0.015	-0.354
-405.282	-19.917	0.075	0.046
-404.267	38.706	0.204	-0.182
-403.252	37.365	0.180	-0.159
-402.238	-200.000	0.011	-0.145
-401.223	-200.000	-0.002	-0.199
-400.209	-54.008	0.074	-0.033
-399.194	123.660	0.168	0.210
-398.179	91.311	-0.075	-0.084
-397.165	220.707	0.128	-0.205
-396.150	-185.603	0.013	-0.000
-395.136	-79.674	0.126	-0.042
-394.121	196.393	0.031	0.047
-393.106	-116.316	0.160	-0.029
-392.092	585.472	0.081	-0.198
-391.077	800.000	-0.100	0.288
-390.063	-105.316	-0.046	0.010
-389.048	-133.678	0.334	0.042
-388.033	800.000	0.087	-0.249
-387.019	800.000	0.102	-0.349
-386.004	-21.294	0.094	0.057
-384.990	137.701	-0.171	-0.223
-383.975	55.334	-0.096	-0.092
-382.960	-150.876	0.316	0.024
-381.946	467.804	-0.004	0.009
-380.931	-84.225	-0.370	-0.117
-379.917	-163.013	0.207	-0.010
-378.902	21.915	-0.160	-0.130
-377.888	-200.000	0.037	-0.302
-376.873	-131.713	-0.235	-0.031
-375.858	-90.259	0.534	-0.154
-374.844	437.284	-0.228	-0.496
-373.829	278.708	0.025	-0.045
-372.815	-102.385	-0.117	-0.028
-371.800	-153.032	-0.211	0.015
-370.785	36.018	-0.203	-0.177
-369.771	-123.346	-0.045	-0.007
-368.756	800.000	-0.150	0.465
-367.742	-163.575	-0.174	-0.008
-366.727	-35.207	0.130	0.070
-365.712	71.160	0.136	0.140
-364.698	-29.307	-0.385	0.219
-363.683	-200.000	-0.001	-0.085
-362.669	170.029	0.296	0.421
-361.654	138.217	0.123	-0.160
-360.639	-157.775	-0.056	-0.003
-359.625	-35.358	0.435	-0.235
-358.610	-132.390	0.305	-0.039
-357.596	-138.866	0.236	-0.026
-356.581	-80.651	-0.168	0.056
-355.566	786.748	0.085	-0.233
-354.552	-132.956	-0.084	-0.011
-353.537	220.811	0.014	0.022
-352.523	553.495	-0.073	0.175
-351.508	-200.000	0.005	-0.072
-350.493	-91.034	0.286	-0.082
-349.479	101.267	0.076	-0.088
-348.464	87.031	-0.155	-0.170
-347.450	-131.717	0.269	-0.035
-346.435	37.588	-0.242	-0.214
-345.420	479.043	0.124	0.279
-344.406	-55.914	0.030	0.013
-343.391	-200.000	-0.002	0.010
-342.377	231.119	0.111	0.181
-341.362	147.885	-0.090	0.121
-340.348	-118.275	0.054	0.010
-339.333	-200.000	0.030	0.146
-338.318	47.598	-0.224	0.208
-337.304	646.132	-0.025	-0.063
-336.289	62.985	0.078	-0.078
-335.275	97.457	-0.089	0.101
-334.260	-14.692	-0.121	-0.077
-333.245	-17.699	-0.067	0.042
-332.231	-110.054	0.187	0.039
-331.216	-12.467	-0.145	-0.094
-330.202	19.598	0.232	-0.185
-329.187	-84.375	0.088	-0.028
-328.172	287.095	0.198	0.356
-327.158	-200.000	0.016	0.073
-326.143	-101.712	0.270	0.065
-325.129	121.533	0.182	0.225
-324.114	-200.000	0.041	0.458
-323.099	-22.716	-0.153	-0.092
-322.085	-200.000	0.025	0.166
-321.070	10.674	-0.253	-0.191
-320.056	800.000	0.057	0.173
-319.041	-41.803	-0.143	0.073
-318.026	-68.549	-0.188	0.072
-317.012	129.968	-0.098	-0.125
-315.997	28.154	0.127	0.107
-314.983	-149.961	-0.246	-0.019
-313.968	8.825	0.084	0.063
-312.953	-47.364	-0.307	0.148
-311.939	-77.185	0.054	0.019
-310.924	261.368	0.076	0.130
-309.910	-60.999	-0.249	0.105
-308.895	-24.385	0.094	0.055
-307.880	-136.224	-0.071	-0.008
-306.866	-105.134	0.086	-0.019
-305.851	-154.674	0.069	0.005
-304.837	-83.062	-0.044	-0.014
-303.822	226.313	0.088	-0.142
-302.807	587.606	-0.030	-0.074
-301.793	-92.036	0.473	-0.133
-300.778	-82.328	-0.142	-0.046
-299.764	-96.232	0.294	0.077
-298.749	17.633	-0.102	0.080
-297.735	-200.000	0.052	0.339
-296.720	93.306	-0.265	0.297
-295.705	470.474	-0.087	0.194
-294.691	194.856	-0.301	0.453
-293.676	-200.000	0.046	0.268
-292.662	-114.198	0.192	0.037
-291.647	-124.951	-0.281	-0.043
-290.632	-111.964	0.433	0.087
-289.618	-95.057	0.258	-0.069
-288.603	251.393	-0.005	-0.008
-287.589	3.135	0.022	0.016
-286.574	800.000	0.027	-0.109
-285.559	-200.000	0.000	0.131
-284.545	-200.000	-0.005	0.124
-283.530	155.389	-0.070	-0.096
-282.516	800.000	0.031	0.112
-281.501	-200.000	-0.034	0.181
-280.486	-200.000	0.012	-0.295
-279.472	-41.691	-0.188	0.096
-278.457	-78.046	0.226	-0.077
-277.443	46.475	0.129	-0.119
-276.428	-40.451	-0.284	0.146
-275.413	-200.000	-0.015	-0.182
-274.399	-48.871	0.149	0.071
-273.384	405.618	0.089	0.185
-272.370	37.272	-0.060	-0.052
-271.355	-121.887	0.132	0.022
-270.340	-200.000	-0.048	-0.222
-269.326	-170.748	-0.254	-0.009
-268.311	338.708	-0.117	-0.225
-267.297	-7.421	0.289	0.194
-266.282	551.380	0.055	0.131
-265.267	-152.965	-0.447	-0.031
-264.253	-200.000	0.000	0.128
-263.238	313.212	0.124	0.231
-262.224	-156.932	-0.339	0.021
-261.209	800.000	0.039	-0.124
-260.195	-114.396	-0.043	0.008
-259.180	-200.000	-0.005	-0.114
-258.165	-200.000	0.017	0.218
-257.151	-200.000	-0.002	-0.037
-256.136	213.001	0.058	0.091
-255.122	369.705	0.132	-0.265
-254.107	-200.000	-0.002	0.104
-253.092	-183.971	0.111	-0.002
-252.078	-200.000	0.034	0.245
-251.063	-75.954	0.123	0.043
-250.049	-114.951	-0.161	0.030
-249.034	800.000	0.031	0.129
-248.019	-68.619	0.263	0.101
-247.005	47.042	-0.289	-0.266
-245.990	97.394	0.074	-0.084
-244.976	310.493	0.073	0.135
-243.961	739.910	0.021	-0.057
-242.946	-107.118	0.197	0.043
-241.932	800.000	0.097	0.274
-240.917	-36.617	-0.104	0.055
-239.903	40.173	-0.084	-0.074
-238.888	-91.386	-0.267	-0.076
-237.873	507.450	-0.059	-0.135
-236.859	600.872	-0.134	0.330
-235.844	800.000	-0.063	0.235
-234.830	-1.903	-0.212	0.147
-233.815	-20.129	0.302	0.184
-232.800	-144.921	0.101	-0.009
-231.786	-94.228	0.197	-0.053
-230.771	-200.000	0.035	0.175
-229.757	725.330	-0.063	-0.166
-228.742	215.584	-0.189	-0.297
-227.727	-200.000	-0.222	0.000
-226.713	-75.992	0.320	-0.112
-225.698	-68.616	0.243	-0.093
-224.684	140.987	0.180	0.235
-223.669	216.248	0.083	0.130
-222.655	550.479	0.039	-0.093
-221.640	11.999	-0.201	-0.153
-220.625	162.610	0.140	-0.195
-219.611	-193.818	-0.327	-0.003
-218.596	-83.768	0.226	0.071
-217.582	800.000	-0.034	0.131
-216.567	-115.607	0.060	-0.011
-215.552	-200.000	-0.002	0.091
-214.538	-58.585	-0.066	0.028
-213.523	-200.000	-0.031	0.166
-212.509	-43.331	-0.149	0.074
-211.494	-200.000	0.010	-0.092
-210.479	-161.461	-0.226	0.012
-209.465	800.000	-0.067	0.244
-208.450	-158.954	0.131	0.007
-207.436	-0.815	-0.185	-0.130
-206.421	336.055	0.089	0.170
-205.406	-59.493	0.110	-0.047
-204.392	800.000	0.007	-0.030
-203.377	-34.514	-0.121	-0.065
-202.363	-50.782	0.197	0.092
-201.348	-119.587	0.086	0.015
-200.333	-86.504	0.521	0.158
-199.319	-39.350	0.334	0.173
-198.304	-200.000	0.014	-0.344
-197.290	800.000	-0.095	0.408
-196.275	-149.903	-0.132	-0.010
-195.260	52.318	-0.115	0.109
-194.246	-145.852	0.192	0.017
-193.231	94.290	0.168	0.188
-192.217	-178.799	-0.393	0.009
-191.202	16.630	-0.213	0.167
-190.187	12.794	0.236	-0.180
-189.173	701.996	0.033	0.085
-188.158	800.000	-0.077	-0.227
-187.144	59.282	0.363	0.353
-186.129	190.040	-0.171	-0.254
-185.114	263.566	0.201	0.345
-184.100	296.153	-0.089	0.160
-183.085	-88.129	0.180	-0.053
-182.071	550.876	0.149	0.354
-181.056	-180.346	0.348	-0.007
-180.042	-16.700	-0.071	0.045
-179.027	422.376	0.052	0.110
-178.012	293.013	0.097	-0.175
-176.998	322.626	-0.145	-0.273
-175.983	-74.704	0.170	-0.060
-174.969	-69.984	0.433	0.163
-173.954	-12.763	0.121	0.078
-172.939	-57.612	-0.275	-0.119
-171.925	-190.988	0.179	-0.002
-170.910	438.325	0.083	0.179
-169.896	209.590	-0.128	-0.199
-168.881	-200.000	0.004	-0.244
-167.866	-102.567	0.282	-0.067
-166.852	61.983	0.057	0.056
-165.837	-200.000	-0.099	-0.453
-164.823	-7.926	0.386	0.257
-163.808	800.000	0.130	-0.396
-162.793	-164.510	-0.221	0.010
-161.779	-6.665	-0.237	-0.159
-160.764	54.615	0.262	-0.249
-159.750	-105.511	-0.065	0.015
-158.735	46.662	0.351	0.322
-157.720	-126.555	0.210	-0.031
-156.706	-200.000	-0.007	0.079
-155.691	-115.788	0.089	-0.016
-154.677	-134.660	0.135	-0.016
-153.662	800.000	0.037	0.127
-152.647	-200.000	0.002	0.019
-151.633	-35.989	0.384	-0.205
-150.618	-200.000	-0.051	0.408
-149.604	22.835	-0.248	0.201
-148.589	-175.379	0.301	0.008
-147.574	55.148	-0.129	-0.123
-146.560	487.230	0.135	0.303
-145.545	242.308	0.103	0.170
-144.531	108.160	-0.172	0.202
-143.516	800.000	-0.045	-0.160
-142.502	-200.000	0.029	0.309
-141.487	216.023	0.109	-0.171
-140.472	-200.000	0.003	0.037
-139.458	-200.000	0.024	0.288
-138.443	-70.952	0.226	-0.084
-137.429	-67.786	-0.249	-0.096
-136.414	64.086	-0.376	0.373
-135.399	29.506	0.226	-0.189
-134.385	654.682	-0.164	0.416
-133.370	-200.000	-0.015	-0.168
-132.356	-41.492	-0.067	-0.034
-131.341	-129.027	-0.297	0.041
-130.326	174.194	0.219	0.312
-129.312	-200.000	-0.066	0.422
-128.297	-200.000	-0.020	-0.118
-127.283	800.000	-0.073	-0.250
-126.268	800.000	0.030	-0.090
-125.253	4.854	0.242	-0.176
-124.239	-90.227	0.325	-0.093
-123.224	-17.174	-0.222	0.138
-122.210	494.717	0.125	0.283
-121.195	553.775	-0.030	0.070
-120.180	-15.205	-0.300	-0.189
-119.166	174.890	0.220	0.314
-118.151	-52.166	0.253	-0.116
-117.137	64.132	-0.194	0.193
-116.122	800.000	0.038	0.117
-115.107	133.816	-0.079	-0.100
-114.093	-124.258	-0.183	-0.028
-113.078	-120.852	-0.202	0.033
-112.064	-70.140	0.128	0.048
-111.049	800.000	0.038	0.131
-110.034	167.401	0.122	0.171
-109.020	800.000	0.038	0.159
-108.005	-125.010	0.242	0.037
-106.991	-130.546	-0.262	0.035
-105.976	-1.789	0.270	0.187
-104.962	401.063	0.043	0.088
-103.947	-36.147	-0.211	0.112
-102.932	-200.000	-0.050	0.309
-101.918	-32.304	0.046	-0.025
-100.903	-174.916	0.180	-0.005
-99.889	800.000	-0.082	0.352
-98.874	-171.038	0.153	0.005
-97.859	-200.000	-0.016	-0.086
-96.845	-49.622	-0.351	-0.165
-95.830	-144.438	0.088	-0.008
-94.816	-145.076	0.271	0.024
-93.801	33.841	-0.118	-0.101
-92.786	2.714	-0.092	-0.066
-91.772	-119.516	0.234	0.040
-90.757	-151.498	0.420	0.031
-89.743	694.103	-0.130	-0.335
-88.728	-200.000	0.001	0.357
-87.713	615.642	-0.053	-0.130
-86.699	-88.781	-0.292	0.085
-85.684	27.302	0.289	0.239
-84.670	288.836	-0.060	-0.108
-83.655	702.002	0.026	0.068
-82.640	-96.975	0.320	-0.083
-81.626	-200.000	0.089	0.399
-80.611	-200.000	0.015	-0.220
-79.597	42.296	0.193	-0.172
-78.582	146.129	0.148	-0.195
-77.567	-101.906	0.190	0.045
-76.553	800.000	-0.031	0.122
-75.538	7.681	-0.232	-0.171
-74.524	-13.472	-0.171	-0.109
-73.509	-65.242	-0.208	-0.083
-72.494	-150.584	0.439	0.033
-71.480	-68.426	-0.326	0.125
-70.465	-125.918	0.260	0.039
-69.451	123.259	0.155	-0.191
-68.436	-200.000	0.041	0.240
-67.422	800.000	0.039	0.131
-66.407	-100.594	0.112	-0.027
-65.392	70.982	-0.128	-0.130
-64.378	76.292	0.059	-0.061
-63.363	-143.730	0.175	0.016
-62.349	217.945	0.185	0.289
-61.334	123.963	-0.599	-0.740
-60.319	101.115	0.648	0.742
-59.305	800.000	-0.233	-0.738
-58.290	520.864	0.470	1.083
-57.276	234.906	0.821	1.331
-56.261	-200.000	95.737	589.340
-55.246	563.016	1378.976	3280.571
-54.232	159.012	2567.226	3506.731
-53.217	106.549	2273.597	2649.924
-52.203	41.655	1897.684	1689.380
-51.188	35.495	1687.441	1455.634
-50.173	32.793	1643.074	1397.323
-49.159	50.416	1690.182	1570.075
-48.144	52.113	1706.483	1597.891
-47.130	35.209	1666.402	1435.115
-46.115	32.309	1652.525	1401.528
-45.100	32.219	1647.520	1396.559
-44.086	32.124	1645.122	1393.767
-43.071	32.101	1642.212	1391.077
-42.057	31.985	1640.469	1388.686
-41.042	32.150	1638.072	1387.822
-40.027	32.052	1636.469	1385.683
-39.013	32.043	1634.433	1383.838
-37.998	32.015	1633.138	1382.480
-36.984	32.102	1631.435	1381.625
-35.969	32.225	1629.776	1381.069
-34.954	32.327	1627.561	1379.885
-33.940	32.183	1626.498	1377.879
-32.925	32.169	1624.979	1376.431
-31.911	32.188	1623.152	1374.970
-30.896	32.192	1621.488	1373.534
-29.881	32.151	1619.474	1371.474
-28.867	32.220	1618.007	1370.678
-27.852	32.220	1616.547	1369.393
-26.838	32.219	1614.909	1367.940
-25.823	32.228	1613.534	1366.785
-24.809	32.239	1612.534	1365.962
-23.794	32.188	1611.018	1364.254
-22.779	32.226	1609.368	1363.082
-21.765	32.198	1608.265	1361.892
-20.750	32.232	1606.181	1360.315
-19.736	32.205	1605.062	1359.121
-18.721	32.235	1603.835	1358.248
-17.706	32.209	1602.290	1356.695
-16.692	32.242	1600.459	1355.328
-15.677	32.263	1599.018	1354.207
-14.663	32.245	1597.864	1353.042
-13.648	32.313	1596.128	1352.007
-12.633	32.262	1594.675	1350.360
-11.619	32.258	1593.218	1349.046
-10.604	32.215	1591.981	1347.631
-9.590	32.179	1591.029	1346.516
-8.575	32.240	1589.398	1345.517
-7.560	32.183	1588.433	1344.240
-6.546	32.250	1587.160	1343.592
-5.531	32.287	1585.763	1342.619
-4.517	32.263	1584.555	1341.370
-3.502	32.224	1583.252	1339.937
-2.487	32.300	1581.842	1339.233
-1.473	32.109	1570.426	1328.164
-0.458	29.565	1551.598	1294.380
0.556	26.107	1552.702	1264.852
1.571	23.875	1576.695	1268.379
2.586	23.477	1589.775	1275.926
3.600	20.522	1534.953	1211.259
4.615	11.021	1423.211	1061.299
5.629	3.016	1357.977	962.589
6.644	1.701	1350.108	948.731
7.659	1.633	1348.709	947.245
8.673	1.496	1348.070	945.858
9.688	1.540	1345.284	944.094
10.702	1.245	1342.383	940.146
11.717	4.743	1349.262	966.638
12.731	14.942	1368.112	1044.006
13.746	23.554	1383.365	1109.668
14.761	25.868	1386.750	1126.773
15.775	26.310	1386.615	1129.323
16.790	26.341	1386.004	1128.922
17.804	26.429	1385.283	1128.782
18.819	26.671	1385.077	1130.029
19.834	26.744	1384.501	1129.913
20.848	26.762	1383.705	1129.276
21.863	26.747	1382.872	1128.402
22.877	26.819	1381.935	1127.983
23.892	26.823	1380.862	1127.033
24.907	26.808	1380.426	1126.484
25.921	26.808	1379.057	1125.266
26.936	26.858	1378.432	1124.972
27.950	26.738	1377.462	1123.332
28.965	26.833	1376.017	1122.641
29.980	26.720	1375.021	1121.035
30.994	26.799	1373.576	1120.242
32.009	26.780	1372.687	1119.303
33.023	26.775	1371.502	1118.204
34.038	26.745	1370.389	1117.014
35.053	26.839	1369.204	1116.529
36.067	26.760	1368.773	1115.591
37.082	26.766	1368.196	1115.060
38.096	26.791	1367.211	1114.313
39.111	26.863	1365.974	1113.646
40.126	26.773	1365.932	1112.960
41.140	26.718	1364.979	1111.753
42.155	26.789	1364.919	1112.038
43.169	26.710	1364.810	1111.365
44.184	26.739	1364.548	1111.236
45.199	26.783	1363.764	1110.768
46.213	26.806	1363.623	1110.695
47.228	26.757	1362.700	1109.543
48.242	26.740	1361.378	1108.268
49.257	26.677	1360.168	1106.797
50.271	26.778	1358.369	1105.854
51.286	26.766	1357.422	1104.911
52.301	26.789	1356.021	1103.813
53.315	26.770	1355.366	1103.063
54.330	26.763	1354.182	1101.960
55.344	26.745	1353.530	1101.223
56.359	26.777	1352.265	1100.293
57.374	26.871	1351.280	1099.962
58.388	26.688	1351.081	1098.591
59.403	26.733	1351.001	1098.703
60.417	26.741	1349.835	1097.706
61.432	26.800	1348.675	1097.026
62.447	26.807	1347.824	1096.279
63.461	26.744	1346.908	1095.055
64.476	26.723	1346.249	1094.295
65.490	26.777	1344.923	1093.443
66.505	26.779	1343.196	1091.955
67.520	26.766	1342.388	1091.125
68.534	26.755	1341.479	1090.226
69.549	26.796	1340.305	1089.422
70.563	26.856	1339.934	1089.385
71.578	26.887	1338.450	1088.263
72.593	26.862	1337.677	1087.390
73.607	26.844	1337.108	1086.722
74.622	26.806	1336.457	1085.872
75.636	26.765	1335.822	1085.011
76.651	26.852	1334.756	1084.572
77.666	26.827	1334.263	1083.925
78.680	26.810	1333.941	1083.465
79.695	26.857	1333.019	1082.906
80.709	26.862	1332.427	1082.354
81.724	26.824	1331.508	1081.286
82.739	26.850	1330.507	1080.533
83.753	26.805	1329.711	1079.521
84.768	26.724	1329.306	1078.617
85.782	26.884	1327.563	1078.061
86.797	26.814	1326.526	1076.703
87.812	26.797	1325.346	1075.552
88.826	26.787	1324.174	1074.446
89.841	26.823	1323.327	1073.879
90.855	26.735	1322.458	1072.553
91.870	26.778	1321.461	1071.906
92.884	26.921	1320.372	1071.773
93.899	26.787	1320.070	1070.642
94.914	26.846	1319.272	1070.246
95.928	26.803	1318.369	1069.166
96.943	26.900	1317.443	1068.892
97.957	26.977	1316.623	1068.589
98.972	26.859	1315.861	1067.182
99.987	26.885	1314.792	1066.369
101.001	26.840	1314.065	1065.424
102.016	26.839	1313.309	1064.707
103.030	26.819	1312.619	1063.939
104.045	26.872	1311.608	1063.338
105.060	26.901	1310.806	1062.761
106.074	26.826	1310.049	1061.612
107.089	26.907	1309.062	1061.193
108.103	26.959	1307.512	1060.148
109.118	26.939	1306.913	1059.451
110.133	26.959	1305.455	1058.290
111.147	26.959	1304.260	1057.229
112.162	26.928	1303.306	1056.184
113.176	26.867	1302.510	1055.090
114.191	26.988	1301.781	1055.110
115.206	26.923	1300.791	1053.833
116.220	26.863	1299.836	1052.621
117.235	26.924	1298.597	1051.876
118.249	26.931	1297.696	1051.097
119.264	26.970	1296.501	1050.261
120.279	26.940	1296.530	1050.019
121.293	26.971	1295.050	1048.904
122.308	26.984	1294.788	1048.678
123.322	26.994	1293.880	1047.904
124.337	26.980	1292.745	1046.810
125.352	27.011	1292.104	1046.376
126.366	27.072	1290.970	1045.716
127.381	26.927	1290.567	1044.463
128.395	26.986	1289.272	1043.663
129.410	26.915	1288.936	1042.893
130.424	26.908	1287.945	1041.959
131.439	26.985	1286.994	1041.540
132.454	27.015	1286.431	1041.163
133.468	27.029	1285.858	1040.688
134.483	27.018	1285.096	1039.917
135.497	26.856	1284.528	1038.435
136.512	27.042	1283.256	1038.380
137.527	26.877	1282.344	1036.609
138.541	26.858	1280.997	1035.317
139.556	26.984	1279.543	1034.771
140.570	27.005	1278.921	1034.291
141.585	26.948	1277.822	1032.992
142.600	27.012	1276.808	1032.442
143.614	26.922	1276.157	1031.310
144.629	26.926	1274.878	1030.209
145.643	26.785	1274.482	1029.001
146.658	26.869	1273.285	1028.418
147.673	26.912	1271.922	1027.470
148.687	26.885	1271.532	1026.908
149.702	26.849	1270.369	1025.678
150.716	26.911	1268.979	1024.811
151.731	26.887	1268.445	1024.156
152.746	26.891	1267.164	1023.056
153.760	26.835	1266.501	1022.114
154.775	26.935	1265.607	1021.863
155.789	26.888	1264.482	1020.602
156.804	26.980	1263.430	1020.180
157.819	26.850	1262.980	1018.995
158.833	26.964	1262.014	1018.767
159.848	26.972	1261.224	1018.082
160.862	26.953	1260.569	1017.355
161.877	27.006	1259.233	1016.483
162.892	27.050	1258.553	1016.090
163.906	27.072	1257.866	1015.569
164.921	27.073	1257.276	1015.013
165.935	27.047	1256.907	1014.477
166.950	27.134	1255.837	1014.010
167.964	27.198	1255.208	1013.768
168.979	27.151	1254.581	1012.910
169.994	27.135	1254.223	1012.444
171.008	27.129	1253.124	1011.434
172.023	27.111	1252.794	1010.978
173.037	27.099	1252.124	1010.281
174.052	27.056	1251.644	1009.563
175.067	27.010	1250.718	1008.474
176.081	27.167	1249.429	1008.217
177.096	27.071	1249.017	1007.259
178.110	27.021	1248.390	1006.387
179.125	27.083	1247.125	1005.622
180.140	27.231	1245.764	1005.257
181.154	27.103	1245.137	1003.952
182.169	26.969	1243.869	1002.100
183.183	27.160	1242.660	1002.090
184.198	27.137	1241.774	1001.163
185.213	27.207	1240.644	1000.550
186.227	27.136	1240.176	999.695
187.242	27.290	1239.238	999.693
188.256	27.245	1238.058	998.408
189.271	27.235	1237.493	997.807
190.286	27.147	1236.898	996.757
191.300	27.128	1236.439	996.195
192.315	27.075	1235.812	995.314
193.329	27.261	1235.230	995.773
194.344	27.189	1235.330	995.374
195.359	27.185	1234.677	994.737
196.373	27.136	1234.082	993.897
197.388	27.123	1233.599	993.352
198.402	27.139	1233.585	993.341
199.417	27.173	1232.820	992.820
200.432	27.246	1232.180	992.617
201.446	27.225	1231.613	991.960
202.461	27.189	1230.901	991.101
203.475	27.102	1230.246	990.009
204.490	27.065	1229.393	989.035
205.504	27.099	1228.202	988.174
206.519	27.198	1227.251	987.859
207.534	27.402	1226.121	987.970
208.548	27.297	1225.231	986.598
209.563	27.275	1224.732	985.989
210.577	27.161	1223.772	984.511
211.592	27.263	1222.832	984.221
212.607	27.308	1222.399	984.027
213.621	27.325	1221.366	983.199
214.636	27.462	1220.406	983.080
215.650	27.348	1219.935	981.999
216.665	27.324	1218.940	980.980
217.680	27.248	1218.454	980.091
218.694	27.331	1216.871	979.180
219.709	27.427	1216.492	979.305
220.723	27.335	1216.004	978.334
221.738	27.363	1215.031	977.615
222.753	27.257	1214.627	976.632
223.767	27.256	1214.040	976.068
224.782	27.477	1213.278	976.552
225.796	27.398	1213.539	976.251
226.811	27.483	1212.419	975.722
227.826	27.476	1212.000	975.262
228.840	27.455	1211.010	974.263
229.855	27.322	1210.612	973.146
230.869	27.428	1209.765	972.946
231.884	27.383	1209.318	972.260
232.899	27.397	1208.263	971.401
233.913	27.429	1207.791	971.107
234.928	27.539	1207.123	971.069
235.942	27.539	1206.411	970.413
236.957	27.555	1205.879	969.982
237.972	27.423	1205.355	968.774
238.986	27.365	1205.072	968.154
240.001	27.560	1203.895	968.158
241.015	27.582	1203.116	967.561
242.030	27.649	1201.953	966.893
243.045	27.657	1201.780	966.714
244.059	27.647	1200.727	965.728
245.074	27.545	1200.238	964.708
246.088	27.571	1199.316	964.020
247.103	27.661	1198.300	963.595
248.117	27.611	1197.758	962.810
249.132	27.697	1196.531	962.190
250.147	27.682	1196.181	961.743
251.161	27.622	1195.768	961.009
252.176	27.677	1194.671	960.332
253.190	27.711	1194.234	960.075
254.205	27.724	1193.716	959.643
255.220	27.683	1193.224	958.950
256.234	27.637	1192.681	958.186
257.249	27.803	1192.094	958.499
258.263	27.688	1191.524	957.353
259.278	27.656	1191.094	956.755
260.293	27.706	1190.335	956.323
261.307	27.745	1189.608	955.860
262.322	27.686	1189.244	955.172
263.336	27.761	1188.340	954.753
264.351	27.746	1187.938	954.269
265.366	27.681	1187.414	953.424
266.380	27.704	1186.720	952.903
267.395	27.807	1186.196	952.933
268.409	27.612	1185.683	951.422
269.424	27.734	1185.115	951.519
270.439	27.782	1184.509	951.195
271.453	27.654	1184.043	950.069
272.468	27.694	1182.863	949.249
273.482	27.789	1182.038	948.995
274.497	27.823	1181.665	948.791
275.512	27.836	1181.166	948.375
276.526	27.887	1180.366	947.909
277.541	27.828	1179.984	947.216
278.555	27.824	1179.492	946.717
279.570	27.882	1178.625	946.236
280.585	27.841	1177.987	945.426
281.599	27.858	1176.875	944.538
282.614	27.954	1175.895	944.163
283.628	27.935	1175.247	943.462
284.643	27.945	1174.388	942.740
285.657	27.856	1173.696	941.642
286.672	27.900	1172.837	941.099
287.687	27.936	1172.014	940.541
288.701	27.873	1171.482	939.708
289.716	27.941	1170.535	939.215
290.730	27.837	1170.237	938.357
291.745	27.986	1169.634	938.553
292.760	28.014	1168.659	937.832
293.774	28.004	1168.186	937.319
294.789	27.992	1167.960	936.995
295.803	28.042	1167.101	936.479
296.818	28.087	1166.382	936.050
297.833	28.021	1165.865	935.213
298.847	28.131	1165.199	935.158
299.862	28.065	1164.349	934.054
300.876	28.057	1164.058	933.701
301.891	28.083	1163.710	933.471
302.906	28.154	1162.793	933.016
303.920	28.004	1162.202	931.691
304.935	28.109	1161.527	931.605
305.949	28.166	1160.645	931.104
306.964	28.138	1159.894	930.277
307.979	28.248	1159.453	930.398
308.993	28.112	1159.110	929.351
310.008	28.083	1158.096	928.309
311.022	28.247	1157.342	928.456
312.037	28.273	1156.407	927.753
313.052	28.200	1155.761	926.784
314.066	28.064	1155.310	925.652
315.081	28.110	1154.242	924.946
316.095	28.058	1153.791	924.239
317.110	28.096	1153.264	923.927
318.125	28.182	1152.710	923.839
319.139	28.275	1151.809	923.504
320.154	28.174	1151.386	922.570
321.168	28.122	1150.859	921.805
322.183	28.235	1150.227	921.790
323.197	28.220	1149.222	920.826
324.212	28.249	1149.184	920.858
325.227	28.375	1148.337	920.730
326.241	28.308	1148.088	920.112
327.256	28.414	1147.146	919.807
328.270	28.356	1146.169	918.653
329.285	28.308	1145.674	917.935
330.300	28.330	1144.407	916.950
331.314	28.450	1143.531	916.769
332.329	28.293	1143.140	915.586
333.343	28.442	1142.180	915.479
334.358	28.397	1141.343	914.507
335.373	28.449	1141.336	914.680
336.387	28.439	1140.668	914.012
337.402	28.393	1139.881	913.071
338.416	28.475	1139.300	912.933
339.431	28.549	1138.406	912.504
340.446	28.462	1138.174	911.803
341.460	28.569	1137.252	911.515
342.475	28.472	1136.765	910.565
343.489	28.596	1135.520	910.102
344.504	28.541	1134.825	909.191
345.519	28.473	1134.058	908.158
346.533	28.660	1132.981	908.140
347.548	28.500	1132.637	906.995
348.562	28.695	1131.586	907.036
349.577	28.502	1131.446	905.888
350.592	28.600	1130.147	905.255
351.606	28.472	1129.890	904.335
352.621	28.500	1129.268	903.896
353.635	28.485	1128.794	903.364
354.650	28.593	1127.915	903.110
355.665	28.732	1127.164	903.113
356.679	28.597	1126.897	902.157
357.694	28.611	1126.261	901.635
358.708	28.762	1125.256	901.493
359.723	28.589	1124.746	900.158
360.738	28.691	1124.140	900.094
361.752	28.743	1123.397	899.672
362.767	28.781	1122.922	899.396
363.781	28.747	1122.754	899.019
364.796	28.751	1122.173	898.494
365.810	28.714	1121.635	897.801
366.825	28.794	1120.884	897.510
367.840	28.810	1120.382	897.106
368.854	28.697	1119.954	896.136
369.869	28.904	1118.866	896.191
370.883	28.802	1118.233	895.110
371.898	28.886	1117.371	894.750
372.913	28.871	1117.039	894.333
373.927	28.966	1116.372	894.181
374.942	28.942	1116.105	893.773
375.956	29.076	1115.107	893.542
376.971	28.755	1115.365	892.112
377.986	28.975	1114.486	892.397
379.000	28.999	1113.916	891.978
380.015	28.988	1113.846	891.790
381.029	28.974	1112.839	890.839
382.044	28.946	1112.018	889.968
383.059	28.954	1111.324	889.372
384.073	29.009	1110.671	889.033
385.088	28.903	1110.017	887.919
386.102	29.016	1109.178	887.718
387.117	28.952	1108.399	886.705
388.132	28.931	1107.523	885.825
389.146	29.098	1106.860	886.020
390.161	29.036	1106.067	885.009
391.175	29.044	1105.520	884.532
392.190	29.145	1104.963	884.491
393.205	29.143	1104.035	883.660
394.219	29.085	1103.414	882.808
395.234	29.118	1102.862	882.448
396.248	29.163	1101.700	881.653
397.263	29.194	1101.188	881.316
398.278	29.281	1100.236	880.891
399.292	29.349	1099.873	880.849
400.307	29.135	1099.281	879.272
401.321	29.297	1098.597	879.421
402.336	29.178	1097.908	878.226
403.350	29.296	1097.314	878.235
404.365	29.257	1096.780	877.541
405.380	29.378	1095.957	877.381
406.394	29.290	1095.243	876.318
407.409	29.349	1094.589	875.993
408.423	29.401	1093.675	875.432
409.438	29.396	1092.914	874.723
410.453	29.391	1092.834	874.556
411.467	29.424	1091.975	873.948
412.482	29.296	1091.442	872.839
413.496	29.333	1090.817	872.438
414.511	29.301	1090.031	871.582
415.526	29.283	1090.118	871.489
416.540	29.343	1089.567	871.251
417.555	29.414	1088.568	870.713
418.569	29.438	1088.582	870.759
419.584	29.465	1088.036	870.375
420.599	29.442	1087.596	869.835
421.613	103.253	1322.485	1458.751
422.628	96.151	1356.655	1458.851
