DTS Sentinel unit serial number:	SN413079Multiplexer serial number:	ORYXHardware model number:	OX4-SRSoftware version number:	ORYX F/W v4.00 Oryx Data Collector v3.7.2.0data status	okinstallation	princeton_trtdifferential loss correction	single-endedforward channel	channel 2reverse channel	N/Adate	2019/09/10time	18:53:10forward acquisition time	60.00reverse acquisition time	0.00gamma	496.2192k internal	0.2323k external	0.2323temperature offset calibration	0.9944default loss term (dB/km)	0.3790temperature slope calibration	1.0000multiplexer offset coefficient	1.0000multiplexer slope coefficient	1.0000fibre end	0.00T internal ref (°C)	34.86T ext. ref 1 (°C)	-0.32T ext. ref 2 (°C)	27.06length (m)	temperature (°C)	Stokes	anti-Stokes-747.200	-22.690	0.237	-0.145
-746.185	73.022	0.114	0.120
-745.171	720.529	-0.072	-0.193
-744.156	374.071	-0.045	0.092
-743.142	-0.107	0.302	-0.217
-742.127	-110.874	0.878	0.183
-741.112	800.000	0.045	0.181
-740.098	800.000	0.011	0.035
-739.083	-55.455	-0.351	-0.159
-738.069	-200.000	-0.025	-0.237
-737.054	-114.640	-0.177	0.034
-736.039	-110.012	-0.301	-0.064
-735.025	-95.267	0.297	0.081
-734.010	800.000	-0.026	-0.083
-732.996	-17.524	-0.322	-0.204
-731.981	-104.856	-0.382	-0.089
-730.966	-82.889	-0.354	-0.115
-729.952	-13.409	0.175	0.114
-728.937	800.000	-0.048	-0.166
-727.923	-48.706	-0.196	-0.095
-726.908	800.000	-0.134	0.389
-725.894	800.000	-0.058	0.200
-724.879	91.197	-0.187	-0.212
-723.864	-173.487	0.271	0.008
-722.850	-55.459	0.337	-0.152
-721.835	7.034	0.182	-0.137
-720.821	800.000	0.094	0.288
-719.806	800.000	-0.048	-0.158
-718.791	37.340	0.345	-0.309
-717.777	-200.000	-0.086	-0.431
-716.762	-129.730	-0.344	0.048
-715.748	800.000	0.032	0.095
-714.733	-136.650	0.321	0.037
-713.718	132.769	0.153	0.199
-712.704	40.311	-0.178	0.162
-711.689	-160.535	-0.265	-0.014
-710.675	-120.839	-0.254	0.043
-709.660	-95.056	0.327	0.089
-708.645	-148.084	0.246	-0.021
-707.631	67.176	0.134	0.138
-706.616	-184.262	-0.238	-0.004
-705.602	-129.084	0.063	0.009
-704.587	-126.482	-0.113	0.017
-703.572	-54.577	0.188	-0.086
-702.558	-105.013	0.249	0.057
-701.543	-4.047	-0.289	-0.202
-700.529	719.590	-0.059	0.158
-699.514	37.017	-0.153	-0.137
-698.499	128.409	0.261	-0.335
-697.485	-156.750	-0.397	0.025
-696.470	-200.000	-0.019	-0.275
-695.456	-65.315	0.259	0.105
-694.441	39.064	0.424	-0.382
-693.426	1.035	-0.158	0.114
-692.412	-161.180	-0.163	-0.009
-691.397	-130.209	0.332	0.046
-690.383	231.829	0.103	-0.170
-689.368	47.911	-0.234	0.220
-688.354	-200.000	-0.043	0.222
-687.339	-200.000	0.084	0.405
-686.324	-200.000	0.032	-0.208
-685.310	800.000	-0.075	-0.267
-684.295	25.179	0.080	-0.067
-683.281	129.245	0.239	0.307
-682.266	800.000	0.021	0.085
-681.251	18.250	0.064	-0.052
-680.237	53.303	0.071	0.069
-679.222	8.082	-0.006	0.005
-678.208	294.143	-0.076	-0.140
-677.193	-200.000	-0.004	-0.089
-676.178	24.112	-0.278	0.231
-675.164	244.703	0.130	0.220
-674.149	81.249	0.040	-0.044
-673.135	-200.000	-0.014	-0.102
-672.120	-4.605	-0.208	0.145
-671.105	-200.000	-0.003	-0.389
-670.091	-25.991	0.514	-0.305
-669.076	-200.000	0.024	0.187
-668.062	-200.000	0.022	-0.231
-667.047	-154.230	0.202	0.014
-666.032	-132.462	0.312	-0.040
-665.018	-118.234	0.184	0.033
-664.003	773.063	-0.073	-0.202
-662.989	-10.803	0.180	0.120
-661.974	800.000	0.128	-0.376
-660.959	-68.077	-0.254	-0.100
-659.945	-39.090	0.223	-0.118
-658.930	149.896	-0.153	0.209
-657.916	-200.000	0.004	-0.072
-656.901	-57.769	0.270	-0.119
-655.886	-133.116	-0.127	0.016
-654.872	-110.196	0.277	-0.058
-653.857	-30.232	0.177	0.101
-652.843	102.916	0.270	0.318
-651.828	-21.023	-0.215	-0.132
-650.814	-84.444	0.219	0.070
-649.799	800.000	0.054	-0.184
-648.784	-111.393	0.129	-0.026
-647.770	-51.063	-0.039	0.018
-646.755	-200.000	0.044	0.406
-645.741	800.000	0.079	-0.254
-644.726	358.236	-0.090	-0.180
-643.711	191.223	-0.083	0.125
-642.697	-7.374	-0.275	0.188
-641.682	-200.000	-0.029	-0.148
-640.668	41.701	0.107	-0.097
-639.653	-127.049	0.187	-0.028
-638.638	-22.443	-0.194	-0.118
-637.624	-200.000	-0.002	-0.188
-636.609	289.560	-0.101	-0.185
-635.595	-170.503	0.082	0.003
-634.580	-145.614	0.531	-0.048
-633.565	282.151	-0.118	0.213
-632.551	-143.011	0.172	0.017
-631.536	-9.074	0.230	-0.155
-630.522	43.645	-0.112	-0.103
-629.507	-200.000	-0.002	0.037
-628.492	341.195	0.061	0.119
-627.478	-108.207	-0.272	0.059
-626.463	-200.000	0.004	-0.039
-625.449	-44.777	-0.150	-0.075
-624.434	338.851	0.138	-0.269
-623.419	245.137	-0.164	-0.278
-622.405	30.354	-0.135	0.116
-621.390	-146.888	-0.389	-0.034
-620.376	-11.095	-0.162	-0.107
-619.361	-200.000	-0.036	-0.177
-618.346	413.065	0.063	-0.134
-617.332	-200.000	-0.019	0.195
-616.317	800.000	0.090	-0.274
-615.303	83.298	-0.082	0.089
-614.288	184.017	-0.264	-0.393
-613.273	288.171	0.187	-0.340
-612.259	-92.105	-0.154	0.044
-611.244	141.520	-0.016	0.022
-610.230	-200.000	0.062	-0.397
-609.215	524.106	0.127	-0.301
-608.201	163.815	-0.086	0.121
-607.186	51.950	0.292	-0.279
-606.171	-146.509	0.156	-0.014
-605.157	-149.140	0.398	0.032
-604.142	44.807	-0.195	0.180
-603.128	71.827	0.136	-0.142
-602.113	354.545	-0.106	-0.211
-601.098	-52.573	-0.162	0.075
-600.084	-26.730	0.396	0.233
-599.069	58.554	-0.241	0.238
-598.055	8.329	0.305	0.230
-597.040	-107.093	-0.203	0.045
-596.025	330.706	-0.194	-0.376
-595.011	319.317	-0.094	-0.179
-593.996	800.000	0.028	0.090
-592.982	-14.638	-0.135	-0.087
-591.967	1.784	0.237	-0.172
-590.952	538.106	0.027	-0.063
-589.938	247.371	-0.033	-0.056
-588.923	19.908	0.281	-0.228
-587.909	741.945	-0.080	-0.215
-586.894	48.370	0.291	-0.274
-585.879	-66.022	0.292	-0.117
-584.865	800.000	-0.059	-0.200
-583.850	-200.000	-0.062	0.352
-582.836	136.609	-0.145	-0.189
-581.821	-50.236	-0.251	0.119
-580.806	800.000	-0.041	-0.129
-579.792	571.257	-0.029	0.071
-578.777	174.653	-0.173	-0.251
-577.763	-63.784	-0.129	-0.053
-576.748	-58.282	-0.147	0.064
-575.733	333.474	-0.076	-0.147
-574.719	-160.699	-0.254	0.014
-573.704	352.378	-0.060	-0.119
-572.690	-59.775	-0.168	0.072
-571.675	-115.036	0.260	-0.050
-570.661	156.835	-0.150	-0.207
-569.646	0.951	-0.225	-0.162
-568.631	8.390	0.106	-0.080
-567.617	-200.000	-0.052	-0.341
-566.602	234.802	0.103	-0.170
-565.588	32.090	-0.229	0.198
-564.573	108.001	-0.044	-0.053
-563.558	118.905	0.307	0.380
-562.544	203.915	-0.106	0.165
-561.529	-17.107	-0.122	0.077
-560.515	298.662	-0.101	0.186
-559.500	-200.000	0.009	-0.252
-558.485	179.298	-0.139	-0.204
-557.471	-140.705	-0.246	-0.026
-556.456	-56.019	0.178	0.080
-555.442	33.759	-0.204	0.178
-554.427	-127.406	0.097	-0.014
-553.412	-84.570	0.139	0.044
-552.398	800.000	-0.051	0.192
-551.383	800.000	-0.078	-0.255
-550.369	-200.000	0.011	-0.142
-549.354	-135.806	-0.137	0.016
-548.339	287.578	-0.032	0.058
-547.325	-69.400	0.088	-0.034
-546.310	245.871	0.082	0.139
-545.296	464.618	-0.121	-0.271
-544.281	177.532	-0.224	0.327
-543.266	-200.000	-0.080	0.488
-542.252	-68.666	-0.207	-0.080
-541.237	-106.176	0.217	-0.049
-540.223	800.000	0.057	-0.187
-539.208	-159.368	-0.433	0.024
-538.193	-14.902	0.179	-0.115
-537.179	-55.385	0.116	-0.052
-536.164	-200.000	-0.022	0.106
-535.150	612.613	-0.051	0.128
-534.135	-83.518	-0.266	0.085
-533.121	-151.903	-0.156	-0.011
-532.106	-80.903	-0.005	-0.002
-531.091	800.000	0.089	0.256
-530.077	125.620	0.117	-0.147
-529.062	-200.000	-0.285	0.001
-528.048	-200.000	0.027	-0.131
-527.033	-200.000	-0.036	-0.247
-526.018	-200.000	-0.010	0.205
-525.004	-22.674	0.270	-0.163
-523.989	119.193	-0.161	0.199
-522.975	-2.474	0.003	0.002
-521.960	-82.400	-0.282	-0.092
-520.945	136.796	-0.138	-0.181
-519.931	-140.249	-0.210	0.022
-518.916	336.026	-0.102	-0.199
-517.902	-43.799	-0.296	0.149
-516.887	79.401	0.151	-0.163
-515.872	800.000	-0.058	0.240
-514.858	25.698	0.107	-0.089
-513.843	800.000	0.054	-0.182
-512.829	115.904	-0.057	-0.070
-511.814	73.334	0.069	-0.072
-510.799	528.919	0.075	-0.178
-509.785	231.081	0.097	-0.159
-508.770	-87.080	0.215	0.066
-507.756	800.000	0.026	-0.100
-506.741	800.000	0.088	-0.303
-505.726	-78.259	0.049	-0.017
-504.712	-151.787	0.080	0.006
-503.697	31.706	0.159	-0.137
-502.683	70.636	-0.212	-0.220
-501.668	-200.000	0.010	-0.311
-500.653	-136.618	-0.171	-0.020
-499.639	-32.327	0.307	0.171
-498.624	83.856	-0.090	0.098
-497.610	-114.899	-0.247	-0.047
-496.595	13.252	0.258	0.200
-495.581	458.750	0.149	-0.332
-494.566	-25.861	-0.136	0.080
-493.551	39.231	-0.127	-0.113
-492.537	-125.825	0.192	0.029
-491.522	652.859	0.167	-0.429
-490.508	-64.177	-0.124	0.051
-489.493	-190.093	-0.270	0.003
-488.478	-200.000	-0.017	0.205
-487.464	90.783	-0.178	-0.199
-486.449	-121.454	-0.206	0.034
-485.435	-72.777	-0.079	-0.029
-484.420	44.691	-0.327	-0.301
-483.405	-93.205	0.275	-0.076
-482.391	76.706	0.098	-0.104
-481.376	-109.917	-0.134	-0.028
-480.362	-200.000	0.027	-0.206
-479.347	269.336	-0.063	-0.111
-478.332	5.199	-0.025	0.018
-477.318	-9.273	-0.092	0.062
-476.303	-200.000	-0.023	0.233
-475.289	56.770	-0.149	0.145
-474.274	-43.474	-0.444	-0.224
-473.259	142.670	-0.160	0.213
-472.245	-200.000	0.064	0.481
-471.230	27.103	0.221	-0.185
-470.216	464.564	0.056	0.125
-469.201	428.646	-0.129	0.278
-468.186	396.647	-0.250	0.521
-467.172	-151.198	0.367	0.027
-466.157	-11.827	-0.035	-0.023
-465.143	-200.000	-0.031	0.177
-464.128	800.000	-0.095	0.326
-463.113	484.458	0.088	-0.200
-462.099	-41.364	-0.222	-0.114
-461.084	-38.235	-0.107	0.057
-460.070	-61.068	0.106	-0.045
-459.055	800.000	-0.034	0.135
-458.040	-200.000	0.055	-0.315
-457.026	-200.000	-0.079	0.419
-456.011	-160.979	0.105	-0.006
-454.997	291.140	0.073	-0.133
-453.982	326.702	0.155	0.297
-452.968	40.866	-0.166	0.150
-451.953	-5.108	0.227	0.156
-450.938	14.697	0.159	-0.124
-449.924	-132.522	-0.227	0.029
-448.909	-11.010	0.139	-0.091
-447.895	646.403	-0.049	-0.124
-446.880	36.620	0.098	0.087
-445.865	-118.632	-0.350	0.062
-444.851	800.000	-0.071	0.299
-443.836	-161.768	0.367	0.019
-442.822	60.743	-0.112	0.111
-441.807	-155.987	0.078	-0.005
-440.792	515.213	0.028	-0.066
-439.778	-118.963	0.174	0.031
-438.763	-62.404	0.301	0.125
-437.749	720.179	0.037	0.097
-436.734	21.468	0.127	-0.103
-435.719	-200.000	0.202	-0.000
-434.705	-2.520	0.118	0.083
-433.690	110.620	-0.087	0.104
-432.676	16.536	-0.325	-0.256
-431.661	-177.137	-0.082	0.002
-430.646	-66.693	0.019	-0.008
-429.632	-68.244	-0.143	-0.055
-428.617	354.460	-0.015	-0.029
-427.603	35.439	0.209	0.183
-426.588	19.912	0.076	-0.061
-425.573	-200.000	0.003	0.285
-424.559	2.424	-0.252	-0.182
-423.544	317.390	0.090	-0.170
-422.530	-30.990	0.010	0.006
-421.515	-96.049	-0.239	-0.063
-420.500	-79.702	0.059	-0.020
-419.486	-49.891	0.150	0.071
-418.471	800.000	-0.055	0.186
-417.457	42.369	0.161	0.146
-416.442	-45.413	-0.159	-0.078
-415.428	14.686	-0.155	-0.121
-414.413	217.165	-0.207	0.329
-413.398	800.000	-0.083	0.236
-412.384	-24.133	0.167	-0.100
-411.369	800.000	0.094	0.362
-410.355	-118.186	0.075	-0.013
-409.340	-95.387	-0.275	0.074
-408.325	800.000	0.121	-0.350
-407.311	10.960	-0.164	-0.125
-406.296	-200.000	0.041	-0.217
-405.282	648.078	-0.042	0.108
-404.267	-18.830	0.071	0.044
-403.252	-200.000	0.037	-0.177
-402.238	572.327	0.130	-0.315
-401.223	-55.149	-0.375	-0.168
-400.209	-153.911	-0.131	0.009
-399.194	150.980	-0.142	-0.193
-398.179	150.990	-0.077	0.104
-397.165	40.384	0.324	0.291
-396.150	188.734	0.199	0.296
-395.136	257.693	0.266	-0.456
-394.121	57.419	-0.330	0.321
-393.106	800.000	-0.051	0.153
-392.092	-200.000	-0.008	-0.112
-391.077	-46.097	0.076	-0.037
-390.063	324.059	-0.234	0.445
-389.048	-65.961	0.184	0.073
-388.033	185.123	0.318	-0.470
-387.019	-200.000	-0.029	-0.306
-386.004	-200.000	0.008	0.096
-384.990	-6.150	0.115	0.078
-383.975	-200.000	0.003	0.061
-382.960	-200.000	0.028	0.137
-381.946	-90.254	0.248	0.072
-380.931	139.482	0.131	-0.171
-379.917	-149.557	0.304	0.024
-378.902	110.731	0.183	0.219
-377.888	235.317	-0.081	-0.133
-376.873	215.704	0.044	0.070
-375.858	-12.811	0.236	-0.153
-374.844	800.000	-0.015	0.059
-373.829	-134.377	0.272	-0.033
-372.815	200.842	-0.076	-0.116
-371.800	3.524	-0.146	-0.106
-370.785	-200.000	0.047	-0.407
-369.771	-83.888	0.250	0.079
-368.756	-49.415	0.072	0.034
-367.742	-200.000	0.050	0.263
-366.727	447.566	-0.100	-0.219
-365.712	171.502	-0.063	0.091
-364.698	-200.000	0.017	0.170
-363.683	220.232	0.128	0.205
-362.669	-63.912	0.363	-0.148
-361.654	-53.410	-0.122	0.056
-360.639	-47.909	0.232	-0.112
-359.625	335.373	-0.060	-0.116
-358.610	390.871	0.065	0.134
-357.596	307.133	-0.068	-0.125
-356.581	-126.595	0.080	0.012
-355.566	260.693	-0.287	-0.494
-354.552	143.276	0.213	-0.282
-353.537	-58.050	-0.139	0.060
-352.523	-96.263	0.170	0.045
-351.508	-10.914	-0.348	0.229
-350.493	82.026	-0.114	0.123
-349.479	48.982	0.092	-0.086
-348.464	134.023	-0.047	0.060
-347.450	800.000	-0.012	0.034
-346.435	145.621	0.172	0.229
-345.420	35.818	-0.290	-0.254
-344.406	-77.615	-0.224	0.077
-343.391	-200.000	0.016	-0.125
-342.377	126.729	0.145	-0.183
-341.362	-200.000	0.000	-0.276
-340.348	121.403	-0.104	0.128
-339.333	8.859	0.217	0.163
-338.318	-160.584	-0.080	0.004
-337.304	261.606	-0.134	-0.231
-336.289	-5.601	0.318	-0.217
-335.275	-169.658	0.211	0.008
-334.260	17.366	-0.377	-0.298
-333.245	348.837	0.153	-0.300
-332.231	-200.000	0.011	0.187
-331.216	-118.619	-0.103	-0.018
-330.202	396.045	0.110	-0.227
-329.187	-3.553	0.245	0.169
-328.172	31.149	0.025	-0.021
-327.158	335.538	-0.142	-0.273
-326.143	-131.566	-0.264	-0.035
-325.129	-6.738	0.066	-0.045
-324.114	-200.000	-0.021	-0.100
-323.099	10.134	-0.173	0.130
-322.085	-200.000	0.028	0.344
-321.070	-71.440	-0.073	0.027
-320.056	334.372	-0.080	0.153
-319.041	42.908	0.047	-0.043
-318.026	32.187	0.211	0.181
-317.012	-35.049	-0.135	0.073
-315.997	-83.653	-0.209	0.066
-314.983	800.000	-0.044	0.161
-313.968	-182.164	-0.061	0.001
-312.953	-131.867	-0.351	0.046
-311.939	72.789	-0.144	0.149
-310.924	58.470	0.198	-0.193
-309.910	-119.826	0.135	-0.023
-308.895	-200.000	0.016	0.236
-307.880	12.020	0.303	0.232
-306.866	-74.029	-0.296	-0.107
-305.851	-172.475	-0.046	0.001
-304.837	-64.283	-0.096	-0.039
-303.822	362.384	0.110	0.220
-302.807	665.944	0.160	-0.410
-301.793	54.021	-0.240	-0.229
-300.778	18.003	0.127	-0.101
-299.764	800.000	0.155	-0.526
-298.749	-48.040	-0.117	-0.056
-297.735	232.460	-0.121	-0.197
-296.720	277.899	0.170	0.301
-295.705	-73.855	0.183	-0.066
-294.691	112.918	0.348	0.418
-293.676	-151.545	0.424	-0.031
-292.662	-114.083	-0.134	-0.026
-291.647	86.062	0.105	0.115
-290.632	-59.847	0.268	0.114
-289.618	0.404	-0.048	0.034
-288.603	800.000	-0.098	0.314
-287.589	12.383	0.141	-0.108
-286.574	-113.380	-0.245	0.048
-285.559	-200.000	-0.027	0.149
-284.545	88.468	0.221	0.244
-283.530	86.972	0.304	-0.333
-282.516	365.709	-0.115	-0.230
-281.501	173.047	-0.202	-0.288
-280.486	-71.231	0.323	-0.120
-279.472	334.159	-0.041	0.079
-278.457	-4.677	-0.143	-0.098
-277.443	-138.257	0.329	0.036
-276.428	467.834	0.096	0.213
-275.413	61.112	0.120	0.119
-274.399	87.033	-0.084	0.092
-273.384	-200.000	0.032	0.420
-272.370	78.818	0.305	0.324
-271.355	98.314	-0.113	0.129
-270.340	-21.785	0.149	0.090
-269.326	-200.000	-0.046	-0.241
-268.311	182.663	-0.056	-0.082
-267.297	-187.471	-0.142	0.002
-266.282	-176.037	0.151	-0.004
-265.267	21.886	-0.066	-0.053
-264.253	53.157	0.144	-0.136
-263.238	-200.000	-0.029	0.273
-262.224	76.288	-0.134	0.141
-261.209	-200.000	0.043	0.288
-260.195	703.855	0.080	0.210
-259.180	110.690	0.226	0.269
-258.165	110.359	0.155	-0.184
-257.151	-200.000	-0.019	0.141
-256.136	78.464	-0.109	0.115
-255.122	-140.056	-0.245	0.026
-254.107	17.200	0.237	0.187
-253.092	-163.841	0.043	-0.002
-252.078	800.000	-0.064	-0.219
-251.063	-147.707	-0.260	0.022
-250.049	23.856	0.076	0.062
-249.034	-134.790	-0.356	-0.043
-248.019	800.000	-0.028	0.078
-247.005	643.709	0.056	0.141
-245.990	-18.344	0.301	0.186
-244.976	-154.934	-0.301	-0.020
-243.961	-132.282	-0.103	-0.013
-242.946	-0.261	0.125	0.088
-241.932	-51.347	0.177	-0.082
-240.917	-127.447	-0.202	0.029
-239.903	800.000	0.029	0.116
-238.888	-200.000	-0.029	-0.217
-237.873	0.943	0.194	0.138
-236.859	243.693	-0.158	0.262
-235.844	20.363	0.096	-0.077
-234.830	-29.903	0.315	-0.178
-233.815	-134.280	-0.341	0.042
-232.800	-200.000	-0.074	0.372
-231.786	53.352	0.231	0.219
-230.771	-109.550	0.257	-0.054
-229.757	-121.213	0.260	0.043
-228.742	-200.000	-0.007	0.185
-227.727	443.189	-0.018	0.040
-226.713	-200.000	-0.001	-0.144
-225.698	-200.000	0.016	0.121
-224.684	77.139	-0.091	0.096
-223.669	147.416	0.104	0.138
-222.655	-2.770	0.099	0.069
-221.640	-190.811	-0.217	0.002
-220.625	199.680	-0.224	-0.339
-219.611	233.268	-0.129	-0.210
-218.596	97.639	0.226	-0.257
-217.582	35.914	0.062	0.054
-216.567	-200.000	0.020	-0.151
-215.552	-200.000	0.029	0.154
-214.538	-56.532	-0.195	0.086
-213.523	-92.902	-0.014	0.004
-212.509	-121.034	-0.071	0.012
-211.494	-200.000	0.037	0.262
-210.479	-200.000	0.001	0.175
-209.465	103.762	0.219	0.255
-208.450	-200.000	0.016	-0.233
-207.436	-25.939	-0.174	0.101
-206.421	181.852	-0.024	0.035
-205.406	-134.057	0.223	0.027
-204.392	111.763	0.097	0.116
-203.377	-47.650	0.255	0.122
-202.363	-102.113	-0.214	-0.051
-201.348	-120.463	0.244	-0.041
-200.333	597.280	0.054	0.131
-199.319	-200.000	-0.010	-0.046
-198.304	550.915	0.106	0.253
-197.290	-95.525	-0.259	-0.069
-196.275	518.835	-0.195	-0.450
-195.260	-200.000	0.017	0.306
-194.246	-17.749	0.287	0.178
-193.231	165.543	-0.125	0.174
-192.217	44.995	0.228	-0.208
-191.202	-200.000	-0.017	0.188
-190.187	-200.000	0.055	-0.239
-189.173	800.000	0.039	0.154
-188.158	237.159	0.085	-0.139
-187.144	98.603	-0.166	-0.189
-186.129	153.865	-0.056	-0.076
-185.114	79.789	-0.032	0.034
-184.100	-200.000	0.016	0.407
-183.085	41.686	-0.365	0.327
-182.071	-115.196	-0.206	0.039
-181.056	104.519	0.104	0.121
-180.042	361.837	-0.150	-0.297
-179.027	-160.265	-0.290	0.015
-178.012	74.230	0.159	-0.165
-176.998	673.669	-0.027	0.068
-175.983	792.564	0.096	-0.261
-174.969	-90.825	0.157	-0.045
-173.954	-27.699	-0.204	0.117
-172.939	24.026	-0.230	0.187
-171.925	800.000	-0.015	0.043
-170.910	386.141	0.125	0.255
-169.896	-200.000	0.040	-0.000
-168.881	-71.175	0.202	-0.075
-167.866	304.140	-0.207	0.378
-166.852	-200.000	0.003	0.106
-165.837	730.730	0.045	0.118
-164.823	-172.459	-0.219	0.007
-163.808	-105.307	-0.306	0.069
-162.793	85.200	0.174	0.188
-161.779	504.867	-0.188	0.430
-160.764	-140.945	0.023	-0.002
-159.750	-67.056	0.047	-0.018
-158.735	800.000	0.014	-0.061
-157.720	14.215	0.433	0.333
-156.706	12.101	0.183	0.139
-155.691	732.215	0.041	-0.108
-154.677	107.790	0.059	0.069
-153.662	38.005	0.215	0.189
-152.647	242.228	-0.204	-0.337
-151.633	157.741	0.067	-0.091
-150.618	-124.382	-0.089	-0.014
-149.604	21.335	0.115	-0.092
-148.589	-74.315	0.278	-0.099
-147.574	-86.687	0.155	0.047
-146.560	767.592	-0.052	0.140
-145.545	-90.339	0.234	0.067
-144.531	-42.325	0.136	0.069
-143.516	800.000	0.105	-0.309
-142.502	-31.554	0.185	-0.103
-141.487	800.000	0.066	0.193
-140.472	3.586	0.032	-0.023
-139.458	-200.000	-0.069	-0.334
-138.443	677.754	0.047	-0.121
-137.429	-67.995	0.034	-0.013
-136.414	-200.000	-0.046	0.295
-135.399	-200.000	-0.084	0.370
-134.385	-200.000	0.052	-0.449
-133.370	132.564	0.078	-0.099
-132.356	-98.110	0.063	0.016
-131.341	393.975	-0.112	-0.229
-130.326	-66.827	0.154	0.060
-129.312	252.664	0.035	-0.059
-128.297	424.095	0.164	-0.347
-127.283	-122.853	-0.183	-0.029
-126.268	386.291	0.070	0.142
-125.253	33.478	-0.090	-0.077
-124.239	-200.000	0.002	0.077
-123.224	84.265	0.174	-0.188
-122.210	-41.658	-0.213	0.108
-121.195	70.407	-0.011	-0.011
-120.180	-200.000	0.016	0.385
-119.166	800.000	0.085	-0.365
-118.151	264.632	-0.150	-0.257
-117.137	135.519	0.126	0.162
-116.122	38.316	-0.091	0.080
-115.107	-148.309	0.182	0.015
-114.093	92.239	0.105	0.117
-113.078	-123.534	-0.103	0.016
-112.064	19.586	-0.203	0.161
-111.049	22.666	0.137	0.110
-110.034	66.445	-0.152	-0.152
-109.020	250.659	-0.142	0.239
-108.005	-123.307	-0.037	-0.006
-106.991	350.035	0.070	-0.135
-105.976	-51.076	-0.279	-0.129
-104.962	-59.868	0.200	0.084
-103.947	0.694	-0.059	0.041
-102.932	-100.174	-0.106	0.026
-101.918	135.609	0.210	-0.269
-100.903	93.475	0.091	0.102
-99.889	403.795	0.085	-0.176
-98.874	167.246	0.171	-0.239
-97.859	-200.000	-0.005	-0.060
-96.845	-200.000	0.008	-0.065
-95.830	-200.000	-0.027	0.176
-94.816	800.000	0.092	0.372
-93.801	-104.707	0.328	0.074
-92.786	84.604	0.136	-0.146
-91.772	-21.210	0.095	0.057
-90.757	37.758	-0.211	-0.185
-89.743	38.891	0.078	-0.068
-88.728	-200.000	0.022	0.287
-87.713	64.998	-0.197	-0.196
-86.699	800.000	-0.009	0.026
-85.684	800.000	0.062	0.250
-84.670	-66.683	-0.208	0.081
-83.655	28.737	0.282	-0.235
-82.640	-142.418	-0.420	-0.041
-81.626	-149.558	0.503	-0.039
-80.611	767.241	-0.018	-0.048
-79.597	-159.079	0.310	0.017
-78.582	-200.000	0.027	0.303
-77.567	578.063	0.141	-0.339
-76.553	-200.000	-0.025	0.150
-75.538	-200.000	-0.026	-0.388
-74.524	-7.441	0.212	-0.141
-73.509	-150.218	0.227	-0.017
-72.494	59.798	0.071	-0.069
-71.480	-63.615	-0.097	0.039
-70.465	120.533	0.304	-0.372
-69.451	-200.000	0.002	-0.169
-68.436	632.786	-0.081	0.202
-67.422	524.929	-0.046	0.107
-66.407	-63.147	-0.163	0.066
-65.392	-200.000	-0.102	0.604
-64.378	-200.000	0.004	-0.436
-63.363	262.724	-0.115	-0.196
-62.349	-200.000	0.059	0.269
-61.334	79.703	-0.788	-0.832
-60.319	-29.223	0.665	0.375
-59.305	800.000	-0.354	-0.966
-58.290	109.028	0.583	0.686
-57.276	615.308	0.718	1.769
-56.261	-200.000	100.690	585.519
-55.246	615.313	1416.852	3491.885
-54.232	182.264	2649.497	3839.142
-53.217	115.320	2316.755	2782.194
-52.203	44.648	1925.233	1740.225
-51.188	38.259	1710.574	1497.393
-50.173	35.472	1664.693	1436.353
-49.159	52.477	1715.700	1609.968
-48.144	55.701	1732.909	1650.525
-47.130	37.837	1687.230	1473.530
-46.115	34.940	1672.198	1438.599
-45.100	34.738	1667.450	1432.938
-44.086	34.637	1665.384	1430.351
-43.071	34.716	1662.279	1428.217
-42.057	34.680	1659.721	1425.694
-41.042	34.680	1658.395	1424.503
-40.027	34.681	1656.362	1422.706
-39.013	34.607	1654.001	1420.069
-37.998	34.661	1652.273	1418.934
-36.984	34.793	1650.757	1418.552
-35.969	34.797	1649.259	1417.239
-34.954	34.879	1647.176	1415.999
-33.940	34.967	1645.251	1414.938
-32.925	34.912	1643.959	1413.368
-31.911	34.883	1642.158	1411.549
-30.896	34.791	1640.944	1409.772
-29.881	34.871	1638.957	1408.597
-28.867	34.862	1637.471	1407.194
-27.852	34.846	1635.894	1405.672
-26.838	34.906	1633.905	1404.345
-25.823	34.841	1633.121	1403.136
-24.809	34.862	1631.678	1401.998
-23.794	34.916	1629.910	1400.819
-22.779	34.949	1628.527	1399.816
-21.765	34.905	1626.545	1397.730
-20.750	34.897	1625.168	1396.440
-19.736	34.911	1623.920	1395.408
-18.721	34.894	1622.201	1393.755
-17.706	34.870	1620.699	1392.231
-16.692	34.888	1618.923	1390.783
-15.677	34.845	1618.050	1389.664
-14.663	34.865	1616.548	1388.467
-13.648	34.996	1614.738	1387.805
-12.633	34.837	1613.575	1385.602
-11.619	34.878	1611.926	1384.429
-10.604	34.924	1609.992	1383.045
-9.590	34.883	1608.923	1381.776
-8.575	34.878	1608.196	1381.057
-7.560	34.809	1606.927	1379.414
-6.546	34.877	1605.969	1379.032
-5.531	34.974	1604.156	1378.117
-4.517	34.956	1603.085	1377.013
-3.502	34.844	1602.123	1375.323
-2.487	34.960	1600.439	1374.658
-1.473	34.461	1588.354	1360.667
-0.458	31.134	1567.006	1318.853
0.556	24.466	1565.399	1279.245
1.571	21.767	1588.536	1278.384
2.586	21.167	1602.715	1285.265
3.600	19.175	1551.487	1229.859
4.615	10.390	1439.754	1082.719
5.629	1.702	1370.897	975.372
6.644	-0.112	1361.929	957.349
7.659	-0.326	1360.623	954.985
8.673	-0.478	1359.459	953.117
9.688	-0.383	1357.488	952.257
10.702	-0.672	1354.632	948.335
11.717	2.713	1361.415	974.534
12.731	11.900	1378.361	1045.466
13.746	18.062	1388.751	1092.771
14.761	18.656	1388.184	1096.023
15.775	18.606	1387.677	1095.207
16.790	18.582	1387.497	1094.814
17.804	18.685	1386.954	1094.951
18.819	19.048	1386.088	1096.484
19.834	19.011	1385.587	1095.753
20.848	18.927	1384.794	1094.493
21.863	18.994	1384.143	1094.305
22.877	18.951	1383.360	1093.321
23.892	19.033	1381.787	1092.500
24.907	18.973	1381.512	1091.805
25.921	19.039	1380.315	1091.184
26.936	18.991	1379.160	1089.870
27.950	18.996	1378.643	1089.396
28.965	18.952	1377.262	1087.929
29.980	18.946	1375.797	1086.634
30.994	18.930	1374.313	1085.269
32.009	18.952	1373.470	1084.641
33.023	18.923	1372.392	1083.513
34.038	19.014	1370.621	1082.590
35.053	18.967	1369.510	1081.321
36.067	18.954	1369.083	1080.811
37.082	19.011	1367.832	1080.084
38.096	19.045	1367.084	1079.609
39.111	18.981	1365.945	1078.216
40.126	19.017	1365.627	1078.092
41.140	19.007	1364.818	1077.301
42.155	19.000	1364.457	1076.871
43.169	18.915	1364.723	1076.457
44.184	18.966	1364.057	1076.157
45.199	18.863	1364.075	1075.428
46.213	18.923	1363.650	1075.372
47.228	19.041	1362.131	1074.821
48.242	18.984	1361.020	1073.493
49.257	19.036	1359.587	1072.590
50.271	19.000	1358.302	1071.258
51.286	18.995	1356.179	1069.454
52.301	18.980	1355.744	1068.927
53.315	18.930	1354.370	1067.439
54.330	18.963	1353.382	1066.767
55.344	18.946	1352.393	1065.790
56.359	18.966	1351.377	1065.020
57.374	18.975	1350.912	1064.612
58.388	18.970	1349.739	1063.567
59.403	18.932	1349.533	1063.075
60.417	18.885	1348.825	1062.131
61.432	18.951	1347.921	1061.730
62.447	18.884	1347.471	1060.872
63.461	18.973	1346.066	1060.217
64.476	19.011	1344.806	1059.364
65.490	18.941	1343.752	1058.012
66.505	19.001	1341.913	1056.841
67.520	19.020	1340.690	1055.900
68.534	18.968	1340.093	1055.016
69.549	19.047	1338.770	1054.367
70.563	19.025	1337.605	1053.218
71.578	19.018	1336.766	1052.424
72.593	19.017	1335.861	1051.613
73.607	19.015	1335.017	1050.845
74.622	19.007	1334.148	1050.014
75.636	19.034	1333.163	1049.311
76.651	19.021	1332.969	1048.987
77.666	19.020	1332.583	1048.585
78.680	18.989	1331.584	1047.517
79.695	19.122	1330.572	1047.438
80.709	19.005	1329.880	1046.091
81.724	19.011	1329.262	1045.546
82.739	19.006	1328.277	1044.652
83.753	19.023	1327.053	1043.698
84.768	18.929	1326.025	1042.227
85.782	19.002	1324.866	1041.666
86.797	19.047	1323.307	1040.617
87.812	18.931	1322.369	1039.087
88.826	18.944	1321.151	1038.119
89.841	19.021	1320.004	1037.592
90.855	19.090	1319.057	1037.171
91.870	18.967	1318.210	1035.671
92.884	18.976	1317.140	1034.796
93.899	19.070	1316.352	1034.650
94.914	19.109	1315.216	1033.900
95.928	19.041	1314.295	1032.673
96.943	19.152	1313.986	1033.004
97.957	19.042	1313.415	1031.806
98.972	19.077	1312.348	1031.088
99.987	18.998	1311.369	1029.755
101.001	19.009	1310.054	1028.697
102.016	18.979	1309.033	1027.622
103.030	18.997	1308.535	1027.251
104.045	19.064	1307.048	1026.389
105.060	19.154	1305.743	1025.808
106.074	19.058	1305.028	1024.585
107.089	19.118	1303.755	1023.855
108.103	19.145	1302.345	1022.814
109.118	19.169	1301.600	1022.282
110.133	19.095	1300.326	1020.753
111.147	19.165	1298.709	1019.806
112.162	19.148	1297.330	1018.532
113.176	19.145	1296.483	1017.759
114.191	19.140	1295.537	1016.900
115.206	19.055	1294.992	1015.882
116.220	19.071	1293.324	1014.578
117.235	19.017	1292.739	1013.708
118.249	19.101	1291.234	1012.933
119.264	19.133	1290.400	1012.380
120.279	19.041	1289.674	1011.175
121.293	19.212	1288.086	1010.844
122.308	19.208	1287.000	1009.882
123.322	19.097	1286.754	1008.947
124.337	19.094	1285.792	1008.089
125.352	19.186	1284.439	1007.474
126.366	19.207	1282.912	1006.309
127.381	19.162	1282.735	1005.820
128.395	19.159	1281.486	1004.736
129.410	19.220	1280.591	1004.299
130.424	19.190	1279.620	1003.277
131.439	19.270	1278.490	1002.763
132.454	19.222	1277.752	1001.817
133.468	19.192	1277.037	1000.998
134.483	19.073	1276.457	999.758
135.497	19.099	1275.918	999.400
136.512	19.156	1274.196	998.293
137.527	19.153	1273.170	997.386
138.541	19.114	1271.769	995.971
139.556	19.111	1270.487	994.862
140.570	19.164	1269.103	993.997
141.585	19.136	1267.618	992.588
142.600	19.152	1266.628	991.817
143.614	19.251	1265.852	991.691
144.629	19.112	1264.939	990.089
145.643	19.087	1263.804	988.967
146.658	19.023	1262.857	987.772
147.673	19.106	1261.336	986.968
148.687	18.993	1260.772	985.792
149.702	19.059	1259.422	985.031
150.716	19.066	1258.196	984.024
151.731	19.163	1257.234	983.736
152.746	19.076	1256.026	982.206
153.760	19.139	1255.097	981.757
154.775	19.170	1254.171	981.122
155.789	19.192	1252.963	980.212
156.804	19.161	1252.053	979.239
157.819	19.131	1251.214	978.327
158.833	19.176	1250.250	977.739
159.848	19.217	1249.566	977.352
160.862	19.212	1248.899	976.714
161.877	19.192	1247.859	975.703
162.892	19.142	1246.861	974.550
163.906	19.193	1246.502	974.473
164.921	19.201	1245.370	973.546
165.935	19.285	1244.276	973.081
166.950	19.272	1243.791	972.542
167.964	19.313	1242.777	971.897
168.979	19.273	1242.964	971.732
169.994	19.282	1242.232	971.123
171.008	19.306	1240.864	970.102
172.023	19.217	1240.436	969.178
173.037	19.176	1239.992	968.515
174.052	19.332	1238.786	968.368
175.067	19.326	1237.838	967.503
176.081	19.187	1237.278	966.201
177.096	19.182	1236.814	965.728
178.110	19.355	1235.331	965.452
179.125	19.389	1234.382	964.817
180.140	19.322	1233.092	963.348
181.154	19.285	1232.373	962.496
182.169	19.281	1231.544	961.736
183.183	19.225	1230.501	960.526
184.198	19.219	1229.526	959.649
185.213	19.296	1228.586	959.256
186.227	19.342	1227.680	958.723
187.242	19.441	1226.564	958.317
188.256	19.320	1225.605	956.807
189.271	19.271	1224.587	955.656
190.286	19.443	1223.811	955.920
191.300	19.403	1223.067	955.033
192.315	19.341	1222.819	954.412
193.329	19.333	1222.432	953.983
194.344	19.421	1221.610	953.741
195.359	19.359	1221.546	953.267
196.373	19.389	1220.589	952.597
197.388	19.270	1220.231	951.576
198.402	19.342	1219.833	951.584
199.417	19.360	1219.301	951.182
200.432	19.389	1218.803	950.870
201.446	19.359	1218.263	950.201
202.461	19.310	1217.293	949.087
203.475	19.275	1216.201	947.960
204.490	19.331	1215.129	947.346
205.504	19.249	1214.551	946.361
206.519	19.316	1213.573	945.884
207.534	19.424	1211.961	945.136
208.548	19.436	1211.293	944.596
209.563	19.401	1210.642	943.818
210.577	19.442	1209.488	943.055
211.592	19.304	1209.393	942.146
212.607	19.453	1208.595	942.254
213.621	19.440	1207.819	941.494
214.636	19.513	1206.555	940.825
215.650	19.456	1205.840	939.874
216.665	19.462	1204.858	939.057
217.680	19.454	1203.958	938.226
218.694	19.407	1203.298	937.374
219.709	19.436	1202.395	936.748
220.723	19.468	1201.829	936.396
221.738	19.379	1201.077	935.243
222.753	19.490	1200.278	935.139
223.767	19.450	1199.472	934.216
224.782	19.560	1199.348	934.631
225.796	19.531	1198.654	933.851
226.811	19.614	1197.770	933.526
227.826	19.542	1197.463	932.814
228.840	19.564	1196.925	932.434
229.855	19.614	1195.683	931.653
230.869	19.525	1195.453	930.910
231.884	19.590	1194.357	930.326
232.899	19.606	1193.833	929.921
233.913	19.650	1193.169	929.560
234.928	19.642	1192.786	929.137
235.942	19.527	1192.364	928.104
236.957	19.684	1191.231	927.983
237.972	19.584	1190.677	926.937
238.986	19.606	1190.176	926.582
240.001	19.540	1189.869	925.904
241.015	19.743	1188.433	925.793
242.030	19.584	1187.779	924.352
243.045	19.751	1186.923	924.497
244.059	19.670	1186.656	923.774
245.074	19.604	1185.591	922.512
246.088	19.727	1184.660	922.361
247.103	19.754	1183.773	921.730
248.117	19.674	1183.064	920.672
249.132	19.717	1181.958	919.958
250.147	19.692	1181.700	919.541
251.161	19.738	1181.210	919.327
252.176	19.773	1180.066	918.542
253.190	19.811	1179.664	918.347
254.205	19.707	1179.024	917.214
255.220	19.780	1178.471	917.091
256.234	19.748	1178.218	916.642
257.249	19.854	1177.190	916.322
258.263	19.856	1176.796	915.950
259.278	19.944	1176.269	915.923
260.293	19.908	1175.481	915.038
261.307	19.814	1175.388	914.385
262.322	19.808	1174.624	913.677
263.336	19.833	1173.803	913.091
264.351	19.868	1173.313	912.813
265.366	19.853	1172.174	911.770
266.380	19.883	1171.620	911.414
267.395	19.880	1171.104	910.920
268.409	19.805	1170.722	910.145
269.424	19.778	1169.924	909.301
270.439	19.950	1169.338	909.668
271.453	19.819	1168.836	908.509
272.468	19.791	1167.771	907.457
273.482	19.836	1167.374	907.301
274.497	19.774	1166.819	906.465
275.512	19.926	1166.394	906.853
276.526	19.996	1165.398	906.366
277.541	19.911	1164.987	905.518
278.555	19.919	1164.316	904.961
279.570	19.946	1163.533	904.411
280.585	19.998	1162.378	903.708
281.599	19.930	1161.784	902.809
282.614	19.937	1160.843	902.033
283.628	20.007	1160.030	901.686
284.643	20.028	1159.185	901.062
285.657	19.961	1157.915	899.647
286.672	19.939	1157.442	899.083
287.687	20.072	1156.783	899.183
288.701	20.067	1156.307	898.709
289.716	19.957	1155.230	897.219
290.730	19.994	1154.726	896.942
291.745	20.156	1153.888	897.051
292.760	20.145	1152.955	896.188
293.774	20.120	1152.397	895.548
294.789	20.253	1151.873	895.748
295.803	20.116	1151.495	894.668
296.818	20.081	1150.720	893.804
297.833	20.199	1150.190	893.922
298.847	20.095	1149.627	892.868
299.862	20.149	1148.464	892.163
300.876	20.159	1147.745	891.577
301.891	20.208	1147.828	891.814
302.906	20.226	1146.746	890.987
303.920	20.215	1146.511	890.670
304.935	20.211	1145.753	889.981
305.949	20.208	1145.012	889.313
306.964	20.225	1144.218	888.704
307.979	20.271	1143.893	888.608
308.993	20.360	1142.706	888.065
310.008	20.219	1142.349	886.986
311.022	20.247	1141.577	886.450
312.037	20.229	1140.478	885.428
313.052	20.227	1139.855	884.855
314.066	20.305	1138.955	884.475
315.081	20.260	1138.412	883.745
316.095	20.262	1137.758	883.173
317.110	20.305	1136.837	882.597
318.125	20.400	1136.358	882.631
319.139	20.366	1135.374	881.613
320.154	20.373	1134.905	881.207
321.168	20.351	1134.349	880.589
322.183	20.497	1133.685	880.736
323.197	20.331	1133.004	879.287
324.212	20.315	1132.570	878.790
325.227	20.369	1132.204	878.703
326.241	20.434	1131.400	878.329
327.256	20.500	1130.292	877.726
328.270	20.381	1129.945	876.774
329.285	20.347	1128.945	875.752
330.300	20.461	1128.419	875.839
331.314	20.362	1127.939	874.891
332.329	20.377	1126.629	873.873
333.343	20.603	1125.578	874.119
334.358	20.568	1124.831	873.284
335.373	20.569	1124.402	872.878
336.387	20.540	1123.987	872.333
337.402	20.489	1123.202	871.391
338.416	20.572	1122.269	871.008
339.431	20.567	1121.960	870.666
340.446	20.520	1121.451	869.958
341.460	20.520	1120.737	869.327
342.475	20.575	1120.196	869.105
343.489	20.708	1118.671	868.508
344.504	20.579	1118.187	867.413
345.519	20.590	1117.210	866.635
346.533	20.633	1116.721	866.391
347.548	20.486	1115.921	864.960
348.562	20.727	1114.773	865.193
349.577	20.706	1114.137	864.517
350.592	20.571	1113.866	863.564
351.606	20.570	1113.057	862.854
352.621	20.655	1112.526	862.785
353.635	20.629	1112.023	862.193
354.650	20.667	1111.219	861.679
355.665	20.707	1110.516	861.256
356.679	20.707	1110.110	860.866
357.694	20.678	1109.490	860.165
358.708	20.615	1108.814	859.254
359.723	20.664	1108.204	858.948
360.738	20.817	1107.123	858.790
361.752	20.714	1106.851	857.994
362.767	20.761	1106.666	858.006
363.781	20.693	1105.803	856.924
364.796	20.792	1105.099	856.789
365.810	20.803	1104.758	856.505
366.825	20.783	1104.135	855.848
367.840	20.891	1103.571	855.868
368.854	20.896	1102.919	855.307
369.869	20.830	1102.090	854.266
370.883	20.857	1101.496	853.865
371.898	20.918	1100.817	853.561
372.913	20.904	1100.345	853.052
373.927	20.836	1100.139	852.481
374.942	20.995	1099.224	852.475
375.956	20.915	1098.906	851.760
376.971	20.963	1098.538	851.634
377.986	20.927	1097.920	850.905
379.000	20.862	1097.322	850.048
380.015	21.038	1096.567	850.247
381.029	21.034	1095.413	849.256
382.044	20.947	1094.991	848.431
383.059	21.075	1094.528	848.621
384.073	21.134	1093.664	848.161
385.088	20.962	1092.932	846.683
386.102	21.003	1092.017	846.101
387.117	20.932	1091.196	845.046
388.132	21.026	1090.352	844.774
389.146	21.043	1089.508	844.127
390.161	21.006	1089.290	843.704
391.175	21.141	1088.406	843.594
392.190	21.028	1087.584	842.338
393.205	21.151	1086.526	842.039
394.219	21.152	1086.209	841.724
395.234	21.088	1085.549	840.829
396.248	21.231	1084.404	840.556
397.263	21.154	1083.558	839.455
398.278	21.290	1082.715	839.382
399.292	21.127	1082.588	838.425
400.307	21.119	1082.129	837.958
401.321	21.214	1081.261	837.667
402.336	21.149	1080.762	836.896
403.350	21.240	1079.857	836.556
404.365	21.257	1079.192	836.045
405.380	21.207	1078.559	835.246
406.394	21.451	1077.484	835.503
407.409	21.345	1076.872	834.446
408.423	21.334	1076.117	833.739
409.438	21.372	1075.435	833.318
410.453	21.338	1074.857	832.631
411.467	21.412	1073.927	832.191
412.482	21.317	1073.334	831.207
413.496	21.324	1072.627	830.618
414.511	21.416	1072.206	830.656
415.526	21.370	1071.740	830.001
416.540	21.340	1071.205	829.372
417.555	21.401	1070.658	829.163
418.569	21.464	1070.123	828.973
419.584	21.457	1069.884	828.682
420.599	21.329	1069.806	827.943
421.613	147.666	1396.013	1791.648
422.628	136.101	1443.512	1791.732
