DTS Sentinel unit serial number:	SN413079Multiplexer serial number:	ORYXHardware model number:	OX4-SRSoftware version number:	ORYX F/W v4.00 Oryx Data Collector v3.7.2.0data status	okinstallation	princeton_trtdifferential loss correction	single-endedforward channel	channel 2reverse channel	N/Adate	2019/09/11time	22:57:10forward acquisition time	60.00reverse acquisition time	0.00gamma	496.2192k internal	0.2324k external	0.2324temperature offset calibration	1.0078default loss term (dB/km)	0.3790temperature slope calibration	1.0000multiplexer offset coefficient	1.0000multiplexer slope coefficient	1.0000fibre end	0.00T internal ref (°C)	34.62T ext. ref 1 (°C)	1.84T ext. ref 2 (°C)	29.34length (m)	temperature (°C)	Stokes	anti-Stokes-747.200	118.220	-0.170	0.211
-746.185	-200.000	0.013	0.097
-745.171	703.161	-0.076	-0.203
-744.156	800.000	-0.091	0.273
-743.142	515.567	-0.066	-0.155
-742.127	-100.447	0.173	0.043
-741.112	-33.060	-0.058	0.033
-740.098	-117.528	0.253	-0.046
-739.083	-149.377	-0.227	0.018
-738.069	-200.000	-0.040	0.496
-737.054	800.000	0.111	0.452
-736.039	288.897	0.175	0.320
-735.025	70.833	-0.239	0.249
-734.010	68.003	-0.091	0.094
-732.996	617.474	0.110	-0.279
-731.981	-6.120	0.243	0.168
-730.966	40.195	-0.138	-0.125
-729.952	601.572	0.058	-0.145
-728.937	369.308	-0.028	0.057
-727.923	-200.000	0.012	0.273
-726.908	-41.287	0.093	-0.048
-725.894	429.963	-0.104	0.227
-724.879	35.370	0.283	-0.250
-723.864	-95.092	-0.293	0.080
-722.850	-200.000	0.102	0.509
-721.835	-200.000	-0.034	-0.281
-720.821	-11.414	-0.145	0.096
-719.806	-200.000	0.033	0.221
-718.791	800.000	0.066	0.229
-717.777	702.855	-0.045	-0.119
-716.762	468.944	0.102	-0.232
-715.748	-200.000	0.034	-0.292
-714.733	-133.370	-0.391	-0.050
-713.718	18.372	-0.123	-0.099
-712.704	-4.786	0.362	0.252
-711.689	-200.000	0.050	-0.325
-710.675	-200.000	0.040	-0.190
-709.660	13.454	-0.221	-0.173
-708.645	-23.333	0.362	0.219
-707.631	55.324	-0.071	-0.070
-706.616	-200.000	-0.013	-0.280
-705.602	-29.920	-0.314	-0.180
-704.587	96.708	-0.150	-0.173
-703.572	-200.000	-0.001	-0.045
-702.558	-46.458	0.060	0.030
-701.543	-127.094	-0.309	-0.046
-700.529	-14.596	0.153	0.099
-699.514	-177.314	-0.131	0.003
-698.499	-200.000	-0.043	-0.268
-697.485	-19.574	-0.061	-0.038
-696.470	23.434	-0.112	-0.093
-695.456	772.558	0.125	0.343
-694.441	-200.000	0.028	0.147
-693.426	-108.741	-0.377	-0.081
-692.412	257.593	-0.131	0.227
-691.397	-179.560	0.189	-0.004
-690.383	179.058	0.148	0.218
-689.368	212.013	0.047	-0.075
-688.354	84.569	-0.151	0.166
-687.339	-190.025	-0.080	-0.001
-686.324	8.111	-0.069	-0.052
-685.310	-157.013	0.135	-0.008
-684.295	800.000	-0.096	0.359
-683.281	-69.038	0.174	0.068
-682.266	-80.522	-0.287	-0.096
-681.251	66.203	-0.185	-0.190
-680.237	-158.942	-0.170	0.010
-679.222	195.254	0.096	-0.147
-678.208	59.928	0.062	-0.062
-677.193	-200.000	0.064	0.447
-676.178	800.000	0.027	-0.109
-675.164	519.561	0.200	-0.472
-674.149	11.006	0.203	-0.156
-673.135	86.337	0.083	-0.092
-672.120	-200.000	-0.095	-0.441
-671.105	95.126	0.155	-0.178
-670.091	-42.134	-0.281	0.145
-669.076	-200.000	-0.003	0.077
-668.062	-200.000	0.049	0.279
-667.047	-200.000	-0.093	0.420
-666.032	-14.990	0.196	0.126
-665.018	96.744	0.095	0.110
-664.003	13.777	0.130	-0.101
-662.989	30.042	0.162	0.139
-661.974	94.801	0.202	0.231
-660.959	-32.073	-0.219	-0.124
-659.945	-76.453	-0.384	-0.136
-658.930	-181.247	0.305	0.006
-657.916	-108.599	0.151	-0.033
-656.901	-124.131	0.154	0.024
-655.886	-111.180	-0.135	0.028
-654.872	-80.962	-0.399	-0.133
-653.857	-200.000	0.038	0.179
-652.843	-200.000	0.049	-0.225
-651.828	-48.189	-0.040	-0.019
-650.814	-200.000	-0.023	-0.185
-649.799	-140.610	-0.102	0.011
-648.784	-2.059	-0.291	0.205
-647.770	233.939	-0.127	0.210
-646.755	-94.828	-0.202	-0.055
-645.741	56.942	0.148	0.145
-644.726	630.957	0.041	0.105
-643.711	800.000	0.025	-0.099
-642.697	-200.000	-0.027	-0.170
-641.682	6.140	0.347	0.259
-640.668	-160.066	0.311	0.017
-639.653	-63.354	-0.157	-0.065
-638.638	13.204	-0.329	0.256
-637.624	-150.882	-0.091	0.007
-636.609	-200.000	0.024	-0.196
-635.595	-71.789	-0.142	-0.053
-634.580	26.549	0.125	0.105
-633.565	-200.000	0.004	-0.239
-632.551	-111.762	-0.300	-0.061
-631.536	284.776	0.086	0.156
-630.522	-71.218	-0.396	0.149
-629.507	-200.000	-0.003	0.205
-628.492	-64.220	-0.198	0.081
-627.478	23.222	0.136	-0.112
-626.463	-156.647	-0.167	0.010
-625.449	-200.000	0.034	-0.350
-624.434	334.711	-0.176	-0.343
-623.419	-115.067	0.247	-0.047
-622.405	-124.428	-0.174	0.027
-621.390	-115.940	-0.182	0.034
-620.376	-200.000	0.025	-0.122
-619.361	179.484	-0.052	0.077
-618.346	282.138	-0.088	-0.158
-617.332	-22.002	-0.450	-0.275
-616.317	463.982	-0.086	0.193
-615.303	-134.414	-0.271	0.033
-614.288	-167.402	-0.136	0.005
-613.273	485.871	-0.119	0.273
-612.259	122.779	-0.093	0.117
-611.244	-101.744	0.274	-0.067
-610.230	-68.318	0.188	-0.073
-609.215	20.336	-0.056	-0.045
-608.201	-174.376	-0.235	0.007
-607.186	309.431	0.018	-0.034
-606.171	800.000	0.099	-0.361
-605.157	-49.378	-0.272	0.130
-604.142	-110.311	-0.462	0.097
-603.128	-157.924	-0.514	0.031
-602.113	331.102	0.098	0.190
-601.098	-179.160	0.280	-0.006
-600.084	-15.528	-0.153	-0.098
-599.069	-200.000	0.013	0.138
-598.055	800.000	0.021	0.064
-597.040	156.213	0.098	-0.135
-596.025	-66.128	-0.279	0.112
-595.011	94.517	-0.188	-0.214
-593.996	312.203	0.089	-0.168
-592.982	-82.298	0.320	-0.104
-591.967	230.648	-0.139	-0.228
-590.952	-126.098	0.272	-0.041
-589.938	800.000	0.084	0.325
-588.923	112.203	-0.179	-0.217
-587.909	800.000	0.032	0.112
-586.894	-42.500	-0.183	0.093
-585.879	160.025	-0.105	0.147
-584.865	800.000	0.045	0.167
-583.850	-96.473	0.243	-0.064
-582.836	33.316	-0.084	0.074
-581.821	-56.526	0.181	-0.081
-580.806	-121.030	-0.355	-0.060
-579.792	97.954	-0.080	0.092
-578.777	800.000	-0.049	0.204
-577.763	-10.817	-0.172	0.114
-576.748	-145.933	-0.059	-0.005
-575.733	-200.000	0.030	0.398
-574.719	28.975	0.229	0.195
-573.704	250.879	-0.065	-0.111
-572.690	81.613	-0.322	-0.349
-571.675	-12.317	-0.094	0.062
-570.661	25.870	-0.032	-0.026
-569.646	171.643	0.149	0.214
-568.631	-200.000	-0.002	0.046
-567.617	358.873	0.133	0.266
-566.602	446.775	0.108	-0.238
-565.588	800.000	0.087	-0.270
-564.573	56.717	0.094	-0.092
-563.558	-200.000	-0.019	0.161
-562.544	164.130	0.102	-0.144
-561.529	-200.000	-0.032	0.203
-560.515	-20.473	-0.163	0.101
-559.500	34.303	0.138	0.121
-558.485	-200.000	-0.028	-0.156
-557.471	-77.780	0.208	0.072
-556.456	-200.000	0.006	0.292
-555.442	-150.259	-0.218	-0.017
-554.427	-41.765	0.188	-0.097
-553.412	-80.664	-0.246	-0.082
-552.398	622.982	-0.053	-0.134
-551.383	467.189	0.190	-0.426
-550.369	-76.732	0.489	-0.171
-549.354	800.000	0.065	0.218
-548.339	-200.000	-0.006	0.205
-547.325	37.522	0.329	-0.292
-546.310	-200.000	0.008	0.085
-545.296	-86.614	-0.251	-0.077
-544.281	-45.662	0.234	0.116
-543.266	-200.000	0.038	0.395
-542.252	299.106	0.071	0.131
-541.237	52.152	-0.131	0.125
-540.223	-46.148	0.096	-0.048
-539.208	-54.678	-0.219	-0.099
-538.193	-192.177	0.114	-0.001
-537.179	-2.014	0.139	-0.098
-536.164	4.736	0.148	0.109
-535.150	800.000	0.086	-0.305
-534.135	-29.019	-0.236	0.136
-533.121	-18.732	0.204	-0.127
-532.106	292.558	-0.069	0.125
-531.091	-179.748	-0.205	0.004
-530.077	259.885	-0.089	-0.154
-529.062	14.222	-0.163	-0.127
-528.048	217.091	0.179	-0.285
-527.033	188.611	0.028	0.042
-526.018	-146.978	0.084	0.007
-525.004	800.000	-0.033	0.112
-523.989	101.328	-0.185	-0.215
-522.975	-200.000	0.062	-0.299
-521.960	549.872	-0.059	0.141
-520.945	45.140	0.248	-0.229
-519.931	-22.464	0.070	0.042
-518.916	-200.000	0.052	-0.255
-517.902	-47.251	0.114	0.055
-516.887	505.682	-0.182	-0.421
-515.872	141.499	0.095	0.126
-514.858	-200.000	-0.028	0.351
-513.843	26.288	-0.140	0.117
-512.829	-117.928	0.092	0.016
-511.814	-151.625	0.108	0.008
-510.799	-200.000	0.055	0.254
-509.785	-23.269	0.068	-0.041
-508.770	-130.233	0.176	0.024
-507.756	-129.225	0.275	-0.038
-506.741	-81.190	-0.150	-0.050
-505.726	-61.078	-0.124	0.052
-504.712	-94.786	0.049	-0.013
-503.697	-133.024	0.150	-0.019
-502.683	-10.681	0.191	-0.126
-501.668	800.000	0.071	0.196
-500.653	58.083	-0.160	0.156
-499.639	245.624	0.148	0.249
-498.624	92.894	0.166	0.188
-497.610	99.097	0.157	0.181
-496.595	702.161	0.052	-0.136
-495.581	288.049	0.127	-0.231
-494.566	151.070	-0.126	0.171
-493.551	-200.000	-0.046	-0.269
-492.537	-60.037	0.102	-0.044
-491.522	-50.955	-0.062	-0.029
-490.508	800.000	-0.014	-0.057
-489.493	55.477	0.175	-0.169
-488.478	-200.000	-0.020	-0.143
-487.464	-22.103	-0.158	-0.096
-486.449	108.209	-0.048	-0.057
-485.435	34.826	-0.357	-0.312
-484.420	-200.000	0.077	-0.352
-483.405	-78.071	-0.234	-0.080
-482.391	4.435	-0.277	0.203
-481.376	800.000	-0.018	0.056
-480.362	74.241	-0.030	-0.032
-479.347	-85.384	-0.352	-0.110
-478.332	800.000	0.039	-0.113
-477.318	-190.722	0.032	-0.000
-476.303	309.208	0.039	-0.073
-475.289	-103.864	-0.093	0.022
-474.274	44.425	0.149	0.137
-473.259	109.688	0.050	0.059
-472.245	65.457	-0.028	-0.028
-471.230	3.200	0.108	0.078
-470.216	-4.318	-0.195	0.135
-469.201	-109.316	0.526	-0.111
-468.186	87.084	0.231	-0.254
-467.172	168.237	0.162	-0.230
-466.157	-172.799	-0.281	0.009
-465.143	-42.886	0.199	-0.101
-464.128	-200.000	-0.051	-0.379
-463.113	-63.348	0.242	-0.100
-462.099	-200.000	0.004	0.086
-461.084	150.670	0.220	0.298
-460.070	-150.353	-0.164	-0.013
-459.055	-142.459	0.152	0.015
-458.040	-178.491	0.154	-0.004
-457.026	-40.921	0.268	0.138
-456.011	143.849	0.054	0.072
-454.997	479.100	-0.044	0.100
-453.982	800.000	0.046	0.201
-452.968	240.719	0.093	0.155
-451.953	-174.751	0.221	-0.006
-450.938	381.438	0.061	-0.124
-449.924	-200.000	-0.027	0.277
-448.909	-22.786	0.068	-0.041
-447.895	-200.000	-0.011	0.056
-446.880	8.932	-0.146	-0.110
-445.865	-6.109	-0.190	-0.129
-444.851	-124.443	-0.150	-0.023
-443.836	-128.794	0.315	-0.044
-442.822	48.288	-0.227	0.212
-441.807	-146.221	0.134	-0.012
-440.792	-200.000	-0.002	0.121
-439.778	-65.625	0.470	0.188
-438.763	225.329	-0.146	-0.236
-437.749	-44.720	0.064	-0.032
-436.734	160.610	-0.121	-0.168
-435.719	184.726	0.220	-0.326
-434.705	255.070	-0.141	0.241
-433.690	800.000	0.037	-0.125
-432.676	626.899	0.076	0.191
-431.661	53.484	0.167	0.160
-430.646	76.863	0.057	-0.061
-429.632	279.592	-0.246	-0.439
-428.617	-200.000	-0.036	0.270
-427.603	22.798	0.127	-0.104
-426.588	-109.064	-0.111	0.024
-425.573	-29.705	0.384	-0.218
-424.559	490.585	-0.007	-0.016
-423.544	71.326	0.198	0.205
-422.530	350.454	0.152	0.299
-421.515	-45.570	-0.057	-0.028
-420.500	105.091	-0.061	0.072
-419.486	-200.000	0.013	0.114
-418.471	-71.479	-0.093	-0.035
-417.457	-135.465	-0.137	-0.016
-416.442	-13.333	-0.146	0.094
-415.428	-102.405	0.158	-0.038
-414.413	-0.702	0.169	-0.120
-413.398	800.000	-0.019	0.055
-412.384	-15.085	-0.160	0.102
-411.369	-120.850	-0.364	-0.061
-410.355	-106.683	0.178	0.040
-409.340	27.080	0.104	-0.087
-408.325	-200.000	-0.027	0.189
-407.311	68.684	-0.067	-0.068
-406.296	-158.466	-0.089	0.005
-405.282	184.481	0.185	0.273
-404.267	716.632	0.054	0.143
-403.252	-139.061	-0.164	-0.018
-402.238	800.000	-0.043	0.153
-401.223	254.695	0.084	-0.143
-400.209	800.000	-0.041	0.140
-399.194	55.595	-0.415	0.400
-398.179	-143.731	-0.232	0.022
-397.165	-107.045	-0.198	0.044
-396.150	-200.000	-0.038	-0.246
-395.136	-200.000	0.011	-0.229
-394.121	-25.256	-0.178	-0.105
-393.106	43.669	-0.157	-0.143
-392.092	65.508	0.201	-0.203
-391.077	800.000	0.080	-0.277
-390.063	434.010	-0.175	-0.378
-389.048	-190.968	0.485	-0.005
-388.033	134.443	-0.265	0.342
-387.019	-72.259	-0.041	0.015
-386.004	800.000	0.122	-0.353
-384.990	-105.503	0.258	-0.058
-383.975	-119.851	0.235	-0.040
-382.960	-200.000	0.005	-0.076
-381.946	-86.622	0.160	-0.049
-380.931	185.074	0.073	0.108
-379.917	-128.442	0.294	0.042
-378.902	171.746	0.192	0.274
-377.888	800.000	0.056	0.178
-376.873	-79.640	-0.416	-0.140
-375.858	167.082	-0.122	-0.173
-374.844	55.266	0.133	0.128
-373.829	324.553	-0.094	0.179
-372.815	22.564	0.086	0.070
-371.800	275.153	0.082	-0.145
-370.785	27.986	-0.142	0.119
-369.771	-143.311	0.189	-0.018
-368.756	-108.998	-0.168	0.036
-367.742	800.000	0.045	0.127
-366.727	194.182	0.215	0.324
-365.712	7.823	-0.128	0.096
-364.698	800.000	-0.008	-0.030
-363.683	27.825	0.194	-0.163
-362.669	439.064	0.018	0.040
-361.654	800.000	-0.130	0.392
-360.639	-31.459	-0.141	0.079
-359.625	-36.955	0.211	-0.112
-358.610	237.514	0.124	-0.204
-357.596	-153.769	0.123	0.008
-356.581	-23.376	-0.077	0.046
-355.566	161.899	0.046	-0.065
-354.552	29.334	-0.316	0.267
-353.537	-127.445	-0.241	0.035
-352.523	-122.658	-0.473	-0.076
-351.508	664.901	0.085	-0.219
-350.493	214.164	0.122	-0.191
-349.479	-14.810	-0.429	-0.274
-348.464	-80.317	0.214	-0.071
-347.450	-134.471	0.281	0.034
-346.435	-94.909	-0.256	0.069
-345.420	-159.944	0.075	-0.004
-344.406	-200.000	-0.031	-0.324
-343.391	40.117	-0.235	-0.210
-342.377	115.738	-0.245	-0.298
-341.362	-200.000	-0.022	-0.189
-340.348	-25.306	0.288	-0.169
-339.333	599.355	0.087	0.215
-338.318	-160.430	0.078	0.004
-337.304	800.000	-0.039	-0.167
-336.289	-200.000	0.028	0.310
-335.275	84.018	-0.161	0.175
-334.260	-4.802	-0.191	0.131
-333.245	800.000	0.007	0.027
-332.231	156.153	0.076	-0.104
-331.216	98.538	0.054	-0.062
-330.202	800.000	0.058	0.214
-329.187	-32.896	0.099	0.054
-328.172	-166.547	0.272	0.011
-327.158	-34.104	-0.097	-0.053
-326.143	-200.000	0.049	-0.278
-325.129	281.591	-0.078	-0.139
-324.114	251.883	-0.093	0.157
-323.099	-115.483	0.132	-0.025
-322.085	800.000	-0.114	-0.414
-321.070	-73.641	-0.099	0.036
-320.056	-40.351	0.033	-0.017
-319.041	196.647	-0.015	-0.022
-318.026	78.763	0.113	-0.120
-317.012	70.861	0.116	0.120
-315.997	43.255	-0.202	0.183
-314.983	323.214	0.153	0.289
-313.968	-33.739	-0.346	0.189
-312.953	-200.000	-0.043	-0.245
-311.939	71.674	0.043	-0.044
-310.924	484.297	-0.112	0.254
-309.910	199.626	0.173	-0.263
-308.895	800.000	0.048	-0.139
-307.880	138.429	0.071	-0.093
-306.866	-46.892	-0.158	-0.077
-305.851	176.096	-0.063	-0.090
-304.837	103.596	0.127	-0.147
-303.822	-200.000	-0.052	0.325
-302.807	343.930	-0.038	0.074
-301.793	-94.089	-0.223	0.061
-300.778	800.000	-0.142	-0.462
-299.764	-130.610	-0.304	-0.041
-298.749	800.000	0.054	0.219
-297.735	-200.000	-0.057	-0.262
-296.720	800.000	-0.055	-0.215
-295.705	161.052	0.135	-0.187
-294.691	132.216	0.259	-0.331
-293.676	-59.004	0.186	-0.080
-292.662	-134.717	0.140	0.017
-291.647	7.621	0.275	0.204
-290.632	78.176	0.053	0.057
-289.618	86.505	-0.166	0.182
-288.603	45.121	0.040	-0.037
-287.589	194.159	0.125	-0.188
-286.574	102.927	0.103	-0.119
-285.559	-64.877	-0.172	-0.069
-284.545	-132.638	0.059	0.008
-283.530	-39.766	0.203	0.105
-282.516	-200.000	-0.075	-0.571
-281.501	-200.000	0.016	0.095
-280.486	-113.419	-0.327	-0.064
-279.472	-25.765	0.070	-0.041
-278.457	-125.422	0.420	-0.063
-277.443	82.040	0.098	-0.105
-276.428	399.322	-0.187	-0.389
-275.413	295.827	0.055	0.101
-274.399	204.434	-0.060	0.091
-273.384	-144.970	-0.043	-0.004
-272.370	146.119	0.179	0.238
-271.355	-171.342	0.371	-0.012
-270.340	-57.716	0.083	0.036
-269.326	-134.012	0.438	-0.054
-268.311	-106.475	-0.317	0.070
-267.297	-21.571	0.100	-0.060
-266.282	36.227	-0.085	-0.074
-265.267	181.518	-0.206	0.301
-264.253	338.820	0.113	0.217
-263.238	-31.954	0.105	-0.058
-262.224	-200.000	0.085	0.373
-261.209	216.989	-0.068	0.107
-260.195	-110.496	-0.040	-0.008
-259.180	531.826	0.082	0.192
-258.165	137.383	-0.230	0.298
-257.151	39.578	0.229	0.203
-256.136	532.902	0.098	0.230
-255.122	800.000	0.015	0.048
-254.107	176.359	-0.106	0.153
-253.092	277.953	0.144	0.254
-252.078	-4.953	0.114	-0.078
-251.063	-65.136	-0.379	0.151
-250.049	228.724	0.129	-0.208
-249.034	123.744	-0.106	-0.131
-248.019	-144.462	0.141	-0.013
-247.005	-117.591	-0.235	0.042
-245.990	151.678	-0.024	0.032
-244.976	232.492	0.151	0.245
-243.961	-64.362	-0.060	0.024
-242.946	-26.242	0.210	0.122
-241.932	-46.823	0.291	-0.141
-240.917	-144.160	0.231	0.021
-239.903	-179.541	-0.210	0.005
-238.888	-4.726	0.074	-0.051
-237.873	37.878	-0.028	0.025
-236.859	-9.576	-0.212	-0.140
-235.844	-30.913	-0.171	0.095
-234.830	87.340	0.221	-0.242
-233.815	333.804	-0.101	-0.193
-232.800	-89.687	0.042	-0.012
-231.786	-19.939	-0.204	-0.124
-230.771	-200.000	0.021	-0.185
-229.757	-7.475	0.229	-0.153
-228.742	45.419	-0.278	0.254
-227.727	-193.901	-0.371	0.003
-226.713	-130.395	0.353	0.047
-225.698	262.005	-0.105	-0.180
-224.684	649.872	0.112	0.284
-223.669	342.257	0.191	0.370
-222.655	800.000	0.135	-0.397
-221.640	51.010	0.183	0.172
-220.625	800.000	-0.062	0.203
-219.611	90.969	0.109	0.121
-218.596	127.715	-0.255	0.320
-217.582	-93.571	-0.199	0.054
-216.567	87.124	0.225	-0.246
-215.552	80.719	0.045	0.048
-214.538	-111.957	0.192	-0.038
-213.523	800.000	0.057	-0.210
-212.509	-159.022	0.122	0.007
-211.494	-10.998	-0.181	0.118
-210.479	800.000	-0.104	-0.287
-209.465	159.934	0.044	-0.061
-208.450	74.039	-0.095	0.098
-207.436	465.013	0.063	0.140
-206.421	325.575	-0.207	-0.391
-205.406	382.463	0.028	-0.057
-204.392	92.378	0.109	-0.122
-203.377	111.340	0.236	0.281
-202.363	-61.029	0.178	-0.074
-201.348	-179.427	0.318	0.007
-200.333	-200.000	-0.003	0.013
-199.319	800.000	0.080	-0.243
-198.304	800.000	-0.071	-0.246
-197.290	-200.000	0.141	-0.000
-196.275	48.566	-0.176	0.163
-195.260	25.066	-0.220	0.181
-194.246	-31.470	0.111	-0.062
-193.231	-193.089	-0.157	-0.001
-192.217	655.835	0.125	0.318
-191.202	624.601	0.035	-0.088
-190.187	-200.000	0.015	-0.305
-189.173	-19.489	-0.184	0.113
-188.158	-200.000	-0.014	-0.124
-187.144	-44.068	0.345	0.171
-186.129	-31.382	0.144	-0.080
-185.114	84.554	-0.103	0.112
-184.100	305.692	-0.071	0.130
-183.085	-89.563	-0.125	0.036
-182.071	90.179	-0.043	-0.047
-181.056	312.072	-0.129	0.240
-180.042	-114.500	0.322	0.061
-179.027	125.748	-0.253	0.315
-178.012	19.563	-0.128	0.102
-176.998	800.000	0.028	0.102
-175.983	-19.772	-0.170	-0.104
-174.969	357.616	-0.049	0.097
-173.954	-61.905	-0.162	0.067
-172.939	210.995	0.079	0.123
-171.925	268.041	-0.082	-0.141
-170.910	-84.579	0.199	-0.062
-169.896	-64.702	-0.331	0.132
-168.881	800.000	0.029	0.112
-167.866	-15.131	-0.252	-0.159
-166.852	-79.973	-0.265	-0.088
-165.837	-200.000	-0.020	-0.177
-164.823	-89.512	-0.253	0.074
-163.808	404.560	0.182	0.378
-162.793	153.889	-0.075	-0.102
-161.779	29.711	0.452	0.380
-160.764	740.917	-0.061	-0.161
-159.750	-81.593	-0.298	0.097
-158.735	-111.884	0.164	-0.033
-157.720	-45.622	0.189	0.092
-156.706	-59.999	-0.300	0.126
-155.691	97.026	-0.181	0.204
-154.677	-200.000	0.035	-0.439
-153.662	-200.000	0.070	0.346
-152.647	-132.906	-0.309	-0.039
-151.633	188.775	0.077	-0.114
-150.618	75.464	-0.003	-0.004
-149.604	82.837	-0.045	-0.049
-148.589	-171.315	0.221	-0.007
-147.574	-200.000	-0.078	-0.381
-146.560	-200.000	-0.042	-0.207
-145.545	-116.412	0.315	-0.057
-144.531	-107.682	-0.352	0.076
-143.516	800.000	0.076	-0.237
-142.502	-36.798	-0.072	-0.038
-141.487	113.863	-0.276	0.331
-140.472	-200.000	0.003	0.085
-139.458	-73.649	0.142	0.051
-138.443	69.418	0.171	0.174
-137.429	98.743	0.162	0.184
-136.414	-71.372	0.226	0.083
-135.399	-200.000	0.063	-0.460
-134.385	545.473	-0.122	-0.288
-133.370	396.983	-0.065	-0.133
-132.356	-15.288	-0.099	-0.062
-131.341	71.731	-0.085	-0.087
-130.326	800.000	-0.068	-0.202
-129.312	202.367	0.085	0.130
-128.297	53.299	0.065	-0.061
-127.283	-200.000	-0.034	0.347
-126.268	592.205	0.067	0.162
-125.253	-200.000	-0.004	-0.231
-124.239	210.726	0.092	-0.142
-123.224	343.739	0.104	0.200
-122.210	308.700	-0.083	-0.152
-121.195	467.270	-0.095	0.210
-120.180	-137.477	0.163	0.018
-119.166	-132.960	0.303	0.038
-118.151	-178.328	-0.021	-0.000
-117.137	-61.354	0.102	0.042
-116.122	-109.186	0.092	0.019
-115.107	482.548	-0.092	0.206
-114.093	800.000	-0.040	0.119
-113.078	11.442	-0.226	0.171
-112.064	139.672	0.175	0.227
-111.049	370.041	0.054	-0.108
-110.034	45.153	-0.328	-0.297
-109.020	-200.000	-0.004	-0.033
-108.005	286.073	-0.267	-0.474
-106.991	800.000	0.091	-0.255
-105.976	420.884	0.156	0.330
-104.962	-167.048	-0.240	-0.010
-103.947	800.000	0.030	0.109
-102.932	-200.000	-0.009	0.052
-101.918	-200.000	0.035	0.386
-100.903	148.873	0.075	-0.100
-99.889	800.000	0.043	0.159
-98.874	142.915	-0.143	0.187
-97.859	-54.749	-0.131	0.058
-96.845	97.055	0.131	-0.148
-95.830	381.627	-0.042	0.084
-94.816	-38.361	0.548	-0.285
-93.801	359.309	0.076	0.150
-92.786	-200.000	-0.034	-0.245
-91.772	168.202	0.123	-0.172
-90.757	-136.822	-0.114	-0.013
-89.743	-22.120	-0.136	0.081
-88.728	-200.000	0.013	-0.094
-87.713	404.205	0.031	-0.064
-86.699	-200.000	0.036	0.292
-85.684	74.947	0.131	0.136
-84.670	-200.000	-0.032	0.198
-83.655	118.317	0.123	-0.150
-82.640	-200.000	0.002	0.073
-81.626	-200.000	-0.020	-0.557
-80.611	-45.703	-0.164	0.080
-79.597	-200.000	0.004	0.201
-78.582	223.204	0.226	0.358
-77.567	25.471	0.217	0.178
-76.553	11.086	0.383	-0.288
-75.538	-14.764	-0.362	0.228
-74.524	-104.255	0.059	-0.014
-73.509	-117.738	-0.266	0.047
-72.494	235.078	-0.089	-0.145
-71.480	-200.000	-0.005	0.173
-70.465	-1.176	-0.269	0.187
-69.451	112.071	0.078	0.093
-68.436	-115.017	-0.111	0.021
-67.422	-200.000	0.017	0.075
-66.407	300.379	0.098	0.179
-65.392	206.366	0.096	0.148
-64.378	-101.850	0.157	-0.037
-63.363	-63.496	-0.167	-0.068
-62.349	-200.000	0.062	0.370
-61.334	67.791	-0.879	-0.883
-60.319	577.768	0.311	0.746
-59.305	614.055	-0.455	-1.119
-58.290	42.368	0.870	0.777
-57.276	-200.000	0.351	1.552
-56.261	-200.000	97.938	588.489
-55.246	569.667	1383.499	3306.075
-54.232	153.930	2593.457	3493.742
-53.217	110.299	2282.088	2693.458
-52.203	44.363	1897.985	1712.148
-51.188	38.018	1687.119	1474.137
-50.173	35.129	1642.766	1414.036
-49.159	53.414	1692.143	1593.849
-48.144	56.773	1710.051	1635.759
-47.130	37.699	1665.313	1452.477
-46.115	34.768	1649.715	1417.114
-45.100	34.546	1644.925	1411.301
-44.086	34.469	1642.491	1408.587
-43.071	34.405	1640.137	1406.046
-42.057	34.502	1637.275	1404.251
-41.042	34.538	1635.484	1402.922
-40.027	34.535	1633.950	1401.530
-39.013	34.538	1631.626	1399.499
-37.998	34.485	1630.427	1398.026
-36.984	34.492	1628.496	1396.370
-35.969	34.598	1626.905	1395.727
-34.954	34.671	1625.351	1394.864
-33.940	34.643	1623.532	1393.049
-32.925	34.556	1622.111	1391.139
-31.911	34.659	1620.239	1390.231
-30.896	34.571	1618.744	1388.252
-29.881	34.647	1616.485	1386.808
-28.867	34.492	1615.835	1385.068
-27.852	34.580	1613.967	1384.052
-26.838	34.685	1611.642	1382.764
-25.823	34.610	1610.597	1381.268
-24.809	34.684	1609.483	1380.794
-23.794	34.592	1608.457	1379.199
-22.779	34.630	1606.740	1377.945
-21.765	34.594	1605.054	1376.187
-20.750	34.611	1603.850	1375.219
-19.736	34.734	1602.023	1374.484
-18.721	34.669	1600.731	1372.854
-17.706	34.707	1598.658	1371.290
-16.692	34.617	1597.450	1369.555
-15.677	34.660	1595.796	1368.390
-14.663	34.686	1594.343	1367.277
-13.648	34.625	1593.552	1366.108
-12.633	34.709	1591.367	1364.785
-11.619	34.675	1590.283	1363.559
-10.604	34.625	1588.775	1361.849
-9.590	34.716	1587.379	1361.249
-8.575	34.745	1585.958	1360.181
-7.560	34.592	1585.519	1358.662
-6.546	34.717	1583.590	1357.848
-5.531	34.697	1582.678	1356.865
-4.517	34.680	1581.443	1355.632
-3.502	34.709	1580.199	1354.717
-2.487	34.742	1578.865	1353.756
-1.473	34.407	1567.787	1341.844
-0.458	31.689	1548.458	1306.325
0.556	28.328	1549.022	1275.309
1.571	25.951	1573.011	1278.119
2.586	25.590	1586.917	1286.722
3.600	22.816	1533.765	1224.302
4.615	12.948	1422.452	1071.555
5.629	3.649	1354.052	962.209
6.644	1.995	1345.473	945.781
7.659	1.910	1343.852	944.026
8.673	1.741	1343.190	942.434
9.688	1.715	1341.169	940.770
10.702	1.480	1338.394	937.292
11.717	5.123	1345.123	964.470
12.731	15.466	1364.972	1043.192
13.746	23.811	1379.130	1106.087
14.761	25.748	1381.073	1119.610
15.775	26.081	1381.124	1121.619
16.790	26.240	1380.416	1121.934
17.804	26.321	1379.837	1121.869
18.819	26.532	1379.486	1122.793
19.834	26.593	1378.905	1122.597
20.848	26.545	1378.616	1121.968
21.863	26.658	1377.741	1121.856
22.877	26.599	1376.701	1120.547
23.892	26.727	1375.944	1120.618
24.907	26.636	1375.367	1119.489
25.921	26.589	1374.336	1118.263
26.936	26.581	1373.146	1117.146
27.950	26.705	1372.055	1116.919
28.965	26.591	1370.626	1114.959
29.980	26.548	1369.681	1113.822
30.994	26.527	1368.469	1112.614
32.009	26.638	1367.011	1112.013
33.023	26.670	1366.095	1111.362
34.038	26.603	1364.942	1109.914
35.053	26.666	1363.910	1109.365
36.067	26.713	1362.386	1108.313
37.082	26.677	1361.931	1107.623
38.096	26.549	1361.348	1106.274
39.111	26.599	1360.568	1105.845
40.126	26.567	1359.911	1105.016
41.140	26.613	1359.289	1104.695
42.155	26.606	1359.072	1104.378
43.169	26.536	1359.070	1103.852
44.184	26.564	1358.716	1103.636
45.199	26.494	1358.648	1103.059
46.213	26.636	1357.599	1102.971
47.228	26.630	1356.613	1102.036
48.242	26.644	1355.278	1100.940
49.257	26.582	1354.222	1099.611
50.271	26.607	1352.603	1098.351
51.286	26.518	1351.479	1096.799
52.301	26.516	1350.240	1095.687
53.315	26.593	1349.355	1095.334
54.330	26.657	1348.078	1094.590
55.344	26.518	1347.565	1093.239
56.359	26.629	1346.117	1092.633
57.374	26.573	1345.724	1091.880
58.388	26.515	1345.345	1091.125
59.403	26.614	1344.576	1091.003
60.417	26.542	1344.194	1090.165
61.432	26.570	1343.072	1089.324
62.447	26.667	1342.205	1089.107
63.461	26.577	1341.037	1087.525
64.476	26.560	1340.099	1086.566
65.490	26.652	1339.261	1086.344
66.505	26.739	1337.198	1085.091
67.520	26.511	1336.649	1083.187
68.534	26.524	1335.652	1082.362
69.549	26.643	1334.618	1082.139
70.563	26.585	1333.987	1081.185
71.578	26.568	1332.459	1079.751
72.593	26.636	1331.761	1079.491
73.607	26.564	1331.274	1078.577
74.622	26.555	1330.737	1077.988
75.636	26.531	1329.878	1077.058
76.651	26.550	1329.025	1076.382
77.666	26.519	1328.546	1075.718
78.680	26.618	1328.012	1075.776
79.695	26.587	1327.427	1075.024
80.709	26.664	1326.184	1074.378
81.724	26.713	1325.171	1073.753
82.739	26.638	1324.390	1072.578
83.753	26.582	1323.847	1071.717
84.768	26.646	1322.444	1070.861
85.782	26.637	1321.155	1069.673
86.797	26.696	1319.563	1068.637
87.812	26.675	1319.039	1067.994
88.826	26.643	1318.173	1067.009
89.841	26.667	1317.427	1066.454
90.855	26.678	1316.146	1065.387
91.870	26.641	1315.712	1064.721
92.884	26.677	1314.702	1064.022
93.899	26.729	1314.348	1063.944
94.914	26.664	1313.272	1062.602
95.928	26.625	1312.443	1061.604
96.943	26.599	1311.793	1060.832
97.957	26.628	1310.608	1059.950
98.972	26.677	1309.777	1059.471
99.987	26.631	1308.833	1058.345
101.001	26.663	1308.014	1057.776
102.016	26.546	1307.511	1056.593
103.030	26.557	1306.583	1055.816
104.045	26.668	1305.451	1055.455
105.060	26.545	1304.701	1054.036
106.074	26.661	1303.922	1053.988
107.089	26.717	1302.677	1053.216
108.103	26.563	1301.770	1051.493
109.118	26.736	1300.436	1051.328
110.133	26.771	1299.707	1050.850
111.147	26.623	1298.531	1048.948
112.162	26.777	1297.103	1048.593
113.176	26.745	1296.320	1047.679
114.191	26.691	1295.472	1046.592
115.206	26.666	1294.437	1045.517
116.220	26.700	1293.367	1044.754
117.235	26.664	1292.874	1044.062
118.249	26.717	1291.649	1043.283
119.264	26.714	1290.882	1042.556
120.279	26.734	1290.152	1041.984
121.293	26.844	1289.283	1041.825
122.308	26.740	1288.183	1040.249
123.322	26.755	1287.697	1039.847
124.337	26.825	1286.895	1039.508
125.352	26.763	1286.351	1038.626
126.366	26.889	1284.754	1037.961
127.381	26.897	1283.988	1037.300
128.395	26.804	1283.178	1036.020
129.410	26.737	1282.918	1035.334
130.424	26.736	1281.891	1034.413
131.439	26.829	1280.866	1034.021
132.454	26.741	1280.784	1033.365
133.468	26.777	1279.339	1032.311
134.483	26.775	1279.397	1032.251
135.497	26.744	1278.395	1031.179
136.512	26.780	1277.181	1030.312
137.527	26.755	1276.426	1029.470
138.541	26.728	1275.233	1028.263
139.556	26.762	1273.762	1027.182
140.570	26.671	1273.106	1026.043
141.585	26.776	1272.181	1025.799
142.600	26.776	1270.443	1024.311
143.614	26.725	1270.186	1023.723
144.629	26.740	1269.173	1022.899
145.643	26.691	1268.216	1021.763
146.658	26.696	1266.949	1020.677
147.673	26.767	1266.035	1020.253
148.687	26.525	1265.549	1018.411
149.702	26.747	1263.900	1018.239
150.716	26.701	1262.801	1017.009
151.731	26.784	1262.045	1016.774
152.746	26.803	1260.919	1015.881
153.760	26.751	1259.857	1014.647
154.775	26.803	1259.021	1014.172
155.789	26.807	1258.160	1013.415
156.804	26.809	1257.369	1012.699
157.819	26.810	1256.663	1012.043
158.833	26.715	1256.109	1010.977
159.848	26.829	1254.803	1010.470
160.862	26.872	1254.065	1010.029
161.877	26.907	1253.329	1009.542
162.892	26.817	1252.718	1008.461
163.906	26.836	1251.826	1007.757
164.921	26.856	1251.246	1007.312
165.935	26.883	1250.613	1006.864
166.950	26.865	1249.977	1006.161
167.964	26.871	1249.052	1005.362
168.979	26.775	1248.793	1004.533
169.994	26.900	1248.176	1004.638
171.008	27.006	1247.387	1004.501
172.023	26.801	1246.807	1002.814
173.037	26.879	1246.250	1002.706
174.052	26.877	1245.083	1001.668
175.067	26.927	1244.271	1001.201
176.081	26.836	1243.830	1000.257
177.096	26.878	1242.759	999.538
178.110	26.887	1242.166	999.026
179.125	26.890	1240.948	997.972
180.140	26.882	1239.939	997.027
181.154	26.825	1239.008	995.877
182.169	26.796	1237.924	994.761
183.183	26.958	1236.681	994.563
184.198	26.987	1235.555	993.725
185.213	26.856	1234.983	992.462
186.227	26.859	1234.742	992.195
187.242	26.953	1233.390	991.537
188.256	27.002	1232.163	990.731
189.271	27.021	1231.528	990.232
190.286	27.041	1230.787	989.663
191.300	27.014	1230.147	988.910
192.315	26.913	1230.079	988.217
193.329	26.947	1229.711	988.019
194.344	26.950	1228.986	987.364
195.359	26.975	1228.695	987.181
196.373	26.921	1228.464	986.612
197.388	26.891	1227.616	985.682
198.402	26.954	1227.222	985.623
199.417	26.932	1227.004	985.240
200.432	26.880	1226.074	984.126
201.446	26.941	1225.643	984.021
202.461	27.034	1224.776	983.746
203.475	26.967	1223.892	982.584
204.490	26.881	1223.224	981.495
205.504	26.994	1221.897	980.952
206.519	27.063	1221.195	980.676
207.534	27.020	1220.251	979.599
208.548	27.054	1219.077	978.754
209.563	27.008	1218.610	978.045
210.577	27.023	1217.786	977.378
211.592	27.094	1217.032	977.065
212.607	27.067	1216.565	976.459
213.621	27.210	1215.432	976.235
214.636	27.150	1214.650	975.197
215.650	27.088	1213.742	974.046
216.665	27.088	1213.224	973.544
217.680	27.060	1211.843	972.203
218.694	27.181	1211.164	972.220
219.709	27.099	1210.542	971.195
220.723	27.139	1210.252	971.088
221.738	27.108	1209.335	970.105
222.753	27.075	1208.738	969.361
223.767	27.151	1208.010	969.097
224.782	27.130	1207.479	968.472
225.796	27.198	1207.099	968.443
226.811	27.161	1206.510	967.688
227.826	27.156	1206.049	967.209
228.840	27.215	1204.746	966.392
229.855	27.081	1204.525	965.416
230.869	27.190	1203.798	965.329
231.884	27.182	1202.950	964.520
232.899	27.038	1202.532	963.337
233.913	27.181	1202.114	963.674
234.928	27.273	1201.317	963.435
235.942	27.303	1200.694	963.009
236.957	27.170	1200.172	961.802
237.972	27.274	1199.005	961.332
238.986	27.193	1198.871	960.714
240.001	27.328	1198.209	960.810
241.015	27.545	1197.203	961.061
242.030	27.298	1196.629	959.215
243.045	27.455	1196.085	959.518
244.059	27.314	1195.066	957.875
245.074	27.390	1194.344	957.612
246.088	27.352	1193.515	956.662
247.103	27.383	1193.041	956.363
248.117	27.471	1191.896	955.821
249.132	27.342	1191.376	954.645
250.147	27.472	1190.731	954.724
251.161	27.438	1190.200	954.032
252.176	27.478	1189.314	953.450
253.190	27.446	1188.490	952.538
254.205	27.434	1188.122	952.096
255.220	27.398	1187.164	951.054
256.234	27.397	1187.045	950.871
257.249	27.525	1185.850	950.499
258.263	27.457	1185.641	949.891
259.278	27.451	1185.091	949.334
260.293	27.603	1184.608	949.657
261.307	27.584	1183.857	948.869
262.322	27.575	1182.898	947.970
263.336	27.467	1182.634	947.113
264.351	27.493	1182.436	947.007
265.366	27.546	1181.433	946.394
266.380	27.486	1181.018	945.666
267.395	27.505	1179.850	944.746
268.409	27.401	1179.803	944.086
269.424	27.576	1179.122	944.367
270.439	27.520	1178.445	943.451
271.453	27.486	1178.018	942.847
272.468	27.421	1177.106	941.699
273.482	27.458	1176.327	941.180
274.497	27.485	1175.953	940.940
275.512	27.528	1175.756	940.919
276.526	27.561	1174.588	940.072
277.541	27.616	1173.940	939.756
278.555	27.666	1173.114	939.268
279.570	27.696	1172.757	939.052
280.585	27.706	1171.759	938.223
281.599	27.627	1170.997	937.122
282.614	27.572	1170.147	936.079
283.628	27.694	1169.380	936.010
284.643	27.704	1168.307	935.117
285.657	27.764	1167.633	934.805
286.672	27.709	1166.796	933.769
287.687	27.784	1165.985	933.417
288.701	27.697	1165.637	932.616
289.716	27.771	1164.784	932.225
290.730	27.781	1164.253	931.772
291.745	27.815	1163.304	931.104
292.760	27.773	1162.732	930.348
293.774	27.759	1162.420	929.946
294.789	27.783	1161.878	929.549
295.803	27.777	1161.407	929.062
296.818	27.716	1160.476	927.922
297.833	27.749	1160.051	927.671
298.847	27.838	1159.096	927.274
299.862	27.919	1158.199	926.887
300.876	27.882	1157.676	926.197
301.891	27.867	1157.291	925.732
302.906	27.852	1156.834	925.211
303.920	27.898	1156.040	924.728
304.935	27.978	1155.289	924.450
305.949	27.905	1154.969	923.739
306.964	27.860	1154.230	922.843
307.979	28.053	1153.386	923.058
308.993	27.933	1152.772	921.878
310.008	27.935	1152.358	921.479
311.022	27.951	1151.483	920.774
312.037	27.928	1150.658	919.921
313.052	27.891	1149.668	918.860
314.066	27.983	1148.698	918.468
315.081	27.931	1148.387	917.875
316.095	27.963	1147.823	917.502
317.110	27.971	1147.218	916.980
318.125	27.870	1146.646	915.937
319.139	27.973	1146.002	915.855
320.154	27.961	1145.493	915.308
321.168	27.998	1144.895	914.935
322.183	27.991	1144.352	914.383
323.197	28.044	1143.555	913.929
324.212	28.030	1143.087	913.408
325.227	28.075	1142.664	913.211
326.241	28.145	1141.985	912.939
327.256	28.090	1141.404	912.117
328.270	28.131	1140.338	911.388
329.285	28.114	1139.887	910.866
330.300	28.044	1139.359	910.012
331.314	28.088	1138.152	909.189
332.329	28.122	1136.956	908.320
333.343	28.108	1136.732	907.994
334.358	28.198	1135.796	907.610
335.373	28.225	1135.411	907.358
336.387	28.116	1134.929	906.352
337.402	28.234	1133.988	906.104
338.416	28.127	1133.476	905.084
339.431	28.283	1132.816	905.249
340.446	28.317	1131.965	904.655
341.460	28.345	1131.520	904.357
342.475	28.248	1130.727	903.166
343.489	28.328	1129.667	902.633
344.504	28.270	1128.789	901.567
345.519	28.246	1128.320	900.994
346.533	28.357	1127.305	900.651
347.548	28.352	1126.830	900.164
348.562	28.421	1126.030	899.784
349.577	28.491	1124.974	899.207
350.592	28.327	1124.416	897.876
351.606	28.300	1124.195	897.487
352.621	28.425	1123.408	897.396
353.635	28.271	1122.909	896.162
354.650	28.397	1122.386	896.282
355.665	28.388	1121.661	895.580
356.679	28.452	1121.288	895.515
357.694	28.488	1120.450	894.939
358.708	28.401	1119.861	893.969
359.723	28.497	1119.116	893.762
360.738	28.331	1118.279	892.205
361.752	28.434	1117.994	892.401
362.767	28.488	1117.504	892.195
363.781	28.475	1117.133	891.755
364.796	28.586	1116.233	891.498
365.810	28.613	1115.573	891.024
366.825	28.675	1114.868	890.678
367.840	28.641	1114.689	890.295
368.854	28.641	1114.490	890.057
369.869	28.695	1113.476	889.429
370.883	28.774	1112.393	888.866
371.898	28.716	1111.893	888.110
372.913	28.674	1111.286	887.343
373.927	28.623	1111.049	886.830
374.942	28.797	1110.553	887.195
375.956	28.576	1110.338	885.879
376.971	28.602	1109.479	885.241
377.986	28.648	1108.956	884.963
379.000	28.659	1108.419	884.511
380.015	28.733	1107.773	884.271
381.029	28.806	1106.807	883.778
382.044	28.727	1106.263	882.881
383.059	28.779	1105.992	882.841
384.073	28.821	1105.330	882.436
385.088	28.841	1104.039	881.423
386.102	28.786	1103.622	880.749
387.117	28.755	1102.633	879.729
388.132	28.755	1101.887	879.056
389.146	28.847	1101.245	878.907
390.161	28.856	1100.584	878.347
391.175	28.883	1100.239	878.122
392.190	28.786	1099.712	877.158
393.205	28.775	1098.747	876.260
394.219	28.877	1097.725	875.853
395.234	28.947	1097.251	875.731
396.248	29.005	1095.917	874.866
397.263	28.978	1095.132	874.034
398.278	28.861	1095.166	873.427
399.292	28.930	1094.492	873.139
400.307	28.901	1093.803	872.373
401.321	29.018	1092.892	872.126
402.336	29.042	1092.143	871.566
403.350	28.992	1091.623	870.836
404.365	29.004	1091.068	870.375
405.380	29.083	1090.513	870.226
406.394	29.004	1089.757	869.175
407.409	29.046	1088.828	868.555
408.423	29.026	1088.452	868.084
409.438	29.097	1087.843	867.856
410.453	29.196	1086.713	867.344
411.467	29.111	1086.248	866.494
412.482	29.154	1085.713	866.194
413.496	29.171	1084.998	865.624
414.511	29.184	1084.401	865.136
415.526	29.233	1083.924	864.909
416.540	29.215	1083.592	864.483
417.555	29.137	1083.086	863.635
418.569	29.236	1082.896	863.869
419.584	29.254	1082.402	863.486
420.599	29.221	1081.972	862.911
421.613	102.246	1317.442	1445.725
422.628	95.128	1351.734	1445.814
