DTS Sentinel unit serial number:	SN413079Multiplexer serial number:	ORYXHardware model number:	OX4-SRSoftware version number:	ORYX F/W v4.00 Oryx Data Collector v3.7.2.0data status	okinstallation	princeton_trtdifferential loss correction	single-endedforward channel	channel 2reverse channel	N/Adate	2019/09/12time	03:29:11forward acquisition time	60.00reverse acquisition time	0.00gamma	496.2192k internal	0.2326k external	0.2326temperature offset calibration	1.0096default loss term (dB/km)	0.3790temperature slope calibration	1.0000multiplexer offset coefficient	1.0000multiplexer slope coefficient	1.0000fibre end	0.00T internal ref (°C)	32.19T ext. ref 1 (°C)	2.15T ext. ref 2 (°C)	27.20length (m)	temperature (°C)	Stokes	anti-Stokes-747.200	-64.362	0.133	0.055
-746.185	-72.587	-0.103	0.038
-745.171	249.491	0.111	0.190
-744.156	800.000	-0.079	0.269
-743.142	349.628	-0.160	0.319
-742.127	574.886	-0.045	0.111
-741.112	35.865	-0.091	0.080
-740.098	465.607	-0.130	0.293
-739.083	189.794	0.133	-0.200
-738.069	202.454	-0.096	0.150
-737.054	543.699	-0.145	-0.350
-736.039	-86.149	-0.477	0.149
-735.025	-15.244	-0.206	0.133
-734.010	-25.754	-0.136	-0.081
-732.996	193.728	0.158	-0.242
-731.981	-58.331	-0.324	-0.142
-730.966	496.405	-0.033	0.076
-729.952	-43.831	-0.344	-0.174
-728.937	-7.368	-0.295	0.202
-727.923	-103.238	-0.201	-0.048
-726.908	-47.588	-0.344	-0.168
-725.894	735.866	-0.003	-0.008
-724.879	122.659	-0.109	0.138
-723.864	84.004	-0.162	0.178
-722.850	53.675	0.246	0.238
-721.835	207.742	0.099	0.156
-720.821	4.054	-0.365	-0.269
-719.806	-62.731	-0.196	0.082
-718.791	18.855	0.129	0.104
-717.777	-132.303	-0.052	-0.007
-716.762	-14.699	0.061	-0.040
-715.748	108.692	-0.196	-0.236
-714.733	441.279	-0.056	0.124
-713.718	-200.000	0.023	-0.335
-712.704	-4.553	0.134	0.093
-711.689	-23.251	-0.341	-0.207
-710.675	-200.000	0.009	0.079
-709.660	-21.882	0.227	0.139
-708.645	14.668	0.130	-0.102
-707.631	800.000	0.034	-0.119
-706.616	16.331	0.116	0.092
-705.602	45.963	0.165	0.154
-704.587	441.809	-0.112	-0.246
-703.572	-190.869	0.146	0.002
-702.558	-34.774	-0.050	0.028
-701.543	59.769	0.038	-0.038
-700.529	-104.483	-0.228	-0.053
-699.514	800.000	-0.086	-0.276
-698.499	168.739	0.088	-0.127
-697.485	-21.477	-0.148	0.091
-696.470	195.718	0.208	0.318
-695.456	131.549	0.284	-0.368
-694.441	35.084	0.286	0.252
-693.426	189.203	-0.171	0.258
-692.412	3.937	0.156	-0.115
-691.397	-200.000	-0.040	-0.387
-690.383	349.645	0.021	0.041
-689.368	14.370	-0.254	0.200
-688.354	-71.567	0.087	0.033
-687.339	-11.058	-0.072	-0.048
-686.324	800.000	0.027	0.106
-685.310	800.000	-0.041	0.156
-684.295	-154.850	-0.106	0.007
-683.281	86.646	-0.163	-0.181
-682.266	8.429	-0.198	0.150
-681.251	-136.201	0.158	-0.019
-680.237	800.000	0.061	-0.199
-679.222	-155.095	-0.332	-0.022
-678.208	64.323	-0.067	0.068
-677.193	-200.000	0.001	0.066
-676.178	-18.183	0.185	-0.116
-675.164	7.887	0.170	0.128
-674.149	181.034	0.181	0.268
-673.135	800.000	0.012	0.038
-672.120	-57.146	-0.154	-0.068
-671.105	-167.279	0.188	-0.008
-670.091	177.014	0.203	-0.297
-669.076	151.734	0.152	-0.208
-668.062	-200.000	-0.020	0.161
-667.047	-52.065	-0.085	0.040
-666.032	-132.610	-0.131	0.017
-665.018	454.907	-0.093	-0.208
-664.003	0.736	-0.188	-0.135
-662.989	-200.000	0.032	-0.306
-661.974	55.471	-0.242	-0.235
-660.959	800.000	0.039	-0.151
-659.945	-80.050	0.273	-0.092
-658.930	-101.587	0.125	0.030
-657.916	-200.000	0.008	0.082
-656.901	-57.549	-0.044	0.019
-655.886	-200.000	-0.092	0.000
-654.872	542.737	-0.149	-0.356
-653.857	-30.919	0.152	0.087
-652.843	-116.234	-0.298	0.056
-651.828	-113.892	0.433	-0.085
-650.814	184.423	0.050	0.074
-649.799	29.178	0.044	0.037
-648.784	29.647	0.176	-0.150
-647.770	-129.570	0.183	0.025
-646.755	86.109	0.136	-0.150
-645.741	-114.263	0.131	-0.025
-644.726	31.218	0.142	0.122
-643.711	-200.000	-0.012	0.317
-642.697	-142.206	-0.274	-0.027
-641.682	-200.000	0.046	0.338
-640.668	3.919	-0.086	0.063
-639.653	-16.012	-0.045	-0.029
-638.638	13.136	0.309	-0.240
-637.624	-60.746	0.196	-0.084
-636.609	-182.109	-0.146	-0.003
-635.595	-175.480	0.414	0.011
-634.580	-182.042	-0.473	-0.009
-633.565	800.000	0.027	0.074
-632.551	800.000	0.106	0.371
-631.536	168.824	-0.135	-0.193
-630.522	-200.000	0.014	-0.267
-629.507	-200.000	-0.018	0.119
-628.492	345.857	0.055	-0.108
-627.478	-200.000	-0.070	0.434
-626.463	10.363	-0.096	-0.073
-625.449	800.000	0.069	-0.242
-624.434	205.261	0.078	0.122
-623.419	-120.219	-0.407	0.070
-622.405	136.342	0.134	0.175
-621.390	800.000	0.009	0.029
-620.376	-58.632	0.346	0.150
-619.361	-168.998	-0.167	0.006
-618.346	187.595	-0.224	-0.336
-617.332	800.000	0.037	-0.130
-616.317	308.565	-0.089	-0.168
-615.303	54.769	-0.341	0.330
-614.288	-146.683	-0.245	-0.021
-613.273	344.512	-0.102	-0.200
-612.259	-20.737	0.181	-0.111
-611.244	30.519	-0.253	0.217
-610.230	800.000	0.028	-0.085
-609.215	310.083	-0.100	-0.187
-608.201	-58.631	-0.141	-0.061
-607.186	19.037	0.113	0.091
-606.171	12.920	-0.156	0.121
-605.157	17.999	-0.118	0.094
-604.142	800.000	0.049	-0.154
-603.128	8.203	-0.177	0.134
-602.113	89.792	0.184	-0.206
-601.098	111.609	0.085	-0.103
-600.084	800.000	-0.147	-0.459
-599.069	392.894	-0.120	0.249
-598.055	48.601	0.152	0.143
-597.040	-49.261	-0.084	0.040
-596.025	114.600	-0.080	0.098
-595.011	20.083	0.227	-0.184
-593.996	-3.122	-0.292	-0.204
-592.982	800.000	-0.034	0.113
-591.967	-166.561	-0.222	-0.009
-590.952	800.000	-0.055	-0.225
-589.938	-2.555	-0.229	0.161
-588.923	800.000	0.024	-0.080
-587.909	69.048	0.178	0.183
-586.894	43.164	0.157	0.144
-585.879	-144.912	0.383	-0.035
-584.865	465.165	0.146	-0.328
-583.850	-61.407	0.071	-0.030
-582.836	457.645	-0.059	-0.132
-581.821	-60.689	-0.164	-0.069
-580.806	800.000	0.038	0.152
-579.792	741.290	0.069	0.187
-578.777	-58.201	-0.140	0.061
-577.763	114.398	-0.062	0.075
-576.748	297.498	-0.103	-0.190
-575.733	800.000	-0.121	-0.416
-574.719	-200.000	-0.017	-0.172
-573.704	-200.000	0.002	-0.127
-572.690	150.534	-0.200	-0.272
-571.675	-163.628	0.447	-0.021
-570.661	98.122	0.090	0.104
-569.646	127.253	0.202	-0.256
-568.631	-172.692	-0.143	0.005
-567.617	3.429	-0.049	0.036
-566.602	-200.000	-0.054	-0.265
-565.588	-89.029	-0.394	-0.117
-564.573	-63.282	-0.449	-0.185
-563.558	-92.061	0.404	-0.115
-562.544	-14.210	-0.202	-0.131
-561.529	-141.363	0.376	0.038
-560.515	8.938	-0.100	0.076
-559.500	281.124	-0.082	0.147
-558.485	11.928	0.072	-0.055
-557.471	-97.692	0.251	0.065
-556.456	-124.434	0.336	0.052
-555.442	118.327	0.198	-0.245
-554.427	-200.000	0.063	-0.458
-553.412	496.214	-0.113	0.259
-552.398	246.173	0.101	0.170
-551.383	-61.121	0.220	0.093
-550.369	-11.946	-0.136	0.089
-549.354	-92.097	-0.214	-0.061
-548.339	414.814	-0.154	0.329
-547.325	-62.067	0.284	-0.119
-546.310	109.163	-0.143	-0.171
-545.296	-81.131	-0.083	-0.027
-544.281	-200.000	0.006	0.411
-543.266	220.371	0.130	-0.208
-542.252	54.346	-0.249	0.240
-541.237	46.283	-0.105	-0.097
-540.223	45.390	0.174	0.161
-539.208	244.399	-0.105	-0.176
-538.193	274.760	0.091	-0.162
-537.179	201.159	-0.055	-0.085
-536.164	12.847	-0.182	-0.141
-535.150	182.065	-0.165	0.243
-534.135	180.500	0.109	0.159
-533.121	800.000	0.021	0.089
-532.106	800.000	0.012	-0.048
-531.091	159.605	0.035	0.049
-530.077	42.048	-0.093	-0.084
-529.062	-78.352	0.231	-0.079
-528.048	211.776	0.130	-0.205
-527.033	-132.426	0.272	0.035
-526.018	-200.000	-0.001	0.396
-525.004	186.300	0.090	0.134
-523.989	-145.034	0.251	0.023
-522.975	408.989	0.202	-0.428
-521.960	117.198	-0.161	-0.198
-520.945	-49.919	0.039	0.018
-519.931	-116.729	0.153	0.028
-518.916	-33.828	0.230	-0.127
-517.902	226.727	-0.119	-0.193
-516.887	-80.570	-0.167	-0.056
-515.872	49.977	0.316	0.298
-514.858	108.944	-0.020	-0.023
-513.843	58.096	0.113	-0.111
-512.829	36.048	-0.203	-0.178
-511.814	-154.988	-0.205	-0.013
-510.799	554.333	-0.013	-0.032
-509.785	-58.313	-0.223	0.097
-508.770	-86.038	-0.163	-0.050
-507.756	-169.154	-0.255	-0.009
-506.741	93.542	0.124	0.141
-505.726	-153.647	-0.212	-0.015
-504.712	-91.252	0.200	0.057
-503.697	-200.000	0.027	-0.210
-502.683	-67.443	-0.153	-0.060
-501.668	-129.937	0.189	0.026
-500.653	-159.598	-0.213	-0.012
-499.639	225.052	-0.054	-0.087
-498.624	124.650	0.050	0.063
-497.610	800.000	0.060	0.187
-496.595	78.456	-0.105	-0.112
-495.581	600.762	-0.084	-0.208
-494.566	714.719	0.081	0.213
-493.551	-200.000	-0.021	-0.180
-492.537	73.860	0.190	-0.199
-491.522	-47.333	0.039	-0.019
-490.508	87.228	-0.020	-0.022
-489.493	-20.990	-0.246	0.151
-488.478	113.489	-0.170	-0.206
-487.464	541.306	0.155	-0.369
-486.449	25.971	0.057	-0.048
-485.435	-200.000	-0.029	-0.162
-484.420	50.435	-0.173	0.163
-483.405	-34.204	-0.242	-0.133
-482.391	-121.765	-0.133	0.022
-481.376	-66.111	0.294	-0.117
-480.362	41.001	0.195	-0.176
-479.347	-124.716	0.062	0.010
-478.332	-104.821	0.397	0.091
-477.318	-53.687	-0.147	0.067
-476.303	800.000	-0.039	0.155
-475.289	800.000	-0.101	-0.395
-474.274	-200.000	0.103	-0.504
-473.259	800.000	0.065	-0.238
-472.245	-117.842	-0.087	-0.016
-471.230	18.201	0.269	0.214
-470.216	551.018	-0.016	0.038
-469.201	315.574	-0.057	0.108
-468.186	-200.000	0.020	0.185
-467.172	425.833	-0.187	0.402
-466.157	102.541	-0.114	0.133
-465.143	162.616	0.067	-0.094
-464.128	177.007	-0.101	0.146
-463.113	-149.977	0.167	-0.013
-462.099	124.144	0.079	-0.099
-461.084	59.299	-0.066	-0.065
-460.070	171.242	-0.205	0.294
-459.055	-32.048	-0.385	-0.215
-458.040	-47.020	0.136	-0.066
-457.026	-200.000	-0.066	-0.294
-456.011	357.037	-0.052	-0.103
-454.997	383.391	0.059	-0.120
-453.982	800.000	0.148	0.469
-452.968	92.475	-0.277	0.312
-451.953	69.568	-0.130	-0.134
-450.938	800.000	-0.027	-0.118
-449.924	-59.716	0.180	0.077
-448.909	-200.000	-0.033	0.219
-447.895	145.796	-0.196	0.262
-446.880	-53.313	-0.167	0.076
-445.865	800.000	0.101	0.386
-444.851	-93.773	0.064	0.018
-443.836	-82.205	-0.151	-0.049
-442.822	75.053	0.224	-0.236
-441.807	-88.786	-0.252	-0.075
-440.792	-94.409	0.294	0.080
-439.778	317.172	0.132	0.248
-438.763	160.731	-0.085	0.119
-437.749	-52.547	0.117	0.054
-436.734	-92.533	0.169	0.047
-435.719	-41.411	-0.114	0.058
-434.705	-9.312	-0.208	-0.138
-433.690	-156.966	-0.196	0.012
-432.676	-28.611	-0.358	0.205
-431.661	800.000	-0.122	-0.362
-430.646	71.374	0.219	-0.226
-429.632	140.057	-0.053	0.069
-428.617	-25.879	0.259	0.152
-427.603	-0.126	0.111	-0.079
-426.588	34.037	0.112	0.097
-425.573	-156.922	0.252	-0.015
-424.559	55.013	-0.137	0.132
-423.544	-130.782	0.033	-0.004
-422.530	632.344	0.044	-0.112
-421.515	19.026	-0.144	0.115
-420.500	-29.752	0.254	-0.145
-419.486	-94.490	-0.190	0.052
-418.471	-21.767	0.398	-0.241
-417.457	-155.292	-0.251	0.016
-416.442	-19.900	0.295	-0.182
-415.428	-5.467	-0.030	-0.020
-414.413	-137.244	-0.179	-0.020
-413.398	800.000	-0.103	0.284
-412.384	-135.942	0.104	0.012
-411.369	451.392	0.033	-0.072
-410.355	-57.684	-0.066	0.029
-409.340	120.135	0.245	-0.303
-408.325	-123.655	-0.024	-0.004
-407.311	226.739	0.014	0.023
-406.296	-113.395	-0.393	0.077
-405.282	-200.000	-0.009	0.270
-404.267	-41.342	0.127	-0.065
-403.252	-41.269	0.153	-0.079
-402.238	-147.648	-0.281	0.023
-401.223	800.000	0.057	0.157
-400.209	-96.784	-0.243	0.064
-399.194	-200.000	0.007	0.272
-398.179	182.872	-0.234	-0.344
-397.165	129.947	0.117	0.150
-396.150	30.115	0.188	0.159
-395.136	81.742	-0.190	-0.205
-394.121	-44.055	0.205	0.102
-393.106	-200.000	0.015	-0.188
-392.092	800.000	0.111	-0.314
-391.077	59.072	-0.051	-0.050
-390.063	139.580	-0.212	-0.277
-389.048	193.937	-0.039	0.058
-388.033	-200.000	-0.024	0.130
-387.019	131.040	0.072	0.092
-386.004	28.282	-0.263	0.221
-384.990	-131.603	0.106	-0.014
-383.975	-117.661	0.076	0.014
-382.960	223.045	-0.064	-0.102
-381.946	-124.803	-0.195	-0.030
-380.931	403.587	0.032	-0.068
-379.917	-200.000	-0.030	0.233
-378.902	5.671	-0.071	0.052
-377.888	-135.121	0.264	-0.032
-376.873	-123.445	0.153	0.024
-375.858	-114.211	0.303	-0.058
-374.844	535.454	-0.140	-0.329
-373.829	-57.761	-0.312	-0.136
-372.815	800.000	-0.059	0.200
-371.800	-200.000	0.009	0.161
-370.785	395.292	-0.018	0.037
-369.771	105.631	0.015	-0.018
-368.756	772.098	0.071	0.193
-367.742	-104.245	0.046	-0.011
-366.727	70.964	0.017	-0.018
-365.712	403.803	-0.070	-0.147
-364.698	-200.000	0.014	-0.228
-363.683	-99.227	-0.137	0.034
-362.669	38.900	-0.130	-0.115
-361.654	-200.000	0.060	0.299
-360.639	39.551	-0.064	-0.057
-359.625	-69.785	-0.010	0.004
-358.610	-200.000	-0.036	-0.183
-357.596	-82.115	0.201	0.065
-356.581	224.426	0.141	0.226
-355.566	-46.398	-0.072	0.035
-354.552	100.297	-0.123	0.142
-353.537	48.074	0.171	0.158
-352.523	-200.000	-0.013	0.438
-351.508	-29.293	-0.107	0.061
-350.493	634.942	0.107	-0.269
-349.479	8.635	0.145	0.108
-348.464	-47.541	0.199	0.096
-347.450	-200.000	0.032	0.206
-346.435	-39.465	-0.228	0.119
-345.420	18.827	-0.360	0.286
-344.406	-200.000	-0.020	0.170
-343.391	-200.000	-0.045	0.225
-342.377	198.133	-0.072	0.109
-341.362	-200.000	-0.027	0.171
-340.348	-29.074	0.292	0.166
-339.333	800.000	0.019	0.079
-338.318	256.715	-0.110	-0.188
-337.304	-171.657	-0.047	0.002
-336.289	88.344	-0.084	-0.092
-335.275	-200.000	0.052	-0.000
-334.260	-17.724	-0.233	0.145
-333.245	800.000	-0.056	-0.177
-332.231	-38.533	0.029	0.015
-331.216	-64.907	-0.051	-0.021
-330.202	128.946	0.131	0.166
-329.187	-103.870	-0.368	0.085
-328.172	-66.629	0.131	-0.052
-327.158	-122.944	0.412	-0.066
-326.143	-70.299	0.209	0.079
-325.129	-109.464	0.187	0.039
-324.114	-200.000	-0.007	-0.157
-323.099	-100.077	0.093	0.023
-322.085	-200.000	-0.051	0.445
-321.070	-44.361	0.382	-0.190
-320.056	-107.324	-0.173	0.038
-319.041	759.746	-0.062	-0.166
-318.026	-200.000	-0.000	-0.282
-317.012	169.776	0.080	-0.114
-315.997	234.224	-0.115	-0.188
-314.983	-200.000	0.013	0.070
-313.968	-44.932	0.326	0.161
-312.953	-75.671	0.345	0.122
-311.939	-25.071	-0.271	0.159
-310.924	12.707	-0.120	-0.092
-309.910	-142.744	0.251	0.024
-308.895	-200.000	-0.062	-0.309
-307.880	800.000	-0.038	0.120
-306.866	24.853	-0.393	-0.323
-305.851	55.100	-0.167	-0.160
-304.837	-11.369	-0.147	0.096
-303.822	-75.418	-0.182	-0.064
-302.807	-115.586	-0.319	0.059
-301.793	800.000	-0.041	-0.133
-300.778	-67.600	0.127	0.049
-299.764	800.000	-0.039	0.136
-298.749	133.116	0.076	0.097
-297.735	18.649	-0.148	-0.118
-296.720	459.595	0.055	-0.122
-295.705	-200.000	-0.026	0.333
-294.691	363.945	-0.047	-0.094
-293.676	164.552	-0.128	-0.179
-292.662	471.290	0.071	0.158
-291.647	75.062	0.112	0.117
-290.632	102.303	-0.146	0.170
-289.618	-45.193	-0.357	0.176
-288.603	-91.156	-0.348	-0.099
-287.589	-108.520	-0.385	-0.082
-286.574	-23.918	-0.186	-0.110
-285.559	-200.000	0.015	0.067
-284.545	87.262	-0.137	-0.150
-283.530	402.923	0.048	0.100
-282.516	-200.000	-0.034	0.159
-281.501	104.293	0.213	-0.248
-280.486	-54.801	0.058	-0.026
-279.472	98.969	-0.250	0.286
-278.457	-200.000	-0.037	-0.181
-277.443	-98.852	0.297	-0.075
-276.428	399.720	0.083	0.173
-275.413	-35.378	0.342	0.184
-274.399	206.350	-0.213	-0.328
-273.384	440.139	0.136	-0.294
-272.370	271.171	-0.119	0.207
-271.355	-14.252	-0.271	0.173
-270.340	-87.135	0.586	-0.176
-269.326	-178.773	-0.239	0.005
-268.311	-3.904	-0.333	0.229
-267.297	800.000	-0.089	0.276
-266.282	-136.263	0.458	-0.053
-265.267	101.413	-0.106	-0.123
-264.253	98.281	0.199	-0.227
-263.238	-196.319	0.206	0.001
-262.224	318.849	-0.123	0.232
-261.209	-200.000	-0.002	-0.017
-260.195	353.419	-0.060	0.119
-259.180	-71.594	0.141	0.052
-258.165	159.719	-0.098	0.135
-257.151	-166.054	0.403	-0.017
-256.136	-96.110	0.293	0.077
-255.122	60.909	-0.252	-0.247
-254.107	667.227	0.105	-0.268
-253.092	214.393	0.155	-0.243
-252.078	476.384	0.077	-0.172
-251.063	800.000	-0.030	0.099
-250.049	-143.757	-0.245	-0.023
-249.034	6.072	-0.164	0.120
-248.019	800.000	-0.058	-0.230
-247.005	-8.186	0.056	-0.037
-245.990	-0.005	0.081	-0.057
-244.976	-37.433	-0.384	0.203
-243.961	-29.100	0.424	-0.240
-242.946	800.000	0.021	0.062
-241.932	-15.237	0.235	0.148
-240.917	-105.599	-0.263	0.059
-239.903	-63.950	-0.027	0.011
-238.888	800.000	-0.067	-0.233
-237.873	40.964	0.121	-0.108
-236.859	-33.434	-0.325	-0.177
-235.844	616.503	0.033	0.082
-234.830	-38.781	-0.083	0.043
-233.815	492.853	-0.068	-0.155
-232.800	222.760	0.213	-0.339
-231.786	594.147	-0.052	0.126
-230.771	142.002	-0.082	-0.108
-229.757	-200.000	-0.021	-0.099
-228.742	-124.717	-0.194	-0.030
-227.727	119.298	0.131	0.160
-226.713	-54.738	0.182	0.081
-225.698	-200.000	0.032	0.231
-224.684	251.288	-0.233	0.392
-223.669	-110.233	-0.229	-0.047
-222.655	752.786	0.060	-0.159
-221.640	-200.000	0.045	0.240
-220.625	-132.558	0.136	0.017
-219.611	16.502	-0.137	-0.107
-218.596	-146.836	-0.074	-0.006
-217.582	800.000	0.028	0.085
-216.567	-98.021	0.292	-0.074
-215.552	514.492	-0.213	0.492
-214.538	-161.743	0.417	0.021
-213.523	90.010	0.134	0.148
-212.509	58.657	-0.076	-0.073
-211.494	25.522	0.125	0.103
-210.479	-16.968	0.429	-0.267
-209.465	265.730	0.130	-0.225
-208.450	800.000	-0.055	-0.184
-207.436	-200.000	0.018	0.180
-206.421	-65.204	-0.041	-0.016
-205.406	-200.000	-0.028	-0.191
-204.392	-134.454	0.287	-0.035
-203.377	303.049	0.094	0.172
-202.363	-200.000	-0.036	0.180
-201.348	-200.000	-0.062	-0.308
-200.333	-60.188	0.103	0.044
-199.319	-108.842	0.095	-0.020
-198.304	42.835	-0.169	0.152
-197.290	-200.000	0.018	0.085
-196.275	-68.273	0.138	0.053
-195.260	-200.000	0.040	-0.181
-194.246	375.704	-0.121	0.244
-193.231	-41.083	-0.234	-0.119
-192.217	19.762	-0.156	-0.124
-191.202	163.124	-0.047	-0.065
-190.187	682.683	0.061	-0.157
-189.173	533.731	0.112	0.262
-188.158	-112.479	0.195	-0.038
-187.144	41.031	0.113	-0.101
-186.129	575.842	-0.145	0.348
-185.114	64.975	0.209	-0.209
-184.100	309.965	0.100	-0.185
-183.085	800.000	-0.007	0.022
-182.071	-144.583	-0.385	0.035
-181.056	-200.000	0.018	0.184
-180.042	-41.616	-0.160	0.081
-179.027	-200.000	0.019	-0.266
-178.012	-134.719	-0.206	-0.025
-176.998	-89.380	0.538	0.156
-175.983	-128.831	-0.146	-0.020
-174.969	-200.000	-0.010	-0.153
-173.954	-197.174	0.225	-0.001
-172.939	520.059	-0.095	0.219
-171.925	800.000	0.010	0.031
-170.910	-1.436	-0.148	-0.103
-169.896	-42.645	0.417	-0.209
-168.881	48.665	0.161	0.149
-167.866	22.020	0.201	0.161
-166.852	-11.151	0.087	0.056
-165.837	-57.034	-0.204	0.089
-164.823	800.000	-0.030	0.113
-163.808	684.974	-0.082	0.211
-162.793	73.456	0.064	0.066
-161.779	800.000	0.068	0.229
-160.764	800.000	0.049	0.138
-159.750	660.665	0.092	0.233
-158.735	-65.623	0.063	-0.025
-157.720	149.031	-0.087	0.115
-156.706	-114.522	0.222	-0.042
-155.691	75.847	-0.317	-0.330
-154.677	779.188	0.049	-0.131
-153.662	-126.494	0.121	0.018
-152.647	261.002	0.252	0.429
-151.633	47.012	0.118	-0.108
-150.618	132.535	-0.126	-0.160
-149.604	183.485	-0.188	-0.274
-148.589	453.982	0.128	-0.278
-147.574	594.488	0.136	0.332
-146.560	92.798	-0.202	-0.225
-145.545	488.402	0.144	0.323
-144.531	-200.000	0.092	0.398
-143.516	-66.106	-0.433	-0.170
-142.502	254.706	0.111	-0.187
-141.487	-200.000	0.024	0.265
-140.472	-200.000	0.019	0.411
-139.458	-0.313	-0.035	0.024
-138.443	67.275	0.100	-0.100
-137.429	-33.609	0.161	-0.088
-136.414	-200.000	-0.028	0.161
-135.399	189.409	-0.114	0.168
-134.385	-75.635	0.301	0.105
-133.370	-33.094	0.274	-0.149
-132.356	800.000	-0.057	0.167
-131.341	121.977	0.199	0.245
-130.326	800.000	0.079	-0.241
-129.312	800.000	-0.043	0.166
-128.297	51.400	0.205	-0.192
-127.283	800.000	-0.031	0.125
-126.268	-200.000	0.022	-0.197
-125.253	63.563	-0.091	-0.090
-124.239	-200.000	0.021	-0.153
-123.224	800.000	-0.052	-0.174
-122.210	-45.565	0.465	-0.227
-121.195	103.917	-0.245	-0.283
-120.180	-200.000	-0.006	0.377
-119.166	-28.438	-0.288	-0.163
-118.151	-38.833	0.358	-0.186
-117.137	14.292	-0.163	0.125
-116.122	-200.000	0.035	-0.262
-115.107	-55.107	-0.122	0.054
-114.093	-73.432	0.249	-0.090
-113.078	73.192	0.058	0.059
-112.064	60.065	0.053	-0.052
-111.049	800.000	0.067	-0.285
-110.034	11.101	-0.237	0.178
-109.020	800.000	0.096	0.350
-108.005	-21.076	-0.196	0.118
-106.991	-9.139	0.235	0.155
-105.976	800.000	0.111	-0.302
-104.962	-100.655	-0.074	-0.018
-103.947	-5.896	0.098	-0.066
-102.932	-91.830	0.206	-0.057
-101.918	-18.920	0.337	-0.207
-100.903	-15.516	-0.109	-0.068
-99.889	-49.898	0.174	0.081
-98.874	-176.377	-0.415	-0.011
-97.859	95.778	0.345	-0.387
-96.845	-200.000	0.026	0.134
-95.830	-42.405	-0.377	0.189
-94.816	-2.398	0.248	-0.171
-93.801	157.989	0.251	-0.342
-92.786	647.175	-0.189	-0.474
-91.772	119.013	0.314	0.382
-90.757	515.155	0.068	-0.157
-89.743	800.000	-0.074	-0.232
-88.728	-20.938	-0.518	0.312
-87.713	-200.000	0.023	0.141
-86.699	800.000	-0.036	-0.151
-85.684	800.000	0.020	0.075
-84.670	472.073	-0.022	-0.049
-83.655	88.018	0.155	-0.169
-82.640	-200.000	-0.055	0.296
-81.626	-4.242	-0.175	0.119
-80.611	43.228	-0.130	0.117
-79.597	217.035	0.116	0.182
-78.582	54.101	-0.166	0.157
-77.567	-161.670	0.108	-0.005
-76.553	-0.845	0.292	-0.204
-75.538	-24.958	0.249	0.145
-74.524	-165.332	-0.063	0.003
-73.509	-200.000	-0.009	-0.053
-72.494	-146.514	-0.157	-0.013
-71.480	-200.000	-0.060	0.396
-70.465	1.556	-0.029	-0.021
-69.451	-123.083	0.224	0.035
-68.436	-172.122	-0.400	0.013
-67.422	184.068	-0.288	-0.418
-66.407	55.392	0.133	-0.127
-65.392	-56.736	-0.086	0.037
-64.378	800.000	-0.038	0.124
-63.363	800.000	0.065	0.240
-62.349	-200.000	-0.059	0.263
-61.334	-111.950	-1.216	-0.241
-60.319	-152.379	0.599	0.042
-59.305	800.000	-0.316	-1.064
-58.290	49.635	0.928	0.859
-57.276	800.000	0.554	1.679
-56.261	-200.000	96.031	599.556
-55.246	578.943	1362.939	3274.951
-54.232	162.486	2546.163	3506.054
-53.217	107.416	2262.303	2641.689
-52.203	41.549	1891.577	1681.188
-51.188	35.447	1681.571	1448.600
-50.173	32.732	1637.723	1390.779
-49.159	50.104	1684.140	1560.415
-48.144	51.891	1699.676	1588.096
-47.130	35.071	1661.370	1428.165
-46.115	32.293	1646.832	1395.037
-45.100	32.186	1641.753	1389.886
-44.086	32.139	1639.083	1387.223
-43.071	32.083	1636.459	1384.539
-42.057	32.047	1634.735	1382.758
-41.042	32.122	1632.330	1381.217
-40.027	32.088	1630.675	1379.517
-39.013	32.088	1628.223	1377.386
-37.998	31.944	1627.077	1375.303
-36.984	32.022	1626.026	1374.937
-35.969	32.170	1624.136	1374.365
-34.954	32.129	1622.968	1373.024
-33.940	32.146	1621.012	1371.434
-32.925	32.142	1619.254	1369.864
-31.911	32.174	1617.555	1368.607
-30.896	32.179	1615.287	1366.672
-29.881	32.217	1613.774	1365.615
-28.867	32.181	1612.391	1364.127
-27.852	32.126	1611.125	1362.605
-26.838	32.264	1609.095	1361.828
-25.823	32.180	1607.605	1359.907
-24.809	32.144	1606.894	1358.995
-23.794	32.186	1604.902	1357.557
-22.779	32.293	1603.236	1356.864
-21.765	32.185	1602.052	1355.032
-20.750	32.274	1600.449	1354.260
-19.736	32.236	1599.252	1352.919
-18.721	32.285	1597.869	1352.048
-17.706	32.338	1596.082	1350.864
-16.692	32.211	1594.396	1348.472
-15.677	32.240	1593.207	1347.622
-14.663	32.209	1592.081	1346.395
-13.648	32.181	1590.847	1345.099
-12.633	32.173	1589.613	1343.947
-11.619	32.137	1588.170	1342.411
-10.604	32.260	1585.937	1341.354
-9.590	32.206	1585.105	1340.208
-8.575	32.292	1583.607	1339.498
-7.560	32.326	1582.100	1338.412
-6.546	32.228	1581.440	1337.108
-5.531	32.251	1580.208	1336.173
-4.517	32.205	1578.906	1334.693
-3.502	32.248	1577.967	1334.153
-2.487	32.297	1576.078	1332.848
-1.473	31.945	1564.888	1320.856
-0.458	29.394	1545.512	1286.682
0.556	26.658	1546.824	1258.465
1.571	24.395	1570.718	1261.811
2.586	23.929	1584.516	1269.455
3.600	21.586	1531.200	1210.448
4.615	12.454	1421.027	1064.390
5.629	3.856	1355.237	961.732
6.644	2.242	1346.341	945.359
7.659	2.181	1345.296	944.160
8.673	2.083	1344.365	942.823
9.688	2.084	1342.616	941.514
10.702	1.798	1339.634	937.583
11.717	5.453	1346.651	964.986
12.731	15.656	1365.931	1042.278
13.746	24.040	1380.456	1105.585
14.761	26.323	1383.330	1121.978
15.775	26.682	1383.305	1124.087
16.790	26.721	1382.618	1123.668
17.804	26.801	1382.129	1123.668
18.819	27.086	1381.474	1124.799
19.834	27.171	1380.918	1124.776
20.848	27.197	1380.537	1124.528
21.863	27.215	1379.454	1123.655
22.877	27.248	1378.261	1122.787
23.892	27.199	1377.320	1121.618
24.907	27.213	1376.996	1121.341
25.921	27.269	1375.568	1120.427
26.936	27.177	1374.569	1118.945
27.950	27.097	1374.173	1118.031
28.965	27.133	1372.708	1116.964
29.980	27.189	1371.549	1116.262
30.994	27.208	1369.913	1114.950
32.009	27.246	1368.643	1114.050
33.023	27.238	1367.626	1113.075
34.038	27.192	1366.927	1112.127
35.053	27.186	1365.748	1111.036
36.067	27.111	1364.897	1109.786
37.082	27.212	1363.959	1109.542
38.096	27.090	1363.227	1108.105
39.111	27.260	1362.079	1108.107
40.126	27.133	1361.522	1106.783
41.140	27.181	1360.981	1106.535
42.155	27.150	1360.779	1106.086
43.169	27.185	1360.486	1105.964
44.184	27.135	1360.915	1105.910
45.199	27.188	1360.192	1105.548
46.213	27.203	1359.533	1105.005
47.228	27.219	1358.385	1104.070
48.242	27.219	1357.212	1103.019
49.257	27.226	1355.342	1101.447
50.271	27.213	1354.396	1100.499
51.286	27.099	1353.434	1098.933
52.301	27.090	1351.952	1097.574
53.315	27.159	1350.904	1097.044
54.330	27.137	1350.277	1096.307
55.344	27.234	1349.028	1095.780
56.359	27.254	1347.775	1094.784
57.374	27.148	1347.291	1093.657
58.388	27.117	1347.183	1093.287
59.403	27.151	1346.506	1092.844
60.417	27.262	1345.329	1092.460
61.432	27.254	1344.615	1091.732
62.447	27.215	1344.030	1090.932
63.461	27.112	1342.854	1089.258
64.476	27.116	1342.162	1088.627
65.490	27.195	1340.698	1087.816
66.505	27.211	1339.481	1086.828
67.520	27.129	1338.580	1085.509
68.534	27.197	1337.386	1084.853
69.549	27.310	1335.926	1084.246
70.563	27.198	1335.626	1083.242
71.578	27.192	1334.433	1082.142
72.593	27.224	1333.527	1081.499
73.607	27.185	1332.921	1080.678
74.622	27.246	1332.138	1080.310
75.636	27.230	1331.591	1079.681
76.651	27.130	1331.294	1078.749
77.666	27.255	1330.370	1078.644
78.680	27.115	1329.957	1077.384
79.695	27.234	1329.122	1077.318
80.709	27.140	1328.837	1076.438
81.724	27.222	1327.122	1075.437
82.739	27.258	1326.644	1075.164
83.753	27.168	1325.521	1073.627
84.768	27.161	1324.702	1072.829
85.782	27.242	1323.450	1072.198
86.797	27.155	1322.417	1070.752
87.812	27.254	1320.958	1070.061
88.826	27.162	1320.690	1069.206
89.841	27.229	1319.514	1068.557
90.855	27.291	1318.414	1067.935
91.870	27.189	1317.509	1066.507
92.884	27.132	1316.993	1065.660
93.899	27.245	1315.809	1065.272
94.914	27.236	1315.438	1064.824
95.928	27.243	1314.379	1063.915
96.943	27.273	1313.637	1063.393
97.957	27.435	1312.678	1063.473
98.972	27.206	1312.074	1061.547
99.987	27.254	1311.540	1061.305
101.001	27.290	1309.979	1060.157
102.016	27.169	1309.186	1058.717
103.030	27.270	1308.691	1058.807
104.045	27.326	1307.597	1058.158
105.060	27.296	1306.879	1057.309
106.074	27.283	1305.953	1056.390
107.089	27.236	1304.995	1055.250
108.103	27.213	1304.049	1054.260
109.118	27.368	1302.354	1053.688
110.133	27.292	1301.465	1052.438
111.147	27.232	1300.366	1051.109
112.162	27.399	1298.913	1050.808
113.176	27.442	1298.159	1050.352
114.191	27.302	1297.799	1049.159
115.206	27.383	1296.394	1048.400
116.220	27.313	1295.478	1047.162
117.235	27.288	1294.543	1046.170
118.249	27.307	1294.035	1045.776
119.264	27.309	1292.997	1044.854
120.279	27.276	1292.383	1044.078
121.293	27.373	1291.527	1043.850
122.308	27.340	1290.913	1043.071
123.322	27.398	1289.933	1042.521
124.337	27.513	1288.717	1042.104
125.352	27.432	1287.866	1040.863
126.366	27.374	1287.277	1039.962
127.381	27.372	1286.502	1039.229
128.395	27.489	1285.095	1038.671
129.410	27.321	1284.739	1037.330
130.424	27.459	1283.667	1037.161
131.439	27.446	1282.871	1036.349
132.454	27.409	1282.478	1035.731
133.468	27.383	1281.934	1035.054
134.483	27.414	1281.075	1034.444
135.497	27.391	1280.305	1033.603
136.512	27.424	1278.924	1032.584
137.527	27.336	1278.439	1031.598
138.541	27.447	1276.681	1030.720
139.556	27.373	1275.581	1029.321
140.570	27.416	1274.830	1028.869
141.585	27.436	1273.588	1027.888
142.600	27.344	1273.096	1026.880
143.614	27.294	1272.640	1026.137
144.629	27.262	1271.167	1024.678
145.643	27.150	1270.425	1023.360
146.658	27.209	1269.211	1022.620
147.673	27.256	1267.978	1021.802
148.687	27.304	1267.369	1021.494
149.702	27.282	1265.951	1020.136
150.716	27.308	1264.882	1019.327
151.731	27.322	1264.081	1018.668
152.746	27.345	1262.947	1017.799
153.760	27.427	1262.052	1017.445
154.775	27.353	1261.302	1016.336
155.789	27.344	1260.196	1015.303
156.804	27.359	1259.556	1014.784
157.819	27.442	1258.717	1014.481
158.833	27.419	1257.587	1013.347
159.848	27.474	1257.020	1013.108
160.862	27.447	1256.567	1012.503
161.877	27.419	1255.816	1011.654
162.892	27.370	1254.880	1010.540
163.906	27.424	1254.071	1010.098
164.921	27.543	1253.485	1010.198
165.935	27.398	1252.707	1008.678
166.950	27.448	1252.083	1008.360
167.964	27.482	1251.645	1008.105
168.979	27.552	1250.679	1007.629
169.994	27.531	1249.962	1006.846
171.008	27.469	1249.620	1006.135
172.023	27.594	1248.664	1005.971
173.037	27.469	1248.122	1004.751
174.052	27.365	1247.319	1003.444
175.067	27.537	1246.204	1003.409
176.081	27.440	1245.640	1002.331
177.096	27.511	1245.009	1002.122
178.110	27.508	1244.245	1001.403
179.125	27.649	1242.763	1000.896
180.140	27.537	1242.103	999.660
181.154	27.616	1240.699	998.878
182.169	27.516	1240.204	997.839
183.183	27.554	1239.046	997.031
184.198	27.569	1237.850	996.064
185.213	27.559	1237.012	995.245
186.227	27.543	1236.366	994.547
187.242	27.570	1235.373	993.808
188.256	27.631	1234.208	993.114
189.271	27.610	1233.609	992.432
190.286	27.584	1232.966	991.684
191.300	27.565	1232.497	991.118
192.315	27.530	1231.880	990.346
193.329	27.537	1231.780	990.216
194.344	27.461	1231.315	989.339
195.359	27.632	1230.623	989.623
196.373	27.636	1230.187	989.209
197.388	27.523	1229.656	988.078
198.402	27.527	1229.412	987.819
199.417	27.547	1229.208	987.674
200.432	27.591	1228.372	987.155
201.446	27.574	1227.736	986.464
202.461	27.503	1227.150	985.520
203.475	27.638	1226.046	985.279
204.490	27.529	1225.194	983.918
205.504	27.595	1224.020	983.244
206.519	27.728	1222.996	983.048
207.534	27.736	1222.087	982.274
208.548	27.639	1221.404	981.118
209.563	27.724	1221.110	981.250
210.577	27.648	1220.040	979.894
211.592	27.716	1219.000	979.338
212.607	27.727	1218.623	979.011
213.621	27.766	1217.666	978.361
214.636	27.704	1216.865	977.303
215.650	27.765	1216.351	977.127
216.665	27.831	1215.176	976.451
217.680	27.761	1214.239	975.238
218.694	27.702	1214.018	974.659
219.709	27.776	1212.712	973.916
220.723	27.784	1212.352	973.585
221.738	27.823	1211.220	972.800
222.753	27.758	1210.839	972.061
223.767	27.752	1210.229	971.455
224.782	27.793	1209.864	971.292
225.796	27.819	1209.297	970.891
226.811	27.850	1208.370	970.226
227.826	27.855	1208.101	969.948
228.840	27.767	1207.529	968.938
229.855	27.832	1206.555	968.411
230.869	27.840	1206.202	968.085
231.884	27.874	1205.565	967.671
232.899	27.754	1204.650	966.216
233.913	27.765	1204.235	965.852
234.928	27.870	1203.804	965.980
235.942	27.947	1203.219	965.832
236.957	27.960	1202.142	964.951
237.972	27.750	1201.672	963.380
238.986	27.918	1200.675	963.379
240.001	28.009	1200.683	963.781
241.015	28.005	1199.701	962.888
242.030	28.067	1198.667	962.299
243.045	27.949	1198.569	961.512
244.059	28.027	1197.154	960.704
245.074	28.065	1196.623	960.392
246.088	27.959	1195.637	958.958
247.103	27.963	1195.234	958.571
248.117	27.996	1194.204	957.831
249.132	27.929	1193.739	957.027
250.147	28.029	1193.084	956.937
251.161	28.105	1192.263	956.594
252.176	28.095	1191.548	955.880
253.190	28.003	1191.199	955.034
254.205	27.990	1190.644	954.440
255.220	27.997	1190.063	953.926
256.234	28.034	1189.355	953.467
257.249	28.133	1188.398	953.132
258.263	28.137	1187.902	952.671
259.278	28.139	1187.422	952.209
260.293	28.130	1187.092	951.814
261.307	28.201	1186.435	951.575
262.322	28.146	1185.930	950.799
263.336	28.233	1185.007	950.424
264.351	28.118	1184.490	949.331
265.366	28.176	1183.614	948.846
266.380	28.154	1183.363	948.444
267.395	28.124	1182.596	947.590
268.409	28.081	1181.897	946.725
269.424	28.122	1181.748	946.734
270.439	28.180	1180.808	946.196
271.453	28.199	1180.138	945.676
272.468	28.101	1179.293	944.410
273.482	28.226	1178.800	944.572
274.497	28.079	1178.859	943.782
275.512	28.233	1177.799	943.644
276.526	28.111	1177.152	942.411
277.541	28.222	1176.085	942.046
278.555	28.251	1175.809	941.888
279.570	28.218	1174.939	940.941
280.585	28.112	1174.573	940.019
281.599	28.193	1173.243	939.289
282.614	28.362	1172.163	939.207
283.628	28.283	1171.638	938.295
284.643	28.266	1170.961	937.584
285.657	28.273	1170.217	936.940
286.672	28.305	1169.545	936.485
287.687	28.282	1168.530	935.471
288.701	28.344	1168.085	935.349
289.716	28.340	1167.558	934.825
290.730	28.409	1166.784	934.472
291.745	28.358	1166.019	933.518
292.760	28.391	1165.498	933.184
293.774	28.363	1164.994	932.559
294.789	28.361	1164.363	931.961
295.803	28.486	1163.522	931.842
296.818	28.420	1162.942	930.958
297.833	28.499	1162.287	930.752
298.847	28.443	1162.026	930.178
299.862	28.434	1160.789	929.058
300.876	28.370	1160.391	928.332
301.891	28.438	1160.199	928.443
302.906	28.540	1159.157	928.041
303.920	28.540	1158.476	927.416
304.935	28.510	1157.849	926.677
305.949	28.602	1156.864	926.273
306.964	28.494	1156.678	925.495
307.979	28.626	1156.072	925.595
308.993	28.639	1155.471	925.096
310.008	28.686	1154.664	924.610
311.022	28.678	1153.698	923.715
312.037	28.599	1153.023	922.695
313.052	28.594	1152.124	921.865
314.066	28.587	1151.397	921.169
315.081	28.482	1150.911	920.172
316.095	28.610	1150.245	920.199
317.110	28.649	1149.535	919.746
318.125	28.646	1148.810	919.070
319.139	28.651	1148.461	918.734
320.154	28.643	1147.533	917.868
321.168	28.603	1146.990	917.155
322.183	28.570	1146.781	916.740
323.197	28.638	1146.061	916.422
324.212	28.666	1145.621	916.129
325.227	28.669	1145.187	915.719
326.241	28.786	1144.755	915.871
327.256	28.684	1143.797	914.519
328.270	28.707	1142.883	913.819
329.285	28.718	1142.235	913.278
330.300	28.727	1141.522	912.668
331.314	28.757	1140.615	912.012
332.329	28.812	1139.614	911.406
333.343	28.844	1138.997	910.990
334.358	28.831	1138.307	910.295
335.373	28.779	1138.030	909.735
336.387	28.837	1137.553	909.560
337.402	28.883	1136.407	908.789
338.416	28.892	1135.923	908.365
339.431	28.887	1135.392	907.838
340.446	28.883	1134.776	907.243
341.460	29.003	1133.855	907.017
342.475	28.869	1133.349	905.871
343.489	29.071	1132.425	906.049
344.504	28.907	1131.282	904.246
345.519	28.952	1131.017	904.178
346.533	28.907	1129.809	902.912
347.548	28.995	1129.074	902.675
348.562	28.944	1128.446	901.846
349.577	28.901	1127.966	901.168
350.592	28.927	1126.912	900.372
351.606	29.020	1126.616	900.514
352.621	28.948	1126.130	899.694
353.635	29.071	1125.275	899.529
354.650	29.039	1124.531	898.702
355.665	28.999	1123.924	897.940
356.679	29.119	1123.216	897.879
357.694	29.095	1122.705	897.277
358.708	29.069	1122.096	896.586
359.723	29.107	1121.485	896.203
360.738	29.011	1120.886	895.175
361.752	29.100	1120.472	895.201
362.767	29.098	1120.125	894.832
363.781	29.157	1119.523	894.559
364.796	29.195	1118.799	894.084
365.810	29.213	1118.037	893.486
366.825	29.176	1117.498	892.794
367.840	29.255	1117.255	892.906
368.854	29.272	1116.455	892.271
369.869	29.199	1115.820	891.328
370.883	29.193	1115.439	890.919
371.898	29.157	1114.438	889.867
372.913	29.212	1113.666	889.437
373.927	29.316	1113.297	889.564
374.942	29.333	1113.108	889.419
375.956	29.380	1112.187	888.829
376.971	29.321	1111.666	888.048
377.986	29.461	1110.857	888.000
379.000	29.350	1110.691	887.254
380.015	29.472	1110.238	887.401
381.029	29.357	1109.357	886.062
382.044	29.381	1108.941	885.770
383.059	29.488	1108.140	885.565
384.073	29.435	1107.312	884.570
385.088	29.305	1106.828	883.481
386.102	29.440	1105.776	883.213
387.117	29.339	1104.956	881.994
388.132	29.414	1104.424	881.849
389.146	29.382	1104.007	881.288
390.161	29.544	1103.203	881.337
391.175	29.482	1102.601	880.485
392.190	29.574	1101.703	880.128
393.205	29.505	1101.158	879.288
394.219	29.637	1099.999	878.914
395.234	29.501	1099.212	877.560
396.248	29.500	1098.866	877.200
397.263	29.599	1097.697	876.658
398.278	29.528	1097.330	875.949
399.292	29.732	1096.699	876.337
400.307	29.642	1096.264	875.484
401.321	29.568	1095.797	874.685
402.336	29.545	1094.956	873.826
403.350	29.594	1094.273	873.438
404.365	29.628	1093.716	873.073
405.380	29.579	1093.329	872.456
406.394	29.564	1092.642	871.759
407.409	29.728	1091.409	871.471
408.423	29.730	1090.502	870.679
409.438	29.763	1090.163	870.487
410.453	29.855	1089.403	870.237
411.467	29.866	1088.667	869.625
412.482	29.759	1087.878	868.416
413.496	29.846	1087.267	868.257
414.511	29.861	1086.920	867.975
415.526	29.788	1086.284	867.046
416.540	29.817	1086.086	866.951
417.555	29.923	1085.117	866.595
418.569	29.800	1085.373	866.146
419.584	29.850	1084.946	865.966
420.599	29.870	1084.583	865.689
421.613	104.491	1321.842	1458.043
422.628	97.268	1356.374	1458.160
