DTS Sentinel unit serial number:	SN413079Multiplexer serial number:	ORYXHardware model number:	OX4-SRSoftware version number:	ORYX F/W v4.00 Oryx Data Collector v3.7.2.0data status	okinstallation	princeton_trtdifferential loss correction	single-endedforward channel	channel 2reverse channel	N/Adate	2019/09/11time	15:25:11forward acquisition time	60.00reverse acquisition time	0.00gamma	496.2192k internal	0.2289k external	0.2289temperature offset calibration	1.0015default loss term (dB/km)	0.3790temperature slope calibration	1.0000multiplexer offset coefficient	1.0000multiplexer slope coefficient	1.0000fibre end	0.00T internal ref (°C)	42.86T ext. ref 1 (°C)	0.99T ext. ref 2 (°C)	37.85length (m)	temperature (°C)	Stokes	anti-Stokes-747.200	61.603	-0.085	-0.086
-746.185	191.731	-0.188	0.290
-745.171	247.360	0.206	-0.357
-744.156	-200.000	-0.079	0.390
-743.142	260.891	-0.134	0.238
-742.127	-200.000	0.003	0.359
-741.112	-139.771	-0.248	0.027
-740.098	-200.000	0.019	0.153
-739.083	13.766	-0.212	-0.169
-738.069	-26.471	0.235	-0.141
-737.054	450.510	-0.098	-0.222
-736.039	-88.425	-0.295	-0.090
-735.025	-200.000	0.070	0.341
-734.010	110.223	-0.143	0.176
-732.996	-200.000	0.008	-0.248
-731.981	-108.965	0.227	0.050
-730.966	-200.000	0.019	0.166
-729.952	187.155	-0.122	0.187
-728.937	66.553	-0.158	-0.165
-727.923	-79.697	-0.192	0.066
-726.908	-73.368	-0.094	0.035
-725.894	-200.000	-0.031	-0.512
-724.879	-181.330	-0.229	0.005
-723.864	-24.239	0.087	0.053
-722.850	-145.934	-0.321	-0.029
-721.835	126.043	-0.169	0.219
-720.821	123.755	-0.062	0.079
-719.806	23.580	-0.218	-0.184
-718.791	-12.557	-0.361	-0.241
-717.777	800.000	0.072	-0.238
-716.762	-200.000	0.051	-0.231
-715.748	-200.000	0.000	-0.144
-714.733	-200.000	0.003	0.323
-713.718	-66.677	0.070	-0.028
-712.704	37.278	-0.334	-0.303
-711.689	4.881	-0.201	-0.152
-710.675	31.515	0.246	0.217
-709.660	488.682	-0.126	0.294
-708.645	-200.000	-0.008	0.110
-707.631	392.936	-0.122	-0.259
-706.616	366.869	-0.055	0.114
-705.602	149.278	0.047	0.065
-704.587	-200.000	-0.046	-0.347
-703.572	180.070	0.134	0.201
-702.558	-186.307	0.199	-0.003
-701.543	304.233	0.050	0.094
-700.529	800.000	0.037	-0.110
-699.514	282.913	-0.044	0.082
-698.499	-116.627	0.117	-0.022
-697.485	-93.621	0.387	-0.109
-696.470	800.000	0.086	-0.338
-695.456	-123.587	0.084	-0.014
-694.441	-100.126	-0.071	-0.018
-693.426	15.819	-0.174	-0.140
-692.412	-48.412	-0.234	0.115
-691.397	287.027	-0.196	-0.363
-690.383	-200.000	-0.041	0.263
-689.368	-110.267	-0.402	-0.086
-688.354	-73.646	-0.344	0.128
-687.339	299.321	-0.085	-0.160
-686.324	800.000	-0.111	0.406
-685.310	525.000	0.030	-0.072
-684.295	53.535	-0.041	0.040
-683.281	-176.615	0.054	-0.001
-682.266	800.000	-0.052	0.153
-681.251	178.127	-0.052	-0.077
-680.237	113.964	-0.095	0.119
-679.222	-60.070	-0.176	-0.077
-678.208	117.721	-0.110	-0.138
-677.193	57.815	-0.216	-0.216
-676.178	-63.951	0.420	-0.176
-675.164	-200.000	0.045	-0.306
-674.149	-28.681	-0.114	-0.067
-673.135	351.332	0.076	-0.154
-672.120	118.842	0.127	0.161
-671.105	-200.000	-0.012	-0.279
-670.091	82.351	-0.236	-0.262
-669.076	-200.000	0.002	-0.144
-668.062	800.000	0.060	-0.250
-667.047	16.285	-0.173	-0.140
-666.032	53.422	0.165	0.162
-665.018	241.569	-0.023	0.040
-664.003	57.362	0.176	-0.176
-662.989	-12.842	0.358	-0.238
-661.974	-96.081	-0.280	-0.076
-660.959	-75.451	0.207	-0.075
-659.945	-65.621	0.082	-0.034
-658.930	-200.000	-0.095	-0.434
-657.916	-26.784	0.165	0.099
-656.901	-200.000	-0.070	0.473
-655.886	-55.642	-0.157	-0.072
-654.872	206.740	0.105	-0.167
-653.857	-38.167	-0.301	-0.163
-652.843	-36.590	0.148	-0.081
-651.828	-78.557	-0.283	0.099
-650.814	-200.000	-0.038	0.219
-649.799	-200.000	0.027	0.191
-648.784	-12.732	-0.190	0.126
-647.770	-86.785	-0.282	0.088
-646.755	-200.000	0.035	0.331
-645.741	-109.336	-0.144	0.031
-644.726	-22.073	0.151	0.094
-643.711	-142.818	-0.224	0.022
-642.697	186.823	0.101	-0.154
-641.682	800.000	-0.081	-0.254
-640.668	-200.000	-0.026	0.124
-639.653	100.264	-0.041	-0.049
-638.638	74.814	-0.080	0.086
-637.624	-60.536	0.350	0.152
-636.609	198.962	-0.167	0.262
-635.595	253.595	0.130	-0.227
-634.580	359.452	0.159	-0.324
-633.565	158.175	-0.169	0.239
-632.551	-122.468	-0.244	-0.041
-631.536	-100.689	-0.242	-0.061
-630.522	-75.130	-0.055	-0.020
-629.507	800.000	-0.037	0.118
-628.492	79.697	0.135	-0.147
-627.478	-9.772	0.233	-0.158
-626.463	-12.574	-0.175	0.117
-625.449	-27.791	-0.114	0.067
-624.434	189.527	-0.058	0.089
-623.419	-0.389	0.038	-0.027
-622.405	-200.000	0.010	-0.331
-621.390	-47.104	0.344	-0.171
-620.376	-54.012	0.220	0.102
-619.361	-200.000	-0.042	0.249
-618.346	141.775	-0.115	0.155
-617.332	-36.593	-0.081	0.044
-616.317	-18.881	0.178	-0.113
-615.303	-14.294	-0.151	-0.099
-614.288	142.492	-0.049	-0.066
-613.273	62.024	0.117	-0.119
-612.259	-184.485	0.201	-0.003
-611.244	-16.952	-0.042	0.027
-610.230	-200.000	0.013	-0.419
-609.215	-0.857	-0.253	0.183
-608.201	-200.000	-0.012	0.173
-607.186	61.711	-0.163	-0.165
-606.171	21.962	0.094	-0.078
-605.157	-56.550	0.035	-0.016
-604.142	33.941	-0.048	0.043
-603.128	165.065	-0.054	0.077
-602.113	-86.677	0.203	-0.063
-601.098	-157.774	0.248	0.015
-600.084	-168.902	0.219	0.008
-599.069	-6.096	0.401	-0.279
-598.055	53.416	0.281	0.275
-597.040	-126.001	-0.473	-0.072
-596.025	51.518	-0.337	0.327
-595.011	-14.921	0.082	0.054
-593.996	-200.000	0.052	-0.248
-592.982	-28.138	0.405	0.239
-591.967	236.524	0.046	0.078
-590.952	406.164	0.118	0.254
-589.938	32.325	0.105	-0.092
-588.923	313.648	-0.039	-0.074
-587.909	800.000	0.097	-0.283
-586.894	37.209	-0.101	-0.091
-585.879	800.000	0.099	0.291
-584.865	-122.694	0.308	-0.051
-583.850	-200.000	0.042	0.250
-582.836	-96.286	0.218	0.059
-581.821	7.096	-0.272	0.207
-580.806	86.164	0.274	0.307
-579.792	-200.000	0.058	-0.389
-578.777	-57.104	-0.220	-0.099
-577.763	-200.000	-0.005	0.293
-576.748	17.817	0.089	0.072
-575.733	24.367	0.253	0.213
-574.719	800.000	0.079	-0.238
-573.704	-15.452	-0.100	-0.065
-572.690	533.991	-0.163	0.393
-571.675	-51.199	0.218	0.104
-570.661	-146.855	0.215	0.019
-569.646	-66.764	-0.195	-0.079
-568.631	-144.823	0.198	-0.019
-567.617	9.076	0.207	0.159
-566.602	-110.329	0.120	-0.025
-565.588	-200.000	0.022	0.343
-564.573	441.570	0.090	0.202
-563.558	-61.861	0.318	-0.135
-562.544	800.000	0.030	0.120
-561.529	52.020	-0.110	0.107
-560.515	-151.388	0.219	-0.017
-559.500	-170.269	-0.230	-0.008
-558.485	-103.009	-0.093	0.022
-557.471	143.048	-0.122	0.165
-556.456	-88.282	-0.210	-0.064
-555.442	-109.723	0.347	0.074
-554.427	296.450	-0.054	-0.100
-553.412	-5.154	-0.189	-0.133
-552.398	-44.413	-0.274	-0.140
-551.383	650.732	0.033	-0.085
-550.369	24.865	0.254	0.214
-549.354	-62.175	0.168	-0.071
-548.339	7.908	0.090	-0.068
-547.325	800.000	-0.070	0.205
-546.310	-200.000	0.003	0.171
-545.296	13.738	-0.238	0.188
-544.281	-200.000	-0.005	-0.215
-543.266	-44.241	-0.251	0.128
-542.252	218.638	0.091	0.148
-541.237	-147.904	-0.251	-0.021
-540.223	800.000	-0.050	-0.220
-539.208	370.487	-0.168	0.346
-538.193	101.669	-0.104	-0.124
-537.179	690.064	-0.137	0.365
-536.164	-130.306	0.034	-0.005
-535.150	22.961	0.203	-0.169
-534.135	155.917	-0.084	-0.118
-533.121	394.318	-0.030	-0.064
-532.106	-200.000	0.065	0.349
-531.091	92.154	0.049	0.056
-530.077	800.000	-0.110	-0.326
-529.062	-50.172	0.061	-0.030
-528.048	800.000	-0.134	0.426
-527.033	-35.243	0.295	-0.163
-526.018	800.000	0.022	0.070
-525.004	-82.628	-0.176	-0.058
-523.989	91.010	-0.293	0.334
-522.975	800.000	0.112	-0.383
-521.960	38.940	-0.123	-0.112
-520.945	-184.016	-0.266	-0.005
-519.931	-84.511	-0.125	-0.040
-518.916	76.213	-0.132	-0.142
-517.902	800.000	0.041	-0.121
-516.887	177.113	0.154	-0.228
-515.872	-200.000	-0.047	-0.340
-514.858	-30.375	0.334	0.193
-513.843	131.877	-0.061	-0.079
-512.829	-200.000	0.015	-0.322
-511.814	353.563	0.114	-0.230
-510.799	173.256	-0.184	-0.270
-509.785	254.647	0.078	-0.136
-508.770	279.892	-0.163	-0.297
-507.756	800.000	-0.031	-0.093
-506.741	315.199	0.137	0.262
-505.726	-152.891	0.091	0.007
-504.712	-177.625	-0.207	0.005
-503.697	-63.520	-0.259	-0.108
-502.683	-69.693	-0.378	-0.147
-501.668	-103.516	-0.170	0.040
-500.653	-93.302	-0.192	0.054
-499.639	800.000	0.065	-0.229
-498.624	-154.376	-0.249	0.017
-497.610	595.678	-0.017	-0.043
-496.595	-114.347	-0.056	-0.011
-495.581	800.000	0.117	0.397
-494.566	-200.000	0.001	0.280
-493.551	-200.000	0.029	0.191
-492.537	-200.000	-0.001	-0.136
-491.522	-61.803	-0.477	-0.203
-490.508	-170.672	-0.407	0.014
-489.493	-190.965	0.431	-0.005
-488.478	571.918	0.107	-0.265
-487.464	-157.062	-0.239	-0.015
-486.449	61.735	0.053	0.053
-485.435	-79.460	0.137	-0.047
-484.420	800.000	-0.089	-0.259
-483.405	15.380	0.352	0.280
-482.391	162.961	0.085	-0.121
-481.376	86.075	-0.121	-0.135
-480.362	45.776	-0.260	0.244
-479.347	-37.895	0.200	-0.108
-478.332	-132.928	0.180	0.023
-477.318	-200.000	0.057	0.388
-476.303	46.926	0.303	0.285
-475.289	564.004	0.089	0.219
-474.274	-53.737	-0.036	-0.017
-473.259	424.723	0.088	-0.192
-472.245	634.428	0.065	0.166
-471.230	-31.091	-0.257	-0.147
-470.216	-200.000	0.030	0.315
-469.201	175.406	0.117	0.172
-468.186	-198.305	0.165	-0.001
-467.172	-41.280	-0.151	-0.079
-466.157	-200.000	0.022	0.130
-465.143	-14.649	0.225	0.147
-464.128	264.546	0.052	0.091
-463.113	800.000	-0.036	0.156
-462.099	512.158	-0.023	-0.054
-461.084	103.712	-0.158	-0.188
-460.070	-3.958	0.045	0.031
-459.055	418.290	-0.125	-0.271
-458.040	-200.000	-0.015	-0.098
-457.026	800.000	-0.063	-0.263
-456.011	-14.285	0.252	0.164
-454.997	155.366	-0.109	0.152
-453.982	-64.446	-0.030	-0.013
-452.968	615.715	-0.089	-0.226
-451.953	-99.222	-0.433	-0.111
-450.938	800.000	0.091	-0.336
-449.924	52.186	-0.016	-0.015
-448.909	-20.597	0.197	0.123
-447.895	315.668	0.177	-0.339
-446.880	-95.608	0.371	-0.101
-445.865	107.906	0.295	-0.356
-444.851	-200.000	-0.034	-0.378
-443.836	-200.000	0.017	0.120
-442.822	-145.304	-0.178	0.016
-441.807	-185.454	0.436	-0.007
-440.792	800.000	-0.058	0.173
-439.778	8.377	0.082	0.062
-438.763	49.599	0.242	0.231
-437.749	800.000	-0.107	0.357
-436.734	-200.000	0.020	0.152
-435.719	220.837	0.147	0.238
-434.705	-4.887	-0.049	0.034
-433.690	79.102	0.169	-0.184
-432.676	800.000	-0.051	0.196
-431.661	170.141	-0.130	-0.189
-430.646	-200.000	-0.032	-0.351
-429.632	-200.000	-0.079	0.505
-428.617	-200.000	-0.019	-0.186
-427.603	800.000	0.072	-0.244
-426.588	-200.000	0.009	0.333
-425.573	800.000	-0.077	0.230
-424.559	-138.999	0.139	0.015
-423.544	-103.106	-0.347	-0.083
-422.530	69.280	0.135	0.140
-421.515	357.124	-0.187	0.378
-420.500	-95.080	0.133	0.036
-419.486	236.301	0.044	-0.073
-418.471	193.372	-0.181	0.278
-417.457	800.000	-0.107	0.396
-416.442	-200.000	-0.014	-0.417
-415.428	512.280	0.083	0.194
-414.413	-31.906	0.155	-0.088
-413.398	635.347	-0.092	-0.236
-412.384	-12.727	-0.125	-0.083
-411.369	800.000	-0.083	-0.285
-410.355	800.000	0.122	-0.440
-409.340	-8.573	-0.069	0.047
-408.325	353.672	0.015	0.030
-407.311	181.604	0.072	-0.108
-406.296	-17.211	0.133	0.085
-405.282	-39.594	0.053	0.028
-404.267	-30.450	-0.063	0.036
-403.252	188.444	-0.286	-0.433
-402.238	222.819	-0.166	-0.271
-401.223	800.000	0.103	-0.317
-400.209	67.941	-0.064	0.066
-399.194	42.028	-0.151	0.139
-398.179	-53.768	0.200	-0.092
-397.165	-82.312	0.059	-0.019
-396.150	-200.000	-0.005	-0.144
-395.136	-29.084	0.255	-0.148
-394.121	-129.826	-0.078	-0.011
-393.106	800.000	0.035	-0.133
-392.092	-148.691	0.418	-0.034
-391.077	-137.029	0.258	0.030
-390.063	-59.355	0.078	0.034
-389.048	-35.608	-0.048	0.027
-388.033	800.000	0.082	0.250
-387.019	-85.520	0.079	-0.025
-386.004	123.977	0.130	0.165
-384.990	-200.000	0.017	-0.123
-383.975	3.291	0.079	-0.058
-382.960	-104.801	-0.313	0.073
-381.946	679.820	-0.124	-0.326
-380.931	-173.119	0.198	-0.006
-379.917	-54.960	0.147	0.067
-378.902	9.976	-0.135	-0.104
-377.888	-82.860	0.233	-0.076
-376.873	388.045	-0.066	-0.138
-375.858	-200.000	-0.012	-0.114
-374.844	-83.449	0.296	-0.096
-373.829	21.607	-0.331	0.272
-372.815	363.691	0.086	0.175
-371.800	-100.770	0.157	0.039
-370.785	-200.000	-0.091	0.522
-369.771	37.769	0.070	-0.063
-368.756	-200.000	-0.023	-0.286
-367.742	90.197	0.138	-0.155
-366.727	144.727	0.131	-0.177
-365.712	-200.000	0.038	0.212
-364.698	167.512	0.132	0.189
-363.683	100.920	0.149	0.175
-362.669	183.679	-0.197	0.293
-361.654	512.039	-0.014	-0.032
-360.639	508.377	-0.117	-0.273
-359.625	22.311	-0.325	0.268
-358.610	-177.827	-0.223	0.005
-357.596	-26.750	0.173	-0.102
-356.581	192.811	0.038	-0.058
-355.566	119.206	-0.037	0.047
-354.552	259.473	-0.128	-0.223
-353.537	-80.548	-0.245	0.083
-352.523	17.325	0.170	-0.136
-351.508	-170.448	-0.261	0.009
-350.493	92.665	-0.074	-0.084
-349.479	40.949	-0.033	-0.030
-348.464	-200.000	-0.041	0.485
-347.450	-183.702	-0.300	-0.005
-346.435	58.039	-0.187	-0.185
-345.420	44.513	0.272	-0.253
-344.406	150.296	-0.074	0.101
-343.391	277.302	-0.132	0.237
-342.377	91.474	0.101	-0.114
-341.362	186.681	-0.228	0.343
-340.348	630.591	-0.060	-0.153
-339.333	-119.827	0.287	0.050
-338.318	-112.357	0.306	-0.062
-337.304	475.909	-0.097	0.222
-336.289	290.211	-0.031	0.057
-335.275	233.139	0.073	0.121
-334.260	-147.052	0.243	-0.021
-333.245	161.405	-0.072	0.102
-332.231	-45.656	-0.238	0.119
-331.216	29.396	-0.122	0.104
-330.202	158.589	-0.023	-0.032
-329.187	88.905	-0.185	-0.207
-328.172	800.000	-0.084	-0.294
-327.158	-200.000	0.045	-0.267
-326.143	-86.817	-0.164	0.051
-325.129	-44.106	-0.094	0.048
-324.114	800.000	-0.074	0.212
-323.099	-200.000	-0.014	-0.300
-322.085	-200.000	0.008	-0.325
-321.070	-58.603	-0.100	-0.044
-320.056	-172.376	-0.109	-0.003
-319.041	-200.000	-0.003	0.251
-318.026	800.000	-0.056	-0.207
-317.012	54.682	-0.178	-0.173
-315.997	-72.261	0.291	-0.109
-314.983	52.777	-0.436	0.420
-313.968	-99.881	-0.145	0.037
-312.953	690.948	0.112	-0.295
-311.939	-200.000	0.037	0.165
-310.924	124.767	-0.286	0.363
-309.910	-43.656	-0.118	-0.060
-308.895	165.832	0.095	-0.136
-307.880	-66.430	-0.344	-0.138
-306.866	177.123	-0.092	-0.135
-305.851	-39.087	0.367	-0.195
-304.837	-41.452	0.320	-0.166
-303.822	-48.554	-0.212	-0.103
-302.807	-39.919	-0.080	0.042
-301.793	126.143	0.105	0.134
-300.778	-100.927	0.132	0.033
-299.764	-66.336	-0.143	-0.057
-298.749	100.682	0.029	0.034
-297.735	51.326	-0.097	-0.093
-296.720	-200.000	-0.009	0.179
-295.705	800.000	0.031	0.119
-294.691	621.601	-0.067	-0.169
-293.676	-200.000	0.029	-0.227
-292.662	88.898	-0.123	0.137
-291.647	-34.147	-0.254	0.140
-290.632	18.735	-0.110	0.089
-289.618	-200.000	0.045	0.267
-288.603	-136.896	0.101	0.012
-287.589	146.765	0.114	0.155
-286.574	755.084	0.094	0.257
-285.559	163.806	-0.119	0.169
-284.545	-200.000	-0.054	0.251
-283.530	214.598	-0.132	-0.210
-282.516	-200.000	0.016	-0.110
-281.501	-77.136	0.251	-0.088
-280.486	-81.679	-0.178	-0.059
-279.472	-101.518	-0.175	0.043
-278.457	-200.000	0.006	-0.181
-277.443	800.000	-0.091	-0.385
-276.428	-80.355	-0.191	-0.064
-275.413	-162.377	-0.203	0.010
-274.399	144.263	0.142	-0.190
-273.384	73.955	0.018	-0.019
-272.370	-99.513	-0.218	-0.055
-271.355	531.997	0.143	-0.339
-270.340	110.964	-0.149	-0.180
-269.326	800.000	0.071	0.276
-268.311	800.000	0.094	0.264
-267.297	15.870	-0.104	0.082
-266.282	800.000	0.083	0.240
-265.267	-131.006	-0.088	-0.012
-264.253	-38.681	0.415	0.220
-263.238	34.274	-0.137	-0.121
-262.224	800.000	0.059	-0.176
-261.209	277.477	-0.163	0.293
-260.195	475.983	0.088	0.199
-259.180	-94.845	-0.154	0.042
-258.165	-160.944	-0.280	-0.015
-257.151	800.000	0.051	-0.177
-256.136	421.291	0.098	0.212
-255.122	80.441	-0.152	0.165
-254.107	709.938	-0.052	0.139
-253.092	232.310	0.163	0.268
-252.078	-31.649	0.377	-0.213
-251.063	-200.000	0.002	-0.214
-250.049	-66.888	-0.250	-0.099
-249.034	24.436	0.051	0.043
-248.019	-124.466	0.128	-0.020
-247.005	71.629	0.159	-0.166
-245.990	-63.729	-0.367	0.151
-244.976	-178.025	-0.468	0.011
-243.961	-132.096	-0.113	-0.015
-242.946	800.000	0.066	-0.189
-241.932	270.353	-0.055	-0.098
-240.917	-153.897	0.146	-0.010
-239.903	-103.079	0.140	0.033
-238.888	123.796	-0.074	-0.094
-237.873	-131.534	-0.253	-0.033
-236.859	382.125	-0.099	-0.204
-235.844	96.729	0.092	-0.106
-234.830	145.348	0.094	-0.127
-233.815	346.648	0.142	0.281
-232.800	-59.223	-0.212	0.092
-231.786	34.002	-0.211	0.185
-230.771	-200.000	0.080	0.352
-229.757	87.125	0.154	0.171
-228.742	800.000	-0.094	-0.267
-227.727	30.724	0.191	-0.164
-226.713	800.000	-0.006	0.024
-225.698	800.000	0.047	-0.144
-224.684	-43.792	-0.138	0.070
-223.669	800.000	0.029	-0.093
-222.655	-200.000	-0.016	0.106
-221.640	-200.000	-0.032	0.258
-220.625	-168.519	-0.230	0.009
-219.611	93.353	-0.127	-0.144
-218.596	-135.982	0.315	0.037
-217.582	-108.455	0.419	-0.091
-216.567	-200.000	-0.037	-0.183
-215.552	800.000	-0.141	-0.477
-214.538	-26.146	0.213	-0.126
-213.523	-200.000	0.038	-0.280
-212.509	577.613	0.006	0.016
-211.494	468.825	0.131	-0.294
-210.479	-200.000	0.002	0.227
-209.465	-104.031	0.161	0.038
-208.450	-53.940	0.159	0.073
-207.436	800.000	-0.060	0.167
-206.421	800.000	0.124	-0.417
-205.406	-74.235	-0.095	-0.035
-204.392	-89.705	0.087	-0.026
-203.377	-132.071	-0.224	-0.029
-202.363	-52.507	0.160	-0.074
-201.348	-21.056	-0.260	-0.160
-200.333	572.561	-0.185	0.453
-199.319	-200.000	0.006	0.028
-198.304	668.953	0.129	-0.334
-197.290	11.516	-0.146	0.112
-196.275	-200.000	-0.025	0.198
-195.260	286.595	-0.081	0.147
-194.246	-200.000	-0.001	-0.148
-193.231	17.900	0.041	-0.033
-192.217	-77.703	0.320	-0.111
-191.202	478.790	0.052	0.119
-190.187	800.000	0.054	-0.236
-189.173	-83.601	0.308	0.099
-188.158	-200.000	0.019	0.278
-187.144	-11.218	0.093	0.062
-186.129	800.000	0.101	0.291
-185.114	-200.000	0.019	-0.123
-184.100	-169.012	0.319	-0.012
-183.085	-64.763	-0.034	0.014
-182.071	-200.000	0.024	0.146
-181.056	-155.444	-0.256	0.017
-180.042	-60.318	0.324	0.138
-179.027	-82.311	-0.138	-0.045
-178.012	282.938	-0.155	-0.280
-176.998	-77.320	-0.176	0.061
-175.983	800.000	0.072	0.239
-174.969	-145.566	-0.077	-0.007
-173.954	208.964	0.279	0.438
-172.939	-134.030	0.447	-0.055
-171.925	82.557	-0.026	0.028
-170.910	800.000	-0.032	-0.098
-169.896	752.503	0.069	0.186
-168.881	-32.479	0.250	-0.140
-167.866	-173.336	-0.119	-0.004
-166.852	-83.664	-0.245	0.079
-165.837	-200.000	0.023	-0.308
-164.823	800.000	0.083	-0.259
-163.808	-109.845	0.241	-0.051
-162.793	-74.113	-0.049	0.018
-161.779	81.966	-0.096	0.104
-160.764	27.841	-0.113	0.096
-159.750	-10.769	0.125	-0.083
-158.735	-200.000	0.036	-0.231
-157.720	51.150	0.031	0.029
-156.706	-200.000	-0.005	0.033
-155.691	57.418	-0.053	0.052
-154.677	323.324	0.041	0.079
-153.662	800.000	0.027	-0.099
-152.647	483.366	0.075	0.171
-151.633	116.997	-0.108	-0.133
-150.618	122.982	0.108	0.136
-149.604	333.250	0.099	-0.192
-148.589	221.334	0.056	-0.090
-147.574	-104.892	0.310	-0.071
-146.560	-200.000	-0.097	-0.506
-145.545	10.017	0.100	0.076
-144.531	10.711	0.283	-0.216
-143.516	129.537	-0.138	-0.176
-142.502	800.000	0.102	-0.361
-141.487	-200.000	0.019	0.092
-140.472	-93.058	0.160	-0.045
-139.458	-162.746	-0.192	0.009
-138.443	228.900	-0.211	-0.344
-137.429	-158.634	0.274	-0.016
-136.414	-85.501	0.171	-0.053
-135.399	-100.395	-0.161	0.040
-134.385	-28.466	0.222	0.128
-133.370	-155.360	-0.273	-0.018
-132.356	62.591	0.139	-0.139
-131.341	-3.704	0.128	-0.089
-130.326	-200.000	0.032	0.273
-129.312	-86.714	0.290	-0.089
-128.297	-74.237	-0.191	0.069
-127.283	183.418	-0.058	-0.085
-126.268	-28.671	0.040	0.023
-125.253	-96.533	0.290	0.077
-124.239	-200.000	-0.157	-0.000
-123.224	103.010	-0.143	-0.168
-122.210	-200.000	0.045	0.344
-121.195	337.213	-0.127	-0.247
-120.180	7.149	-0.307	0.229
-119.166	-43.549	-0.136	-0.069
-118.151	800.000	0.063	0.271
-117.137	-200.000	-0.082	0.455
-116.122	-143.757	0.161	0.015
-115.107	420.013	-0.085	0.181
-114.093	222.723	0.017	-0.027
-113.078	414.841	-0.121	-0.257
-112.064	-68.820	-0.103	-0.040
-111.049	-181.521	-0.362	-0.007
-110.034	-108.606	-0.049	0.011
-109.020	159.188	-0.186	-0.259
-108.005	177.311	-0.169	-0.246
-106.991	126.100	-0.210	0.265
-105.976	-200.000	-0.058	0.292
-104.962	194.671	0.116	-0.175
-103.947	-41.471	0.149	-0.077
-102.932	-139.354	-0.255	-0.027
-101.918	-200.000	-0.012	0.113
-100.903	-99.307	-0.216	-0.054
-99.889	-24.458	-0.202	-0.120
-98.874	188.543	0.048	-0.071
-97.859	800.000	-0.039	-0.154
-96.845	-71.182	0.091	0.034
-95.830	-112.939	-0.243	-0.048
-94.816	-112.197	-0.143	0.029
-93.801	-75.507	-0.344	0.122
-92.786	-89.886	-0.254	-0.074
-91.772	495.721	0.101	-0.232
-90.757	-3.705	0.111	0.077
-89.743	89.378	-0.104	0.116
-88.728	26.672	-0.060	0.050
-87.713	203.667	0.152	0.234
-86.699	670.744	0.099	0.256
-85.684	-61.396	-0.043	-0.018
-84.670	15.616	-0.193	0.151
-83.655	8.786	-0.270	0.203
-82.640	-162.072	0.447	-0.022
-81.626	-200.000	-0.053	-0.325
-80.611	-200.000	0.002	0.033
-79.597	-180.882	-0.133	0.003
-78.582	800.000	0.023	-0.064
-77.567	-200.000	0.005	0.249
-76.553	451.759	-0.134	-0.296
-75.538	-135.762	-0.258	-0.031
-74.524	-200.000	-0.001	0.086
-73.509	-200.000	-0.005	0.026
-72.494	-72.949	-0.267	-0.098
-71.480	-12.868	0.315	0.205
-70.465	-31.131	0.190	0.107
-69.451	-200.000	-0.011	-0.156
-68.436	-25.774	-0.149	-0.088
-67.422	-69.166	0.086	0.033
-66.407	-200.000	-0.006	0.299
-65.392	800.000	0.035	0.125
-64.378	-121.597	0.537	0.089
-63.363	439.707	0.113	0.245
-62.349	-124.463	-0.115	0.018
-61.334	64.602	-0.675	-0.679
-60.319	-110.981	0.323	-0.066
-59.305	571.753	0.311	-0.756
-58.290	304.830	0.319	0.592
-57.276	-200.000	0.370	1.691
-56.261	-200.000	75.265	542.738
-55.246	576.166	1300.923	3170.839
-54.232	145.738	2530.749	3383.954
-53.217	114.494	2344.841	2849.738
-52.203	52.804	1959.702	1869.164
-51.188	46.524	1747.262	1617.378
-50.173	43.459	1700.176	1550.257
-49.159	57.489	1733.768	1689.533
-48.144	63.634	1751.534	1754.157
-47.130	46.212	1715.193	1585.032
-46.115	42.846	1701.811	1546.789
-45.100	42.825	1696.711	1541.934
-44.086	42.620	1695.033	1538.776
-43.071	42.716	1691.657	1536.385
-42.057	42.591	1689.801	1533.687
-41.042	42.692	1687.098	1531.937
-40.027	42.733	1685.501	1530.740
-39.013	42.622	1683.670	1528.169
-37.998	42.739	1681.991	1527.475
-36.984	42.814	1680.266	1526.415
-35.969	42.761	1679.304	1525.086
-34.954	42.887	1677.613	1524.441
-33.940	42.919	1675.411	1522.619
-32.925	42.923	1673.382	1520.747
-31.911	42.888	1671.894	1519.068
-30.896	42.909	1670.221	1517.652
-29.881	42.832	1668.312	1515.271
-28.867	42.799	1666.551	1513.364
-27.852	42.776	1665.490	1512.172
-26.838	42.854	1663.181	1510.599
-25.823	42.861	1662.549	1510.021
-24.809	42.892	1660.971	1508.757
-23.794	42.870	1660.146	1507.779
-22.779	42.836	1658.441	1505.917
-21.765	42.924	1655.963	1504.264
-20.750	42.859	1654.592	1502.473
-19.736	42.929	1652.708	1501.229
-18.721	42.943	1651.608	1500.271
-17.706	42.882	1650.186	1498.465
-16.692	42.846	1648.553	1496.661
-15.677	42.918	1646.934	1495.667
-14.663	42.865	1645.428	1493.841
-13.648	42.904	1644.418	1493.160
-12.633	42.834	1642.145	1490.517
-11.619	42.901	1641.038	1489.948
-10.604	42.859	1639.750	1488.404
-9.590	42.968	1638.232	1487.774
-8.575	42.986	1636.897	1486.641
-7.560	42.925	1634.993	1484.404
-6.546	42.946	1634.099	1483.683
-5.531	42.818	1633.626	1482.250
-4.517	42.878	1632.070	1481.225
-3.502	42.887	1631.191	1480.432
-2.487	42.955	1629.510	1479.347
-1.473	42.937	1618.536	1469.199
-0.458	40.413	1598.575	1432.798
0.556	35.916	1596.273	1398.146
1.571	33.192	1620.304	1398.948
2.586	32.406	1635.350	1405.943
3.600	28.650	1581.014	1331.918
4.615	15.530	1459.541	1140.948
5.629	3.517	1382.654	1003.025
6.644	1.127	1371.887	979.692
7.659	1.032	1370.032	977.672
8.673	0.966	1368.874	976.334
9.688	0.845	1367.309	974.347
10.702	0.688	1364.567	971.298
11.717	4.694	1373.554	1003.487
12.731	16.296	1395.610	1095.174
13.746	24.165	1408.794	1156.732
14.761	24.675	1408.472	1159.675
15.775	24.781	1407.341	1159.331
16.790	24.845	1406.785	1159.184
17.804	24.873	1406.071	1158.673
18.819	25.095	1405.995	1159.946
19.834	25.103	1405.277	1159.300
20.848	25.073	1404.583	1158.435
21.863	25.003	1403.896	1157.312
22.877	25.054	1403.048	1156.842
23.892	25.100	1402.119	1156.270
24.907	25.138	1401.063	1155.542
25.921	24.985	1400.080	1153.638
26.936	25.067	1398.889	1153.086
27.950	25.118	1398.279	1152.811
28.965	25.000	1397.345	1151.176
29.980	25.027	1395.391	1149.639
30.994	25.062	1394.151	1148.740
32.009	25.055	1392.877	1147.547
33.023	25.034	1392.145	1146.707
34.038	25.048	1390.877	1145.651
35.053	25.168	1389.581	1145.245
36.067	25.111	1388.418	1143.822
37.082	25.049	1387.619	1142.667
38.096	25.107	1386.531	1142.044
39.111	25.072	1385.757	1141.077
40.126	25.031	1385.762	1140.724
41.140	24.986	1385.024	1139.727
42.155	25.169	1384.181	1140.095
43.169	25.181	1384.299	1140.168
44.184	25.007	1384.577	1139.193
45.199	25.071	1383.911	1138.947
46.213	25.115	1383.320	1138.642
47.228	25.102	1382.218	1137.550
48.242	25.101	1380.693	1136.189
49.257	25.099	1379.273	1134.908
50.271	25.143	1377.875	1133.935
51.286	25.037	1376.982	1132.431
52.301	25.009	1375.687	1131.089
53.315	25.058	1374.923	1130.669
54.330	25.082	1373.891	1129.873
55.344	25.053	1372.793	1128.682
56.359	25.010	1371.575	1127.312
57.374	25.119	1370.778	1127.244
58.388	25.051	1370.457	1126.449
59.403	25.076	1369.579	1125.787
60.417	25.091	1368.815	1125.154
61.432	25.047	1368.604	1124.605
62.447	25.150	1367.068	1123.890
63.461	25.095	1366.558	1123.027
64.476	25.052	1365.170	1121.514
65.490	25.174	1363.789	1121.043
66.505	25.046	1363.086	1119.568
67.520	25.026	1361.671	1118.183
68.534	25.103	1360.461	1117.568
69.549	25.127	1359.548	1116.868
70.563	25.168	1358.755	1116.374
71.578	25.082	1357.695	1114.871
72.593	25.033	1356.730	1113.674
73.607	25.061	1355.951	1113.109
74.622	25.237	1355.019	1113.343
75.636	25.143	1354.122	1111.923
76.651	25.083	1354.138	1111.465
77.666	25.047	1353.367	1110.510
78.680	24.955	1353.202	1109.704
79.695	24.991	1352.251	1109.049
80.709	25.111	1351.524	1109.102
81.724	25.108	1350.446	1108.096
82.739	25.167	1349.209	1107.350
83.753	25.086	1348.558	1106.219
84.768	25.047	1347.774	1105.235
85.782	25.085	1346.407	1104.253
86.797	25.187	1345.093	1103.705
87.812	25.135	1344.097	1102.469
88.826	25.057	1342.824	1100.846
89.841	25.082	1341.885	1100.134
90.855	25.147	1340.618	1099.393
91.870	25.097	1339.695	1098.236
92.884	25.083	1339.454	1097.857
93.899	25.071	1338.579	1096.968
94.914	25.146	1337.780	1096.672
95.928	25.130	1337.106	1095.927
96.943	25.083	1336.230	1094.828
97.957	25.151	1335.548	1094.584
98.972	25.116	1335.038	1093.855
99.987	25.139	1333.713	1092.812
101.001	25.019	1332.992	1091.398
102.016	25.127	1331.954	1091.110
103.030	25.103	1331.092	1090.160
104.045	25.127	1330.176	1089.455
105.060	25.149	1329.042	1088.567
106.074	25.313	1327.864	1088.501
107.089	25.095	1327.548	1086.821
108.103	25.105	1326.114	1085.611
109.118	25.174	1324.918	1084.953
110.133	25.230	1323.821	1084.297
111.147	25.179	1322.442	1082.763
112.162	25.141	1321.803	1081.919
113.176	25.246	1320.518	1081.401
114.191	25.188	1319.557	1080.169
115.206	25.210	1318.746	1079.547
116.220	25.117	1317.435	1077.815
117.235	25.130	1316.466	1077.004
118.249	25.137	1315.808	1076.412
119.264	25.171	1314.360	1075.340
120.279	25.174	1314.182	1075.118
121.293	25.247	1312.948	1074.449
122.308	25.343	1311.945	1074.106
123.322	25.205	1311.565	1072.874
124.337	25.152	1310.932	1071.945
125.352	25.137	1309.614	1070.685
126.366	25.124	1308.917	1069.942
127.381	25.272	1307.859	1069.862
128.395	25.331	1306.858	1069.305
129.410	25.288	1305.898	1068.166
130.424	25.371	1305.065	1067.887
131.439	25.223	1304.992	1066.850
132.454	25.239	1303.800	1065.875
133.468	25.261	1303.155	1065.382
134.483	25.271	1302.674	1064.958
135.497	25.269	1301.769	1064.110
136.512	25.245	1300.722	1063.019
137.527	25.207	1299.928	1062.051
138.541	25.289	1298.181	1061.012
139.556	25.214	1296.858	1059.398
140.570	25.212	1295.993	1058.581
141.585	25.266	1294.926	1057.935
142.600	25.211	1293.881	1056.664
143.614	25.246	1293.213	1056.232
144.629	25.286	1292.169	1055.522
145.643	25.125	1291.154	1053.651
146.658	25.145	1289.843	1052.607
147.673	25.238	1289.006	1052.376
148.687	25.378	1287.419	1051.806
149.702	25.182	1286.690	1049.973
150.716	25.209	1285.561	1049.114
151.731	25.174	1284.780	1048.181
152.746	25.102	1283.615	1046.717
153.760	25.286	1282.415	1046.719
154.775	25.273	1281.429	1045.747
155.789	25.278	1280.948	1045.291
156.804	25.280	1279.371	1043.924
157.819	25.320	1278.605	1043.437
158.833	25.281	1278.001	1042.627
159.848	25.271	1277.411	1041.992
160.862	25.246	1276.618	1041.109
161.877	25.290	1275.612	1040.451
162.892	25.285	1274.775	1039.650
163.906	25.340	1274.255	1039.449
164.921	25.364	1273.318	1038.732
165.935	25.380	1272.312	1037.913
166.950	25.188	1272.466	1036.838
167.964	25.339	1271.492	1036.826
168.979	25.390	1270.675	1036.364
169.994	25.331	1270.374	1035.683
171.008	25.253	1269.638	1034.544
172.023	25.359	1268.605	1034.217
173.037	25.302	1268.489	1033.705
174.052	25.435	1267.505	1033.575
175.067	25.300	1266.807	1032.141
176.081	25.335	1266.357	1031.885
177.096	25.355	1264.978	1030.785
178.110	25.372	1264.060	1030.040
179.125	25.363	1263.262	1029.247
180.140	25.444	1262.265	1028.809
181.154	25.425	1260.908	1027.505
182.169	25.363	1259.796	1026.153
183.183	25.285	1258.821	1024.822
184.198	25.425	1257.852	1024.743
185.213	25.430	1256.895	1023.901
186.227	25.353	1256.109	1022.729
187.242	25.379	1255.249	1022.089
188.256	25.398	1254.462	1021.462
189.271	25.479	1253.581	1021.117
190.286	25.323	1253.029	1019.689
191.300	25.426	1252.264	1019.563
192.315	25.335	1252.056	1018.783
193.329	25.411	1251.132	1018.373
194.344	25.530	1250.510	1018.450
195.359	25.474	1250.341	1017.909
196.373	25.401	1249.609	1016.808
197.388	25.255	1249.725	1015.986
198.402	25.345	1249.249	1016.018
199.417	25.389	1248.606	1015.654
200.432	25.470	1247.586	1015.193
201.446	25.415	1247.234	1014.508
202.461	25.447	1246.462	1013.966
203.475	25.379	1245.915	1013.050
204.490	25.451	1244.353	1012.097
205.504	25.451	1243.619	1011.409
206.519	25.510	1242.892	1011.063
207.534	25.587	1241.592	1010.345
208.548	25.604	1240.289	1009.294
209.563	25.457	1240.289	1008.380
210.577	25.470	1239.515	1007.733
211.592	25.503	1238.684	1007.154
212.607	25.481	1237.862	1006.273
213.621	25.480	1237.210	1005.648
214.636	25.437	1236.767	1004.959
215.650	25.589	1235.142	1004.395
216.665	25.582	1234.171	1003.482
217.680	25.528	1233.356	1002.428
218.694	25.573	1232.898	1002.219
219.709	25.571	1231.861	1001.272
220.723	25.560	1231.075	1000.486
221.738	25.447	1230.646	999.418
222.753	25.502	1230.002	999.112
223.767	25.557	1229.465	998.895
224.782	25.584	1228.898	998.498
225.796	25.600	1228.325	998.032
226.811	25.605	1227.792	997.539
227.826	25.645	1227.291	997.261
228.840	25.525	1226.916	996.208
229.855	25.521	1225.925	995.289
230.869	25.663	1224.948	995.193
231.884	25.651	1224.401	994.594
232.899	25.587	1223.530	993.446
233.913	25.652	1222.951	993.249
234.928	25.731	1222.409	993.156
235.942	25.704	1222.062	992.638
236.957	25.673	1221.652	992.046
237.972	25.612	1220.767	990.904
238.986	25.728	1219.687	990.577
240.001	25.761	1219.180	990.258
241.015	25.710	1218.771	989.556
242.030	25.745	1217.705	988.800
243.045	25.722	1217.264	988.223
244.059	25.898	1216.032	988.100
245.074	25.772	1215.568	986.947
246.088	25.830	1214.491	986.303
247.103	25.831	1213.602	985.501
248.117	25.735	1213.004	984.404
249.132	25.874	1211.990	984.249
250.147	25.863	1211.437	983.657
251.161	25.957	1210.629	983.426
252.176	25.792	1210.303	982.176
253.190	25.881	1209.746	982.118
254.205	25.883	1208.761	981.244
255.220	25.849	1208.041	980.389
256.234	25.888	1207.923	980.417
257.249	25.945	1206.570	979.541
258.263	25.876	1206.728	979.206
259.278	25.950	1206.004	978.936
260.293	25.943	1205.611	978.490
261.307	25.956	1204.744	977.774
262.322	26.003	1204.268	977.555
263.336	25.919	1203.877	976.698
264.351	25.887	1203.180	975.872
265.366	25.990	1201.997	975.384
266.380	25.957	1201.860	975.006
267.395	25.854	1201.212	973.839
268.409	25.840	1200.833	973.366
269.424	25.976	1199.812	973.189
270.439	25.971	1199.051	972.456
271.453	26.051	1198.643	972.475
272.468	25.901	1198.047	971.095
273.482	25.921	1197.325	970.534
274.497	26.015	1196.935	970.638
275.512	26.038	1196.519	970.336
276.526	26.120	1195.426	969.803
277.541	26.036	1194.668	968.651
278.555	26.105	1194.199	968.557
279.570	25.962	1193.789	967.369
280.585	25.985	1192.921	966.704
281.599	26.079	1191.723	966.153
282.614	26.113	1190.742	965.456
283.628	26.009	1189.918	964.144
284.643	26.146	1189.214	964.222
285.657	26.092	1188.638	963.377
286.672	26.120	1187.619	962.617
287.687	26.005	1187.044	961.454
288.701	26.041	1185.964	960.688
289.716	26.229	1185.124	960.921
290.730	26.138	1184.648	959.966
291.745	26.131	1184.468	959.695
292.760	26.242	1183.666	959.552
293.774	26.222	1182.956	958.786
294.789	26.195	1182.547	958.228
295.803	26.246	1181.623	957.664
296.818	26.186	1180.939	956.708
297.833	26.220	1180.745	956.642
298.847	26.229	1180.155	956.129
299.862	26.235	1179.112	955.234
300.876	26.328	1178.101	954.820
301.891	26.319	1178.091	954.680
302.906	26.383	1177.012	954.060
303.920	26.365	1176.462	953.434
304.935	26.332	1175.593	952.471
305.949	26.335	1174.935	951.870
306.964	26.371	1174.462	951.592
307.979	26.324	1173.856	950.768
308.993	26.421	1173.563	950.957
310.008	26.456	1172.118	949.888
311.022	26.446	1171.515	949.260
312.037	26.346	1171.102	948.317
313.052	26.394	1170.607	948.086
314.066	26.334	1169.429	946.730
315.081	26.289	1168.883	945.969
316.095	26.275	1168.333	945.370
317.110	26.379	1167.524	945.173
318.125	26.447	1167.042	945.057
319.139	26.432	1166.134	944.159
320.154	26.494	1165.687	944.034
321.168	26.503	1165.277	943.667
322.183	26.494	1164.220	942.681
323.197	26.473	1163.592	941.980
324.212	26.504	1163.329	941.847
325.227	26.527	1163.079	941.677
326.241	26.459	1162.586	940.841
327.256	26.415	1161.347	939.527
328.270	26.456	1160.848	939.257
329.285	26.429	1160.086	938.416
330.300	26.533	1159.084	938.060
331.314	26.486	1158.468	937.233
332.329	26.548	1157.221	936.463
333.343	26.537	1156.778	935.966
334.358	26.598	1156.403	935.896
335.373	26.697	1155.278	935.413
336.387	26.705	1154.500	934.741
337.402	26.724	1154.053	934.395
338.416	26.606	1153.518	933.272
339.431	26.654	1152.857	932.900
340.446	26.847	1152.049	933.159
341.460	26.754	1151.400	932.069
342.475	26.741	1150.531	931.218
343.489	26.802	1149.456	930.581
344.504	26.743	1148.553	929.463
345.519	26.790	1148.028	929.196
346.533	26.754	1147.275	928.318
347.548	26.782	1146.352	927.636
348.562	26.797	1145.665	927.075
349.577	26.790	1144.871	926.312
350.592	26.637	1144.102	924.828
351.606	26.753	1143.484	924.839
352.621	26.825	1142.683	924.475
353.635	26.802	1142.489	924.118
354.650	26.824	1141.993	923.750
355.665	26.750	1141.561	922.940
356.679	26.866	1140.487	922.581
357.694	26.913	1140.002	922.347
358.708	26.965	1138.982	921.702
359.723	26.882	1138.554	920.853
360.738	26.807	1138.336	920.218
361.752	26.943	1137.101	919.826
362.767	26.833	1136.975	919.086
363.781	26.899	1136.586	919.021
364.796	26.984	1135.643	918.608
365.810	26.935	1135.435	918.114
366.825	26.938	1134.452	917.249
367.840	26.917	1134.746	917.300
368.854	27.019	1133.816	916.982
369.869	26.945	1133.031	915.895
370.883	27.067	1132.322	915.853
371.898	27.138	1131.435	915.414
372.913	27.176	1130.569	914.822
373.927	27.064	1130.436	914.074
374.942	27.113	1129.755	913.686
375.956	27.152	1128.946	913.149
376.971	27.177	1128.670	912.969
377.986	27.072	1128.076	911.880
379.000	27.106	1127.513	911.513
380.015	27.221	1127.208	911.766
381.029	27.210	1126.010	910.658
382.044	27.162	1125.498	909.922
383.059	27.270	1124.560	909.624
384.073	27.148	1124.368	908.779
385.088	27.170	1123.483	908.093
386.102	27.204	1122.424	907.326
387.117	27.178	1121.940	906.724
388.132	27.195	1121.212	906.141
389.146	27.198	1120.204	905.264
390.161	27.075	1119.661	904.130
391.175	27.204	1119.346	904.438
392.190	27.298	1118.196	903.896
393.205	27.204	1117.693	902.945
394.219	27.360	1116.579	902.737
395.234	27.247	1116.314	901.883
396.248	27.320	1115.182	901.252
397.263	27.380	1113.971	900.489
398.278	27.485	1113.343	900.421
399.292	27.409	1113.364	899.980
400.307	27.433	1112.551	899.363
401.321	27.463	1111.749	898.783
402.336	27.340	1111.276	897.718
403.350	27.389	1110.821	897.512
404.365	27.347	1109.954	896.526
405.380	27.570	1109.008	896.778
406.394	27.466	1108.636	895.884
407.409	27.477	1107.711	895.114
408.423	27.431	1107.384	894.541
409.438	27.584	1106.924	894.844
410.453	27.509	1105.856	893.533
411.467	27.542	1105.092	892.997
412.482	27.505	1104.309	892.107
413.496	27.562	1103.747	891.854
414.511	27.568	1102.997	891.196
415.526	27.480	1102.739	890.478
416.540	27.477	1102.752	890.395
417.555	27.533	1101.940	889.934
418.569	27.608	1101.441	889.822
419.584	27.607	1101.276	889.604
420.599	27.630	1100.573	889.069
421.613	81.176	1288.868	1335.867
422.628	75.966	1316.318	1335.978
