DTS Sentinel unit serial number:	SN413079Multiplexer serial number:	ORYXHardware model number:	OX4-SRSoftware version number:	ORYX F/W v4.00 Oryx Data Collector v3.7.2.0data status	okinstallation	princeton_trtdifferential loss correction	single-endedforward channel	channel 2reverse channel	N/Adate	2019/09/12time	07:01:11forward acquisition time	60.00reverse acquisition time	0.00gamma	496.2192k internal	0.2324k external	0.2324temperature offset calibration	1.0063default loss term (dB/km)	0.3790temperature slope calibration	1.0000multiplexer offset coefficient	1.0000multiplexer slope coefficient	1.0000fibre end	0.00T internal ref (°C)	32.14T ext. ref 1 (°C)	1.60T ext. ref 2 (°C)	27.41length (m)	temperature (°C)	Stokes	anti-Stokes-747.200	800.000	0.084	0.265
-746.185	3.239	-0.267	0.196
-745.171	-200.000	0.018	0.098
-744.156	-83.422	-0.234	0.076
-743.142	-105.466	0.058	0.013
-742.127	-4.225	-0.327	0.229
-741.112	208.062	-0.107	0.169
-740.098	-103.677	-0.227	0.054
-739.083	312.579	-0.105	-0.198
-738.069	42.639	0.126	0.116
-737.054	60.984	-0.151	-0.151
-736.039	-160.343	-0.037	0.002
-735.025	116.853	-0.193	-0.240
-734.010	800.000	-0.017	0.066
-732.996	-200.000	-0.029	-0.443
-731.981	0.830	-0.235	-0.170
-730.966	-200.000	-0.014	0.297
-729.952	561.727	-0.122	0.298
-728.937	800.000	0.070	-0.287
-727.923	-200.000	-0.065	-0.305
-726.908	-186.810	-0.296	0.004
-725.894	-143.161	0.253	-0.025
-724.879	-133.115	-0.208	0.027
-723.864	-89.077	-0.218	-0.065
-722.850	255.339	-0.092	0.159
-721.835	558.844	0.122	0.296
-720.821	186.700	0.105	-0.157
-719.806	-101.718	0.170	-0.041
-718.791	-200.000	-0.026	0.391
-717.777	-175.399	-0.202	-0.006
-716.762	-130.839	-0.182	0.025
-715.748	-177.689	0.191	0.005
-714.733	-146.614	-0.359	0.031
-713.718	-35.415	-0.430	-0.236
-712.704	172.828	-0.022	0.032
-711.689	-37.956	0.176	-0.094
-710.675	105.353	-0.130	0.155
-709.660	32.100	0.118	-0.102
-708.645	-108.481	-0.172	0.037
-707.631	-200.000	-0.043	-0.362
-706.616	-153.858	0.212	-0.015
-705.602	-75.372	-0.238	-0.085
-704.587	13.609	-0.027	-0.021
-703.572	166.230	-0.273	-0.389
-702.558	-109.556	-0.215	-0.046
-701.543	251.932	-0.029	0.049
-700.529	-103.720	-0.325	-0.077
-699.514	583.907	0.046	-0.114
-698.499	-95.183	0.267	-0.073
-697.485	-130.753	-0.181	-0.025
-696.470	-200.000	0.029	-0.133
-695.456	170.738	-0.037	0.053
-694.441	-146.416	-0.149	0.013
-693.426	52.698	0.147	0.142
-692.412	187.160	-0.205	-0.308
-691.397	-124.671	0.307	-0.048
-690.383	107.214	0.060	0.071
-689.368	297.806	0.082	0.151
-688.354	800.000	-0.112	0.353
-687.339	-92.085	0.009	0.003
-686.324	-182.322	-0.144	0.003
-685.310	-200.000	-0.000	-0.071
-684.295	-190.523	0.125	0.001
-683.281	-93.026	-0.084	-0.024
-682.266	-200.000	-0.049	0.344
-681.251	350.923	-0.097	0.193
-680.237	-200.000	0.051	0.292
-679.222	33.436	-0.094	-0.082
-678.208	800.000	-0.122	0.340
-677.193	100.153	-0.205	0.239
-676.178	-102.288	0.041	0.010
-675.164	155.765	0.113	-0.157
-674.149	227.591	-0.167	0.274
-673.135	85.121	0.390	0.431
-672.120	31.695	-0.054	0.047
-671.105	-38.578	0.113	0.060
-670.091	-66.240	-0.303	-0.122
-669.076	14.952	-0.306	0.241
-668.062	230.665	0.065	-0.107
-667.047	-108.472	-0.316	0.068
-666.032	729.206	-0.074	0.199
-665.018	791.743	0.158	-0.436
-664.003	74.669	0.035	-0.037
-662.989	-200.000	0.055	-0.288
-661.974	-200.000	-0.048	0.364
-660.959	-27.384	-0.137	-0.080
-659.945	-200.000	-0.058	0.428
-658.930	-167.730	-0.106	-0.004
-657.916	111.731	0.045	0.055
-656.901	10.759	0.196	0.150
-655.886	-97.738	0.160	0.042
-654.872	33.576	-0.057	0.050
-653.857	280.099	-0.150	-0.270
-652.843	150.089	-0.031	-0.043
-651.828	60.014	0.236	0.235
-650.814	199.557	0.082	-0.126
-649.799	717.703	0.168	-0.449
-648.784	67.290	-0.262	-0.268
-647.770	-23.115	0.071	0.043
-646.755	-39.415	0.256	0.135
-645.741	549.892	0.052	0.127
-644.726	-200.000	0.006	0.052
-643.711	-105.028	-0.115	0.027
-642.697	-110.605	0.339	-0.071
-641.682	-48.943	-0.137	-0.066
-640.668	-96.730	0.297	0.079
-639.653	-200.000	-0.001	0.145
-638.638	800.000	-0.040	0.114
-637.624	-73.832	-0.233	0.085
-636.609	44.854	-0.040	0.037
-635.595	-104.772	-0.147	0.034
-634.580	20.223	-0.170	0.138
-633.565	669.580	0.096	-0.251
-632.551	496.579	0.128	-0.297
-631.536	630.423	0.028	-0.072
-630.522	139.370	0.104	-0.138
-629.507	-88.575	-0.289	0.087
-628.492	-200.000	0.015	-0.138
-627.478	-99.335	-0.043	-0.011
-626.463	-12.964	0.105	0.069
-625.449	800.000	0.074	-0.288
-624.434	324.462	0.092	-0.177
-623.419	-138.790	-0.227	-0.025
-622.405	-200.000	-0.005	-0.074
-621.390	589.654	0.096	0.237
-620.376	188.264	0.121	0.182
-619.361	-200.000	0.012	0.073
-618.346	-152.562	-0.310	0.022
-617.332	-200.000	0.023	-0.162
-616.317	-200.000	-0.003	-0.166
-615.303	205.369	0.107	0.167
-614.288	-75.840	0.209	-0.074
-613.273	186.403	-0.220	0.329
-612.259	233.507	0.095	-0.157
-611.244	75.989	0.131	-0.139
-610.230	355.058	0.061	-0.121
-609.215	94.176	-0.041	0.047
-608.201	11.129	-0.367	0.282
-607.186	-53.483	-0.271	-0.125
-606.171	-134.006	0.313	-0.039
-605.157	-200.000	0.039	0.348
-604.142	80.530	0.033	-0.036
-603.128	81.620	-0.128	-0.139
-602.113	129.029	-0.086	-0.110
-601.098	126.237	0.152	0.194
-600.084	-93.592	0.233	0.065
-599.069	112.015	0.222	-0.270
-598.055	97.774	0.093	-0.108
-597.040	-38.699	-0.051	-0.027
-596.025	-200.000	-0.034	0.183
-595.011	115.351	0.119	-0.146
-593.996	-200.000	-0.073	0.355
-592.982	-129.155	-0.082	-0.012
-591.967	184.136	0.088	0.131
-590.952	-200.000	0.016	-0.178
-589.938	-200.000	0.006	-0.041
-588.923	129.740	-0.040	-0.051
-587.909	-58.218	0.102	0.044
-586.894	-185.363	0.267	-0.004
-585.879	800.000	0.011	0.032
-584.865	137.619	0.054	0.071
-583.850	-29.645	0.298	0.171
-582.836	800.000	-0.035	-0.122
-581.821	-117.445	0.308	0.056
-580.806	800.000	0.020	0.087
-579.792	348.584	0.132	-0.262
-578.777	46.949	-0.212	-0.198
-577.763	113.520	-0.288	0.351
-576.748	168.390	0.074	-0.106
-575.733	105.699	-0.107	0.127
-574.719	-81.540	-0.133	0.044
-573.704	102.919	-0.068	-0.080
-572.690	-43.098	-0.091	0.046
-571.675	-128.455	0.229	0.033
-570.661	3.463	-0.139	-0.102
-569.646	13.044	-0.176	-0.137
-568.631	221.308	0.095	0.152
-567.617	223.014	-0.104	-0.168
-566.602	51.163	0.173	-0.165
-565.588	207.489	0.101	0.158
-564.573	789.821	-0.078	0.215
-563.558	-60.993	0.342	0.145
-562.544	-61.537	0.039	-0.016
-561.529	-200.000	-0.047	0.267
-560.515	-174.447	0.143	-0.004
-559.500	800.000	-0.046	-0.191
-558.485	209.531	0.133	-0.209
-557.471	-29.983	-0.176	0.100
-556.456	800.000	0.070	0.237
-555.442	-91.032	-0.144	0.041
-554.427	-59.291	0.168	-0.072
-553.412	-92.983	-0.280	0.078
-552.398	-0.510	-0.326	-0.232
-551.383	-16.153	0.140	-0.089
-550.369	281.802	-0.043	0.077
-549.354	800.000	-0.016	-0.053
-548.339	800.000	0.066	0.216
-547.325	800.000	0.060	0.262
-546.310	-200.000	0.029	-0.180
-545.296	-133.053	-0.115	0.015
-544.281	104.385	-0.031	0.037
-543.266	275.837	0.049	0.088
-542.252	-39.772	-0.194	-0.101
-541.237	375.446	0.112	0.229
-540.223	-30.468	-0.231	-0.131
-539.208	73.677	-0.357	-0.375
-538.193	94.485	-0.287	-0.326
-537.179	-153.080	-0.073	0.005
-536.164	-133.409	0.157	0.020
-535.150	525.738	0.168	-0.396
-534.135	100.569	0.265	-0.308
-533.121	-44.132	0.195	-0.098
-532.106	80.934	-0.158	-0.171
-531.091	148.970	0.297	-0.402
-530.077	800.000	-0.051	-0.159
-529.062	-84.049	0.322	-0.103
-528.048	-13.860	-0.167	-0.108
-527.033	414.221	-0.116	0.246
-526.018	-35.214	-0.078	0.042
-525.004	-63.453	-0.377	0.155
-523.989	122.131	0.162	-0.203
-522.975	-31.543	0.251	0.141
-521.960	-28.987	-0.224	0.129
-520.945	-200.000	0.003	-0.147
-519.931	422.778	0.077	-0.165
-518.916	-45.678	-0.288	-0.142
-517.902	26.647	0.111	-0.093
-516.887	800.000	-0.055	0.179
-515.872	549.291	0.075	-0.179
-514.858	504.413	0.062	0.143
-513.843	-200.000	-0.004	-0.308
-512.829	-67.268	-0.143	-0.056
-511.814	-33.143	-0.067	0.037
-510.799	109.635	0.213	-0.256
-509.785	800.000	-0.087	0.269
-508.770	-200.000	-0.006	-0.163
-507.756	-140.110	-0.151	0.016
-506.741	235.136	0.121	0.199
-505.726	800.000	0.043	-0.159
-504.712	-5.772	0.083	0.057
-503.697	-38.533	0.113	0.060
-502.683	18.259	0.129	-0.103
-501.668	-25.491	-0.252	-0.149
-500.653	-85.261	-0.196	-0.061
-499.639	-43.658	0.175	-0.088
-498.624	-96.524	-0.165	0.044
-497.610	220.289	0.127	-0.204
-496.595	46.523	-0.173	-0.160
-495.581	102.939	0.060	0.070
-494.566	64.333	-0.298	0.300
-493.551	133.051	-0.100	0.129
-492.537	-47.002	0.140	0.068
-491.522	-113.880	0.113	0.022
-490.508	159.487	-0.121	0.169
-489.493	756.930	0.027	0.073
-488.478	105.022	-0.163	-0.192
-487.464	800.000	0.046	0.135
-486.449	-200.000	0.020	-0.258
-485.435	-139.636	-0.160	-0.017
-484.420	-42.153	-0.433	0.221
-483.405	507.687	-0.090	0.210
-482.391	-32.642	-0.308	-0.171
-481.376	-200.000	0.024	-0.134
-480.362	800.000	0.056	0.233
-479.347	-22.445	-0.021	0.012
-478.332	-110.202	0.255	-0.053
-477.318	-121.976	0.263	-0.043
-476.303	-23.345	-0.259	-0.156
-475.289	404.024	-0.070	0.147
-474.274	-78.777	0.392	0.134
-473.259	800.000	-0.028	-0.113
-472.245	-47.397	0.259	-0.126
-471.230	75.120	-0.198	-0.209
-470.216	-200.000	0.027	0.277
-469.201	-103.008	-0.028	-0.007
-468.186	20.394	-0.316	-0.255
-467.172	-76.912	0.121	-0.042
-466.157	-200.000	0.014	-0.203
-465.143	267.914	0.121	0.212
-464.128	-200.000	-0.019	-0.152
-463.113	125.562	-0.087	-0.110
-462.099	306.830	0.011	0.020
-461.084	-55.918	0.255	0.114
-460.070	-120.439	-0.295	-0.050
-459.055	157.827	-0.064	-0.089
-458.040	68.269	-0.104	-0.106
-457.026	-200.000	-0.128	0.605
-456.011	800.000	-0.051	0.211
-454.997	-74.031	0.172	-0.062
-453.982	-200.000	-0.065	0.308
-452.968	8.867	0.064	-0.048
-451.953	-92.491	0.160	0.045
-450.938	18.097	-0.092	0.073
-449.924	-82.026	0.262	0.085
-448.909	-3.468	0.122	-0.085
-447.895	-105.726	-0.172	-0.039
-446.880	186.285	-0.078	-0.115
-445.865	-200.000	-0.016	-0.114
-444.851	412.025	-0.132	-0.281
-443.836	195.241	0.172	-0.261
-442.822	-200.000	-0.034	-0.232
-441.807	653.046	-0.047	-0.119
-440.792	-200.000	0.049	0.343
-439.778	-200.000	-0.039	0.192
-438.763	-200.000	0.027	0.309
-437.749	-70.267	0.303	-0.115
-436.734	795.889	-0.060	-0.166
-435.719	-76.973	-0.207	-0.072
-434.705	37.070	-0.223	-0.197
-433.690	800.000	-0.042	-0.118
-432.676	247.220	0.195	-0.328
-431.661	-200.000	-0.211	-0.000
-430.646	-43.044	0.410	0.207
-429.632	-142.817	-0.150	0.015
-428.617	-189.087	0.251	0.003
-427.603	81.063	0.223	0.240
-426.588	165.827	0.086	-0.122
-425.573	8.875	0.182	0.137
-424.559	-200.000	0.007	0.155
-423.544	28.106	-0.070	-0.059
-422.530	-86.366	-0.156	0.048
-421.515	60.419	0.110	-0.108
-420.500	419.552	-0.036	0.078
-419.486	-4.589	0.433	-0.298
-418.471	118.609	0.081	0.100
-417.457	-200.000	0.043	-0.235
-416.442	-71.485	-0.097	0.036
-415.428	-96.082	-0.021	-0.006
-414.413	-27.050	0.266	-0.154
-413.398	681.088	0.096	0.249
-412.384	-200.000	0.004	0.225
-411.369	9.143	-0.118	-0.089
-410.355	443.984	0.077	-0.168
-409.340	-1.976	-0.290	0.203
-408.325	129.480	-0.077	0.098
-407.311	-200.000	0.043	0.232
-406.296	-41.534	-0.236	-0.121
-405.282	93.508	0.055	-0.062
-404.267	-200.000	0.099	-0.445
-403.252	-130.425	-0.436	0.059
-402.238	-66.954	0.223	0.088
-401.223	-200.000	-0.053	-0.281
-400.209	10.904	-0.181	-0.138
-399.194	-96.972	-0.529	-0.138
-398.179	-129.128	0.116	-0.016
-397.165	-7.416	0.223	0.150
-396.150	-139.591	0.254	0.027
-395.136	111.248	0.139	0.167
-394.121	-0.810	-0.200	0.141
-393.106	10.540	-0.071	-0.054
-392.092	-200.000	0.037	-0.437
-391.077	656.229	-0.111	0.283
-390.063	-136.693	-0.110	0.013
-389.048	249.887	-0.039	0.066
-388.033	-200.000	0.002	0.023
-387.019	-44.740	0.193	-0.096
-386.004	-27.483	0.148	0.086
-384.990	-148.832	-0.198	-0.016
-383.975	800.000	-0.086	-0.273
-382.960	-200.000	0.152	-0.000
-381.946	-200.000	-0.019	-0.414
-380.931	95.453	0.082	-0.093
-379.917	255.869	-0.098	0.167
-378.902	-22.024	0.225	0.136
-377.888	-200.000	0.050	-0.223
-376.873	665.587	0.031	-0.080
-375.858	-200.000	0.043	-0.278
-374.844	9.083	-0.143	0.107
-373.829	723.257	-0.137	0.363
-372.815	800.000	-0.075	0.250
-371.800	-104.098	-0.187	-0.043
-370.785	498.495	-0.086	0.197
-369.771	800.000	-0.051	-0.154
-368.756	572.709	0.070	-0.170
-367.742	639.056	-0.115	-0.291
-366.727	-10.189	0.184	0.122
-365.712	-117.640	0.345	-0.062
-364.698	358.618	-0.114	0.226
-363.683	-43.026	-0.136	0.069
-362.669	45.287	0.127	-0.116
-361.654	800.000	-0.123	0.506
-360.639	800.000	0.044	-0.161
-359.625	-94.136	-0.171	-0.047
-358.610	-10.505	0.181	-0.119
-357.596	21.427	0.165	0.133
-356.581	4.703	-0.381	-0.278
-355.566	-93.563	0.351	-0.096
-354.552	-200.000	0.007	-0.115
-353.537	64.132	-0.210	-0.210
-352.523	-200.000	0.031	-0.174
-351.508	10.283	-0.122	0.093
-350.493	-183.253	0.335	0.006
-349.479	80.630	-0.106	0.114
-348.464	237.820	-0.214	0.352
-347.450	-159.924	-0.228	-0.012
-346.435	-152.851	0.330	0.023
-345.420	-200.000	-0.019	-0.154
-344.406	-59.779	-0.063	0.027
-343.391	515.333	-0.062	0.145
-342.377	-147.950	-0.128	-0.011
-341.362	-194.861	0.331	0.003
-340.348	111.589	-0.174	-0.208
-339.333	89.704	0.120	0.133
-338.318	380.755	0.057	-0.117
-337.304	52.318	0.138	0.131
-336.289	-47.518	-0.179	-0.086
-335.275	426.769	-0.094	0.202
-334.260	23.043	0.150	-0.122
-333.245	-200.000	0.028	0.270
-332.231	541.958	0.043	0.102
-331.216	-200.000	-0.007	0.257
-330.202	33.190	-0.190	0.163
-329.187	800.000	-0.086	-0.317
-328.172	71.460	-0.085	-0.087
-327.158	-200.000	0.022	-0.235
-326.143	353.727	-0.164	0.322
-325.129	800.000	-0.106	0.435
-324.114	-105.359	-0.185	-0.042
-323.099	562.390	0.068	0.162
-322.085	-200.000	-0.029	0.334
-321.070	155.721	-0.203	-0.278
-320.056	744.313	-0.122	-0.326
-319.041	-139.853	0.234	-0.025
-318.026	29.117	-0.189	0.160
-317.012	-181.066	-0.245	-0.005
-315.997	-40.772	-0.180	-0.092
-314.983	-96.552	0.242	0.063
-313.968	800.000	-0.058	0.228
-312.953	-165.986	-0.118	-0.005
-311.939	-90.760	-0.270	0.077
-310.924	800.000	-0.082	-0.283
-309.910	1.550	0.201	-0.144
-308.895	-17.635	0.177	0.111
-307.880	83.381	0.166	0.180
-306.866	258.227	-0.074	0.127
-305.851	-200.000	0.007	-0.380
-304.837	-100.740	-0.220	0.054
-303.822	800.000	-0.081	-0.279
-302.807	-200.000	-0.054	0.268
-301.793	482.025	0.051	0.116
-300.778	-107.621	-0.289	0.063
-299.764	128.217	0.211	0.267
-298.749	136.151	0.105	-0.135
-297.735	101.385	-0.203	0.234
-296.720	-43.656	-0.082	0.041
-295.705	-127.081	-0.259	-0.038
-294.691	46.808	-0.241	0.222
-293.676	58.187	-0.304	-0.295
-292.662	166.373	-0.230	0.324
-291.647	111.783	0.218	-0.261
-290.632	-120.387	-0.101	-0.017
-289.618	66.071	0.122	-0.122
-288.603	40.900	-0.195	0.174
-287.589	-1.359	0.138	-0.096
-286.574	92.425	0.189	-0.212
-285.559	-77.551	-0.170	0.058
-284.545	800.000	0.044	-0.178
-283.530	-12.625	0.199	0.129
-282.516	379.279	0.064	-0.130
-281.501	800.000	0.038	-0.122
-280.486	-200.000	-0.082	0.480
-279.472	-200.000	-0.058	0.299
-278.457	453.113	0.100	0.220
-277.443	-133.853	-0.232	0.029
-276.428	324.137	0.101	0.192
-275.413	-200.000	0.019	-0.445
-274.399	8.819	-0.191	0.143
-273.384	157.940	0.110	-0.151
-272.370	-200.000	-0.090	-0.417
-271.355	-200.000	-0.058	0.316
-270.340	-173.913	0.222	-0.006
-269.326	280.569	-0.035	0.062
-268.311	-200.000	-0.000	-0.116
-267.297	-41.644	-0.312	0.159
-266.282	281.668	0.208	0.369
-265.267	-51.480	0.182	0.084
-264.253	394.133	-0.043	-0.089
-263.238	-121.967	-0.164	-0.027
-262.224	5.662	0.276	-0.202
-261.209	-200.000	0.035	-0.306
-260.195	317.856	0.275	0.515
-259.180	-200.000	0.072	0.426
-258.165	233.275	0.132	-0.214
-257.151	523.818	0.089	-0.208
-256.136	-38.381	0.113	-0.059
-255.122	72.154	0.200	-0.207
-254.107	358.036	-0.072	0.143
-253.092	-37.154	-0.179	0.095
-252.078	207.999	-0.074	0.114
-251.063	-183.467	0.134	0.002
-250.049	-25.736	0.063	-0.037
-249.034	-200.000	0.033	-0.256
-248.019	672.133	-0.097	0.250
-247.005	-21.289	0.099	0.060
-245.990	319.991	0.075	0.142
-244.976	-117.465	-0.037	-0.007
-243.961	-107.018	-0.318	0.070
-242.946	-200.000	0.052	-0.229
-241.932	-137.070	-0.249	0.028
-240.917	800.000	-0.079	0.291
-239.903	-22.518	0.283	-0.170
-238.888	-200.000	0.016	-0.248
-237.873	104.155	0.211	0.245
-236.859	-63.129	0.467	0.191
-235.844	-85.932	-0.306	0.094
-234.830	800.000	-0.070	-0.219
-233.815	-84.028	0.284	-0.089
-232.800	-140.450	0.399	0.041
-231.786	-175.604	-0.228	0.006
-230.771	471.284	-0.142	0.317
-229.757	-118.530	0.247	0.043
-228.742	-200.000	-0.229	-0.001
-227.727	-57.616	0.050	0.022
-226.713	262.958	0.079	0.136
-225.698	71.173	0.191	0.196
-224.684	-200.000	-0.014	0.294
-223.669	182.614	0.151	0.220
-222.655	800.000	0.130	-0.405
-221.640	-76.732	0.359	-0.124
-220.625	800.000	-0.042	0.131
-219.611	-108.410	-0.121	0.026
-218.596	-118.063	0.115	-0.020
-217.582	-36.612	0.120	0.064
-216.567	110.342	-0.020	0.023
-215.552	-70.102	-0.060	0.023
-214.538	437.132	0.140	0.301
-213.523	800.000	-0.079	0.220
-212.509	481.172	0.120	0.268
-211.494	247.811	-0.071	0.119
-210.479	758.695	0.038	0.102
-209.465	-57.641	0.188	-0.081
-208.450	-200.000	-0.030	-0.203
-207.436	79.983	0.253	-0.269
-206.421	268.188	0.110	0.190
-205.406	73.131	0.126	0.130
-204.392	-35.493	-0.130	-0.070
-203.377	605.515	-0.115	0.283
-202.363	137.905	0.092	0.119
-201.348	-177.943	-0.332	-0.008
-200.333	800.000	0.036	0.103
-199.319	23.182	-0.275	-0.223
-198.304	-81.249	0.173	0.056
-197.290	-16.145	0.157	0.099
-196.275	-200.000	0.084	-0.367
-195.260	545.656	-0.111	0.263
-194.246	-200.000	-0.003	-0.268
-193.231	22.821	0.209	-0.169
-192.217	485.026	-0.020	-0.044
-191.202	125.367	0.063	0.078
-190.187	482.244	0.155	0.347
-189.173	-80.668	-0.334	0.110
-188.158	-105.380	0.365	-0.082
-187.144	800.000	-0.045	-0.146
-186.129	-42.963	0.103	-0.052
-185.114	-200.000	0.030	-0.150
-184.100	198.342	-0.166	-0.250
-183.085	-151.593	-0.142	-0.010
-182.071	-4.298	0.287	0.196
-181.056	800.000	0.015	0.042
-180.042	265.263	-0.067	0.115
-179.027	-6.759	0.037	-0.025
-178.012	-123.739	-0.499	-0.078
-176.998	723.182	-0.081	0.212
-175.983	-102.388	-0.052	0.012
-174.969	213.220	0.085	-0.132
-173.954	-200.000	-0.074	0.330
-172.939	-200.000	-0.012	0.196
-171.925	-200.000	0.005	0.163
-170.910	-133.827	0.231	0.028
-169.896	800.000	0.043	-0.129
-168.881	70.079	-0.154	-0.157
-167.866	283.591	-0.121	-0.214
-166.852	74.277	0.248	0.257
-165.837	-135.882	-0.255	-0.030
-164.823	-93.931	0.193	0.052
-163.808	345.506	-0.058	-0.112
-162.793	75.997	-0.314	0.328
-161.779	53.749	-0.131	0.124
-160.764	349.265	-0.116	-0.226
-159.750	-73.330	0.142	0.051
-158.735	696.985	0.068	-0.176
-157.720	-118.174	-0.199	0.035
-156.706	85.947	0.182	-0.198
-155.691	218.861	0.170	0.268
-154.677	278.085	0.029	-0.050
-153.662	57.386	-0.247	-0.238
-152.647	-63.172	0.110	0.045
-151.633	-200.000	0.084	-0.371
-150.618	-39.464	-0.111	-0.057
-149.604	800.000	0.045	-0.132
-148.589	-50.321	-0.041	-0.019
-147.574	-107.919	-0.309	0.066
-146.560	470.164	-0.093	-0.206
-145.545	314.301	-0.096	0.179
-144.531	21.551	-0.382	0.307
-143.516	-37.289	0.366	0.193
-142.502	-152.389	-0.124	0.009
-141.487	-200.000	0.058	0.361
-140.472	249.084	0.070	0.117
-139.458	212.240	0.256	-0.398
-138.443	-200.000	0.033	-0.245
-137.429	-88.038	0.161	-0.048
-136.414	-200.000	-0.019	-0.246
-135.399	16.291	0.324	-0.252
-134.385	-200.000	-0.011	0.199
-133.370	-77.640	-0.035	0.012
-132.356	5.857	-0.129	0.094
-131.341	108.189	-0.062	-0.073
-130.326	-109.573	0.289	0.060
-129.312	261.637	-0.037	0.064
-128.297	424.956	-0.100	-0.211
-127.283	52.331	0.017	0.016
-126.268	-200.000	0.013	0.168
-125.253	-92.555	-0.267	0.074
-124.239	-139.349	-0.193	-0.020
-123.224	278.778	0.069	-0.121
-122.210	64.889	-0.084	0.083
-121.195	-200.000	-0.036	-0.380
-120.180	-200.000	-0.010	0.234
-119.166	60.298	-0.212	0.207
-118.151	800.000	-0.026	-0.078
-117.137	-92.265	-0.082	-0.023
-116.122	176.224	-0.096	0.138
-115.107	-49.708	0.240	0.112
-114.093	-68.596	-0.201	-0.077
-113.078	142.683	0.175	0.230
-112.064	-5.729	-0.166	0.112
-111.049	-19.301	0.006	0.004
-110.034	450.416	-0.093	0.202
-109.020	272.125	-0.039	0.068
-108.005	180.173	0.115	0.167
-106.991	-93.459	0.192	0.052
-105.976	-200.000	-0.034	-0.223
-104.962	-200.000	-0.055	-0.341
-103.947	-91.264	-0.122	0.034
-102.932	45.030	0.070	-0.063
-101.918	-200.000	0.056	-0.277
-100.903	394.859	0.139	0.284
-99.889	561.457	-0.135	0.322
-98.874	42.042	-0.254	0.227
-97.859	77.912	0.315	-0.331
-96.845	394.140	0.014	0.029
-95.830	121.806	-0.218	-0.267
-94.816	-49.536	-0.056	-0.026
-93.801	303.707	0.059	-0.108
-92.786	-29.668	0.256	0.144
-91.772	-11.558	-0.137	0.089
-90.757	-138.316	0.329	-0.036
-89.743	-128.864	-0.319	-0.044
-88.728	674.009	0.074	0.189
-87.713	28.017	0.060	-0.050
-86.699	-200.000	-0.011	-0.181
-85.684	-2.637	0.276	0.190
-84.670	-179.758	0.081	-0.002
-83.655	44.093	-0.323	0.291
-82.640	800.000	0.074	-0.271
-81.626	-192.347	0.419	0.004
-80.611	399.528	0.162	0.334
-79.597	139.547	0.089	-0.115
-78.582	122.871	0.074	0.091
-77.567	629.122	0.036	-0.089
-76.553	-114.406	-0.196	0.037
-75.538	-103.575	0.059	0.014
-74.524	-48.556	-0.103	-0.049
-73.509	800.000	-0.082	0.263
-72.494	-124.477	0.424	0.065
-71.480	-96.455	-0.415	-0.108
-70.465	76.526	0.158	0.165
-69.451	482.272	-0.054	0.122
-68.436	-66.949	0.487	-0.189
-67.422	329.536	-0.112	0.211
-66.407	19.640	0.176	0.139
-65.392	-117.561	0.232	0.041
-64.378	63.423	0.073	0.072
-63.363	49.969	-0.086	0.080
-62.349	739.557	0.076	0.201
-61.334	110.171	-0.827	-0.976
-60.319	577.961	0.229	0.551
-59.305	-200.000	-0.093	-1.032
-58.290	425.502	0.516	1.092
-57.276	538.425	0.702	1.641
-56.261	-200.000	96.015	593.581
-55.246	567.937	1373.350	3278.143
-54.232	160.143	2560.060	3507.002
-53.217	106.789	2270.970	2648.715
-52.203	41.617	1897.393	1688.591
-51.188	35.488	1686.856	1454.892
-50.173	32.826	1642.685	1397.067
-49.159	50.270	1689.314	1567.987
-48.144	51.853	1705.333	1594.671
-47.130	35.005	1666.157	1433.201
-46.115	32.258	1652.030	1400.561
-45.100	32.116	1647.159	1395.318
-44.086	32.025	1644.728	1392.530
-43.071	32.053	1642.079	1390.439
-42.057	32.026	1639.380	1387.895
-41.042	32.075	1637.670	1386.759
-40.027	32.091	1635.444	1384.932
-39.013	32.037	1633.810	1383.097
-37.998	32.035	1632.262	1381.720
-36.984	32.077	1630.734	1380.679
-35.969	32.142	1629.501	1380.060
-34.954	32.191	1627.900	1379.008
-33.940	32.143	1625.908	1376.915
-32.925	32.063	1624.655	1375.213
-31.911	32.146	1622.552	1373.982
-30.896	32.056	1620.967	1371.931
-29.881	32.049	1619.357	1370.459
-28.867	32.179	1616.692	1369.098
-27.852	32.134	1615.598	1367.792
-26.838	32.092	1614.604	1366.585
-25.823	32.098	1613.123	1365.321
-24.809	32.182	1611.728	1364.697
-23.794	32.205	1609.871	1363.241
-22.779	32.186	1609.100	1362.394
-21.765	32.194	1607.127	1360.730
-20.750	32.145	1605.733	1359.142
-19.736	32.182	1604.680	1358.459
-18.721	32.212	1603.006	1357.205
-17.706	32.233	1601.585	1356.100
-16.692	32.165	1599.908	1354.135
-15.677	32.098	1599.248	1353.042
-14.663	32.220	1597.391	1352.299
-13.648	32.237	1595.545	1350.799
-12.633	32.154	1593.646	1348.548
-11.619	32.168	1592.663	1347.759
-10.604	32.182	1591.252	1346.609
-9.590	32.140	1589.598	1344.859
-8.575	32.161	1588.828	1344.302
-7.560	32.187	1587.715	1343.493
-6.546	32.164	1586.999	1342.671
-5.531	32.174	1585.039	1341.030
-4.517	32.203	1583.954	1340.268
-3.502	32.202	1582.816	1339.245
-2.487	32.107	1581.612	1337.492
-1.473	32.008	1569.601	1326.588
-0.458	29.283	1550.743	1291.535
0.556	25.640	1551.613	1260.630
1.571	23.546	1574.571	1264.260
2.586	22.991	1588.429	1271.288
3.600	20.166	1533.281	1207.399
4.615	10.880	1421.946	1059.378
5.629	2.913	1357.782	961.754
6.644	1.764	1349.621	948.735
7.659	1.581	1348.071	946.420
8.673	1.523	1347.115	945.304
9.688	1.512	1345.064	943.716
10.702	1.241	1341.885	939.723
11.717	4.692	1349.055	966.121
12.731	14.894	1368.008	1043.571
13.746	23.408	1383.078	1108.468
14.761	25.925	1386.082	1126.527
15.775	26.260	1386.216	1128.632
16.790	26.292	1385.955	1128.518
17.804	26.393	1385.024	1128.287
18.819	26.572	1385.236	1129.478
19.834	26.724	1384.370	1129.622
20.848	26.763	1383.793	1129.292
21.863	26.758	1382.797	1128.350
22.877	26.711	1382.062	1127.354
23.892	26.796	1381.172	1127.059
24.907	26.690	1380.293	1125.583
25.921	26.687	1379.541	1124.849
26.936	26.749	1377.900	1123.796
27.950	26.753	1376.991	1122.985
28.965	26.752	1375.885	1121.976
29.980	26.832	1374.498	1121.243
30.994	26.768	1373.429	1119.872
32.009	26.770	1372.600	1119.109
33.023	26.802	1371.195	1118.062
34.038	26.859	1369.697	1117.093
35.053	26.801	1369.306	1116.317
36.067	26.841	1368.343	1115.683
37.082	26.745	1367.275	1114.124
38.096	26.790	1366.299	1113.507
39.111	26.806	1365.893	1113.176
40.126	26.711	1365.529	1112.197
41.140	26.728	1364.278	1111.181
42.155	26.742	1364.670	1111.491
43.169	26.739	1364.406	1111.155
44.184	26.697	1364.245	1110.673
45.199	26.744	1363.326	1110.109
46.213	26.761	1362.710	1109.616
47.228	26.759	1361.836	1108.794
48.242	26.928	1360.331	1108.503
49.257	26.782	1359.337	1106.705
50.271	26.704	1358.286	1105.271
51.286	26.683	1357.192	1104.159
52.301	26.786	1355.492	1103.306
53.315	26.754	1354.568	1102.259
54.330	26.669	1353.897	1101.099
55.344	26.797	1352.110	1100.328
56.359	26.753	1351.360	1099.350
57.374	26.675	1350.658	1098.212
58.388	26.705	1350.355	1098.046
59.403	26.727	1349.936	1097.745
60.417	26.824	1348.836	1097.338
61.432	26.762	1348.267	1096.405
62.447	26.666	1347.666	1095.239
63.461	26.679	1346.621	1094.369
64.476	26.723	1346.009	1094.040
65.490	26.694	1344.874	1092.848
66.505	26.833	1342.856	1091.945
67.520	26.759	1341.868	1090.602
68.534	26.808	1340.615	1089.784
69.549	26.789	1339.819	1088.926
70.563	26.778	1338.715	1087.865
71.578	26.776	1337.917	1087.111
72.593	26.786	1337.409	1086.658
73.607	26.770	1336.282	1085.554
74.622	26.778	1335.811	1085.120
75.636	26.717	1335.009	1084.007
76.651	26.805	1334.411	1083.951
77.666	26.721	1333.972	1083.001
78.680	26.775	1333.270	1082.653
79.695	26.694	1332.666	1081.583
80.709	26.795	1331.603	1081.227
81.724	26.723	1330.883	1080.119
82.739	26.876	1329.836	1080.083
83.753	26.792	1328.818	1078.665
84.768	26.722	1328.128	1077.590
85.782	26.702	1327.035	1076.494
86.797	26.637	1326.053	1075.214
87.812	26.809	1324.421	1074.812
88.826	26.901	1323.248	1074.313
89.841	26.773	1322.995	1073.253
90.855	26.775	1321.775	1072.181
91.870	26.839	1320.763	1071.642
92.884	26.876	1319.722	1070.925
93.899	26.848	1319.564	1070.534
94.914	26.806	1318.272	1069.145
95.928	26.809	1317.369	1068.334
96.943	26.818	1317.042	1068.027
97.957	26.738	1316.868	1067.319
98.972	26.855	1315.119	1066.497
99.987	26.808	1314.437	1065.571
101.001	26.781	1313.466	1064.534
102.016	26.724	1313.100	1063.811
103.030	26.819	1311.802	1063.218
104.045	26.807	1311.245	1062.605
105.060	26.853	1310.259	1061.981
106.074	26.802	1309.116	1060.659
107.089	26.803	1308.038	1059.698
108.103	26.807	1307.026	1058.807
109.118	26.747	1306.393	1057.853
110.133	26.791	1305.396	1057.210
111.147	26.852	1304.262	1056.549
112.162	26.885	1302.907	1055.552
113.176	26.911	1302.083	1054.942
114.191	26.927	1300.972	1054.043
115.206	26.939	1300.108	1053.321
116.220	26.852	1299.130	1051.928
117.235	26.878	1298.444	1051.428
118.249	26.961	1297.309	1050.900
119.264	26.878	1296.897	1049.990
120.279	26.884	1295.257	1048.608
121.293	27.005	1294.365	1048.490
122.308	26.972	1293.979	1047.896
123.322	26.976	1293.253	1047.239
124.337	27.032	1292.342	1046.731
125.352	26.946	1291.454	1045.423
126.366	26.987	1290.723	1044.976
127.381	27.013	1289.724	1044.221
128.395	26.980	1288.947	1043.309
129.410	26.964	1288.223	1042.540
130.424	26.907	1287.560	1041.582
131.439	27.006	1286.606	1041.291
132.454	26.849	1285.978	1039.791
133.468	26.984	1285.018	1039.690
134.483	26.997	1284.452	1039.215
135.497	26.890	1284.037	1038.176
136.512	26.889	1282.871	1037.139
137.527	26.946	1281.918	1036.600
138.541	26.990	1280.079	1035.272
139.556	26.931	1279.259	1034.185
140.570	26.816	1278.933	1033.173
141.585	26.851	1277.645	1032.241
142.600	26.885	1276.383	1031.320
143.614	26.978	1275.550	1031.087
144.629	26.906	1274.662	1029.866
145.643	26.728	1273.726	1028.013
146.658	26.802	1272.226	1027.127
147.673	26.869	1271.856	1027.118
148.687	26.790	1270.748	1025.684
149.702	26.768	1269.688	1024.616
150.716	26.900	1268.143	1024.024
151.731	26.939	1267.148	1023.349
152.746	26.921	1266.364	1022.523
153.760	26.957	1265.742	1022.132
154.775	26.934	1264.275	1020.729
155.789	26.981	1263.414	1020.205
156.804	26.878	1262.774	1019.024
157.819	26.980	1261.865	1018.771
158.833	26.972	1261.316	1018.191
159.848	27.057	1260.289	1017.747
160.862	26.996	1259.727	1016.865
161.877	26.970	1259.150	1016.162
162.892	26.982	1258.522	1015.632
163.906	27.039	1257.485	1015.027
164.921	27.089	1256.485	1014.405
165.935	27.005	1255.758	1013.264
166.950	27.113	1255.464	1013.536
167.964	27.022	1255.059	1012.616
168.979	27.064	1254.215	1012.075
169.994	27.091	1253.674	1011.702
171.008	27.024	1253.365	1010.988
172.023	27.101	1252.104	1010.310
173.037	27.049	1251.350	1009.323
174.052	27.039	1251.199	1009.055
175.067	27.112	1249.885	1008.315
176.081	27.084	1249.336	1007.629
177.096	27.022	1248.526	1006.540
178.110	27.031	1247.415	1005.606
179.125	27.177	1245.558	1004.826
180.140	27.154	1245.141	1004.276
181.154	27.119	1244.283	1003.299
182.169	27.058	1243.471	1002.221
183.183	27.028	1242.601	1001.263
184.198	27.117	1241.773	1000.998
185.213	27.123	1240.370	999.813
186.227	27.214	1239.355	999.406
187.242	27.147	1238.834	998.531
188.256	27.189	1238.363	998.290
189.271	27.106	1236.965	996.620
190.286	27.112	1236.215	995.964
191.300	27.109	1235.978	995.668
192.315	27.010	1235.923	994.993
193.329	27.076	1235.433	994.871
194.344	27.127	1234.845	994.585
195.359	27.310	1233.834	994.688
196.373	27.158	1233.201	993.258
197.388	26.939	1233.658	992.339
198.402	27.130	1232.949	992.724
199.417	27.199	1232.231	992.434
200.432	27.106	1231.769	991.471
201.446	27.126	1231.156	990.997
202.461	27.196	1230.411	990.690
203.475	27.202	1229.659	990.032
204.490	27.108	1228.554	988.542
205.504	27.171	1227.682	988.093
206.519	27.163	1226.795	987.252
207.534	27.066	1225.985	985.987
208.548	27.140	1225.221	985.684
209.563	27.231	1224.263	985.321
210.577	27.127	1223.706	984.218
211.592	27.182	1222.750	983.664
212.607	27.260	1221.641	983.103
213.621	27.303	1221.039	982.767
214.636	27.258	1220.050	981.639
215.650	27.276	1219.366	981.098
216.665	27.264	1218.338	980.122
217.680	27.324	1217.285	979.509
218.694	27.258	1217.052	978.879
219.709	27.295	1216.211	978.317
220.723	27.279	1215.578	977.636
221.738	27.285	1214.901	977.037
222.753	27.190	1214.386	976.025
223.767	27.362	1213.556	976.194
224.782	27.298	1212.912	975.247
225.796	27.370	1212.134	974.923
226.811	27.423	1211.681	974.757
227.826	27.387	1211.532	974.358
228.840	27.220	1210.661	972.677
229.855	27.330	1209.945	972.603
230.869	27.388	1209.122	972.166
231.884	27.394	1208.146	971.328
232.899	27.358	1207.618	970.626
233.913	27.389	1207.246	970.404
234.928	27.543	1206.765	970.752
235.942	27.417	1206.476	969.761
236.957	27.597	1205.195	969.602
237.972	27.499	1204.589	968.510
238.986	27.417	1204.200	967.674
240.001	27.487	1203.538	967.428
241.015	27.563	1202.653	967.038
242.030	27.509	1201.998	966.140
243.045	27.490	1201.469	965.526
244.059	27.510	1200.568	964.821
245.074	27.544	1199.360	963.947
246.088	27.376	1199.100	962.762
247.103	27.619	1197.979	963.062
248.117	27.544	1197.098	961.873
249.132	27.562	1196.265	961.212
250.147	27.561	1196.027	960.932
251.161	27.662	1194.977	960.535
252.176	27.700	1193.922	959.800
253.190	27.580	1193.754	958.949
254.205	27.607	1193.513	958.813
255.220	27.674	1192.582	958.335
256.234	27.670	1192.298	957.998
257.249	27.723	1191.622	957.651
258.263	27.709	1191.001	956.991
259.278	27.649	1190.708	956.357
260.293	27.648	1189.938	955.647
261.307	27.738	1189.466	955.656
262.322	27.624	1188.944	954.558
263.336	27.605	1188.367	953.908
264.351	27.654	1187.961	953.754
265.366	27.689	1186.942	953.033
266.380	27.735	1186.190	952.586
267.395	27.720	1185.578	951.935
268.409	27.579	1185.168	950.787
269.424	27.686	1184.524	950.741
270.439	27.612	1184.171	949.986
271.453	27.739	1183.178	949.767
272.468	27.625	1182.497	948.544
273.482	27.660	1181.781	948.071
274.497	27.752	1181.493	948.235
275.512	27.889	1180.845	948.341
276.526	27.758	1180.126	947.000
277.541	27.927	1179.034	946.914
278.555	27.847	1178.619	946.083
279.570	27.757	1178.056	945.081
280.585	27.840	1177.058	944.628
281.599	27.873	1176.239	944.058
282.614	27.803	1175.720	943.196
283.628	27.896	1174.807	942.861
284.643	27.813	1174.011	941.708
285.657	27.785	1172.902	940.592
286.672	27.911	1172.162	940.563
287.687	27.913	1171.285	939.786
288.701	27.918	1170.940	939.451
289.716	27.919	1170.379	938.924
290.730	27.926	1169.624	938.273
291.745	27.909	1169.212	937.771
292.760	28.000	1168.091	937.254
293.774	27.996	1167.928	937.020
294.789	27.985	1167.514	936.550
295.803	28.021	1166.618	935.930
296.818	27.933	1166.362	935.194
297.833	28.059	1164.931	934.608
298.847	28.039	1164.744	934.273
299.862	28.083	1163.732	933.604
300.876	28.014	1163.591	933.056
301.891	28.129	1162.615	932.776
302.906	28.105	1162.184	932.225
303.920	28.076	1161.536	931.474
304.935	28.087	1160.845	930.895
305.949	28.097	1159.839	930.057
306.964	28.068	1159.572	929.612
307.979	28.158	1158.962	929.501
308.993	28.133	1158.824	929.181
310.008	28.157	1157.922	928.494
311.022	28.137	1156.908	927.500
312.037	28.167	1156.214	927.014
313.052	28.015	1155.797	925.826
314.066	28.085	1154.455	925.025
315.081	28.071	1154.158	924.634
316.095	28.155	1153.279	924.270
317.110	28.213	1152.552	923.901
318.125	28.260	1152.108	923.700
319.139	28.193	1151.240	922.582
320.154	28.232	1150.543	922.138
321.168	28.207	1149.862	921.388
322.183	28.179	1149.870	921.168
323.197	28.235	1149.196	920.828
324.212	28.305	1148.535	920.571
325.227	28.231	1148.151	919.812
326.241	28.269	1147.228	919.183
327.256	28.280	1146.835	918.837
328.270	28.332	1145.520	917.963
329.285	28.273	1145.196	917.328
330.300	28.214	1144.687	916.544
331.314	28.346	1143.502	916.177
332.329	28.409	1142.785	915.834
333.343	28.373	1142.153	915.067
334.358	28.273	1141.732	914.149
335.373	28.302	1141.100	913.708
336.387	28.473	1139.864	913.487
337.402	28.411	1139.587	912.875
338.416	28.410	1138.626	912.022
339.431	28.374	1138.293	911.496
340.446	28.522	1137.679	911.657
341.460	28.545	1136.965	911.119
342.475	28.426	1136.464	910.045
343.489	28.452	1135.351	909.204
344.504	28.497	1134.390	908.577
345.519	28.383	1133.553	907.260
346.533	28.509	1132.841	907.236
347.548	28.494	1131.987	906.396
348.562	28.653	1131.347	906.590
349.577	28.551	1130.743	905.521
350.592	28.453	1130.454	904.727
351.606	28.525	1129.272	904.057
352.621	28.461	1129.122	903.540
353.635	28.558	1128.477	903.422
354.650	28.627	1127.341	902.770
355.665	28.730	1126.767	902.740
356.679	28.683	1126.265	902.026
357.694	28.629	1125.842	901.343
358.708	28.634	1125.027	900.633
359.723	28.492	1124.477	899.418
360.738	28.572	1123.917	899.280
361.752	28.611	1123.429	899.001
362.767	28.672	1122.891	898.791
363.781	28.551	1122.634	897.916
364.796	28.735	1121.971	898.206
365.810	28.662	1121.042	897.022
366.825	28.734	1120.355	896.746
367.840	28.842	1120.050	896.953
368.854	28.866	1119.140	896.260
369.869	28.790	1118.438	895.247
370.883	28.820	1117.588	894.634
371.898	28.708	1117.373	893.837
372.913	28.794	1116.853	893.762
373.927	28.722	1116.470	893.024
374.942	28.914	1115.470	893.080
375.956	28.785	1115.587	892.465
376.971	28.739	1114.742	891.490
377.986	28.945	1113.708	891.582
379.000	29.014	1113.594	891.744
380.015	28.886	1112.921	890.508
381.029	28.920	1112.179	890.002
382.044	28.934	1111.520	889.461
383.059	29.010	1111.030	889.361
384.073	29.023	1110.080	888.580
385.088	28.950	1109.421	887.621
386.102	28.954	1108.744	887.022
387.117	29.015	1107.672	886.380
388.132	28.962	1106.982	885.494
389.146	28.938	1106.421	884.853
390.161	28.930	1106.203	884.563
391.175	28.979	1105.153	883.879
392.190	28.975	1104.745	883.454
393.205	29.046	1103.944	883.077
394.219	29.009	1103.298	882.303
395.234	29.069	1102.783	882.103
396.248	29.072	1101.672	881.150
397.263	29.136	1100.876	880.741
398.278	29.191	1100.029	880.248
399.292	29.076	1099.877	879.499
400.307	29.132	1098.928	878.929
401.321	29.059	1098.773	878.379
402.336	29.176	1097.824	878.102
403.350	29.137	1097.060	877.225
404.365	29.265	1096.355	877.193
405.380	29.126	1095.872	876.071
406.394	29.284	1095.216	876.218
407.409	29.194	1094.541	875.173
408.423	29.429	1093.567	875.431
409.438	29.324	1092.937	874.353
410.453	29.398	1092.377	874.176
411.467	29.300	1091.605	873.020
412.482	29.310	1091.011	872.516
413.496	29.369	1090.268	872.121
414.511	29.300	1089.735	871.292
415.526	29.241	1089.768	870.963
416.540	29.262	1089.165	870.505
417.555	29.313	1088.408	870.061
418.569	29.371	1087.957	869.895
419.584	29.407	1087.431	869.570
420.599	29.266	1087.404	868.806
421.613	103.263	1322.744	1459.010
422.628	96.145	1357.015	1459.126
