DTS Sentinel unit serial number:	SN413079Multiplexer serial number:	ORYXHardware model number:	OX4-SRSoftware version number:	ORYX F/W v4.00 Oryx Data Collector v3.7.2.0data status	okinstallation	princeton_trtdifferential loss correction	single-endedforward channel	channel 2reverse channel	N/Adate	2019/09/10time	20:13:11forward acquisition time	60.00reverse acquisition time	0.00gamma	496.2192k internal	0.2330k external	0.2330temperature offset calibration	0.9944default loss term (dB/km)	0.3790temperature slope calibration	1.0000multiplexer offset coefficient	1.0000multiplexer slope coefficient	1.0000fibre end	0.00T internal ref (°C)	32.37T ext. ref 1 (°C)	-0.31T ext. ref 2 (°C)	25.30length (m)	temperature (°C)	Stokes	anti-Stokes-747.200	98.016	-0.067	-0.078
-746.185	-176.823	-0.159	-0.004
-745.171	-133.807	-0.094	0.012
-744.156	155.613	0.249	0.345
-743.142	800.000	-0.048	0.166
-742.127	13.859	-0.305	0.238
-741.112	-55.258	-0.157	0.071
-740.098	800.000	-0.033	-0.104
-739.083	-94.557	0.180	0.049
-738.069	-200.000	-0.050	0.562
-737.054	118.361	-0.299	0.371
-736.039	-200.000	0.026	-0.140
-735.025	7.299	0.140	-0.105
-734.010	-30.776	-0.246	0.140
-732.996	-134.106	-0.196	0.024
-731.981	12.433	0.243	-0.189
-730.966	-138.258	0.218	-0.024
-729.952	343.862	-0.108	-0.212
-728.937	-118.373	0.105	0.019
-727.923	-8.629	0.068	0.046
-726.908	119.360	0.031	0.039
-725.894	-35.257	-0.168	0.092
-724.879	-200.000	0.014	-0.092
-723.864	-180.098	-0.205	-0.004
-722.850	-36.358	-0.343	0.186
-721.835	-42.174	0.233	0.120
-720.821	-17.836	0.115	-0.073
-719.806	-134.644	-0.349	0.043
-718.791	-24.543	-0.172	0.103
-717.777	-199.701	-0.127	-0.001
-716.762	-97.162	-0.260	-0.068
-715.748	421.343	-0.119	0.256
-714.733	27.325	0.028	-0.023
-713.718	-104.604	-0.126	0.029
-712.704	191.522	0.088	-0.134
-711.689	-31.238	-0.064	0.036
-710.675	-133.858	0.166	0.021
-709.660	800.000	-0.115	-0.346
-708.645	96.150	-0.154	-0.177
-707.631	18.328	-0.123	-0.099
-706.616	-200.000	-0.019	-0.094
-705.602	-79.560	0.063	-0.021
-704.587	27.314	-0.134	0.113
-703.572	203.568	-0.072	-0.112
-702.558	-107.661	-0.477	-0.105
-701.543	-200.000	-0.007	0.131
-700.529	681.998	0.135	0.353
-699.514	-200.000	-0.033	0.167
-698.499	-200.000	-0.031	-0.283
-697.485	180.055	-0.299	-0.440
-696.470	-200.000	-0.070	-0.358
-695.456	-200.000	0.076	0.495
-694.441	169.211	0.092	-0.132
-693.426	553.793	0.132	-0.318
-692.412	-124.875	0.413	-0.064
-691.397	6.356	0.104	0.078
-690.383	800.000	0.033	0.121
-689.368	396.848	0.046	-0.096
-688.354	247.500	0.075	-0.128
-687.339	-96.805	0.295	-0.078
-686.324	174.089	-0.270	-0.391
-685.310	-200.000	0.028	-0.201
-684.295	418.774	-0.182	-0.390
-683.281	28.854	0.235	-0.200
-682.266	46.985	-0.321	0.300
-681.251	-147.312	0.284	-0.024
-680.237	157.807	0.023	0.032
-679.222	800.000	0.023	0.073
-678.208	279.093	-0.194	0.347
-677.193	-28.028	-0.165	-0.096
-676.178	71.697	0.229	-0.239
-675.164	-17.362	0.251	0.159
-674.149	-32.012	0.134	-0.075
-673.135	-20.684	-0.172	-0.106
-672.120	-200.000	0.021	-0.160
-671.105	-200.000	-0.017	-0.122
-670.091	22.999	-0.090	-0.074
-669.076	152.251	-0.152	-0.209
-668.062	56.151	-0.054	-0.052
-667.047	800.000	0.065	-0.185
-666.032	800.000	-0.047	-0.133
-665.018	274.110	-0.100	0.178
-664.003	800.000	-0.005	0.014
-662.989	-200.000	-0.009	0.255
-661.974	-200.000	-0.004	0.063
-660.959	72.632	0.127	0.133
-659.945	-200.000	0.021	0.281
-658.930	800.000	-0.052	-0.184
-657.916	-154.301	0.289	-0.020
-656.901	800.000	0.118	-0.450
-655.886	189.684	-0.197	-0.297
-654.872	-55.869	-0.043	0.019
-653.857	-3.773	-0.155	0.108
-652.843	-200.000	0.013	0.185
-651.828	-1.657	-0.221	-0.156
-650.814	115.355	-0.154	-0.189
-649.799	-84.945	-0.209	0.066
-648.784	220.708	0.098	0.158
-647.770	800.000	0.103	0.338
-646.755	-68.914	0.123	-0.048
-645.741	-103.695	0.276	-0.065
-644.726	27.322	-0.057	0.048
-643.711	52.936	-0.142	0.137
-642.697	706.588	0.071	0.189
-641.682	437.363	0.031	-0.067
-640.668	-200.000	0.029	0.137
-639.653	16.189	0.035	-0.027
-638.638	-32.378	-0.165	-0.092
-637.624	-107.875	0.094	0.020
-636.609	1.604	0.195	-0.141
-635.595	-200.000	0.050	-0.281
-634.580	-200.000	0.047	0.431
-633.565	-93.693	-0.391	-0.108
-632.551	-106.598	-0.154	0.034
-631.536	800.000	0.052	-0.154
-630.522	443.004	0.095	-0.208
-629.507	72.679	0.104	-0.108
-628.492	-200.000	-0.028	0.352
-627.478	372.085	0.005	-0.010
-626.463	-200.000	0.023	-0.335
-625.449	-174.506	-0.191	-0.005
-624.434	-191.416	-0.126	0.001
-623.419	-161.432	-0.654	-0.034
-622.405	31.421	-0.240	-0.207
-621.390	-51.626	0.217	0.102
-620.376	-149.767	0.140	-0.011
-619.361	39.016	-0.127	-0.113
-618.346	69.794	0.204	0.211
-617.332	247.993	0.078	0.132
-616.317	800.000	0.012	-0.048
-615.303	118.168	0.109	0.134
-614.288	-6.780	-0.175	0.119
-613.273	-200.000	0.012	0.134
-612.259	-200.000	0.005	-0.176
-611.244	-93.299	-0.070	0.020
-610.230	-180.902	0.034	0.001
-609.215	-20.549	0.087	-0.053
-608.201	-166.924	0.344	-0.014
-607.186	60.072	0.127	0.125
-606.171	24.093	-0.108	0.090
-605.157	800.000	0.048	-0.186
-604.142	800.000	-0.121	-0.403
-603.128	-122.159	0.526	0.086
-602.113	-200.000	-0.017	-0.094
-601.098	-11.175	0.107	0.070
-600.084	270.251	-0.060	-0.105
-599.069	6.716	-0.108	0.081
-598.055	-160.118	0.075	-0.004
-597.040	-119.981	0.190	0.033
-596.025	800.000	0.100	0.310
-595.011	800.000	-0.036	-0.154
-593.996	-153.674	-0.189	0.013
-592.982	-200.000	-0.019	-0.234
-591.967	-73.549	-0.024	0.009
-590.952	342.209	-0.067	0.132
-589.938	800.000	-0.113	-0.384
-588.923	389.748	-0.103	-0.214
-587.909	-108.614	-0.140	-0.030
-586.894	-200.000	-0.043	0.275
-585.879	-200.000	0.089	0.429
-584.865	-189.210	0.336	-0.004
-583.850	27.645	0.086	0.073
-582.836	-102.468	-0.231	0.055
-581.821	403.801	-0.104	-0.218
-580.806	472.670	-0.071	-0.160
-579.792	31.216	0.318	0.273
-578.777	-200.000	-0.008	-0.158
-577.763	-69.875	0.112	-0.043
-576.748	171.604	0.222	-0.319
-575.733	-200.000	-0.039	0.220
-574.719	-200.000	0.016	-0.095
-573.704	-9.904	-0.267	0.178
-572.690	-200.000	-0.038	-0.273
-571.675	-50.111	-0.025	-0.012
-570.661	-17.643	-0.278	-0.175
-569.646	17.136	-0.023	-0.018
-568.631	800.000	-0.009	0.034
-567.617	-138.975	-0.120	0.013
-566.602	-172.231	-0.111	0.004
-565.588	-115.449	0.192	-0.036
-564.573	114.062	0.168	0.205
-563.558	-139.840	-0.383	0.041
-562.544	177.543	-0.048	0.070
-561.529	626.778	0.074	0.186
-560.515	-10.889	0.027	0.018
-559.500	-101.896	-0.216	-0.052
-558.485	-75.845	0.111	-0.039
-557.471	-147.618	0.185	0.016
-556.456	-83.734	-0.135	-0.043
-555.442	125.431	-0.192	0.242
-554.427	330.285	-0.046	-0.088
-553.412	-108.372	0.320	-0.069
-552.398	-19.896	0.100	0.062
-551.383	-81.006	0.189	-0.062
-550.369	-122.132	-0.305	-0.050
-549.354	-200.000	0.024	-0.413
-548.339	-200.000	-0.034	-0.321
-547.325	-169.379	0.143	-0.005
-546.310	-143.518	-0.093	-0.009
-545.296	-44.773	-0.175	-0.087
-544.281	-200.000	0.025	-0.257
-543.266	-200.000	0.009	0.068
-542.252	800.000	0.032	0.107
-541.237	247.561	0.104	0.176
-540.223	-200.000	0.006	0.284
-539.208	-16.356	0.083	-0.053
-538.193	-54.051	0.289	0.131
-537.179	-194.824	-0.165	0.001
-536.164	-14.019	-0.105	-0.068
-535.150	-69.434	-0.199	0.076
-534.135	141.039	-0.222	0.293
-533.121	179.354	-0.151	-0.221
-532.106	366.154	-0.121	-0.243
-531.091	-200.000	-0.029	-0.248
-530.077	-200.000	-0.007	-0.149
-529.062	800.000	0.016	-0.046
-528.048	800.000	-0.069	0.197
-527.033	-59.079	0.350	0.151
-526.018	395.069	0.075	0.157
-525.004	333.695	0.097	-0.188
-523.989	167.964	-0.086	-0.122
-522.975	800.000	-0.059	0.182
-521.960	217.623	0.134	0.213
-520.945	30.575	0.371	-0.316
-519.931	156.315	-0.152	-0.209
-518.916	-54.939	0.105	0.047
-517.902	483.868	-0.036	-0.082
-516.887	-76.429	0.190	0.067
-515.872	755.402	0.105	0.284
-514.858	-103.461	-0.239	-0.056
-513.843	-121.497	-0.506	0.084
-512.829	-107.201	0.232	0.051
-511.814	622.778	-0.067	-0.169
-510.799	98.935	-0.166	-0.191
-509.785	-105.992	0.263	-0.059
-508.770	-132.774	-0.101	0.013
-507.756	-200.000	-0.054	-0.253
-506.741	-7.863	0.445	-0.299
-505.726	800.000	0.060	0.240
-504.712	388.886	-0.060	0.124
-503.697	800.000	-0.147	0.410
-502.683	800.000	-0.133	0.372
-501.668	-119.519	-0.261	-0.045
-500.653	20.910	0.398	-0.322
-499.639	800.000	-0.026	0.097
-498.624	-58.842	-0.289	0.125
-497.610	565.416	0.086	-0.208
-496.595	225.763	-0.146	0.236
-495.581	169.629	-0.064	0.091
-494.566	-45.456	0.141	0.070
-493.551	-114.151	-0.345	0.066
-492.537	154.320	0.143	-0.195
-491.522	-200.000	-0.009	-0.105
-490.508	150.893	0.082	-0.111
-489.493	-200.000	0.037	-0.174
-488.478	-200.000	-0.026	0.131
-487.464	63.473	0.310	-0.310
-486.449	166.025	-0.095	0.134
-485.435	-44.017	0.029	0.014
-484.420	-56.057	0.183	0.081
-483.405	11.137	-0.274	-0.209
-482.391	-71.988	0.154	-0.057
-481.376	606.246	-0.109	0.270
-480.362	-73.525	-0.151	-0.055
-479.347	-38.896	0.102	0.054
-478.332	283.740	-0.056	0.101
-477.318	221.630	-0.034	0.054
-476.303	-177.432	0.295	0.007
-475.289	6.793	-0.322	-0.238
-474.274	0.457	-0.003	-0.002
-473.259	34.263	0.216	-0.188
-472.245	-66.159	0.236	0.094
-471.230	-60.491	-0.438	-0.185
-470.216	28.270	-0.151	0.127
-469.201	800.000	0.070	-0.261
-468.186	-200.000	0.008	-0.083
-467.172	-31.822	0.360	-0.201
-466.157	-200.000	-0.048	-0.319
-465.143	-26.416	-0.290	-0.169
-464.128	-78.269	-0.255	-0.087
-463.113	-78.208	0.136	0.046
-462.099	330.160	0.052	0.100
-461.084	-39.493	0.259	-0.135
-460.070	-42.590	-0.149	-0.076
-459.055	800.000	0.029	-0.096
-458.040	56.524	0.097	0.094
-457.026	399.906	0.007	0.015
-456.011	-133.141	0.428	0.054
-454.997	-200.000	0.000	-0.395
-453.982	127.996	-0.092	-0.116
-452.968	99.504	-0.216	0.249
-451.953	63.074	0.143	-0.143
-450.938	557.282	-0.074	-0.178
-449.924	-91.969	0.114	0.032
-448.909	800.000	-0.073	-0.277
-447.895	-110.734	-0.264	-0.054
-446.880	800.000	0.087	0.308
-445.865	800.000	0.069	0.204
-444.851	-18.734	-0.116	0.072
-443.836	-11.636	-0.188	0.123
-442.822	93.569	0.083	-0.094
-441.807	-200.000	-0.053	-0.324
-440.792	782.628	-0.077	-0.209
-439.778	245.368	-0.039	0.065
-438.763	22.169	-0.108	-0.087
-437.749	-119.037	-0.165	0.029
-436.734	800.000	0.023	-0.076
-435.719	-57.734	-0.188	-0.082
-434.705	-55.418	-0.059	0.026
-433.690	-156.891	0.224	-0.014
-432.676	-21.584	0.267	-0.162
-431.661	-200.000	0.000	0.143
-430.646	-151.717	-0.227	0.017
-429.632	800.000	0.114	0.318
-428.617	-104.515	0.110	-0.025
-427.603	-42.145	0.138	0.070
-426.588	-69.716	0.125	0.048
-425.573	38.060	0.102	0.091
-424.559	115.766	0.220	0.267
-423.544	-200.000	-0.015	0.125
-422.530	800.000	-0.038	-0.131
-421.515	512.595	-0.211	-0.488
-420.500	-55.306	-0.100	0.045
-419.486	-99.645	0.329	0.082
-418.471	-101.876	0.346	-0.083
-417.457	124.258	-0.114	0.143
-416.442	-111.299	-0.301	-0.061
-415.428	21.615	-0.066	0.053
-414.413	800.000	0.076	0.295
-413.398	-200.000	0.015	0.127
-412.384	29.598	0.108	0.092
-411.369	-200.000	0.026	0.246
-410.355	-200.000	-0.065	0.389
-409.340	-24.853	-0.414	0.244
-408.325	800.000	-0.067	-0.287
-407.311	-124.311	0.143	-0.022
-406.296	-200.000	-0.030	0.156
-405.282	-127.192	0.137	0.020
-404.267	-200.000	-0.023	-0.233
-403.252	18.901	0.216	-0.172
-402.238	431.207	-0.151	-0.325
-401.223	51.351	-0.155	-0.146
-400.209	180.311	-0.016	-0.024
-399.194	608.799	-0.115	0.284
-398.179	165.043	0.150	0.210
-397.165	92.331	-0.075	-0.084
-396.150	-3.270	0.073	0.051
-395.136	-60.449	-0.094	0.040
-394.121	31.162	0.119	-0.102
-393.106	-109.631	-0.168	-0.035
-392.092	-200.000	-0.007	0.327
-391.077	-69.295	-0.090	-0.034
-390.063	-200.000	-0.010	-0.119
-389.048	-200.000	0.068	-0.305
-388.033	-29.411	-0.168	-0.095
-387.019	196.592	0.100	0.152
-386.004	-45.216	0.501	-0.247
-384.990	225.481	0.045	0.072
-383.975	-200.000	0.014	0.085
-382.960	-17.265	-0.145	0.090
-381.946	-86.454	-0.204	-0.062
-380.931	82.810	-0.068	0.073
-379.917	99.561	0.079	-0.091
-378.902	-200.000	-0.020	0.101
-377.888	-77.552	0.169	0.058
-376.873	368.447	0.134	0.268
-375.858	192.356	-0.064	0.096
-374.844	-200.000	-0.025	-0.257
-373.829	63.056	-0.167	0.166
-372.815	-153.716	0.358	0.024
-371.800	124.113	0.203	0.253
-370.785	800.000	-0.027	0.075
-369.771	-13.565	-0.130	0.084
-368.756	-32.198	0.077	-0.043
-367.742	84.817	-0.152	-0.165
-366.727	-82.788	-0.260	-0.083
-365.712	-92.431	0.106	-0.029
-364.698	800.000	0.089	-0.258
-363.683	-62.718	0.415	-0.171
-362.669	-87.290	0.148	0.044
-361.654	588.647	-0.079	0.194
-360.639	155.293	-0.171	-0.233
-359.625	-48.999	0.410	0.195
-358.610	-121.842	0.205	0.034
-357.596	800.000	-0.184	-0.565
-356.581	-11.784	0.143	0.093
-355.566	288.665	-0.100	-0.180
-354.552	46.413	0.160	0.147
-353.537	-77.957	0.132	-0.045
-352.523	-34.422	0.289	-0.157
-351.508	288.075	0.153	-0.275
-350.493	-114.574	-0.124	-0.024
-349.479	41.501	-0.106	-0.095
-348.464	-101.721	0.271	-0.065
-347.450	332.708	-0.065	-0.124
-346.435	-139.835	0.184	-0.019
-345.420	800.000	-0.032	0.105
-344.406	129.155	0.031	0.039
-343.391	800.000	0.046	-0.185
-342.377	-147.717	0.051	0.004
-341.362	-9.685	-0.253	-0.167
-340.348	-200.000	0.023	0.394
-339.333	138.649	0.080	-0.104
-338.318	130.851	-0.105	-0.134
-337.304	751.911	-0.115	-0.309
-336.289	-131.362	-0.463	0.061
-335.275	361.199	0.091	-0.181
-334.260	58.439	-0.085	0.082
-333.245	-200.000	-0.024	0.133
-332.231	-78.377	-0.259	-0.088
-331.216	-10.025	0.171	0.113
-330.202	-140.992	-0.369	0.037
-329.187	-200.000	0.003	0.059
-328.172	-200.000	0.035	0.329
-327.158	-10.852	0.121	-0.079
-326.143	-90.667	0.032	0.009
-325.129	737.001	-0.159	0.422
-324.114	219.077	-0.181	-0.287
-323.099	-150.820	-0.128	-0.010
-322.085	-55.073	0.141	0.063
-321.070	800.000	0.032	0.134
-320.056	506.710	0.079	0.180
-319.041	-200.000	0.035	0.192
-318.026	-58.279	-0.470	0.203
-317.012	181.833	-0.153	0.222
-315.997	-140.444	-0.202	0.021
-314.983	155.610	-0.150	-0.204
-313.968	29.992	-0.207	-0.174
-312.953	-116.595	0.129	0.024
-311.939	-130.235	0.271	-0.037
-310.924	-66.447	0.228	-0.090
-309.910	49.963	0.096	0.089
-308.895	90.501	0.091	0.101
-307.880	-200.000	-0.004	-0.045
-306.866	-35.078	-0.136	0.073
-305.851	-54.153	-0.415	-0.187
-304.837	407.052	-0.037	0.078
-303.822	170.615	0.181	-0.256
-302.807	-200.000	-0.058	-0.372
-301.793	479.336	0.151	0.338
-300.778	-2.760	0.119	0.082
-299.764	800.000	-0.034	-0.124
-298.749	-42.136	0.049	-0.025
-297.735	144.049	0.113	-0.149
-296.720	184.000	0.263	0.385
-295.705	-135.422	0.210	0.025
-294.691	-176.827	-0.319	-0.008
-293.676	-56.074	-0.378	0.167
-292.662	632.161	-0.060	-0.150
-291.647	-200.000	-0.008	0.035
-290.632	-200.000	-0.014	-0.097
-289.618	800.000	-0.048	-0.164
-288.603	-78.729	-0.298	-0.101
-287.589	-6.231	0.064	0.043
-286.574	-136.549	-0.159	0.018
-285.559	-200.000	-0.034	-0.296
-284.545	-121.400	-0.318	-0.052
-283.530	-200.000	0.023	0.123
-282.516	59.914	0.138	0.134
-281.501	-26.961	0.213	-0.123
-280.486	109.555	0.129	-0.152
-279.472	-42.491	-0.220	0.111
-278.457	272.758	-0.052	0.091
-277.443	-92.588	0.112	-0.031
-276.428	5.409	-0.101	0.074
-275.413	-200.000	-0.015	-0.125
-274.399	-90.387	-0.325	-0.093
-273.384	411.814	0.045	0.094
-272.370	800.000	0.053	-0.188
-271.355	109.595	-0.128	0.152
-270.340	-96.203	0.185	-0.048
-269.326	87.096	-0.116	0.127
-268.311	78.920	-0.195	-0.206
-267.297	-200.000	-0.064	-0.511
-266.282	-165.943	-0.158	0.007
-265.267	415.908	0.138	-0.291
-264.253	800.000	-0.111	0.338
-263.238	-200.000	-0.033	0.192
-262.224	-141.855	-0.275	0.027
-261.209	-29.161	-0.159	0.090
-260.195	-200.000	-0.001	-0.096
-259.180	259.796	0.041	0.071
-258.165	-130.455	0.200	-0.027
-257.151	800.000	-0.033	-0.134
-256.136	40.197	0.118	-0.105
-255.122	-111.851	-0.269	0.054
-254.107	29.492	0.154	0.130
-253.092	-10.481	0.103	-0.067
-252.078	-145.481	0.187	-0.017
-251.063	-200.000	-0.018	0.116
-250.049	-51.590	0.263	-0.121
-249.034	-200.000	0.028	0.120
-248.019	-200.000	0.005	-0.062
-247.005	-200.000	-0.052	-0.426
-245.990	575.716	0.064	0.153
-244.976	-200.000	-0.012	0.163
-243.961	-200.000	0.005	0.336
-242.946	-137.548	-0.602	-0.067
-241.932	-5.547	-0.049	-0.033
-240.917	-200.000	0.038	-0.229
-239.903	-200.000	0.025	0.129
-238.888	-21.906	-0.085	0.051
-237.873	800.000	0.171	0.560
-236.859	-181.913	-0.344	0.006
-235.844	-27.926	0.090	-0.051
-234.830	72.981	-0.228	-0.235
-233.815	222.125	-0.209	0.331
-232.800	-84.017	0.057	0.018
-231.786	-77.366	-0.213	0.073
-230.771	59.279	0.288	0.280
-229.757	67.385	0.195	-0.196
-228.742	-200.000	-0.035	-0.156
-227.727	-149.888	0.294	0.023
-226.713	-200.000	0.009	-0.131
-225.698	800.000	-0.061	-0.173
-224.684	-128.484	0.116	-0.016
-223.669	379.483	0.080	-0.161
-222.655	-48.618	0.268	-0.127
-221.640	-140.698	0.192	0.020
-220.625	93.098	-0.075	-0.083
-219.611	-113.950	-0.078	0.015
-218.596	-200.000	-0.011	0.103
-217.582	800.000	0.055	0.180
-216.567	-98.781	-0.143	0.036
-215.552	-200.000	0.021	0.175
-214.538	156.344	0.051	-0.070
-213.523	800.000	-0.036	-0.126
-212.509	-11.324	0.208	0.135
-211.494	8.411	0.241	0.179
-210.479	75.799	0.313	-0.327
-209.465	-38.563	-0.165	-0.086
-208.450	800.000	-0.109	0.406
-207.436	-79.633	0.281	0.093
-206.421	713.093	0.081	-0.211
-205.406	-102.842	-0.071	0.017
-204.392	-22.397	-0.036	0.022
-203.377	-65.885	0.202	-0.080
-202.363	-43.589	0.207	-0.103
-201.348	-200.000	-0.036	0.165
-200.333	309.670	-0.158	-0.291
-199.319	64.449	-0.107	0.106
-198.304	-91.844	0.374	0.104
-197.290	800.000	0.095	0.324
-196.275	-47.203	0.185	0.089
-195.260	222.846	-0.181	0.287
-194.246	800.000	0.093	-0.269
-193.231	-200.000	0.011	0.170
-192.217	431.140	-0.063	-0.135
-191.202	-85.376	-0.034	0.010
-190.187	-98.602	0.178	0.045
-189.173	-200.000	0.024	0.359
-188.158	800.000	0.046	-0.126
-187.144	-200.000	0.041	-0.372
-186.129	-131.014	0.113	-0.015
-185.114	-46.616	0.085	0.041
-184.100	-150.110	-0.249	-0.019
-183.085	191.078	-0.140	0.207
-182.071	800.000	0.026	-0.099
-181.056	800.000	0.052	-0.165
-180.042	800.000	0.053	0.178
-179.027	118.769	0.132	-0.161
-178.012	-33.688	0.161	0.087
-176.998	-200.000	-0.009	0.045
-175.983	46.504	0.189	-0.172
-174.969	605.989	-0.037	0.091
-173.954	-123.857	-0.290	-0.045
-172.939	126.546	0.029	-0.036
-171.925	111.586	-0.127	-0.151
-170.910	284.493	0.145	0.256
-169.896	800.000	-0.062	-0.223
-168.881	-73.695	-0.075	0.027
-167.866	62.547	0.052	0.051
-166.852	60.429	0.282	0.275
-165.837	-200.000	0.014	0.278
-164.823	39.924	-0.306	0.271
-163.808	-200.000	-0.207	0.000
-162.793	457.483	0.026	-0.058
-161.779	-31.654	-0.045	0.025
-160.764	96.738	0.175	-0.197
-159.750	620.180	0.008	0.019
-158.735	186.610	0.280	0.410
-157.720	-22.479	-0.308	0.183
-156.706	-200.000	-0.004	0.308
-155.691	-200.000	-0.037	0.162
-154.677	110.796	0.032	-0.038
-153.662	-200.000	-0.022	0.263
-152.647	220.524	-0.116	0.182
-151.633	-200.000	-0.001	0.213
-150.618	484.894	0.026	-0.058
-149.604	-200.000	-0.019	0.082
-148.589	662.123	-0.096	0.243
-147.574	563.589	0.046	0.110
-146.560	-113.147	0.356	0.069
-145.545	-200.000	0.017	0.158
-144.531	800.000	-0.063	-0.206
-143.516	-200.000	-0.043	0.443
-142.502	163.851	-0.246	-0.341
-141.487	102.774	-0.067	0.077
-140.472	-17.297	0.203	0.125
-139.458	691.720	0.025	0.064
-138.443	241.602	-0.107	0.175
-137.429	-200.000	-0.021	0.238
-136.414	737.248	0.058	0.152
-135.399	-66.035	0.031	-0.012
-134.385	-1.998	0.325	0.225
-133.370	-45.479	0.533	-0.259
-132.356	491.816	-0.088	0.198
-131.341	-0.064	0.288	-0.202
-130.326	-167.646	-0.061	0.002
-129.312	3.405	0.048	-0.034
-128.297	-200.000	0.005	-0.239
-127.283	16.472	0.344	-0.267
-126.268	-46.554	0.151	0.073
-125.253	187.649	0.079	-0.116
-124.239	-200.000	0.028	-0.135
-123.224	86.260	-0.227	0.245
-122.210	800.000	0.021	-0.074
-121.195	705.407	-0.049	-0.126
-120.180	257.332	0.246	0.416
-119.166	800.000	0.069	0.270
-118.151	-54.017	-0.173	-0.077
-117.137	554.722	-0.067	-0.157
-116.122	-42.803	-0.229	-0.114
-115.107	80.279	0.156	-0.165
-114.093	-70.457	-0.151	0.056
-113.078	-6.765	0.219	-0.146
-112.064	12.283	-0.080	0.060
-111.049	112.767	0.120	-0.143
-110.034	800.000	0.030	0.113
-109.020	800.000	-0.084	0.249
-108.005	-11.435	-0.252	-0.163
-106.991	65.351	0.528	0.524
-105.976	20.575	0.179	0.143
-104.962	131.702	-0.101	-0.128
-103.947	-1.832	-0.110	0.076
-102.932	108.827	0.092	-0.108
-101.918	-52.132	0.312	0.142
-100.903	-100.593	0.510	-0.124
-99.889	-69.077	-0.125	-0.047
-98.874	-200.000	-0.015	-0.087
-97.859	102.870	0.087	0.100
-96.845	96.560	-0.079	-0.089
-95.830	-87.177	0.150	-0.045
-94.816	-102.047	0.119	-0.028
-93.801	-200.000	-0.007	-0.148
-92.786	65.044	-0.138	0.137
-91.772	102.424	0.236	-0.270
-90.757	43.690	-0.084	0.076
-89.743	-200.000	0.046	0.259
-88.728	-200.000	0.061	-0.510
-87.713	319.180	-0.012	-0.022
-86.699	-200.000	0.018	-0.138
-85.684	332.063	-0.105	-0.199
-84.670	80.073	-0.192	0.202
-83.655	-200.000	-0.053	0.398
-82.640	431.152	-0.048	-0.101
-81.626	-77.330	0.153	-0.052
-80.611	305.999	-0.044	-0.080
-79.597	-91.175	0.157	-0.044
-78.582	-112.888	0.305	0.059
-77.567	800.000	-0.088	0.313
-76.553	119.582	0.231	0.280
-75.538	17.405	0.266	0.207
-74.524	121.413	0.066	0.081
-73.509	-200.000	0.016	-0.076
-72.494	139.199	-0.141	-0.182
-71.480	800.000	-0.049	0.197
-70.465	88.081	0.166	0.181
-69.451	800.000	-0.028	0.083
-68.436	120.616	0.124	0.151
-67.422	48.971	0.186	0.171
-66.407	-42.791	0.275	0.137
-65.392	-200.000	0.019	-0.272
-64.378	800.000	-0.060	0.170
-63.363	62.065	0.217	-0.212
-62.349	-77.752	-0.236	-0.080
-61.334	68.910	-1.001	-1.007
-60.319	211.123	0.270	0.416
-59.305	-200.000	-0.233	-1.062
-58.290	539.843	0.499	1.164
-57.276	419.369	0.772	1.619
-56.261	-200.000	98.356	595.575
-55.246	607.240	1410.100	3446.053
-54.232	189.809	2613.090	3841.473
-53.217	111.031	2282.186	2692.929
-52.203	41.898	1899.451	1688.081
-51.188	35.778	1687.897	1453.925
-50.173	32.998	1644.488	1395.965
-49.159	49.915	1692.960	1564.355
-48.144	51.616	1708.498	1591.397
-47.130	35.139	1668.349	1432.086
-46.115	32.524	1654.014	1400.309
-45.100	32.337	1648.951	1394.576
-44.086	32.291	1646.074	1391.753
-43.071	32.326	1643.537	1389.805
-42.057	32.343	1640.771	1387.536
-41.042	32.227	1639.417	1385.483
-40.027	32.334	1637.251	1384.386
-39.013	32.266	1635.038	1381.959
-37.998	32.238	1633.869	1380.715
-36.984	32.308	1631.886	1379.498
-35.969	32.311	1631.271	1378.942
-34.954	32.390	1629.112	1377.643
-33.940	32.340	1627.691	1376.021
-32.925	32.372	1625.481	1374.333
-31.911	32.343	1624.166	1372.951
-30.896	32.364	1622.243	1371.429
-29.881	32.344	1620.533	1369.782
-28.867	32.331	1618.549	1367.951
-27.852	32.302	1617.782	1367.037
-26.838	32.344	1615.970	1365.756
-25.823	32.327	1614.941	1364.715
-24.809	32.429	1613.149	1363.886
-23.794	32.347	1611.943	1362.212
-22.779	32.409	1610.385	1361.296
-21.765	32.399	1608.246	1359.358
-20.750	32.390	1606.661	1357.902
-19.736	32.458	1605.384	1357.255
-18.721	32.540	1603.642	1356.324
-17.706	32.328	1602.662	1353.915
-16.692	32.310	1600.881	1352.223
-15.677	32.413	1599.593	1351.827
-14.663	32.506	1598.295	1351.338
-13.648	32.412	1596.706	1349.267
-12.633	32.361	1595.928	1348.196
-11.619	32.371	1593.968	1346.554
-10.604	32.481	1592.207	1345.801
-9.590	32.469	1591.534	1345.091
-8.575	32.487	1590.327	1344.150
-7.560	32.466	1589.220	1343.007
-6.546	32.404	1587.839	1341.349
-5.531	32.445	1586.369	1340.345
-4.517	32.446	1585.497	1339.560
-3.502	32.401	1584.538	1338.380
-2.487	32.593	1581.944	1337.495
-1.473	32.065	1570.672	1324.189
-0.458	28.990	1550.859	1285.979
0.556	22.761	1550.858	1251.173
1.571	20.315	1574.981	1252.889
2.586	20.015	1588.214	1261.118
3.600	18.159	1536.654	1206.980
4.615	9.851	1426.844	1065.972
5.629	1.450	1361.294	963.799
6.644	-0.137	1352.309	947.345
7.659	-0.338	1351.237	945.243
8.673	-0.356	1349.737	944.002
9.688	-0.399	1348.522	942.798
10.702	-0.574	1345.398	939.432
11.717	2.838	1351.744	965.257
12.731	12.090	1369.687	1036.720
13.746	18.585	1380.412	1086.000
14.761	19.583	1380.459	1092.258
15.775	19.717	1379.967	1092.618
16.790	19.820	1379.309	1092.646
17.804	19.804	1378.648	1091.927
18.819	20.049	1378.616	1093.356
19.834	20.049	1378.140	1092.879
20.848	20.087	1377.045	1092.153
21.863	19.976	1376.726	1091.104
22.877	20.087	1375.687	1090.884
23.892	20.080	1374.672	1089.936
24.907	20.141	1373.539	1089.323
25.921	20.040	1372.939	1088.120
26.936	20.073	1371.965	1087.455
27.950	20.115	1371.154	1086.980
28.965	20.058	1369.840	1085.486
29.980	20.025	1368.530	1084.150
30.994	20.030	1367.766	1083.474
32.009	19.949	1366.413	1081.800
33.023	20.063	1364.944	1081.257
34.038	20.071	1363.643	1080.182
35.053	20.060	1362.942	1079.457
36.067	19.964	1362.004	1078.026
37.082	20.073	1360.942	1077.763
38.096	19.989	1359.762	1076.215
39.111	19.916	1359.337	1075.328
40.126	20.005	1358.815	1075.372
41.140	20.057	1357.961	1074.924
42.155	20.078	1357.453	1074.558
43.169	20.070	1357.366	1074.345
44.184	20.051	1357.067	1073.897
45.199	20.086	1356.488	1073.556
46.213	20.061	1356.467	1073.291
47.228	19.967	1355.011	1071.465
48.242	20.134	1353.534	1071.233
49.257	20.064	1352.827	1070.145
50.271	20.059	1351.766	1069.182
51.286	20.025	1349.564	1067.138
52.301	20.040	1348.863	1066.580
53.315	20.069	1347.355	1065.472
54.330	20.051	1346.964	1064.956
55.344	20.032	1345.686	1063.735
56.359	20.024	1344.323	1062.518
57.374	19.992	1343.782	1061.796
58.388	20.078	1343.133	1061.716
59.403	20.052	1342.926	1061.300
60.417	20.120	1341.765	1060.704
61.432	20.074	1341.103	1059.807
62.447	20.077	1339.995	1058.853
63.461	20.083	1339.136	1058.118
64.476	20.192	1337.478	1057.384
65.490	20.121	1337.192	1056.630
66.505	20.129	1334.986	1054.839
67.520	20.154	1333.984	1054.107
68.534	20.031	1333.311	1052.734
69.549	20.004	1332.220	1051.615
70.563	20.055	1331.705	1051.426
71.578	20.092	1329.971	1050.191
72.593	20.085	1329.369	1049.575
73.607	20.071	1328.808	1048.956
74.622	20.088	1327.744	1048.125
75.636	20.096	1327.004	1047.501
76.651	20.094	1326.573	1047.055
77.666	20.104	1325.823	1046.432
78.680	20.046	1325.533	1045.758
79.695	20.069	1324.604	1045.072
80.709	19.972	1323.757	1043.728
81.724	20.103	1322.951	1043.785
82.739	20.123	1321.805	1042.912
83.753	20.028	1320.938	1041.561
84.768	20.098	1319.630	1040.862
85.782	20.081	1318.615	1039.867
86.797	20.078	1317.462	1038.845
87.812	20.009	1316.223	1037.366
88.826	20.156	1315.158	1037.315
89.841	20.091	1314.347	1036.192
90.855	20.131	1313.173	1035.411
91.870	20.182	1312.273	1034.915
92.884	20.165	1311.407	1034.039
93.899	20.185	1310.343	1033.230
94.914	20.152	1309.765	1032.490
95.928	20.141	1309.968	1032.487
96.943	20.113	1308.479	1031.057
97.957	20.091	1307.887	1030.369
98.972	20.046	1306.978	1029.296
99.987	20.123	1305.518	1028.510
101.001	20.133	1304.549	1027.717
102.016	20.090	1303.758	1026.746
103.030	20.202	1302.492	1026.321
104.045	20.122	1302.118	1025.463
105.060	20.132	1300.590	1024.228
106.074	20.132	1299.479	1023.265
107.089	20.232	1298.215	1022.764
108.103	20.249	1297.410	1022.143
109.118	20.224	1296.165	1020.926
110.133	20.286	1295.166	1020.414
111.147	20.278	1294.123	1019.454
112.162	20.189	1292.591	1017.634
113.176	20.203	1291.646	1016.879
114.191	20.161	1290.836	1015.907
115.206	20.213	1289.088	1014.745
116.220	20.154	1288.440	1013.799
117.235	20.239	1287.540	1013.499
118.249	20.190	1286.519	1012.321
119.264	20.285	1285.269	1011.799
120.279	20.206	1284.839	1010.914
121.293	20.315	1283.268	1010.223
122.308	20.310	1282.899	1009.815
123.322	20.225	1281.875	1008.423
124.337	20.187	1281.240	1007.616
125.352	20.315	1279.705	1007.059
126.366	20.246	1279.137	1006.124
127.381	20.252	1278.032	1005.198
128.395	20.296	1276.970	1004.529
129.410	20.262	1276.073	1003.542
130.424	20.231	1275.735	1003.008
131.439	20.214	1274.514	1001.859
132.454	20.260	1273.698	1001.392
133.468	20.295	1272.678	1000.703
134.483	20.333	1272.388	1000.610
135.497	20.267	1271.673	999.580
136.512	20.167	1270.179	997.738
137.527	20.251	1268.738	997.001
138.541	20.348	1267.291	996.332
139.556	20.251	1266.261	994.877
140.570	20.314	1265.018	994.175
141.585	20.251	1263.926	992.866
142.600	20.259	1263.100	992.180
143.614	20.328	1262.205	991.781
144.629	20.157	1261.213	989.938
145.643	20.194	1259.803	988.954
146.658	20.160	1258.966	988.018
147.673	20.134	1257.852	986.905
148.687	20.152	1256.920	986.190
149.702	20.093	1256.052	985.086
150.716	20.101	1254.881	984.128
151.731	20.182	1253.612	983.503
152.746	20.293	1252.490	983.163
153.760	20.284	1251.783	982.471
154.775	20.304	1250.606	981.577
155.789	20.332	1249.599	980.857
156.804	20.269	1248.763	979.760
157.819	20.274	1247.852	978.986
158.833	20.373	1246.899	978.709
159.848	20.390	1245.836	977.884
160.862	20.357	1245.368	977.241
161.877	20.392	1244.132	976.380
162.892	20.397	1243.574	975.888
163.906	20.385	1242.855	975.172
164.921	20.313	1242.392	974.318
165.935	20.404	1241.485	974.028
166.950	20.371	1241.025	973.398
167.964	20.409	1240.454	973.073
168.979	20.362	1240.151	972.490
169.994	20.394	1239.342	971.944
171.008	20.437	1238.546	971.476
172.023	20.408	1237.552	970.450
173.037	20.409	1237.064	969.986
174.052	20.427	1236.062	969.216
175.067	20.424	1235.426	968.613
176.081	20.416	1234.332	967.628
177.096	20.394	1233.919	967.092
178.110	20.274	1232.686	965.375
179.125	20.427	1231.703	965.368
180.140	20.441	1230.661	964.543
181.154	20.467	1229.334	963.565
182.169	20.391	1228.657	962.530
183.183	20.399	1227.791	961.806
184.198	20.398	1226.699	960.863
185.213	20.367	1225.837	959.928
186.227	20.456	1224.470	959.268
187.242	20.334	1224.014	958.152
188.256	20.398	1223.117	957.719
189.271	20.469	1222.292	957.377
190.286	20.465	1221.271	956.469
191.300	20.343	1221.298	955.736
192.315	20.473	1220.500	955.740
193.329	20.477	1219.863	955.180
194.344	20.560	1219.138	954.987
195.359	20.481	1219.126	954.454
196.373	20.452	1218.758	953.923
197.388	20.353	1218.334	952.967
198.402	20.459	1217.546	952.845
199.417	20.364	1217.290	952.038
200.432	20.547	1216.620	952.432
201.446	20.430	1215.721	951.008
202.461	20.524	1215.150	950.991
203.475	20.323	1214.617	949.390
204.490	20.383	1213.318	948.617
205.504	20.488	1211.951	948.036
206.519	20.568	1211.257	947.845
207.534	20.551	1210.072	946.744
208.548	20.549	1209.182	945.955
209.563	20.495	1208.510	945.048
210.577	20.562	1207.692	944.690
211.592	20.632	1207.040	944.477
212.607	20.586	1206.306	943.566
213.621	20.655	1205.130	942.939
214.636	20.527	1204.732	941.851
215.650	20.513	1203.847	941.000
216.665	20.584	1202.641	940.360
217.680	20.587	1202.094	939.865
218.694	20.657	1201.219	939.476
219.709	20.625	1200.497	938.652
220.723	20.595	1199.814	937.873
221.738	20.534	1198.893	936.746
222.753	20.475	1198.456	936.003
223.767	20.626	1198.085	936.442
224.782	20.645	1197.477	935.984
225.796	20.630	1196.608	935.141
226.811	20.632	1196.349	934.866
227.826	20.789	1195.659	935.090
228.840	20.675	1194.723	933.664
229.855	20.621	1194.411	933.048
230.869	20.697	1193.912	932.982
231.884	20.649	1192.970	931.907
232.899	20.685	1192.144	931.370
233.913	20.597	1191.723	930.489
234.928	20.735	1191.382	930.877
235.942	20.754	1190.409	930.140
236.957	20.703	1189.785	929.297
237.972	20.802	1188.842	929.005
238.986	20.773	1188.089	928.177
240.001	20.687	1187.880	927.474
241.015	20.794	1187.314	927.520
242.030	20.767	1186.744	926.851
243.045	20.752	1185.717	925.886
244.059	20.752	1184.919	925.184
245.074	20.839	1184.015	924.856
246.088	20.990	1183.058	924.829
247.103	20.852	1182.337	923.453
248.117	20.863	1181.554	922.816
249.132	20.845	1180.971	922.183
250.147	20.819	1180.561	921.644
251.161	20.927	1179.591	921.378
252.176	20.862	1178.785	920.321
253.190	20.963	1178.147	920.277
254.205	20.849	1178.017	919.492
255.220	20.868	1177.127	918.813
256.234	20.913	1176.453	918.443
257.249	20.956	1175.933	918.183
258.263	20.783	1175.490	916.847
259.278	20.980	1174.638	917.135
260.293	20.994	1173.965	916.606
261.307	21.001	1173.583	916.259
262.322	20.985	1172.936	915.589
263.336	20.954	1172.199	914.770
264.351	20.932	1172.105	914.502
265.366	20.960	1171.446	914.054
266.380	20.915	1170.708	913.161
267.395	20.925	1170.021	912.598
268.409	20.940	1169.451	912.152
269.424	20.819	1169.164	911.212
270.439	20.945	1168.326	911.139
271.453	21.030	1167.508	910.862
272.468	21.013	1166.404	909.832
273.482	20.911	1166.079	908.968
274.497	21.106	1165.397	909.371
275.512	21.085	1164.939	908.823
276.526	21.074	1164.123	908.046
277.541	21.010	1163.150	906.875
278.555	21.124	1163.142	907.385
279.570	21.146	1162.033	906.550
280.585	21.079	1161.417	905.643
281.599	21.194	1160.115	905.142
282.614	21.033	1160.228	904.319
283.628	21.142	1158.873	903.744
284.643	21.204	1157.694	903.068
285.657	21.146	1157.167	902.275
286.672	21.129	1156.400	901.512
287.687	21.126	1155.610	900.800
288.701	21.182	1154.763	900.348
289.716	21.243	1153.888	899.900
290.730	21.245	1153.310	899.382
291.745	21.307	1152.826	899.242
292.760	21.262	1152.673	898.814
293.774	21.331	1151.539	898.201
294.789	21.242	1151.193	897.399
295.803	21.281	1150.665	897.104
296.818	21.291	1150.040	896.588
297.833	21.269	1149.671	896.110
298.847	21.178	1149.024	895.060
299.862	21.349	1147.657	894.790
300.876	21.259	1147.222	893.911
301.891	21.248	1146.785	893.437
302.906	21.270	1146.033	892.886
303.920	21.354	1145.704	892.976
304.935	21.297	1144.949	892.018
305.949	21.345	1144.001	891.446
306.964	21.384	1143.384	891.086
307.979	21.444	1142.858	890.902
308.993	21.348	1142.277	889.883
310.008	21.435	1141.501	889.645
311.022	21.407	1140.761	888.847
312.037	21.536	1139.713	888.603
313.052	21.391	1138.990	887.225
314.066	21.336	1137.954	886.062
315.081	21.485	1137.569	886.438
316.095	21.385	1136.888	885.323
317.110	21.514	1136.092	885.279
318.125	21.465	1135.402	884.415
319.139	21.468	1135.077	884.099
320.154	21.434	1134.285	883.231
321.168	21.561	1133.860	883.464
322.183	21.474	1133.396	882.585
323.197	21.578	1132.619	882.426
324.212	21.444	1132.313	881.433
325.227	21.490	1131.499	880.954
326.241	21.614	1130.827	880.976
327.256	21.708	1130.024	880.748
328.270	21.670	1129.347	879.950
329.285	21.525	1128.657	878.607
330.300	21.697	1127.769	878.698
331.314	21.460	1127.608	877.305
332.329	21.591	1126.449	876.982
333.343	21.609	1125.341	876.135
334.358	21.706	1124.461	875.858
335.373	21.686	1123.926	875.264
336.387	21.739	1123.148	874.843
337.402	21.793	1122.581	874.593
338.416	21.763	1121.631	873.625
339.431	21.731	1121.662	873.413
340.446	21.606	1120.990	872.189
341.460	21.730	1120.195	872.113
342.475	21.764	1119.506	871.667
343.489	21.699	1118.404	870.412
344.504	21.827	1117.208	870.036
345.519	21.695	1117.044	869.178
346.533	21.708	1116.439	868.695
347.548	21.790	1115.224	868.077
348.562	21.722	1114.720	867.270
349.577	21.772	1114.077	866.942
350.592	21.737	1113.253	866.054
351.606	21.725	1112.728	865.509
352.621	21.891	1112.046	865.722
353.635	21.823	1111.679	865.024
354.650	21.955	1110.681	864.818
355.665	21.858	1110.151	863.853
356.679	21.838	1110.043	863.591
357.694	21.904	1108.794	862.872
358.708	21.945	1108.090	862.448
359.723	21.764	1107.631	861.127
360.738	21.941	1107.059	861.472
361.752	21.890	1106.565	860.763
362.767	21.823	1106.125	860.014
363.781	21.888	1105.471	859.748
364.796	22.002	1104.780	859.693
365.810	22.045	1103.970	859.199
366.825	22.007	1103.477	858.552
367.840	21.960	1103.475	858.246
368.854	21.996	1102.681	857.726
369.869	22.044	1101.754	857.164
370.883	22.101	1100.875	856.683
371.898	22.085	1100.275	856.064
372.913	21.985	1099.855	855.173
373.927	22.164	1099.148	855.419
374.942	22.157	1098.818	855.052
375.956	22.068	1098.551	854.334
376.971	22.136	1097.711	853.935
377.986	22.107	1097.115	853.258
379.000	22.119	1096.791	852.989
380.015	22.110	1096.042	852.286
381.029	22.135	1095.071	851.576
382.044	22.120	1094.729	851.164
383.059	22.328	1093.676	851.274
384.073	22.064	1093.462	849.754
385.088	22.136	1092.704	849.442
386.102	22.168	1091.438	848.537
387.117	22.149	1090.931	847.972
388.132	22.102	1090.228	847.126
389.146	22.224	1089.365	846.968
390.161	22.296	1088.451	846.529
391.175	22.338	1087.798	846.149
392.190	22.345	1087.354	845.761
393.205	22.243	1086.588	844.603
394.219	22.353	1085.511	844.217
395.234	22.198	1085.262	843.208
396.248	22.301	1084.363	842.928
397.263	22.346	1082.994	842.004
398.278	22.323	1082.618	841.525
399.292	22.485	1081.644	841.466
400.307	22.429	1081.372	840.913
401.321	22.527	1080.746	840.821
402.336	22.362	1079.853	839.266
403.350	22.422	1079.632	839.303
404.365	22.487	1078.465	838.634
405.380	22.549	1078.106	838.577
406.394	22.434	1077.184	837.238
407.409	22.472	1076.640	836.919
408.423	22.584	1076.118	836.972
409.438	22.433	1075.426	835.642
410.453	22.579	1074.492	835.537
411.467	22.485	1073.793	834.473
412.482	22.498	1073.437	834.183
413.496	22.559	1072.393	833.587
414.511	22.480	1072.122	832.929
415.526	22.471	1071.494	832.328
416.540	22.599	1070.868	832.372
417.555	22.525	1070.362	831.555
418.569	22.621	1070.053	831.692
419.584	22.616	1069.648	831.283
420.599	22.659	1069.003	830.912
421.613	148.984	1397.724	1794.616
422.628	137.271	1445.620	1794.721
