DTS Sentinel unit serial number:	SN413079Multiplexer serial number:	ORYXHardware model number:	OX4-SRSoftware version number:	ORYX F/W v4.00 Oryx Data Collector v3.7.2.0data status	okinstallation	princeton_trtdifferential loss correction	single-endedforward channel	channel 2reverse channel	N/Adate	2019/09/12time	07:17:11forward acquisition time	60.00reverse acquisition time	0.00gamma	496.2192k internal	0.2323k external	0.2323temperature offset calibration	1.0062default loss term (dB/km)	0.3790temperature slope calibration	1.0000multiplexer offset coefficient	1.0000multiplexer slope coefficient	1.0000fibre end	0.00T internal ref (°C)	32.25T ext. ref 1 (°C)	1.60T ext. ref 2 (°C)	28.41length (m)	temperature (°C)	Stokes	anti-Stokes-747.200	-200.000	0.013	0.395
-746.185	135.962	-0.141	0.185
-745.171	-124.428	0.161	-0.025
-744.156	-49.053	-0.148	0.072
-743.142	712.324	-0.025	-0.066
-742.127	-200.000	0.085	0.443
-741.112	-134.438	-0.167	0.021
-740.098	139.544	-0.091	0.121
-739.083	33.676	0.091	0.080
-738.069	-95.813	0.343	-0.092
-737.054	-7.450	-0.136	-0.093
-736.039	19.261	-0.142	0.115
-735.025	-104.168	0.081	-0.019
-734.010	177.270	-0.230	-0.338
-732.996	-89.512	0.250	-0.074
-731.981	-83.680	0.200	0.065
-730.966	280.434	-0.152	-0.274
-729.952	214.932	0.090	0.144
-728.937	-36.474	-0.092	-0.050
-727.923	246.053	0.017	-0.029
-726.908	-200.000	-0.055	-0.272
-725.894	787.399	0.033	-0.090
-724.879	-200.000	0.009	0.123
-723.864	-90.862	-0.148	-0.043
-722.850	800.000	0.066	-0.189
-721.835	-6.643	-0.356	-0.244
-720.821	-2.425	-0.207	-0.146
-719.806	-200.000	0.002	-0.176
-718.791	-200.000	0.023	0.104
-717.777	2.096	0.106	0.077
-716.762	800.000	0.026	-0.102
-715.748	-200.000	0.026	0.160
-714.733	450.319	0.013	0.030
-713.718	-138.183	0.305	0.034
-712.704	305.067	-0.110	-0.206
-711.689	251.360	0.188	-0.322
-710.675	800.000	0.040	-0.110
-709.660	-33.497	-0.117	-0.065
-708.645	-65.909	0.178	0.072
-707.631	-126.359	0.090	0.014
-706.616	-200.000	-0.042	-0.205
-705.602	-200.000	0.107	-0.503
-704.587	-200.000	0.008	-0.237
-703.572	-43.694	0.261	-0.133
-702.558	-118.886	-0.170	0.030
-701.543	30.676	-0.040	-0.034
-700.529	271.071	0.145	-0.258
-699.514	-200.000	0.083	0.411
-698.499	-200.000	0.019	0.159
-697.485	-85.619	0.382	-0.120
-696.470	-140.889	-0.119	-0.012
-695.456	-2.362	0.091	-0.065
-694.441	155.747	0.041	-0.057
-693.426	446.974	0.090	-0.201
-692.412	475.599	-0.125	-0.284
-691.397	-180.745	0.092	0.002
-690.383	-16.456	0.307	-0.196
-689.368	-47.890	0.179	-0.087
-688.354	180.510	-0.128	0.190
-687.339	88.146	-0.117	0.130
-686.324	144.102	0.131	-0.175
-685.310	-144.980	-0.134	-0.012
-684.295	270.373	0.217	-0.385
-683.281	-104.474	-0.276	0.064
-682.266	800.000	0.095	0.310
-681.251	276.134	-0.146	0.262
-680.237	92.247	0.146	-0.166
-679.222	151.902	-0.014	-0.019
-678.208	-39.227	0.195	-0.103
-677.193	800.000	-0.124	0.474
-676.178	-82.574	-0.259	0.084
-675.164	-132.196	0.026	0.003
-674.149	153.350	-0.238	-0.329
-673.135	429.804	-0.015	0.032
-672.120	121.872	-0.097	-0.122
-671.105	344.602	0.033	0.065
-670.091	-200.000	0.000	0.028
-669.076	-36.718	-0.286	0.155
-668.062	-43.549	-0.080	0.040
-667.047	77.847	-0.292	-0.313
-666.032	215.286	-0.121	-0.193
-665.018	132.394	-0.113	0.146
-664.003	-175.302	-0.190	0.005
-662.989	-200.000	-0.099	0.441
-661.974	124.257	-0.115	0.146
-660.959	57.312	-0.171	0.168
-659.945	19.789	0.051	0.041
-658.930	199.072	0.134	-0.206
-657.916	-200.000	0.022	0.122
-656.901	-200.000	0.029	-0.327
-655.886	201.858	-0.173	0.268
-654.872	-16.686	-0.068	-0.043
-653.857	254.225	0.108	-0.185
-652.843	800.000	0.042	0.138
-651.828	-4.603	0.062	0.043
-650.814	-103.652	0.356	-0.084
-649.799	94.628	0.161	0.184
-648.784	10.502	0.024	0.019
-647.770	179.670	0.149	0.220
-646.755	580.682	-0.087	-0.214
-645.741	58.725	-0.036	-0.035
-644.726	-200.000	0.004	-0.032
-643.711	124.588	0.033	0.042
-642.697	678.664	0.052	-0.137
-641.682	6.764	0.220	0.165
-640.668	628.067	-0.180	-0.457
-639.653	275.510	-0.206	-0.368
-638.638	254.619	-0.113	-0.195
-637.624	-200.000	-0.040	-0.307
-636.609	41.369	-0.383	-0.348
-635.595	336.493	0.092	-0.180
-634.580	-88.778	-0.258	-0.077
-633.565	-200.000	-0.093	0.525
-632.551	515.671	-0.024	-0.055
-631.536	800.000	-0.038	0.138
-630.522	-12.325	0.095	-0.062
-629.507	800.000	-0.022	0.061
-628.492	-56.613	-0.072	-0.032
-627.478	600.918	-0.096	-0.241
-626.463	227.861	0.053	0.086
-625.449	-7.381	-0.278	0.189
-624.434	-200.000	0.055	0.328
-623.419	181.799	-0.062	-0.091
-622.405	0.168	-0.174	-0.125
-621.390	-73.982	0.077	0.028
-620.376	17.473	0.083	0.066
-619.361	133.483	-0.163	-0.212
-618.346	-27.692	-0.302	-0.176
-617.332	153.590	0.076	-0.105
-616.317	748.510	0.039	0.105
-615.303	154.081	-0.121	-0.167
-614.288	-2.789	-0.286	0.201
-613.273	-200.000	-0.021	0.147
-612.259	800.000	0.010	0.039
-611.244	-60.317	0.222	0.095
-610.230	-200.000	0.018	0.085
-609.215	154.344	-0.125	-0.172
-608.201	149.534	-0.074	0.100
-607.186	21.712	-0.054	0.044
-606.171	88.191	0.253	-0.282
-605.157	-91.884	0.160	0.046
-604.142	-99.399	0.146	0.037
-603.128	177.920	-0.090	0.131
-602.113	130.899	0.052	-0.067
-601.098	-73.868	-0.257	0.094
-600.084	51.584	-0.222	0.212
-599.069	-81.235	0.297	-0.099
-598.055	39.841	0.081	-0.073
-597.040	-148.346	-0.294	0.024
-596.025	800.000	-0.040	0.127
-595.011	143.295	0.258	0.344
-593.996	61.775	0.126	0.126
-592.982	-72.598	0.256	-0.095
-591.967	-55.729	-0.237	-0.106
-590.952	84.555	-0.222	0.244
-589.938	100.763	-0.046	0.054
-588.923	162.692	-0.070	0.099
-587.909	230.405	0.113	0.186
-586.894	91.867	-0.044	0.049
-585.879	-129.284	-0.301	0.042
-584.865	800.000	-0.096	-0.299
-583.850	66.408	0.088	0.090
-582.836	-3.540	-0.060	-0.042
-581.821	171.446	-0.129	0.186
-580.806	88.102	0.199	0.222
-579.792	-27.487	0.211	0.123
-578.777	800.000	-0.008	-0.024
-577.763	-200.000	0.030	0.243
-576.748	757.573	0.084	-0.227
-575.733	-24.923	-0.144	-0.086
-574.719	477.992	0.142	0.323
-573.704	-113.016	-0.256	0.051
-572.690	-80.645	-0.135	0.045
-571.675	504.124	0.056	0.129
-570.661	-200.000	-0.005	-0.177
-569.646	-86.164	-0.076	0.023
-568.631	-158.496	-0.134	-0.008
-567.617	167.811	-0.120	0.171
-566.602	800.000	0.042	0.175
-565.588	221.296	-0.062	0.100
-564.573	25.588	-0.338	-0.282
-563.558	417.226	0.084	0.179
-562.544	-50.811	0.168	0.079
-561.529	-41.426	-0.223	0.115
-560.515	169.526	0.138	0.198
-559.500	39.852	-0.355	-0.319
-558.485	800.000	0.132	-0.371
-557.471	397.039	-0.084	-0.175
-556.456	-86.453	-0.139	-0.043
-555.442	-94.791	-0.613	0.167
-554.427	20.224	-0.172	-0.139
-553.412	-1.866	0.250	-0.176
-552.398	800.000	-0.031	0.095
-551.383	800.000	0.028	0.109
-550.369	-79.558	-0.199	-0.067
-549.354	-113.069	0.255	-0.050
-548.339	-200.000	-0.356	-0.002
-547.325	0.779	0.128	0.092
-546.310	-68.330	0.110	0.043
-545.296	-200.000	-0.025	0.144
-544.281	-160.098	-0.184	0.010
-543.266	-35.576	0.143	0.078
-542.252	-51.683	0.152	0.071
-541.237	800.000	-0.081	0.235
-540.223	-111.140	0.216	0.044
-539.208	-120.107	0.161	0.028
-538.193	-76.715	-0.228	-0.080
-537.179	-45.938	-0.398	0.197
-536.164	-12.562	0.226	-0.148
-535.150	-162.763	0.172	0.008
-534.135	-166.064	-0.116	-0.005
-533.121	151.698	0.063	0.086
-532.106	-137.625	-0.344	-0.039
-531.091	-200.000	-0.009	0.074
-530.077	-73.169	-0.074	-0.027
-529.062	-139.282	-0.300	0.032
-528.048	-200.000	-0.026	-0.150
-527.033	390.950	-0.084	-0.175
-526.018	-200.000	0.047	0.214
-525.004	-66.810	-0.158	0.063
-523.989	-127.250	-0.461	0.067
-522.975	166.881	0.139	-0.197
-521.960	-105.187	0.120	0.028
-520.945	800.000	0.030	-0.108
-519.931	50.474	-0.185	-0.175
-518.916	-147.930	0.231	0.019
-517.902	-9.852	0.145	-0.097
-516.887	73.776	0.102	0.107
-515.872	-109.441	-0.291	-0.062
-514.858	-200.000	0.004	-0.029
-513.843	16.751	0.114	0.090
-512.829	-138.028	-0.284	0.032
-511.814	-96.771	-0.041	-0.011
-510.799	-108.404	-0.116	-0.025
-509.785	177.874	-0.186	-0.272
-508.770	33.535	0.163	0.141
-507.756	84.974	-0.249	0.273
-506.741	-66.996	0.136	-0.054
-505.726	130.563	-0.213	-0.273
-504.712	-117.209	-0.232	-0.042
-503.697	800.000	0.009	-0.034
-502.683	-74.713	-0.313	-0.113
-501.668	59.223	0.186	-0.183
-500.653	159.273	0.078	0.109
-499.639	23.844	0.126	-0.104
-498.624	-138.060	0.355	-0.039
-497.610	-96.444	0.066	0.017
-496.595	435.573	-0.076	-0.166
-495.581	-103.462	-0.235	-0.055
-494.566	235.992	0.084	0.139
-493.551	237.779	-0.077	0.127
-492.537	677.911	-0.055	-0.142
-491.522	-22.909	0.162	0.098
-490.508	-200.000	-0.003	0.154
-489.493	-54.149	0.340	-0.154
-488.478	151.279	-0.109	-0.148
-487.464	-88.312	0.165	-0.049
-486.449	-78.618	0.344	0.117
-485.435	-181.460	0.072	0.001
-484.420	178.365	0.065	-0.094
-483.405	-114.010	0.228	0.044
-482.391	-173.730	-0.288	0.009
-481.376	15.626	0.309	0.243
-480.362	216.554	-0.140	0.222
-479.347	-102.442	-0.240	-0.057
-478.332	-16.529	-0.067	-0.042
-477.318	-200.000	0.036	-0.369
-476.303	-36.047	-0.209	0.113
-475.289	-183.601	-0.160	0.003
-474.274	-0.388	-0.032	0.023
-473.259	-54.113	0.149	0.068
-472.245	-40.118	-0.183	0.095
-471.230	-200.000	0.022	0.275
-470.216	537.187	0.070	0.167
-469.201	107.929	-0.200	-0.239
-468.186	46.019	0.247	-0.229
-467.172	112.852	0.075	0.091
-466.157	-156.297	0.096	0.006
-465.143	147.672	-0.115	-0.155
-464.128	-5.470	-0.242	0.166
-463.113	14.116	-0.165	0.129
-462.099	376.389	-0.021	-0.042
-461.084	-117.856	0.157	0.028
-460.070	-200.000	0.039	-0.183
-459.055	-16.055	-0.147	-0.093
-458.040	-200.000	0.008	0.239
-457.026	-3.476	0.190	-0.132
-456.011	-200.000	-0.022	-0.369
-454.997	-200.000	-0.018	0.098
-453.982	-22.259	0.131	-0.080
-452.968	-58.037	0.234	-0.102
-451.953	-9.519	-0.137	-0.091
-450.938	3.959	-0.362	0.264
-449.924	-55.738	-0.285	-0.127
-448.909	158.843	-0.024	0.034
-447.895	193.459	0.123	-0.186
-446.880	-115.820	0.236	0.044
-445.865	119.627	-0.124	0.153
-444.851	-142.038	0.105	-0.010
-443.836	15.807	0.264	0.207
-442.822	170.238	0.334	-0.477
-441.807	184.400	-0.251	-0.371
-440.792	-48.589	-0.191	0.092
-439.778	252.832	-0.207	0.352
-438.763	-97.301	-0.116	-0.030
-437.749	-50.684	0.117	-0.055
-436.734	-200.000	0.014	0.490
-435.719	-16.886	0.053	0.033
-434.705	800.000	-0.010	-0.032
-433.690	-200.000	0.016	-0.120
-432.676	251.261	-0.125	-0.212
-431.661	-173.181	0.091	0.003
-430.646	-200.000	-0.025	-0.323
-429.632	800.000	0.039	0.150
-428.617	141.212	0.192	-0.253
-427.603	-24.390	-0.157	0.094
-426.588	96.974	0.227	0.260
-425.573	200.917	0.129	0.198
-424.559	105.738	-0.230	-0.271
-423.544	-69.061	0.212	-0.081
-422.530	-200.000	0.018	0.306
-421.515	-200.000	0.031	-0.206
-420.500	-53.145	0.272	-0.125
-419.486	-200.000	0.062	0.315
-418.471	-143.749	-0.156	0.015
-417.457	-90.403	0.151	0.044
-416.442	-200.000	0.022	0.167
-415.428	-200.000	0.039	0.175
-414.413	185.825	-0.076	-0.113
-413.398	157.916	0.269	-0.371
-412.384	400.453	0.136	-0.285
-411.369	94.813	-0.113	0.128
-410.355	-101.425	0.224	0.054
-409.340	-200.000	0.004	0.085
-408.325	52.675	-0.077	0.073
-407.311	783.705	-0.028	0.075
-406.296	-109.281	0.049	0.010
-405.282	502.838	-0.105	-0.242
-404.267	-91.929	-0.162	-0.046
-403.252	706.493	-0.063	-0.165
-402.238	-66.127	-0.334	0.133
-401.223	24.782	0.210	-0.174
-400.209	222.280	-0.142	-0.228
-399.194	257.546	0.122	0.210
-398.179	-185.728	-0.233	-0.003
-397.165	113.241	-0.074	0.089
-396.150	178.503	-0.059	-0.086
-395.136	18.771	0.131	0.105
-394.121	-169.068	-0.074	-0.003
-393.106	-13.482	-0.107	0.069
-392.092	70.978	0.167	-0.172
-391.077	458.346	0.042	-0.092
-390.063	-51.181	0.228	0.106
-389.048	310.207	0.076	-0.142
-388.033	-200.000	0.050	0.330
-387.019	-129.961	-0.225	-0.031
-386.004	702.424	0.125	-0.328
-384.990	17.046	-0.191	-0.151
-383.975	59.145	-0.050	0.049
-382.960	128.349	0.127	-0.161
-381.946	707.330	0.121	0.317
-380.931	673.616	-0.080	-0.206
-379.917	470.214	0.111	0.248
-378.902	-200.000	-0.001	-0.078
-377.888	55.828	-0.160	-0.155
-376.873	-200.000	-0.037	0.215
-375.858	800.000	-0.091	0.332
-374.844	-71.260	-0.237	0.089
-373.829	-14.355	0.251	0.161
-372.815	-156.299	0.257	-0.016
-371.800	800.000	0.071	-0.288
-370.785	-200.000	0.022	0.179
-369.771	-138.568	0.454	0.050
-368.756	-200.000	-0.024	-0.379
-367.742	800.000	0.009	0.029
-366.727	-132.633	-0.132	-0.017
-365.712	800.000	-0.013	-0.056
-364.698	303.311	0.049	-0.090
-363.683	-200.000	-0.048	-0.228
-362.669	0.469	0.056	-0.040
-361.654	-35.357	-0.343	0.185
-360.639	-54.287	0.199	-0.090
-359.625	92.462	-0.179	-0.201
-358.610	-77.075	0.307	0.106
-357.596	43.783	0.159	-0.145
-356.581	-200.000	0.040	0.259
-355.566	604.285	0.028	0.068
-354.552	800.000	-0.016	0.046
-353.537	800.000	-0.141	0.445
-352.523	118.790	0.145	0.178
-351.508	122.913	0.174	-0.217
-350.493	43.529	-0.097	0.088
-349.479	800.000	-0.073	-0.252
-348.464	-200.000	0.059	-0.280
-347.450	-51.480	0.360	-0.167
-346.435	-199.510	0.251	0.001
-345.420	-106.328	-0.196	-0.044
-344.406	800.000	-0.068	-0.201
-343.391	-200.000	0.012	0.075
-342.377	-105.304	0.329	-0.075
-341.362	-200.000	-0.062	0.594
-340.348	800.000	-0.060	0.205
-339.333	-71.691	0.171	-0.063
-338.318	-86.923	0.389	-0.118
-337.304	113.778	0.165	0.199
-336.289	234.074	0.126	0.207
-335.275	-63.248	-0.477	-0.195
-334.260	541.788	-0.079	-0.188
-333.245	-116.957	0.178	-0.032
-332.231	-200.000	-0.042	0.283
-331.216	34.111	0.252	-0.218
-330.202	-200.000	-0.057	-0.457
-329.187	100.820	0.105	0.122
-328.172	800.000	0.057	0.164
-327.158	-50.033	0.116	-0.055
-326.143	299.622	-0.099	-0.182
-325.129	99.915	-0.159	0.183
-324.114	-22.337	0.073	0.044
-323.099	-153.853	-0.171	0.012
-322.085	-10.967	-0.158	-0.104
-321.070	-135.837	0.246	0.029
-320.056	72.545	-0.136	0.141
-319.041	274.307	0.089	0.156
-318.026	800.000	-0.070	-0.217
-317.012	-166.638	-0.369	-0.015
-315.997	514.105	-0.102	-0.236
-314.983	-200.000	-0.027	-0.179
-313.968	19.084	-0.138	0.110
-312.953	-26.337	-0.076	-0.044
-311.939	-116.379	-0.100	-0.018
-310.924	19.378	-0.146	-0.117
-309.910	32.015	0.315	-0.269
-308.895	-155.357	0.303	-0.019
-307.880	71.959	0.071	0.074
-306.866	-63.260	-0.122	0.050
-305.851	-93.961	0.311	0.085
-304.837	202.621	0.066	-0.101
-303.822	-136.823	-0.170	0.019
-302.807	-200.000	0.035	-0.270
-301.793	-75.780	-0.376	0.132
-300.778	253.923	0.088	0.150
-299.764	800.000	-0.030	-0.104
-298.749	-170.115	0.200	-0.007
-297.735	189.708	0.085	-0.126
-296.720	-108.163	0.246	-0.053
-295.705	289.271	0.113	0.204
-294.691	12.462	-0.081	-0.062
-293.676	121.806	0.155	0.191
-292.662	24.438	-0.190	-0.156
-291.647	37.614	0.219	0.192
-290.632	-75.072	0.096	0.034
-289.618	800.000	-0.060	0.251
-288.603	-140.663	-0.187	0.019
-287.589	109.889	0.181	0.215
-286.574	-70.053	0.067	0.025
-285.559	-168.419	-0.100	0.004
-284.545	107.494	0.187	-0.221
-283.530	226.565	0.071	0.115
-282.516	85.572	0.250	0.272
-281.501	597.230	0.066	-0.163
-280.486	-83.400	0.358	-0.114
-279.472	-200.000	0.022	-0.296
-278.457	274.080	0.177	0.310
-277.443	-74.015	0.121	0.044
-276.428	-56.523	0.109	0.048
-275.413	800.000	0.105	-0.327
-274.399	-16.878	0.208	0.130
-273.384	205.204	-0.215	-0.330
-272.370	50.743	-0.070	0.065
-271.355	3.723	-0.092	0.067
-270.340	10.630	-0.291	0.220
-269.326	-140.337	-0.151	0.016
-268.311	-200.000	0.017	-0.668
-267.297	-23.431	0.049	-0.029
-266.282	-50.738	0.198	-0.092
-265.267	120.371	0.251	0.309
-264.253	-101.769	-0.272	-0.065
-263.238	-115.042	0.452	-0.085
-262.224	800.000	-0.071	-0.252
-261.209	-94.927	-0.237	-0.064
-260.195	586.468	0.147	-0.358
-259.180	-117.610	0.206	0.037
-258.165	-200.000	-0.075	-0.338
-257.151	-64.456	-0.109	0.044
-256.136	281.971	0.100	0.177
-255.122	-13.994	0.207	0.132
-254.107	-200.000	-0.044	0.409
-253.092	-200.000	0.010	0.091
-252.078	550.355	0.021	-0.050
-251.063	-200.000	-0.013	-0.113
-250.049	-100.868	0.159	-0.039
-249.034	-69.193	-0.089	-0.034
-248.019	-142.235	0.264	0.026
-247.005	-81.534	0.232	-0.076
-245.990	36.953	-0.283	0.248
-244.976	-200.000	-0.057	-0.387
-243.961	63.773	-0.137	-0.136
-242.946	-188.666	0.210	-0.003
-241.932	-37.756	0.490	0.258
-240.917	-100.549	0.234	0.057
-239.903	99.739	-0.209	0.239
-238.888	694.031	-0.210	-0.545
-237.873	-23.287	0.198	0.118
-236.859	-200.000	0.115	0.568
-235.844	-3.307	-0.237	0.164
-234.830	800.000	-0.141	-0.405
-233.815	-131.480	-0.247	0.032
-232.800	-90.824	-0.335	-0.096
-231.786	291.291	-0.180	-0.324
-230.771	-200.000	-0.015	-0.144
-229.757	-79.042	-0.131	-0.044
-228.742	-12.082	0.237	-0.153
-227.727	94.698	-0.102	-0.115
-226.713	-200.000	0.008	0.221
-225.698	-200.000	0.035	0.195
-224.684	-24.048	0.202	0.119
-223.669	-169.768	-0.110	-0.004
-222.655	94.733	0.176	0.198
-221.640	-200.000	0.023	0.274
-220.625	476.796	-0.101	-0.225
-219.611	-82.758	-0.121	0.039
-218.596	-82.780	0.121	-0.039
-217.582	-200.000	-0.038	0.250
-216.567	340.832	-0.143	0.276
-215.552	800.000	-0.157	-0.478
-214.538	140.888	0.206	0.269
-213.523	247.449	-0.010	0.016
-212.509	-130.343	-0.056	0.008
-211.494	-200.000	0.000	0.121
-210.479	52.957	-0.197	-0.186
-209.465	112.458	-0.095	0.114
-208.450	103.677	0.077	-0.089
-207.436	-200.000	0.057	0.371
-206.421	800.000	0.128	-0.366
-205.406	-47.608	-0.175	-0.084
-204.392	448.059	-0.048	0.104
-203.377	33.973	-0.086	-0.074
-202.363	800.000	-0.040	0.125
-201.348	800.000	0.066	-0.275
-200.333	20.097	-0.107	0.085
-199.319	-94.983	-0.091	-0.024
-198.304	-200.000	-0.017	-0.197
-197.290	280.656	0.194	-0.343
-196.275	-108.276	0.289	0.062
-195.260	-97.441	0.259	-0.067
-194.246	-200.000	-0.019	0.337
-193.231	-91.378	0.570	0.161
-192.217	313.695	-0.033	0.061
-191.202	-200.000	0.066	-0.338
-190.187	339.365	0.069	-0.134
-189.173	49.051	-0.119	0.111
-188.158	498.017	-0.142	-0.322
-187.144	800.000	0.127	0.357
-186.129	32.895	0.188	0.161
-185.114	800.000	-0.023	0.086
-184.100	781.834	-0.110	0.297
-183.085	-69.951	-0.139	0.052
-182.071	132.169	0.204	0.260
-181.056	6.416	0.202	0.148
-180.042	519.934	-0.064	-0.148
-179.027	-200.000	-0.074	0.414
-178.012	-114.119	0.230	0.044
-176.998	63.151	0.114	0.113
-175.983	16.061	-0.201	0.156
-174.969	124.513	0.169	0.210
-173.954	84.581	-0.056	0.061
-172.939	-156.189	-0.061	0.004
-171.925	200.408	-0.089	0.135
-170.910	627.959	-0.139	-0.346
-169.896	-200.000	-0.077	-0.342
-168.881	800.000	-0.079	0.259
-167.866	-84.639	0.242	-0.075
-166.852	-33.437	0.197	-0.107
-165.837	-200.000	-0.004	0.047
-164.823	-88.260	-0.164	0.048
-163.808	-65.351	0.259	0.103
-162.793	-10.003	0.037	-0.024
-161.779	-81.955	0.301	0.097
-160.764	182.200	-0.196	0.285
-159.750	-200.000	0.015	0.108
-158.735	-200.000	-0.011	-0.091
-157.720	-47.502	-0.320	-0.154
-156.706	-200.000	-0.069	0.369
-155.691	519.516	0.068	-0.156
-154.677	-200.000	-0.056	-0.244
-153.662	-7.574	-0.297	-0.198
-152.647	800.000	-0.057	-0.224
-151.633	-200.000	-0.051	0.295
-150.618	-42.346	0.070	-0.035
-149.604	-119.502	0.193	0.033
-148.589	529.196	-0.053	0.124
-147.574	-200.000	0.044	0.430
-146.560	119.077	-0.213	0.260
-145.545	-105.349	-0.109	-0.025
-144.531	800.000	-0.078	-0.276
-143.516	-200.000	0.038	0.267
-142.502	36.595	0.200	-0.174
-141.487	-73.978	-0.266	0.095
-140.472	227.459	-0.122	0.196
-139.458	-200.000	0.047	0.235
-138.443	-2.893	0.288	0.198
-137.429	52.375	0.306	0.288
-136.414	64.605	0.105	0.104
-135.399	-65.338	-0.203	-0.080
-134.385	124.593	0.251	-0.311
-133.370	96.232	0.097	-0.109
-132.356	-138.535	-0.255	-0.028
-131.341	-134.553	0.385	0.046
-130.326	-65.287	0.092	0.036
-129.312	519.625	0.266	-0.614
-128.297	-33.791	-0.344	0.187
-127.283	800.000	0.159	0.453
-126.268	285.386	-0.022	0.039
-125.253	12.257	-0.165	0.125
-124.239	134.480	0.094	0.120
-123.224	257.555	-0.238	0.404
-122.210	800.000	0.086	0.334
-121.195	-141.021	0.254	-0.026
-120.180	209.117	0.152	-0.234
-119.166	186.528	0.241	0.353
-118.151	94.363	0.082	-0.092
-117.137	-101.424	-0.464	0.111
-116.122	-70.884	-0.339	0.126
-115.107	-200.000	-0.072	0.400
-114.093	-105.514	0.165	0.037
-113.078	800.000	0.032	-0.131
-112.064	-200.000	-0.003	-0.398
-111.049	-118.904	0.284	0.049
-110.034	-200.000	-0.000	-0.032
-109.020	27.031	0.139	0.115
-108.005	-80.674	0.157	-0.052
-106.991	-32.227	-0.320	0.176
-105.976	-200.000	0.009	0.152
-104.962	334.815	0.016	-0.030
-103.947	-100.000	0.466	0.115
-102.932	604.438	0.031	-0.077
-101.918	149.337	0.151	0.202
-100.903	-81.543	-0.566	-0.183
-99.889	75.242	0.139	-0.144
-98.874	37.696	0.065	-0.056
-97.859	103.350	-0.014	-0.016
-96.845	89.279	-0.087	0.095
-95.830	-111.449	-0.074	0.015
-94.816	-53.011	-0.208	0.094
-93.801	-200.000	0.018	-0.305
-92.786	12.739	-0.113	-0.086
-91.772	-200.000	0.014	-0.247
-90.757	-170.821	0.214	0.007
-89.743	-200.000	0.024	-0.145
-88.728	-83.582	-0.275	0.087
-87.713	-60.419	0.201	0.084
-86.699	-128.918	0.205	0.028
-85.684	191.168	0.050	0.074
-84.670	-74.292	0.069	-0.024
-83.655	-200.000	0.010	0.045
-82.640	-200.000	-0.084	0.000
-81.626	-80.783	-0.090	-0.029
-80.611	-200.000	-0.023	0.226
-79.597	756.779	-0.052	0.138
-78.582	430.550	-0.086	-0.184
-77.567	800.000	0.080	-0.302
-76.553	-162.952	0.051	-0.002
-75.538	-148.757	0.254	0.020
-74.524	32.655	-0.110	-0.093
-73.509	-132.922	0.205	-0.026
-72.494	-107.346	0.058	0.013
-71.480	-200.000	-0.003	0.134
-70.465	179.621	0.096	0.139
-69.451	-101.561	0.269	-0.064
-68.436	-170.166	0.152	0.005
-67.422	120.855	0.041	0.050
-66.407	800.000	0.026	-0.101
-65.392	-128.227	0.461	-0.065
-64.378	319.022	0.080	-0.150
-63.363	-200.000	-0.049	0.253
-62.349	-200.000	-0.069	0.444
-61.334	52.810	-0.809	-0.760
-60.319	220.831	0.416	0.656
-59.305	325.580	-0.569	-1.071
-58.290	448.640	0.531	1.150
-57.276	520.611	0.602	1.388
-56.261	-200.000	96.481	592.283
-55.246	560.421	1384.616	3287.909
-54.232	158.416	2571.503	3507.003
-53.217	106.690	2275.569	2653.508
-52.203	41.729	1899.144	1691.304
-51.188	35.526	1688.155	1456.487
-50.173	32.853	1644.167	1398.696
-49.159	50.443	1690.914	1570.962
-48.144	52.038	1707.437	1598.220
-47.130	35.018	1667.962	1435.031
-46.115	32.390	1653.257	1402.760
-45.100	32.261	1648.506	1397.710
-44.086	32.168	1645.991	1394.830
-43.071	32.171	1642.700	1392.013
-42.057	32.154	1640.554	1390.014
-41.042	32.088	1639.019	1388.171
-40.027	32.205	1636.826	1387.119
-39.013	32.146	1634.778	1384.893
-37.998	32.083	1633.910	1383.638
-36.984	32.205	1631.664	1382.578
-35.969	32.245	1630.599	1381.920
-34.954	32.214	1629.126	1380.383
-33.940	32.252	1627.186	1378.966
-32.925	32.251	1625.370	1377.366
-31.911	32.254	1623.739	1375.950
-30.896	32.196	1622.172	1374.144
-29.881	32.188	1620.836	1372.897
-28.867	32.246	1618.812	1371.553
-27.852	32.207	1617.573	1370.166
-26.838	32.278	1615.806	1369.130
-25.823	32.205	1614.583	1367.510
-24.809	32.209	1613.328	1366.422
-23.794	32.264	1611.265	1365.021
-22.779	32.328	1609.862	1364.237
-21.765	32.209	1608.962	1362.563
-20.750	32.359	1606.926	1361.868
-19.736	32.327	1605.285	1360.194
-18.721	32.275	1604.427	1359.038
-17.706	32.364	1602.333	1357.849
-16.692	32.189	1601.852	1356.127
-15.677	32.245	1599.991	1354.901
-14.663	32.371	1598.185	1354.221
-13.648	32.257	1597.482	1352.751
-12.633	32.311	1595.424	1351.348
-11.619	32.280	1594.278	1350.099
-10.604	32.330	1592.484	1348.883
-9.590	32.259	1591.079	1347.134
-8.575	32.394	1589.783	1346.946
-7.560	32.299	1588.886	1345.455
-6.546	32.279	1587.683	1344.242
-5.531	32.235	1586.724	1343.057
-4.517	32.354	1585.121	1342.498
-3.502	32.246	1584.451	1341.110
-2.487	32.333	1582.773	1340.254
-1.473	32.126	1570.880	1328.670
-0.458	29.625	1552.356	1295.438
0.556	26.223	1553.613	1266.673
1.571	24.049	1577.595	1270.615
2.586	23.584	1590.697	1277.709
3.600	20.657	1535.853	1213.161
4.615	11.118	1423.943	1062.700
5.629	3.110	1358.295	963.602
6.644	1.753	1350.633	949.629
7.659	1.644	1349.053	947.753
8.673	1.560	1347.750	946.230
9.688	1.443	1346.681	944.667
10.702	1.245	1343.149	940.882
11.717	4.702	1350.047	967.145
12.731	14.869	1369.412	1044.765
13.746	23.541	1384.514	1110.738
14.761	25.970	1386.998	1127.851
15.775	26.227	1387.652	1129.892
16.790	26.363	1386.747	1129.903
17.804	26.417	1385.954	1129.491
18.819	26.646	1386.166	1130.997
19.834	26.779	1385.484	1131.167
20.848	26.859	1384.594	1130.845
21.863	26.780	1383.429	1129.296
22.877	26.785	1382.656	1128.601
23.892	26.697	1382.342	1127.697
24.907	26.820	1381.528	1127.695
25.921	26.841	1379.610	1126.162
26.936	26.749	1379.251	1125.197
27.950	26.756	1378.377	1124.430
28.965	26.751	1377.003	1123.175
29.980	26.773	1375.788	1122.225
30.994	26.779	1374.493	1121.106
32.009	26.724	1373.804	1120.106
33.023	26.868	1371.903	1119.341
34.038	26.701	1371.188	1117.633
35.053	26.774	1370.388	1117.328
36.067	26.747	1369.592	1116.416
37.082	26.687	1368.491	1115.048
38.096	26.752	1368.016	1114.966
39.111	26.753	1367.289	1114.279
40.126	26.700	1366.449	1113.166
41.140	26.780	1365.629	1112.892
42.155	26.742	1365.625	1112.557
43.169	26.825	1365.207	1112.628
44.184	26.632	1365.329	1111.445
45.199	26.794	1364.833	1111.940
46.213	26.774	1364.164	1111.174
47.228	26.751	1363.511	1110.401
48.242	26.679	1362.184	1108.783
49.257	26.759	1360.610	1107.890
50.271	26.791	1358.881	1106.582
51.286	26.794	1357.800	1105.621
52.301	26.721	1356.711	1104.191
53.315	26.754	1355.951	1103.674
54.330	26.813	1354.945	1103.116
55.344	26.770	1353.919	1101.921
56.359	26.730	1352.558	1100.477
57.374	26.706	1352.336	1100.050
58.388	26.643	1351.883	1099.204
59.403	26.845	1351.349	1099.898
60.417	26.719	1350.472	1098.323
61.432	26.723	1349.532	1097.483
62.447	26.730	1349.042	1097.032
63.461	26.800	1347.579	1096.170
64.476	26.763	1346.959	1095.345
65.490	26.829	1345.374	1094.359
66.505	26.749	1343.868	1092.553
67.520	26.706	1343.094	1091.564
68.534	26.777	1342.007	1091.016
69.549	26.777	1341.033	1090.128
70.563	26.782	1340.170	1089.358
71.578	26.694	1339.439	1088.141
72.593	26.877	1338.284	1088.202
73.607	26.686	1338.431	1087.082
74.622	26.817	1337.238	1086.800
75.636	26.825	1336.266	1085.961
76.651	26.805	1335.750	1085.324
77.666	26.889	1334.855	1085.008
78.680	26.764	1334.975	1084.258
79.695	26.702	1334.190	1083.155
80.709	26.768	1333.042	1082.524
81.724	26.781	1332.410	1081.990
82.739	26.738	1331.453	1080.861
83.753	26.806	1330.455	1080.361
84.768	26.708	1329.390	1078.819
85.782	26.749	1328.506	1078.250
86.797	26.944	1326.586	1077.752
87.812	26.732	1326.384	1076.234
88.826	26.829	1324.998	1075.588
89.841	26.837	1324.189	1074.885
90.855	26.870	1323.011	1074.030
91.870	26.831	1321.992	1072.878
92.884	26.863	1321.280	1072.391
93.899	26.797	1320.629	1071.378
94.914	26.807	1320.049	1070.874
95.928	26.882	1319.256	1070.579
96.943	26.810	1318.697	1069.604
97.957	26.884	1317.505	1068.976
98.972	26.855	1316.801	1068.145
99.987	26.773	1315.885	1066.824
101.001	26.824	1315.323	1066.573
102.016	26.816	1314.116	1065.451
103.030	26.861	1313.299	1064.959
104.045	26.902	1312.201	1064.217
105.060	26.850	1311.603	1063.330
106.074	26.853	1310.497	1062.358
107.089	26.907	1309.665	1061.904
108.103	26.996	1307.816	1060.832
109.118	26.984	1306.933	1059.954
110.133	26.879	1306.441	1058.848
111.147	26.854	1305.352	1057.723
112.162	26.900	1304.289	1057.036
113.176	26.915	1303.326	1056.253
114.191	27.027	1302.006	1055.743
115.206	26.952	1301.118	1054.490
116.220	26.869	1299.978	1052.989
117.235	26.881	1299.160	1052.302
118.249	26.852	1299.110	1052.001
119.264	26.919	1297.469	1050.971
120.279	26.906	1296.985	1050.407
121.293	26.950	1296.209	1049.940
122.308	27.003	1294.990	1049.170
123.322	26.984	1294.358	1048.453
124.337	26.940	1293.570	1047.466
125.352	27.033	1292.531	1047.072
126.366	26.929	1291.804	1045.792
127.381	26.898	1291.299	1045.108
128.395	27.015	1289.949	1044.599
129.410	26.958	1289.883	1044.122
130.424	26.942	1288.417	1042.756
131.439	26.902	1287.687	1041.842
132.454	26.946	1286.963	1041.415
133.468	26.943	1286.078	1040.590
134.483	27.002	1285.726	1040.549
135.497	26.939	1285.140	1039.625
136.512	26.952	1283.968	1038.656
137.527	26.985	1282.450	1037.524
138.541	26.947	1281.233	1036.236
139.556	26.928	1280.398	1035.357
140.570	26.903	1279.682	1034.546
141.585	26.974	1278.739	1034.094
142.600	26.998	1277.407	1033.065
143.614	26.934	1276.505	1031.877
144.629	26.850	1275.977	1030.883
145.643	26.933	1274.547	1030.108
146.658	26.838	1273.938	1028.988
147.673	26.839	1272.950	1028.099
148.687	26.971	1271.759	1027.796
149.702	26.913	1270.806	1026.607
150.716	26.862	1269.684	1025.321
151.731	26.874	1269.071	1024.804
152.746	26.804	1268.101	1023.536
153.760	26.976	1266.702	1023.287
154.775	26.960	1265.822	1022.394
155.789	26.981	1264.785	1021.583
156.804	26.996	1263.945	1020.896
157.819	26.957	1263.184	1019.972
158.833	26.988	1262.000	1019.101
159.848	27.096	1261.357	1019.099
160.862	26.992	1261.092	1018.213
161.877	26.962	1260.203	1017.235
162.892	27.121	1258.722	1016.838
163.906	27.060	1258.452	1016.192
164.921	27.140	1257.441	1015.731
165.935	27.053	1257.325	1015.063
166.950	27.046	1256.624	1014.368
167.964	27.086	1255.838	1013.868
168.979	27.008	1255.230	1012.850
169.994	27.064	1254.638	1012.595
171.008	27.167	1253.707	1012.327
172.023	27.180	1252.842	1011.613
173.037	27.154	1252.291	1010.934
174.052	27.160	1251.572	1010.297
175.067	27.096	1250.812	1009.237
176.081	27.141	1250.237	1008.937
177.096	26.993	1250.035	1007.859
178.110	27.064	1248.657	1007.057
179.125	27.162	1247.178	1006.316
180.140	27.144	1246.240	1005.369
181.154	26.978	1245.804	1004.011
182.169	27.168	1244.165	1003.650
183.183	27.102	1243.244	1002.453
184.198	27.114	1242.384	1001.736
185.213	27.123	1241.449	1000.945
186.227	27.159	1240.689	1000.443
187.242	27.113	1239.586	999.210
188.256	27.179	1238.843	998.885
189.271	27.190	1238.091	998.253
190.286	27.138	1237.174	997.141
191.300	27.171	1237.024	997.113
192.315	27.158	1235.935	996.073
193.329	27.251	1235.766	996.356
194.344	27.281	1235.215	995.990
195.359	27.241	1234.939	995.460
196.373	27.089	1234.848	994.468
197.388	27.140	1234.120	994.075
198.402	27.094	1233.861	993.527
199.417	27.145	1233.247	993.220
200.432	27.162	1232.391	992.536
201.446	27.147	1232.096	992.128
202.461	27.204	1231.235	991.656
203.475	27.102	1230.838	990.695
204.490	27.180	1229.495	989.950
205.504	27.082	1228.738	988.723
206.519	27.078	1228.177	988.159
207.534	27.303	1226.707	988.115
208.548	27.287	1225.581	987.030
209.563	27.216	1225.448	986.452
210.577	27.123	1224.546	985.136
211.592	27.291	1223.599	985.195
212.607	27.309	1222.544	984.354
213.621	27.249	1222.328	983.769
214.636	27.309	1221.407	983.266
215.650	27.332	1220.268	982.389
216.665	27.298	1219.289	981.329
217.680	27.278	1218.552	980.542
218.694	27.352	1217.830	980.271
219.709	27.297	1217.036	979.248
220.723	27.338	1216.509	978.959
221.738	27.338	1215.661	978.190
222.753	27.307	1214.691	977.159
223.767	27.293	1214.225	976.621
224.782	27.394	1213.606	976.579
225.796	27.335	1213.357	975.976
226.811	27.303	1212.940	975.382
227.826	27.438	1212.352	975.545
228.840	27.502	1211.664	975.249
229.855	27.368	1211.097	973.990
230.869	27.392	1210.542	973.584
231.884	27.419	1209.713	972.977
232.899	27.443	1208.446	972.000
233.913	27.318	1208.389	971.201
234.928	27.472	1207.997	971.619
235.942	27.503	1207.011	970.905
236.957	27.578	1205.938	970.356
237.972	27.472	1205.822	969.610
238.986	27.396	1205.105	968.545
240.001	27.456	1204.803	968.536
241.015	27.608	1203.841	968.485
242.030	27.647	1202.859	967.817
243.045	27.719	1201.831	967.284
244.059	27.594	1201.248	966.068
245.074	27.519	1200.619	965.079
246.088	27.691	1199.591	965.079
247.103	27.497	1199.029	963.513
248.117	27.609	1198.419	963.531
249.132	27.563	1197.607	962.549
250.147	27.663	1196.848	962.385
251.161	27.620	1196.326	961.653
252.176	27.596	1195.878	961.078
253.190	27.687	1194.923	960.704
254.205	27.624	1194.578	960.012
255.220	27.627	1193.918	959.411
256.234	27.676	1193.266	959.064
257.249	27.699	1192.480	958.463
258.263	27.662	1191.499	957.400
259.278	27.658	1191.276	957.114
260.293	27.756	1190.747	957.119
261.307	27.667	1190.722	956.545
262.322	27.659	1189.823	955.699
263.336	27.803	1188.850	955.585
264.351	27.646	1188.832	954.665
265.366	27.591	1188.115	953.718
266.380	27.736	1187.199	953.654
267.395	27.592	1186.883	952.563
268.409	27.699	1185.902	952.252
269.424	27.768	1185.497	952.199
270.439	27.671	1185.151	951.333
271.453	27.901	1184.125	951.622
272.468	27.844	1183.126	950.439
273.482	27.629	1182.473	948.714
274.497	27.747	1182.214	949.032
275.512	27.864	1181.700	949.147
276.526	27.902	1180.924	948.635
277.541	27.862	1180.161	947.731
278.555	27.855	1179.725	947.263
279.570	27.941	1178.400	946.557
280.585	27.802	1178.050	945.477
281.599	27.902	1177.393	945.381
282.614	27.827	1176.221	943.969
283.628	27.748	1176.025	943.319
284.643	27.876	1174.707	942.839
285.657	27.795	1173.890	941.683
286.672	27.800	1173.221	941.086
287.687	27.822	1172.594	940.615
288.701	27.892	1171.827	940.277
289.716	27.990	1170.861	939.926
290.730	27.914	1170.518	939.176
291.745	27.936	1169.706	938.550
292.760	27.938	1169.025	937.932
293.774	28.000	1168.812	938.000
294.789	27.999	1168.090	937.329
295.803	27.937	1167.817	936.709
296.818	28.008	1166.993	936.332
297.833	27.987	1166.363	935.636
298.847	28.064	1165.134	934.957
299.862	28.100	1164.677	934.695
300.876	28.051	1164.019	933.835
301.891	28.025	1163.798	933.440
302.906	28.084	1163.057	933.066
303.920	28.130	1162.247	932.566
304.935	28.198	1161.563	932.281
305.949	28.010	1161.138	930.902
306.964	28.063	1160.955	930.943
307.979	28.114	1160.038	930.384
308.993	28.252	1159.006	930.174
310.008	28.248	1158.120	929.359
311.022	28.185	1157.820	928.717
312.037	28.146	1156.998	927.780
313.052	28.156	1156.061	926.994
314.066	28.144	1155.226	926.186
315.081	28.153	1154.721	925.744
316.095	28.132	1154.114	925.066
317.110	28.194	1153.033	924.432
318.125	28.256	1152.851	924.518
319.139	28.141	1152.241	923.368
320.154	28.139	1151.860	922.972
321.168	28.288	1150.681	922.696
322.183	28.222	1150.456	922.098
323.197	28.203	1149.912	921.487
324.212	28.187	1149.130	920.697
325.227	28.234	1148.906	920.672
326.241	28.302	1148.079	920.269
327.256	28.417	1147.415	920.234
328.270	28.265	1146.669	918.793
329.285	28.297	1145.973	918.312
330.300	28.379	1144.679	917.606
331.314	28.349	1144.337	917.100
332.329	28.305	1143.579	916.189
333.343	28.389	1142.867	915.960
334.358	28.394	1141.929	915.153
335.373	28.371	1141.861	914.900
336.387	28.509	1140.652	914.540
337.402	28.599	1140.106	914.472
338.416	28.409	1139.752	913.157
339.431	28.421	1138.908	912.461
340.446	28.571	1138.283	912.624
341.460	28.428	1137.600	911.289
342.475	28.515	1137.072	911.217
343.489	28.560	1135.696	910.256
344.504	28.440	1134.868	908.918
345.519	28.510	1134.025	908.508
346.533	28.599	1133.499	908.444
347.548	28.520	1132.794	907.412
348.562	28.722	1131.685	907.442
349.577	28.566	1131.502	906.440
350.592	28.581	1130.290	905.463
351.606	28.468	1129.848	904.473
352.621	28.398	1129.922	904.109
353.635	28.633	1128.802	904.291
354.650	28.700	1128.196	904.053
355.665	28.654	1127.897	903.507
356.679	28.627	1127.224	902.755
357.694	28.633	1126.539	902.157
358.708	28.645	1125.911	901.633
359.723	28.599	1125.102	900.679
360.738	28.714	1124.164	900.411
361.752	28.668	1123.607	899.660
362.767	28.777	1123.239	899.823
363.781	28.783	1122.943	899.534
364.796	28.807	1122.048	898.853
365.810	28.755	1121.779	898.304
366.825	28.730	1121.105	897.565
367.840	28.888	1120.629	897.875
368.854	28.734	1120.456	896.904
369.869	28.780	1119.318	896.141
370.883	28.810	1118.466	895.522
371.898	28.762	1117.726	894.619
372.913	28.756	1117.122	894.028
373.927	28.866	1116.944	894.339
374.942	28.856	1116.637	893.966
375.956	28.954	1116.001	893.854
376.971	29.022	1115.292	893.536
377.986	28.897	1114.904	892.539
379.000	28.915	1114.419	892.163
380.015	29.030	1113.540	891.935
381.029	28.882	1113.283	890.936
382.044	28.970	1112.239	890.448
383.059	29.024	1111.645	890.153
384.073	29.078	1110.888	889.727
385.088	28.975	1110.261	888.651
386.102	29.043	1109.326	888.150
387.117	29.014	1108.579	887.336
388.132	28.902	1107.866	886.146
389.146	29.041	1107.102	886.124
390.161	29.009	1106.308	885.258
391.175	28.887	1106.046	884.381
392.190	29.216	1104.974	885.029
393.205	28.945	1104.882	883.574
394.219	29.082	1103.965	883.420
395.234	29.118	1103.062	882.791
396.248	29.215	1102.020	882.347
397.263	29.188	1101.034	881.348
398.278	29.180	1100.731	880.987
399.292	29.161	1100.387	880.544
400.307	29.163	1099.692	879.922
401.321	29.179	1098.954	879.329
402.336	29.198	1098.074	878.636
403.350	29.218	1097.339	878.065
404.365	29.296	1097.161	878.216
405.380	29.290	1096.461	877.554
406.394	29.170	1096.058	876.582
407.409	29.287	1095.180	876.359
408.423	29.448	1094.225	876.279
409.438	29.368	1093.719	875.419
410.453	29.371	1092.867	874.671
411.467	29.437	1091.918	874.150
412.482	29.279	1091.784	873.215
413.496	29.333	1090.912	872.697
414.511	29.404	1090.325	872.485
415.526	29.294	1090.323	871.888
416.540	29.351	1089.988	871.813
417.555	29.401	1089.311	871.428
418.569	29.348	1089.049	870.892
419.584	29.440	1088.270	870.625
420.599	29.487	1087.993	870.548
421.613	103.247	1322.460	1458.997
422.628	96.157	1356.591	1459.122
