DTS Sentinel unit serial number:	SN413079Multiplexer serial number:	ORYXHardware model number:	OX4-SRSoftware version number:	ORYX F/W v4.00 Oryx Data Collector v3.7.2.0data status	okinstallation	princeton_trtdifferential loss correction	single-endedforward channel	channel 2reverse channel	N/Adate	2019/09/10time	22:13:11forward acquisition time	60.00reverse acquisition time	0.00gamma	496.2192k internal	0.2329k external	0.2329temperature offset calibration	0.9939default loss term (dB/km)	0.3790temperature slope calibration	1.0000multiplexer offset coefficient	1.0000multiplexer slope coefficient	1.0000fibre end	0.00T internal ref (°C)	30.55T ext. ref 1 (°C)	-0.31T ext. ref 2 (°C)	23.86length (m)	temperature (°C)	Stokes	anti-Stokes-747.200	-23.628	0.077	-0.047
-746.185	17.026	-0.295	0.236
-745.171	96.526	0.024	0.027
-744.156	14.071	-0.297	0.233
-743.142	-64.424	0.066	0.027
-742.127	241.935	-0.098	0.166
-741.112	-117.884	0.341	-0.062
-740.098	-99.781	-0.144	-0.036
-739.083	-87.964	0.075	-0.023
-738.069	-29.381	0.207	0.119
-737.054	-10.783	-0.189	0.126
-736.039	-127.023	-0.264	0.039
-735.025	-90.068	0.015	-0.004
-734.010	-128.663	-0.217	-0.031
-732.996	-200.000	-0.129	0.000
-731.981	800.000	-0.041	-0.150
-730.966	-58.814	0.294	-0.128
-729.952	-200.000	0.002	-0.017
-728.937	61.682	0.266	-0.266
-727.923	-83.906	0.048	-0.015
-726.908	800.000	-0.009	0.032
-725.894	-162.499	0.311	0.015
-724.879	250.029	0.099	0.169
-723.864	70.370	-0.133	-0.138
-722.850	5.346	-0.285	-0.211
-721.835	685.679	-0.056	-0.147
-720.821	-61.606	-0.050	0.021
-719.806	72.259	-0.301	-0.316
-718.791	198.860	0.014	0.022
-717.777	755.552	-0.045	0.123
-716.762	-157.000	0.008	-0.000
-715.748	-83.511	0.372	0.120
-714.733	193.234	-0.268	-0.408
-713.718	276.566	-0.127	0.227
-712.704	-159.491	-0.238	0.013
-711.689	-104.185	-0.237	-0.055
-710.675	380.103	0.074	-0.152
-709.660	-62.663	0.239	0.100
-708.645	190.276	0.188	-0.283
-707.631	-200.000	0.010	-0.150
-706.616	-133.309	-0.236	-0.030
-705.602	800.000	-0.038	-0.128
-704.587	255.154	0.019	-0.032
-703.572	16.162	0.176	0.139
-702.558	37.349	0.283	-0.252
-701.543	-127.574	-0.249	0.036
-700.529	280.082	0.200	-0.359
-699.514	-200.000	-0.027	-0.411
-698.499	800.000	-0.055	-0.187
-697.485	-132.827	-0.150	-0.019
-696.470	507.664	-0.031	-0.073
-695.456	-99.137	-0.316	-0.080
-694.441	-168.069	-0.117	0.005
-693.426	80.497	0.129	-0.140
-692.412	-200.000	0.034	-0.178
-691.397	-200.000	0.022	0.190
-690.383	-118.988	0.161	0.028
-689.368	-15.069	0.154	0.099
-688.354	27.293	0.161	0.136
-687.339	-200.000	0.037	-0.168
-686.324	521.456	0.036	-0.085
-685.310	120.436	0.184	-0.229
-684.295	355.561	0.051	-0.102
-683.281	800.000	-0.075	-0.318
-682.266	-157.665	0.210	0.013
-681.251	184.349	0.071	0.105
-680.237	-100.932	-0.136	-0.034
-679.222	-200.000	0.040	-0.282
-678.208	-200.000	-0.022	-0.139
-677.193	-200.000	-0.001	0.206
-676.178	374.811	0.076	0.155
-675.164	216.866	0.120	-0.192
-674.149	-54.493	-0.188	-0.085
-673.135	406.317	-0.039	-0.083
-672.120	-162.334	-0.030	-0.001
-671.105	221.384	0.151	-0.244
-670.091	458.092	0.068	-0.151
-669.076	428.020	-0.053	0.115
-668.062	-127.738	-0.240	-0.035
-667.047	381.969	0.068	-0.141
-666.032	-53.452	-0.278	-0.128
-665.018	-40.676	0.205	0.107
-664.003	103.433	-0.055	0.064
-662.989	-200.000	-0.147	-0.001
-661.974	-14.200	0.155	0.100
-660.959	-17.436	-0.349	-0.221
-659.945	-38.535	-0.140	-0.074
-658.930	-200.000	0.056	-0.307
-657.916	-200.000	0.057	0.263
-656.901	175.378	0.103	-0.150
-655.886	-5.604	0.180	0.124
-654.872	212.761	-0.160	0.254
-653.857	43.786	0.241	0.221
-652.843	-104.097	-0.051	-0.012
-651.828	134.105	0.097	-0.126
-650.814	258.429	0.112	-0.194
-649.799	37.571	-0.057	0.051
-648.784	-29.862	0.097	-0.055
-647.770	-115.934	-0.296	-0.055
-646.755	78.134	-0.143	0.153
-645.741	-200.000	0.007	0.082
-644.726	125.936	-0.083	-0.106
-643.711	562.815	0.149	-0.362
-642.697	-46.661	0.159	-0.078
-641.682	172.564	0.159	-0.229
-640.668	33.350	-0.170	-0.148
-639.653	-51.433	0.390	-0.183
-638.638	366.102	-0.085	-0.172
-637.624	800.000	0.016	-0.047
-636.609	183.443	-0.183	0.271
-635.595	17.598	-0.294	-0.234
-634.580	550.361	-0.079	0.190
-633.565	43.152	0.216	-0.198
-632.551	179.054	0.093	-0.137
-631.536	-200.000	0.032	-0.237
-630.522	-11.390	0.223	0.147
-629.507	-200.000	0.010	0.321
-628.492	332.204	-0.043	0.084
-627.478	-200.000	-0.027	0.211
-626.463	66.723	-0.097	0.099
-625.449	800.000	0.073	0.319
-624.434	-200.000	0.027	-0.302
-623.419	-30.227	-0.245	-0.140
-622.405	12.713	0.155	0.120
-621.390	5.075	-0.091	0.067
-620.376	-200.000	-0.010	-0.390
-619.361	1.473	0.268	-0.193
-618.346	360.891	0.025	0.050
-617.332	-60.071	0.171	0.073
-616.317	571.738	-0.138	-0.337
-615.303	41.428	-0.226	0.205
-614.288	-170.062	0.145	-0.005
-613.273	-200.000	-0.028	0.168
-612.259	568.888	0.058	0.140
-611.244	-145.415	0.235	0.021
-610.230	800.000	-0.057	0.192
-609.215	-28.700	0.069	0.040
-608.201	271.027	-0.060	-0.105
-607.186	800.000	-0.077	-0.316
-606.171	-200.000	0.030	-0.171
-605.157	18.813	-0.098	0.078
-604.142	800.000	-0.048	0.139
-603.128	266.971	-0.185	-0.323
-602.113	-200.000	-0.025	-0.180
-601.098	-73.278	0.401	0.147
-600.084	20.594	0.266	0.216
-599.069	-77.804	0.090	0.031
-598.055	-147.127	0.342	0.029
-597.040	-27.638	-0.100	0.058
-596.025	312.022	0.123	-0.230
-595.011	344.944	0.080	0.156
-593.996	-121.458	-0.363	0.060
-592.982	-126.877	0.266	0.039
-591.967	-107.324	-0.296	-0.065
-590.952	76.034	-0.154	0.163
-589.938	800.000	0.021	0.063
-588.923	-200.000	0.047	0.335
-587.909	35.566	0.097	-0.085
-586.894	-117.307	-0.074	0.013
-585.879	-16.073	0.342	0.218
-584.865	800.000	-0.038	-0.140
-583.850	-9.392	-0.447	-0.299
-582.836	-60.715	-0.179	-0.076
-581.821	359.448	0.114	-0.228
-580.806	22.666	0.068	-0.055
-579.792	-95.520	-0.136	-0.036
-578.777	-84.760	-0.160	-0.050
-577.763	800.000	-0.064	0.272
-576.748	-59.802	0.311	0.133
-575.733	-89.568	0.438	-0.129
-574.719	96.953	-0.087	-0.099
-573.704	-52.131	-0.256	-0.119
-572.690	-171.938	0.259	0.008
-571.675	-77.055	-0.014	0.005
-570.661	-200.000	0.013	0.151
-569.646	-200.000	-0.078	0.351
-568.631	505.565	-0.117	0.272
-567.617	159.080	-0.097	0.135
-566.602	-34.503	0.206	0.113
-565.588	-200.000	-0.014	-0.102
-564.573	800.000	0.053	-0.207
-563.558	800.000	0.049	-0.139
-562.544	800.000	0.034	0.098
-561.529	238.503	-0.043	0.072
-560.515	246.382	0.154	0.260
-559.500	-84.643	0.201	0.063
-558.485	24.579	0.054	0.045
-557.471	-98.622	-0.132	-0.034
-556.456	-200.000	0.017	0.099
-555.442	-25.681	-0.082	0.048
-554.427	-200.000	0.076	-0.370
-553.412	559.670	-0.039	-0.095
-552.398	2.779	-0.288	-0.209
-551.383	-180.562	-0.258	-0.005
-550.369	327.802	0.102	0.195
-549.354	-200.000	0.074	-0.408
-548.339	25.117	0.248	-0.206
-547.325	-85.588	0.097	-0.030
-546.310	-115.269	-0.172	0.032
-545.296	626.832	-0.050	-0.126
-544.281	-36.946	-0.139	-0.074
-543.266	-200.000	-0.016	-0.208
-542.252	152.546	-0.224	0.305
-541.237	-200.000	-0.028	0.230
-540.223	5.086	0.084	0.062
-539.208	-200.000	0.057	-0.277
-538.193	-1.477	-0.263	0.185
-537.179	109.724	-0.093	-0.111
-536.164	-137.567	-0.061	-0.007
-535.150	-91.020	-0.228	0.065
-534.135	800.000	-0.026	-0.110
-533.121	126.681	-0.130	-0.164
-532.106	185.911	0.282	-0.418
-531.091	-123.299	-0.390	0.062
-530.077	-97.872	-0.075	-0.019
-529.062	800.000	0.073	-0.202
-528.048	72.797	-0.215	-0.224
-527.033	-200.000	-0.026	0.124
-526.018	70.605	0.104	0.108
-525.004	-91.191	-0.441	-0.126
-523.989	-24.005	-0.205	-0.123
-522.975	-28.333	0.198	-0.114
-521.960	219.941	-0.090	0.144
-520.945	-200.000	0.000	0.152
-519.931	-43.499	0.373	-0.188
-518.916	-29.938	-0.109	-0.062
-517.902	-102.761	-0.063	0.015
-516.887	-17.750	0.138	0.086
-515.872	790.870	-0.145	0.398
-514.858	-200.000	0.062	0.353
-513.843	-53.446	0.066	-0.030
-512.829	800.000	-0.075	-0.299
-511.814	16.651	-0.235	0.185
-510.799	800.000	0.087	0.366
-509.785	800.000	0.034	0.112
-508.770	-87.283	-0.282	0.085
-507.756	60.857	0.094	-0.093
-506.741	800.000	-0.079	-0.279
-505.726	18.702	0.195	-0.155
-504.712	-35.636	0.183	-0.099
-503.697	92.457	-0.298	-0.336
-502.683	540.107	0.043	0.102
-501.668	800.000	0.020	-0.065
-500.653	475.648	-0.109	0.246
-499.639	-55.865	0.247	0.110
-498.624	240.991	-0.109	-0.181
-497.610	-113.176	0.069	-0.014
-496.595	197.007	-0.067	0.103
-495.581	-164.568	-0.246	-0.011
-494.566	-116.870	-0.271	0.050
-493.551	-200.000	-0.017	0.251
-492.537	-116.712	0.388	0.071
-491.522	-59.413	-0.436	-0.187
-490.508	279.957	-0.096	0.170
-489.493	800.000	0.004	0.018
-488.478	530.434	0.078	0.184
-487.464	141.271	0.103	-0.136
-486.449	8.004	-0.238	0.178
-485.435	-11.932	0.169	0.110
-484.420	131.577	-0.092	-0.118
-483.405	-115.959	-0.288	-0.054
-482.391	436.461	-0.140	0.304
-481.376	800.000	-0.073	0.284
-480.362	-200.000	-0.022	-0.279
-479.347	-200.000	-0.055	-0.311
-478.332	-200.000	0.040	0.223
-477.318	105.983	0.060	0.071
-476.303	-84.335	-0.252	-0.079
-475.289	-200.000	0.011	-0.143
-474.274	-91.975	-0.100	-0.028
-473.259	274.423	-0.143	0.253
-472.245	-90.214	0.166	-0.048
-471.230	800.000	-0.074	-0.232
-470.216	-174.690	0.263	0.007
-469.201	-6.778	-0.138	-0.093
-468.186	41.239	-0.118	0.106
-467.172	-200.000	0.010	0.125
-466.157	39.481	0.128	0.114
-465.143	80.024	-0.026	0.028
-464.128	-96.886	-0.407	-0.106
-463.113	-76.550	0.120	0.042
-462.099	800.000	-0.092	0.295
-461.084	226.351	0.034	-0.055
-460.070	168.502	0.134	-0.191
-459.055	93.577	0.135	0.152
-458.040	800.000	-0.083	-0.290
-457.026	61.599	0.324	0.321
-456.011	-28.707	-0.297	0.170
-454.997	-200.000	-0.034	-0.320
-453.982	169.382	0.076	-0.108
-452.968	109.908	-0.132	-0.158
-451.953	-122.885	0.117	0.019
-450.938	169.610	0.138	-0.197
-449.924	297.924	0.095	-0.174
-448.909	-200.000	-0.021	0.129
-447.895	-89.850	-0.250	0.073
-446.880	-3.448	-0.072	0.050
-445.865	-200.000	-0.006	-0.088
-444.851	342.556	-0.056	-0.109
-443.836	-110.335	-0.284	-0.059
-442.822	-84.963	0.321	-0.100
-441.807	131.823	-0.033	-0.042
-440.792	800.000	-0.044	-0.179
-439.778	-84.212	-0.062	-0.020
-438.763	-133.030	0.547	0.069
-437.749	-12.164	-0.124	0.081
-436.734	-41.827	0.112	-0.057
-435.719	102.426	-0.046	0.054
-434.705	212.710	0.088	0.138
-433.690	-104.771	0.456	0.104
-432.676	-48.559	-0.228	-0.109
-431.661	-200.000	0.079	0.354
-430.646	-94.286	0.246	-0.067
-429.632	738.909	-0.154	-0.410
-428.617	669.922	-0.017	-0.044
-427.603	-153.314	0.165	0.011
-426.588	-200.000	0.014	0.081
-425.573	267.281	-0.058	0.101
-424.559	-145.654	-0.069	-0.006
-423.544	800.000	-0.038	0.127
-422.530	-200.000	0.035	-0.358
-421.515	-200.000	-0.008	0.091
-420.500	23.483	-0.192	0.157
-419.486	53.568	0.122	0.116
-418.471	-200.000	-0.002	-0.035
-417.457	-110.478	0.186	-0.038
-416.442	-200.000	-0.048	0.245
-415.428	-200.000	0.015	0.372
-414.413	-200.000	-0.047	0.306
-413.398	7.587	-0.131	-0.097
-412.384	64.798	-0.116	0.116
-411.369	229.733	-0.033	-0.054
-410.355	15.109	-0.054	-0.042
-409.340	72.754	0.068	0.071
-408.325	-16.110	0.068	0.043
-407.311	-200.000	0.027	0.238
-406.296	11.685	0.229	0.174
-405.282	67.155	0.077	-0.078
-404.267	-80.672	0.060	-0.020
-403.252	400.079	0.058	-0.122
-402.238	217.234	-0.119	0.188
-401.223	-200.000	-0.016	0.113
-400.209	-92.186	-0.274	-0.077
-399.194	257.213	-0.055	-0.094
-398.179	13.440	0.189	-0.146
-397.165	-16.640	-0.257	0.162
-396.150	508.744	-0.105	-0.242
-395.136	-159.464	-0.038	0.002
-394.121	-200.000	-0.002	0.090
-393.106	-29.885	0.180	0.102
-392.092	163.752	0.142	0.199
-391.077	-200.000	-0.011	-0.251
-390.063	-182.131	-0.047	0.001
-389.048	-152.833	0.415	0.029
-388.033	477.263	0.074	0.166
-387.019	-135.364	0.321	-0.038
-386.004	799.973	0.079	-0.217
-384.990	-11.777	0.051	0.033
-383.975	112.511	-0.298	-0.358
-382.960	6.430	0.230	-0.170
-381.946	-80.919	-0.229	-0.075
-380.931	-62.249	-0.238	-0.098
-379.917	696.210	-0.090	0.236
-378.902	800.000	0.050	0.216
-377.888	410.038	0.098	-0.206
-376.873	-200.000	0.011	0.049
-375.858	-200.000	-0.002	-0.394
-374.844	-86.096	-0.205	-0.063
-373.829	-171.129	-0.287	0.010
-372.815	-200.000	0.044	0.266
-371.800	152.515	0.189	-0.256
-370.785	800.000	0.021	-0.062
-369.771	52.763	-0.145	-0.138
-368.756	-148.869	0.124	-0.010
-367.742	87.596	0.062	-0.068
-366.727	36.215	0.095	0.083
-365.712	-108.053	0.289	-0.062
-364.698	3.960	0.242	-0.176
-363.683	55.648	-0.093	-0.089
-362.669	298.293	-0.074	-0.134
-361.654	60.237	0.363	0.356
-360.639	-41.863	0.237	-0.121
-359.625	71.369	0.168	-0.173
-358.610	-56.861	0.240	0.105
-357.596	14.158	-0.025	0.019
-356.581	-31.634	0.080	0.045
-355.566	-79.133	-0.028	-0.010
-354.552	-84.698	-0.321	0.100
-353.537	-127.483	-0.299	-0.043
-352.523	87.055	-0.082	-0.089
-351.508	-91.160	-0.125	-0.036
-350.493	-126.168	-0.049	0.007
-349.479	-123.371	-0.228	0.036
-348.464	-79.392	-0.277	-0.093
-347.450	273.009	-0.151	-0.265
-346.435	119.892	0.386	-0.475
-345.420	-200.000	0.007	0.070
-344.406	157.260	0.142	0.194
-343.391	-200.000	0.027	-0.135
-342.377	-17.100	0.318	-0.199
-341.362	632.476	0.063	0.157
-340.348	800.000	0.070	-0.247
-339.333	-200.000	0.010	0.137
-338.318	800.000	-0.055	-0.189
-337.304	-16.467	-0.214	-0.134
-336.289	271.943	0.136	0.237
-335.275	-88.239	-0.176	0.052
-334.260	-72.659	-0.225	-0.082
-333.245	-139.752	0.086	-0.009
-332.231	-103.279	0.305	0.071
-331.216	-60.424	-0.060	-0.025
-330.202	-200.000	-0.069	0.315
-329.187	568.571	0.041	0.098
-328.172	-200.000	0.049	-0.476
-327.158	-200.000	-0.081	-0.522
-326.143	-128.062	-0.168	0.024
-325.129	-148.409	0.230	-0.019
-324.114	-30.643	-0.284	-0.159
-323.099	67.250	0.193	-0.195
-322.085	392.086	-0.163	-0.336
-321.070	188.834	0.052	0.077
-320.056	-176.503	-0.221	0.006
-319.041	-38.901	-0.020	-0.010
-318.026	800.000	0.020	-0.071
-317.012	-104.044	0.098	-0.023
-315.997	-9.259	0.201	0.133
-314.983	-200.000	-0.003	-0.106
-313.968	800.000	0.082	-0.280
-312.953	161.840	0.051	-0.070
-311.939	500.853	-0.094	0.214
-310.924	34.715	-0.071	-0.061
-309.910	429.332	0.109	0.233
-308.895	89.187	-0.220	0.242
-307.880	8.520	-0.112	-0.084
-306.866	225.939	0.126	-0.202
-305.851	-200.000	0.021	0.102
-304.837	3.809	0.175	0.126
-303.822	72.600	-0.191	0.198
-302.807	-200.000	-0.022	-0.201
-301.793	334.220	-0.023	0.044
-300.778	-48.020	0.333	-0.160
-299.764	200.482	-0.053	0.081
-298.749	83.169	-0.216	-0.233
-297.735	800.000	-0.102	-0.391
-296.720	283.721	0.177	0.314
-295.705	-200.000	0.028	0.149
-294.691	-200.000	-0.003	0.222
-293.676	-5.577	0.167	0.114
-292.662	-200.000	-0.016	0.251
-291.647	800.000	0.086	0.327
-290.632	-187.068	-0.239	0.003
-289.618	-61.454	0.161	-0.067
-288.603	5.215	0.107	0.078
-287.589	-121.259	0.297	-0.049
-286.574	-63.916	-0.050	0.020
-285.559	170.213	0.128	0.182
-284.545	42.497	-0.140	0.126
-283.530	433.255	-0.088	-0.188
-282.516	-166.431	0.010	0.000
-281.501	-58.070	-0.157	0.068
-280.486	31.485	-0.221	-0.188
-279.472	-200.000	0.035	-0.292
-278.457	-147.852	-0.147	-0.012
-277.443	-147.696	-0.041	-0.003
-276.428	27.616	-0.298	-0.248
-275.413	230.402	0.054	-0.088
-274.399	800.000	-0.050	0.161
-273.384	-48.067	-0.384	0.183
-272.370	-200.000	-0.023	0.159
-271.355	-114.083	0.165	0.032
-270.340	435.402	0.173	0.372
-269.326	-25.532	-0.102	0.059
-268.311	127.660	-0.142	-0.178
-267.297	-200.000	0.048	-0.326
-266.282	-58.476	-0.125	0.054
-265.267	114.222	-0.137	-0.165
-264.253	-64.427	-0.107	0.043
-263.238	57.636	-0.144	0.139
-262.224	-200.000	-0.007	0.128
-261.209	157.576	-0.197	-0.269
-260.195	-200.000	-0.031	0.160
-259.180	-60.370	0.215	-0.091
-258.165	-200.000	0.036	-0.194
-257.151	-46.292	-0.213	0.104
-256.136	53.231	0.229	-0.217
-255.122	-200.000	0.079	-0.484
-254.107	-200.000	0.065	0.432
-253.092	-200.000	-0.050	0.240
-252.078	152.813	0.134	0.181
-251.063	-200.000	-0.027	-0.238
-250.049	-200.000	0.003	-0.207
-249.034	141.805	-0.097	-0.127
-248.019	26.343	0.340	-0.280
-247.005	-10.395	-0.223	0.146
-245.990	472.079	0.037	0.082
-244.976	-11.955	0.232	0.150
-243.961	-113.043	0.121	-0.024
-242.946	265.096	-0.046	-0.080
-241.932	800.000	-0.056	0.162
-240.917	167.877	-0.102	0.143
-239.903	-200.000	0.018	0.104
-238.888	172.822	0.051	-0.072
-237.873	800.000	-0.092	0.345
-236.859	-138.973	0.143	0.015
-235.844	63.327	-0.081	0.080
-234.830	87.555	-0.094	-0.102
-233.815	-113.668	-0.035	-0.007
-232.800	-106.985	0.065	0.014
-231.786	-57.302	-0.259	-0.112
-230.771	-37.742	-0.238	-0.125
-229.757	427.813	0.120	0.255
-228.742	-200.000	0.002	-0.089
-227.727	-165.391	-0.285	-0.012
-226.713	-66.880	0.129	0.050
-225.698	800.000	-0.054	-0.190
-224.684	-200.000	0.052	0.395
-223.669	-60.833	0.207	-0.086
-222.655	-8.559	-0.199	0.132
-221.640	67.145	-0.114	0.114
-220.625	-174.218	0.172	0.005
-219.611	-117.306	-0.114	-0.020
-218.596	206.438	-0.148	0.227
-217.582	291.937	0.151	0.271
-216.567	-200.000	-0.018	0.342
-215.552	800.000	-0.100	0.273
-214.538	-200.000	-0.018	0.260
-213.523	-116.732	0.192	-0.035
-212.509	800.000	0.107	-0.302
-211.494	-129.303	0.202	0.028
-210.479	-40.925	-0.166	-0.085
-209.465	-107.501	0.203	-0.044
-208.450	143.610	0.124	0.163
-207.436	6.528	0.133	0.098
-206.421	588.879	0.094	-0.229
-205.406	-139.435	-0.222	0.023
-204.392	-200.000	0.002	-0.039
-203.377	577.509	-0.065	0.157
-202.363	144.518	0.130	0.171
-201.348	32.454	-0.091	0.077
-200.333	-88.500	0.154	0.045
-199.319	-63.281	-0.190	-0.077
-198.304	54.320	0.140	-0.133
-197.290	-200.000	-0.060	-0.487
-196.275	-8.300	0.109	-0.072
-195.260	100.445	0.255	-0.292
-194.246	800.000	0.062	-0.180
-193.231	-65.582	-0.290	-0.115
-192.217	26.259	-0.164	-0.135
-191.202	-186.911	0.205	0.003
-190.187	800.000	0.080	0.237
-189.173	1.618	0.049	0.035
-188.158	-200.000	-0.013	0.111
-187.144	132.238	0.088	-0.111
-186.129	-19.124	0.122	0.075
-185.114	149.538	-0.154	0.206
-184.100	80.739	0.179	0.190
-183.085	-3.669	-0.428	0.293
-182.071	11.032	0.180	0.136
-181.056	168.723	0.056	0.078
-180.042	-133.337	0.211	-0.026
-179.027	64.882	-0.147	0.146
-178.012	-200.000	-0.020	-0.148
-176.998	67.538	0.241	-0.243
-175.983	-43.258	-0.132	0.066
-174.969	-200.000	-0.009	0.103
-173.954	-143.221	-0.113	0.011
-172.939	-26.904	0.320	0.184
-171.925	-117.701	0.154	-0.027
-170.910	75.942	0.163	-0.169
-169.896	314.859	-0.136	0.253
-168.881	-66.346	0.180	-0.070
-167.866	-42.590	0.278	0.139
-166.852	436.629	-0.063	-0.135
-165.837	-200.000	0.003	-0.086
-164.823	-200.000	-0.034	0.225
-163.808	-134.727	-0.155	-0.019
-162.793	-200.000	0.008	0.062
-161.779	-14.001	0.385	0.245
-160.764	-82.304	-0.219	0.070
-159.750	-103.606	-0.249	0.058
-158.735	-13.868	0.211	-0.134
-157.720	-52.163	-0.179	0.082
-156.706	57.975	-0.300	0.289
-155.691	-133.929	0.312	0.038
-154.677	490.200	-0.148	0.334
-153.662	4.446	0.256	0.185
-152.647	3.523	0.251	-0.180
-151.633	-144.600	0.312	-0.028
-150.618	169.252	-0.113	-0.159
-149.604	-200.000	0.028	-0.273
-148.589	-52.798	-0.322	-0.146
-147.574	800.000	0.018	-0.057
-146.560	-114.922	0.154	-0.029
-145.545	800.000	0.110	-0.359
-144.531	128.983	0.108	0.135
-143.516	415.201	-0.057	0.120
-142.502	-6.059	0.224	-0.151
-141.487	-200.000	0.013	-0.083
-140.472	-200.000	-0.013	-0.232
-139.458	-112.915	0.278	0.054
-138.443	-118.150	0.222	0.039
-137.429	-166.182	0.167	-0.007
-136.414	-39.058	-0.138	0.072
-135.399	-90.275	-0.273	0.078
-134.385	-68.474	0.299	0.114
-133.370	-55.936	0.102	-0.045
-132.356	430.731	-0.137	0.292
-131.341	-136.211	0.058	0.007
-130.326	-200.000	-0.039	0.191
-129.312	733.399	0.115	-0.302
-128.297	65.400	0.274	0.272
-127.283	-200.000	0.017	-0.112
-126.268	285.537	0.107	-0.190
-125.253	182.458	-0.210	-0.305
-124.239	800.000	-0.108	0.302
-123.224	-137.824	0.024	-0.003
-122.210	42.427	-0.260	-0.233
-121.195	19.469	0.008	-0.006
-120.180	-200.000	-0.082	-0.443
-119.166	-77.354	0.136	-0.046
-118.151	125.676	0.137	0.170
-117.137	374.839	-0.119	-0.239
-116.122	-200.000	-0.005	-0.076
-115.107	37.185	0.131	0.114
-114.093	213.123	0.052	-0.081
-113.078	476.730	0.076	0.169
-112.064	-107.733	0.316	-0.068
-111.049	-200.000	-0.005	0.225
-110.034	-63.936	-0.119	0.048
-109.020	242.951	0.062	0.102
-108.005	-200.000	-0.093	0.574
-106.991	-84.607	-0.124	-0.039
-105.976	800.000	-0.033	0.137
-104.962	-80.387	-0.219	-0.072
-103.947	25.345	0.022	0.018
-102.932	-68.290	-0.308	-0.118
-101.918	40.074	-0.105	-0.093
-100.903	800.000	-0.057	0.205
-99.889	-156.923	0.116	-0.007
-98.874	-117.627	0.231	0.041
-97.859	-140.090	0.225	0.023
-96.845	-97.735	-0.205	-0.052
-95.830	-200.000	-0.062	0.289
-94.816	-85.312	-0.126	-0.039
-93.801	37.895	-0.231	-0.201
-92.786	209.686	-0.223	0.343
-91.772	-58.587	0.269	0.114
-90.757	-55.588	-0.370	0.163
-89.743	-154.673	-0.295	0.019
-88.728	47.698	0.217	0.199
-87.713	-200.000	0.020	0.118
-86.699	800.000	-0.022	-0.072
-85.684	444.891	-0.065	0.141
-84.670	22.771	0.119	0.096
-83.655	-157.269	-0.344	0.020
-82.640	-40.331	0.156	-0.080
-81.626	-200.000	0.044	0.380
-80.611	27.133	-0.163	-0.134
-79.597	-195.796	-0.318	-0.002
-78.582	33.824	0.144	0.123
-77.567	45.358	-0.238	-0.216
-76.553	800.000	0.090	0.250
-75.538	5.258	0.372	-0.269
-74.524	-50.802	-0.303	-0.140
-73.509	755.786	0.110	0.291
-72.494	800.000	0.062	0.260
-71.480	-200.000	-0.058	0.267
-70.465	800.000	0.046	0.147
-69.451	800.000	0.087	0.269
-68.436	-200.000	-0.038	-0.413
-67.422	65.202	0.096	-0.096
-66.407	-200.000	0.024	0.179
-65.392	-39.531	0.217	0.112
-64.378	-111.203	0.087	0.018
-63.363	99.357	-0.143	0.163
-62.349	-136.422	-0.053	-0.006
-61.334	40.182	-1.119	-0.986
-60.319	462.550	0.343	0.751
-59.305	197.221	-0.549	-0.821
-58.290	216.238	0.634	0.989
-57.276	800.000	0.347	1.422
-56.261	-200.000	102.247	616.392
-55.246	530.501	1457.769	3377.095
-54.232	182.315	2660.975	3844.871
-53.217	107.596	2282.639	2663.222
-52.203	39.715	1893.800	1665.260
-51.188	33.712	1681.875	1433.675
-50.173	31.096	1639.011	1377.788
-49.159	49.960	1689.366	1561.929
-48.144	50.588	1706.115	1582.054
-47.130	33.503	1663.930	1416.590
-46.115	30.642	1649.758	1383.223
-45.100	30.444	1645.203	1377.887
-44.086	30.455	1641.984	1375.212
-43.071	30.372	1640.381	1373.204
-42.057	30.425	1637.833	1371.405
-41.042	30.436	1635.788	1369.722
-40.027	30.465	1634.009	1368.388
-39.013	30.452	1631.939	1366.510
-37.998	30.312	1630.262	1364.018
-36.984	30.479	1629.254	1364.350
-35.969	30.483	1627.546	1362.893
-34.954	30.581	1625.961	1362.229
-33.940	30.580	1623.705	1360.277
-32.925	30.545	1622.608	1359.049
-31.911	30.620	1620.125	1357.461
-30.896	30.580	1618.497	1355.753
-29.881	30.556	1617.428	1354.630
-28.867	30.526	1615.381	1352.643
-27.852	30.597	1614.006	1351.958
-26.838	30.548	1612.845	1350.571
-25.823	30.482	1611.668	1349.051
-24.809	30.579	1609.599	1347.976
-23.794	30.593	1608.464	1347.073
-22.779	30.514	1606.904	1345.136
-21.765	30.520	1605.423	1343.888
-20.750	30.509	1604.200	1342.734
-19.736	30.527	1602.548	1341.425
-18.721	30.549	1601.133	1340.345
-17.706	30.608	1599.578	1339.418
-16.692	30.529	1597.750	1337.265
-15.677	30.626	1596.477	1336.842
-14.663	30.631	1595.370	1335.899
-13.648	30.605	1594.235	1334.708
-12.633	30.708	1592.160	1333.656
-11.619	30.591	1590.356	1331.257
-10.604	30.523	1589.895	1330.329
-9.590	30.594	1587.768	1329.009
-8.575	30.534	1587.122	1327.987
-7.560	30.561	1585.816	1327.032
-6.546	30.594	1584.800	1326.364
-5.531	30.599	1583.687	1325.412
-4.517	30.528	1582.448	1323.822
-3.502	30.531	1581.348	1322.868
-2.487	30.640	1579.475	1322.027
-1.473	30.316	1567.301	1309.499
-0.458	27.345	1548.373	1272.887
0.556	21.278	1549.874	1240.924
1.571	19.155	1573.187	1244.154
2.586	18.876	1587.254	1253.132
3.600	17.117	1535.333	1199.618
4.615	9.045	1426.515	1061.307
5.629	1.261	1361.958	963.893
6.644	-0.218	1353.461	948.452
7.659	-0.289	1352.328	947.123
8.673	-0.305	1351.318	946.233
9.688	-0.447	1349.514	943.993
10.702	-0.704	1346.353	940.083
11.717	2.438	1352.659	964.216
12.731	11.480	1370.071	1034.029
13.746	18.786	1381.808	1089.303
14.761	20.355	1383.767	1100.704
15.775	20.459	1383.681	1101.198
16.790	20.502	1382.956	1100.794
17.804	20.608	1382.296	1100.846
18.819	20.808	1382.269	1101.994
19.834	20.868	1381.686	1101.812
20.848	20.923	1380.415	1101.047
21.863	20.916	1379.633	1100.282
22.877	20.956	1378.864	1099.823
23.892	20.934	1377.954	1098.862
24.907	20.951	1377.315	1098.363
25.921	20.958	1376.176	1097.399
26.936	20.965	1374.916	1096.341
27.950	20.971	1374.403	1095.873
28.965	20.872	1373.387	1094.343
29.980	20.859	1372.031	1093.085
30.994	20.864	1370.178	1091.541
32.009	20.878	1369.270	1090.811
33.023	20.956	1368.094	1090.266
34.038	20.896	1367.015	1088.934
35.053	20.883	1365.788	1087.778
36.067	20.864	1365.231	1087.118
37.082	20.873	1364.352	1086.383
38.096	20.941	1362.982	1085.615
39.111	20.847	1362.720	1084.730
40.126	20.914	1362.002	1084.479
41.140	20.894	1361.397	1083.776
42.155	20.922	1360.686	1083.284
43.169	20.865	1360.956	1083.054
44.184	20.931	1360.587	1083.072
45.199	20.893	1360.287	1082.499
46.213	20.946	1359.180	1081.857
47.228	21.091	1358.138	1081.830
48.242	20.970	1356.834	1079.945
49.257	20.942	1355.645	1078.727
50.271	20.894	1354.605	1077.510
51.286	21.047	1352.939	1077.035
52.301	20.886	1351.846	1075.071
53.315	20.968	1350.722	1074.591
54.330	20.929	1350.017	1073.693
55.344	21.010	1348.856	1073.174
56.359	20.926	1347.902	1071.803
57.374	20.891	1347.191	1070.927
58.388	20.795	1347.172	1070.231
59.403	20.914	1346.597	1070.407
60.417	20.955	1345.599	1069.773
61.432	20.909	1345.011	1068.930
62.447	20.958	1343.924	1068.271
63.461	20.898	1342.857	1066.963
64.476	20.915	1341.974	1066.265
65.490	21.008	1340.240	1065.363
66.505	20.900	1339.022	1063.641
67.520	20.817	1337.810	1062.080
68.534	20.950	1336.784	1061.980
69.549	20.823	1335.908	1060.417
70.563	20.960	1334.919	1060.374
71.578	20.910	1333.906	1059.168
72.593	20.993	1332.739	1058.653
73.607	21.015	1332.173	1058.245
74.622	20.895	1331.734	1057.071
75.636	20.981	1330.659	1056.646
76.651	20.918	1330.039	1055.684
77.666	20.877	1329.734	1055.098
78.680	21.031	1328.923	1055.293
79.695	21.000	1328.254	1054.482
80.709	20.932	1327.818	1053.630
81.724	20.878	1327.062	1052.608
82.739	20.942	1325.631	1051.768
83.753	21.008	1324.735	1051.359
84.768	20.952	1323.417	1049.884
85.782	20.920	1322.648	1048.992
86.797	20.974	1321.134	1048.023
87.812	21.029	1320.082	1047.427
88.826	20.979	1318.968	1046.146
89.841	21.035	1318.356	1045.907
90.855	21.079	1317.066	1045.056
91.870	21.054	1315.843	1043.843
92.884	20.996	1315.187	1042.879
93.899	21.049	1314.131	1042.272
94.914	21.029	1313.720	1041.729
95.928	20.990	1312.794	1040.671
96.943	21.089	1311.732	1040.325
97.957	20.925	1311.565	1039.124
98.972	21.150	1309.949	1039.090
99.987	21.063	1308.996	1037.730
101.001	20.991	1308.303	1036.656
102.016	21.001	1307.379	1035.891
103.030	21.014	1306.919	1035.517
104.045	20.950	1305.849	1034.193
105.060	21.033	1304.755	1033.729
106.074	20.980	1303.552	1032.371
107.089	20.990	1302.535	1031.533
108.103	21.067	1301.288	1030.908
109.118	21.074	1300.054	1029.883
110.133	21.094	1298.919	1029.012
111.147	21.077	1297.975	1028.074
112.162	21.099	1297.389	1027.647
113.176	21.047	1295.747	1025.947
114.191	21.021	1295.188	1025.260
115.206	21.124	1293.951	1024.795
116.220	21.065	1292.289	1023.044
117.235	21.089	1291.633	1022.578
118.249	21.062	1290.838	1021.699
119.264	20.894	1290.099	1020.035
120.279	21.028	1288.821	1019.719
121.293	21.087	1287.899	1019.245
122.308	21.191	1286.982	1019.037
123.322	21.208	1286.044	1018.305
124.337	21.042	1285.598	1016.895
125.352	21.209	1284.041	1016.541
126.366	21.116	1283.533	1015.511
127.381	21.268	1282.118	1015.185
128.395	21.141	1281.643	1013.979
129.410	21.141	1280.826	1013.247
130.424	21.150	1279.945	1012.511
131.439	21.109	1278.901	1011.359
132.454	21.151	1277.969	1010.771
133.468	21.087	1277.532	1009.969
134.483	21.132	1276.815	1009.574
135.497	21.156	1275.867	1008.870
136.512	21.161	1274.996	1008.122
137.527	21.161	1273.751	1007.047
138.541	21.105	1272.488	1005.638
139.556	21.050	1271.360	1004.344
140.570	21.011	1270.290	1003.186
141.585	21.094	1268.694	1002.310
142.600	21.090	1267.945	1001.610
143.614	21.041	1267.086	1000.561
144.629	21.056	1266.198	999.857
145.643	20.993	1264.754	998.263
146.658	21.036	1263.839	997.704
147.673	21.063	1262.737	996.895
148.687	21.105	1262.044	996.501
149.702	21.059	1260.726	995.109
150.716	21.169	1259.072	994.342
151.731	21.083	1258.491	993.306
152.746	21.040	1257.649	992.312
153.760	21.199	1256.086	991.891
154.775	21.205	1255.083	991.048
155.789	21.136	1254.637	990.215
156.804	21.169	1253.566	989.472
157.819	21.258	1252.280	988.873
158.833	21.152	1251.843	987.840
159.848	21.229	1250.812	987.374
160.862	21.151	1250.370	986.494
161.877	21.192	1249.571	986.008
162.892	21.217	1248.502	985.222
163.906	21.247	1247.655	984.634
164.921	21.184	1246.962	983.643
165.935	21.276	1246.122	983.411
166.950	21.232	1245.526	982.606
167.964	21.170	1245.051	981.796
168.979	21.224	1244.476	981.561
169.994	21.228	1243.768	980.936
171.008	21.292	1243.122	980.702
172.023	21.204	1242.579	979.693
173.037	21.242	1241.616	979.058
174.052	21.247	1241.200	978.673
175.067	21.333	1239.845	977.998
176.081	21.158	1239.692	976.814
177.096	21.258	1238.533	976.371
178.110	21.284	1237.451	975.577
179.125	21.267	1236.544	974.683
180.140	21.247	1235.898	973.975
181.154	21.298	1234.530	973.093
182.169	21.372	1232.960	972.185
183.183	21.264	1232.707	971.297
184.198	21.312	1231.546	970.564
185.213	21.348	1230.399	969.772
186.227	21.302	1229.708	968.888
187.242	21.419	1228.575	968.554
188.256	21.367	1227.514	967.345
189.271	21.363	1227.016	966.844
190.286	21.393	1226.514	966.530
191.300	21.288	1225.971	965.440
192.315	21.365	1225.035	965.042
193.329	21.322	1225.182	964.834
194.344	21.430	1224.533	964.830
195.359	21.396	1224.293	964.368
196.373	21.256	1223.681	963.029
197.388	21.367	1222.974	963.001
198.402	21.282	1222.800	962.310
199.417	21.326	1222.096	961.911
200.432	21.451	1221.096	961.727
201.446	21.379	1220.924	961.113
202.461	21.253	1220.371	959.899
203.475	21.289	1219.221	959.111
204.490	21.322	1218.359	958.528
205.504	21.343	1217.104	957.571
206.519	21.397	1216.379	957.210
207.534	21.381	1215.470	956.321
208.548	21.409	1214.313	955.480
209.563	21.429	1213.747	955.058
210.577	21.441	1213.214	954.623
211.592	21.522	1211.866	953.915
212.607	21.388	1211.416	952.746
213.621	21.542	1210.216	952.557
214.636	21.519	1209.824	952.041
215.650	21.467	1208.963	950.995
216.665	21.371	1208.429	949.973
217.680	21.468	1207.490	949.673
218.694	21.513	1206.359	948.943
219.709	21.534	1205.659	948.425
220.723	21.578	1204.824	947.925
221.738	21.511	1204.235	947.011
222.753	21.462	1203.757	946.286
223.767	21.442	1203.233	945.686
224.782	21.445	1203.084	945.497
225.796	21.491	1202.344	945.081
226.811	21.597	1201.459	944.873
227.826	21.586	1200.737	944.165
228.840	21.607	1200.380	943.912
229.855	21.598	1199.599	943.170
230.869	21.525	1199.180	942.361
231.884	21.610	1198.159	941.933
232.899	21.659	1196.955	941.167
233.913	21.620	1196.826	940.771
234.928	21.651	1196.618	940.693
235.942	21.668	1195.800	940.057
236.957	21.606	1194.858	938.899
237.972	21.617	1194.257	938.402
238.986	21.724	1193.758	938.503
240.001	21.767	1193.168	938.186
241.015	21.692	1192.208	936.943
242.030	21.660	1191.730	936.317
243.045	21.757	1190.708	935.950
244.059	21.740	1189.865	935.112
245.074	21.685	1189.363	934.340
246.088	21.766	1188.706	934.174
247.103	21.773	1187.678	933.324
248.117	21.706	1187.257	932.550
249.132	21.695	1186.470	931.795
250.147	21.851	1185.332	931.644
251.161	21.807	1184.751	930.875
252.176	21.861	1183.819	930.346
253.190	21.864	1183.215	929.803
254.205	21.757	1182.864	928.876
255.220	21.848	1182.138	928.709
256.234	21.761	1181.698	927.817
257.249	21.822	1181.152	927.629
258.263	21.853	1180.204	926.968
259.278	21.864	1180.122	926.878
260.293	21.965	1179.042	926.482
261.307	21.942	1178.810	926.098
262.322	21.897	1177.839	925.014
263.336	21.976	1177.560	925.128
264.351	21.808	1177.404	924.042
265.366	21.893	1176.691	923.849
266.380	21.950	1176.056	923.566
267.395	21.885	1175.160	922.441
268.409	21.840	1174.506	921.607
269.424	21.864	1174.003	921.260
270.439	21.842	1173.319	920.525
271.453	21.962	1172.738	920.619
272.468	21.874	1171.788	919.329
273.482	21.934	1171.246	919.137
274.497	21.788	1171.181	918.240
275.512	21.818	1170.338	917.651
276.526	22.006	1169.239	917.695
277.541	21.927	1168.626	916.719
278.555	22.044	1167.995	916.756
279.570	21.991	1167.415	915.938
280.585	21.917	1166.783	914.976
281.599	22.016	1165.650	914.522
282.614	22.066	1164.487	913.790
283.628	21.967	1164.125	912.913
284.643	21.958	1163.601	912.370
285.657	22.066	1162.292	911.825
286.672	22.028	1161.230	910.717
287.687	22.108	1160.753	910.676
288.701	22.090	1160.202	910.069
289.716	22.023	1159.569	909.145
290.730	22.129	1158.975	909.148
291.745	22.116	1157.955	908.201
292.760	22.209	1157.510	908.251
293.774	22.168	1156.776	907.385
294.789	22.114	1156.390	906.723
295.803	22.179	1155.763	906.482
296.818	22.147	1155.333	905.901
297.833	22.172	1154.618	905.392
298.847	22.202	1153.600	904.668
299.862	22.189	1153.061	904.099
300.876	22.225	1152.207	903.530
301.891	22.260	1151.779	903.295
302.906	22.257	1151.309	902.831
303.920	22.372	1150.271	902.528
304.935	22.339	1149.641	901.787
305.949	22.335	1149.107	901.263
306.964	22.355	1148.526	900.832
307.979	22.332	1147.911	900.153
308.993	22.229	1147.380	899.130
310.008	22.291	1146.651	898.795
311.022	22.295	1145.962	898.196
312.037	22.415	1144.768	897.794
313.052	22.310	1144.310	896.821
314.066	22.275	1143.341	895.800
315.081	22.327	1142.750	895.523
316.095	22.439	1141.858	895.316
317.110	22.358	1141.276	894.369
318.125	22.323	1140.905	893.821
319.139	22.381	1139.904	893.251
320.154	22.417	1139.840	893.307
321.168	22.342	1139.204	892.348
322.183	22.411	1138.378	891.971
323.197	22.348	1137.976	891.261
324.212	22.393	1136.981	890.628
325.227	22.390	1136.961	890.520
326.241	22.415	1136.112	889.902
327.256	22.523	1135.677	890.025
328.270	22.488	1134.387	888.760
329.285	22.533	1133.936	888.555
330.300	22.414	1133.220	887.316
331.314	22.450	1132.265	886.670
332.329	22.539	1131.467	886.418
333.343	22.534	1130.707	885.716
334.358	22.608	1129.596	885.140
335.373	22.385	1129.014	883.485
336.387	22.517	1128.890	883.971
337.402	22.659	1127.844	883.788
338.416	22.635	1127.177	883.069
339.431	22.625	1126.559	882.457
340.446	22.634	1125.741	881.780
341.460	22.695	1125.212	881.592
342.475	22.754	1124.268	881.068
343.489	22.653	1123.627	879.986
344.504	22.655	1122.830	879.293
345.519	22.619	1121.869	878.282
346.533	22.767	1120.938	878.214
347.548	22.668	1120.690	877.447
348.562	22.739	1119.859	877.075
349.577	22.721	1118.906	876.159
350.592	22.668	1118.122	875.208
351.606	22.718	1117.571	874.944
352.621	22.767	1117.349	874.938
353.635	22.752	1116.812	874.367
354.650	22.756	1115.698	873.436
355.665	22.763	1115.466	873.209
356.679	22.781	1114.959	872.824
357.694	22.848	1114.044	872.364
358.708	22.796	1113.289	871.436
359.723	22.711	1112.625	870.424
360.738	22.729	1112.137	870.054
361.752	22.899	1111.911	870.634
362.767	22.897	1111.246	870.027
363.781	22.893	1110.709	869.509
364.796	22.943	1109.920	869.061
365.810	22.915	1109.498	868.520
366.825	22.824	1109.280	867.822
367.840	22.877	1108.703	867.556
368.854	23.007	1107.651	867.295
369.869	23.009	1106.918	866.651
370.883	22.959	1106.217	865.783
371.898	22.906	1105.709	865.046
372.913	22.960	1105.012	864.688
373.927	23.008	1104.446	864.406
374.942	22.970	1104.014	863.806
375.956	23.018	1103.380	863.470
376.971	23.069	1102.554	862.995
377.986	23.036	1102.485	862.703
379.000	23.013	1101.983	862.119
380.015	23.133	1100.860	861.751
381.029	23.007	1100.626	860.876
382.044	23.019	1100.017	860.385
383.059	23.040	1099.399	859.928
384.073	23.078	1098.501	859.331
385.088	23.145	1097.347	858.679
386.102	23.136	1096.722	858.070
387.117	23.050	1095.891	856.928
388.132	23.120	1095.207	856.653
389.146	23.074	1094.475	855.786
390.161	23.220	1093.893	855.960
391.175	23.242	1092.917	855.226
392.190	23.161	1092.705	854.591
393.205	23.198	1091.655	853.876
394.219	23.130	1091.133	853.062
395.234	23.254	1090.383	852.998
396.248	23.267	1089.368	852.192
397.263	23.286	1088.392	851.444
398.278	23.313	1088.120	851.287
399.292	23.219	1087.419	850.210
400.307	23.349	1086.697	850.195
401.321	23.344	1086.053	849.590
402.336	23.343	1085.686	849.224
403.350	23.210	1085.079	848.040
404.365	23.339	1084.058	847.782
405.380	23.369	1083.660	847.540
406.394	23.387	1082.556	846.689
407.409	23.292	1082.463	846.087
408.423	23.421	1081.372	845.773
409.438	23.473	1080.648	845.381
410.453	23.475	1080.055	844.850
411.467	23.493	1079.249	844.232
412.482	23.402	1078.729	843.318
413.496	23.589	1077.854	843.450
414.511	23.382	1077.387	842.026
415.526	23.464	1076.829	841.903
416.540	23.429	1076.365	841.300
417.555	23.543	1075.863	841.376
418.569	23.444	1075.435	840.496
419.584	23.463	1075.348	840.443
420.599	23.520	1074.801	840.209
421.613	148.774	1400.009	1798.035
422.628	137.216	1447.360	1798.128
