DTS Sentinel unit serial number:	SN413079Multiplexer serial number:	ORYXHardware model number:	OX4-SRSoftware version number:	ORYX F/W v4.00 Oryx Data Collector v3.7.2.0data status	okinstallation	princeton_trtdifferential loss correction	single-endedforward channel	channel 2reverse channel	N/Adate	2019/09/12time	00:53:11forward acquisition time	60.00reverse acquisition time	0.00gamma	496.2192k internal	0.2325k external	0.2325temperature offset calibration	1.0088default loss term (dB/km)	0.3790temperature slope calibration	1.0000multiplexer offset coefficient	1.0000multiplexer slope coefficient	1.0000fibre end	0.00T internal ref (°C)	33.25T ext. ref 1 (°C)	2.08T ext. ref 2 (°C)	28.02length (m)	temperature (°C)	Stokes	anti-Stokes-747.200	-200.000	0.069	0.316
-746.185	-200.000	-0.013	-0.160
-745.171	-62.569	-0.160	0.067
-744.156	36.904	-0.334	0.298
-743.142	-130.028	-0.057	0.008
-742.127	800.000	0.050	0.192
-741.112	-200.000	-0.003	0.315
-740.098	77.031	-0.149	0.160
-739.083	47.018	-0.112	0.105
-738.069	13.408	0.305	0.239
-737.054	-152.966	0.044	-0.003
-736.039	78.191	-0.062	0.067
-735.025	800.000	0.058	-0.204
-734.010	212.072	0.061	0.097
-732.996	-200.000	-0.059	-0.274
-731.981	362.875	-0.096	0.195
-730.966	27.272	-0.140	-0.118
-729.952	54.405	-0.155	-0.151
-728.937	106.710	-0.108	-0.129
-727.923	-200.000	0.003	-0.127
-726.908	-200.000	-0.023	-0.192
-725.894	131.766	-0.129	-0.168
-724.879	-4.848	-0.255	-0.177
-723.864	-89.157	0.050	0.015
-722.850	-200.000	-0.020	-0.176
-721.835	383.002	0.024	-0.049
-720.821	-153.156	-0.314	0.022
-719.806	39.635	0.108	-0.098
-718.791	169.550	0.121	-0.175
-717.777	-32.047	-0.169	-0.095
-716.762	-200.000	-0.022	-0.332
-715.748	367.146	0.037	0.075
-714.733	-102.273	0.393	0.095
-713.718	329.734	-0.069	-0.134
-712.704	439.171	-0.108	0.238
-711.689	125.414	0.120	-0.152
-710.675	32.769	-0.232	-0.202
-709.660	82.006	0.249	0.272
-708.645	119.942	-0.144	0.179
-707.631	-200.000	-0.007	0.115
-706.616	800.000	0.104	0.348
-705.602	-35.633	0.162	0.089
-704.587	15.560	0.184	-0.146
-703.572	147.987	-0.151	0.205
-702.558	-200.000	0.016	-0.369
-701.543	-200.000	0.186	0.000
-700.529	308.612	-0.075	-0.141
-699.514	-200.000	0.041	0.300
-698.499	47.274	0.268	0.251
-697.485	-116.399	-0.079	-0.015
-696.470	800.000	0.029	-0.115
-695.456	13.282	-0.093	-0.073
-694.441	800.000	-0.131	-0.472
-693.426	-113.221	0.267	0.053
-692.412	-71.710	-0.252	-0.095
-691.397	-200.000	-0.013	-0.131
-690.383	-200.000	-0.038	0.227
-689.368	-74.576	-0.210	-0.076
-688.354	-107.915	0.144	0.032
-687.339	-19.417	0.289	-0.180
-686.324	43.741	-0.175	0.161
-685.310	-200.000	0.011	0.058
-684.295	68.370	0.264	0.272
-683.281	-125.872	-0.204	0.031
-682.266	-95.764	-0.325	0.087
-681.251	-28.456	0.236	-0.137
-680.237	68.567	0.122	-0.126
-679.222	1.212	0.011	-0.008
-678.208	-101.022	-0.272	-0.067
-677.193	-30.134	0.335	-0.192
-676.178	-66.504	-0.274	0.110
-675.164	-200.000	-0.029	0.272
-674.149	-130.100	-0.216	0.030
-673.135	-200.000	0.031	0.239
-672.120	64.478	0.075	0.076
-671.105	-175.519	0.431	0.012
-670.091	-45.689	-0.204	-0.101
-669.076	-140.550	0.397	-0.041
-668.062	-200.000	-0.042	-0.210
-667.047	-200.000	0.004	0.124
-666.032	-166.646	0.235	-0.010
-665.018	-13.321	-0.159	-0.103
-664.003	-200.000	0.014	0.086
-662.989	-200.000	-0.028	0.166
-661.974	644.060	-0.112	-0.288
-660.959	134.150	0.130	-0.169
-659.945	-15.608	0.077	0.050
-658.930	-161.633	0.125	-0.006
-657.916	-150.504	-0.226	-0.017
-656.901	-140.252	0.178	-0.019
-655.886	-200.000	-0.010	0.077
-654.872	-51.261	-0.179	0.084
-653.857	800.000	0.049	-0.204
-652.843	-58.882	0.166	0.072
-651.828	-200.000	0.044	0.211
-650.814	-107.435	-0.173	0.038
-649.799	800.000	0.049	-0.153
-648.784	-131.338	0.028	0.004
-647.770	-115.819	-0.231	0.043
-646.755	92.830	-0.146	-0.166
-645.741	-33.610	0.204	0.113
-644.726	800.000	-0.095	0.358
-643.711	656.907	0.151	0.389
-642.697	19.728	-0.329	-0.266
-641.682	-114.447	-0.333	-0.064
-640.668	-200.000	0.017	0.184
-639.653	220.046	-0.094	0.152
-638.638	-111.148	0.199	0.041
-637.624	-200.000	-0.027	-0.231
-636.609	-122.538	0.191	0.031
-635.595	-10.064	0.307	0.205
-634.580	-88.687	0.385	0.115
-633.565	-133.713	0.291	-0.037
-632.551	49.554	0.249	0.235
-631.536	-95.654	0.048	0.013
-630.522	289.086	-0.087	-0.159
-629.507	-129.008	0.378	0.053
-628.492	-32.647	0.196	0.110
-627.478	-34.197	0.152	-0.084
-626.463	-84.399	0.240	-0.076
-625.449	55.964	0.176	-0.171
-624.434	-114.327	-0.128	0.025
-623.419	-200.000	-0.048	-0.274
-622.405	126.737	0.099	-0.126
-621.390	-158.754	-0.017	0.001
-620.376	87.230	-0.149	-0.166
-619.361	-200.000	-0.017	-0.103
-618.346	-144.871	-0.215	-0.020
-617.332	-142.740	-0.332	-0.033
-616.317	-200.000	-0.255	0.001
-615.303	80.197	-0.234	0.253
-614.288	-166.282	-0.412	-0.017
-613.273	-9.311	0.117	-0.079
-612.259	75.470	0.132	0.140
-611.244	-163.808	0.179	0.008
-610.230	-200.000	-0.022	-0.292
-609.215	401.862	0.051	0.108
-608.201	173.903	0.113	-0.164
-607.186	-200.000	0.021	0.147
-606.171	-200.000	0.038	-0.187
-605.157	268.562	-0.184	-0.323
-604.142	-32.818	0.184	-0.103
-603.128	-73.501	0.223	-0.082
-602.113	315.430	-0.075	0.142
-601.098	64.069	-0.239	-0.241
-600.084	800.000	0.096	0.300
-599.069	-200.000	-0.013	0.219
-598.055	336.441	0.092	0.179
-597.040	626.620	-0.050	0.128
-596.025	119.733	0.250	-0.310
-595.011	-58.037	-0.038	0.017
-593.996	555.541	-0.138	0.334
-592.982	63.138	0.261	-0.263
-591.967	115.111	-0.174	-0.213
-590.952	-126.095	-0.445	0.067
-589.938	-24.551	-0.415	0.248
-588.923	800.000	-0.062	0.182
-587.909	87.413	0.324	-0.359
-586.894	-10.412	-0.109	0.073
-585.879	181.298	0.085	-0.125
-584.865	-2.134	0.071	0.050
-583.850	-8.592	0.102	-0.069
-582.836	-200.000	-0.016	0.486
-581.821	-102.454	-0.184	-0.044
-580.806	413.663	0.043	-0.093
-579.792	61.568	0.112	0.112
-578.777	-200.000	0.091	-0.456
-577.763	800.000	-0.052	-0.164
-576.748	-200.000	0.051	-0.261
-575.733	84.294	-0.071	-0.078
-574.719	-200.000	-0.040	-0.184
-573.704	-101.087	-0.438	0.108
-572.690	-180.509	0.038	-0.001
-571.675	-69.597	0.226	-0.087
-570.661	350.525	0.070	0.138
-569.646	79.843	0.076	-0.082
-568.631	-200.000	0.046	0.311
-567.617	486.197	-0.017	-0.040
-566.602	100.747	0.237	0.276
-565.588	-88.305	0.089	-0.027
-564.573	40.365	-0.230	-0.207
-563.558	9.093	0.160	-0.121
-562.544	-200.000	-0.033	-0.230
-561.529	33.176	0.107	0.093
-560.515	122.389	-0.109	0.136
-559.500	-138.734	-0.246	0.027
-558.485	-91.099	-0.104	0.030
-557.471	-94.597	-0.126	-0.034
-556.456	-138.897	0.063	-0.007
-555.442	243.540	0.222	-0.374
-554.427	-56.951	0.341	0.151
-553.412	-58.598	0.225	-0.098
-552.398	47.233	-0.172	0.161
-551.383	800.000	-0.051	0.157
-550.369	33.831	-0.185	-0.161
-549.354	-76.031	-0.362	-0.128
-548.339	-60.597	0.115	0.049
-547.325	-108.509	0.197	0.042
-546.310	-200.000	0.040	-0.197
-545.296	-104.863	-0.237	-0.055
-544.281	204.769	-0.020	-0.032
-543.266	-151.606	0.250	-0.018
-542.252	64.663	-0.077	-0.077
-541.237	134.851	0.055	0.071
-540.223	153.767	-0.225	-0.309
-539.208	175.125	-0.016	0.023
-538.193	209.139	-0.035	-0.054
-537.179	-124.085	-0.019	-0.003
-536.164	-200.000	-0.036	0.197
-535.150	800.000	-0.143	0.491
-534.135	-64.954	-0.417	0.168
-533.121	-200.000	-0.013	-0.150
-532.106	-200.000	0.008	-0.153
-531.091	352.431	0.155	-0.307
-530.077	-160.124	-0.216	-0.012
-529.062	-28.855	0.210	-0.121
-528.048	-200.000	-0.007	-0.156
-527.033	2.879	0.174	0.126
-526.018	432.896	0.086	0.186
-525.004	162.650	-0.260	-0.365
-523.989	800.000	0.041	-0.126
-522.975	-200.000	-0.008	0.110
-521.960	800.000	-0.081	0.313
-520.945	56.352	-0.165	0.160
-519.931	178.762	0.059	-0.086
-518.916	-40.646	-0.178	0.092
-517.902	-22.095	-0.237	0.144
-516.887	-167.553	-0.128	0.005
-515.872	67.981	0.068	-0.070
-514.858	86.128	-0.090	-0.099
-513.843	156.396	-0.112	0.155
-512.829	-16.674	-0.168	-0.106
-511.814	62.106	0.204	0.203
-510.799	-17.307	-0.016	0.010
-509.785	-99.838	0.157	-0.039
-508.770	800.000	0.035	-0.128
-507.756	3.501	-0.154	0.113
-506.741	118.418	0.294	0.362
-505.726	5.445	0.324	-0.239
-504.712	8.132	-0.307	0.231
-503.697	-136.622	-0.099	-0.011
-502.683	800.000	-0.079	0.306
-501.668	800.000	0.055	-0.181
-500.653	111.331	0.044	-0.053
-499.639	800.000	-0.071	-0.222
-498.624	-70.969	0.318	-0.120
-497.610	343.111	-0.081	-0.158
-496.595	-121.571	-0.273	0.045
-495.581	800.000	0.048	0.151
-494.566	-200.000	0.006	-0.128
-493.551	800.000	-0.033	-0.122
-492.537	-140.205	-0.241	-0.025
-491.522	-7.623	-0.082	0.055
-490.508	383.064	-0.090	0.185
-489.493	800.000	0.079	-0.242
-488.478	800.000	0.040	-0.134
-487.464	-200.000	0.011	-0.184
-486.449	49.955	-0.049	-0.046
-485.435	-119.000	-0.104	0.018
-484.420	-200.000	-0.039	-0.277
-483.405	-45.292	-0.155	-0.077
-482.391	-111.206	-0.164	0.033
-481.376	-105.815	0.177	0.040
-480.362	-116.258	-0.068	-0.013
-479.347	800.000	-0.071	-0.239
-478.332	44.767	0.038	0.035
-477.318	-200.000	-0.008	-0.262
-476.303	-200.000	0.009	-0.256
-475.289	-86.687	-0.110	-0.034
-474.274	-200.000	0.020	-0.099
-473.259	-200.000	0.043	-0.294
-472.245	-108.954	-0.066	0.014
-471.230	72.741	0.179	-0.187
-470.216	463.849	-0.138	-0.309
-469.201	40.305	0.052	-0.046
-468.186	-68.826	-0.102	0.039
-467.172	75.160	-0.176	-0.185
-466.157	47.527	0.134	-0.125
-465.143	-200.000	0.005	-0.083
-464.128	112.327	-0.125	-0.150
-463.113	291.316	-0.142	-0.259
-462.099	101.157	-0.214	-0.249
-461.084	121.399	0.248	0.309
-460.070	-25.606	-0.076	0.045
-459.055	-103.776	0.098	0.023
-458.040	-200.000	0.048	-0.356
-457.026	-83.071	-0.160	0.051
-456.011	-154.748	0.041	0.003
-454.997	153.510	0.185	-0.253
-453.982	-66.584	-0.160	-0.063
-452.968	-110.509	0.402	0.083
-451.953	158.212	0.139	0.192
-450.938	-188.153	0.108	-0.001
-449.924	-43.626	0.211	-0.106
-448.909	-200.000	0.021	0.192
-447.895	800.000	-0.085	0.242
-446.880	-200.000	0.003	0.084
-445.865	-200.000	0.088	0.492
-444.851	123.584	0.065	-0.081
-443.836	57.786	-0.169	-0.165
-442.822	70.383	-0.107	-0.110
-441.807	-149.037	-0.175	0.014
-440.792	800.000	-0.061	-0.259
-439.778	-115.972	0.288	-0.053
-438.763	-80.585	0.265	-0.088
-437.749	4.797	-0.126	-0.092
-436.734	727.815	-0.043	0.115
-435.719	-97.167	0.446	0.116
-434.705	98.816	0.126	-0.145
-433.690	288.544	-0.103	-0.185
-432.676	-35.462	-0.190	0.103
-431.661	-35.091	-0.272	0.148
-430.646	-156.325	-0.036	-0.002
-429.632	21.701	-0.068	0.055
-428.617	79.504	-0.020	0.022
-427.603	1.085	0.044	-0.031
-426.588	-200.000	-0.040	0.249
-425.573	800.000	0.042	-0.159
-424.559	-76.046	-0.462	0.163
-423.544	-68.864	-0.054	0.021
-422.530	172.924	0.198	0.284
-421.515	-141.213	-0.305	-0.031
-420.500	800.000	-0.067	-0.291
-419.486	92.992	-0.142	-0.159
-418.471	325.790	0.075	0.144
-417.457	187.754	-0.062	0.093
-416.442	-200.000	0.019	-0.144
-415.428	800.000	0.091	0.301
-414.413	-111.891	-0.154	-0.031
-413.398	752.977	-0.072	-0.194
-412.384	-37.167	-0.192	0.102
-411.369	146.047	0.152	-0.203
-410.355	-30.768	0.139	0.078
-409.340	-59.832	0.129	-0.055
-408.325	800.000	-0.058	-0.192
-407.311	18.757	0.045	0.036
-406.296	172.175	0.098	0.141
-405.282	357.725	-0.086	0.171
-404.267	273.108	-0.092	0.161
-403.252	64.412	-0.194	0.195
-402.238	800.000	-0.127	0.508
-401.223	-153.662	-0.053	-0.004
-400.209	348.446	0.226	-0.444
-399.194	18.558	-0.349	0.278
-398.179	304.738	-0.108	-0.199
-397.165	-105.470	0.237	0.054
-396.150	-200.000	-0.034	-0.183
-395.136	800.000	0.013	0.042
-394.121	-200.000	0.018	-0.131
-393.106	-110.883	0.160	-0.033
-392.092	5.093	-0.170	-0.125
-391.077	217.255	-0.052	-0.082
-390.063	-200.000	-0.015	0.192
-389.048	184.202	0.078	-0.115
-388.033	-87.081	-0.329	-0.100
-387.019	-52.253	0.100	0.046
-386.004	-2.804	0.204	0.142
-384.990	-156.655	0.353	0.022
-383.975	-109.763	0.334	-0.070
-382.960	78.377	0.228	0.242
-381.946	-138.525	-0.232	0.025
-380.931	73.391	-0.188	0.195
-379.917	663.692	-0.038	0.098
-378.902	-141.621	0.210	-0.021
-377.888	386.814	-0.190	0.391
-376.873	-70.427	0.388	0.146
-375.858	41.492	-0.303	0.272
-374.844	-100.101	-0.074	0.018
-373.829	-52.949	0.132	-0.060
-372.815	800.000	0.139	0.405
-371.800	-110.818	-0.150	-0.031
-370.785	58.685	-0.102	-0.099
-369.771	16.994	0.093	-0.073
-368.756	-138.493	0.202	-0.022
-367.742	70.747	0.163	0.168
-366.727	201.425	0.052	0.079
-365.712	50.021	0.161	-0.151
-364.698	-164.444	-0.195	0.009
-363.683	-144.847	0.093	-0.008
-362.669	-12.656	0.181	0.117
-361.654	-200.000	-0.050	0.231
-360.639	800.000	0.076	0.280
-359.625	378.518	0.191	0.389
-358.610	-85.375	0.226	0.070
-357.596	88.862	-0.057	-0.064
-356.581	68.010	0.195	-0.198
-355.566	800.000	0.114	-0.315
-354.552	383.665	0.022	0.044
-353.537	-200.000	0.024	0.189
-352.523	95.918	-0.051	0.057
-351.508	284.955	0.091	0.162
-350.493	262.259	0.025	-0.043
-349.479	-44.640	-0.195	-0.097
-348.464	-200.000	-0.003	0.144
-347.450	226.299	0.163	0.263
-346.435	-41.296	-0.071	0.036
-345.420	-69.464	-0.431	0.164
-344.406	-200.000	0.046	0.289
-343.391	41.012	-0.087	0.078
-342.377	-128.549	-0.336	-0.047
-341.362	-3.999	0.145	-0.100
-340.348	129.731	-0.148	-0.188
-339.333	-42.896	-0.262	0.132
-338.318	5.529	-0.235	0.173
-337.304	-200.000	0.022	-0.139
-336.289	-200.000	-0.025	-0.393
-335.275	-5.115	-0.216	-0.147
-334.260	-49.159	-0.145	0.069
-333.245	-64.408	0.302	0.122
-332.231	-121.354	0.245	0.041
-331.216	-62.407	0.181	-0.075
-330.202	161.982	-0.074	0.103
-329.187	-200.000	0.026	0.211
-328.172	-200.000	-0.019	-0.239
-327.158	-200.000	0.006	-0.136
-326.143	-60.322	-0.155	0.065
-325.129	800.000	-0.007	0.021
-324.114	-102.054	0.129	-0.031
-323.099	-200.000	0.002	0.026
-322.085	-13.684	0.188	0.121
-321.070	9.695	0.095	-0.072
-320.056	-200.000	0.029	-0.248
-319.041	157.175	-0.047	0.064
-318.026	103.472	-0.227	-0.265
-317.012	151.690	0.188	-0.254
-315.997	-15.385	-0.122	-0.078
-314.983	-79.770	0.215	-0.072
-313.968	-63.311	0.376	-0.153
-312.953	-200.000	-0.011	-0.183
-311.939	-200.000	0.030	-0.207
-310.924	-137.889	0.370	0.041
-309.910	147.410	0.080	-0.106
-308.895	-96.024	-0.162	-0.043
-307.880	-113.517	0.110	-0.021
-306.866	-5.058	0.154	0.105
-305.851	-46.589	0.218	-0.106
-304.837	-200.000	-0.028	0.274
-303.822	159.259	0.137	-0.188
-302.807	-10.962	0.257	0.168
-301.793	-200.000	-0.036	-0.162
-300.778	800.000	0.093	-0.271
-299.764	69.743	0.122	-0.124
-298.749	133.860	0.270	0.347
-297.735	14.356	0.187	0.145
-296.720	258.020	-0.061	0.104
-295.705	800.000	0.086	-0.271
-294.691	800.000	-0.141	0.451
-293.676	-55.218	-0.129	-0.057
-292.662	-200.000	0.007	-0.106
-291.647	-173.215	0.228	-0.007
-290.632	-115.511	-0.282	-0.053
-289.618	211.855	0.116	-0.181
-288.603	-200.000	-0.061	0.324
-287.589	-200.000	0.004	0.222
-286.574	-200.000	-0.031	-0.173
-285.559	800.000	0.120	0.378
-284.545	-143.846	0.145	0.014
-283.530	-200.000	0.010	-0.307
-282.516	36.838	0.107	-0.094
-281.501	51.335	0.185	0.174
-280.486	-200.000	-0.010	-0.141
-279.472	-85.062	0.133	-0.041
-278.457	-200.000	-0.004	-0.118
-277.443	-200.000	-0.060	-0.308
-276.428	-132.851	0.102	-0.013
-275.413	-66.298	-0.207	-0.082
-274.399	395.731	0.087	0.180
-273.384	694.151	-0.033	-0.087
-272.370	23.724	0.169	0.138
-271.355	800.000	0.081	-0.235
-270.340	-108.703	-0.056	0.012
-269.326	-200.000	0.017	-0.097
-268.311	-200.000	0.007	-0.359
-267.297	-27.061	0.166	-0.096
-266.282	-200.000	-0.014	0.080
-265.267	366.547	0.141	0.283
-264.253	-168.985	-0.149	-0.006
-263.238	-112.039	0.246	0.049
-262.224	123.749	0.068	-0.084
-261.209	87.768	0.118	0.129
-260.195	-150.359	-0.253	-0.019
-259.180	-34.506	0.187	-0.101
-258.165	-30.240	-0.364	-0.205
-257.151	84.085	0.157	0.170
-256.136	-86.134	-0.158	0.048
-255.122	-137.562	-0.098	-0.011
-254.107	23.692	0.269	-0.219
-253.092	-138.713	-0.316	0.034
-252.078	-24.747	0.335	0.197
-251.063	-200.000	-0.007	-0.201
-250.049	-126.058	0.137	-0.020
-249.034	-200.000	0.025	0.249
-248.019	-85.700	-0.172	0.053
-247.005	25.678	0.067	0.055
-245.990	800.000	-0.054	0.211
-244.976	-180.232	0.389	0.008
-243.961	461.978	-0.101	-0.224
-242.946	-200.000	0.001	-0.101
-241.932	-37.051	0.238	0.126
-240.917	-46.830	-0.214	0.104
-239.903	633.333	-0.091	0.228
-238.888	431.839	0.018	-0.039
-237.873	-157.753	-0.259	0.015
-236.859	-87.244	-0.201	0.060
-235.844	-102.774	0.081	0.019
-234.830	-65.021	-0.277	-0.111
-233.815	-162.175	-0.210	-0.010
-232.800	646.644	0.044	0.111
-231.786	-193.130	-0.283	0.002
-230.771	20.515	-0.386	-0.309
-229.757	-200.000	0.005	0.125
-228.742	45.868	-0.059	-0.054
-227.727	800.000	0.035	0.133
-226.713	800.000	0.110	0.419
-225.698	265.537	0.188	0.325
-224.684	-38.641	-0.169	0.088
-223.669	800.000	-0.057	0.157
-222.655	800.000	0.040	-0.139
-221.640	-89.667	0.132	-0.038
-220.625	-135.480	-0.103	0.012
-219.611	53.241	-0.146	-0.138
-218.596	109.243	-0.026	-0.031
-217.582	-50.187	-0.046	0.021
-216.567	186.531	0.242	0.356
-215.552	-80.198	0.268	0.089
-214.538	-200.000	-0.023	0.273
-213.523	273.129	-0.108	0.188
-212.509	419.051	0.097	0.205
-211.494	-200.000	0.018	-0.172
-210.479	-200.000	0.057	0.295
-209.465	-139.517	-0.462	-0.049
-208.450	24.743	-0.074	0.061
-207.436	-153.886	0.180	0.012
-206.421	436.686	0.192	0.414
-205.406	202.324	-0.138	-0.211
-204.392	-187.546	-0.457	-0.006
-203.377	121.595	-0.142	-0.175
-202.363	-49.908	-0.027	-0.013
-201.348	43.703	0.306	0.276
-200.333	27.305	-0.312	0.259
-199.319	205.341	0.062	-0.095
-198.304	19.068	-0.145	0.115
-197.290	-34.019	-0.269	0.146
-196.275	-200.000	0.033	0.176
-195.260	84.135	0.172	-0.186
-194.246	-200.000	0.031	0.192
-193.231	-4.325	-0.113	0.077
-192.217	-126.603	0.186	-0.027
-191.202	-26.259	0.055	0.032
-190.187	202.453	-0.134	-0.204
-189.173	800.000	0.035	0.109
-188.158	26.170	0.181	-0.149
-187.144	36.568	-0.214	-0.186
-186.129	39.592	-0.008	-0.007
-185.114	-180.517	0.038	-0.001
-184.100	-111.783	-0.238	-0.048
-183.085	-92.243	0.350	0.097
-182.071	9.277	0.224	0.167
-181.056	-74.760	-0.135	0.048
-180.042	64.677	-0.163	-0.163
-179.027	359.348	-0.107	-0.212
-178.012	-56.569	-0.088	0.039
-176.998	-176.871	0.307	0.008
-175.983	350.324	-0.107	0.209
-174.969	-160.037	-0.221	-0.012
-173.954	19.807	0.164	0.130
-172.939	-31.249	0.151	0.084
-171.925	60.950	0.077	-0.075
-170.910	247.368	0.210	-0.350
-169.896	-200.000	-0.043	-0.205
-168.881	-200.000	-0.039	0.253
-167.866	1.765	-0.385	-0.274
-166.852	-200.000	0.015	0.123
-165.837	-148.673	0.149	-0.012
-164.823	-200.000	-0.012	0.118
-163.808	-144.997	-0.111	-0.010
-162.793	-45.060	-0.174	-0.085
-161.779	-21.583	0.188	0.113
-160.764	-200.000	-0.072	-0.344
-159.750	-113.603	-0.207	-0.040
-158.735	2.483	0.204	-0.146
-157.720	84.659	0.177	0.191
-156.706	-145.474	0.267	-0.024
-155.691	-66.043	-0.214	0.084
-154.677	800.000	0.055	-0.157
-153.662	-99.693	-0.075	0.018
-152.647	-16.508	-0.348	0.217
-151.633	-9.394	0.043	-0.028
-150.618	-45.159	0.157	-0.077
-149.604	46.299	-0.096	0.088
-148.589	-16.308	-0.097	0.061
-147.574	-200.000	0.067	0.298
-146.560	-20.638	0.192	0.116
-145.545	250.497	-0.031	0.052
-144.531	-200.000	-0.030	-0.281
-143.516	-99.723	0.497	-0.123
-142.502	-42.472	-0.253	-0.127
-141.487	299.088	0.011	0.021
-140.472	-156.699	0.062	-0.004
-139.458	800.000	-0.097	0.416
-138.443	-37.469	0.117	0.062
-137.429	800.000	-0.074	0.225
-136.414	-200.000	0.012	-0.129
-135.399	24.743	-0.299	0.244
-134.385	55.774	0.133	-0.127
-133.370	541.256	-0.063	0.149
-132.356	212.767	-0.184	-0.286
-131.341	259.613	-0.125	-0.213
-130.326	-65.638	0.507	-0.200
-129.312	-92.547	0.300	-0.083
-128.297	-93.610	-0.238	-0.065
-127.283	59.981	0.126	0.123
-126.268	277.584	0.031	-0.054
-125.253	-72.270	0.133	0.049
-124.239	-200.000	-0.006	-0.177
-123.224	-169.162	0.230	-0.008
-122.210	39.173	0.139	-0.122
-121.195	46.837	0.073	-0.067
-120.180	13.684	-0.075	-0.057
-119.166	-107.043	0.251	0.055
-118.151	268.707	-0.035	-0.060
-117.137	-200.000	0.009	0.092
-116.122	27.875	0.033	-0.028
-115.107	-39.521	-0.631	-0.325
-114.093	-167.035	0.169	0.007
-113.078	88.899	-0.243	0.266
-112.064	-166.278	-0.149	0.006
-111.049	-200.000	0.022	-0.328
-110.034	-200.000	-0.023	0.449
-109.020	-200.000	0.001	-0.141
-108.005	-200.000	0.031	0.460
-106.991	530.609	0.069	0.161
-105.976	-16.584	0.213	0.133
-104.962	-136.991	-0.272	-0.031
-103.947	93.644	-0.085	0.094
-102.932	-65.117	-0.122	0.048
-101.918	88.472	0.041	-0.045
-100.903	-105.352	-0.242	0.054
-99.889	-200.000	-0.027	0.201
-98.874	800.000	0.086	0.268
-97.859	413.803	-0.015	-0.032
-96.845	-5.109	0.080	0.054
-95.830	-82.670	0.118	0.038
-94.816	166.546	-0.174	0.242
-93.801	-200.000	0.053	0.386
-92.786	-178.470	0.250	0.006
-91.772	216.344	-0.243	0.380
-90.757	800.000	0.021	0.069
-89.743	-131.380	-0.155	-0.020
-88.728	-59.341	-0.164	0.069
-87.713	-31.599	0.127	-0.070
-86.699	800.000	0.011	-0.047
-85.684	755.694	0.110	0.294
-84.670	42.304	-0.046	-0.041
-83.655	-200.000	0.021	-0.395
-82.640	301.852	-0.138	0.251
-81.626	-200.000	-0.031	0.210
-80.611	-53.382	0.473	-0.213
-79.597	-113.217	0.249	-0.048
-78.582	-200.000	-0.025	0.169
-77.567	24.519	-0.079	-0.064
-76.553	21.444	-0.239	0.191
-75.538	91.267	0.317	0.350
-74.524	513.771	0.124	0.283
-73.509	18.274	0.082	-0.064
-72.494	-17.641	-0.345	0.213
-71.480	211.370	0.113	-0.174
-70.465	-200.000	0.004	-0.074
-69.451	-146.224	0.323	-0.028
-68.436	-78.203	0.247	0.084
-67.422	-30.378	-0.106	0.059
-66.407	229.449	-0.111	-0.179
-65.392	183.098	0.220	0.319
-64.378	800.000	-0.095	0.351
-63.363	-162.362	0.207	-0.010
-62.349	-116.562	0.200	-0.036
-61.334	149.612	-0.744	-0.990
-60.319	26.383	0.444	0.365
-59.305	354.157	-0.431	-0.841
-58.290	398.312	0.639	1.312
-57.276	-200.000	0.275	1.479
-56.261	-200.000	96.193	577.672
-55.246	552.739	1385.719	3269.929
-54.232	157.661	2575.278	3502.481
-53.217	106.870	2273.092	2650.291
-52.203	42.536	1895.693	1693.794
-51.188	36.605	1685.760	1461.499
-50.173	33.839	1641.435	1402.627
-49.159	51.113	1687.776	1571.854
-48.144	53.118	1704.791	1602.634
-47.130	36.132	1664.653	1439.445
-46.115	33.391	1649.849	1406.265
-45.100	33.097	1645.597	1400.409
-44.086	33.195	1642.314	1398.282
-43.071	33.214	1639.500	1395.972
-42.057	33.086	1637.142	1392.966
-41.042	33.156	1634.916	1391.528
-40.027	33.130	1633.301	1389.906
-39.013	33.084	1631.178	1387.709
-37.998	32.997	1630.240	1386.221
-36.984	33.151	1628.271	1385.617
-35.969	33.272	1626.978	1385.348
-34.954	33.241	1625.606	1383.901
-33.940	33.381	1623.320	1382.921
-32.925	33.141	1622.374	1380.310
-31.911	33.301	1619.740	1379.174
-30.896	33.239	1618.629	1377.726
-29.881	33.206	1616.656	1375.753
-28.867	33.242	1615.050	1374.590
-27.852	33.225	1613.379	1372.995
-26.838	33.241	1612.213	1372.064
-25.823	33.282	1610.401	1370.762
-24.809	33.299	1609.239	1369.838
-23.794	33.240	1608.099	1368.388
-22.779	33.272	1606.435	1367.153
-21.765	33.268	1604.244	1365.203
-20.750	33.225	1603.293	1364.025
-19.736	33.311	1601.564	1363.126
-18.721	33.279	1599.906	1361.428
-17.706	33.356	1598.518	1360.749
-16.692	33.297	1597.213	1359.158
-15.677	33.293	1595.936	1357.989
-14.663	33.277	1594.805	1356.860
-13.648	33.251	1593.100	1355.164
-12.633	33.293	1591.620	1354.154
-11.619	33.271	1589.903	1352.484
-10.604	33.284	1588.528	1351.349
-9.590	33.343	1587.104	1350.505
-8.575	33.340	1585.703	1349.237
-7.560	33.319	1584.541	1348.049
-6.546	33.251	1583.571	1346.690
-5.531	33.283	1582.993	1346.371
-4.517	33.218	1581.460	1344.546
-3.502	33.363	1579.984	1344.269
-2.487	33.336	1578.368	1342.649
-1.473	32.975	1567.303	1330.640
-0.458	30.418	1547.945	1296.332
0.556	27.383	1548.804	1266.641
1.571	25.154	1572.446	1270.097
2.586	24.708	1585.868	1277.639
3.600	22.146	1533.055	1217.258
4.615	12.624	1421.595	1067.200
5.629	3.774	1354.971	962.193
6.644	2.208	1346.627	946.488
7.659	2.124	1345.043	944.771
8.673	2.072	1343.705	943.424
9.688	1.916	1342.010	941.190
10.702	1.583	1339.156	937.053
11.717	5.271	1346.275	964.760
12.731	15.607	1365.261	1042.723
13.746	23.953	1380.008	1106.012
14.761	26.179	1382.506	1121.764
15.775	26.447	1382.437	1123.273
16.790	26.471	1382.196	1123.131
17.804	26.587	1381.305	1123.021
18.819	26.772	1381.648	1124.350
19.834	26.960	1380.092	1124.152
20.848	26.940	1379.622	1123.542
21.863	26.896	1378.591	1122.334
22.877	26.970	1378.077	1122.272
23.892	26.922	1376.947	1120.955
24.907	26.905	1376.609	1120.478
25.921	26.886	1375.270	1119.171
26.936	26.899	1374.247	1118.317
27.950	26.855	1373.663	1117.475
28.965	26.908	1372.275	1116.573
29.980	26.958	1370.661	1115.469
30.994	26.908	1369.359	1113.999
32.009	27.007	1368.366	1113.707
33.023	26.954	1367.344	1112.446
34.038	26.881	1366.494	1111.212
35.053	26.899	1365.150	1110.130
36.067	26.881	1364.186	1109.138
37.082	26.852	1363.806	1108.552
38.096	26.877	1362.632	1107.652
39.111	26.974	1361.924	1107.572
40.126	26.907	1361.239	1106.511
41.140	26.938	1360.454	1105.963
42.155	26.879	1360.606	1105.628
43.169	26.899	1360.313	1105.414
44.184	26.984	1359.916	1105.512
45.199	26.856	1359.793	1104.532
46.213	26.876	1358.977	1103.892
47.228	26.916	1358.025	1103.265
48.242	26.868	1356.698	1101.800
49.257	26.903	1355.327	1100.800
50.271	26.896	1353.894	1099.495
51.286	26.904	1352.512	1098.324
52.301	26.820	1351.624	1097.002
53.315	26.968	1350.559	1096.931
54.330	26.829	1349.654	1095.264
55.344	26.924	1348.438	1094.749
56.359	26.925	1347.603	1093.985
57.374	26.786	1347.188	1092.709
58.388	26.883	1346.093	1092.310
59.403	26.908	1346.030	1092.313
60.417	26.988	1344.909	1091.785
61.432	26.945	1344.715	1091.274
62.447	26.871	1344.008	1090.158
63.461	26.830	1342.838	1088.866
64.476	26.821	1341.862	1087.924
65.490	26.931	1340.859	1087.675
66.505	26.906	1338.694	1085.673
67.520	26.960	1337.182	1084.673
68.534	26.911	1336.946	1084.096
69.549	26.904	1336.322	1083.450
70.563	26.901	1335.246	1082.466
71.578	27.007	1333.690	1081.737
72.593	26.864	1333.659	1080.767
73.607	26.907	1332.553	1080.031
74.622	26.950	1331.690	1079.488
75.636	26.918	1331.024	1078.666
76.651	27.079	1330.013	1078.708
77.666	26.968	1329.835	1077.810
78.680	26.805	1329.939	1076.828
79.695	26.828	1328.706	1075.870
80.709	26.809	1328.267	1075.310
81.724	26.858	1326.827	1074.336
82.739	26.919	1325.855	1073.819
83.753	26.864	1325.292	1072.940
84.768	26.904	1323.630	1071.737
85.782	26.919	1323.058	1071.267
86.797	26.888	1321.581	1069.795
87.812	26.954	1320.454	1069.174
88.826	26.906	1319.849	1068.311
89.841	26.896	1319.050	1067.508
90.855	27.074	1317.711	1067.373
91.870	26.945	1317.166	1066.085
92.884	26.999	1316.260	1065.569
93.899	27.021	1315.075	1064.644
94.914	26.968	1314.337	1063.646
95.928	26.973	1314.113	1063.400
96.943	26.910	1313.340	1062.311
97.957	26.970	1312.618	1061.983
98.972	26.990	1311.862	1061.396
99.987	26.952	1311.019	1060.396
101.001	26.936	1309.761	1059.190
102.016	26.972	1308.627	1058.392
103.030	26.997	1307.965	1057.907
104.045	27.013	1306.933	1057.074
105.060	26.947	1306.190	1055.994
106.074	27.062	1305.089	1055.682
107.089	26.981	1304.265	1054.448
108.103	26.952	1303.390	1053.478
109.118	26.944	1302.345	1052.495
110.133	26.976	1301.163	1051.631
111.147	27.061	1299.727	1050.868
112.162	27.076	1298.876	1050.177
113.176	27.022	1297.848	1048.941
114.191	27.014	1296.857	1047.998
115.206	27.047	1295.684	1047.151
116.220	27.014	1294.761	1046.121
117.235	27.018	1294.006	1045.443
118.249	27.045	1292.983	1044.678
119.264	27.019	1292.182	1043.789
120.279	27.014	1291.790	1043.350
121.293	27.073	1290.439	1042.506
122.308	27.125	1289.728	1042.140
123.322	27.090	1289.251	1041.462
124.337	27.065	1288.300	1040.454
125.352	27.207	1287.236	1040.318
126.366	27.097	1286.296	1038.836
127.381	27.125	1285.946	1038.619
128.395	27.213	1284.787	1038.094
129.410	27.112	1283.958	1036.757
130.424	27.098	1282.948	1035.771
131.439	27.198	1282.473	1035.868
132.454	27.133	1281.909	1034.949
133.468	27.026	1281.473	1033.899
134.483	27.028	1281.149	1033.553
135.497	27.055	1280.094	1032.767
136.512	27.083	1279.134	1032.060
137.527	27.044	1277.777	1030.650
138.541	27.070	1276.492	1029.670
139.556	27.043	1275.253	1028.425
140.570	26.998	1274.848	1027.758
141.585	26.987	1273.532	1026.540
142.600	27.056	1272.413	1025.938
143.614	27.084	1271.759	1025.480
144.629	26.913	1271.183	1023.958
145.643	27.071	1269.683	1023.550
146.658	26.944	1268.552	1021.833
147.673	26.940	1267.873	1021.173
148.687	26.970	1266.734	1020.332
149.702	27.001	1265.287	1019.253
150.716	26.959	1264.885	1018.602
151.731	27.099	1263.185	1017.929
152.746	27.103	1262.546	1017.346
153.760	27.113	1261.486	1016.454
154.775	27.090	1260.671	1015.579
155.789	27.099	1259.580	1014.665
156.804	27.169	1258.499	1014.092
157.819	27.177	1257.542	1013.277
158.833	27.113	1257.149	1012.511
159.848	27.253	1256.182	1012.428
160.862	27.154	1255.606	1011.323
161.877	27.094	1255.187	1010.557
162.892	27.187	1254.296	1010.271
163.906	27.148	1253.691	1009.474
164.921	27.192	1253.050	1009.114
165.935	27.265	1252.132	1008.694
166.950	27.186	1251.460	1007.623
167.964	27.103	1251.242	1006.899
168.979	27.111	1250.429	1006.201
169.994	27.128	1249.829	1005.718
171.008	27.166	1249.516	1005.592
172.023	27.124	1248.650	1004.572
173.037	27.210	1247.654	1004.159
174.052	27.213	1247.080	1003.621
175.067	27.186	1246.319	1002.771
176.081	27.149	1245.427	1001.765
177.096	27.142	1244.705	1001.053
178.110	27.295	1243.559	1000.886
179.125	27.207	1242.643	999.579
180.140	27.238	1241.370	998.633
181.154	27.318	1240.221	998.062
182.169	27.271	1239.209	996.903
183.183	27.181	1238.474	995.726
184.198	27.335	1237.291	995.531
185.213	27.398	1235.972	994.729
186.227	27.211	1235.863	993.528
187.242	27.184	1234.652	992.318
188.256	27.359	1233.574	992.318
189.271	27.276	1233.229	991.504
190.286	27.293	1232.401	990.840
191.300	27.266	1231.771	990.098
192.315	27.307	1231.413	989.947
193.329	27.327	1230.947	989.597
194.344	27.280	1230.397	988.812
195.359	27.383	1229.824	988.818
196.373	27.336	1229.427	988.158
197.388	27.240	1229.074	987.266
198.402	27.226	1229.092	987.118
199.417	27.201	1228.676	986.562
200.432	27.297	1227.761	986.260
201.446	27.419	1226.535	985.847
202.461	27.381	1226.147	985.242
203.475	27.338	1225.404	984.326
204.490	27.356	1224.517	983.624
205.504	27.296	1223.688	982.547
206.519	27.471	1221.962	982.017
207.534	27.324	1221.807	981.015
208.548	27.223	1220.989	979.726
209.563	27.300	1220.259	979.466
210.577	27.322	1219.247	978.687
211.592	27.318	1218.699	978.139
212.607	27.419	1217.728	977.815
213.621	27.426	1216.695	976.940
214.636	27.424	1216.201	976.444
215.650	27.482	1215.084	975.769
216.665	27.489	1214.454	975.218
217.680	27.448	1213.349	974.022
218.694	27.484	1212.847	973.729
219.709	27.364	1212.609	972.806
220.723	27.405	1211.487	972.043
221.738	27.470	1210.525	971.531
222.753	27.553	1209.809	971.313
223.767	27.429	1209.510	970.328
224.782	27.501	1208.907	970.137
225.796	27.630	1208.290	970.243
226.811	27.425	1208.158	968.960
227.826	27.540	1207.433	968.904
228.840	27.445	1206.672	967.705
229.855	27.555	1205.834	967.529
230.869	27.698	1204.818	967.387
231.884	27.457	1204.559	965.817
232.899	27.532	1203.833	965.548
233.913	27.586	1203.111	965.168
234.928	27.503	1202.950	964.517
235.942	27.655	1202.467	964.844
236.957	27.699	1201.003	963.817
237.972	27.537	1200.706	962.637
238.986	27.518	1200.448	962.248
240.001	27.636	1199.717	962.196
241.015	27.701	1198.761	961.690
242.030	27.637	1198.322	960.914
243.045	27.702	1197.393	960.428
244.059	27.738	1196.411	959.746
245.074	27.733	1195.161	958.629
246.088	27.780	1195.084	958.728
247.103	27.789	1194.279	958.045
248.117	27.657	1193.669	956.781
249.132	27.628	1192.863	955.896
250.147	27.657	1192.017	955.288
251.161	27.704	1191.429	954.976
252.176	27.729	1190.482	954.265
253.190	27.835	1189.737	954.135
254.205	27.705	1189.762	953.393
255.220	27.777	1188.861	952.965
256.234	27.778	1188.514	952.605
257.249	27.689	1188.048	951.682
258.263	27.841	1187.159	951.681
259.278	27.776	1186.664	950.860
260.293	27.841	1185.975	950.559
261.307	27.855	1185.202	949.933
262.322	27.824	1184.716	949.296
263.336	27.802	1184.133	948.632
264.351	27.813	1183.500	948.097
265.366	27.874	1183.144	948.042
266.380	27.817	1182.413	947.080
267.395	27.849	1181.551	946.473
268.409	27.811	1181.086	945.817
269.424	27.813	1180.593	945.347
270.439	27.828	1180.061	944.916
271.453	27.866	1179.292	944.416
272.468	27.820	1178.384	943.363
273.482	27.788	1178.095	942.884
274.497	27.974	1177.161	943.016
275.512	27.886	1177.005	942.354
276.526	27.821	1176.143	941.243
277.541	27.943	1175.493	941.270
278.555	27.927	1175.007	940.713
279.570	27.916	1174.458	940.134
280.585	27.858	1173.555	939.028
281.599	27.953	1172.790	938.824
282.614	28.010	1171.335	937.867
283.628	27.943	1170.872	937.072
284.643	28.022	1170.135	936.801
285.657	28.028	1169.258	936.046
286.672	27.971	1168.362	934.956
287.687	28.040	1167.609	934.626
288.701	28.121	1166.638	934.179
289.716	28.011	1166.651	933.545
290.730	27.999	1165.796	932.715
291.745	28.090	1165.184	932.607
292.760	28.106	1164.529	932.082
293.774	28.173	1163.848	931.795
294.789	28.154	1163.388	931.250
295.803	28.199	1162.601	930.766
296.818	28.072	1162.353	929.840
297.833	28.165	1161.508	929.552
298.847	28.221	1160.192	928.702
299.862	28.179	1159.811	928.103
300.876	28.154	1159.472	927.619
301.891	28.227	1158.707	927.299
302.906	28.281	1157.992	926.918
303.920	28.236	1157.637	926.324
304.935	28.379	1156.658	926.179
305.949	28.294	1155.864	925.032
306.964	28.166	1155.945	924.370
307.979	28.298	1155.022	924.218
308.993	28.233	1154.613	923.477
310.008	28.293	1153.371	922.705
311.022	28.202	1153.038	921.898
312.037	28.227	1152.332	921.379
313.052	28.180	1151.607	920.481
314.066	28.311	1150.153	919.897
315.081	28.319	1149.660	919.462
316.095	28.261	1149.414	918.894
317.110	28.302	1148.504	918.288
318.125	28.311	1148.101	917.931
319.139	28.298	1147.499	917.304
320.154	28.361	1146.691	916.890
321.168	28.378	1146.105	916.427
322.183	28.500	1145.419	916.405
323.197	28.386	1145.239	915.613
324.212	28.268	1144.652	914.470
325.227	28.489	1143.907	914.895
326.241	28.460	1143.285	914.174
327.256	28.516	1142.998	914.146
328.270	28.462	1142.018	913.012
329.285	28.472	1141.020	912.181
330.300	28.618	1139.831	911.878
331.314	28.478	1139.281	910.658
332.329	28.481	1138.729	910.152
333.343	28.549	1138.092	909.901
334.358	28.579	1137.460	909.464
335.373	28.495	1137.027	908.619
336.387	28.567	1136.091	908.151
337.402	28.546	1135.376	907.394
338.416	28.578	1134.677	906.912
339.431	28.718	1133.752	906.783
340.446	28.669	1133.750	906.459
341.460	28.722	1132.881	905.947
342.475	28.748	1131.761	905.096
343.489	28.711	1131.134	904.333
344.504	28.623	1130.342	903.187
345.519	28.777	1129.390	903.105
346.533	28.648	1129.160	902.209
347.548	28.610	1128.554	901.455
348.562	28.657	1127.750	900.964
349.577	28.615	1126.924	900.017
350.592	28.576	1126.242	899.205
351.606	28.637	1125.302	898.675
352.621	28.656	1125.021	898.463
353.635	28.698	1124.334	898.040
354.650	28.737	1123.923	897.823
355.665	28.719	1123.096	896.992
356.679	28.875	1122.266	897.013
357.694	28.821	1121.778	896.282
358.708	28.779	1121.282	895.600
359.723	28.798	1120.516	895.003
360.738	28.784	1120.070	894.496
361.752	28.801	1119.057	893.691
362.767	28.768	1118.992	893.402
363.781	28.884	1118.618	893.585
364.796	28.843	1117.378	892.317
365.810	28.942	1116.756	892.224
366.825	28.893	1116.803	891.944
367.840	28.954	1115.895	891.435
368.854	29.040	1115.309	891.307
369.869	29.014	1114.619	890.548
370.883	28.982	1114.056	889.864
371.898	28.989	1113.100	889.056
372.913	28.923	1112.845	888.457
373.927	29.007	1112.278	888.329
374.942	29.075	1111.752	888.162
375.956	28.922	1111.518	887.155
376.971	29.047	1110.722	887.043
377.986	29.006	1110.224	886.370
379.000	29.111	1109.407	886.147
380.015	29.055	1109.106	885.558
381.029	29.156	1108.344	885.354
382.044	29.102	1107.645	884.460
383.059	29.098	1107.129	883.948
384.073	29.126	1106.396	883.422
385.088	29.076	1105.788	882.616
386.102	29.164	1104.998	882.332
387.117	29.118	1103.742	881.030
388.132	29.059	1103.174	880.217
389.146	29.031	1102.875	879.768
390.161	29.139	1102.042	879.541
391.175	29.132	1101.457	878.959
392.190	29.057	1100.897	878.081
393.205	29.045	1099.964	877.198
394.219	29.139	1099.386	877.111
395.234	29.254	1098.382	876.776
396.248	29.334	1097.631	876.479
397.263	29.229	1096.482	874.988
398.278	29.290	1096.258	875.020
399.292	29.272	1095.935	874.600
400.307	29.316	1095.424	874.325
401.321	29.265	1095.044	873.703
402.336	29.276	1093.861	872.734
403.350	29.372	1093.200	872.583
404.365	29.395	1092.539	872.084
405.380	29.434	1091.634	871.471
406.394	29.318	1091.138	870.448
407.409	29.374	1090.514	870.140
408.423	29.511	1089.835	870.167
409.438	29.563	1088.730	869.451
410.453	29.585	1088.221	869.072
411.467	29.546	1087.403	868.160
412.482	29.484	1086.933	867.415
413.496	29.427	1086.484	866.711
414.511	29.510	1085.735	866.427
415.526	29.591	1085.133	866.251
416.540	29.652	1084.627	866.053
417.555	29.550	1084.301	865.239
418.569	29.420	1084.142	864.428
419.584	29.538	1083.510	864.399
420.599	29.600	1083.161	864.334
421.613	103.827	1320.072	1454.481
422.628	96.632	1354.559	1454.608
