DTS Sentinel unit serial number:	SN413079Multiplexer serial number:	ORYXHardware model number:	OX4-SRSoftware version number:	ORYX F/W v4.00 Oryx Data Collector v3.7.2.0data status	okinstallation	princeton_trtdifferential loss correction	single-endedforward channel	channel 2reverse channel	N/Adate	2019/09/10time	15:49:11forward acquisition time	60.00reverse acquisition time	0.00gamma	496.2192k internal	0.2308k external	0.2308temperature offset calibration	0.9936default loss term (dB/km)	0.3790temperature slope calibration	1.0000multiplexer offset coefficient	1.0000multiplexer slope coefficient	1.0000fibre end	0.00T internal ref (°C)	38.06T ext. ref 1 (°C)	-0.28T ext. ref 2 (°C)	32.94length (m)	temperature (°C)	Stokes	anti-Stokes-747.200	-23.291	0.303	0.185
-746.185	-200.000	-0.084	0.442
-745.171	13.290	-0.163	0.128
-744.156	-200.000	0.004	-0.089
-743.142	149.324	0.111	-0.152
-742.127	159.715	0.130	0.183
-741.112	450.244	-0.063	-0.140
-740.098	-0.382	-0.102	-0.074
-739.083	-200.000	-0.028	-0.195
-738.069	46.235	0.158	0.149
-737.054	5.326	-0.160	0.120
-736.039	-187.649	-0.248	-0.003
-735.025	352.761	0.105	-0.212
-734.010	668.897	-0.217	-0.570
-732.996	-200.000	-0.016	-0.104
-731.981	130.186	-0.057	-0.074
-730.966	512.013	0.071	0.167
-729.952	65.128	-0.022	-0.023
-728.937	-57.801	-0.107	-0.047
-727.923	-58.732	-0.328	-0.144
-726.908	-171.093	-0.124	0.004
-725.894	-200.000	-0.038	-0.332
-724.879	335.800	-0.097	-0.192
-723.864	236.071	-0.122	0.204
-722.850	-1.089	-0.295	-0.212
-721.835	-159.929	-0.375	0.021
-720.821	-68.690	0.119	-0.047
-719.806	-6.200	-0.109	-0.076
-718.791	150.611	-0.072	0.100
-717.777	-91.824	-0.103	0.030
-716.762	-152.924	0.061	0.004
-715.748	241.691	-0.136	0.231
-714.733	-98.200	-0.098	0.025
-713.718	4.218	-0.077	0.057
-712.704	62.646	0.192	-0.195
-711.689	288.846	0.064	0.119
-710.675	154.195	-0.177	-0.247
-709.660	137.611	0.078	0.104
-708.645	-200.000	0.014	0.145
-707.631	-118.815	0.289	0.052
-706.616	608.435	-0.082	0.208
-705.602	123.287	-0.115	0.146
-704.587	-200.000	-0.008	-0.071
-703.572	-200.000	-0.032	-0.256
-702.558	106.895	0.167	-0.201
-701.543	-131.127	-0.232	0.031
-700.529	353.042	0.076	-0.153
-699.514	800.000	-0.028	-0.094
-698.499	-67.285	-0.089	-0.035
-697.485	51.618	-0.135	-0.130
-696.470	-115.373	0.193	-0.037
-695.456	-0.164	0.148	0.107
-694.441	-17.233	-0.141	0.090
-693.426	68.791	-0.146	-0.152
-692.412	502.591	0.029	-0.068
-691.397	125.011	0.102	-0.131
-690.383	119.563	-0.038	-0.047
-689.368	-35.631	0.159	0.087
-688.354	392.982	-0.048	-0.101
-687.339	-99.634	-0.149	-0.038
-686.324	800.000	0.036	-0.160
-685.310	168.776	-0.246	-0.356
-684.295	48.214	-0.336	-0.319
-683.281	-66.631	-0.184	-0.074
-682.266	-111.908	-0.259	0.053
-681.251	314.079	-0.038	0.073
-680.237	15.086	-0.165	-0.131
-679.222	800.000	-0.029	0.106
-678.208	800.000	-0.035	-0.106
-677.193	137.083	-0.207	-0.275
-676.178	-200.000	-0.022	-0.268
-675.164	-200.000	0.002	0.285
-674.149	800.000	-0.121	0.355
-673.135	-200.000	0.009	-0.148
-672.120	-79.138	0.160	-0.055
-671.105	-95.601	0.268	-0.073
-670.091	800.000	-0.070	-0.216
-669.076	-200.000	0.034	0.161
-668.062	-200.000	0.008	0.209
-667.047	-200.000	-0.051	0.263
-666.032	-0.760	-0.180	-0.129
-665.018	29.493	0.070	-0.060
-664.003	4.670	-0.103	0.077
-662.989	60.141	0.074	-0.074
-661.974	-200.000	-0.002	0.017
-660.959	-200.000	0.013	0.158
-659.945	-7.144	0.213	-0.146
-658.930	739.654	-0.054	-0.148
-657.916	295.473	0.064	-0.118
-656.901	211.603	0.123	0.196
-655.886	334.101	-0.062	-0.121
-654.872	-144.324	0.144	0.014
-653.857	-200.000	-0.003	0.074
-652.843	800.000	-0.096	0.286
-651.828	98.925	0.098	0.115
-650.814	-51.312	0.295	-0.140
-649.799	296.462	-0.119	0.222
-648.784	-164.551	0.263	-0.012
-647.770	56.635	-0.319	-0.315
-646.755	35.481	0.045	0.040
-645.741	189.626	-0.110	0.167
-644.726	-10.797	0.025	-0.017
-643.711	-200.000	-0.022	0.303
-642.697	-200.000	-0.011	-0.213
-641.682	-90.154	-0.254	-0.075
-640.668	-172.222	0.317	-0.010
-639.653	-200.000	-0.014	-0.101
-638.638	45.888	0.136	0.127
-637.624	625.983	0.071	0.181
-636.609	-200.000	0.016	0.074
-635.595	257.325	0.190	-0.331
-634.580	-114.397	-0.197	0.038
-633.565	207.873	0.104	0.164
-632.551	14.401	0.054	0.042
-631.536	364.373	0.132	0.269
-630.522	-47.647	0.071	0.035
-629.507	-46.198	-0.184	0.092
-628.492	800.000	0.080	0.263
-627.478	-122.806	0.302	-0.049
-626.463	560.313	-0.131	0.319
-625.449	-200.000	0.033	-0.387
-624.434	-200.000	0.026	0.119
-623.419	356.121	0.053	0.106
-622.405	311.907	0.234	-0.445
-621.390	128.549	0.138	0.177
-620.376	-66.839	0.161	-0.065
-619.361	-78.798	0.322	-0.111
-618.346	460.917	0.025	0.056
-617.332	-47.267	0.185	0.091
-616.317	9.792	0.048	-0.037
-615.303	104.143	-0.066	0.079
-614.288	121.556	-0.124	0.156
-613.273	-11.392	0.291	-0.194
-612.259	-200.000	0.011	0.098
-611.244	-93.870	0.227	-0.063
-610.230	-174.282	0.271	0.008
-609.215	128.041	0.225	-0.290
-608.201	364.727	-0.082	-0.167
-607.186	637.520	-0.063	0.162
-606.171	-200.000	-0.010	-0.314
-605.157	-103.034	0.186	-0.045
-604.142	187.140	-0.186	-0.281
-603.128	-34.961	-0.232	-0.128
-602.113	-200.000	-0.019	0.107
-601.098	32.634	-0.072	-0.063
-600.084	-200.000	-0.039	-0.332
-599.069	-200.000	-0.004	-0.177
-598.055	367.436	0.055	0.113
-597.040	800.000	0.039	-0.125
-596.025	800.000	-0.065	0.262
-595.011	-70.515	0.078	0.030
-593.996	-27.257	0.073	0.043
-592.982	-200.000	0.051	-0.269
-591.967	105.306	-0.145	-0.173
-590.952	800.000	0.085	-0.251
-589.938	-71.279	-0.337	0.128
-588.923	-99.697	0.037	0.009
-587.909	-94.500	-0.166	-0.046
-586.894	-16.417	0.785	-0.503
-585.879	241.288	-0.132	-0.223
-584.865	310.552	0.054	0.103
-583.850	-117.395	0.244	0.045
-582.836	-200.000	0.035	-0.331
-581.821	800.000	0.040	0.113
-580.806	432.441	-0.142	-0.311
-579.792	103.436	0.117	-0.139
-578.777	-51.986	-0.414	0.195
-577.763	44.115	-0.153	0.141
-576.748	-200.000	0.008	-0.202
-575.733	-197.028	-0.193	-0.001
-574.719	-37.891	0.100	-0.054
-573.704	-53.940	0.166	0.076
-572.690	-200.000	0.025	0.229
-571.675	36.877	-0.239	-0.214
-570.661	-33.742	-0.163	0.091
-569.646	-164.681	0.246	0.011
-568.631	457.238	-0.130	0.291
-567.617	-50.866	-0.200	0.095
-566.602	-18.047	-0.398	-0.252
-565.588	-71.981	0.195	-0.073
-564.573	145.630	0.304	-0.411
-563.558	484.848	0.061	-0.141
-562.544	402.319	0.060	0.128
-561.529	31.490	0.139	-0.120
-560.515	134.425	0.100	-0.130
-559.500	-200.000	-0.034	-0.458
-558.485	-200.000	-0.038	-0.504
-557.471	766.404	0.087	-0.240
-556.456	-103.232	0.255	0.061
-555.442	-200.000	0.019	0.184
-554.427	-36.166	-0.206	0.112
-553.412	-179.319	-0.335	-0.007
-552.398	800.000	0.013	0.049
-551.383	-99.633	0.143	0.036
-550.369	317.594	-0.065	-0.125
-549.354	-200.000	0.003	0.403
-548.339	629.491	0.088	-0.226
-547.325	-51.754	-0.130	-0.061
-546.310	84.572	-0.092	0.101
-545.296	64.509	-0.062	-0.064
-544.281	59.473	0.102	0.102
-543.266	-171.630	-0.528	0.018
-542.252	31.514	-0.165	0.143
-541.237	-102.216	0.110	0.027
-540.223	57.151	0.223	-0.220
-539.208	-73.317	-0.204	-0.075
-538.193	-200.000	-0.009	0.094
-537.179	73.275	-0.046	-0.049
-536.164	-101.466	-0.142	0.035
-535.150	-72.661	0.121	0.045
-534.135	-101.861	0.263	0.064
-533.121	74.287	-0.131	0.138
-532.106	131.415	0.020	-0.026
-531.091	-12.604	-0.141	-0.093
-530.077	-17.553	0.151	0.096
-529.062	-200.000	-0.030	-0.141
-528.048	-119.488	-0.058	-0.010
-527.033	157.286	-0.245	-0.342
-526.018	800.000	-0.048	0.158
-525.004	-200.000	0.018	-0.138
-523.989	-81.761	-0.297	-0.098
-522.975	-129.544	-0.272	0.038
-521.960	800.000	0.008	-0.027
-520.945	-200.000	0.009	0.158
-519.931	95.860	-0.239	0.274
-518.916	35.773	0.218	-0.193
-517.902	800.000	-0.062	-0.179
-516.887	-137.880	-0.118	0.013
-515.872	293.701	-0.071	0.131
-514.858	-135.575	0.262	0.031
-513.843	-90.792	-0.382	-0.111
-512.829	800.000	-0.034	-0.123
-511.814	-157.947	-0.104	0.006
-510.799	-124.017	0.136	0.022
-509.785	800.000	0.036	0.106
-508.770	77.863	0.091	-0.097
-507.756	-148.923	0.251	0.020
-506.741	62.371	-0.105	-0.106
-505.726	135.364	-0.102	-0.134
-504.712	-97.906	-0.220	-0.057
-503.697	-200.000	-0.290	-0.000
-502.683	-200.000	0.003	-0.279
-501.668	-37.522	0.070	0.037
-500.653	-128.360	-0.094	-0.013
-499.639	-200.000	0.043	0.208
-498.624	-143.371	-0.187	0.018
-497.610	9.710	0.091	-0.070
-496.595	800.000	-0.072	0.248
-495.581	-200.000	-0.021	-0.129
-494.566	-16.864	0.097	0.062
-493.551	-9.709	-0.088	-0.059
-492.537	-81.149	-0.416	-0.138
-491.522	129.629	0.188	-0.241
-490.508	-135.932	0.376	0.045
-489.493	-151.510	-0.020	-0.002
-488.478	800.000	0.101	-0.296
-487.464	-200.000	-0.012	-0.245
-486.449	174.432	-0.060	-0.088
-485.435	800.000	-0.047	0.177
-484.420	14.604	0.148	0.117
-483.405	800.000	-0.030	0.089
-482.391	28.062	0.152	0.129
-481.376	-79.864	-0.265	0.090
-480.362	160.746	-0.038	0.054
-479.347	-0.805	-0.375	0.267
-478.332	-53.532	0.186	0.085
-477.318	-200.000	0.035	0.206
-476.303	333.426	0.085	0.166
-475.289	80.299	-0.217	-0.235
-474.274	-60.091	0.115	-0.049
-473.259	63.147	-0.142	0.143
-472.245	800.000	0.030	0.097
-471.230	-200.000	0.016	-0.104
-470.216	-200.000	0.052	-0.280
-469.201	571.724	-0.041	0.100
-468.186	-109.766	-0.193	-0.041
-467.172	-18.245	0.076	0.048
-466.157	204.430	0.159	-0.248
-465.143	-144.008	-0.238	0.023
-464.128	202.593	-0.149	0.231
-463.113	4.770	-0.241	-0.178
-462.099	12.649	0.056	-0.043
-461.084	-95.099	-0.294	0.080
-460.070	800.000	-0.026	-0.105
-459.055	-110.303	-0.375	0.078
-458.040	-194.950	0.105	-0.001
-457.026	100.312	-0.071	0.083
-456.011	283.697	0.029	-0.052
-454.997	-89.176	-0.469	0.139
-453.982	-46.290	0.097	-0.048
-452.968	627.068	-0.047	-0.119
-451.953	-133.624	-0.418	-0.053
-450.938	17.785	0.137	0.110
-449.924	-200.000	0.039	-0.236
-448.909	-200.000	-0.019	0.193
-447.895	60.643	0.141	-0.140
-446.880	-195.303	-0.608	0.005
-445.865	-200.000	0.000	-0.002
-444.851	-50.322	0.048	-0.023
-443.836	-39.775	-0.131	0.069
-442.822	225.724	-0.077	-0.125
-441.807	-154.383	0.181	-0.012
-440.792	-200.000	0.039	-0.261
-439.778	40.562	-0.395	-0.358
-438.763	175.057	-0.091	0.132
-437.749	-56.328	-0.249	0.111
-436.734	-51.842	0.078	-0.037
-435.719	800.000	0.017	-0.073
-434.705	350.526	0.109	-0.216
-433.690	205.445	0.064	0.100
-432.676	-200.000	0.011	0.093
-431.661	-200.000	-0.003	0.364
-430.646	800.000	0.042	0.116
-429.632	-15.190	0.094	-0.061
-428.617	-200.000	0.007	-0.219
-427.603	-127.794	-0.163	0.024
-426.588	-200.000	0.011	0.111
-425.573	147.471	0.127	0.171
-424.559	800.000	-0.045	0.154
-423.544	800.000	0.020	-0.082
-422.530	35.371	0.209	0.184
-421.515	-88.804	0.044	-0.013
-420.500	800.000	-0.093	0.358
-419.486	-102.954	0.226	-0.054
-418.471	-41.032	-0.399	-0.207
-417.457	74.040	-0.150	-0.158
-416.442	-200.000	0.050	0.236
-415.428	-14.172	0.159	0.103
-414.413	562.171	-0.073	0.177
-413.398	-163.257	-0.298	0.014
-412.384	-22.629	0.190	0.115
-411.369	-8.760	0.151	0.101
-410.355	702.841	0.032	0.084
-409.340	800.000	0.104	0.318
-408.325	78.943	-0.053	0.057
-407.311	-94.654	-0.108	-0.030
-406.296	-107.961	0.212	-0.046
-405.282	-200.000	-0.063	-0.425
-404.267	-123.572	0.297	0.047
-403.252	800.000	0.024	0.083
-402.238	514.210	-0.012	-0.027
-401.223	247.112	-0.082	0.139
-400.209	-122.717	-0.420	-0.068
-399.194	121.245	0.155	0.193
-398.179	12.105	0.256	-0.198
-397.165	34.621	0.151	0.133
-396.150	97.418	0.087	-0.100
-395.136	-200.000	-0.020	0.097
-394.121	800.000	0.033	-0.123
-393.106	-97.553	-0.081	-0.021
-392.092	-200.000	0.004	0.127
-391.077	-44.337	0.015	0.008
-390.063	-57.084	-0.433	0.191
-389.048	-200.000	-0.022	0.168
-388.033	-111.767	0.272	0.055
-387.019	800.000	-0.069	0.245
-386.004	-200.000	-0.329	0.000
-384.990	-115.236	0.095	-0.018
-383.975	-49.540	0.191	-0.091
-382.960	-200.000	0.002	-0.141
-381.946	-101.745	0.045	-0.011
-380.931	-87.454	-0.243	0.074
-379.917	53.907	0.163	-0.157
-378.902	203.934	0.069	0.107
-377.888	-98.762	-0.149	0.038
-376.873	88.854	-0.056	-0.062
-375.858	800.000	-0.071	-0.223
-374.844	-68.121	0.195	-0.076
-373.829	-200.000	0.014	0.305
-372.815	140.746	0.004	-0.005
-371.800	-200.000	-0.026	0.294
-370.785	53.200	-0.191	-0.183
-369.771	800.000	-0.095	0.289
-368.756	-200.000	-0.019	-0.357
-367.742	-194.362	0.409	-0.003
-366.727	229.251	-0.031	-0.050
-365.712	-118.500	0.069	-0.012
-364.698	800.000	-0.075	0.280
-363.683	800.000	0.090	0.344
-362.669	-82.932	-0.271	0.088
-361.654	284.002	0.151	-0.273
-360.639	800.000	0.084	0.260
-359.625	-16.341	0.254	0.161
-358.610	-200.000	0.010	0.080
-357.596	-200.000	0.026	0.163
-356.581	198.164	-0.152	-0.233
-355.566	800.000	-0.085	-0.274
-354.552	425.592	0.047	-0.101
-353.537	67.705	0.052	0.053
-352.523	21.050	-0.204	0.166
-351.508	-200.000	0.016	0.220
-350.493	-33.694	0.215	0.119
-349.479	-35.983	-0.279	-0.151
-348.464	426.118	0.120	0.259
-347.450	-200.000	0.018	0.233
-346.435	-55.265	-0.173	0.078
-345.420	-83.966	0.227	-0.072
-344.406	-101.497	0.347	-0.084
-343.391	-156.339	-0.468	0.029
-342.377	143.480	-0.025	-0.033
-341.362	-117.352	-0.327	0.059
-340.348	-149.001	0.110	-0.009
-339.333	465.372	0.057	0.127
-338.318	-200.000	-0.016	-0.094
-337.304	401.954	0.120	-0.253
-336.289	-48.958	-0.170	0.081
-335.275	27.601	-0.080	0.068
-334.260	325.431	-0.109	-0.208
-333.245	-41.402	-0.138	0.071
-332.231	-4.186	-0.090	-0.063
-331.216	-71.764	-0.136	-0.051
-330.202	205.696	0.083	0.129
-329.187	-200.000	-0.059	-0.363
-328.172	200.378	-0.046	0.070
-327.158	73.845	0.204	0.214
-326.143	-200.000	0.025	-0.111
-325.129	-60.868	0.226	0.096
-324.114	-200.000	0.014	0.216
-323.099	4.661	-0.401	-0.294
-322.085	-31.734	-0.322	-0.180
-321.070	-123.251	-0.205	0.033
-320.056	313.041	-0.046	0.086
-319.041	-21.944	0.133	0.081
-318.026	-40.066	-0.111	0.058
-317.012	-94.805	-0.242	0.066
-315.997	-100.148	0.357	-0.089
-314.983	-144.711	0.174	0.016
-313.968	-80.347	0.144	-0.048
-312.953	-108.601	0.247	-0.053
-311.939	37.986	-0.056	-0.050
-310.924	-127.599	0.335	-0.049
-309.910	651.748	-0.150	0.385
-308.895	13.150	0.338	-0.262
-307.880	-165.158	-0.163	0.007
-306.866	-160.633	-0.161	0.009
-305.851	9.330	0.129	0.097
-304.837	800.000	0.081	0.285
-303.822	-100.563	0.141	0.035
-302.807	-15.116	-0.173	-0.111
-301.793	-57.664	-0.114	-0.050
-300.778	-71.325	0.237	0.089
-299.764	-49.453	0.233	0.111
-298.749	232.655	-0.066	0.109
-297.735	189.060	0.127	-0.190
-296.720	-94.881	0.173	-0.047
-295.705	-200.000	0.116	-0.515
-294.691	-55.760	0.282	-0.126
-293.676	800.000	0.096	0.335
-292.662	-105.407	0.416	0.094
-291.647	-200.000	0.012	0.169
-290.632	-200.000	-0.007	-0.118
-289.618	-200.000	-0.040	-0.291
-288.603	5.939	0.102	0.075
-287.589	38.990	0.024	0.021
-286.574	477.362	0.104	-0.234
-285.559	-200.000	-0.032	-0.314
-284.545	-57.078	-0.581	-0.256
-283.530	-37.121	0.130	-0.069
-282.516	800.000	-0.078	0.250
-281.501	-200.000	-0.029	0.196
-280.486	-75.270	-0.129	0.046
-279.472	-60.867	0.285	0.120
-278.457	105.870	-0.303	-0.358
-277.443	-200.000	-0.035	-0.218
-276.428	-58.264	-0.034	0.015
-275.413	-135.829	-0.204	0.024
-274.399	-129.848	-0.271	0.037
-273.384	8.675	-0.215	0.162
-272.370	-33.753	-0.123	-0.068
-271.355	-63.470	-0.142	0.058
-270.340	311.098	0.072	0.134
-269.326	99.838	-0.088	-0.102
-268.311	32.394	-0.080	0.069
-267.297	-55.776	0.231	-0.103
-266.282	259.613	0.062	-0.107
-265.267	14.455	-0.137	0.106
-264.253	800.000	0.037	-0.118
-263.238	63.135	0.011	0.011
-262.224	-22.179	-0.169	0.102
-261.209	-106.812	0.211	-0.047
-260.195	-130.002	0.173	-0.024
-259.180	-89.933	0.066	-0.019
-258.165	13.013	-0.111	-0.086
-257.151	-77.665	-0.129	0.045
-256.136	27.773	0.087	-0.073
-255.122	522.798	-0.054	0.126
-254.107	-200.000	0.048	-0.368
-253.092	427.230	0.134	0.289
-252.078	-45.762	0.219	-0.108
-251.063	688.570	0.089	0.231
-250.049	211.682	-0.069	-0.109
-249.034	144.610	0.104	0.139
-248.019	358.886	0.003	-0.006
-247.005	1.950	0.189	-0.136
-245.990	-90.907	-0.353	0.101
-244.976	318.651	0.079	-0.150
-243.961	-200.000	-0.068	-0.483
-242.946	-154.958	-0.250	0.016
-241.932	-4.246	0.272	-0.188
-240.917	-200.000	-0.038	0.343
-239.903	-200.000	-0.050	0.316
-238.888	-79.512	0.102	0.034
-237.873	800.000	0.099	0.365
-236.859	-129.261	-0.189	0.026
-235.844	-200.000	0.011	0.099
-234.830	-200.000	-0.035	0.230
-233.815	453.394	-0.048	-0.106
-232.800	-200.000	0.041	-0.223
-231.786	677.935	-0.058	0.150
-230.771	800.000	0.048	0.207
-229.757	156.252	-0.066	-0.091
-228.742	-200.000	0.033	0.284
-227.727	-176.272	0.124	0.003
-226.713	30.231	0.133	-0.113
-225.698	83.176	0.273	-0.296
-224.684	-200.000	-0.046	0.411
-223.669	135.534	-0.115	0.150
-222.655	95.540	-0.070	-0.079
-221.640	-49.386	-0.128	-0.061
-220.625	-200.000	0.015	0.184
-219.611	800.000	0.086	-0.278
-218.596	-97.535	0.096	-0.025
-217.582	760.818	0.134	0.363
-216.567	-83.569	0.316	0.101
-215.552	5.812	0.067	-0.050
-214.538	445.014	0.075	-0.164
-213.523	14.918	0.066	0.051
-212.509	800.000	-0.032	0.109
-211.494	183.519	-0.172	0.253
-210.479	551.621	0.113	-0.269
-209.465	-140.946	0.250	-0.026
-208.450	-10.305	0.202	-0.133
-207.436	-18.079	0.184	0.115
-206.421	240.056	-0.097	0.160
-205.406	-102.528	0.286	0.068
-204.392	76.322	-0.063	0.066
-203.377	-200.000	0.122	0.555
-202.363	-200.000	-0.010	0.243
-201.348	-77.231	0.234	-0.081
-200.333	-138.663	0.363	-0.040
-199.319	-74.718	0.216	0.077
-198.304	280.961	0.059	-0.106
-197.290	-53.000	0.351	0.161
-196.275	310.882	-0.014	-0.025
-195.260	-56.604	0.080	-0.035
-194.246	-17.635	-0.215	-0.135
-193.231	508.889	0.049	0.113
-192.217	-200.000	0.046	-0.213
-191.202	-200.000	-0.069	-0.465
-190.187	6.250	0.064	-0.047
-189.173	38.746	-0.060	-0.053
-188.158	3.606	-0.142	0.103
-187.144	-165.166	-0.267	-0.012
-186.129	-157.042	0.272	-0.017
-185.114	216.630	-0.082	-0.131
-184.100	800.000	-0.050	0.183
-183.085	-29.533	0.407	-0.232
-182.071	483.222	-0.046	0.105
-181.056	-152.788	0.027	0.002
-180.042	111.965	0.127	0.152
-179.027	423.423	-0.151	0.322
-178.012	800.000	-0.042	-0.181
-176.998	-40.803	-0.066	-0.034
-175.983	-27.789	-0.127	0.073
-174.969	-200.000	0.017	0.341
-173.954	469.870	-0.051	-0.114
-172.939	-200.000	0.010	0.280
-171.925	-166.596	0.156	-0.006
-170.910	316.120	0.019	0.035
-169.896	-125.196	-0.360	0.055
-168.881	452.530	0.079	0.173
-167.866	-0.931	0.160	-0.112
-166.852	180.621	-0.283	0.413
-165.837	-200.000	-0.016	-0.071
-164.823	125.726	-0.164	-0.206
-163.808	-105.061	0.090	-0.020
-162.793	49.434	0.025	0.023
-161.779	-63.292	-0.111	-0.045
-160.764	13.807	0.366	-0.283
-159.750	-153.773	-0.295	-0.020
-158.735	145.495	0.218	0.289
-157.720	-61.667	0.194	0.081
-156.706	-56.561	0.255	0.112
-155.691	77.791	-0.134	-0.142
-154.677	228.644	0.043	-0.069
-153.662	101.475	-0.210	0.243
-152.647	34.114	-0.254	-0.220
-151.633	-3.235	0.259	-0.179
-150.618	-157.630	-0.257	0.015
-149.604	284.510	-0.196	-0.351
-148.589	688.727	-0.147	0.382
-147.574	-200.000	0.005	-0.114
-146.560	393.602	-0.032	-0.067
-145.545	11.349	-0.142	-0.108
-144.531	-68.567	-0.218	0.084
-143.516	74.368	0.126	-0.132
-142.502	-72.169	-0.118	-0.043
-141.487	23.523	0.282	-0.230
-140.472	-170.793	0.383	-0.013
-139.458	11.228	-0.210	-0.159
-138.443	6.010	0.193	0.142
-137.429	-20.073	-0.360	0.221
-136.414	-13.275	-0.234	-0.151
-135.399	455.206	-0.096	0.212
-134.385	63.567	-0.125	-0.124
-133.370	-148.619	-0.179	0.014
-132.356	-122.819	0.066	0.011
-131.341	-41.078	0.068	0.035
-130.326	434.168	-0.067	-0.145
-129.312	-100.457	0.082	0.020
-128.297	156.166	-0.064	0.088
-127.283	43.043	-0.255	-0.231
-126.268	319.333	-0.040	0.075
-125.253	-100.726	0.216	-0.053
-124.239	-12.229	-0.143	-0.093
-123.224	-125.612	0.498	0.075
-122.210	-32.834	-0.225	0.124
-121.195	-29.161	0.053	0.030
-120.180	37.417	-0.189	0.166
-119.166	-91.518	-0.263	-0.074
-118.151	-62.546	0.539	-0.222
-117.137	800.000	0.026	0.112
-116.122	122.478	-0.057	0.071
-115.107	258.405	-0.250	-0.428
-114.093	-68.658	0.316	-0.121
-113.078	288.201	0.107	-0.192
-112.064	47.935	-0.146	-0.135
-111.049	116.925	-0.173	-0.211
-110.034	-1.052	0.157	0.110
-109.020	-48.966	-0.269	-0.128
-108.005	-139.765	-0.026	-0.003
-106.991	154.093	0.060	-0.081
-105.976	-124.674	-0.354	-0.054
-104.962	52.239	0.122	0.116
-103.947	-51.370	-0.173	-0.080
-102.932	800.000	-0.057	0.239
-101.918	-84.047	-0.306	-0.096
-100.903	-192.741	0.123	0.001
-99.889	-35.998	-0.324	0.174
-98.874	423.186	-0.196	0.417
-97.859	483.324	0.177	-0.399
-96.845	5.154	0.093	0.068
-95.830	30.288	0.386	0.327
-94.816	-36.719	0.111	-0.059
-93.801	-200.000	-0.037	-0.399
-92.786	144.662	-0.093	-0.124
-91.772	74.316	0.107	-0.111
-90.757	12.380	0.230	-0.176
-89.743	-135.160	-0.045	-0.005
-88.728	-53.107	0.034	0.015
-87.713	487.673	0.157	0.356
-86.699	-84.535	0.328	0.102
-85.684	89.080	-0.083	-0.092
-84.670	761.857	0.090	0.241
-83.655	-200.000	0.022	0.174
-82.640	-200.000	-0.003	-0.077
-81.626	800.000	-0.045	0.152
-80.611	310.125	-0.096	0.177
-79.597	800.000	0.054	-0.215
-78.582	-153.869	0.159	0.011
-77.567	-72.521	-0.142	-0.052
-76.553	210.004	0.139	-0.217
-75.538	-49.708	-0.147	-0.069
-74.524	-200.000	-0.077	0.359
-73.509	-136.889	0.205	-0.023
-72.494	-200.000	0.060	0.267
-71.480	-79.746	0.474	0.158
-70.465	29.871	0.116	0.098
-69.451	94.288	-0.345	-0.388
-68.436	29.333	-0.104	-0.087
-67.422	-200.000	-0.039	-0.361
-66.407	-29.322	0.099	0.056
-65.392	-16.573	-0.110	-0.069
-64.378	-173.133	0.281	-0.009
-63.363	-200.000	0.038	0.170
-62.349	800.000	-0.039	-0.120
-61.334	190.811	-0.474	-0.705
-60.319	183.738	0.198	0.290
-59.305	-200.000	-0.206	-0.937
-58.290	31.494	0.569	0.484
-57.276	265.329	0.702	1.212
-56.261	-200.000	82.782	503.303
-55.246	558.061	1386.334	3308.981
-54.232	176.888	2654.371	3821.004
-53.217	115.272	2403.991	2905.147
-52.203	47.304	2004.828	1847.649
-51.188	41.235	1784.514	1596.103
-50.173	38.516	1738.340	1533.482
-49.159	53.363	1776.644	1684.883
-48.144	57.209	1794.721	1732.335
-47.130	41.017	1757.225	1569.731
-46.115	38.103	1743.124	1534.216
-45.100	37.965	1738.691	1529.170
-44.086	37.903	1736.087	1526.338
-43.071	37.983	1733.354	1524.497
-42.057	37.826	1731.137	1521.258
-41.042	37.908	1728.589	1519.602
-40.027	37.892	1727.019	1518.038
-39.013	37.904	1724.452	1515.812
-37.998	37.905	1722.679	1514.199
-36.984	37.954	1721.393	1513.389
-35.969	38.012	1719.739	1512.325
-34.954	38.104	1717.869	1511.334
-33.940	38.066	1715.943	1509.289
-32.925	38.120	1714.301	1508.199
-31.911	38.120	1712.362	1506.436
-30.896	38.068	1710.671	1504.489
-29.881	38.057	1708.953	1502.829
-28.867	38.075	1707.265	1501.427
-27.852	38.082	1705.678	1500.020
-26.838	38.139	1704.157	1499.061
-25.823	38.062	1702.423	1496.886
-24.809	38.194	1701.358	1496.900
-23.794	38.132	1700.391	1495.521
-22.779	38.074	1698.771	1493.591
-21.765	38.068	1696.735	1491.699
-20.750	38.054	1695.206	1490.183
-19.736	38.108	1693.781	1489.282
-18.721	38.040	1692.523	1487.606
-17.706	38.052	1691.042	1486.335
-16.692	38.036	1688.834	1484.214
-15.677	38.106	1687.679	1483.673
-14.663	38.135	1686.066	1482.415
-13.648	38.038	1684.757	1480.469
-12.633	38.073	1682.882	1479.026
-11.619	38.099	1681.204	1477.693
-10.604	38.091	1679.591	1476.156
-9.590	38.026	1678.414	1474.571
-8.575	38.021	1676.926	1473.165
-7.560	38.138	1675.876	1473.066
-6.546	38.106	1675.044	1472.036
-5.531	38.108	1673.448	1470.588
-4.517	38.069	1672.411	1469.324
-3.502	38.073	1671.360	1468.375
-2.487	38.173	1669.487	1467.421
-1.473	38.122	1657.832	1456.740
-0.458	35.661	1637.769	1420.884
0.556	29.353	1637.478	1384.785
1.571	27.050	1662.904	1388.583
2.586	26.593	1678.315	1397.794
3.600	24.404	1626.055	1337.759
4.615	14.090	1505.352	1166.374
5.629	2.791	1427.394	1030.347
6.644	-0.109	1416.812	1003.272
7.659	-0.273	1414.838	1000.694
8.673	-0.298	1413.772	999.683
9.688	-0.440	1412.192	997.528
10.702	-0.536	1408.786	994.400
11.717	3.692	1418.255	1029.214
12.731	13.365	1436.624	1107.482
13.746	16.285	1439.576	1129.216
14.761	13.393	1433.125	1104.773
15.775	12.752	1431.799	1099.377
16.790	12.816	1431.451	1099.442
17.804	12.866	1430.294	1098.790
18.819	13.040	1429.975	1099.602
19.834	12.994	1428.638	1098.169
20.848	13.039	1427.936	1097.833
21.863	13.036	1427.240	1097.181
22.877	13.093	1425.908	1096.438
23.892	13.071	1425.510	1095.892
24.907	13.018	1424.589	1094.734
25.921	13.118	1423.419	1094.399
26.936	13.092	1422.943	1093.763
27.950	12.990	1421.585	1091.948
28.965	13.072	1420.324	1091.426
29.980	13.098	1418.265	1089.918
30.994	13.060	1417.316	1088.846
32.009	13.082	1415.709	1087.661
33.023	13.046	1414.191	1086.158
34.038	13.008	1412.988	1084.890
35.053	13.050	1411.811	1084.164
36.067	13.024	1410.777	1083.104
37.082	13.044	1409.324	1082.021
38.096	13.023	1408.387	1081.071
39.111	13.062	1407.135	1080.269
40.126	13.071	1406.920	1080.066
41.140	13.039	1406.135	1079.164
42.155	13.078	1405.425	1078.778
43.169	13.060	1405.306	1078.472
44.184	13.088	1404.951	1078.283
45.199	13.098	1404.494	1077.906
46.213	13.165	1403.530	1077.504
47.228	13.098	1402.544	1076.217
48.242	13.086	1401.255	1075.053
49.257	13.195	1399.344	1074.201
50.271	13.187	1397.832	1072.895
51.286	13.173	1396.203	1071.460
52.301	13.196	1395.200	1070.747
53.315	13.095	1394.109	1069.158
54.330	13.120	1393.276	1068.589
55.344	13.183	1391.541	1067.569
56.359	13.166	1390.517	1066.580
57.374	13.226	1389.727	1066.267
58.388	13.154	1388.668	1064.894
59.403	13.142	1388.297	1064.441
60.417	13.143	1387.189	1063.502
61.432	13.205	1386.093	1062.967
62.447	13.199	1385.050	1062.031
63.461	13.231	1383.845	1061.223
64.476	13.202	1382.881	1060.199
65.490	13.189	1381.422	1058.902
66.505	13.175	1379.592	1057.320
67.520	13.231	1378.067	1056.413
68.534	13.257	1376.492	1055.280
69.549	13.285	1375.322	1054.468
70.563	13.245	1374.391	1053.405
71.578	13.204	1373.326	1052.234
72.593	13.231	1372.023	1051.314
73.607	13.196	1371.587	1050.667
74.622	13.276	1370.077	1049.923
75.636	13.235	1369.223	1048.915
76.651	13.270	1368.388	1048.410
77.666	13.249	1367.934	1047.833
78.680	13.177	1367.426	1046.896
79.695	13.270	1366.390	1046.597
80.709	13.306	1364.787	1045.504
81.724	13.245	1363.952	1044.385
82.739	13.172	1363.390	1043.402
83.753	13.256	1361.802	1042.625
84.768	13.329	1359.976	1041.592
85.782	13.249	1358.682	1040.008
86.797	13.229	1357.592	1038.956
87.812	13.318	1356.077	1038.267
88.826	13.328	1354.694	1037.178
89.841	13.290	1353.979	1036.298
90.855	13.363	1352.286	1035.371
91.870	13.351	1351.201	1034.373
92.884	13.358	1349.753	1033.215
93.899	13.291	1348.907	1032.060
94.914	13.323	1348.205	1031.628
95.928	13.331	1346.686	1030.426
96.943	13.269	1345.853	1029.309
97.957	13.320	1344.796	1028.729
98.972	13.316	1343.802	1027.852
99.987	13.441	1342.136	1027.264
101.001	13.315	1340.681	1025.276
102.016	13.323	1339.882	1024.626
103.030	13.368	1338.716	1023.919
104.045	13.324	1337.267	1022.452
105.060	13.382	1336.076	1021.811
106.074	13.393	1334.484	1020.569
107.089	13.354	1332.768	1018.924
108.103	13.430	1331.170	1018.083
109.118	13.424	1329.871	1016.959
110.133	13.361	1328.624	1015.530
111.147	13.560	1326.257	1014.852
112.162	13.433	1325.814	1013.644
113.176	13.365	1324.208	1011.912
114.191	13.432	1323.043	1011.340
115.206	13.362	1321.719	1009.810
116.220	13.239	1320.434	1007.987
117.235	13.365	1319.000	1007.573
118.249	13.385	1317.680	1006.597
119.264	13.480	1316.291	1006.023
120.279	13.530	1314.973	1005.234
121.293	13.475	1313.768	1003.889
122.308	13.482	1312.643	1002.982
123.322	13.484	1310.847	1001.534
124.337	13.482	1309.923	1000.725
125.352	13.478	1308.650	999.644
126.366	13.522	1307.235	998.740
127.381	13.594	1305.524	997.779
128.395	13.557	1304.372	996.587
129.410	13.550	1303.848	996.052
130.424	13.514	1302.791	994.940
131.439	13.479	1301.699	993.807
132.454	13.367	1300.521	992.149
133.468	13.581	1298.862	992.078
134.483	13.470	1298.569	991.104
135.497	13.502	1297.365	990.288
136.512	13.435	1295.839	988.637
137.527	13.474	1293.998	987.375
138.541	13.615	1292.001	986.604
139.556	13.504	1290.682	984.849
140.570	13.420	1289.871	983.645
141.585	13.531	1288.104	982.868
142.600	13.506	1286.711	981.568
143.614	13.499	1285.759	980.718
144.629	13.498	1284.287	979.499
145.643	13.518	1283.404	978.862
146.658	13.489	1281.460	977.119
147.673	13.366	1280.783	975.793
148.687	13.399	1279.573	974.979
149.702	13.341	1278.414	973.668
150.716	13.354	1276.816	972.439
151.731	13.399	1275.440	971.571
152.746	13.349	1274.347	970.355
153.760	13.409	1273.034	969.622
154.775	13.479	1271.074	968.453
155.789	13.407	1270.550	967.546
156.804	13.485	1269.345	967.000
157.819	13.501	1268.288	966.202
158.833	13.539	1267.115	965.449
159.848	13.433	1266.200	964.047
160.862	13.417	1265.215	963.117
161.877	13.549	1263.710	962.654
162.892	13.572	1262.635	961.883
163.906	13.464	1262.268	960.895
164.921	13.450	1261.260	959.956
165.935	13.489	1260.255	959.337
166.950	13.457	1259.507	958.494
167.964	13.504	1258.725	958.084
168.979	13.409	1258.357	957.172
169.994	13.421	1257.329	956.373
171.008	13.456	1256.365	955.759
172.023	13.532	1255.346	955.338
173.037	13.456	1254.988	954.544
174.052	13.431	1253.914	953.499
175.067	13.485	1252.871	952.933
176.081	13.555	1251.810	952.440
177.096	13.576	1250.675	951.613
178.110	13.560	1249.656	950.661
179.125	13.508	1248.867	949.678
180.140	13.505	1247.537	948.571
181.154	13.531	1246.380	947.756
182.169	13.534	1245.116	946.723
183.183	13.588	1243.676	945.853
184.198	13.550	1242.632	944.762
185.213	13.515	1241.800	943.847
186.227	13.534	1240.926	943.203
187.242	13.605	1239.513	942.452
188.256	13.414	1239.164	941.017
189.271	13.493	1238.051	940.539
190.286	13.472	1237.468	939.893
191.300	13.490	1236.571	939.229
192.315	13.641	1235.929	939.515
193.329	13.548	1235.205	938.355
194.344	13.519	1234.651	937.686
195.359	13.487	1233.901	936.854
196.373	13.476	1233.619	936.492
197.388	13.559	1232.867	936.310
198.402	13.565	1232.027	935.625
199.417	13.611	1231.398	935.321
200.432	13.532	1230.861	934.387
201.446	13.572	1229.789	933.714
202.461	13.513	1228.778	932.534
203.475	13.549	1228.071	932.114
204.490	13.548	1226.802	931.063
205.504	13.560	1225.775	930.270
206.519	13.562	1224.580	929.294
207.534	13.668	1223.272	928.810
208.548	13.424	1222.640	926.883
209.563	13.551	1221.683	926.786
210.577	13.580	1220.916	926.282
211.592	13.578	1219.712	925.280
212.607	13.630	1219.055	924.988
213.621	13.626	1218.261	924.278
214.636	13.546	1217.370	923.077
215.650	13.579	1217.067	922.947
216.665	13.607	1215.726	922.006
217.680	13.566	1214.635	920.869
218.694	13.558	1213.607	919.963
219.709	13.532	1212.859	919.172
220.723	13.556	1212.169	918.703
221.738	13.562	1211.557	918.190
222.753	13.667	1210.238	917.689
223.767	13.652	1210.051	917.384
224.782	13.588	1209.233	916.329
225.796	13.622	1208.734	916.057
226.811	13.628	1207.876	915.360
227.826	13.583	1207.586	914.809
228.840	13.607	1207.011	914.428
229.855	13.600	1205.534	913.187
230.869	13.639	1204.717	912.701
231.884	13.576	1204.098	911.806
232.899	13.533	1203.158	910.775
233.913	13.584	1202.680	910.615
234.928	13.540	1201.988	909.771
235.942	13.584	1201.457	909.530
236.957	13.611	1200.717	909.036
237.972	13.583	1200.052	908.300
238.986	13.579	1198.705	907.178
240.001	13.698	1198.096	907.284
241.015	13.722	1197.196	906.654
242.030	13.554	1196.415	905.063
243.045	13.646	1195.554	904.835
244.059	13.621	1194.824	904.070
245.074	13.602	1193.903	903.186
246.088	13.639	1193.037	902.651
247.103	13.660	1192.250	902.091
248.117	13.628	1191.890	901.567
249.132	13.654	1190.953	900.916
250.147	13.636	1189.891	899.938
251.161	13.662	1189.581	899.768
252.176	13.570	1188.853	898.637
253.190	13.549	1188.191	897.940
254.205	13.620	1187.456	897.690
255.220	13.553	1186.720	896.696
256.234	13.663	1186.055	896.706
257.249	13.656	1185.412	896.105
258.263	13.626	1184.649	895.285
259.278	13.588	1184.154	894.629
260.293	13.612	1183.607	894.263
261.307	13.755	1182.834	894.373
262.322	13.655	1182.025	893.140
263.336	13.571	1181.393	892.132
264.351	13.573	1181.026	891.786
265.366	13.678	1180.122	891.589
266.380	13.646	1179.244	890.676
267.395	13.734	1178.323	890.373
268.409	13.686	1177.907	889.724
269.424	13.736	1177.017	889.240
270.439	13.652	1176.679	888.454
271.453	13.637	1175.967	887.758
272.468	13.707	1175.277	887.537
273.482	13.721	1174.409	886.874
274.497	13.653	1174.116	886.216
275.512	13.686	1173.464	885.817
276.526	13.759	1172.101	885.101
277.541	13.700	1171.963	884.604
278.555	13.782	1171.175	884.366
279.570	13.798	1170.291	883.709
280.585	13.797	1169.079	882.710
281.599	13.837	1168.176	882.161
282.614	13.849	1167.754	881.830
283.628	13.870	1166.728	881.085
284.643	13.829	1166.044	880.274
285.657	13.937	1164.714	879.768
286.672	13.899	1163.911	878.879
287.687	13.903	1163.122	878.228
288.701	14.014	1161.921	877.832
289.716	14.038	1161.284	877.396
290.730	13.969	1160.700	876.512
291.745	14.105	1159.696	876.394
292.760	13.980	1159.531	875.533
293.774	14.051	1159.010	875.437
294.789	14.099	1158.282	875.060
295.803	14.099	1157.620	874.482
296.818	14.022	1156.736	873.337
297.833	14.146	1155.981	873.340
298.847	14.008	1155.497	872.171
299.862	14.095	1154.281	871.634
300.876	14.123	1154.037	871.519
301.891	14.215	1153.291	871.359
302.906	14.130	1152.097	869.934
303.920	14.162	1151.626	869.668
304.935	14.153	1151.153	869.191
305.949	14.169	1150.207	868.480
306.964	14.123	1149.815	867.870
307.979	14.177	1149.180	867.594
308.993	14.124	1148.062	866.395
310.008	14.162	1147.315	865.952
311.022	14.111	1146.823	865.241
312.037	14.166	1145.590	864.521
313.052	14.184	1144.716	863.880
314.066	14.147	1143.606	862.772
315.081	14.140	1143.009	862.208
316.095	14.142	1142.530	861.784
317.110	14.083	1141.521	860.637
318.125	14.126	1140.882	860.303
319.139	14.042	1140.157	859.245
320.154	14.109	1139.328	858.894
321.168	14.126	1138.637	858.385
322.183	14.051	1138.060	857.484
323.197	13.952	1137.782	856.691
324.212	14.126	1136.943	856.877
325.227	14.099	1135.939	855.904
326.241	13.991	1136.089	855.389
327.256	13.889	1134.935	853.920
328.270	14.108	1133.625	853.982
329.285	14.064	1132.439	852.789
330.300	14.100	1131.823	852.432
331.314	14.001	1130.685	850.994
332.329	13.969	1129.908	850.168
333.343	14.006	1129.149	849.714
334.358	13.815	1128.463	848.145
335.373	13.920	1127.535	847.906
336.387	13.852	1126.638	846.811
337.402	13.996	1125.875	846.895
338.416	13.936	1124.973	845.837
339.431	13.876	1124.425	845.046
340.446	13.921	1123.830	844.755
341.460	13.851	1122.876	843.604
342.475	13.911	1121.746	842.987
343.489	13.867	1120.896	842.051
344.504	13.929	1120.019	841.628
345.519	13.843	1119.205	840.507
346.533	13.749	1118.350	839.316
347.548	13.777	1117.565	838.793
348.562	13.839	1116.834	838.486
349.577	13.923	1115.379	837.744
350.592	13.864	1115.052	837.127
351.606	13.844	1114.274	836.369
352.621	13.899	1113.892	836.286
353.635	13.784	1113.133	835.062
354.650	13.748	1112.195	834.101
355.665	13.810	1111.363	833.714
356.679	13.640	1110.926	832.460
357.694	13.724	1109.966	832.088
358.708	13.782	1109.787	832.171
359.723	13.829	1108.633	831.471
360.738	13.757	1108.247	830.744
361.752	13.751	1107.795	830.300
362.767	13.765	1107.081	829.766
363.781	13.750	1106.100	828.878
364.796	13.656	1105.951	828.223
365.810	13.670	1105.146	827.620
366.825	13.633	1104.191	826.644
367.840	13.719	1103.540	826.514
368.854	13.758	1102.750	826.046
369.869	13.535	1102.162	824.418
370.883	13.689	1101.265	824.443
371.898	13.558	1100.357	823.039
372.913	13.520	1099.912	822.444
373.927	13.615	1099.479	822.518
374.942	13.548	1099.052	821.796
375.956	13.433	1098.737	820.915
376.971	13.592	1097.610	820.791
377.986	13.627	1096.787	820.272
379.000	13.623	1095.821	819.462
380.015	13.643	1095.280	819.083
381.029	13.561	1095.087	818.459
382.044	13.649	1093.865	817.907
383.059	13.623	1093.008	817.065
384.073	13.519	1092.188	815.870
385.088	13.587	1091.285	815.454
386.102	13.606	1090.237	814.697
387.117	13.592	1089.415	813.938
388.132	13.415	1088.785	812.529
389.146	13.508	1087.443	811.912
390.161	13.615	1086.777	811.865
391.175	13.557	1086.288	811.146
392.190	13.555	1085.580	810.537
393.205	13.531	1084.565	809.588
394.219	13.528	1083.452	808.671
395.234	13.395	1082.804	807.469
396.248	13.496	1081.499	806.913
397.263	13.339	1080.575	805.387
398.278	13.396	1079.765	804.992
399.292	13.495	1078.843	804.713
400.307	13.338	1078.508	803.631
401.321	13.477	1077.873	803.760
402.336	13.408	1077.263	802.901
403.350	13.440	1076.173	802.173
404.365	13.416	1075.341	801.367
405.380	13.400	1074.678	800.722
406.394	13.407	1073.784	800.019
407.409	13.337	1073.158	799.142
408.423	13.396	1072.062	798.543
409.438	13.260	1071.350	797.282
410.453	13.318	1070.781	797.069
411.467	13.336	1070.128	796.599
412.482	13.342	1069.299	795.941
413.496	13.388	1068.385	795.410
414.511	13.295	1067.641	794.342
415.526	13.269	1067.424	793.984
416.540	13.282	1067.063	793.708
417.555	13.375	1066.106	793.369
418.569	13.228	1065.624	792.236
419.584	13.341	1065.218	792.405
420.599	13.268	1064.285	791.292
421.613	143.765	1386.765	1773.190
422.628	132.464	1433.761	1773.329
