DTS Sentinel unit serial number:	SN413079Multiplexer serial number:	ORYXHardware model number:	OX4-SRSoftware version number:	ORYX F/W v4.00 Oryx Data Collector v3.7.2.0data status	okinstallation	princeton_trtdifferential loss correction	single-endedforward channel	channel 2reverse channel	N/Adate	2019/09/10time	23:17:10forward acquisition time	60.00reverse acquisition time	0.00gamma	496.2192k internal	0.2330k external	0.2330temperature offset calibration	0.9942default loss term (dB/km)	0.3790temperature slope calibration	1.0000multiplexer offset coefficient	1.0000multiplexer slope coefficient	1.0000fibre end	0.00T internal ref (°C)	29.86T ext. ref 1 (°C)	-0.31T ext. ref 2 (°C)	23.49length (m)	temperature (°C)	Stokes	anti-Stokes-747.200	-69.730	-0.117	0.045
-746.185	224.068	0.151	0.245
-745.171	-48.934	-0.221	-0.107
-744.156	-149.199	0.228	-0.018
-743.142	82.696	0.085	-0.093
-742.127	-9.658	-0.229	-0.154
-741.112	-200.000	-0.008	0.240
-740.098	-52.602	0.120	-0.056
-739.083	800.000	-0.067	-0.201
-738.069	-131.272	-0.180	0.024
-737.054	-151.964	0.211	-0.015
-736.039	-200.000	0.028	-0.282
-735.025	43.827	0.351	0.324
-734.010	68.879	-0.231	0.239
-732.996	800.000	-0.095	0.264
-731.981	-38.394	-0.247	-0.132
-730.966	461.210	0.165	-0.371
-729.952	-43.009	-0.233	-0.119
-728.937	800.000	-0.060	0.217
-727.923	-200.000	-0.050	-0.234
-726.908	24.817	0.080	-0.067
-725.894	-59.560	-0.220	0.095
-724.879	-200.000	-0.037	0.244
-723.864	-200.000	0.030	-0.157
-722.850	-148.823	0.321	-0.026
-721.835	-23.953	0.104	-0.063
-720.821	-200.000	-0.002	-0.050
-719.806	186.638	0.229	0.343
-718.791	172.879	-0.150	0.217
-717.777	-53.579	-0.269	-0.124
-716.762	43.050	-0.310	0.285
-715.748	-200.000	-0.004	0.066
-714.733	147.560	-0.156	-0.212
-713.718	-140.794	-0.093	-0.010
-712.704	231.485	-0.094	0.155
-711.689	-101.095	-0.212	0.052
-710.675	-89.678	-0.202	-0.060
-709.660	-43.349	0.363	-0.185
-708.645	-91.275	-0.307	0.088
-707.631	-200.000	-0.039	0.280
-706.616	-3.771	0.130	0.091
-705.602	-15.823	-0.240	-0.153
-704.587	-65.672	0.189	0.076
-703.572	-110.885	0.127	-0.026
-702.558	498.819	-0.078	-0.182
-701.543	800.000	0.057	0.226
-700.529	79.706	0.061	0.066
-699.514	-200.000	-0.032	-0.193
-698.499	252.883	-0.059	-0.100
-697.485	-87.784	0.100	-0.030
-696.470	-200.000	-0.031	-0.346
-695.456	-133.601	-0.016	-0.002
-694.441	295.107	0.152	0.279
-693.426	60.279	-0.164	0.163
-692.412	216.519	0.157	-0.251
-691.397	21.940	0.253	0.207
-690.383	21.302	-0.318	-0.259
-689.368	-81.929	0.195	0.064
-688.354	539.981	0.095	0.227
-687.339	800.000	-0.013	0.037
-686.324	28.114	-0.130	-0.110
-685.310	22.595	-0.227	-0.186
-684.295	-119.180	-0.096	-0.017
-683.281	-200.000	-0.016	0.281
-682.266	-79.408	-0.262	-0.089
-681.251	800.000	-0.031	-0.117
-680.237	211.013	0.170	-0.268
-679.222	162.443	-0.235	0.331
-678.208	-169.169	-0.161	0.006
-677.193	-200.000	0.034	-0.308
-676.178	235.434	-0.013	-0.022
-675.164	-200.000	0.039	0.281
-674.149	800.000	-0.114	-0.376
-673.135	9.080	-0.390	-0.295
-672.120	-200.000	0.006	-0.317
-671.105	91.353	-0.149	-0.168
-670.091	29.851	-0.212	-0.181
-669.076	-121.956	-0.311	0.051
-668.062	433.240	-0.128	0.279
-667.047	-200.000	0.089	-0.415
-666.032	-134.499	0.105	0.013
-665.018	-126.248	0.147	0.022
-664.003	-102.324	0.186	-0.045
-662.989	-31.259	-0.082	-0.046
-661.974	171.100	-0.182	0.262
-660.959	-137.277	-0.333	-0.038
-659.945	121.221	0.174	-0.217
-658.930	800.000	-0.163	0.463
-657.916	55.799	0.155	0.150
-656.901	73.929	0.186	0.196
-655.886	-136.168	-0.229	-0.027
-654.872	-79.552	-0.295	-0.100
-653.857	-133.323	0.130	-0.016
-652.843	-7.922	-0.313	-0.212
-651.828	-200.000	-0.027	0.192
-650.814	-60.727	-0.325	0.138
-649.799	800.000	-0.042	0.146
-648.784	-118.699	0.333	-0.059
-647.770	78.158	-0.133	-0.143
-646.755	-100.509	-0.157	0.039
-645.741	-140.238	0.111	-0.012
-644.726	-200.000	0.065	-0.449
-643.711	156.832	0.066	0.091
-642.697	417.928	-0.024	-0.052
-641.682	-47.526	-0.175	0.085
-640.668	-200.000	-0.045	-0.289
-639.653	-65.371	-0.216	-0.087
-638.638	-200.000	0.028	0.151
-637.624	-42.898	-0.282	-0.144
-636.609	-83.926	0.155	0.049
-635.595	219.931	-0.143	-0.230
-634.580	166.472	0.131	-0.187
-633.565	116.081	0.131	0.161
-632.551	49.469	-0.173	-0.163
-631.536	-200.000	0.030	-0.322
-630.522	800.000	0.042	0.186
-629.507	-200.000	-0.040	0.251
-628.492	-200.000	-0.015	0.116
-627.478	-139.207	0.268	-0.029
-626.463	355.870	0.085	-0.170
-625.449	-200.000	-0.027	-0.161
-624.434	-176.091	-0.150	-0.004
-623.419	138.541	-0.072	0.095
-622.405	-114.360	-0.581	0.112
-621.390	-19.026	-0.343	-0.214
-620.376	-200.000	0.001	0.047
-619.361	695.831	-0.064	-0.169
-618.346	-113.111	-0.337	-0.067
-617.332	-200.000	0.015	0.221
-616.317	765.467	-0.079	-0.216
-615.303	-53.563	0.205	-0.094
-614.288	-200.000	0.012	0.105
-613.273	90.378	0.250	-0.280
-612.259	-200.000	-0.198	-0.001
-611.244	-76.118	0.191	-0.068
-610.230	65.231	0.210	0.213
-609.215	800.000	0.085	0.334
-608.201	-72.325	-0.271	0.101
-607.186	67.680	-0.015	-0.015
-606.171	260.693	-0.154	-0.266
-605.157	-69.060	-0.389	0.150
-604.142	-49.422	-0.198	-0.095
-603.128	-200.000	-0.052	-0.323
-602.113	-182.139	-0.144	0.003
-601.098	-167.331	0.094	-0.004
-600.084	-151.696	0.208	0.015
-599.069	-106.041	-0.123	-0.028
-598.055	-200.000	0.035	-0.311
-597.040	17.632	-0.239	-0.190
-596.025	390.103	0.061	-0.127
-595.011	-200.000	0.013	-0.215
-593.996	313.105	-0.158	-0.298
-592.982	-49.935	-0.222	-0.105
-591.967	800.000	0.068	0.189
-590.952	-78.454	-0.189	0.065
-589.938	-200.000	0.046	-0.223
-588.923	27.392	-0.120	0.101
-587.909	-153.694	-0.277	-0.019
-586.894	111.970	-0.285	0.345
-585.879	568.077	-0.075	-0.183
-584.865	608.405	0.062	-0.155
-583.850	-112.248	-0.053	0.011
-582.836	-62.603	-0.277	0.115
-581.821	245.465	0.153	0.258
-580.806	800.000	0.074	-0.318
-579.792	213.478	0.119	0.189
-578.777	-200.000	-0.069	0.309
-577.763	-40.374	0.042	-0.022
-576.748	-55.363	-0.292	-0.131
-575.733	800.000	0.070	-0.194
-574.719	-200.000	-0.050	-0.245
-573.704	354.368	0.067	-0.134
-572.690	-65.395	0.243	-0.098
-571.675	46.258	0.109	0.101
-570.661	-155.264	0.379	0.025
-569.646	-200.000	0.014	0.378
-568.631	-120.392	-0.049	0.008
-567.617	-48.402	0.189	0.091
-566.602	150.889	0.066	0.090
-565.588	-200.000	0.050	0.382
-564.573	800.000	-0.073	-0.245
-563.558	780.180	0.102	-0.280
-562.544	155.465	-0.101	-0.139
-561.529	-200.000	-0.017	-0.139
-560.515	-10.018	-0.176	0.117
-559.500	-200.000	0.048	-0.210
-558.485	-200.000	-0.049	0.221
-557.471	13.421	-0.142	-0.110
-556.456	60.483	0.149	0.147
-555.442	11.635	-0.145	0.111
-554.427	-200.000	0.011	-0.365
-553.412	-175.616	0.303	0.008
-552.398	-200.000	0.019	-0.089
-551.383	-200.000	-0.000	0.220
-550.369	800.000	-0.033	0.121
-549.354	-58.482	0.229	0.099
-548.339	79.714	-0.050	-0.053
-547.325	190.238	0.124	0.186
-546.310	-200.000	0.062	0.289
-545.296	800.000	0.053	0.194
-544.281	162.440	-0.124	0.174
-543.266	-111.942	0.187	-0.038
-542.252	20.131	0.161	-0.130
-541.237	23.593	-0.203	-0.167
-540.223	44.928	-0.291	-0.268
-539.208	385.057	-0.153	-0.316
-538.193	34.411	-0.093	-0.081
-537.179	-63.940	0.351	0.143
-536.164	117.866	0.306	0.376
-535.150	-55.932	-0.259	-0.115
-534.135	627.102	-0.077	0.194
-533.121	-200.000	0.027	-0.329
-532.106	-94.394	0.420	0.114
-531.091	147.463	-0.206	-0.277
-530.077	-200.000	0.001	-0.013
-529.062	-136.413	-0.331	-0.038
-528.048	-53.497	0.156	0.071
-527.033	800.000	-0.106	0.463
-526.018	-21.721	-0.148	-0.090
-525.004	-138.085	0.153	-0.017
-523.989	51.531	-0.198	-0.188
-522.975	-40.043	0.230	-0.120
-521.960	-95.375	-0.361	0.097
-520.945	-148.677	0.178	0.014
-519.931	-57.075	0.277	0.122
-518.916	-200.000	0.009	0.108
-517.902	-200.000	0.007	-0.273
-516.887	2.066	-0.156	0.112
-515.872	-101.751	0.468	0.113
-514.858	268.746	-0.069	-0.121
-513.843	-113.703	-0.189	0.037
-512.829	-200.000	0.010	-0.329
-511.814	-38.857	0.081	0.042
-510.799	337.726	-0.051	-0.100
-509.785	-200.000	0.016	-0.229
-508.770	-110.909	-0.272	0.056
-507.756	-139.494	0.124	0.013
-506.741	-53.430	0.111	0.051
-505.726	-135.356	0.088	-0.010
-504.712	-200.000	0.005	-0.044
-503.697	-200.000	-0.012	-0.142
-502.683	-200.000	0.012	0.252
-501.668	-55.198	0.362	0.162
-500.653	526.986	-0.088	0.207
-499.639	398.969	0.100	0.209
-498.624	461.869	-0.076	0.168
-497.610	-200.000	0.037	-0.606
-496.595	-109.453	0.032	-0.007
-495.581	-69.668	0.409	0.156
-494.566	-82.066	-0.419	-0.137
-493.551	-72.097	0.309	0.114
-492.537	-71.405	-0.134	-0.050
-491.522	-200.000	0.017	0.106
-490.508	-200.000	0.018	0.183
-489.493	705.821	-0.165	-0.435
-488.478	800.000	0.093	-0.313
-487.464	-62.600	-0.292	0.121
-486.449	130.268	0.268	0.342
-485.435	291.654	0.073	-0.132
-484.420	121.926	0.154	-0.191
-483.405	37.775	0.224	0.198
-482.391	20.424	0.198	-0.159
-481.376	800.000	-0.046	-0.183
-480.362	679.880	-0.081	0.210
-479.347	-0.865	-0.082	-0.058
-478.332	-200.000	0.016	0.234
-477.318	-30.514	0.038	0.021
-476.303	91.142	-0.168	0.187
-475.289	-200.000	-0.024	0.145
-474.274	-135.928	0.089	-0.010
-473.259	-97.930	0.282	-0.073
-472.245	347.454	0.054	-0.105
-471.230	94.305	-0.057	-0.064
-470.216	-169.265	0.322	-0.012
-469.201	-191.714	0.188	-0.002
-468.186	-91.519	0.053	0.015
-467.172	-200.000	0.038	-0.167
-466.157	-200.000	0.046	-0.237
-465.143	-192.909	0.190	0.002
-464.128	-75.070	0.222	0.079
-463.113	800.000	-0.049	-0.209
-462.099	-89.459	0.074	0.022
-461.084	-92.578	0.215	-0.060
-460.070	-139.537	0.197	0.021
-459.055	66.320	-0.212	0.215
-458.040	-94.998	0.316	0.085
-457.026	436.909	0.074	-0.161
-456.011	-200.000	0.021	-0.230
-454.997	800.000	0.099	0.297
-453.982	712.240	0.095	0.250
-452.968	-46.156	-0.053	0.026
-451.953	26.751	-0.237	0.198
-450.938	-124.557	0.057	0.009
-449.924	569.811	0.103	-0.249
-448.909	800.000	0.067	0.187
-447.895	-13.434	0.186	-0.120
-446.880	-200.000	0.004	-0.041
-445.865	103.335	-0.047	0.054
-444.851	-200.000	0.021	-0.202
-443.836	-200.000	-0.008	-0.072
-442.822	-90.176	-0.323	0.094
-441.807	-23.149	0.240	0.144
-440.792	184.990	0.168	0.248
-439.778	-40.039	0.135	0.070
-438.763	-153.785	-0.449	-0.031
-437.749	44.298	-0.115	0.105
-436.734	40.006	0.076	-0.068
-435.719	-66.200	0.221	0.088
-434.705	-200.000	-0.025	0.124
-433.690	-16.037	-0.212	-0.134
-432.676	-155.504	-0.318	0.020
-431.661	-200.000	0.008	-0.246
-430.646	-200.000	0.042	-0.246
-429.632	119.010	0.167	0.206
-428.617	74.258	0.295	0.308
-427.603	10.228	-0.084	0.064
-426.588	14.195	-0.162	-0.125
-425.573	592.556	0.029	0.070
-424.559	-200.000	0.003	-0.014
-423.544	154.851	-0.097	-0.133
-422.530	412.519	0.079	-0.166
-421.515	-85.581	-0.152	0.047
-420.500	-67.701	-0.291	-0.113
-419.486	-95.064	-0.282	0.076
-418.471	-135.644	-0.254	-0.030
-417.457	800.000	0.056	0.167
-416.442	-110.055	-0.040	0.008
-415.428	79.355	0.339	-0.362
-414.413	267.703	0.138	0.239
-413.398	800.000	-0.067	0.274
-412.384	-200.000	0.024	0.124
-411.369	-77.715	-0.103	-0.035
-410.355	-79.077	-0.346	0.117
-409.340	171.358	-0.163	0.233
-408.325	-75.972	-0.123	0.043
-407.311	32.279	0.249	0.214
-406.296	-82.410	-0.126	0.041
-405.282	-13.492	-0.114	-0.073
-404.267	183.564	0.028	-0.041
-403.252	409.795	-0.053	0.112
-402.238	83.430	-0.074	-0.080
-401.223	404.768	-0.053	-0.110
-400.209	212.151	-0.128	0.201
-399.194	-11.363	0.144	-0.094
-398.179	800.000	-0.017	-0.053
-397.165	-43.721	0.052	-0.026
-396.150	-78.959	0.039	0.013
-395.136	-13.353	0.529	-0.341
-394.121	-150.636	0.157	-0.012
-393.106	-108.990	-0.089	-0.019
-392.092	-35.304	0.126	-0.068
-391.077	90.212	-0.104	0.115
-390.063	-57.588	0.115	-0.050
-389.048	800.000	-0.046	-0.126
-388.033	-200.000	0.012	-0.257
-387.019	-132.762	0.072	0.009
-386.004	800.000	-0.030	0.094
-384.990	122.198	-0.327	-0.405
-383.975	395.443	0.117	-0.241
-382.960	24.469	-0.056	-0.046
-381.946	-185.876	-0.145	-0.002
-380.931	800.000	0.027	0.090
-379.917	-141.138	-0.265	-0.027
-378.902	-106.900	0.176	-0.039
-377.888	-200.000	0.085	0.441
-376.873	-200.000	-0.005	0.080
-375.858	-84.818	0.084	0.026
-374.844	37.143	-0.073	0.064
-373.829	-116.835	-0.089	-0.016
-372.815	-0.072	0.319	-0.225
-371.800	800.000	0.102	-0.324
-370.785	41.199	0.127	-0.114
-369.771	60.187	0.184	0.180
-368.756	-147.548	-0.064	0.005
-367.742	-200.000	-0.085	-0.373
-366.727	157.909	-0.084	0.116
-365.712	800.000	-0.043	0.123
-364.698	-200.000	0.013	0.097
-363.683	169.278	-0.157	0.223
-362.669	134.345	0.225	0.290
-361.654	-74.329	-0.243	0.087
-360.639	-21.908	0.297	0.179
-359.625	-65.596	0.356	-0.142
-358.610	53.414	-0.086	0.082
-357.596	-138.751	-0.121	-0.013
-356.581	628.663	-0.030	0.076
-355.566	-130.728	0.409	0.055
-354.552	16.483	0.298	0.234
-353.537	-80.328	-0.322	-0.107
-352.523	-159.574	0.150	-0.008
-351.508	-21.044	-0.305	-0.185
-350.493	-11.848	0.177	-0.115
-349.479	-156.086	-0.093	-0.006
-348.464	202.466	-0.037	0.057
-347.450	800.000	-0.085	0.325
-346.435	658.372	0.063	0.160
-345.420	12.813	-0.187	-0.143
-344.406	-5.641	-0.115	-0.078
-343.391	-43.720	-0.150	0.075
-342.377	-137.838	-0.263	-0.029
-341.362	-160.947	-0.223	0.012
-340.348	-4.188	0.068	-0.047
-339.333	-38.805	-0.164	-0.086
-338.318	37.625	-0.215	-0.189
-337.304	-200.000	-0.030	-0.177
-336.289	-41.853	0.239	0.121
-335.275	26.703	-0.247	0.205
-334.260	-200.000	-0.014	0.276
-333.245	800.000	0.039	-0.164
-332.231	36.938	-0.105	-0.092
-331.216	152.029	0.107	-0.145
-330.202	-169.085	-0.113	0.004
-329.187	759.405	-0.096	-0.257
-328.172	800.000	-0.026	0.100
-327.158	800.000	-0.103	-0.317
-326.143	67.418	0.035	-0.035
-325.129	-12.088	-0.282	-0.183
-324.114	494.631	0.145	-0.330
-323.099	800.000	0.062	-0.222
-322.085	-24.934	-0.297	0.175
-321.070	27.699	0.126	0.105
-320.056	-4.359	-0.109	0.074
-319.041	98.645	0.087	-0.100
-318.026	-190.653	0.129	0.001
-317.012	-80.157	0.366	0.121
-315.997	-200.000	-0.055	0.276
-314.983	-69.136	0.252	0.096
-313.968	-132.879	0.212	0.027
-312.953	-164.911	-0.136	-0.006
-311.939	220.849	-0.159	0.253
-310.924	481.501	0.056	-0.125
-309.910	53.228	0.202	-0.192
-308.895	263.654	-0.179	0.309
-307.880	383.910	-0.120	0.244
-306.866	140.267	-0.245	-0.320
-305.851	241.020	-0.072	0.119
-304.837	-89.561	0.206	-0.060
-303.822	-70.621	-0.236	0.088
-302.807	-93.998	-0.015	-0.004
-301.793	-73.630	0.115	-0.041
-300.778	556.985	0.085	-0.202
-299.764	-44.509	0.155	-0.076
-298.749	287.039	-0.075	-0.135
-297.735	34.104	0.153	0.132
-296.720	-16.158	0.134	0.084
-295.705	-73.828	0.217	-0.078
-294.691	-73.605	0.397	-0.143
-293.676	-119.002	-0.301	0.052
-292.662	-72.646	0.418	-0.153
-291.647	800.000	-0.020	0.085
-290.632	-200.000	-0.009	-0.162
-289.618	-200.000	0.007	0.055
-288.603	-200.000	0.007	-0.065
-287.589	177.191	-0.196	-0.282
-286.574	800.000	-0.010	-0.039
-285.559	235.236	-0.150	0.245
-284.545	-72.037	0.169	0.062
-283.530	164.321	0.149	-0.208
-282.516	-73.352	0.264	-0.095
-281.501	-185.001	-0.173	0.003
-280.486	50.828	-0.205	-0.192
-279.472	-1.614	0.135	-0.094
-278.457	-200.000	-0.064	0.334
-277.443	531.837	0.091	0.214
-276.428	-200.000	-0.006	0.307
-275.413	111.677	-0.070	-0.083
-274.399	-103.035	-0.324	-0.076
-273.384	383.682	0.065	-0.133
-272.370	-94.846	0.249	-0.067
-271.355	-47.780	0.288	-0.138
-270.340	-54.162	-0.238	0.107
-269.326	-200.000	-0.075	0.473
-268.311	-71.100	0.423	0.157
-267.297	-112.456	-0.390	-0.077
-266.282	330.137	0.198	-0.376
-265.267	-51.725	-0.301	0.139
-264.253	28.951	-0.182	-0.152
-263.238	-32.886	0.320	0.176
-262.224	224.365	0.080	-0.128
-261.209	800.000	0.038	0.128
-260.195	180.842	0.460	-0.668
-259.180	261.768	-0.251	-0.429
-258.165	800.000	0.131	0.508
-257.151	-177.284	-0.195	0.005
-256.136	27.249	-0.290	0.240
-255.122	-81.680	-0.146	0.047
-254.107	-26.265	-0.050	0.029
-253.092	-169.408	0.066	0.002
-252.078	-200.000	-0.043	0.231
-251.063	-59.908	-0.199	0.084
-250.049	800.000	-0.056	0.201
-249.034	147.723	0.094	-0.126
-248.019	-118.219	0.218	0.038
-247.005	-49.349	-0.073	0.034
-245.990	-200.000	-0.036	0.341
-244.976	800.000	-0.016	0.057
-243.961	357.159	0.101	0.199
-242.946	-16.097	-0.194	0.122
-241.932	-55.025	-0.247	0.110
-240.917	159.511	-0.099	0.136
-239.903	-69.628	0.309	-0.117
-238.888	527.761	0.021	-0.049
-237.873	4.695	-0.051	0.037
-236.859	-200.000	-0.074	-0.374
-235.844	-200.000	-0.002	0.166
-234.830	-110.910	-0.147	-0.030
-233.815	-200.000	0.001	0.368
-232.800	217.062	-0.173	-0.271
-231.786	-68.775	-0.128	-0.049
-230.771	-200.000	-0.016	0.120
-229.757	228.964	-0.165	0.266
-228.742	-200.000	0.002	0.097
-227.727	-200.000	-0.008	0.127
-226.713	205.357	0.144	0.221
-225.698	-163.267	-0.086	0.004
-224.684	44.148	-0.140	-0.127
-223.669	-200.000	0.000	-0.003
-222.655	800.000	-0.093	0.300
-221.640	77.121	-0.010	0.011
-220.625	-30.596	-0.166	-0.093
-219.611	-200.000	0.035	-0.246
-218.596	800.000	0.100	-0.352
-217.582	-38.738	-0.210	-0.110
-216.567	447.923	0.105	0.228
-215.552	380.000	-0.077	-0.156
-214.538	-124.186	-0.107	0.016
-213.523	-200.000	0.012	0.068
-212.509	-200.000	0.007	-0.221
-211.494	-116.881	0.107	-0.019
-210.479	591.497	-0.150	-0.366
-209.465	-141.940	0.179	-0.018
-208.450	-34.859	0.116	-0.063
-207.436	-90.354	-0.058	-0.017
-206.421	30.499	-0.255	0.215
-205.406	800.000	-0.076	0.281
-204.392	-65.852	-0.102	-0.040
-203.377	23.672	0.168	0.136
-202.363	800.000	0.093	-0.375
-201.348	415.008	-0.055	-0.116
-200.333	342.232	-0.194	-0.374
-199.319	-0.858	0.138	0.096
-198.304	-83.992	-0.538	-0.169
-197.290	-55.806	-0.297	-0.131
-196.275	800.000	0.058	-0.179
-195.260	-71.843	0.216	0.079
-194.246	134.337	-0.197	0.252
-193.231	-99.778	-0.239	0.059
-192.217	-25.722	0.007	0.004
-191.202	-200.000	0.046	0.404
-190.187	-8.979	0.159	-0.105
-189.173	-53.138	0.281	0.127
-188.158	65.292	0.042	0.042
-187.144	-200.000	0.017	0.327
-186.129	148.363	0.261	0.347
-185.114	706.930	-0.034	-0.088
-184.100	208.418	-0.240	-0.370
-183.085	-170.709	0.447	0.015
-182.071	-200.000	-0.048	-0.372
-181.056	4.747	0.246	0.178
-180.042	-125.245	0.071	0.011
-179.027	111.058	0.148	0.176
-178.012	-28.325	-0.083	-0.047
-176.998	-1.903	-0.224	0.155
-175.983	246.485	0.109	0.181
-174.969	27.888	-0.028	-0.023
-173.954	662.680	0.182	0.461
-172.939	-200.000	-0.000	-0.060
-171.925	-200.000	0.098	0.483
-170.910	-48.669	-0.349	-0.165
-169.896	-139.162	0.247	0.026
-168.881	34.413	0.063	0.054
-167.866	174.718	-0.082	0.117
-166.852	103.146	-0.198	0.229
-165.837	-200.000	-0.023	0.201
-164.823	536.365	-0.122	0.286
-163.808	598.819	0.064	0.156
-162.793	-98.302	0.379	0.096
-161.779	124.139	0.147	0.181
-160.764	-150.125	0.432	-0.033
-159.750	2.453	0.554	-0.395
-158.735	-107.700	-0.178	-0.038
-157.720	35.901	0.098	-0.084
-156.706	26.429	0.078	-0.064
-155.691	-12.596	-0.360	-0.231
-154.677	142.528	-0.102	0.133
-153.662	95.761	-0.031	0.034
-152.647	-152.250	0.109	-0.008
-151.633	-63.895	0.227	0.091
-150.618	56.701	0.096	-0.092
-149.604	-200.000	-0.015	0.283
-148.589	800.000	-0.034	0.095
-147.574	-200.000	-0.024	0.381
-146.560	-152.818	-0.207	0.014
-145.545	606.792	0.075	-0.184
-144.531	181.920	0.150	-0.217
-143.516	-119.262	-0.309	-0.053
-142.502	-0.388	0.350	-0.244
-141.487	15.368	-0.205	-0.158
-140.472	-200.000	0.022	0.163
-139.458	-69.518	-0.154	0.058
-138.443	800.000	0.098	0.380
-137.429	-19.051	-0.290	0.178
-136.414	-200.000	0.078	0.387
-135.399	-72.346	-0.033	-0.012
-134.385	55.734	0.299	0.285
-133.370	-119.267	0.088	-0.015
-132.356	800.000	-0.012	-0.045
-131.341	-44.506	-0.056	0.028
-130.326	800.000	0.050	-0.176
-129.312	-26.349	-0.118	0.068
-128.297	394.312	0.027	0.056
-127.283	-200.000	0.005	0.053
-126.268	268.819	0.020	-0.034
-125.253	-97.893	0.363	-0.092
-124.239	800.000	0.087	-0.284
-123.224	463.594	-0.210	0.461
-122.210	14.218	0.339	0.260
-121.195	-200.000	-0.015	-0.238
-120.180	-5.679	-0.133	-0.089
-119.166	800.000	-0.106	-0.352
-118.151	-1.396	0.129	0.090
-117.137	37.349	0.210	0.183
-116.122	627.814	-0.035	0.087
-115.107	34.581	-0.135	-0.116
-114.093	-83.784	-0.235	0.074
-113.078	-200.000	-0.022	-0.210
-112.064	-127.772	-0.203	-0.029
-111.049	-15.755	-0.191	-0.120
-110.034	800.000	-0.046	0.195
-109.020	249.902	-0.101	-0.168
-108.005	-200.000	0.011	-0.263
-106.991	-49.395	0.124	0.058
-105.976	800.000	-0.037	-0.113
-104.962	60.858	-0.168	0.164
-103.947	128.930	0.085	-0.106
-102.932	-123.442	-0.086	0.013
-101.918	526.092	0.117	-0.271
-100.903	14.359	-0.036	0.028
-99.889	179.469	-0.028	0.040
-98.874	-174.654	0.212	-0.006
-97.859	59.674	-0.036	-0.035
-96.845	-46.732	0.076	0.037
-95.830	259.781	0.042	0.071
-94.816	800.000	0.070	-0.271
-93.801	-44.438	0.134	0.066
-92.786	19.705	-0.099	0.078
-91.772	163.192	0.103	0.143
-90.757	-37.893	0.209	-0.109
-89.743	-114.542	0.221	-0.042
-88.728	125.384	0.158	-0.196
-87.713	-200.000	-0.051	0.263
-86.699	-51.215	-0.340	0.156
-85.684	169.029	0.296	0.415
-84.670	-200.000	-0.013	0.164
-83.655	-8.339	0.137	-0.090
-82.640	-135.043	-0.205	-0.024
-81.626	-130.186	-0.096	-0.013
-80.611	407.626	0.079	-0.164
-79.597	21.538	-0.150	0.119
-78.582	-61.163	-0.055	-0.023
-77.567	382.472	0.169	-0.341
-76.553	194.827	0.169	-0.252
-75.538	103.686	-0.086	-0.099
-74.524	-54.594	0.149	-0.066
-73.509	-200.000	-0.007	0.072
-72.494	-200.000	0.033	0.289
-71.480	-200.000	0.009	0.295
-70.465	-200.000	0.064	0.362
-69.451	-108.501	0.414	-0.087
-68.436	-33.764	0.185	0.100
-67.422	557.212	-0.104	-0.245
-66.407	-139.717	-0.215	-0.022
-65.392	-200.000	-0.007	0.121
-64.378	130.933	0.248	0.311
-63.363	144.438	-0.069	0.091
-62.349	118.315	0.201	0.242
-61.334	85.750	-1.049	-1.130
-60.319	1.782	0.607	0.429
-59.305	200.534	-0.474	-0.714
-58.290	347.746	0.720	1.391
-57.276	261.638	0.788	1.338
-56.261	-200.000	105.316	614.794
-55.246	515.072	1495.086	3421.080
-54.232	176.996	2696.034	3844.735
-53.217	105.769	2288.894	2653.123
-52.203	38.877	1897.072	1660.631
-51.188	32.989	1684.542	1430.116
-50.173	30.445	1640.966	1374.274
-49.159	49.072	1695.151	1560.266
-48.144	49.681	1710.037	1578.486
-47.130	32.652	1667.621	1412.999
-46.115	30.042	1652.894	1381.041
-45.100	29.864	1647.499	1375.153
-44.086	29.793	1645.408	1372.825
-43.071	29.762	1642.239	1369.897
-42.057	29.691	1640.334	1367.728
-41.042	29.736	1638.542	1366.511
-40.027	29.755	1636.766	1365.118
-39.013	29.725	1634.366	1362.840
-37.998	29.576	1633.402	1360.887
-36.984	29.741	1631.580	1360.528
-35.969	29.859	1630.193	1360.182
-34.954	29.926	1628.130	1358.900
-33.940	29.859	1626.844	1357.282
-32.925	29.855	1624.829	1355.517
-31.911	29.862	1622.828	1353.848
-30.896	29.860	1621.516	1352.682
-29.881	29.915	1619.647	1351.474
-28.867	29.812	1618.491	1349.700
-27.852	29.818	1617.394	1348.774
-26.838	29.839	1615.593	1347.373
-25.823	29.910	1613.746	1346.296
-24.809	29.823	1613.256	1345.202
-23.794	29.817	1611.502	1343.646
-22.779	29.900	1610.109	1343.034
-21.765	29.929	1608.519	1341.860
-20.750	29.915	1606.473	1339.998
-19.736	29.899	1604.986	1338.592
-18.721	29.887	1604.490	1338.036
-17.706	29.900	1602.176	1336.151
-16.692	29.863	1600.679	1334.582
-15.677	29.810	1599.571	1333.220
-14.663	29.946	1597.875	1332.737
-13.648	29.894	1596.088	1330.817
-12.633	29.872	1595.327	1329.970
-11.619	29.880	1593.503	1328.456
-10.604	29.910	1591.809	1327.209
-9.590	29.934	1591.232	1326.844
-8.575	29.934	1589.868	1325.655
-7.560	29.896	1588.924	1324.544
-6.546	29.962	1587.824	1324.045
-5.531	29.940	1586.422	1322.663
-4.517	29.885	1585.256	1321.249
-3.502	29.968	1584.342	1321.023
-2.487	29.979	1583.000	1319.935
-1.473	29.602	1571.163	1307.343
-0.458	26.668	1551.785	1270.624
0.556	20.708	1553.260	1238.921
1.571	18.470	1577.948	1242.296
2.586	18.127	1591.476	1250.330
3.600	16.357	1538.855	1196.359
4.615	8.730	1430.839	1061.875
5.629	1.250	1366.879	966.792
6.644	-0.145	1358.795	952.154
7.659	-0.304	1357.464	950.130
8.673	-0.391	1356.499	948.820
9.688	-0.390	1354.673	947.462
10.702	-0.592	1351.698	944.028
11.717	2.456	1357.821	967.504
12.731	11.540	1374.481	1037.198
13.746	18.813	1387.561	1093.430
14.761	20.727	1389.098	1106.728
15.775	20.916	1389.225	1107.939
16.790	21.004	1388.441	1107.774
17.804	20.993	1388.551	1107.692
18.819	21.258	1387.843	1108.710
19.834	21.413	1387.048	1108.962
20.848	21.323	1386.530	1107.881
21.863	21.321	1385.787	1107.174
22.877	21.403	1384.628	1106.671
23.892	21.370	1384.033	1105.886
24.907	21.318	1382.911	1104.563
25.921	21.438	1381.902	1104.420
26.936	21.294	1381.301	1102.933
27.950	21.339	1380.459	1102.445
28.965	21.358	1379.084	1101.369
29.980	21.316	1378.218	1100.315
30.994	21.312	1376.774	1099.037
32.009	21.300	1375.186	1097.598
33.023	21.320	1374.254	1096.885
34.038	21.322	1373.034	1095.826
35.053	21.426	1371.777	1095.378
36.067	21.348	1370.574	1093.833
37.082	21.404	1370.244	1093.821
38.096	21.551	1368.702	1093.415
39.111	21.381	1368.401	1092.015
40.126	21.359	1367.528	1091.083
41.140	21.303	1367.196	1090.374
42.155	21.293	1367.140	1090.169
43.169	21.420	1366.812	1090.605
44.184	21.354	1366.858	1090.134
45.199	21.374	1366.269	1089.690
46.213	21.383	1365.471	1089.011
47.228	21.425	1364.409	1088.331
48.242	21.443	1363.057	1087.269
49.257	21.467	1361.744	1086.273
50.271	21.450	1360.120	1084.778
51.286	21.350	1359.269	1083.383
52.301	21.374	1357.901	1082.342
53.315	21.503	1356.813	1082.176
54.330	21.484	1356.018	1081.332
55.344	21.336	1354.887	1079.422
56.359	21.326	1354.418	1078.887
57.374	21.334	1353.450	1078.074
58.388	21.461	1352.255	1077.810
59.403	21.385	1352.319	1077.295
60.417	21.302	1351.908	1076.359
61.432	21.360	1350.756	1075.707
62.447	21.363	1349.871	1074.922
63.461	21.310	1348.545	1073.450
64.476	21.441	1347.830	1073.589
65.490	21.350	1346.629	1071.980
66.505	21.490	1344.555	1071.091
67.520	21.466	1343.666	1070.140
68.534	21.437	1342.529	1068.960
69.549	21.463	1341.390	1068.119
70.563	21.425	1341.004	1067.488
71.578	21.440	1339.577	1066.347
72.593	21.406	1339.244	1065.780
73.607	21.378	1338.406	1064.849
74.622	21.451	1337.368	1064.373
75.636	21.381	1336.396	1063.076
76.651	21.461	1335.770	1062.976
77.666	21.359	1335.421	1061.980
78.680	21.302	1335.565	1061.656
79.695	21.440	1333.785	1060.981
80.709	21.507	1333.123	1060.771
81.724	21.577	1332.069	1060.261
82.739	21.475	1331.429	1059.041
83.753	21.432	1330.484	1057.934
84.768	21.332	1329.118	1056.152
85.782	21.439	1328.164	1055.947
86.797	21.367	1327.014	1054.504
87.812	21.432	1326.021	1054.015
88.826	21.446	1325.025	1053.210
89.841	21.481	1323.965	1052.487
90.855	21.393	1323.175	1051.240
91.870	21.407	1322.246	1050.493
92.884	21.529	1320.954	1050.105
93.899	21.531	1320.758	1049.865
94.914	21.437	1319.796	1048.444
95.928	21.479	1319.160	1048.096
96.943	21.515	1318.051	1047.343
97.957	21.565	1317.590	1047.180
98.972	21.388	1316.804	1045.407
99.987	21.533	1315.156	1044.868
101.001	21.418	1314.763	1043.778
102.016	21.514	1313.428	1043.202
103.030	21.417	1312.533	1041.818
104.045	21.503	1311.802	1041.657
105.060	21.540	1310.864	1041.040
106.074	21.473	1309.826	1039.724
107.089	21.519	1308.592	1038.930
108.103	21.597	1307.519	1038.445
109.118	21.510	1306.443	1036.987
110.133	21.601	1304.922	1036.225
111.147	21.450	1304.544	1034.937
112.162	21.580	1302.953	1034.350
113.176	21.565	1302.159	1033.545
114.191	21.634	1301.053	1032.982
115.206	21.523	1300.638	1031.908
116.220	21.548	1299.464	1031.033
117.235	21.578	1298.066	1030.007
118.249	21.487	1297.518	1028.944
119.264	21.503	1296.535	1028.168
120.279	21.630	1295.566	1028.054
121.293	21.556	1294.801	1026.922
122.308	21.607	1293.505	1026.104
123.322	21.648	1292.716	1025.625
124.337	21.732	1291.561	1025.113
125.352	21.609	1290.429	1023.403
126.366	21.694	1289.205	1022.835
127.381	21.673	1288.939	1022.414
128.395	21.465	1287.978	1020.347
129.410	21.525	1287.209	1019.996
130.424	21.569	1286.642	1019.714
131.439	21.666	1285.077	1018.945
132.454	21.654	1284.315	1018.185
133.468	21.696	1283.294	1017.529
134.483	21.612	1283.386	1017.025
135.497	21.632	1282.167	1016.085
136.512	21.543	1281.017	1014.566
137.527	21.577	1279.989	1013.859
138.541	21.653	1278.543	1013.061
139.556	21.620	1277.352	1011.843
140.570	21.638	1276.463	1011.152
141.585	21.623	1275.376	1010.113
142.600	21.535	1274.416	1008.757
143.614	21.474	1273.484	1007.579
144.629	21.552	1272.631	1007.265
145.643	21.446	1271.808	1005.912
146.658	21.541	1270.249	1005.136
147.673	21.608	1269.256	1004.644
148.687	21.495	1268.403	1003.235
149.702	21.521	1267.403	1002.506
150.716	21.481	1266.178	1001.218
151.731	21.505	1265.164	1000.464
152.746	21.587	1263.751	999.727
153.760	21.640	1263.417	999.675
154.775	21.648	1262.255	998.711
155.789	21.643	1261.077	997.662
156.804	21.467	1260.709	996.286
157.819	21.570	1259.328	995.689
158.833	21.610	1258.972	995.547
159.848	21.699	1258.032	995.223
160.862	21.719	1257.246	994.626
161.877	21.773	1255.734	993.644
162.892	21.728	1255.233	992.909
163.906	21.776	1254.164	992.247
164.921	21.701	1253.690	991.361
165.935	21.720	1253.136	990.941
166.950	21.722	1252.452	990.323
167.964	21.798	1251.295	989.747
168.979	21.758	1251.353	989.482
169.994	21.722	1250.799	988.753
171.008	21.707	1250.251	988.147
172.023	21.787	1249.308	987.766
173.037	21.732	1248.311	986.579
174.052	21.765	1247.741	986.231
175.067	21.781	1246.531	985.273
176.081	21.816	1246.101	985.043
177.096	21.678	1245.485	983.695
178.110	21.783	1243.721	982.803
179.125	21.780	1242.855	982.016
180.140	21.789	1241.751	981.108
181.154	21.830	1240.951	980.616
182.169	21.718	1240.216	979.326
183.183	21.802	1238.594	978.427
184.198	21.801	1237.766	977.680
185.213	21.772	1236.593	976.505
186.227	21.862	1236.386	976.754
187.242	21.886	1235.139	975.819
188.256	21.907	1234.150	975.067
189.271	21.918	1233.474	974.508
190.286	21.792	1232.846	973.227
191.300	21.756	1232.618	972.762
192.315	21.673	1232.508	972.125
193.329	21.705	1231.605	971.507
194.344	21.777	1230.908	971.270
195.359	21.813	1230.541	971.090
196.373	21.901	1229.627	970.773
197.388	21.747	1229.490	969.725
198.402	21.732	1229.240	969.361
199.417	21.916	1228.117	969.407
200.432	21.764	1227.985	968.374
201.446	21.796	1227.369	967.983
202.461	21.790	1226.809	967.423
203.475	21.773	1225.677	966.351
204.490	21.724	1224.913	965.389
205.504	21.780	1224.014	964.907
206.519	21.943	1222.328	964.388
207.534	21.890	1221.606	963.441
208.548	21.731	1221.412	962.329
209.563	21.760	1219.720	961.072
210.577	21.796	1219.417	960.943
211.592	21.883	1218.691	960.764
212.607	21.912	1217.767	960.110
213.621	22.025	1216.462	959.611
214.636	21.942	1216.172	958.844
215.650	21.994	1214.997	958.115
216.665	21.888	1214.489	957.053
217.680	21.927	1213.401	956.325
218.694	22.021	1212.746	956.233
219.709	21.873	1212.391	955.063
220.723	22.028	1211.472	955.097
221.738	21.892	1210.827	953.765
222.753	21.887	1210.014	953.014
223.767	21.859	1209.834	952.637
224.782	22.053	1209.024	952.966
225.796	22.106	1208.162	952.494
226.811	22.078	1207.696	951.890
227.826	22.095	1207.135	951.455
228.840	22.139	1206.563	951.158
229.855	22.120	1205.561	950.182
230.869	21.981	1205.124	949.002
231.884	22.043	1204.778	948.979
232.899	21.987	1203.806	947.826
233.913	21.991	1203.592	947.596
234.928	22.158	1202.632	947.655
235.942	22.113	1202.146	946.949
236.957	22.134	1201.370	946.366
237.972	22.152	1200.743	945.884
238.986	22.087	1199.809	944.717
240.001	22.110	1199.405	944.437
241.015	22.239	1198.705	944.498
242.030	22.098	1198.187	943.245
243.045	22.186	1197.104	942.785
244.059	22.254	1196.316	942.443
245.074	22.181	1195.787	941.552
246.088	22.214	1194.665	940.763
247.103	22.213	1193.852	940.032
248.117	22.218	1193.003	939.311
249.132	22.221	1192.459	938.811
250.147	22.253	1191.892	938.452
251.161	22.309	1191.518	938.373
252.176	22.289	1190.569	937.440
253.190	22.373	1189.568	937.014
254.205	22.363	1188.986	936.422
255.220	22.320	1188.212	935.498
256.234	22.259	1187.989	934.915
257.249	22.233	1187.417	934.247
258.263	22.262	1187.098	934.066
259.278	22.399	1186.112	933.934
260.293	22.381	1185.506	933.277
261.307	22.351	1184.719	932.415
262.322	22.425	1184.177	932.299
263.336	22.416	1183.853	931.914
264.351	22.276	1183.487	930.802
265.366	22.384	1182.541	930.549
266.380	22.316	1182.057	929.723
267.395	22.316	1180.968	928.786
268.409	22.367	1180.626	928.706
269.424	22.456	1180.075	928.657
270.439	22.363	1179.684	927.781
271.453	22.383	1179.311	927.509
272.468	22.309	1178.391	926.315
273.482	22.257	1177.656	925.383
274.497	22.359	1177.260	925.523
275.512	22.449	1176.324	925.178
276.526	22.454	1175.566	924.526
277.541	22.444	1175.318	924.198
278.555	22.360	1174.515	923.046
279.570	22.383	1173.931	922.625
280.585	22.418	1173.249	922.189
281.599	22.668	1171.629	922.144
282.614	22.418	1171.380	920.557
283.628	22.534	1169.994	919.991
284.643	22.512	1169.319	919.266
285.657	22.480	1168.350	918.254
286.672	22.516	1167.617	917.784
287.687	22.519	1166.987	917.223
288.701	22.617	1166.113	916.967
289.716	22.602	1165.467	916.300
290.730	22.597	1164.943	915.782
291.745	22.644	1164.352	915.480
292.760	22.620	1163.610	914.688
293.774	22.516	1163.709	914.148
294.789	22.620	1162.610	913.740
295.803	22.688	1162.263	913.740
296.818	22.594	1161.420	912.508
297.833	22.730	1160.512	912.419
298.847	22.674	1159.888	911.562
299.862	22.768	1159.013	911.278
300.876	22.641	1158.526	910.156
301.891	22.759	1158.013	910.282
302.906	22.785	1157.368	909.826
303.920	22.778	1156.850	909.303
304.935	22.692	1156.314	908.358
305.949	22.851	1155.457	908.426
306.964	22.698	1155.207	907.361
307.979	22.750	1153.851	906.484
308.993	22.771	1153.298	906.075
310.008	22.779	1152.725	905.587
311.022	22.738	1151.932	904.674
312.037	22.869	1151.067	904.585
313.052	22.686	1150.608	903.207
314.066	22.658	1150.159	902.631
315.081	22.866	1148.452	902.277
316.095	22.818	1148.324	901.850
317.110	22.734	1148.043	901.122
318.125	22.853	1147.219	901.001
319.139	22.852	1146.344	900.227
320.154	22.960	1145.777	900.254
321.168	22.805	1145.391	899.082
322.183	22.863	1144.635	898.706
323.197	22.893	1143.911	898.207
324.212	22.877	1143.634	897.830
325.227	22.859	1143.481	897.539
326.241	23.001	1142.367	897.308
327.256	22.909	1141.600	896.159
328.270	22.915	1140.679	895.385
329.285	22.868	1140.213	894.702
330.300	22.937	1139.278	894.241
331.314	22.930	1138.582	893.580
332.329	23.001	1137.248	892.812
333.343	23.041	1136.533	892.372
334.358	23.104	1135.819	892.048
335.373	22.981	1135.530	891.124
336.387	23.022	1134.635	890.548
337.402	23.036	1134.036	890.073
338.416	23.073	1133.434	889.708
339.431	23.015	1132.898	888.915
340.446	23.099	1132.100	888.632
341.460	23.208	1131.613	888.720
342.475	23.022	1130.980	887.208
343.489	23.093	1130.007	886.724
344.504	23.083	1129.081	885.867
345.519	23.200	1128.164	885.658
346.533	23.139	1127.720	884.925
347.548	23.230	1127.026	884.755
348.562	23.181	1126.330	883.888
349.577	23.092	1125.795	882.945
350.592	23.114	1124.790	882.187
351.606	23.040	1124.018	881.138
352.621	23.258	1123.435	881.687
353.635	23.196	1122.672	880.702
354.650	23.259	1122.436	880.749
355.665	23.320	1121.387	880.155
356.679	23.353	1120.946	879.891
357.694	23.323	1120.475	879.294
358.708	23.242	1119.919	878.381
359.723	23.226	1119.194	877.653
360.738	23.243	1118.381	877.024
361.752	23.368	1117.720	877.046
362.767	23.320	1117.431	876.506
363.781	23.345	1116.926	876.157
364.796	23.377	1116.335	875.769
365.810	23.403	1115.597	875.242
366.825	23.320	1115.096	874.364
367.840	23.363	1114.774	874.245
368.854	23.552	1113.539	874.129
369.869	23.402	1112.752	872.699
370.883	23.429	1112.454	872.518
371.898	23.560	1111.385	872.250
372.913	23.517	1110.822	871.520
373.927	23.449	1110.294	870.695
374.942	23.460	1110.363	870.723
375.956	23.600	1109.117	870.356
376.971	23.431	1108.815	869.212
377.986	23.423	1108.875	869.146
379.000	23.645	1107.693	869.228
380.015	23.622	1107.319	868.744
381.029	23.505	1106.670	867.589
382.044	23.591	1106.024	867.425
383.059	23.603	1105.266	866.811
384.073	23.650	1104.564	866.416
385.088	23.604	1103.875	865.570
386.102	23.620	1102.985	864.873
387.117	23.626	1102.103	864.136
388.132	23.580	1101.535	863.391
389.146	23.627	1100.673	862.869
390.161	23.601	1099.973	862.118
391.175	23.584	1099.632	861.692
392.190	23.689	1099.038	861.656
393.205	23.656	1098.099	860.686
394.219	23.615	1097.314	859.794
395.234	23.741	1096.381	859.600
396.248	23.666	1095.634	858.572
397.263	23.791	1094.687	858.360
398.278	23.748	1094.314	857.785
399.292	23.734	1093.754	857.200
400.307	23.704	1093.287	856.615
401.321	23.718	1092.841	856.256
402.336	23.717	1091.733	855.307
403.350	23.716	1090.892	854.570
404.365	23.722	1090.352	854.098
405.380	23.846	1089.605	854.032
406.394	23.844	1089.068	853.527
407.409	23.900	1088.185	853.030
408.423	23.933	1087.474	852.554
409.438	23.971	1086.593	851.972
410.453	23.934	1086.343	851.523
411.467	23.943	1085.452	850.789
412.482	23.963	1084.740	850.253
413.496	23.992	1084.185	849.881
414.511	23.910	1083.752	849.073
415.526	23.896	1082.878	848.249
416.540	23.973	1082.268	848.062
417.555	23.923	1082.291	847.765
418.569	23.902	1081.675	847.108
419.584	23.915	1081.387	846.869
420.599	24.103	1080.314	846.851
421.613	148.900	1400.354	1798.164
422.628	137.516	1446.944	1798.252
