DTS Sentinel unit serial number:	SN413079Multiplexer serial number:	ORYXHardware model number:	OX4-SRSoftware version number:	ORYX F/W v4.00 Oryx Data Collector v3.7.2.0data status	okinstallation	princeton_trtdifferential loss correction	single-endedforward channel	channel 2reverse channel	N/Adate	2019/09/12time	06:29:10forward acquisition time	60.00reverse acquisition time	0.00gamma	496.2192k internal	0.2324k external	0.2324temperature offset calibration	1.0064default loss term (dB/km)	0.3790temperature slope calibration	1.0000multiplexer offset coefficient	1.0000multiplexer slope coefficient	1.0000fibre end	0.00T internal ref (°C)	32.14T ext. ref 1 (°C)	1.58T ext. ref 2 (°C)	27.34length (m)	temperature (°C)	Stokes	anti-Stokes-747.200	-93.951	-0.156	0.043
-746.185	248.767	-0.054	0.093
-745.171	-200.000	0.000	0.020
-744.156	800.000	-0.043	0.160
-743.142	-151.430	0.280	-0.021
-742.127	-72.457	-0.097	-0.036
-741.112	-200.000	0.028	0.141
-740.098	-200.000	-0.037	0.388
-739.083	-20.023	-0.130	-0.081
-738.069	-200.000	-0.039	-0.186
-737.054	-16.865	0.022	0.014
-736.039	-22.730	-0.358	-0.218
-735.025	-92.031	0.147	-0.042
-734.010	-92.063	-0.211	-0.060
-732.996	-200.000	-0.021	-0.297
-731.981	-167.312	-0.110	-0.004
-730.966	87.041	-0.261	0.291
-729.952	-61.482	-0.080	0.034
-728.937	-14.207	-0.178	-0.115
-727.923	-200.000	0.047	-0.252
-726.908	-54.864	-0.307	-0.140
-725.894	557.765	-0.138	-0.335
-724.879	-113.380	-0.064	-0.013
-723.864	800.000	-0.076	0.289
-722.850	-164.725	0.425	0.019
-721.835	800.000	0.138	0.425
-720.821	295.801	0.093	-0.172
-719.806	-200.000	-0.037	0.186
-718.791	-96.555	-0.283	0.075
-717.777	191.724	0.143	-0.218
-716.762	800.000	-0.081	0.323
-715.748	800.000	-0.071	-0.247
-714.733	-59.416	-0.155	-0.067
-713.718	-65.624	-0.037	0.015
-712.704	-54.807	0.379	-0.173
-711.689	-120.240	0.350	0.060
-710.675	-67.287	-0.082	0.032
-709.660	25.570	-0.173	0.145
-708.645	-20.140	0.145	-0.090
-707.631	562.242	0.202	0.493
-706.616	65.440	-0.093	-0.094
-705.602	-83.833	0.089	0.029
-704.587	-135.175	0.088	-0.011
-703.572	800.000	-0.094	-0.290
-702.558	-81.979	-0.175	-0.058
-701.543	152.802	0.115	0.158
-700.529	-20.209	0.051	-0.032
-699.514	-200.000	0.013	-0.162
-698.499	-93.552	-0.230	0.064
-697.485	-79.083	-0.132	0.045
-696.470	196.507	-0.306	0.469
-695.456	-200.000	-0.009	0.059
-694.441	124.034	-0.284	-0.360
-693.426	-69.820	-0.051	-0.020
-692.412	-165.880	0.282	0.012
-691.397	113.274	-0.238	-0.291
-690.383	-96.506	0.282	-0.075
-689.368	49.271	-0.050	-0.047
-688.354	784.069	0.103	-0.284
-687.339	-76.851	-0.315	-0.111
-686.324	246.996	0.311	0.529
-685.310	-133.198	-0.205	0.026
-684.295	-108.167	-0.049	0.011
-683.281	800.000	0.037	-0.134
-682.266	-141.826	-0.254	-0.026
-681.251	800.000	-0.080	-0.248
-680.237	144.737	0.144	0.193
-679.222	-200.000	0.030	0.156
-678.208	800.000	0.089	-0.306
-677.193	-200.000	-0.027	-0.141
-676.178	-200.000	-0.046	0.224
-675.164	247.409	0.081	0.137
-674.149	-56.620	-0.310	0.138
-673.135	138.726	0.040	-0.053
-672.120	-15.650	0.117	-0.075
-671.105	63.526	0.244	0.247
-670.091	-41.227	0.131	0.068
-669.076	-50.899	0.404	-0.191
-668.062	344.593	-0.153	-0.302
-667.047	800.000	-0.097	-0.355
-666.032	-200.000	0.050	-0.346
-665.018	741.527	0.064	-0.173
-664.003	-35.904	0.210	-0.114
-662.989	-200.000	-0.001	0.206
-661.974	-70.422	-0.282	-0.108
-660.959	-106.102	0.405	0.091
-659.945	498.378	0.211	-0.489
-658.930	72.681	-0.175	0.183
-657.916	59.967	-0.326	-0.324
-656.901	-127.633	0.496	-0.072
-655.886	-66.609	0.164	0.066
-654.872	227.796	0.051	-0.084
-653.857	776.618	-0.138	0.380
-652.843	7.742	-0.200	0.151
-651.828	413.763	-0.118	0.253
-650.814	-200.000	0.046	0.207
-649.799	-156.067	-0.428	-0.027
-648.784	537.183	0.087	-0.207
-647.770	800.000	0.031	0.091
-646.755	478.718	0.053	0.120
-645.741	-98.302	-0.250	0.065
-644.726	689.254	0.119	-0.313
-643.711	-200.000	-0.021	-0.427
-642.697	265.381	-0.070	-0.123
-641.682	80.580	0.011	-0.012
-640.668	419.458	-0.039	-0.085
-639.653	150.795	0.139	-0.190
-638.638	-93.921	0.205	0.057
-637.624	-200.000	0.099	-0.457
-636.609	54.112	-0.232	-0.224
-635.595	88.574	0.117	0.131
-634.580	-9.146	-0.088	0.059
-633.565	-200.000	-0.004	-0.133
-632.551	-69.955	-0.109	0.042
-631.536	-11.657	0.177	-0.117
-630.522	-120.366	-0.235	0.040
-629.507	102.764	0.058	0.068
-628.492	11.395	0.218	-0.167
-627.478	124.766	0.201	-0.255
-626.463	-200.000	0.036	-0.287
-625.449	-200.000	0.011	-0.222
-624.434	-81.090	-0.099	0.033
-623.419	-200.000	0.048	0.450
-622.405	-183.462	-0.125	0.002
-621.390	112.842	0.112	-0.136
-620.376	-1.637	-0.160	-0.113
-619.361	746.559	0.100	0.271
-618.346	433.430	-0.070	0.153
-617.332	296.566	-0.138	-0.254
-616.317	-32.860	0.182	-0.102
-615.303	-37.020	-0.228	-0.123
-614.288	49.022	-0.165	0.156
-613.273	-47.349	0.147	0.072
-612.259	-200.000	0.002	0.203
-611.244	-167.146	-0.312	-0.013
-610.230	-106.103	0.179	-0.040
-609.215	136.154	-0.040	-0.052
-608.201	-70.495	0.198	-0.075
-607.186	-51.717	0.248	0.116
-606.171	800.000	0.020	-0.077
-605.157	177.544	-0.162	0.238
-604.142	251.763	-0.030	-0.051
-603.128	-39.558	0.216	-0.113
-602.113	18.240	0.066	-0.053
-601.098	-200.000	0.009	0.271
-600.084	-200.000	-0.237	0.000
-599.069	-200.000	-0.002	-0.076
-598.055	-24.908	-0.146	-0.087
-597.040	-185.528	0.410	0.006
-596.025	-91.780	-0.179	0.051
-595.011	800.000	0.052	-0.159
-593.996	800.000	0.028	0.091
-592.982	-22.185	-0.383	-0.233
-591.967	-200.000	0.044	0.348
-590.952	-88.211	0.285	-0.086
-589.938	163.613	0.149	-0.210
-588.923	-200.000	0.021	0.315
-587.909	34.211	0.236	0.207
-586.894	-101.992	0.092	-0.022
-585.879	-44.741	0.164	0.082
-584.865	800.000	-0.084	-0.348
-583.850	-105.496	-0.213	0.048
-582.836	-127.253	0.074	-0.011
-581.821	-39.169	0.080	0.042
-580.806	36.711	-0.141	0.125
-579.792	36.146	-0.060	0.053
-578.777	-200.000	-0.012	-0.323
-577.763	800.000	0.013	0.053
-576.748	-118.187	0.279	-0.050
-575.733	500.023	-0.036	0.084
-574.719	-200.000	0.019	-0.179
-573.704	-57.477	-0.195	0.086
-572.690	222.189	0.047	0.076
-571.675	-60.633	0.157	0.067
-570.661	-53.909	0.023	-0.010
-569.646	800.000	0.058	0.186
-568.631	-200.000	0.010	0.256
-567.617	19.345	0.218	-0.175
-566.602	-200.000	-0.066	0.295
-565.588	-176.002	0.164	-0.004
-564.573	-103.846	-0.343	-0.080
-563.558	800.000	0.048	0.199
-562.544	435.720	0.107	-0.233
-561.529	-30.003	-0.121	-0.069
-560.515	94.809	-0.119	0.135
-559.500	-114.365	-0.316	-0.061
-558.485	107.775	-0.154	-0.184
-557.471	138.697	-0.169	0.223
-556.456	-162.355	0.349	0.017
-555.442	399.399	-0.061	0.127
-554.427	-59.636	-0.104	-0.045
-553.412	83.420	-0.243	-0.265
-552.398	800.000	-0.159	-0.442
-551.383	-134.688	-0.129	-0.016
-550.369	-94.261	-0.070	0.019
-549.354	-200.000	-0.012	0.233
-548.339	-109.866	0.436	0.092
-547.325	8.512	-0.089	-0.067
-546.310	800.000	0.070	-0.233
-545.296	-74.243	-0.196	0.071
-544.281	-24.495	-0.034	-0.020
-543.266	-200.000	-0.051	0.349
-542.252	704.182	0.064	0.169
-541.237	-18.374	-0.131	0.082
-540.223	18.328	0.174	-0.139
-539.208	-113.043	-0.169	-0.033
-538.193	-80.740	-0.183	-0.061
-537.179	150.538	-0.125	-0.170
-536.164	46.436	0.160	-0.149
-535.150	800.000	-0.127	-0.416
-534.135	-200.000	0.018	0.083
-533.121	-60.684	0.345	0.146
-532.106	-56.697	-0.112	-0.049
-531.091	-104.860	-0.370	-0.085
-530.077	323.537	-0.057	-0.109
-529.062	-200.000	-0.001	0.179
-528.048	-200.000	0.074	0.367
-527.033	-165.392	-0.215	0.009
-526.018	-54.380	-0.220	-0.100
-525.004	72.010	-0.205	-0.213
-523.989	-8.427	-0.062	-0.042
-522.975	491.833	-0.083	0.190
-521.960	-200.000	0.032	0.261
-520.945	800.000	0.056	0.170
-519.931	-49.614	0.057	0.027
-518.916	-200.000	-0.049	-0.299
-517.902	-65.526	-0.459	0.185
-516.887	24.543	-0.072	0.059
-515.872	661.432	-0.028	-0.072
-514.858	218.120	-0.156	-0.250
-513.843	-51.440	-0.180	0.084
-512.829	-111.017	-0.107	-0.022
-511.814	800.000	0.070	0.224
-510.799	-0.921	0.175	-0.124
-509.785	-98.682	-0.221	-0.056
-508.770	-200.000	0.017	-0.137
-507.756	-200.000	0.042	0.320
-506.741	504.269	-0.077	-0.179
-505.726	-118.606	0.105	0.019
-504.712	-112.648	0.202	0.040
-503.697	-200.000	0.017	-0.308
-502.683	-100.422	0.133	0.033
-501.668	-200.000	-0.092	-0.481
-500.653	416.991	-0.166	-0.353
-499.639	-100.766	-0.113	0.028
-498.624	-3.304	0.071	-0.050
-497.610	-125.590	-0.208	0.032
-496.595	31.214	0.112	-0.096
-495.581	5.422	0.139	-0.103
-494.566	-200.000	0.062	0.355
-493.551	-196.284	-0.069	0.000
-492.537	-150.839	-0.179	-0.014
-491.522	-100.815	0.246	-0.061
-490.508	95.406	-0.161	-0.183
-489.493	-200.000	-0.003	0.087
-488.478	-37.562	-0.443	-0.236
-487.464	43.355	0.139	0.127
-486.449	-20.768	0.353	-0.216
-485.435	-161.370	-0.537	0.028
-484.420	143.796	0.091	0.121
-483.405	-53.594	0.095	-0.043
-482.391	26.344	-0.140	-0.117
-481.376	800.000	0.072	0.290
-480.362	-118.410	0.711	-0.126
-479.347	134.880	-0.073	-0.094
-478.332	5.489	-0.144	0.106
-477.318	-121.463	0.250	0.042
-476.303	-200.000	-0.027	-0.192
-475.289	-200.000	-0.025	0.120
-474.274	6.746	-0.122	-0.091
-473.259	-132.928	-0.031	0.004
-472.245	-90.073	-0.211	-0.061
-471.230	786.544	0.066	0.179
-470.216	118.991	-0.114	0.140
-469.201	24.920	-0.066	0.054
-468.186	-200.000	-0.018	0.319
-467.172	260.331	-0.164	-0.283
-466.157	129.481	-0.225	-0.287
-465.143	-29.567	0.007	0.004
-464.128	750.249	-0.078	0.209
-463.113	725.684	0.098	-0.260
-462.099	397.523	0.126	-0.263
-461.084	-200.000	0.031	0.237
-460.070	-53.046	0.266	-0.122
-459.055	-117.427	-0.303	-0.055
-458.040	-200.000	0.003	-0.159
-457.026	-27.728	-0.261	-0.151
-456.011	68.564	0.217	0.223
-454.997	-1.801	-0.175	-0.123
-453.982	-94.191	-0.216	0.059
-452.968	800.000	0.083	-0.320
-451.953	8.287	0.428	-0.321
-450.938	-200.000	-0.012	-0.164
-449.924	-119.219	-0.295	0.051
-448.909	-200.000	-0.080	-0.407
-447.895	26.884	-0.121	0.101
-446.880	-200.000	-0.003	-0.037
-445.865	-26.908	0.066	-0.038
-444.851	800.000	0.066	-0.281
-443.836	544.459	0.089	-0.211
-442.822	-40.131	-0.309	0.161
-441.807	191.608	-0.116	0.174
-440.792	-16.922	-0.038	-0.024
-439.778	116.324	0.236	-0.289
-438.763	-200.000	-0.039	-0.209
-437.749	800.000	0.026	-0.105
-436.734	-112.391	0.155	0.031
-435.719	800.000	0.061	0.193
-434.705	-191.158	-0.054	-0.001
-433.690	-200.000	0.011	0.459
-432.676	-8.691	0.234	-0.157
-431.661	594.816	0.206	-0.507
-430.646	-63.677	-0.376	0.154
-429.632	53.549	-0.255	-0.244
-428.617	92.437	-0.073	0.082
-427.603	800.000	-0.025	-0.095
-426.588	139.641	0.162	-0.212
-425.573	-9.415	0.178	-0.119
-424.559	162.229	-0.077	0.107
-423.544	-45.896	-0.256	0.126
-422.530	-22.956	-0.258	-0.155
-421.515	107.586	-0.062	-0.074
-420.500	-168.537	-0.087	0.003
-419.486	-191.064	-0.062	-0.001
-418.471	-146.711	0.195	0.017
-417.457	411.756	0.130	0.275
-416.442	800.000	-0.056	0.207
-415.428	270.171	-0.133	0.234
-414.413	-97.121	0.060	0.016
-413.398	-160.175	0.260	0.014
-412.384	-34.234	0.132	0.072
-411.369	67.687	-0.120	0.122
-410.355	312.216	0.089	0.167
-409.340	800.000	-0.049	0.175
-408.325	367.488	-0.114	-0.230
-407.311	-154.470	0.432	-0.029
-406.296	291.823	0.126	0.228
-405.282	466.572	0.150	0.334
-404.267	-200.000	0.055	0.421
-403.252	205.454	-0.046	0.071
-402.238	-14.061	-0.150	-0.097
-401.223	96.952	0.124	0.142
-400.209	-200.000	-0.002	-0.073
-399.194	-93.253	0.192	0.053
-398.179	253.741	-0.064	0.109
-397.165	474.301	0.154	-0.345
-396.150	-200.000	-0.032	-0.160
-395.136	800.000	-0.056	0.165
-394.121	-71.336	0.040	-0.015
-393.106	53.685	0.298	-0.285
-392.092	176.731	-0.168	0.244
-391.077	-200.000	-0.060	0.362
-390.063	800.000	-0.098	0.284
-389.048	-188.987	-0.120	0.001
-388.033	800.000	0.146	0.434
-387.019	-72.626	0.421	-0.155
-386.004	-128.105	-0.229	0.033
-384.990	-200.000	-0.045	0.219
-383.975	-200.000	-0.048	-0.304
-382.960	364.934	0.133	-0.266
-381.946	-67.457	-0.279	0.109
-380.931	-99.173	0.172	0.043
-379.917	288.676	0.015	-0.027
-378.902	-77.022	-0.128	0.044
-377.888	353.343	0.157	-0.309
-376.873	-99.014	-0.157	0.040
-375.858	140.270	0.152	0.199
-374.844	800.000	0.057	-0.248
-373.829	655.487	0.058	0.148
-372.815	800.000	-0.046	0.150
-371.800	800.000	-0.025	-0.105
-370.785	-9.221	0.153	-0.102
-369.771	158.571	-0.276	0.381
-368.756	800.000	-0.053	-0.152
-367.742	-200.000	0.010	-0.092
-366.727	-83.189	0.259	-0.083
-365.712	-200.000	-0.031	0.305
-364.698	402.703	-0.026	-0.055
-363.683	-125.126	-0.215	0.033
-362.669	-108.999	0.416	-0.088
-361.654	312.950	-0.044	-0.082
-360.639	20.418	-0.233	-0.187
-359.625	-21.410	-0.126	0.076
-358.610	-157.739	0.089	-0.005
-357.596	-87.899	0.301	0.090
-356.581	243.681	0.051	0.084
-355.566	140.525	0.115	0.152
-354.552	-87.175	0.108	-0.033
-353.537	800.000	-0.192	0.552
-352.523	-111.823	-0.188	0.038
-351.508	43.527	-0.270	0.246
-350.493	-122.647	-0.264	-0.042
-349.479	-200.000	0.078	0.587
-348.464	-200.000	0.044	0.196
-347.450	157.290	-0.049	-0.067
-346.435	-107.919	-0.082	-0.018
-345.420	-200.000	0.012	-0.246
-344.406	-106.546	-0.148	-0.033
-343.391	-200.000	0.084	0.393
-342.377	-73.156	-0.270	-0.099
-341.362	-133.281	-0.349	0.044
-340.348	225.825	0.064	0.103
-339.333	-142.305	-0.226	-0.022
-338.318	-2.336	-0.064	-0.045
-337.304	-3.024	-0.124	0.086
-336.289	-83.368	-0.161	0.051
-335.275	800.000	0.016	0.061
-334.260	-200.000	-0.009	0.050
-333.245	157.004	0.179	0.246
-332.231	121.461	0.014	-0.017
-331.216	800.000	0.108	-0.373
-330.202	567.680	0.091	0.219
-329.187	-190.469	-0.272	-0.003
-328.172	-177.409	-0.180	0.004
-327.158	1.886	0.297	0.213
-326.143	646.795	0.093	0.235
-325.129	52.253	0.117	-0.111
-324.114	800.000	-0.135	0.384
-323.099	-91.853	0.413	-0.116
-322.085	459.904	0.065	-0.144
-321.070	-15.923	0.126	-0.079
-320.056	-100.247	-0.214	0.053
-319.041	158.780	0.052	-0.072
-318.026	-176.153	0.305	0.008
-317.012	114.671	0.343	-0.415
-315.997	18.530	-0.188	0.150
-314.983	-168.889	-0.107	-0.004
-313.968	-121.857	0.406	-0.066
-312.953	38.632	-0.069	-0.061
-311.939	800.000	0.051	-0.153
-310.924	-25.756	-0.221	-0.130
-309.910	800.000	0.045	-0.132
-308.895	-14.795	0.125	-0.080
-307.880	2.064	0.040	-0.028
-306.866	12.674	0.060	-0.046
-305.851	-77.268	0.054	-0.019
-304.837	-65.301	0.268	0.107
-303.822	-64.192	-0.056	0.022
-302.807	-200.000	0.036	-0.226
-301.793	62.791	-0.191	-0.189
-300.778	43.345	0.023	0.021
-299.764	643.761	0.129	0.328
-298.749	70.329	0.068	0.070
-297.735	659.278	-0.127	0.324
-296.720	49.774	-0.155	0.145
-295.705	-200.000	-0.016	-0.148
-294.691	387.195	0.139	0.285
-293.676	121.232	-0.073	-0.091
-292.662	138.474	-0.143	-0.187
-291.647	-34.295	0.079	0.043
-290.632	10.048	0.224	0.169
-289.618	-200.000	0.009	-0.084
-288.603	-59.946	0.155	-0.066
-287.589	73.327	0.156	-0.162
-286.574	446.017	0.105	0.229
-285.559	139.081	-0.211	0.275
-284.545	2.639	0.049	0.035
-283.530	165.384	0.072	0.100
-282.516	-200.000	-0.007	-0.050
-281.501	-200.000	0.114	0.593
-280.486	-43.537	-0.240	0.120
-279.472	-200.000	0.000	-0.179
-278.457	78.877	0.218	0.232
-277.443	3.650	-0.143	0.103
-276.428	11.799	0.122	0.093
-275.413	-200.000	0.013	0.138
-274.399	-108.120	0.289	0.062
-273.384	-200.000	0.020	-0.232
-272.370	-7.690	-0.229	0.154
-271.355	-136.742	0.154	0.018
-270.340	-153.757	-0.386	0.026
-269.326	-126.277	-0.090	-0.013
-268.311	505.859	0.083	-0.191
-267.297	397.167	0.125	0.259
-266.282	-200.000	0.001	-0.148
-265.267	-200.000	0.027	-0.123
-264.253	800.000	0.039	0.120
-263.238	-43.078	-0.352	0.177
-262.224	227.606	0.201	0.323
-261.209	102.245	0.071	-0.082
-260.195	347.443	-0.125	0.244
-259.180	163.329	-0.057	-0.079
-258.165	161.696	0.159	-0.220
-257.151	-200.000	0.001	-0.436
-256.136	-108.219	-0.391	0.084
-255.122	-47.117	0.081	0.039
-254.107	-183.009	0.091	-0.002
-253.092	48.363	-0.175	0.163
-252.078	-200.000	0.043	-0.377
-251.063	-3.299	0.150	0.103
-250.049	-200.000	-0.009	0.274
-249.034	446.418	0.053	0.115
-248.019	800.000	0.051	-0.149
-247.005	53.895	0.133	-0.127
-245.990	-30.991	-0.295	-0.165
-244.976	-83.111	-0.100	0.032
-243.961	1.955	0.308	-0.220
-242.946	-122.625	0.224	0.036
-241.932	-66.460	-0.218	0.086
-240.917	-52.921	0.093	-0.042
-239.903	-43.689	0.211	0.105
-238.888	743.112	0.088	0.233
-237.873	178.827	-0.100	0.145
-236.859	127.174	-0.207	-0.260
-235.844	-200.000	0.012	-0.118
-234.830	128.887	0.133	0.168
-233.815	-200.000	0.004	0.050
-232.800	499.196	0.069	-0.157
-231.786	-117.624	-0.047	-0.008
-230.771	45.711	0.093	-0.085
-229.757	-200.000	0.000	0.205
-228.742	-200.000	0.007	-0.060
-227.727	-200.000	-0.033	-0.284
-226.713	-49.423	-0.109	-0.051
-225.698	-200.000	-0.002	-0.076
-224.684	-114.646	0.341	0.065
-223.669	-185.212	-0.205	0.003
-222.655	-200.000	0.035	-0.158
-221.640	306.833	-0.085	-0.157
-220.625	-113.145	0.333	-0.065
-219.611	800.000	0.039	-0.135
-218.596	-4.038	0.140	0.096
-217.582	-40.513	0.359	0.185
-216.567	-149.417	-0.297	-0.023
-215.552	-200.000	-0.080	0.361
-214.538	-3.878	-0.028	0.019
-213.523	800.000	0.074	0.233
-212.509	110.424	-0.223	-0.265
-211.494	-56.115	0.213	0.094
-210.479	397.080	0.086	-0.178
-209.465	-35.480	0.279	0.150
-208.450	143.812	-0.169	0.223
-207.436	-1.091	0.159	0.111
-206.421	800.000	-0.102	-0.340
-205.406	-123.653	0.271	0.042
-204.392	-200.000	0.005	0.052
-203.377	152.132	-0.120	0.162
-202.363	-200.000	0.036	0.186
-201.348	101.654	-0.055	-0.063
-200.333	-167.919	-0.182	0.007
-199.319	37.021	-0.263	-0.230
-198.304	416.982	-0.110	-0.232
-197.290	-200.000	-0.043	-0.426
-196.275	258.302	-0.038	-0.064
-195.260	36.250	-0.115	-0.100
-194.246	-108.401	0.065	0.014
-193.231	-200.000	0.051	0.260
-192.217	-2.867	-0.285	-0.197
-191.202	-33.004	0.301	0.165
-190.187	20.280	0.270	-0.215
-189.173	-119.862	-0.202	0.034
-188.158	4.473	-0.162	0.117
-187.144	54.071	0.067	0.063
-186.129	23.055	0.159	0.129
-185.114	800.000	0.102	0.398
-184.100	-74.149	0.328	0.117
-183.085	279.395	0.035	-0.062
-182.071	-47.869	0.097	0.046
-181.056	-31.657	0.169	-0.094
-180.042	520.738	-0.149	0.344
-179.027	86.239	0.058	-0.063
-178.012	295.917	-0.028	-0.050
-176.998	-18.853	-0.298	-0.183
-175.983	-55.424	0.371	0.164
-174.969	-200.000	0.011	-0.054
-173.954	-66.739	0.063	0.025
-172.939	62.719	0.195	-0.193
-171.925	-74.075	0.215	-0.077
-170.910	-126.670	0.444	-0.065
-169.896	-200.000	0.040	0.296
-168.881	22.574	0.148	-0.119
-167.866	-44.843	-0.153	-0.075
-166.852	60.821	0.027	-0.027
-165.837	-200.000	0.045	0.249
-164.823	64.451	-0.144	-0.143
-163.808	5.754	-0.110	-0.080
-162.793	56.152	-0.154	-0.148
-161.779	800.000	-0.074	0.224
-160.764	246.841	-0.162	-0.270
-159.750	-123.672	0.275	0.043
-158.735	454.588	0.089	-0.194
-157.720	394.087	-0.040	0.081
-156.706	-57.240	-0.094	0.041
-155.691	-47.047	-0.171	0.082
-154.677	161.391	0.135	0.187
-153.662	-64.925	-0.061	-0.024
-152.647	153.685	0.103	-0.139
-151.633	-111.469	-0.169	-0.034
-150.618	44.644	-0.084	-0.076
-149.604	-12.051	0.079	-0.051
-148.589	-153.834	0.205	0.014
-147.574	-58.149	-0.278	0.120
-146.560	103.675	0.128	-0.148
-145.545	-113.969	0.237	-0.045
-144.531	-92.015	-0.084	-0.023
-143.516	-96.968	-0.457	0.118
-142.502	-200.000	-0.021	-0.111
-141.487	88.574	0.100	-0.109
-140.472	294.330	-0.026	0.048
-139.458	-181.958	0.243	0.005
-138.443	-200.000	-0.082	0.359
-137.429	-200.000	0.000	-0.192
-136.414	44.704	-0.108	0.098
-135.399	-200.000	-0.030	0.211
-134.385	-147.546	0.215	0.018
-133.370	-200.000	0.011	-0.241
-132.356	317.599	-0.023	0.043
-131.341	187.620	-0.168	0.247
-130.326	-147.888	0.370	0.030
-129.312	66.021	0.153	0.153
-128.297	123.529	-0.188	0.232
-127.283	76.274	-0.096	-0.101
-126.268	-200.000	-0.023	-0.207
-125.253	-129.182	-0.229	-0.031
-124.239	581.960	-0.035	-0.085
-123.224	10.601	0.356	-0.267
-122.210	-200.000	-0.034	0.226
-121.195	-188.543	0.178	0.002
-120.180	-39.674	0.279	0.144
-119.166	-56.099	-0.081	0.035
-118.151	800.000	-0.126	-0.455
-117.137	-200.000	-0.036	0.396
-116.122	23.888	0.184	0.150
-115.107	329.760	0.235	0.445
-114.093	14.275	0.143	0.110
-113.078	-18.159	-0.272	-0.168
-112.064	800.000	-0.039	-0.162
-111.049	-200.000	-0.022	0.124
-110.034	301.368	-0.062	0.112
-109.020	4.197	-0.238	0.171
-108.005	299.699	-0.105	0.190
-106.991	-117.996	0.258	0.045
-105.976	-200.000	-0.050	0.424
-104.962	-78.534	-0.357	-0.120
-103.947	140.652	0.161	-0.209
-102.932	800.000	0.028	-0.114
-101.918	800.000	0.049	-0.190
-100.903	-106.413	-0.511	0.112
-99.889	-200.000	-0.040	0.193
-98.874	110.805	0.234	-0.277
-97.859	-16.486	0.187	-0.117
-96.845	36.948	-0.171	-0.149
-95.830	-200.000	-0.037	-0.183
-94.816	-200.000	-0.029	0.455
-93.801	-200.000	-0.025	0.238
-92.786	-200.000	0.079	-0.355
-91.772	-154.852	0.251	0.016
-90.757	4.520	-0.025	-0.018
-89.743	-200.000	0.024	0.215
-88.728	-200.000	-0.025	0.144
-87.713	-153.758	0.257	0.017
-86.699	-96.418	0.109	0.028
-85.684	8.185	-0.055	-0.041
-84.670	-200.000	0.003	-0.077
-83.655	-200.000	0.000	0.022
-82.640	-52.790	-0.151	0.068
-81.626	-200.000	0.001	0.010
-80.611	159.594	0.130	0.178
-79.597	-149.705	-0.481	0.037
-78.582	691.965	-0.085	0.219
-77.567	-200.000	0.080	0.365
-76.553	-62.998	0.343	0.140
-75.538	699.156	0.043	-0.111
-74.524	-137.703	-0.072	0.008
-73.509	-200.000	0.020	-0.196
-72.494	-84.807	0.253	-0.078
-71.480	93.771	0.155	-0.172
-70.465	-200.000	0.031	0.142
-69.451	382.439	-0.090	0.182
-68.436	-160.723	0.164	0.009
-67.422	-70.646	0.166	-0.062
-66.407	-2.931	0.305	-0.210
-65.392	100.600	0.102	0.116
-64.378	553.185	0.078	0.185
-63.363	-200.000	0.030	0.147
-62.349	40.303	-0.392	-0.347
-61.334	65.406	-1.052	-1.046
-60.319	115.877	0.432	0.520
-59.305	800.000	-0.229	-0.943
-58.290	454.930	0.460	1.003
-57.276	800.000	0.557	1.512
-56.261	-200.000	95.939	596.162
-55.246	568.934	1372.855	3278.827
-54.232	160.299	2559.064	3506.630
-53.217	106.642	2271.462	2647.610
-52.203	41.611	1897.447	1688.367
-51.188	35.365	1687.100	1453.990
-50.173	32.783	1642.674	1396.559
-49.159	50.305	1689.000	1567.754
-48.144	51.929	1705.565	1595.249
-47.130	35.058	1666.554	1433.750
-46.115	32.299	1651.906	1400.575
-45.100	32.122	1647.378	1395.370
-44.086	32.062	1644.530	1392.455
-43.071	32.064	1641.722	1390.039
-42.057	32.012	1639.367	1387.603
-41.042	32.036	1637.544	1386.185
-40.027	31.996	1635.758	1384.322
-39.013	31.989	1633.839	1382.587
-37.998	31.926	1632.570	1381.000
-36.984	31.958	1631.092	1379.929
-35.969	32.148	1629.431	1379.866
-34.954	32.138	1628.097	1378.605
-33.940	32.157	1625.901	1376.834
-32.925	32.163	1624.144	1375.335
-31.911	32.106	1622.533	1373.500
-30.896	32.085	1620.817	1371.835
-29.881	32.084	1619.179	1370.386
-28.867	32.172	1616.938	1369.082
-27.852	32.141	1615.942	1367.955
-26.838	32.156	1614.433	1366.731
-25.823	32.127	1613.285	1365.495
-24.809	32.199	1611.155	1364.159
-23.794	32.118	1610.562	1363.017
-22.779	32.115	1609.269	1361.848
-21.765	32.144	1607.365	1360.395
-20.750	32.072	1605.939	1358.614
-19.736	32.227	1604.324	1358.310
-18.721	32.241	1602.985	1357.223
-17.706	32.199	1601.552	1355.651
-16.692	32.178	1600.068	1354.190
-15.677	32.311	1597.813	1353.188
-14.663	32.228	1596.863	1351.732
-13.648	32.225	1595.842	1350.790
-12.633	32.189	1594.190	1349.084
-11.619	32.146	1592.810	1347.553
-10.604	32.183	1591.357	1346.535
-9.590	32.134	1590.329	1345.259
-8.575	32.195	1588.549	1344.140
-7.560	32.211	1587.680	1343.467
-6.546	32.199	1586.235	1342.099
-5.531	32.169	1585.441	1341.165
-4.517	32.158	1583.938	1339.759
-3.502	32.171	1582.712	1338.763
-2.487	32.244	1581.095	1337.862
-1.473	31.832	1569.781	1325.326
-0.458	29.246	1550.806	1291.160
0.556	25.749	1551.317	1260.826
1.571	23.590	1574.921	1264.527
2.586	23.090	1588.094	1271.403
3.600	20.226	1534.156	1208.194
4.615	10.875	1422.526	1059.507
5.629	2.947	1357.960	961.846
6.644	1.657	1350.065	948.135
7.659	1.581	1348.419	946.419
8.673	1.614	1347.166	945.661
9.688	1.459	1345.383	943.365
10.702	1.231	1342.171	939.621
11.717	4.696	1348.931	965.804
12.731	14.754	1367.279	1041.876
13.746	23.346	1383.009	1107.738
14.761	25.906	1386.005	1126.056
15.775	26.358	1385.598	1128.445
16.790	26.293	1385.780	1128.092
17.804	26.429	1384.581	1127.861
18.819	26.630	1384.595	1129.027
19.834	26.729	1384.080	1129.121
20.848	26.740	1383.492	1128.612
21.863	26.759	1382.898	1128.149
22.877	26.819	1381.856	1127.572
23.892	26.736	1380.720	1126.030
24.907	26.821	1379.933	1125.816
25.921	26.753	1379.141	1124.645
26.936	26.854	1377.644	1123.954
27.950	26.733	1377.205	1122.745
28.965	26.739	1376.109	1121.790
29.980	26.718	1374.907	1120.580
30.994	26.697	1373.632	1119.310
32.009	26.744	1372.390	1118.488
33.023	26.721	1371.238	1117.310
34.038	26.706	1370.285	1116.345
35.053	26.670	1369.310	1115.230
36.067	26.695	1368.609	1114.713
37.082	26.799	1367.383	1114.254
38.096	26.795	1366.304	1113.253
39.111	26.738	1365.814	1112.406
40.126	26.803	1365.050	1112.085
41.140	26.818	1364.283	1111.451
42.155	26.698	1364.475	1110.774
43.169	26.695	1364.538	1110.710
44.184	26.753	1363.493	1110.116
45.199	26.664	1363.825	1109.745
46.213	26.612	1363.604	1109.143
47.228	26.763	1362.083	1108.733
48.242	26.660	1360.801	1106.963
49.257	26.660	1359.483	1105.791
50.271	26.785	1357.966	1105.220
51.286	26.736	1356.637	1103.747
52.301	26.745	1355.766	1102.992
53.315	26.755	1354.441	1101.880
54.330	26.798	1353.584	1101.345
55.344	26.796	1352.259	1100.159
56.359	26.701	1351.365	1098.758
57.374	26.688	1351.162	1098.415
58.388	26.691	1350.515	1097.812
59.403	26.786	1349.853	1097.753
60.417	26.637	1349.606	1096.554
61.432	26.712	1348.121	1095.699
62.447	26.783	1347.578	1095.593
63.461	26.779	1346.511	1094.606
64.476	26.765	1345.769	1093.819
65.490	26.735	1344.376	1092.409
66.505	26.788	1342.987	1091.501
67.520	26.798	1341.685	1090.406
68.534	26.819	1340.557	1089.521
69.549	26.728	1340.045	1088.465
70.563	26.827	1338.633	1087.815
71.578	26.761	1337.774	1086.625
72.593	26.766	1336.821	1085.780
73.607	26.730	1336.893	1085.531
74.622	26.664	1336.202	1084.479
75.636	26.864	1334.612	1084.285
76.651	26.713	1334.577	1083.257
77.666	26.820	1333.729	1083.114
78.680	26.858	1333.249	1082.855
79.695	26.606	1332.975	1081.034
80.709	26.776	1331.741	1080.948
81.724	26.705	1330.991	1079.822
82.739	26.769	1329.917	1079.235
83.753	26.753	1329.167	1078.439
84.768	26.795	1327.976	1077.628
85.782	26.816	1326.884	1076.769
86.797	26.800	1325.772	1075.675
87.812	26.855	1324.570	1074.930
88.826	26.803	1323.908	1073.992
89.841	26.820	1322.640	1072.969
90.855	26.841	1321.975	1072.456
91.870	26.786	1320.744	1071.038
92.884	26.747	1320.085	1070.183
93.899	26.803	1319.119	1069.634
94.914	26.800	1318.640	1069.133
95.928	26.886	1317.294	1068.451
96.943	26.763	1317.090	1067.469
97.957	26.799	1316.256	1066.911
98.972	26.801	1315.437	1066.163
99.987	26.732	1314.848	1065.185
101.001	26.798	1313.347	1064.261
102.016	26.794	1312.607	1063.549
103.030	26.694	1311.852	1062.255
104.045	26.747	1310.943	1061.734
105.060	26.796	1310.614	1061.661
106.074	26.938	1309.011	1061.100
107.089	26.971	1307.791	1060.206
108.103	26.906	1307.053	1059.135
109.118	26.858	1306.190	1058.064
110.133	26.992	1304.558	1057.429
111.147	26.896	1303.702	1056.084
112.162	26.959	1302.455	1055.347
113.176	26.938	1302.262	1054.972
114.191	26.845	1301.243	1053.514
115.206	26.895	1300.510	1053.118
116.220	26.912	1298.921	1051.838
117.235	26.898	1297.846	1050.793
118.249	26.827	1297.284	1049.834
119.264	26.870	1296.735	1049.544
120.279	26.889	1295.768	1048.777
121.293	26.805	1295.064	1047.633
122.308	27.031	1294.139	1048.092
123.322	26.931	1293.639	1047.022
124.337	26.951	1292.205	1045.885
125.352	26.964	1291.354	1045.176
126.366	26.998	1290.607	1044.675
127.381	26.931	1289.929	1043.647
128.395	26.929	1288.932	1042.736
129.410	26.914	1288.214	1041.980
130.424	26.843	1287.860	1041.193
131.439	27.017	1286.278	1040.819
132.454	26.961	1286.007	1040.187
133.468	26.807	1285.546	1038.838
134.483	26.978	1284.608	1038.966
135.497	26.785	1283.938	1037.230
136.512	26.912	1282.936	1037.052
137.527	26.886	1281.872	1035.953
138.541	26.924	1280.267	1034.783
139.556	26.856	1279.537	1033.713
140.570	26.848	1278.831	1033.004
141.585	27.001	1277.089	1032.377
142.600	26.998	1276.041	1031.421
143.614	26.935	1275.651	1030.660
144.629	26.960	1274.291	1029.612
145.643	26.776	1273.558	1027.884
146.658	26.794	1272.605	1027.123
147.673	26.791	1272.019	1026.545
148.687	26.798	1270.851	1025.549
149.702	26.813	1269.638	1024.565
150.716	26.802	1268.163	1023.224
151.731	26.865	1267.370	1022.848
152.746	26.964	1266.072	1022.264
153.760	26.920	1265.441	1021.419
154.775	26.954	1264.443	1020.716
155.789	26.885	1263.799	1019.715
156.804	26.976	1262.658	1019.214
157.819	27.021	1261.851	1018.726
158.833	26.904	1261.364	1017.588
159.848	26.940	1260.137	1016.708
160.862	26.988	1259.758	1016.583
161.877	27.048	1258.621	1015.912
162.892	26.961	1258.132	1014.941
163.906	27.035	1257.647	1014.874
164.921	26.924	1256.661	1013.368
165.935	27.025	1256.239	1013.501
166.950	27.024	1255.554	1012.852
167.964	26.934	1254.877	1011.714
168.979	27.084	1254.336	1012.025
169.994	27.083	1253.663	1011.385
171.008	27.096	1252.737	1010.621
172.023	27.041	1252.179	1009.777
173.037	27.182	1251.224	1009.702
174.052	27.047	1250.816	1008.536
175.067	27.107	1249.758	1007.926
176.081	27.023	1249.089	1006.830
177.096	26.965	1248.429	1005.885
178.110	27.119	1247.229	1005.683
179.125	27.037	1246.689	1004.705
180.140	27.117	1245.677	1004.244
181.154	27.154	1244.085	1003.073
182.169	27.017	1243.509	1001.769
183.183	27.098	1242.056	1000.953
184.198	27.250	1241.102	1000.934
185.213	27.254	1240.176	1000.120
186.227	27.206	1239.520	999.239
187.242	27.065	1239.073	998.016
188.256	27.194	1237.486	997.357
189.271	27.069	1237.335	996.461
190.286	27.129	1236.621	996.126
191.300	27.172	1235.836	995.641
192.315	27.037	1235.630	994.649
193.329	27.090	1234.982	994.328
194.344	27.178	1234.878	994.638
195.359	27.195	1234.182	994.081
196.373	27.086	1233.204	992.609
197.388	27.056	1233.430	992.539
198.402	27.082	1232.799	992.087
199.417	27.123	1232.484	991.969
200.432	27.182	1231.953	991.774
201.446	27.097	1231.162	990.591
202.461	27.135	1230.508	990.182
203.475	27.164	1229.360	989.327
204.490	27.163	1228.726	988.725
205.504	27.211	1227.711	988.079
206.519	27.246	1226.694	987.366
207.534	27.181	1225.901	986.287
208.548	27.244	1224.879	985.717
209.563	27.208	1224.415	985.063
210.577	27.255	1223.411	984.421
211.592	27.296	1222.122	983.522
212.607	27.373	1221.569	983.405
213.621	27.308	1221.002	982.511
214.636	27.323	1220.167	981.831
215.650	27.181	1219.715	980.616
216.665	27.239	1218.520	979.880
217.680	27.294	1217.344	979.146
218.694	27.233	1216.851	978.334
219.709	27.300	1215.945	977.879
220.723	27.309	1215.724	977.660
221.738	27.198	1215.345	976.675
222.753	27.290	1213.718	975.775
223.767	27.209	1213.843	975.354
224.782	27.315	1213.191	975.311
225.796	27.397	1212.330	974.975
226.811	27.436	1211.371	974.325
227.826	27.336	1211.287	973.637
228.840	27.307	1210.953	973.124
229.855	27.276	1209.902	972.030
230.869	27.465	1209.149	972.349
231.884	27.432	1208.569	971.620
232.899	27.428	1207.684	970.799
233.913	27.479	1207.240	970.627
234.928	27.420	1206.878	969.939
235.942	27.470	1206.342	969.689
236.957	27.491	1205.642	969.153
237.972	27.443	1204.654	968.014
238.986	27.378	1204.259	967.270
240.001	27.453	1203.418	966.902
241.015	27.508	1203.074	966.833
242.030	27.500	1202.123	965.944
243.045	27.516	1201.275	965.260
244.059	27.670	1200.114	965.054
245.074	27.521	1200.046	964.127
246.088	27.491	1199.126	963.145
247.103	27.515	1198.074	962.343
248.117	27.571	1197.310	961.940
249.132	27.662	1196.420	961.620
250.147	27.610	1195.935	960.869
251.161	27.628	1195.500	960.530
252.176	27.652	1194.373	959.667
253.190	27.608	1194.307	959.297
254.205	27.656	1193.571	958.870
255.220	27.656	1192.917	958.262
256.234	27.621	1192.201	957.419
257.249	27.558	1191.711	956.610
258.263	27.630	1191.039	956.363
259.278	27.691	1190.483	956.150
260.293	27.647	1190.003	955.450
261.307	27.658	1189.484	955.010
262.322	27.729	1188.934	954.854
263.336	27.660	1188.112	953.745
264.351	27.735	1187.529	953.586
265.366	27.726	1186.745	952.824
266.380	27.748	1186.196	952.415
267.395	27.759	1185.639	951.943
268.409	27.569	1185.220	950.527
269.424	27.644	1184.364	950.151
270.439	27.731	1183.667	949.962
271.453	27.726	1183.410	949.646
272.468	27.692	1182.638	948.763
273.482	27.670	1181.899	947.972
274.497	27.707	1181.516	947.775
275.512	27.726	1181.094	947.449
276.526	27.737	1179.995	946.539
277.541	27.829	1179.000	946.137
278.555	27.897	1178.936	946.352
279.570	27.908	1177.787	945.402
280.585	27.864	1177.008	944.466
281.599	27.636	1176.621	942.895
282.614	27.856	1175.732	943.237
283.628	27.905	1174.553	942.460
284.643	27.803	1173.854	941.288
285.657	27.896	1173.241	941.195
286.672	27.921	1172.312	940.494
287.687	27.796	1171.319	938.970
288.701	27.929	1170.745	939.111
289.716	27.986	1170.203	938.888
290.730	27.866	1169.586	937.690
291.745	27.907	1168.847	937.228
292.760	27.978	1168.348	937.106
293.774	27.997	1167.819	936.700
294.789	27.906	1167.289	935.722
295.803	27.949	1166.835	935.499
296.818	28.056	1165.967	935.265
297.833	27.932	1165.409	934.102
298.847	28.039	1164.704	934.001
299.862	27.956	1164.085	932.999
300.876	27.900	1163.620	932.256
301.891	28.075	1162.733	932.353
302.906	28.103	1161.855	931.710
303.920	28.105	1161.523	931.373
304.935	27.989	1160.872	930.180
305.949	27.969	1160.584	929.765
306.964	28.009	1159.995	929.412
307.979	28.256	1158.683	929.534
308.993	28.131	1158.240	928.463
310.008	28.135	1157.452	927.768
311.022	28.122	1156.796	927.094
312.037	28.080	1156.283	926.388
313.052	28.038	1155.447	925.424
314.066	28.081	1154.749	925.003
315.081	28.034	1154.058	924.126
316.095	28.125	1153.132	923.763
317.110	28.259	1152.481	923.837
318.125	28.151	1152.233	923.009
319.139	28.144	1151.139	922.020
320.154	28.185	1150.578	921.694
321.168	28.182	1150.276	921.357
322.183	28.163	1149.584	920.623
323.197	28.234	1149.025	920.452
324.212	28.178	1148.376	919.569
325.227	28.180	1147.714	918.967
326.241	28.237	1147.524	919.020
327.256	28.192	1147.144	918.411
328.270	28.242	1145.824	917.524
329.285	28.229	1145.468	917.088
330.300	28.223	1144.836	916.473
331.314	28.251	1143.331	915.329
332.329	28.388	1142.574	915.325
333.343	28.379	1142.164	914.869
334.358	28.332	1141.135	913.732
335.373	28.343	1140.971	913.574
336.387	28.333	1140.527	913.087
337.402	28.479	1139.440	912.864
338.416	28.453	1138.846	912.175
339.431	28.346	1138.247	911.083
340.446	28.446	1137.411	910.830
341.460	28.608	1136.851	911.107
342.475	28.416	1136.117	909.483
343.489	28.501	1134.978	908.915
344.504	28.495	1134.316	908.275
345.519	28.464	1133.489	907.380
346.533	28.613	1132.620	907.341
347.548	28.475	1132.125	906.182
348.562	28.562	1131.148	905.749
349.577	28.470	1130.665	904.827
350.592	28.497	1129.820	904.202
351.606	28.375	1129.630	903.371
352.621	28.699	1128.363	903.872
353.635	28.556	1128.265	903.010
354.650	28.457	1127.404	901.753
355.665	28.586	1127.103	902.068
356.679	28.651	1126.275	901.645
357.694	28.603	1126.096	901.182
358.708	28.478	1125.401	899.936
359.723	28.584	1124.239	899.446
360.738	28.549	1123.850	898.885
361.752	28.561	1123.420	898.517
362.767	28.628	1122.769	898.246
363.781	28.654	1122.193	897.833
364.796	28.756	1121.469	897.674
365.810	28.705	1120.749	896.771
366.825	28.760	1120.042	896.394
367.840	28.799	1119.735	896.260
368.854	28.931	1118.888	896.143
369.869	28.809	1118.445	895.117
370.883	28.839	1117.664	894.559
371.898	28.838	1117.360	894.230
372.913	28.774	1116.720	893.328
373.927	28.840	1116.249	893.190
374.942	28.918	1115.664	893.023
375.956	28.750	1115.246	891.793
376.971	28.876	1114.669	891.863
377.986	28.926	1113.756	891.300
379.000	28.921	1113.423	890.929
380.015	28.952	1113.043	890.694
381.029	28.997	1111.825	889.860
382.044	28.963	1111.719	889.533
383.059	28.992	1111.175	889.159
384.073	29.061	1109.690	888.226
385.088	28.949	1109.446	887.409
386.102	28.983	1108.684	886.885
387.117	28.987	1107.544	885.914
388.132	28.875	1106.997	884.860
389.146	28.864	1106.719	884.506
390.161	28.990	1105.728	884.241
391.175	29.003	1105.262	883.853
392.190	29.083	1104.359	883.436
393.205	28.970	1103.665	882.264
394.219	29.090	1102.863	882.119
395.234	29.047	1102.495	881.538
396.248	28.994	1101.764	880.625
397.263	29.176	1100.182	880.151
398.278	29.213	1100.168	880.240
399.292	29.157	1099.661	879.487
400.307	29.188	1098.965	879.000
401.321	29.088	1098.323	877.931
402.336	28.994	1097.910	877.077
403.350	29.176	1096.993	877.135
404.365	29.128	1096.407	876.357
405.380	29.244	1095.698	876.268
406.394	29.151	1095.117	875.284
407.409	29.294	1094.224	875.168
408.423	29.356	1093.401	874.727
409.438	29.274	1093.010	873.949
410.453	29.288	1092.594	873.606
411.467	29.411	1091.115	872.929
412.482	29.224	1091.186	872.020
413.496	29.381	1090.047	871.775
414.511	29.305	1089.432	870.848
415.526	29.362	1089.142	870.807
416.540	29.384	1088.657	870.450
417.555	29.347	1088.347	869.948
418.569	29.277	1088.233	869.449
419.584	29.436	1087.562	869.588
420.599	29.374	1087.099	868.848
421.613	103.318	1322.487	1458.629
422.628	96.195	1356.758	1458.739
