DTS Sentinel unit serial number:	SN413079Multiplexer serial number:	ORYXHardware model number:	OX4-SRSoftware version number:	ORYX F/W v4.00 Oryx Data Collector v3.7.2.0data status	okinstallation	princeton_trtdifferential loss correction	single-endedforward channel	channel 2reverse channel	N/Adate	2019/09/12time	01:05:11forward acquisition time	60.00reverse acquisition time	0.00gamma	496.2192k internal	0.2326k external	0.2326temperature offset calibration	1.0092default loss term (dB/km)	0.3790temperature slope calibration	1.0000multiplexer offset coefficient	1.0000multiplexer slope coefficient	1.0000fibre end	0.00T internal ref (°C)	33.12T ext. ref 1 (°C)	2.09T ext. ref 2 (°C)	27.16length (m)	temperature (°C)	Stokes	anti-Stokes-747.200	-200.000	0.037	0.452
-746.185	584.362	0.119	0.296
-745.171	-19.313	-0.095	-0.059
-744.156	7.835	0.302	0.228
-743.142	243.503	-0.043	0.073
-742.127	92.436	0.385	0.438
-741.112	-200.000	0.056	0.259
-740.098	800.000	-0.101	0.313
-739.083	-21.230	0.390	0.240
-738.069	-200.000	0.011	0.254
-737.054	800.000	-0.023	0.095
-736.039	-90.982	-0.174	-0.050
-735.025	-28.990	-0.081	0.047
-734.010	-112.453	-0.283	-0.057
-732.996	439.764	-0.152	-0.336
-731.981	-131.363	-0.167	-0.022
-730.966	96.613	0.210	0.242
-729.952	108.610	-0.231	-0.278
-728.937	91.240	-0.118	-0.133
-727.923	800.000	-0.005	0.015
-726.908	500.663	0.068	-0.158
-725.894	-121.625	0.108	0.018
-724.879	173.428	0.017	0.025
-723.864	15.013	0.106	-0.084
-722.850	503.168	-0.068	-0.159
-721.835	-128.262	-0.117	0.017
-720.821	400.943	-0.050	-0.107
-719.806	-5.370	-0.178	-0.123
-718.791	-200.000	0.024	0.186
-717.777	11.892	0.108	0.084
-716.762	114.005	-0.181	-0.221
-715.748	-142.385	0.537	-0.053
-714.733	-78.509	-0.338	-0.117
-713.718	-77.844	-0.456	0.159
-712.704	800.000	-0.163	-0.498
-711.689	800.000	0.067	0.233
-710.675	2.066	-0.124	0.090
-709.660	676.794	0.064	0.168
-708.645	-200.000	0.007	-0.149
-707.631	-87.119	0.286	-0.088
-706.616	-132.728	0.113	0.015
-705.602	-14.712	-0.154	0.100
-704.587	2.480	0.063	0.046
-703.572	-89.743	0.104	-0.031
-702.558	416.763	0.115	0.247
-701.543	22.258	0.239	-0.196
-700.529	43.372	-0.275	0.253
-699.514	-89.424	-0.225	0.067
-698.499	-138.041	0.395	0.044
-697.485	-45.493	0.136	-0.068
-696.470	108.562	-0.053	-0.064
-695.456	-116.609	0.234	-0.043
-694.441	-51.135	-0.089	-0.042
-693.426	397.104	0.057	0.120
-692.412	-61.978	0.097	-0.041
-691.397	-57.210	-0.162	-0.072
-690.383	-2.632	0.096	0.067
-689.368	20.359	0.028	0.023
-688.354	265.407	-0.122	-0.215
-687.339	-54.178	-0.094	0.043
-686.324	-57.665	-0.228	0.101
-685.310	800.000	-0.090	-0.277
-684.295	-102.616	-0.438	-0.105
-683.281	222.468	-0.060	-0.097
-682.266	157.402	-0.101	-0.141
-681.251	225.377	-0.144	-0.235
-680.237	14.513	0.194	-0.152
-679.222	360.587	0.067	-0.134
-678.208	14.173	-0.149	-0.117
-677.193	0.520	0.301	0.216
-676.178	-200.000	-0.005	0.036
-675.164	800.000	-0.010	-0.036
-674.149	148.301	0.205	-0.278
-673.135	-200.000	0.044	-0.221
-672.120	800.000	-0.028	0.099
-671.105	-101.347	-0.204	-0.050
-670.091	-200.000	-0.024	0.359
-669.076	800.000	0.017	0.058
-668.062	-200.000	0.069	-0.344
-667.047	201.715	-0.102	-0.158
-666.032	-101.801	0.170	0.041
-665.018	-200.000	0.011	-0.137
-664.003	236.397	-0.091	-0.152
-662.989	13.337	0.220	-0.172
-661.974	33.506	0.144	-0.126
-660.959	-74.532	-0.250	-0.091
-659.945	-28.005	-0.136	-0.079
-658.930	-200.000	0.015	0.117
-657.916	159.212	-0.107	-0.150
-656.901	96.095	-0.045	0.052
-655.886	-200.000	0.034	-0.153
-654.872	146.315	0.075	0.101
-653.857	800.000	0.087	-0.284
-652.843	-200.000	-0.092	0.483
-651.828	-104.880	-0.138	0.032
-650.814	800.000	-0.019	0.058
-649.799	85.199	0.036	-0.040
-648.784	103.170	0.240	0.283
-647.770	-9.263	-0.339	-0.227
-646.755	-66.360	-0.097	0.039
-645.741	90.922	-0.097	0.109
-644.726	244.665	-0.194	-0.328
-643.711	-30.313	-0.079	0.045
-642.697	-179.087	-0.248	0.006
-641.682	-141.931	0.179	0.018
-640.668	519.421	-0.140	0.330
-639.653	39.141	0.216	0.194
-638.638	439.382	-0.088	0.192
-637.624	266.130	0.038	-0.066
-636.609	-141.153	0.158	-0.016
-635.595	149.537	0.014	-0.020
-634.580	-200.000	-0.111	0.516
-633.565	4.162	0.335	-0.246
-632.551	518.220	0.103	-0.242
-631.536	-138.339	-0.008	0.001
-630.522	187.586	0.085	0.127
-629.507	55.371	-0.086	-0.084
-628.492	176.216	0.090	-0.132
-627.478	-200.000	0.011	-0.100
-626.463	17.399	-0.157	-0.125
-625.449	357.651	-0.139	-0.279
-624.434	-200.000	-0.021	-0.103
-623.419	-52.928	0.277	0.128
-622.405	-200.000	-0.028	0.270
-621.390	-16.321	0.263	0.167
-620.376	-138.941	-0.075	-0.008
-619.361	800.000	-0.105	0.330
-618.346	-155.039	-0.273	-0.018
-617.332	-133.301	-0.247	0.031
-616.317	-20.538	0.402	-0.248
-615.303	652.095	0.088	-0.226
-614.288	129.724	0.074	-0.095
-613.273	262.517	-0.111	-0.194
-612.259	800.000	0.083	0.258
-611.244	-183.373	-0.247	0.004
-610.230	-50.519	0.113	0.053
-609.215	-68.569	0.281	-0.109
-608.201	175.936	0.111	0.161
-607.186	-200.000	0.011	-0.074
-606.171	42.788	-0.238	-0.217
-605.157	-200.000	-0.081	-0.576
-604.142	-200.000	0.045	-0.385
-603.128	-180.430	0.428	0.009
-602.113	-51.532	0.094	-0.044
-601.098	-163.999	0.204	0.010
-600.084	-23.514	-0.175	-0.106
-599.069	429.461	-0.195	0.424
-598.055	-167.546	-0.251	0.010
-597.040	10.582	-0.137	0.105
-596.025	172.694	-0.047	0.067
-595.011	800.000	-0.149	-0.436
-593.996	545.074	-0.035	0.085
-592.982	-77.206	0.243	0.085
-591.967	44.087	0.146	-0.134
-590.952	70.016	-0.033	0.034
-589.938	-11.568	-0.101	0.067
-588.923	669.263	-0.011	0.027
-587.909	35.051	-0.104	-0.092
-586.894	289.639	-0.061	-0.112
-585.879	-48.006	-0.102	0.049
-584.865	72.624	-0.019	0.020
-583.850	107.703	-0.110	-0.131
-582.836	-200.000	-0.032	0.254
-581.821	189.216	-0.079	0.119
-580.806	421.954	0.091	-0.196
-579.792	-11.961	0.180	-0.119
-578.777	2.154	0.359	0.260
-577.763	237.682	-0.108	-0.180
-576.748	-200.000	-0.037	-0.185
-575.733	-27.147	0.138	0.080
-574.719	-200.000	-0.001	0.136
-573.704	72.914	0.037	0.039
-572.690	-18.905	0.220	0.137
-571.675	-200.000	0.004	-0.177
-570.661	-172.633	0.122	-0.004
-569.646	-39.780	-0.071	-0.037
-568.631	-47.957	0.205	0.099
-567.617	-30.364	0.165	0.094
-566.602	68.043	0.239	0.245
-565.588	-80.479	-0.302	0.101
-564.573	-86.741	-0.242	0.074
-563.558	-7.618	0.124	-0.084
-562.544	-200.000	0.026	0.151
-561.529	800.000	0.104	0.385
-560.515	-34.959	0.187	-0.102
-559.500	97.702	-0.050	0.058
-558.485	360.206	0.085	-0.170
-557.471	4.913	0.097	-0.071
-556.456	672.430	-0.055	-0.142
-555.442	304.586	0.153	-0.285
-554.427	-127.364	0.256	-0.037
-553.412	279.232	0.061	-0.110
-552.398	800.000	-0.078	-0.343
-551.383	-33.393	-0.216	-0.120
-550.369	-127.846	-0.230	-0.033
-549.354	-200.000	0.009	0.263
-548.339	475.625	0.163	0.367
-547.325	-13.548	0.163	0.106
-546.310	229.781	0.146	0.238
-545.296	-200.000	-0.046	0.211
-544.281	55.148	-0.234	-0.226
-543.266	208.696	-0.074	0.116
-542.252	800.000	-0.023	0.094
-541.237	800.000	-0.088	-0.268
-540.223	-144.280	0.332	-0.031
-539.208	800.000	0.013	-0.050
-538.193	-152.485	-0.205	0.015
-537.179	800.000	-0.136	0.403
-536.164	-32.787	-0.090	-0.050
-535.150	-200.000	-0.025	-0.325
-534.135	-35.947	0.117	-0.063
-533.121	-200.000	0.019	-0.162
-532.106	-200.000	0.065	-0.333
-531.091	-200.000	0.007	0.313
-530.077	-111.410	0.184	0.038
-529.062	-200.000	0.002	-0.037
-528.048	-29.125	-0.395	-0.227
-527.033	-55.622	0.285	0.128
-526.018	48.348	-0.194	0.181
-525.004	-149.365	-0.234	-0.019
-523.989	336.342	-0.078	-0.151
-522.975	391.669	0.155	-0.322
-521.960	-169.872	0.067	0.002
-520.945	-68.592	0.063	-0.024
-519.931	-200.000	-0.038	0.213
-518.916	130.314	-0.129	-0.165
-517.902	0.207	0.217	-0.155
-516.887	-36.226	-0.232	-0.125
-515.872	125.181	0.154	0.194
-514.858	274.325	-0.150	0.265
-513.843	-105.452	-0.080	-0.018
-512.829	208.862	-0.144	-0.225
-511.814	800.000	-0.056	0.215
-510.799	-14.601	-0.274	0.176
-509.785	-52.291	0.273	-0.127
-508.770	84.844	-0.149	0.163
-507.756	-88.059	0.300	0.090
-506.741	-98.044	-0.302	-0.078
-505.726	-200.000	-0.096	-0.473
-504.712	-200.000	0.007	-0.267
-503.697	-29.953	0.298	0.170
-502.683	-105.873	-0.367	-0.083
-501.668	-70.633	0.116	-0.044
-500.653	93.870	-0.363	-0.411
-499.639	111.429	-0.198	0.238
-498.624	164.593	-0.167	0.235
-497.610	332.815	-0.065	-0.126
-496.595	161.084	-0.282	-0.394
-495.581	800.000	0.119	-0.349
-494.566	-56.879	0.016	0.007
-493.551	-24.078	0.099	0.059
-492.537	800.000	-0.132	-0.401
-491.522	-200.000	0.026	-0.232
-490.508	52.111	0.032	0.030
-489.493	800.000	-0.100	0.424
-488.478	-120.973	0.266	0.045
-487.464	-60.541	0.291	-0.123
-486.449	-2.616	-0.185	0.129
-485.435	82.465	0.117	-0.127
-484.420	378.425	0.034	-0.068
-483.405	183.995	0.107	-0.158
-482.391	-200.000	0.012	0.096
-481.376	-200.000	0.028	-0.231
-480.362	427.828	-0.075	-0.161
-479.347	-110.683	0.041	-0.008
-478.332	-76.206	0.278	-0.098
-477.318	207.330	-0.279	-0.435
-476.303	389.029	0.052	-0.108
-475.289	170.923	-0.162	0.232
-474.274	94.198	0.245	0.278
-473.259	13.020	-0.147	-0.114
-472.245	800.000	0.082	-0.341
-471.230	-139.561	-0.252	-0.027
-470.216	667.180	-0.116	0.299
-469.201	90.738	0.146	0.163
-468.186	67.351	-0.149	-0.152
-467.172	55.370	-0.217	-0.209
-466.157	44.616	0.191	-0.175
-465.143	72.943	-0.135	-0.141
-464.128	-15.666	-0.351	0.224
-463.113	145.362	0.142	0.190
-462.099	-130.971	-0.251	0.033
-461.084	215.871	-0.115	-0.182
-460.070	-65.400	0.278	-0.111
-459.055	-172.501	0.193	0.006
-458.040	285.746	-0.054	0.098
-457.026	-60.825	0.271	-0.114
-456.011	40.332	0.199	0.178
-454.997	538.074	-0.061	-0.145
-453.982	216.269	0.120	-0.190
-452.968	3.874	-0.074	0.054
-451.953	-159.966	0.189	0.010
-450.938	-200.000	-0.001	-0.103
-449.924	800.000	0.064	-0.203
-448.909	32.225	0.125	-0.108
-447.895	800.000	0.067	0.291
-446.880	387.269	0.004	-0.008
-445.865	-80.260	0.268	0.089
-444.851	730.767	-0.138	-0.368
-443.836	-200.000	0.011	0.139
-442.822	-0.245	-0.150	0.107
-441.807	-34.081	-0.353	-0.193
-440.792	58.311	-0.258	0.252
-439.778	-118.141	0.172	0.031
-438.763	103.689	-0.101	0.118
-437.749	-74.209	-0.383	0.138
-436.734	554.564	-0.035	0.084
-435.719	247.526	-0.110	0.185
-434.705	393.063	-0.173	0.358
-433.690	800.000	-0.110	0.378
-432.676	-72.782	-0.193	-0.071
-431.661	-200.000	0.032	-0.208
-430.646	-200.000	-0.060	-0.297
-429.632	499.314	0.073	0.168
-428.617	498.062	-0.057	-0.130
-427.603	-200.000	0.004	-0.241
-426.588	-69.799	-0.449	-0.171
-425.573	248.103	-0.096	-0.162
-424.559	266.156	0.122	0.212
-423.544	-41.714	0.272	-0.139
-422.530	272.099	0.104	-0.183
-421.515	137.112	-0.057	0.074
-420.500	800.000	0.105	-0.296
-419.486	-159.776	0.109	-0.006
-418.471	800.000	-0.064	-0.231
-417.457	-11.047	0.378	0.248
-416.442	800.000	-0.127	-0.415
-415.428	-43.600	-0.253	0.127
-414.413	-200.000	0.042	0.197
-413.398	-4.721	-0.354	0.243
-412.384	10.756	-0.406	0.309
-411.369	-200.000	0.041	-0.228
-410.355	-200.000	0.017	0.207
-409.340	-12.122	0.098	-0.064
-408.325	108.851	-0.107	-0.127
-407.311	61.220	0.192	0.190
-406.296	384.385	0.151	-0.309
-405.282	-200.000	-0.028	-0.147
-404.267	96.224	0.163	-0.186
-403.252	118.995	0.254	0.313
-402.238	-200.000	0.036	0.249
-401.223	-26.717	0.288	0.168
-400.209	-42.788	0.083	0.042
-399.194	-19.502	-0.129	0.079
-398.179	-123.331	0.225	0.036
-397.165	-58.280	0.547	-0.237
-396.150	57.692	0.080	0.078
-395.136	-66.324	0.505	0.200
-394.121	800.000	0.021	0.089
-393.106	-200.000	0.010	-0.381
-392.092	-119.400	-0.250	-0.043
-391.077	-95.700	-0.123	0.033
-390.063	-35.741	0.077	0.042
-389.048	689.166	-0.055	-0.143
-388.033	-200.000	0.438	-0.000
-387.019	136.788	0.100	-0.130
-386.004	-11.136	0.275	0.180
-384.990	-2.512	-0.161	0.112
-383.975	117.252	0.177	0.216
-382.960	-60.824	-0.114	-0.048
-381.946	800.000	-0.100	-0.275
-380.931	27.282	0.178	0.149
-379.917	569.880	-0.037	-0.088
-378.902	-177.303	0.105	-0.003
-377.888	-200.000	0.050	0.328
-376.873	110.349	-0.104	-0.124
-375.858	6.522	0.095	-0.070
-374.844	98.532	0.020	0.023
-373.829	256.678	-0.117	-0.200
-372.815	-79.836	-0.163	0.055
-371.800	-59.799	-0.256	-0.109
-370.785	800.000	0.054	-0.159
-369.771	36.360	-0.162	-0.142
-368.756	676.686	-0.109	-0.281
-367.742	100.276	-0.137	0.158
-366.727	138.634	-0.130	-0.170
-365.712	80.228	0.104	0.111
-364.698	800.000	0.048	0.140
-363.683	-136.203	-0.320	-0.037
-362.669	38.408	-0.307	-0.272
-361.654	-30.745	-0.221	-0.124
-360.639	-85.693	-0.149	-0.046
-359.625	-116.844	-0.052	0.010
-358.610	-120.853	0.120	0.020
-357.596	-45.932	-0.236	0.116
-356.581	10.110	0.029	-0.022
-355.566	445.998	0.156	-0.340
-354.552	-17.714	0.220	-0.137
-353.537	448.539	0.004	0.008
-352.523	15.969	0.140	0.109
-351.508	224.868	-0.220	0.353
-350.493	-143.677	0.136	-0.013
-349.479	-88.341	-0.400	0.119
-348.464	-200.000	0.075	0.370
-347.450	-124.082	0.276	-0.043
-346.435	-14.871	-0.237	-0.151
-345.420	581.099	0.123	0.299
-344.406	-107.364	0.419	-0.091
-343.391	74.617	0.124	-0.129
-342.377	-200.000	-0.028	0.186
-341.362	800.000	0.092	0.356
-340.348	-200.000	-0.014	-0.115
-339.333	432.533	0.086	0.185
-338.318	54.970	0.146	-0.140
-337.304	800.000	-0.079	-0.277
-336.289	-22.885	-0.094	-0.056
-335.275	-200.000	-0.337	0.000
-334.260	434.471	-0.130	0.279
-333.245	5.214	-0.333	-0.244
-332.231	800.000	-0.047	-0.182
-331.216	-200.000	0.039	-0.297
-330.202	-200.000	0.000	0.422
-329.187	-200.000	0.012	0.114
-328.172	-30.055	-0.126	-0.071
-327.158	125.758	0.133	-0.167
-326.143	-200.000	0.000	-0.165
-325.129	401.666	0.134	0.278
-324.114	-47.361	-0.203	0.098
-323.099	90.507	-0.140	0.156
-322.085	-75.946	-0.128	-0.045
-321.070	72.398	-0.073	0.076
-320.056	-159.736	-0.183	-0.010
-319.041	-3.710	-0.204	-0.140
-318.026	800.000	0.017	0.049
-317.012	6.677	0.232	0.171
-315.997	-181.960	-0.131	0.002
-314.983	-4.861	-0.348	0.238
-313.968	7.145	-0.264	0.196
-312.953	-20.902	0.197	0.120
-311.939	-85.880	0.456	-0.140
-310.924	18.589	0.179	-0.142
-309.910	-154.587	0.492	-0.033
-308.895	352.151	-0.155	0.305
-307.880	-179.561	0.086	0.002
-306.866	-200.000	-0.026	0.272
-305.851	-200.000	-0.024	0.309
-304.837	-200.000	-0.088	-0.411
-303.822	-91.710	-0.346	-0.098
-302.807	383.081	-0.125	-0.254
-301.793	116.054	0.168	-0.204
-300.778	0.822	0.361	-0.256
-299.764	-142.671	-0.281	0.027
-298.749	-161.974	-0.332	0.017
-297.735	-95.778	-0.277	0.073
-296.720	790.829	0.106	0.290
-295.705	-20.976	0.124	0.075
-294.691	69.775	0.029	-0.029
-293.676	4.546	-0.199	0.145
-292.662	-130.450	0.366	-0.049
-291.647	-200.000	0.005	-0.104
-290.632	94.246	-0.091	-0.102
-289.618	-81.699	-0.343	-0.111
-288.603	110.849	0.240	-0.286
-287.589	375.653	-0.095	0.193
-286.574	95.826	0.160	0.181
-285.559	-3.835	0.121	-0.083
-284.545	-77.599	0.239	0.082
-283.530	11.927	0.259	0.197
-282.516	46.785	-0.329	-0.303
-281.501	43.736	0.097	0.088
-280.486	-200.000	-0.000	-0.022
-279.472	460.992	-0.104	-0.229
-278.457	-200.000	-0.028	0.357
-277.443	-27.815	-0.109	-0.062
-276.428	21.391	-0.031	0.025
-275.413	-30.658	-0.082	0.046
-274.399	-98.100	-0.161	-0.041
-273.384	162.066	-0.057	-0.079
-272.370	800.000	0.075	0.264
-271.355	-200.000	-0.040	-0.226
-270.340	-27.887	0.246	-0.141
-269.326	22.414	-0.220	-0.178
-268.311	263.256	-0.122	0.209
-267.297	749.806	-0.084	-0.225
-266.282	-200.000	-0.006	0.161
-265.267	142.156	0.075	-0.098
-264.253	-96.327	-0.123	-0.032
-263.238	119.185	0.073	0.089
-262.224	514.894	-0.092	-0.212
-261.209	-130.302	0.125	0.017
-260.195	800.000	-0.012	0.049
-259.180	373.369	-0.038	0.076
-258.165	32.661	0.071	0.060
-257.151	-81.110	0.276	-0.090
-256.136	-69.841	0.082	-0.031
-255.122	-25.302	0.207	-0.121
-254.107	-84.164	0.222	0.070
-253.092	-200.000	-0.057	0.508
-252.078	-74.509	-0.256	-0.091
-251.063	-200.000	0.023	-0.134
-250.049	8.441	-0.242	-0.180
-249.034	108.091	0.202	0.238
-248.019	193.502	0.203	0.304
-247.005	-200.000	-0.001	0.128
-245.990	-200.000	-0.055	0.256
-244.976	-165.609	0.396	0.017
-243.961	-4.101	0.228	-0.156
-242.946	-95.517	0.449	-0.119
-241.932	-125.450	-0.172	0.026
-240.917	800.000	0.020	0.082
-239.903	-57.645	0.359	0.155
-238.888	-160.531	-0.212	-0.011
-237.873	641.830	0.039	0.097
-236.859	-200.000	0.018	-0.117
-235.844	-96.582	-0.266	-0.069
-234.830	800.000	-0.029	-0.115
-233.815	23.176	0.120	0.098
-232.800	-123.574	0.288	0.045
-231.786	-200.000	0.018	0.188
-230.771	-136.201	-0.119	-0.014
-229.757	609.941	0.122	0.302
-228.742	-200.000	0.000	0.393
-227.727	-200.000	0.025	0.367
-226.713	-178.605	-0.166	-0.004
-225.698	165.818	-0.315	0.440
-224.684	800.000	-0.086	0.285
-223.669	-19.902	-0.276	0.169
-222.655	-78.269	0.374	0.127
-221.640	800.000	-0.081	0.322
-220.625	71.729	-0.144	0.148
-219.611	-200.000	-0.018	0.314
-218.596	364.765	0.167	-0.333
-217.582	202.510	-0.123	0.188
-216.567	151.061	-0.035	-0.047
-215.552	-200.000	-0.057	-0.255
-214.538	2.658	0.184	0.132
-213.523	-200.000	0.001	0.129
-212.509	-200.000	0.008	-0.174
-211.494	104.092	0.141	-0.164
-210.479	-200.000	-0.011	0.311
-209.465	-10.239	0.473	0.310
-208.450	5.177	-0.059	0.043
-207.436	40.532	-0.046	0.041
-206.421	231.688	0.132	-0.214
-205.406	492.021	-0.115	-0.261
-204.392	389.953	0.089	-0.183
-203.377	11.583	-0.161	-0.122
-202.363	122.917	-0.084	-0.103
-201.348	-4.588	-0.096	0.066
-200.333	365.262	0.175	0.348
-199.319	361.061	-0.045	0.090
-198.304	131.060	0.112	0.142
-197.290	50.919	-0.157	0.147
-196.275	609.024	-0.108	-0.266
-195.260	-200.000	0.007	-0.105
-194.246	201.830	0.059	-0.089
-193.231	-200.000	-0.010	-0.105
-192.217	800.000	0.069	0.190
-191.202	-145.990	0.304	-0.027
-190.187	-126.065	-0.187	0.028
-189.173	-148.421	-0.181	-0.015
-188.158	-146.099	0.256	-0.022
-187.144	-61.661	-0.274	0.113
-186.129	-1.494	0.254	0.177
-185.114	39.310	-0.162	-0.143
-184.100	-39.193	-0.168	0.087
-183.085	7.910	0.217	-0.160
-182.071	177.089	0.151	-0.217
-181.056	-66.367	0.031	-0.012
-180.042	-184.888	0.205	0.003
-179.027	-44.150	-0.123	0.061
-178.012	464.392	-0.146	-0.323
-176.998	485.131	-0.066	0.148
-175.983	-165.448	-0.177	0.008
-174.969	174.164	-0.148	0.211
-173.954	713.260	-0.035	0.091
-172.939	3.184	0.202	-0.145
-171.925	800.000	0.022	0.066
-170.910	-24.171	0.284	0.167
-169.896	111.485	-0.068	0.080
-168.881	525.397	0.079	-0.184
-167.866	-200.000	-0.058	-0.259
-166.852	67.558	-0.136	-0.137
-165.837	190.435	-0.151	-0.224
-164.823	794.381	0.051	0.138
-163.808	-200.000	-0.069	0.311
-162.793	-78.239	-0.083	0.028
-161.779	800.000	0.015	0.046
-160.764	157.938	0.191	-0.261
-159.750	132.141	-0.190	0.241
-158.735	132.856	0.116	0.147
-157.720	51.176	0.200	0.187
-156.706	350.916	-0.118	0.230
-155.691	-146.014	0.307	0.027
-154.677	800.000	-0.045	-0.159
-153.662	-52.144	0.226	0.103
-152.647	800.000	-0.107	-0.435
-151.633	42.052	-0.252	-0.225
-150.618	141.617	0.099	-0.129
-149.604	-200.000	-0.026	0.119
-148.589	-14.419	-0.192	-0.122
-147.574	800.000	-0.051	-0.185
-146.560	371.114	0.019	0.039
-145.545	351.780	-0.106	0.208
-144.531	-200.000	-0.014	-0.131
-143.516	-200.000	-0.080	0.513
-142.502	-200.000	0.015	0.189
-141.487	-9.980	-0.154	-0.101
-140.472	-62.907	-0.085	-0.035
-139.458	-112.613	-0.143	0.028
-138.443	800.000	-0.040	0.133
-137.429	564.007	-0.170	0.405
-136.414	62.865	-0.077	-0.076
-135.399	-200.000	0.062	-0.360
-134.385	-184.869	0.340	-0.005
-133.370	798.573	-0.085	0.230
-132.356	-188.272	-0.311	0.004
-131.341	117.139	-0.150	-0.181
-130.326	-53.065	0.005	0.002
-129.312	-200.000	0.023	0.218
-128.297	-200.000	-0.018	-0.120
-127.283	15.322	-0.038	-0.030
-126.268	109.900	0.246	0.291
-125.253	-26.834	0.153	0.088
-124.239	138.920	-0.153	-0.198
-123.224	-42.775	0.049	0.025
-122.210	800.000	-0.049	-0.182
-121.195	99.506	-0.112	-0.128
-120.180	310.089	0.149	0.274
-119.166	305.483	-0.008	-0.014
-118.151	138.067	0.120	-0.154
-117.137	-200.000	0.025	-0.255
-116.122	-200.000	0.046	-0.336
-115.107	112.428	0.093	-0.111
-114.093	23.606	0.095	0.077
-113.078	-200.000	0.012	0.122
-112.064	-200.000	0.065	0.371
-111.049	155.070	-0.184	0.249
-110.034	274.775	0.141	-0.245
-109.020	-200.000	-0.054	0.338
-108.005	-170.861	0.369	-0.012
-106.991	12.548	0.189	-0.143
-105.976	82.187	-0.173	0.184
-104.962	9.655	0.373	-0.278
-103.947	-72.767	0.283	-0.103
-102.932	-70.234	0.149	0.056
-101.918	-71.978	-0.379	-0.139
-100.903	39.776	-0.153	-0.135
-99.889	-52.676	-0.028	-0.013
-98.874	-44.792	0.163	0.080
-97.859	-28.769	0.124	-0.070
-96.845	-200.000	-0.003	-0.258
-95.830	166.535	0.046	-0.064
-94.816	483.349	0.113	-0.252
-93.801	82.477	0.064	-0.069
-92.786	-200.000	0.019	-0.188
-91.772	46.149	0.057	0.052
-90.757	59.328	-0.117	-0.113
-89.743	198.110	0.089	-0.134
-88.728	-22.071	0.280	-0.167
-87.713	-80.120	0.182	0.060
-86.699	364.089	0.087	-0.171
-85.684	-184.380	-0.167	0.003
-84.670	800.000	-0.017	0.060
-83.655	157.908	-0.319	0.434
-82.640	358.902	0.133	0.262
-81.626	340.261	-0.052	-0.100
-80.611	-200.000	0.069	0.386
-79.597	-81.471	-0.185	0.060
-78.582	18.094	-0.280	-0.219
-77.567	800.000	-0.083	-0.268
-76.553	-59.764	0.262	0.110
-75.538	-200.000	0.008	-0.122
-74.524	286.154	-0.087	0.155
-73.509	-66.709	-0.131	0.051
-72.494	-38.961	0.197	-0.102
-71.480	-40.511	0.034	0.017
-70.465	34.538	0.106	0.091
-69.451	-200.000	-0.016	-0.137
-68.436	-200.000	0.015	0.111
-67.422	-141.501	0.196	0.019
-66.407	33.297	0.118	-0.101
-65.392	-127.508	-0.034	0.005
-64.378	800.000	0.016	0.063
-63.363	-200.000	-0.004	0.151
-62.349	-82.662	0.201	0.064
-61.334	-29.062	-1.277	-0.719
-60.319	10.954	0.208	0.156
-59.305	235.696	-0.571	-0.927
-58.290	210.568	0.543	0.838
-57.276	800.000	0.407	1.367
-56.261	-200.000	96.245	572.886
-55.246	549.404	1381.043	3250.257
-54.232	159.255	2564.865	3502.396
-53.217	105.399	2268.431	2630.895
-52.203	42.376	1893.303	1689.938
-51.188	36.421	1683.829	1458.121
-50.173	33.729	1639.282	1399.671
-49.159	50.665	1685.335	1565.915
-48.144	52.472	1702.113	1594.947
-47.130	35.972	1662.403	1435.987
-46.115	33.219	1648.068	1403.166
-45.100	33.017	1643.115	1397.396
-44.086	33.072	1639.911	1395.024
-43.071	33.019	1637.140	1392.224
-42.057	33.025	1634.940	1390.336
-41.042	33.055	1632.726	1388.618
-40.027	33.048	1631.014	1387.056
-39.013	33.018	1628.962	1385.035
-37.998	33.008	1627.682	1383.822
-36.984	32.982	1626.578	1382.635
-35.969	33.119	1625.001	1382.247
-34.954	33.127	1623.565	1381.027
-33.940	33.177	1621.206	1379.331
-32.925	33.162	1619.339	1377.580
-31.911	33.054	1618.331	1375.876
-30.896	33.176	1615.944	1374.679
-29.881	33.148	1614.503	1373.202
-28.867	33.127	1612.693	1371.452
-27.852	33.169	1611.540	1370.723
-26.838	33.043	1610.207	1368.621
-25.823	33.114	1608.528	1367.656
-24.809	33.117	1607.217	1366.504
-23.794	33.112	1605.552	1364.996
-22.779	33.200	1604.394	1364.599
-21.765	33.114	1602.985	1362.726
-20.750	33.167	1601.123	1361.471
-19.736	33.129	1599.767	1359.985
-18.721	33.156	1597.951	1358.581
-17.706	33.159	1596.716	1357.500
-16.692	33.049	1595.270	1355.427
-15.677	33.117	1593.947	1354.740
-14.663	33.251	1592.157	1354.123
-13.648	33.263	1590.963	1353.138
-12.633	33.090	1589.534	1350.634
-11.619	33.144	1588.081	1349.729
-10.604	33.119	1586.439	1348.104
-9.590	33.176	1585.270	1347.463
-8.575	33.145	1584.503	1346.534
-7.560	33.217	1582.268	1345.100
-6.546	33.187	1581.722	1344.365
-5.531	33.170	1580.504	1343.158
-4.517	33.167	1579.300	1342.057
-3.502	33.201	1577.911	1341.065
-2.487	33.206	1576.314	1339.689
-1.473	32.844	1565.042	1327.513
-0.458	30.182	1545.439	1292.312
0.556	27.345	1546.703	1263.822
1.571	25.469	1570.348	1269.788
2.586	25.069	1583.888	1277.767
3.600	22.276	1530.936	1215.666
4.615	12.605	1419.620	1064.884
5.629	3.820	1353.554	960.832
6.644	2.181	1345.125	944.638
7.659	2.086	1343.556	942.864
8.673	2.090	1342.446	942.025
9.688	2.013	1340.769	940.290
10.702	1.656	1338.086	936.128
11.717	5.534	1344.571	964.519
12.731	15.781	1364.849	1042.793
13.746	24.104	1378.495	1105.005
14.761	26.246	1381.188	1120.365
15.775	26.461	1381.001	1121.446
16.790	26.586	1380.336	1121.584
17.804	26.641	1380.112	1121.642
18.819	26.769	1379.865	1122.136
19.834	27.014	1379.160	1122.978
20.848	26.974	1378.146	1121.804
21.863	27.022	1377.325	1121.336
22.877	27.037	1376.717	1120.830
23.892	27.005	1375.544	1119.583
24.907	26.987	1375.178	1119.077
25.921	27.000	1374.105	1118.183
26.936	27.025	1372.792	1117.166
27.950	27.002	1371.896	1116.196
28.965	26.959	1370.936	1115.054
29.980	27.084	1369.184	1114.296
30.994	26.977	1368.005	1112.585
32.009	26.943	1367.226	1111.645
33.023	26.980	1365.780	1110.597
34.038	26.974	1364.891	1109.737
35.053	26.962	1363.884	1108.750
36.067	26.907	1363.043	1107.633
37.082	27.023	1361.674	1107.129
38.096	27.014	1361.090	1106.500
39.111	27.062	1360.017	1105.823
40.126	26.980	1359.860	1105.096
41.140	26.949	1359.183	1104.258
42.155	26.943	1358.903	1103.896
43.169	27.039	1358.954	1104.428
44.184	26.924	1358.601	1103.344
45.199	26.931	1358.340	1103.078
46.213	26.973	1357.579	1102.612
47.228	27.066	1356.226	1101.984
48.242	26.941	1355.619	1100.631
49.257	27.004	1353.862	1099.491
50.271	26.957	1352.632	1098.111
51.286	26.997	1351.225	1097.115
52.301	26.920	1349.936	1095.503
53.315	26.934	1349.267	1094.950
54.330	27.013	1348.281	1094.531
55.344	26.973	1347.188	1093.303
56.359	26.985	1346.307	1092.564
57.374	26.918	1345.595	1091.488
58.388	26.976	1344.858	1091.141
59.403	26.918	1345.082	1090.875
60.417	27.017	1343.799	1090.336
61.432	27.021	1342.900	1089.536
62.447	26.983	1342.449	1088.845
63.461	26.949	1341.501	1087.776
64.476	27.025	1340.310	1087.168
65.490	27.048	1339.087	1086.214
66.505	27.026	1337.446	1084.659
67.520	26.928	1336.479	1083.195
68.534	26.945	1335.523	1082.424
69.549	26.973	1334.214	1081.434
70.563	26.989	1333.680	1081.003
71.578	26.978	1332.363	1079.770
72.593	26.981	1331.971	1079.376
73.607	27.060	1330.902	1078.881
74.622	26.952	1330.444	1077.774
75.636	27.026	1329.492	1077.346
76.651	27.004	1328.821	1076.578
77.666	26.978	1328.361	1075.955
78.680	26.971	1328.190	1075.684
79.695	27.002	1327.525	1075.230
80.709	27.037	1326.298	1074.352
81.724	26.991	1325.073	1072.989
82.739	26.988	1324.702	1072.578
83.753	27.075	1322.929	1071.562
84.768	27.029	1322.228	1070.624
85.782	27.083	1321.347	1070.136
86.797	26.987	1320.614	1068.880
87.812	27.028	1319.177	1067.866
88.826	27.055	1318.215	1067.152
89.841	27.050	1317.308	1066.294
90.855	27.106	1316.120	1065.568
91.870	27.060	1315.323	1064.555
92.884	26.977	1314.727	1063.495
93.899	27.094	1313.728	1063.280
94.914	27.039	1313.086	1062.339
95.928	26.939	1312.567	1061.243
96.943	27.105	1311.728	1061.437
97.957	27.069	1311.030	1060.571
98.972	27.098	1310.076	1059.873
99.987	27.039	1309.068	1058.624
101.001	27.098	1308.279	1058.233
102.016	27.042	1307.757	1057.393
103.030	27.081	1306.516	1056.522
104.045	27.068	1305.765	1055.748
105.060	27.146	1304.483	1055.067
106.074	27.096	1304.030	1054.318
107.089	27.142	1302.903	1053.583
108.103	27.175	1301.625	1052.647
109.118	27.197	1300.284	1051.594
110.133	27.127	1299.569	1050.519
111.147	27.171	1298.152	1049.534
112.162	27.200	1297.143	1048.796
113.176	27.113	1296.343	1047.550
114.191	27.092	1295.565	1046.708
115.206	27.059	1294.631	1045.675
116.220	27.012	1293.480	1044.382
117.235	27.044	1292.604	1043.766
118.249	27.146	1291.380	1043.272
119.264	27.125	1290.959	1042.716
120.279	27.152	1290.278	1042.229
121.293	27.210	1289.408	1041.765
122.308	27.135	1288.862	1040.803
123.322	27.171	1287.881	1040.123
124.337	27.186	1287.099	1039.489
125.352	27.219	1286.006	1038.701
126.366	27.177	1285.460	1037.928
127.381	27.184	1284.326	1036.961
128.395	27.232	1283.784	1036.704
129.410	27.166	1282.901	1035.521
130.424	27.232	1282.173	1035.221
131.439	27.194	1281.407	1034.297
132.454	27.150	1280.713	1033.390
133.468	27.172	1279.698	1032.605
134.483	27.185	1279.757	1032.639
135.497	27.165	1278.971	1031.799
136.512	27.140	1277.713	1030.549
137.527	27.249	1276.168	1029.829
138.541	27.246	1275.089	1028.849
139.556	27.170	1274.162	1027.581
140.570	27.259	1273.176	1027.201
141.585	27.146	1272.195	1025.677
142.600	27.157	1271.009	1024.693
143.614	27.213	1270.431	1024.452
144.629	27.146	1269.569	1023.290
145.643	27.096	1268.574	1022.117
146.658	27.049	1267.551	1020.937
147.673	27.133	1266.351	1020.352
148.687	27.169	1265.392	1019.693
149.702	27.018	1264.392	1017.951
150.716	27.064	1263.255	1017.199
151.731	27.136	1262.240	1016.697
152.746	27.035	1261.372	1015.341
153.760	27.159	1260.336	1015.111
154.775	27.287	1258.861	1014.547
155.789	27.213	1258.611	1013.847
156.804	27.204	1257.523	1012.828
157.819	27.217	1256.541	1012.022
158.833	27.120	1256.459	1011.324
159.848	27.272	1255.379	1011.210
160.862	27.264	1254.711	1010.538
161.877	27.218	1253.648	1009.337
162.892	27.297	1252.549	1008.800
163.906	27.363	1252.129	1008.740
164.921	27.254	1251.330	1007.401
165.935	27.285	1250.567	1006.870
166.950	27.254	1250.067	1006.206
167.964	27.228	1249.780	1005.741
168.979	27.252	1248.895	1005.076
169.994	27.329	1248.285	1004.920
171.008	27.317	1247.381	1004.037
172.023	27.202	1247.234	1003.196
173.037	27.353	1246.583	1003.419
174.052	27.170	1246.105	1001.933
175.067	27.334	1244.988	1001.849
176.081	27.197	1244.304	1000.460
177.096	27.329	1243.416	1000.383
178.110	27.278	1241.970	998.850
179.125	27.379	1241.329	998.802
180.140	27.317	1240.282	997.528
181.154	27.331	1239.192	996.643
182.169	27.243	1238.408	995.442
183.183	27.354	1236.886	994.734
184.198	27.272	1236.358	993.773
185.213	27.343	1235.100	993.066
186.227	27.452	1234.149	992.806
187.242	27.444	1233.593	992.228
188.256	27.448	1232.666	991.413
189.271	27.387	1232.066	990.511
190.286	27.432	1231.146	989.929
191.300	27.565	1230.231	989.832
192.315	27.354	1230.308	988.656
193.329	27.388	1229.443	988.058
194.344	27.474	1229.459	988.450
195.359	27.410	1228.870	987.546
196.373	27.379	1228.431	986.938
197.388	27.321	1228.079	986.252
198.402	27.487	1227.145	986.313
199.417	27.411	1227.048	985.733
200.432	27.401	1226.248	984.951
201.446	27.452	1225.927	984.881
202.461	27.437	1225.356	984.256
203.475	27.398	1224.487	983.262
204.490	27.353	1223.479	982.121
205.504	27.327	1222.341	980.981
206.519	27.581	1221.041	981.217
207.534	27.503	1220.237	980.062
208.548	27.471	1219.557	979.260
209.563	27.485	1219.069	978.858
210.577	27.403	1218.495	977.870
211.592	27.447	1217.785	977.447
212.607	27.605	1216.582	977.242
213.621	27.567	1215.682	976.228
214.636	27.632	1215.043	975.977
215.650	27.500	1214.423	974.688
216.665	27.442	1213.816	973.806
217.680	27.508	1212.472	972.994
218.694	27.551	1211.909	972.686
219.709	27.524	1211.146	971.842
220.723	27.513	1210.643	971.293
221.738	27.499	1209.551	970.259
222.753	27.440	1209.234	969.603
223.767	27.426	1208.978	969.235
224.782	27.595	1208.094	969.341
225.796	27.602	1207.649	968.939
226.811	27.544	1207.116	968.115
227.826	27.585	1206.463	967.723
228.840	27.649	1205.495	967.203
229.855	27.522	1205.245	966.240
230.869	27.641	1204.431	966.131
231.884	27.612	1203.528	965.170
232.899	27.528	1203.029	964.239
233.913	27.679	1202.117	964.222
234.928	27.643	1201.959	963.821
235.942	27.688	1201.181	963.348
236.957	27.725	1200.341	962.784
237.972	27.638	1199.716	961.739
238.986	27.651	1199.257	961.355
240.001	27.722	1198.898	961.354
241.015	27.747	1198.222	960.857
242.030	27.696	1197.286	959.754
243.045	27.736	1196.674	959.392
244.059	27.743	1195.431	958.346
245.074	27.821	1194.633	958.031
246.088	27.787	1194.049	957.301
247.103	27.807	1193.298	956.716
248.117	27.846	1192.357	956.081
249.132	27.940	1191.406	955.725
250.147	27.806	1191.394	954.932
251.161	27.817	1190.454	954.151
252.176	27.865	1189.779	953.776
253.190	27.897	1189.142	953.352
254.205	27.928	1188.302	952.752
255.220	27.928	1187.669	952.161
256.234	27.876	1187.411	951.601
257.249	27.867	1186.991	951.134
258.263	27.735	1186.300	949.806
259.278	27.903	1185.294	949.791
260.293	27.902	1184.890	949.377
261.307	27.960	1184.322	949.138
262.322	27.907	1183.734	948.312
263.336	27.928	1183.304	947.988
264.351	27.917	1182.904	947.526
265.366	27.996	1182.043	947.164
266.380	27.915	1181.474	946.204
267.395	28.010	1180.215	945.602
268.409	27.891	1180.034	944.762
269.424	27.916	1179.576	944.438
270.439	27.991	1179.017	944.294
271.453	28.093	1177.848	943.803
272.468	27.862	1177.370	942.145
273.482	27.905	1177.331	942.250
274.497	27.992	1176.414	941.883
275.512	27.997	1176.005	941.499
276.526	28.062	1175.050	940.986
277.541	28.027	1174.272	940.100
278.555	28.075	1174.133	940.149
279.570	28.088	1172.849	939.105
280.585	28.031	1172.208	938.218
281.599	27.920	1171.713	937.171
282.614	28.029	1170.733	936.860
283.628	28.007	1169.644	935.791
284.643	28.078	1168.711	935.325
285.657	27.955	1168.287	934.277
286.672	28.213	1167.198	934.640
287.687	28.116	1166.418	933.436
288.701	28.143	1166.116	933.253
289.716	28.199	1164.775	932.382
290.730	28.164	1164.498	931.897
291.745	28.300	1164.136	932.221
292.760	28.222	1163.666	931.365
293.774	28.274	1162.899	930.928
294.789	28.189	1162.427	930.041
295.803	28.204	1161.740	929.481
296.818	28.199	1161.020	928.797
297.833	28.241	1160.615	928.604
298.847	28.236	1159.779	927.831
299.862	28.224	1158.802	926.906
300.876	28.194	1158.791	926.664
301.891	28.352	1157.883	926.655
302.906	28.390	1157.102	926.140
303.920	28.356	1156.755	925.608
304.935	28.374	1156.085	925.083
305.949	28.298	1155.324	924.006
306.964	28.203	1154.878	923.088
307.979	28.355	1154.098	923.149
308.993	28.419	1153.274	922.730
310.008	28.349	1152.598	921.754
311.022	28.438	1151.657	921.371
312.037	28.423	1151.023	920.706
313.052	28.383	1150.278	919.827
314.066	28.320	1149.305	918.650
315.081	28.389	1148.868	918.568
316.095	28.271	1148.322	917.457
317.110	28.438	1147.630	917.662
318.125	28.500	1146.931	917.332
319.139	28.416	1145.958	916.049
320.154	28.455	1145.819	916.054
321.168	28.511	1145.232	915.783
322.183	28.625	1144.211	915.453
323.197	28.487	1144.023	914.534
324.212	28.348	1143.983	913.729
325.227	28.527	1143.148	913.873
326.241	28.579	1142.526	913.555
327.256	28.538	1141.956	912.811
328.270	28.560	1140.837	911.948
329.285	28.495	1139.932	910.821
330.300	28.554	1139.298	910.526
331.314	28.585	1138.766	910.174
332.329	28.581	1137.904	909.382
333.343	28.653	1137.097	909.015
334.358	28.596	1136.210	907.941
335.373	28.629	1135.724	907.637
336.387	28.686	1134.905	907.185
337.402	28.671	1134.016	906.322
338.416	28.560	1133.690	905.433
339.431	28.640	1133.123	905.291
340.446	28.727	1132.611	905.234
341.460	28.535	1132.610	904.205
342.475	28.742	1131.084	903.925
343.489	28.722	1130.366	903.172
344.504	28.656	1129.684	902.224
345.519	28.779	1128.720	901.977
346.533	28.871	1127.672	901.515
347.548	28.872	1127.007	900.908
348.562	28.746	1126.494	899.800
349.577	28.832	1125.543	899.379
350.592	28.655	1125.066	898.054
351.606	28.773	1124.100	897.780
352.621	28.760	1123.843	897.432
353.635	28.730	1123.736	897.120
354.650	28.743	1122.603	896.199
355.665	28.867	1121.653	895.965
356.679	28.912	1121.322	895.845
357.694	28.800	1121.010	894.969
358.708	28.843	1120.560	894.742
359.723	28.811	1119.530	893.684
360.738	28.943	1118.754	893.624
361.752	28.772	1118.655	892.635
362.767	28.866	1117.628	892.192
363.781	28.839	1117.194	891.638
364.796	29.088	1116.314	892.062
365.810	28.908	1115.959	890.831
366.825	29.016	1115.137	890.615
367.840	29.022	1114.919	890.394
368.854	29.260	1114.275	890.951
369.869	29.048	1113.990	889.620
370.883	29.027	1113.258	888.854
371.898	29.029	1112.638	888.289
372.913	29.009	1111.949	887.563
373.927	29.083	1111.442	887.438
374.942	29.075	1110.927	886.909
375.956	29.093	1110.431	886.522
376.971	29.074	1109.937	885.957
377.986	29.069	1109.236	885.294
379.000	29.167	1108.848	885.380
380.015	29.189	1108.386	885.037
381.029	29.186	1107.502	884.239
382.044	29.159	1106.950	883.591
383.059	29.306	1106.243	883.654
384.073	29.177	1105.440	882.314
385.088	29.210	1104.698	881.804
386.102	29.213	1104.144	881.296
387.117	29.094	1103.318	879.992
388.132	29.148	1102.405	879.444
389.146	29.256	1101.632	879.264
390.161	29.266	1101.041	878.762
391.175	29.188	1100.712	878.048
392.190	29.354	1099.465	877.767
393.205	29.231	1099.091	876.807
394.219	29.247	1097.993	875.929
395.234	29.328	1097.885	876.148
396.248	29.396	1096.631	875.395
397.263	29.374	1095.770	874.526
398.278	29.240	1095.606	873.683
399.292	29.391	1094.347	873.316
400.307	29.516	1094.216	873.725
401.321	29.425	1093.635	872.753
402.336	29.354	1093.134	871.943
403.350	29.445	1092.322	871.646
404.365	29.558	1091.300	871.288
405.380	29.475	1090.851	870.459
406.394	29.457	1090.144	869.734
407.409	29.602	1089.593	869.900
408.423	29.490	1088.856	868.706
409.438	29.515	1088.298	868.305
410.453	29.523	1087.779	867.848
411.467	29.595	1086.571	867.148
412.482	29.636	1086.066	866.858
413.496	29.590	1085.201	865.875
414.511	29.530	1084.930	865.304
415.526	29.575	1084.418	865.027
416.540	29.569	1084.414	864.922
417.555	29.535	1083.542	863.990
418.569	29.740	1082.724	864.218
419.584	29.659	1082.433	863.533
420.599	29.606	1082.148	862.983
421.613	104.016	1320.072	1454.471
422.628	96.779	1354.724	1454.591
