DTS Sentinel unit serial number:	SN413079Multiplexer serial number:	ORYXHardware model number:	OX4-SRSoftware version number:	ORYX F/W v4.00 Oryx Data Collector v3.7.2.0data status	okinstallation	princeton_trtdifferential loss correction	single-endedforward channel	channel 2reverse channel	N/Adate	2019/09/11time	13:41:11forward acquisition time	60.00reverse acquisition time	0.00gamma	496.2192k internal	0.2292k external	0.2292temperature offset calibration	1.0008default loss term (dB/km)	0.3790temperature slope calibration	1.0000multiplexer offset coefficient	1.0000multiplexer slope coefficient	1.0000fibre end	0.00T internal ref (°C)	41.92T ext. ref 1 (°C)	0.84T ext. ref 2 (°C)	36.85length (m)	temperature (°C)	Stokes	anti-Stokes-747.200	800.000	0.062	-0.244
-746.185	-106.077	-0.037	0.008
-745.171	-135.278	-0.323	-0.040
-744.156	202.486	0.156	0.246
-743.142	585.828	-0.042	-0.105
-742.127	-39.138	-0.213	0.115
-741.112	-200.000	0.011	0.353
-740.098	-10.175	-0.091	-0.062
-739.083	-59.641	-0.086	0.038
-738.069	50.965	0.258	0.251
-737.054	-27.723	-0.428	0.254
-736.039	-152.785	0.276	-0.020
-735.025	-200.000	0.036	0.273
-734.010	800.000	-0.038	-0.133
-732.996	-42.177	-0.236	0.124
-731.981	144.131	0.129	0.176
-730.966	-55.827	0.172	0.079
-729.952	-33.380	-0.185	0.105
-728.937	227.251	-0.149	0.248
-727.923	89.331	-0.132	-0.151
-726.908	102.343	0.070	0.084
-725.894	134.889	-0.148	-0.197
-724.879	-200.000	0.015	0.143
-723.864	75.894	-0.160	-0.173
-722.850	87.790	0.158	0.179
-721.835	-200.000	-0.073	-0.490
-720.821	302.780	-0.141	0.267
-719.806	-67.089	0.177	-0.071
-718.791	89.914	-0.375	-0.428
-717.777	-83.793	-0.257	0.084
-716.762	-8.817	-0.307	0.210
-715.748	-200.000	0.015	-0.079
-714.733	-200.000	-0.012	0.121
-713.718	71.434	-0.192	0.204
-712.704	630.294	-0.138	-0.356
-711.689	43.224	-0.160	0.149
-710.675	212.396	-0.077	-0.124
-709.660	189.561	0.061	0.093
-708.645	-55.826	0.072	-0.033
-707.631	-200.000	-0.028	0.165
-706.616	-6.085	0.441	-0.308
-705.602	-71.372	0.230	0.088
-704.587	-200.000	-0.064	-0.462
-703.572	-55.926	-0.233	0.106
-702.558	396.486	0.110	-0.234
-701.543	-85.447	-0.128	-0.041
-700.529	-69.958	-0.105	0.041
-699.514	207.101	0.190	-0.303
-698.499	-200.000	-0.010	-0.157
-697.485	-64.266	0.085	0.035
-696.470	-52.618	-0.252	-0.119
-695.456	-134.999	-0.147	-0.018
-694.441	-69.346	0.128	0.050
-693.426	-59.910	-0.039	-0.017
-692.412	800.000	0.052	0.194
-691.397	-58.206	0.177	-0.079
-690.383	-43.602	0.112	-0.058
-689.368	-200.000	-0.013	-0.225
-688.354	237.399	0.064	0.108
-687.339	-114.144	0.111	0.022
-686.324	140.591	-0.204	-0.274
-685.310	-132.204	0.227	-0.030
-684.295	71.187	-0.126	0.134
-683.281	174.352	-0.066	0.098
-682.266	22.926	0.039	0.033
-681.251	-60.216	0.305	0.133
-680.237	-200.000	0.034	-0.273
-679.222	-200.000	0.005	-0.189
-678.208	-122.623	-0.300	0.050
-677.193	-127.010	-0.180	-0.027
-676.178	117.105	0.210	0.264
-675.164	-61.995	0.253	0.108
-674.149	38.445	-0.054	-0.049
-673.135	253.593	0.090	-0.157
-672.120	-62.189	0.152	0.065
-671.105	-64.068	0.123	-0.051
-670.091	-200.000	-0.029	-0.195
-669.076	67.791	-0.164	-0.171
-668.062	183.094	-0.178	0.269
-667.047	288.752	0.064	-0.119
-666.032	31.847	0.398	-0.350
-665.018	-83.319	-0.258	-0.084
-664.003	225.757	-0.169	0.280
-662.989	346.632	-0.133	0.268
-661.974	-28.310	-0.083	-0.049
-660.959	800.000	0.121	-0.385
-659.945	41.429	-0.195	-0.180
-658.930	-200.000	-0.070	-0.387
-657.916	800.000	-0.027	-0.115
-656.901	500.503	0.051	-0.119
-655.886	80.484	-0.112	-0.123
-654.872	800.000	-0.033	0.106
-653.857	336.315	-0.035	0.070
-652.843	-138.551	-0.412	0.046
-651.828	304.371	-0.104	-0.198
-650.814	800.000	-0.110	0.344
-649.799	800.000	0.023	-0.078
-648.784	25.265	0.309	-0.261
-647.770	-104.536	0.253	0.060
-646.755	-23.579	-0.359	-0.220
-645.741	-87.946	-0.236	-0.072
-644.726	-178.706	0.230	-0.005
-643.711	-61.644	0.165	-0.071
-642.697	800.000	-0.020	0.071
-641.682	286.506	0.192	0.354
-640.668	7.132	0.164	-0.125
-639.653	-31.469	0.149	-0.085
-638.638	-20.836	0.086	-0.054
-637.624	50.000	-0.289	-0.278
-636.609	-102.131	0.256	-0.063
-635.595	163.559	-0.187	-0.268
-634.580	2.492	-0.293	-0.217
-633.565	-108.711	-0.408	0.089
-632.551	-9.642	-0.159	0.108
-631.536	28.979	-0.078	-0.068
-630.522	-43.194	0.210	0.108
-629.507	-70.225	0.163	-0.063
-628.492	-139.803	-0.415	-0.045
-627.478	-1.796	0.200	-0.144
-626.463	-200.000	0.001	-0.056
-625.449	-1.179	0.147	0.106
-624.434	155.933	0.023	0.032
-623.419	26.514	0.261	-0.222
-622.405	67.680	0.036	-0.038
-621.390	-65.223	0.091	-0.037
-620.376	-143.525	-0.152	-0.015
-619.361	-67.529	-0.284	-0.114
-618.346	-200.000	0.027	-0.284
-617.332	336.210	0.101	0.199
-616.317	-35.105	-0.109	0.061
-615.303	800.000	0.084	-0.355
-614.288	-127.536	-0.196	-0.029
-613.273	-50.147	-0.243	0.117
-612.259	103.059	-0.072	0.085
-611.244	-167.373	-0.511	-0.021
-610.230	-63.743	-0.122	0.051
-609.215	-200.000	0.004	-0.054
-608.201	-155.734	0.390	-0.025
-607.186	-25.496	-0.388	0.233
-606.171	-143.389	-0.086	-0.008
-605.157	-34.789	0.217	0.120
-604.142	144.134	0.176	-0.239
-603.128	504.438	-0.060	-0.142
-602.113	-178.698	-0.326	-0.008
-601.098	797.403	0.055	0.154
-600.084	14.735	0.200	-0.159
-599.069	-71.002	0.333	-0.127
-598.055	395.433	0.171	0.362
-597.040	800.000	0.084	-0.256
-596.025	562.645	0.069	-0.170
-595.011	800.000	-0.163	-0.487
-593.996	-200.000	-0.262	-0.001
-592.982	-12.305	0.303	-0.201
-591.967	-124.852	0.220	-0.034
-590.952	362.509	0.145	0.295
-589.938	3.909	0.034	0.026
-588.923	-37.735	-0.213	-0.115
-587.909	207.047	0.198	0.315
-586.894	169.595	-0.030	-0.043
-585.879	-147.572	0.246	-0.021
-584.865	82.033	-0.219	-0.242
-583.850	202.718	-0.175	-0.275
-582.836	90.884	-0.095	0.109
-581.821	-117.218	-0.039	0.007
-580.806	-148.740	0.074	0.006
-579.792	-21.157	0.199	0.124
-578.777	131.924	0.049	0.064
-577.763	52.497	0.352	0.342
-576.748	341.076	0.043	0.086
-575.733	539.686	-0.069	-0.166
-574.719	43.669	0.251	-0.234
-573.704	236.471	-0.076	0.128
-572.690	323.350	0.085	0.164
-571.675	-149.491	0.107	-0.009
-570.661	37.032	-0.249	-0.224
-569.646	12.678	0.210	0.165
-568.631	214.032	-0.060	0.096
-567.617	25.598	-0.239	0.202
-566.602	267.614	-0.078	0.138
-565.588	91.575	-0.145	0.166
-564.573	-37.304	0.329	-0.178
-563.558	-200.000	0.026	0.176
-562.544	800.000	-0.049	0.172
-561.529	526.057	-0.092	0.220
-560.515	-110.477	0.213	0.045
-559.500	-183.421	0.515	-0.009
-558.485	-129.054	0.095	0.014
-557.471	79.173	0.144	-0.157
-556.456	-200.000	-0.131	-0.000
-555.442	800.000	0.100	-0.314
-554.427	-200.000	-0.016	0.322
-553.412	345.311	-0.140	0.279
-552.398	133.721	0.076	0.100
-551.383	-96.797	0.094	-0.025
-550.369	-9.448	0.277	-0.188
-549.354	-75.095	-0.216	0.078
-548.339	-200.000	0.013	-0.145
-547.325	178.649	-0.211	0.313
-546.310	-60.851	0.199	0.085
-545.296	614.271	-0.028	0.070
-544.281	-200.000	-0.020	0.198
-543.266	-105.881	0.567	0.130
-542.252	-40.307	0.237	-0.125
-541.237	50.820	0.173	0.166
-540.223	-106.849	0.206	-0.046
-539.208	16.759	0.030	0.024
-538.193	800.000	0.020	0.066
-537.179	800.000	0.022	0.082
-536.164	33.624	0.208	0.184
-535.150	-168.610	0.055	-0.002
-534.135	-165.796	-0.197	-0.009
-533.121	-69.473	0.326	0.127
-532.106	143.457	-0.167	-0.226
-531.091	340.163	0.100	-0.198
-530.077	-200.000	0.018	0.422
-529.062	153.442	-0.078	0.109
-528.048	-62.089	-0.147	0.062
-527.033	192.991	0.143	0.219
-526.018	37.729	0.059	-0.053
-525.004	47.146	-0.012	-0.011
-523.989	800.000	0.086	-0.269
-522.975	345.904	-0.027	-0.053
-521.960	-66.854	-0.213	-0.085
-520.945	114.461	0.116	0.143
-519.931	-200.000	0.012	0.482
-518.916	465.395	-0.163	-0.369
-517.902	311.089	0.130	0.248
-516.887	-5.094	-0.254	0.177
-515.872	-54.423	-0.162	0.074
-514.858	-124.136	0.146	-0.023
-513.843	-191.821	-0.089	-0.001
-512.829	-64.081	0.579	-0.240
-511.814	-200.000	0.059	0.356
-510.799	18.817	0.195	0.158
-509.785	295.988	0.103	-0.191
-508.770	228.654	-0.060	0.100
-507.756	-60.764	0.272	0.117
-506.741	-12.918	-0.144	-0.095
-505.726	-200.000	-0.010	-0.077
-504.712	-46.690	0.256	-0.127
-503.697	46.550	-0.333	-0.314
-502.683	-124.595	-0.202	0.032
-501.668	453.311	-0.161	-0.361
-500.653	67.792	0.237	-0.246
-499.639	800.000	0.053	-0.233
-498.624	-200.000	0.067	-0.390
-497.610	-200.000	0.020	-0.257
-496.595	-63.612	-0.297	0.124
-495.581	-93.486	-0.111	-0.031
-494.566	68.569	-0.081	-0.085
-493.551	800.000	0.071	-0.303
-492.537	-106.098	0.159	-0.036
-491.522	567.053	-0.049	-0.122
-490.508	-188.788	0.225	0.003
-489.493	-200.000	-0.035	-0.197
-488.478	-76.450	-0.320	-0.114
-487.464	-42.099	-0.349	0.181
-486.449	53.662	-0.158	-0.154
-485.435	218.949	-0.170	-0.276
-484.420	-77.106	-0.101	0.036
-483.405	-200.000	-0.019	-0.133
-482.391	-76.338	-0.105	0.038
-481.376	342.815	0.062	0.123
-480.362	-42.476	-0.158	0.082
-479.347	11.277	-0.081	-0.062
-478.332	800.000	0.108	0.326
-477.318	21.392	0.144	-0.119
-476.303	553.162	0.086	0.209
-475.289	-102.171	-0.093	-0.023
-474.274	-200.000	0.004	-0.079
-473.259	451.299	-0.099	-0.222
-472.245	-140.882	0.349	-0.036
-471.230	800.000	0.043	-0.146
-470.216	800.000	0.075	0.257
-469.201	43.648	0.052	0.049
-468.186	129.392	-0.139	0.180
-467.172	-154.270	0.089	0.006
-466.157	203.975	0.155	0.243
-465.143	117.507	-0.093	0.115
-464.128	-200.000	-0.022	0.191
-463.113	-200.000	-0.022	0.129
-462.099	519.417	0.074	0.175
-461.084	84.583	-0.080	0.089
-460.070	800.000	0.014	0.054
-459.055	-59.955	0.213	-0.092
-458.040	-200.000	-0.057	-0.266
-457.026	-82.644	-0.132	0.043
-456.011	-75.578	-0.106	0.038
-454.997	61.078	-0.131	-0.131
-453.982	381.110	0.133	-0.276
-452.968	-34.447	-0.127	-0.070
-451.953	-40.658	-0.238	0.125
-450.938	-200.000	0.010	-0.098
-449.924	800.000	0.010	0.033
-448.909	650.653	0.168	-0.435
-447.895	-38.628	-0.162	-0.087
-446.880	300.997	-0.066	-0.123
-445.865	-7.211	0.277	0.190
-444.851	14.474	0.200	0.158
-443.836	141.438	-0.094	0.125
-442.822	-43.129	-0.179	0.092
-441.807	-100.395	-0.193	-0.048
-440.792	46.163	-0.094	-0.088
-439.778	102.130	0.193	0.228
-438.763	-97.274	0.289	-0.076
-437.749	-59.849	0.108	-0.047
-436.734	-200.000	-0.005	0.149
-435.719	-200.000	0.016	-0.264
-434.705	195.173	-0.026	0.039
-433.690	-23.201	-0.260	0.158
-432.676	-21.085	0.134	0.083
-431.661	-62.782	-0.058	0.024
-430.646	426.860	0.081	0.178
-429.632	-111.397	-0.108	0.022
-428.617	698.025	-0.170	-0.451
-427.603	186.618	0.107	0.161
-426.588	32.173	-0.139	0.121
-425.573	220.831	0.302	0.489
-424.559	649.827	0.017	0.044
-423.544	-50.323	0.162	0.077
-422.530	-200.000	0.001	0.038
-421.515	-117.633	-0.269	0.049
-420.500	400.495	-0.135	0.287
-419.486	182.869	0.125	-0.186
-418.471	-200.000	0.007	-0.280
-417.457	-200.000	-0.039	-0.195
-416.442	-53.891	-0.254	-0.117
-415.428	-200.000	-0.016	-0.105
-414.413	-200.000	-0.054	-0.300
-413.398	740.137	-0.134	0.363
-412.384	-15.226	-0.185	0.120
-411.369	-70.266	0.015	-0.006
-410.355	-200.000	0.007	-0.088
-409.340	-130.439	0.224	-0.031
-408.325	-129.636	0.520	-0.073
-407.311	579.626	0.095	0.234
-406.296	228.985	-0.137	0.225
-405.282	32.668	-0.183	-0.160
-404.267	-114.455	0.214	0.042
-403.252	-32.942	0.262	-0.147
-402.238	-200.000	-0.024	0.265
-401.223	-96.410	-0.075	0.020
-400.209	-35.681	0.277	-0.151
-399.194	159.040	0.089	0.125
-398.179	340.599	0.072	-0.142
-397.165	353.958	0.147	0.294
-396.150	675.243	0.071	0.187
-395.136	-38.605	0.328	-0.175
-394.121	64.069	0.230	-0.233
-393.106	430.154	-0.212	-0.463
-392.092	-200.000	0.007	-0.189
-391.077	64.246	-0.033	-0.034
-390.063	-95.219	-0.089	-0.024
-389.048	47.278	0.105	0.099
-388.033	-114.434	0.174	-0.034
-387.019	-200.000	-0.001	0.048
-386.004	-60.233	-0.075	-0.032
-384.990	207.015	-0.060	-0.095
-383.975	136.217	0.115	-0.151
-382.960	-36.744	0.161	0.087
-381.946	271.681	0.036	-0.064
-380.931	64.230	0.113	-0.115
-379.917	-200.000	0.038	-0.312
-378.902	-35.437	-0.077	0.042
-377.888	78.441	0.206	0.222
-376.873	-200.000	0.065	-0.378
-375.858	-111.707	0.248	0.051
-374.844	408.044	-0.032	0.068
-373.829	321.492	0.191	0.367
-372.815	-155.968	-0.233	0.015
-371.800	-122.176	0.102	-0.017
-370.785	163.122	-0.250	-0.354
-369.771	-185.714	-0.078	-0.001
-368.756	179.508	0.222	-0.328
-367.742	-200.000	0.048	0.316
-366.727	-200.000	-0.017	-0.152
-365.712	-90.573	-0.115	0.034
-364.698	14.885	-0.222	0.175
-363.683	-70.216	-0.134	0.051
-362.669	-200.000	0.032	-0.150
-361.654	800.000	0.079	0.345
-360.639	800.000	0.022	0.073
-359.625	-200.000	-0.031	0.250
-358.610	-71.510	-0.046	0.017
-357.596	147.594	-0.101	0.137
-356.581	-200.000	-0.013	-0.349
-355.566	133.822	-0.294	0.384
-354.552	-143.942	-0.133	-0.013
-353.537	608.740	-0.218	0.548
-352.523	-138.912	0.286	-0.031
-351.508	-164.407	-0.303	0.014
-350.493	34.250	-0.093	0.082
-349.479	-37.720	0.278	-0.149
-348.464	723.946	-0.126	-0.338
-347.450	-157.273	-0.331	-0.020
-346.435	-200.000	0.005	0.035
-345.420	-200.000	-0.050	0.331
-344.406	-200.000	-0.015	0.266
-343.391	-38.533	-0.158	0.084
-342.377	3.832	-0.378	-0.278
-341.362	-65.148	0.244	0.099
-340.348	44.389	-0.089	0.082
-339.333	-25.284	0.079	-0.047
-338.318	-171.328	-0.085	-0.003
-337.304	-132.887	-0.066	-0.008
-336.289	50.194	0.104	-0.099
-335.275	341.141	0.114	0.225
-334.260	-200.000	0.021	0.324
-333.245	-200.000	-0.018	0.337
-332.231	-65.968	-0.124	0.050
-331.216	800.000	0.089	0.338
-330.202	-59.890	0.110	-0.047
-329.187	-27.475	-0.085	-0.050
-328.172	-24.999	-0.126	-0.075
-327.158	-97.989	-0.125	0.032
-326.143	800.000	-0.037	-0.105
-325.129	367.014	-0.140	-0.284
-324.114	-200.000	0.019	0.253
-323.099	18.459	0.133	0.107
-322.085	800.000	-0.054	0.184
-321.070	370.300	-0.139	-0.283
-320.056	-180.442	-0.215	-0.004
-319.041	15.969	-0.192	0.152
-318.026	55.863	0.269	0.263
-317.012	-75.606	0.022	0.008
-315.997	-78.567	-0.302	0.104
-314.983	622.155	-0.068	0.171
-313.968	-50.645	0.311	-0.148
-312.953	120.069	-0.286	0.357
-311.939	-49.207	-0.090	0.043
-310.924	-200.000	-0.013	-0.124
-309.910	-99.226	-0.047	-0.012
-308.895	151.976	0.176	0.242
-307.880	-200.000	0.041	-0.196
-306.866	-91.089	0.137	-0.039
-305.851	-141.687	0.068	-0.007
-304.837	-200.000	-0.037	0.305
-303.822	-130.420	-0.367	0.050
-302.807	497.648	0.146	-0.338
-301.793	-164.274	0.437	-0.020
-300.778	-200.000	0.009	0.136
-299.764	-135.736	-0.209	0.025
-298.749	12.499	0.347	-0.269
-297.735	-17.135	-0.204	-0.130
-296.720	289.628	-0.119	-0.217
-295.705	800.000	0.075	0.252
-294.691	-63.779	-0.090	-0.037
-293.676	295.365	0.090	0.166
-292.662	-95.351	0.215	0.058
-291.647	530.588	-0.138	-0.328
-290.632	-136.504	-0.212	0.025
-289.618	-108.053	-0.110	0.024
-288.603	2.109	0.061	0.044
-287.589	17.650	-0.210	-0.168
-286.574	-42.705	-0.326	-0.167
-285.559	35.367	0.121	0.107
-284.545	-74.019	0.405	-0.148
-283.530	96.019	-0.160	-0.183
-282.516	800.000	0.087	-0.274
-281.501	172.462	-0.130	-0.188
-280.486	441.213	-0.103	0.227
-279.472	28.432	0.102	-0.086
-278.457	11.410	-0.135	0.104
-277.443	10.680	-0.093	0.071
-276.428	64.580	0.215	-0.218
-275.413	800.000	-0.049	-0.153
-274.399	82.259	-0.150	-0.164
-273.384	-113.541	-0.252	-0.050
-272.370	-109.124	0.210	-0.045
-271.355	9.006	-0.299	-0.226
-270.340	800.000	0.120	-0.398
-269.326	-200.000	0.006	-0.033
-268.311	539.638	0.079	-0.188
-267.297	87.848	-0.213	-0.237
-266.282	78.728	0.092	0.099
-265.267	47.057	-0.059	0.055
-264.253	12.611	0.116	-0.090
-263.238	61.581	-0.185	0.185
-262.224	-174.498	0.041	-0.001
-261.209	374.370	0.116	0.237
-260.195	-2.272	-0.300	0.211
-259.180	-67.674	0.199	-0.078
-258.165	-86.479	0.409	0.126
-257.151	-200.000	-0.022	0.407
-256.136	-63.634	-0.304	-0.125
-255.122	-130.740	0.119	-0.016
-254.107	52.224	-0.107	0.103
-253.092	-171.705	0.318	0.010
-252.078	50.551	0.259	0.246
-251.063	-128.312	-0.024	-0.003
-250.049	-164.155	-0.298	0.014
-249.034	-18.256	-0.140	-0.088
-248.019	-200.000	0.005	0.072
-247.005	-74.306	0.296	-0.107
-245.990	-84.110	0.275	-0.088
-244.976	-53.841	0.184	0.084
-243.961	-2.158	0.155	0.109
-242.946	41.090	-0.251	-0.228
-241.932	-28.423	-0.253	0.147
-240.917	146.155	0.219	0.295
-239.903	-101.013	-0.238	0.059
-238.888	263.583	-0.060	0.105
-237.873	800.000	0.057	0.218
-236.859	-200.000	-0.009	-0.084
-235.844	-200.000	0.049	0.229
-234.830	547.149	-0.093	-0.223
-233.815	-200.000	-0.014	-0.147
-232.800	334.725	0.217	-0.422
-231.786	341.408	0.060	0.118
-230.771	-134.098	0.125	-0.015
-229.757	-96.430	-0.466	0.124
-228.742	-93.184	-0.296	0.082
-227.727	-71.609	-0.055	-0.021
-226.713	-123.868	0.307	0.049
-225.698	-115.160	-0.322	-0.061
-224.684	-180.570	0.296	-0.006
-223.669	311.762	0.060	0.113
-222.655	-200.000	0.054	-0.307
-221.640	28.326	-0.147	0.125
-220.625	-85.181	-0.367	-0.115
-219.611	53.174	-0.197	-0.190
-218.596	-200.000	-0.029	0.283
-217.582	-200.000	0.003	0.121
-216.567	-25.279	-0.105	-0.062
-215.552	39.112	0.020	-0.018
-214.538	6.884	-0.219	-0.164
-213.523	285.265	-0.153	-0.276
-212.509	-32.621	-0.383	-0.214
-211.494	-14.687	0.231	-0.149
-210.479	96.276	0.101	-0.116
-209.465	-126.391	0.209	-0.031
-208.450	-26.184	-0.363	0.214
-207.436	233.046	-0.143	0.236
-206.421	148.119	-0.197	-0.266
-205.406	-111.971	-0.278	0.056
-204.392	155.712	-0.062	0.085
-203.377	-32.067	0.233	0.131
-202.363	-200.000	0.006	-0.336
-201.348	-120.098	0.157	0.027
-200.333	-100.338	0.187	0.047
-199.319	-43.911	0.096	0.048
-198.304	47.132	-0.101	0.094
-197.290	-37.768	0.190	0.101
-196.275	-136.106	-0.213	-0.025
-195.260	-173.241	0.301	-0.009
-194.246	-200.000	0.006	0.434
-193.231	116.262	-0.325	-0.398
-192.217	800.000	0.069	0.192
-191.202	485.388	0.046	0.105
-190.187	-30.487	0.038	-0.022
-189.173	-166.509	-0.174	-0.007
-188.158	210.199	0.144	-0.227
-187.144	-200.000	-0.042	0.323
-186.129	-133.607	-0.231	0.029
-185.114	-200.000	-0.048	-0.259
-184.100	-50.611	-0.161	0.076
-183.085	-79.381	-0.155	0.052
-182.071	400.988	-0.029	-0.062
-181.056	197.558	0.148	-0.226
-180.042	800.000	-0.035	0.108
-179.027	64.368	-0.037	0.038
-178.012	800.000	-0.036	-0.124
-176.998	800.000	0.119	0.439
-175.983	-17.989	0.143	-0.090
-174.969	40.992	-0.134	0.121
-173.954	112.640	-0.182	-0.221
-172.939	-200.000	0.019	0.220
-171.925	-138.724	-0.311	-0.034
-170.910	-34.075	-0.037	-0.020
-169.896	440.048	-0.172	0.377
-168.881	-142.175	0.329	0.033
-167.866	544.781	-0.042	0.100
-166.852	354.175	-0.131	-0.260
-165.837	-79.922	0.251	-0.084
-164.823	800.000	0.058	-0.247
-163.808	-124.606	0.127	-0.020
-162.793	800.000	0.064	-0.271
-161.779	-46.846	0.267	0.131
-160.764	-200.000	-0.022	0.214
-159.750	-200.000	0.047	-0.438
-158.735	14.750	-0.087	-0.068
-157.720	-200.000	-0.051	0.387
-156.706	214.042	0.087	0.138
-155.691	-136.231	-0.360	-0.042
-154.677	800.000	-0.048	-0.136
-153.662	-87.821	0.269	0.081
-152.647	-106.603	-0.087	0.019
-151.633	800.000	0.103	0.316
-150.618	800.000	-0.112	-0.466
-149.604	-31.429	-0.273	-0.154
-148.589	-146.795	0.122	0.011
-147.574	170.263	-0.098	-0.140
-146.560	-132.334	-0.013	-0.002
-145.545	-106.707	0.039	0.009
-144.531	-12.912	-0.161	-0.105
-143.516	800.000	0.079	0.319
-142.502	-200.000	0.025	0.462
-141.487	-130.686	0.179	-0.024
-140.472	800.000	-0.117	-0.415
-139.458	692.638	-0.044	0.116
-138.443	-64.278	-0.170	0.069
-137.429	-85.940	0.154	0.048
-136.414	-49.060	-0.058	-0.028
-135.399	-100.640	0.259	-0.064
-134.385	286.611	0.059	0.107
-133.370	-73.066	-0.141	-0.052
-132.356	-7.598	-0.176	-0.119
-131.341	128.104	-0.184	-0.234
-130.326	-200.000	-0.053	0.245
-129.312	-94.711	0.290	0.079
-128.297	-23.323	0.276	-0.166
-127.283	103.458	0.178	-0.208
-126.268	-200.000	-0.012	0.186
-125.253	-200.000	0.029	0.273
-124.239	-79.470	0.104	0.035
-123.224	304.976	-0.164	0.305
-122.210	22.735	0.183	0.149
-121.195	-200.000	-0.030	0.162
-120.180	-66.375	0.174	-0.069
-119.166	158.420	0.046	-0.064
-118.151	-114.975	0.101	-0.019
-117.137	-116.502	-0.275	-0.051
-116.122	210.130	-0.122	0.191
-115.107	220.027	0.090	0.143
-114.093	374.794	0.082	0.168
-113.078	45.461	0.189	0.174
-112.064	800.000	-0.045	0.145
-111.049	-56.375	0.120	0.053
-110.034	47.357	0.098	0.091
-109.020	18.594	0.287	0.229
-108.005	-200.000	0.009	0.170
-106.991	432.358	-0.047	0.102
-105.976	-200.000	-0.028	-0.166
-104.962	-200.000	0.028	0.126
-103.947	-95.580	-0.224	0.060
-102.932	283.254	0.089	0.160
-101.918	-121.188	0.264	0.044
-100.903	800.000	-0.031	0.100
-99.889	9.835	-0.318	0.241
-98.874	-56.442	0.236	0.105
-97.859	173.096	0.291	0.418
-96.845	800.000	0.034	0.133
-95.830	16.336	-0.241	-0.190
-94.816	-148.924	0.265	0.021
-93.801	800.000	0.099	0.354
-92.786	-200.000	0.004	-0.312
-91.772	-200.000	0.041	-0.279
-90.757	23.488	0.189	-0.155
-89.743	1.288	0.171	0.123
-88.728	-34.143	-0.325	-0.178
-87.713	252.536	0.150	-0.255
-86.699	150.629	0.089	-0.121
-85.684	-100.962	0.232	-0.057
-84.670	-200.000	-0.017	-0.137
-83.655	-200.000	0.063	-0.342
-82.640	4.228	0.013	-0.010
-81.626	593.420	-0.094	-0.231
-80.611	-50.255	0.138	0.065
-79.597	800.000	-0.063	0.248
-78.582	125.244	0.103	-0.130
-77.567	800.000	-0.088	-0.362
-76.553	142.101	0.134	-0.177
-75.538	-200.000	-0.038	0.216
-74.524	172.158	-0.215	-0.309
-73.509	-37.390	0.128	-0.068
-72.494	-102.709	0.223	0.053
-71.480	202.574	0.112	0.172
-70.465	-87.905	-0.372	-0.111
-69.451	-60.736	0.037	0.016
-68.436	-144.563	0.293	0.027
-67.422	-49.293	-0.215	0.102
-66.407	159.151	0.054	-0.075
-65.392	-106.585	-0.286	-0.064
-64.378	-27.657	-0.453	-0.262
-63.363	800.000	-0.055	0.238
-62.349	137.781	-0.113	0.147
-61.334	-3.352	-0.632	-0.438
-60.319	53.977	0.167	0.160
-59.305	-200.000	-0.162	-0.819
-58.290	237.973	0.402	0.665
-57.276	800.000	0.360	1.385
-56.261	-200.000	75.849	531.952
-55.246	557.312	1308.103	3141.306
-54.232	145.140	2554.417	3404.374
-53.217	112.645	2355.569	2840.730
-52.203	51.586	1970.011	1865.317
-51.188	45.477	1757.644	1616.124
-50.173	42.527	1711.342	1550.757
-49.159	56.861	1745.639	1693.538
-48.144	62.481	1764.134	1755.054
-47.130	45.196	1727.885	1586.329
-46.115	42.031	1713.890	1548.981
-45.100	41.853	1709.240	1543.343
-44.086	41.786	1706.774	1540.538
-43.071	41.714	1704.131	1537.538
-42.057	41.739	1701.505	1535.300
-41.042	41.744	1699.317	1533.302
-40.027	41.801	1697.627	1532.153
-39.013	41.749	1695.617	1529.883
-37.998	41.652	1693.804	1527.441
-36.984	41.911	1692.059	1527.784
-35.969	41.996	1690.223	1526.712
-34.954	41.958	1689.104	1525.353
-33.940	41.984	1686.891	1523.491
-32.925	41.962	1684.880	1521.447
-31.911	41.894	1683.719	1519.828
-30.896	41.868	1681.945	1517.969
-29.881	41.895	1679.907	1516.273
-28.867	41.947	1677.675	1514.587
-27.852	41.859	1676.844	1513.115
-26.838	41.952	1675.017	1512.109
-25.823	41.999	1673.317	1510.867
-24.809	41.984	1671.784	1509.313
-23.794	41.983	1669.910	1507.554
-22.779	41.895	1668.847	1505.867
-21.765	41.962	1667.149	1504.783
-20.750	41.892	1665.646	1502.839
-19.736	41.975	1664.231	1502.129
-18.721	41.998	1662.494	1500.673
-17.706	41.876	1661.195	1498.528
-16.692	41.909	1659.589	1497.261
-15.677	41.925	1658.186	1496.057
-14.663	41.944	1656.999	1495.066
-13.648	41.960	1655.809	1494.059
-12.633	41.954	1653.839	1492.173
-11.619	41.963	1652.415	1490.894
-10.604	41.913	1650.653	1488.876
-9.590	41.992	1649.608	1488.465
-8.575	42.041	1647.650	1486.997
-7.560	42.006	1646.670	1485.795
-6.546	41.879	1645.469	1483.711
-5.531	41.924	1644.740	1483.332
-4.517	41.946	1643.419	1482.241
-3.502	41.926	1642.366	1481.086
-2.487	41.985	1640.812	1480.066
-1.473	41.896	1629.299	1468.967
-0.458	39.488	1609.296	1433.381
0.556	34.738	1608.745	1399.149
1.571	32.186	1633.120	1401.219
2.586	31.157	1647.621	1405.790
3.600	27.248	1592.703	1330.288
4.615	14.763	1470.302	1143.063
5.629	3.328	1393.754	1008.907
6.644	1.061	1383.656	986.763
7.659	0.844	1382.003	984.084
8.673	0.760	1381.063	982.780
9.688	0.695	1379.498	981.159
10.702	0.453	1376.667	977.489
11.717	4.621	1385.142	1010.550
12.731	16.108	1407.586	1102.325
13.746	23.877	1420.767	1163.610
14.761	24.505	1419.772	1166.794
15.775	24.461	1419.559	1166.231
16.790	24.557	1419.201	1166.462
17.804	24.514	1418.416	1165.432
18.819	24.707	1418.358	1166.541
19.834	24.843	1416.939	1166.155
20.848	24.715	1416.703	1165.020
21.863	24.724	1416.100	1164.484
22.877	24.874	1414.782	1164.270
23.892	24.846	1413.687	1163.087
24.907	24.824	1412.994	1162.271
25.921	24.739	1412.230	1160.985
26.936	24.787	1411.366	1160.487
27.950	24.797	1410.127	1159.430
28.965	24.786	1408.976	1158.306
29.980	24.851	1406.928	1156.942
30.994	24.815	1406.199	1156.010
32.009	24.878	1405.228	1155.515
33.023	24.753	1404.001	1153.595
34.038	24.823	1403.055	1153.170
35.053	24.733	1401.963	1151.592
36.067	24.819	1400.726	1151.026
37.082	24.761	1399.922	1149.891
38.096	24.850	1398.836	1149.465
39.111	24.731	1398.260	1148.132
40.126	24.752	1397.712	1147.713
41.140	24.801	1397.074	1147.398
42.155	24.841	1396.558	1147.129
43.169	24.790	1396.151	1146.368
44.184	24.776	1396.191	1146.213
45.199	24.758	1395.738	1145.620
46.213	24.721	1395.032	1144.706
47.228	24.820	1393.974	1144.369
48.242	24.801	1392.474	1142.913
49.257	24.739	1391.526	1141.640
50.271	24.756	1390.444	1140.757
51.286	24.760	1388.486	1139.075
52.301	24.754	1387.339	1137.997
53.315	24.690	1386.718	1136.982
54.330	24.804	1385.611	1136.694
55.344	24.787	1384.416	1135.507
56.359	24.727	1383.809	1134.529
57.374	24.741	1382.706	1133.615
58.388	24.871	1382.113	1133.850
59.403	24.755	1381.686	1132.662
60.417	24.730	1380.876	1131.745
61.432	24.714	1380.560	1131.284
62.447	24.866	1379.057	1130.912
63.461	24.832	1377.714	1129.494
64.476	24.839	1377.256	1129.062
65.490	24.845	1376.282	1128.200
66.505	24.769	1374.861	1126.458
67.520	24.861	1373.372	1125.718
68.534	24.850	1372.509	1124.841
69.549	24.850	1371.337	1123.782
70.563	24.817	1370.459	1122.756
71.578	24.697	1369.571	1121.174
72.593	24.694	1368.821	1120.448
73.607	24.826	1367.741	1120.286
74.622	24.815	1367.103	1119.600
75.636	24.774	1366.988	1119.146
76.651	24.744	1365.888	1117.963
77.666	24.704	1365.710	1117.468
78.680	24.764	1364.745	1116.952
79.695	24.816	1363.877	1116.469
80.709	24.812	1363.164	1115.758
81.724	24.835	1362.126	1114.954
82.739	24.730	1361.195	1113.442
83.753	24.686	1360.508	1112.506
84.768	24.858	1358.838	1112.111
85.782	24.737	1357.942	1110.527
86.797	24.734	1356.894	1109.551
87.812	24.818	1355.278	1108.654
88.826	24.734	1354.749	1107.605
89.841	24.811	1353.579	1107.028
90.855	24.857	1352.354	1106.212
91.870	24.800	1351.564	1105.112
92.884	24.869	1350.755	1104.778
93.899	24.809	1350.114	1103.789
94.914	24.854	1348.744	1102.845
95.928	24.793	1348.437	1102.122
96.943	24.803	1347.605	1101.410
97.957	24.817	1347.208	1101.072
98.972	24.915	1345.944	1100.545
99.987	24.867	1344.817	1099.230
101.001	24.770	1343.834	1097.731
102.016	24.714	1343.020	1096.630
103.030	24.866	1342.190	1096.787
104.045	24.754	1341.703	1095.605
105.060	24.854	1340.199	1094.889
106.074	24.913	1339.191	1094.329
107.089	24.848	1338.353	1093.154
108.103	24.859	1337.109	1092.108
109.118	24.850	1336.368	1091.348
110.133	24.913	1334.975	1090.501
111.147	24.970	1333.602	1089.628
112.162	24.869	1332.826	1088.284
113.176	24.993	1331.556	1087.906
114.191	25.051	1330.183	1087.037
115.206	24.936	1329.775	1085.908
116.220	24.854	1328.332	1084.139
117.235	24.893	1327.619	1083.697
118.249	24.883	1326.833	1082.899
119.264	24.952	1325.667	1082.268
120.279	24.942	1325.199	1081.734
121.293	24.917	1324.590	1080.990
122.308	25.034	1323.225	1080.485
123.322	24.966	1322.749	1079.591
124.337	25.000	1321.757	1078.890
125.352	24.960	1320.972	1077.912
126.366	25.010	1319.800	1077.160
127.381	24.974	1319.136	1076.309
128.395	24.984	1318.336	1075.617
129.410	24.956	1317.677	1074.821
130.424	25.061	1316.374	1074.292
131.439	24.993	1315.631	1073.180
132.454	24.984	1315.226	1072.701
133.468	25.014	1314.134	1071.894
134.483	24.964	1313.895	1071.305
135.497	24.993	1312.915	1070.587
136.512	24.916	1312.122	1069.383
137.527	25.006	1310.782	1068.735
138.541	25.070	1309.419	1067.911
139.556	25.010	1308.424	1066.649
140.570	24.985	1307.325	1065.511
141.585	24.922	1306.374	1064.264
142.600	24.978	1305.010	1063.394
143.614	24.996	1304.190	1062.738
144.629	24.949	1303.183	1061.547
145.643	24.999	1302.049	1060.822
146.658	24.909	1300.974	1059.317
147.673	24.954	1300.431	1059.052
148.687	24.816	1299.606	1057.468
149.702	24.957	1297.957	1056.865
150.716	24.884	1297.027	1055.587
151.731	24.940	1295.733	1054.768
152.746	24.978	1294.950	1054.264
153.760	25.024	1293.629	1053.361
154.775	25.071	1292.451	1052.586
155.789	24.996	1291.857	1051.567
156.804	24.927	1290.963	1050.343
157.819	24.966	1289.714	1049.462
158.833	25.040	1289.081	1049.289
159.848	24.997	1288.272	1048.288
160.862	24.955	1287.716	1047.493
161.877	24.977	1286.635	1046.654
162.892	25.027	1285.882	1046.238
163.906	25.033	1285.398	1045.788
164.921	24.935	1284.807	1044.639
165.935	25.013	1283.970	1044.322
166.950	25.032	1283.388	1043.867
167.964	25.047	1282.624	1043.239
168.979	25.160	1281.813	1043.148
169.994	25.030	1281.519	1042.060
171.008	25.005	1281.055	1041.443
172.023	25.086	1279.934	1040.914
173.037	25.081	1279.381	1040.340
174.052	25.089	1278.465	1039.550
175.067	25.191	1277.337	1039.132
176.081	25.020	1276.761	1037.584
177.096	24.989	1275.854	1036.573
178.110	25.122	1274.658	1036.279
179.125	25.122	1274.128	1035.757
180.140	25.130	1272.991	1034.788
181.154	25.103	1271.843	1033.604
182.169	25.113	1270.390	1032.389
183.183	25.071	1270.226	1031.922
184.198	25.026	1268.817	1030.432
185.213	25.175	1267.243	1029.917
186.227	25.164	1266.778	1029.384
187.242	25.174	1266.117	1028.813
188.256	25.175	1265.203	1027.987
189.271	25.034	1264.182	1026.259
190.286	25.053	1263.945	1026.083
191.300	25.196	1262.879	1025.946
192.315	24.975	1262.869	1024.582
193.329	25.109	1262.054	1024.598
194.344	25.268	1261.485	1024.951
195.359	25.205	1261.134	1024.216
196.373	25.120	1260.592	1023.197
197.388	25.080	1260.269	1022.621
198.402	25.160	1259.779	1022.585
199.417	25.145	1259.469	1022.162
200.432	25.092	1258.819	1021.240
201.446	25.227	1257.553	1020.889
202.461	25.240	1257.190	1020.580
203.475	25.193	1256.356	1019.543
204.490	25.124	1255.022	1017.981
205.504	25.198	1254.558	1017.931
206.519	25.194	1253.634	1017.068
207.534	25.259	1252.573	1016.488
208.548	25.198	1251.584	1015.248
209.563	25.268	1250.875	1014.981
210.577	25.194	1250.028	1013.789
211.592	25.190	1249.122	1012.939
212.607	25.359	1248.311	1013.146
213.621	25.297	1247.474	1012.024
214.636	25.310	1246.600	1011.301
215.650	25.339	1246.230	1011.077
216.665	25.215	1244.992	1009.285
217.680	25.240	1244.395	1008.849
218.694	25.248	1243.490	1008.073
219.709	25.211	1243.003	1007.382
220.723	25.276	1242.147	1006.966
221.738	25.170	1241.689	1005.911
222.753	25.270	1240.412	1005.345
223.767	25.260	1239.469	1004.434
224.782	25.411	1239.209	1004.982
225.796	25.354	1239.233	1004.592
226.811	25.330	1238.389	1003.686
227.826	25.318	1237.793	1003.045
228.840	25.421	1236.953	1002.850
229.855	25.304	1236.581	1001.809
230.869	25.437	1235.465	1001.555
231.884	25.448	1234.795	1000.987
232.899	25.329	1234.057	999.639
233.913	25.321	1233.883	999.365
234.928	25.368	1233.221	999.003
235.942	25.523	1232.462	999.161
236.957	25.429	1231.578	997.830
237.972	25.452	1230.612	997.089
238.986	25.391	1230.505	996.577
240.001	25.497	1229.831	996.528
241.015	25.647	1228.893	996.511
242.030	25.570	1227.939	995.225
243.045	25.500	1227.515	994.406
244.059	25.587	1226.450	993.937
245.074	25.662	1225.292	993.323
246.088	25.552	1224.879	992.294
247.103	25.538	1224.566	991.874
248.117	25.527	1223.725	991.042
249.132	25.623	1222.346	990.366
250.147	25.632	1222.050	990.091
251.161	25.625	1221.578	989.583
252.176	25.601	1220.607	988.574
253.190	25.659	1219.928	988.258
254.205	25.636	1219.474	987.673
255.220	25.572	1218.915	986.787
256.234	25.606	1218.691	986.704
257.249	25.720	1217.447	986.235
258.263	25.697	1216.981	985.641
259.278	25.610	1216.525	984.709
260.293	25.608	1215.893	984.097
261.307	25.641	1215.513	983.884
262.322	25.736	1214.527	983.518
263.336	25.654	1214.087	982.630
264.351	25.602	1213.550	981.820
265.366	25.663	1212.797	981.460
266.380	25.701	1211.880	980.838
267.395	25.699	1211.287	980.261
268.409	25.598	1210.754	979.190
269.424	25.688	1210.300	979.226
270.439	25.793	1209.505	979.068
271.453	25.737	1209.179	978.415
272.468	25.682	1208.140	977.190
273.482	25.599	1207.406	976.058
274.497	25.773	1207.021	976.605
275.512	25.850	1206.464	976.481
276.526	25.821	1205.625	975.561
277.541	25.743	1205.139	974.658
278.555	25.837	1204.247	974.359
279.570	25.705	1203.932	973.305
280.585	25.872	1202.830	973.228
281.599	25.784	1201.761	971.803
282.614	25.824	1201.298	971.559
283.628	25.849	1200.374	970.859
284.643	25.764	1199.652	969.734
285.657	25.711	1198.840	968.705
286.672	25.870	1197.526	968.415
287.687	25.790	1197.326	967.734
288.701	25.901	1196.345	967.454
289.716	25.882	1195.965	966.956
290.730	25.921	1194.980	966.287
291.745	25.996	1194.423	966.150
292.760	25.932	1193.925	965.321
293.774	26.009	1193.043	964.932
294.789	25.917	1192.997	964.317
295.803	25.890	1192.509	963.696
296.818	25.915	1191.585	962.999
297.833	26.005	1191.012	962.929
298.847	25.979	1189.798	961.723
299.862	26.082	1189.355	961.827
300.876	26.076	1188.109	960.706
301.891	26.141	1187.484	960.461
302.906	26.130	1187.121	960.024
303.920	26.108	1186.515	959.332
304.935	26.081	1185.758	958.490
305.949	26.132	1185.092	958.135
306.964	26.172	1184.472	957.764
307.979	26.119	1184.031	957.041
308.993	26.047	1183.347	956.021
310.008	26.124	1182.891	955.975
311.022	26.120	1182.033	955.177
312.037	26.179	1181.111	954.660
313.052	26.011	1180.259	952.998
314.066	26.133	1179.425	952.888
315.081	26.052	1178.990	952.026
316.095	26.136	1178.153	951.708
317.110	26.161	1177.209	950.993
318.125	26.217	1176.815	950.882
319.139	26.212	1176.066	950.165
320.154	26.153	1175.937	949.671
321.168	26.147	1175.429	949.141
322.183	26.206	1174.579	948.683
323.197	26.222	1173.909	948.143
324.212	26.257	1173.109	947.597
325.227	26.165	1172.890	946.854
326.241	26.274	1172.070	946.678
327.256	26.306	1171.280	946.125
328.270	26.215	1170.896	945.255
329.285	26.195	1170.111	944.433
330.300	26.182	1169.157	943.510
331.314	26.256	1168.010	942.884
332.329	26.234	1167.758	942.483
333.343	26.377	1166.754	942.337
334.358	26.361	1165.793	941.394
335.373	26.383	1165.105	940.868
336.387	26.366	1164.392	940.120
337.402	26.420	1164.005	940.004
338.416	26.468	1163.230	939.549
339.431	26.414	1162.634	938.701
340.446	26.436	1162.236	938.413
341.460	26.437	1161.639	937.851
342.475	26.426	1160.739	936.984
343.489	26.346	1159.956	935.856
344.504	26.421	1158.690	935.139
345.519	26.460	1157.881	934.604
346.533	26.531	1157.255	934.385
347.548	26.421	1156.561	933.174
348.562	26.498	1155.708	932.802
349.577	26.523	1155.050	932.317
350.592	26.439	1154.152	931.073
351.606	26.410	1153.877	930.622
352.621	26.436	1153.385	930.277
353.635	26.531	1152.791	930.205
354.650	26.585	1151.843	929.632
355.665	26.564	1151.135	928.873
356.679	26.568	1150.847	928.579
357.694	26.696	1149.865	928.358
358.708	26.556	1149.451	927.224
359.723	26.606	1148.915	926.966
360.738	26.546	1148.438	926.195
361.752	26.611	1147.627	925.788
362.767	26.678	1146.969	925.521
363.781	26.841	1146.098	925.564
364.796	26.793	1145.531	924.784
365.810	26.733	1145.153	924.089
366.825	26.698	1144.782	923.529
367.840	26.696	1144.267	923.022
368.854	26.816	1143.260	922.739
369.869	26.736	1142.937	921.988
370.883	26.789	1141.814	921.270
371.898	26.842	1140.938	920.750
372.913	26.756	1140.861	920.170
373.927	26.868	1139.740	919.756
374.942	26.756	1139.743	919.108
375.956	26.807	1139.214	918.859
376.971	26.862	1138.195	918.232
377.986	26.732	1137.925	917.276
379.000	26.811	1137.702	917.415
380.015	26.889	1137.048	917.199
381.029	26.766	1136.277	915.874
382.044	26.796	1135.719	915.497
383.059	26.906	1135.084	915.461
384.073	26.991	1133.956	914.898
385.088	26.884	1133.123	913.605
386.102	26.959	1132.861	913.689
387.117	27.009	1131.414	912.694
388.132	26.797	1131.011	911.224
389.146	26.958	1130.098	911.214
390.161	27.105	1129.281	911.211
391.175	26.848	1129.295	909.857
392.190	27.102	1128.102	910.084
393.205	27.003	1127.429	908.967
394.219	26.969	1126.605	908.053
395.234	26.983	1126.020	907.567
396.248	27.161	1124.973	907.532
397.263	27.111	1124.010	906.428
398.278	27.099	1123.483	905.862
399.292	27.132	1122.974	905.535
400.307	27.120	1122.183	904.759
401.321	27.085	1122.034	904.382
402.336	27.060	1121.312	903.600
403.350	27.088	1120.401	902.925
404.365	27.077	1119.879	902.366
405.380	27.115	1119.397	902.090
406.394	27.167	1118.415	901.477
407.409	27.278	1117.365	901.098
408.423	27.220	1116.580	900.099
409.438	27.295	1116.346	900.204
410.453	27.272	1115.441	899.280
411.467	27.322	1114.667	898.822
412.482	27.213	1114.250	897.868
413.496	27.237	1113.623	897.402
414.511	27.184	1112.948	896.520
415.526	27.264	1112.162	896.197
416.540	27.194	1112.288	895.875
417.555	27.376	1111.298	895.894
418.569	27.353	1111.061	895.511
419.584	27.343	1110.382	894.836
420.599	27.393	1109.868	894.590
421.613	84.148	1294.598	1356.280
422.628	78.971	1321.535	1356.393
