DTS Sentinel unit serial number:	SN413079Multiplexer serial number:	ORYXHardware model number:	OX4-SRSoftware version number:	ORYX F/W v4.00 Oryx Data Collector v3.7.2.0data status	okinstallation	princeton_trtdifferential loss correction	single-endedforward channel	channel 2reverse channel	N/Adate	2019/09/12time	03:13:10forward acquisition time	60.00reverse acquisition time	0.00gamma	496.2192k internal	0.2327k external	0.2327temperature offset calibration	1.0090default loss term (dB/km)	0.3790temperature slope calibration	1.0000multiplexer offset coefficient	1.0000multiplexer slope coefficient	1.0000fibre end	0.00T internal ref (°C)	32.28T ext. ref 1 (°C)	2.11T ext. ref 2 (°C)	27.17length (m)	temperature (°C)	Stokes	anti-Stokes-747.200	2.779	-0.235	0.172
-746.185	40.094	-0.287	0.260
-745.171	-152.054	0.130	0.010
-744.156	-148.173	-0.275	0.023
-743.142	120.514	-0.108	-0.135
-742.127	41.416	-0.195	-0.178
-741.112	800.000	0.012	0.045
-740.098	225.884	0.128	-0.210
-739.083	-51.795	0.301	0.141
-738.069	72.131	0.133	0.140
-737.054	-200.000	0.057	0.271
-736.039	-133.483	-0.328	0.041
-735.025	91.557	-0.126	-0.143
-734.010	131.392	-0.254	0.330
-732.996	-119.300	0.049	-0.009
-731.981	411.381	-0.181	-0.388
-730.966	24.215	-0.295	0.245
-729.952	800.000	0.061	-0.247
-728.937	-200.000	0.005	-0.337
-727.923	800.000	-0.054	-0.235
-726.908	9.340	-0.289	0.221
-725.894	-47.520	-0.225	-0.110
-724.879	-200.000	0.031	0.357
-723.864	-140.185	-0.213	-0.022
-722.850	-155.519	-0.252	0.016
-721.835	71.670	0.135	-0.141
-720.821	-200.000	-0.006	-0.142
-719.806	-151.085	-0.475	0.036
-718.791	-200.000	-0.055	-0.281
-717.777	79.413	-0.129	-0.139
-716.762	-122.521	0.202	-0.033
-715.748	45.502	0.170	-0.158
-714.733	800.000	-0.057	-0.159
-713.718	800.000	-0.090	0.290
-712.704	800.000	-0.087	0.348
-711.689	-65.300	-0.266	-0.108
-710.675	-200.000	0.014	-0.289
-709.660	800.000	0.054	-0.227
-708.645	53.586	0.065	-0.062
-707.631	-200.000	-0.005	0.110
-706.616	77.709	0.128	-0.137
-705.602	196.262	0.091	-0.139
-704.587	-133.341	-0.180	0.023
-703.572	130.738	-0.264	-0.341
-702.558	34.285	-0.124	-0.109
-701.543	76.181	-0.139	-0.149
-700.529	-200.000	0.029	0.212
-699.514	462.069	0.097	0.217
-698.499	9.595	0.173	-0.132
-697.485	-18.324	0.123	0.078
-696.470	-27.723	0.168	-0.098
-695.456	98.909	-0.110	-0.127
-694.441	-200.000	0.004	-0.196
-693.426	80.783	-0.167	-0.181
-692.412	-84.670	-0.356	0.113
-691.397	-200.000	-0.017	0.147
-690.383	-175.969	-0.275	0.007
-689.368	-200.000	-0.006	0.122
-688.354	3.325	0.177	0.129
-687.339	285.594	-0.068	-0.123
-686.324	419.972	0.050	-0.108
-685.310	-200.000	-0.039	-0.239
-684.295	112.869	0.080	0.097
-683.281	-15.599	0.221	0.142
-682.266	-51.418	-0.198	-0.093
-681.251	498.042	0.034	0.078
-680.237	-37.076	-0.494	-0.266
-679.222	-85.268	-0.175	-0.055
-678.208	88.139	0.091	-0.102
-677.193	800.000	0.043	0.188
-676.178	43.991	-0.176	0.162
-675.164	25.471	0.128	0.107
-674.149	20.303	-0.325	-0.264
-673.135	-106.535	-0.211	0.047
-672.120	356.304	0.057	-0.114
-671.105	-89.444	0.437	-0.129
-670.091	300.056	-0.084	-0.156
-669.076	38.487	-0.078	-0.070
-668.062	106.078	0.054	0.064
-667.047	154.647	0.090	-0.125
-666.032	-144.235	-0.429	0.040
-665.018	79.272	0.081	0.088
-664.003	541.767	-0.032	-0.076
-662.989	-104.374	-0.100	0.023
-661.974	800.000	-0.057	0.188
-660.959	800.000	-0.079	-0.330
-659.945	800.000	0.076	-0.247
-658.930	-25.352	-0.174	0.103
-657.916	800.000	0.124	-0.383
-656.901	105.064	-0.108	0.128
-655.886	105.607	0.128	-0.152
-654.872	-200.000	0.025	-0.321
-653.857	-30.515	0.112	0.064
-652.843	112.096	-0.082	-0.100
-651.828	800.000	-0.051	0.208
-650.814	800.000	0.007	0.022
-649.799	-200.000	0.011	0.233
-648.784	110.426	0.040	-0.049
-647.770	303.574	0.318	-0.593
-646.755	800.000	-0.030	0.095
-645.741	-200.000	-0.028	-0.336
-644.726	117.144	0.113	0.139
-643.711	-200.000	-0.014	-0.154
-642.697	91.695	-0.098	0.111
-641.682	467.963	-0.116	-0.260
-640.668	69.015	0.221	-0.228
-639.653	48.234	-0.103	0.097
-638.638	-142.075	0.335	0.033
-637.624	-138.438	-0.308	0.034
-636.609	-80.437	-0.368	-0.123
-635.595	140.063	-0.252	-0.334
-634.580	40.505	0.030	-0.027
-633.565	296.041	0.157	-0.289
-632.551	658.700	0.058	-0.151
-631.536	-101.728	0.228	-0.056
-630.522	63.351	-0.194	-0.196
-629.507	609.942	0.129	-0.323
-628.492	-154.954	-0.136	-0.009
-627.478	800.000	-0.121	0.364
-626.463	-200.000	-0.001	-0.078
-625.449	-173.712	0.305	0.009
-624.434	-109.340	0.071	0.015
-623.419	625.970	-0.181	-0.458
-622.405	-49.481	0.287	0.137
-621.390	-200.000	-0.019	-0.116
-620.376	-200.000	0.015	-0.210
-619.361	-127.715	-0.199	0.029
-618.346	41.993	-0.133	0.121
-617.332	69.721	0.040	-0.042
-616.317	-200.000	0.003	-0.110
-615.303	-200.000	0.003	0.046
-614.288	-200.000	0.056	-0.299
-613.273	-153.258	-0.109	-0.008
-612.259	800.000	0.068	-0.220
-611.244	21.178	-0.066	0.053
-610.230	520.457	-0.075	-0.177
-609.215	-200.000	0.015	0.100
-608.201	-76.203	0.264	-0.093
-607.186	-129.895	-0.258	-0.036
-606.171	-123.436	-0.102	-0.016
-605.157	800.000	0.039	0.112
-604.142	-69.998	-0.066	-0.025
-603.128	-74.824	0.123	0.044
-602.113	-57.206	-0.165	-0.073
-601.098	-30.113	-0.203	0.116
-600.084	-148.552	-0.211	0.017
-599.069	-200.000	0.013	0.144
-598.055	-189.308	0.106	0.001
-597.040	245.611	-0.098	0.166
-596.025	-200.000	0.002	0.030
-595.011	-200.000	0.050	-0.578
-593.996	38.943	-0.177	-0.158
-592.982	45.269	-0.112	0.104
-591.967	-38.238	-0.216	0.115
-590.952	75.092	0.170	0.179
-589.938	-167.686	-0.143	0.006
-588.923	-200.000	0.064	0.360
-587.909	-106.578	0.077	0.017
-586.894	-97.255	0.184	-0.048
-585.879	74.104	0.067	0.071
-584.865	9.739	0.179	-0.136
-583.850	-21.615	0.374	0.228
-582.836	-200.000	0.005	-0.197
-581.821	800.000	-0.032	-0.132
-580.806	182.420	0.086	0.127
-579.792	-145.403	-0.027	0.002
-578.777	302.849	-0.095	0.176
-577.763	-61.957	-0.243	-0.102
-576.748	31.336	0.134	0.116
-575.733	100.678	0.183	0.213
-574.719	800.000	0.054	-0.214
-573.704	69.875	-0.218	0.226
-572.690	800.000	0.042	-0.153
-571.675	800.000	-0.063	0.252
-570.661	-200.000	-0.044	0.221
-569.646	79.917	-0.211	0.227
-568.631	-67.985	-0.133	0.052
-567.617	155.376	-0.232	0.320
-566.602	-30.731	0.255	0.145
-565.588	-200.000	0.009	-0.357
-564.573	13.238	0.094	-0.073
-563.558	-145.484	0.335	0.030
-562.544	-88.243	0.110	0.033
-561.529	294.178	0.186	-0.340
-560.515	-0.003	0.482	0.344
-559.500	-164.949	-0.141	0.006
-558.485	-118.685	-0.088	-0.015
-557.471	-169.621	0.108	0.004
-556.456	-200.000	-0.012	0.066
-555.442	-44.728	-0.170	0.085
-554.427	66.669	-0.088	-0.089
-553.412	519.534	0.035	0.082
-552.398	-175.654	0.360	-0.010
-551.383	-57.491	-0.044	0.019
-550.369	348.807	0.207	0.409
-549.354	135.016	-0.056	0.072
-548.339	800.000	0.093	0.343
-547.325	-200.000	-0.035	0.375
-546.310	-31.702	-0.285	-0.160
-545.296	56.564	0.192	0.186
-544.281	-116.205	-0.253	-0.047
-543.266	-159.057	0.135	-0.008
-542.252	275.523	-0.123	-0.219
-541.237	-200.000	0.008	-0.288
-540.223	-85.817	-0.420	0.130
-539.208	-200.000	-0.046	-0.344
-538.193	-76.276	0.257	-0.091
-537.179	-14.329	0.290	0.187
-536.164	169.334	0.118	-0.168
-535.150	4.901	-0.021	0.015
-534.135	3.446	0.039	0.029
-533.121	800.000	-0.154	-0.544
-532.106	-98.084	0.179	-0.046
-531.091	92.055	-0.275	-0.310
-530.077	-22.101	-0.223	0.136
-529.062	-104.053	-0.210	0.049
-528.048	-200.000	-0.009	0.048
-527.033	-200.000	0.032	0.174
-526.018	238.343	-0.126	-0.209
-525.004	-200.000	-0.040	-0.410
-523.989	-68.202	-0.168	-0.065
-522.975	750.263	0.043	-0.117
-521.960	-170.524	-0.117	-0.004
-520.945	-14.415	0.130	-0.084
-519.931	111.665	0.123	-0.148
-518.916	50.476	-0.077	-0.072
-517.902	122.183	0.119	-0.148
-516.887	98.241	-0.112	0.129
-515.872	651.247	-0.176	-0.452
-514.858	20.236	-0.293	-0.236
-513.843	-56.253	-0.203	0.090
-512.829	800.000	0.068	0.233
-511.814	41.595	0.277	-0.251
-510.799	-108.049	-0.065	-0.014
-509.785	-61.159	0.502	0.211
-508.770	-4.431	-0.309	-0.214
-507.756	800.000	-0.085	-0.248
-506.741	739.734	0.099	0.266
-505.726	201.109	-0.238	-0.366
-504.712	15.149	-0.034	-0.027
-503.697	-200.000	-0.027	-0.434
-502.683	59.271	-0.157	-0.154
-501.668	-58.352	-0.356	0.155
-500.653	-34.943	-0.177	-0.096
-499.639	-200.000	-0.001	0.255
-498.624	-200.000	-0.025	-0.121
-497.610	6.525	0.083	-0.062
-496.595	356.991	-0.024	0.048
-495.581	-200.000	0.030	0.167
-494.566	198.395	-0.036	-0.055
-493.551	325.176	-0.189	-0.360
-492.537	79.357	-0.096	0.102
-491.522	36.131	0.111	0.098
-490.508	335.830	-0.234	-0.454
-489.493	-54.001	0.149	-0.068
-488.478	74.810	-0.104	-0.109
-487.464	800.000	0.041	0.118
-486.449	100.747	0.077	-0.089
-485.435	-59.100	-0.303	-0.130
-484.420	-94.430	0.348	0.095
-483.405	800.000	-0.117	-0.332
-482.391	-200.000	0.016	-0.228
-481.376	-127.307	0.438	-0.064
-480.362	-200.000	0.021	0.179
-479.347	-36.304	-0.254	0.137
-478.332	15.923	0.097	0.076
-477.318	-200.000	-0.012	0.092
-476.303	-200.000	0.002	0.131
-475.289	-175.164	-0.040	-0.001
-474.274	800.000	-0.063	0.191
-473.259	245.238	-0.104	-0.175
-472.245	4.854	0.085	-0.062
-471.230	-200.000	0.050	0.323
-470.216	171.514	0.179	0.256
-469.201	-130.080	0.152	0.021
-468.186	-10.915	-0.278	0.183
-467.172	249.426	-0.107	-0.182
-466.157	136.911	-0.116	-0.151
-465.143	107.923	0.111	0.132
-464.128	28.615	0.232	0.196
-463.113	-200.000	0.041	-0.180
-462.099	254.166	-0.122	-0.209
-461.084	-59.711	-0.179	-0.077
-460.070	-92.289	0.178	-0.050
-459.055	449.046	0.201	-0.442
-458.040	-169.613	0.272	0.010
-457.026	152.747	0.047	-0.064
-456.011	513.142	0.087	-0.202
-454.997	-160.122	-0.330	-0.018
-453.982	-19.212	0.196	-0.121
-452.968	-185.697	-0.064	0.001
-451.953	188.787	-0.143	-0.213
-450.938	263.095	-0.095	-0.165
-449.924	-90.784	0.162	0.047
-448.909	-200.000	0.021	-0.105
-447.895	-83.416	-0.389	0.124
-446.880	52.989	-0.266	0.254
-445.865	251.956	-0.138	0.235
-444.851	674.723	0.071	-0.183
-443.836	-200.000	-0.003	-0.265
-442.822	-114.993	-0.116	-0.022
-441.807	37.704	0.163	0.144
-440.792	-56.478	-0.246	0.109
-439.778	2.786	-0.288	0.208
-438.763	-111.250	0.244	-0.050
-437.749	68.182	0.121	0.124
-436.734	575.851	0.079	-0.192
-435.719	-115.433	-0.150	0.028
-434.705	-117.914	-0.382	-0.068
-433.690	436.944	-0.106	-0.230
-432.676	21.229	0.359	-0.290
-431.661	119.080	0.087	0.108
-430.646	800.000	-0.091	0.319
-429.632	-138.617	-0.244	0.027
-428.617	-5.008	0.301	0.207
-427.603	-200.000	-0.033	0.168
-426.588	5.706	-0.245	-0.181
-425.573	-200.000	0.032	0.145
-424.559	109.575	-0.031	-0.037
-423.544	-102.813	0.341	0.081
-422.530	485.731	0.018	-0.040
-421.515	14.357	0.110	0.085
-420.500	-85.817	0.119	0.037
-419.486	468.880	0.093	-0.208
-418.471	343.316	0.083	0.162
-417.457	2.067	0.238	0.171
-416.442	480.057	-0.108	0.244
-415.428	132.253	-0.172	0.221
-414.413	157.821	0.087	0.120
-413.398	-200.000	-0.012	-0.161
-412.384	-62.358	0.119	0.049
-411.369	-55.450	0.042	0.019
-410.355	4.377	-0.150	0.110
-409.340	-200.000	-0.032	0.237
-408.325	262.820	0.098	0.169
-407.311	-97.594	0.237	-0.061
-406.296	-105.781	0.517	-0.116
-405.282	-135.109	-0.246	0.029
-404.267	-200.000	0.002	-0.049
-403.252	148.441	0.122	0.164
-402.238	-129.721	0.058	-0.008
-401.223	-62.353	0.156	-0.065
-400.209	459.453	0.118	-0.261
-399.194	584.766	0.189	-0.461
-398.179	-29.381	0.100	-0.057
-397.165	-200.000	0.022	0.450
-396.150	426.264	-0.120	-0.256
-395.136	121.867	0.141	-0.175
-394.121	-79.309	-0.247	0.083
-393.106	-158.893	-0.240	-0.014
-392.092	413.169	-0.149	0.315
-391.077	-95.196	-0.180	-0.048
-390.063	-11.888	-0.055	-0.036
-389.048	-76.653	0.234	-0.082
-388.033	-25.382	-0.054	-0.032
-387.019	-109.865	-0.052	0.011
-386.004	-102.935	0.112	0.026
-384.990	-72.298	0.279	0.103
-383.975	800.000	-0.020	-0.087
-382.960	-86.653	-0.178	0.054
-381.946	364.463	0.075	0.150
-380.931	48.252	0.160	0.149
-379.917	-54.882	0.406	-0.182
-378.902	114.836	-0.067	0.081
-377.888	291.158	0.041	-0.074
-376.873	-158.141	0.180	-0.010
-375.858	-58.074	0.176	-0.076
-374.844	116.892	-0.109	0.134
-373.829	-200.000	-0.068	0.359
-372.815	800.000	-0.090	-0.367
-371.800	121.621	0.079	0.098
-370.785	142.858	-0.152	0.201
-369.771	-55.382	-0.257	0.115
-368.756	53.158	0.255	0.243
-367.742	-200.000	0.025	0.149
-366.727	-200.000	0.012	0.385
-365.712	-50.984	-0.381	0.178
-364.698	-84.485	0.123	0.038
-363.683	-129.649	-0.247	-0.034
-362.669	-133.839	0.296	-0.037
-361.654	-136.379	-0.102	0.012
-360.639	-82.076	0.297	0.096
-359.625	-200.000	-0.056	0.512
-358.610	800.000	-0.045	0.194
-357.596	800.000	0.073	-0.244
-356.581	51.522	-0.025	-0.023
-355.566	-99.838	-0.135	-0.034
-354.552	-129.636	0.044	-0.006
-353.537	-141.998	0.287	-0.028
-352.523	-126.390	0.133	0.020
-351.508	-133.718	0.120	-0.015
-350.493	-68.338	-0.087	0.034
-349.479	-43.195	0.213	0.107
-348.464	70.234	0.383	-0.393
-347.450	-200.000	-0.000	-0.123
-346.435	-54.140	-0.021	0.010
-345.420	326.968	0.143	0.272
-344.406	-200.000	-0.043	0.189
-343.391	-37.727	-0.347	-0.184
-342.377	-65.362	0.270	0.108
-341.362	89.688	0.185	0.205
-340.348	-12.047	-0.068	0.044
-339.333	-93.053	-0.172	0.048
-338.318	-200.000	-0.011	0.060
-337.304	355.710	0.083	0.164
-336.289	-164.531	-0.140	-0.006
-335.275	-132.607	-0.201	-0.026
-334.260	-33.305	-0.147	-0.080
-333.245	27.047	0.194	-0.162
-332.231	-46.600	-0.115	0.056
-331.216	800.000	-0.174	0.567
-330.202	-19.387	0.248	0.153
-329.187	97.131	0.110	0.125
-328.172	-200.000	-0.025	-0.212
-327.158	60.040	-0.197	-0.193
-326.143	-55.811	0.268	0.119
-325.129	630.857	0.043	0.109
-324.114	742.366	-0.102	0.272
-323.099	150.203	-0.029	0.040
-322.085	-68.028	-0.047	0.018
-321.070	-43.354	-0.324	-0.162
-320.056	429.995	0.106	-0.227
-319.041	-1.247	0.205	0.143
-318.026	305.284	-0.165	-0.304
-317.012	-89.827	-0.207	-0.060
-315.997	499.067	-0.014	0.032
-314.983	-200.000	0.012	-0.076
-313.968	299.776	0.042	-0.077
-312.953	-85.640	-0.024	0.007
-311.939	73.465	-0.088	0.091
-310.924	131.961	-0.088	0.113
-309.910	-200.000	0.021	0.135
-308.895	108.448	0.114	0.135
-307.880	214.407	0.026	-0.040
-306.866	236.042	0.017	-0.028
-305.851	-77.470	-0.177	-0.061
-304.837	-11.420	0.109	-0.071
-303.822	501.005	0.058	-0.132
-302.807	70.045	-0.109	0.112
-301.793	-200.000	0.086	0.412
-300.778	800.000	0.065	-0.278
-299.764	-62.446	-0.060	0.025
-298.749	-31.739	0.033	0.018
-297.735	-42.941	0.174	0.088
-296.720	-87.784	-0.259	-0.077
-295.705	205.259	-0.222	-0.341
-294.691	-33.118	-0.437	0.240
-293.676	-55.168	0.090	-0.040
-292.662	-18.177	0.342	-0.212
-291.647	417.315	0.097	0.205
-290.632	-200.000	0.007	-0.216
-289.618	149.815	-0.103	0.138
-288.603	800.000	-0.089	-0.369
-287.589	800.000	0.028	0.116
-286.574	153.209	-0.083	-0.112
-285.559	184.377	0.112	-0.164
-284.545	252.377	-0.016	0.026
-283.530	123.787	0.171	0.212
-282.516	1.581	0.134	-0.096
-281.501	-200.000	0.015	-0.148
-280.486	-200.000	-0.043	0.214
-279.472	383.159	-0.103	-0.211
-278.457	-131.500	-0.028	0.004
-277.443	136.951	0.184	0.237
-276.428	71.477	-0.158	0.163
-275.413	-133.574	-0.608	0.075
-274.399	-65.218	0.073	0.029
-273.384	800.000	-0.051	0.200
-272.370	47.309	-0.143	0.132
-271.355	-63.338	0.172	0.070
-270.340	800.000	-0.069	-0.220
-269.326	-76.327	0.024	0.008
-268.311	-200.000	0.037	0.303
-267.297	-200.000	0.014	-0.071
-266.282	800.000	0.060	0.235
-265.267	247.266	-0.155	0.259
-264.253	205.065	0.161	-0.247
-263.238	-29.528	0.276	0.156
-262.224	-194.251	-0.341	0.003
-261.209	32.942	0.199	-0.171
-260.195	800.000	-0.055	0.197
-259.180	-200.000	0.017	0.165
-258.165	187.526	0.086	0.127
-257.151	-63.158	0.122	-0.050
-256.136	-200.000	0.003	-0.122
-255.122	-200.000	-0.052	-0.289
-254.107	283.749	0.127	-0.225
-253.092	595.182	0.170	-0.416
-252.078	-200.000	-0.041	-0.209
-251.063	18.151	-0.047	0.037
-250.049	25.193	0.123	0.101
-249.034	-33.428	-0.200	-0.109
-248.019	800.000	-0.040	0.164
-247.005	131.762	-0.115	-0.146
-245.990	299.657	0.052	0.095
-244.976	-200.000	0.005	0.027
-243.961	-159.637	0.386	0.021
-242.946	-82.189	-0.103	-0.033
-241.932	135.732	0.036	-0.046
-240.917	-77.703	0.301	-0.103
-239.903	41.309	-0.308	0.275
-238.888	-141.462	-0.131	0.013
-237.873	-103.247	-0.176	0.041
-236.859	-88.657	0.116	-0.034
-235.844	-121.116	0.236	0.039
-234.830	224.757	0.027	-0.043
-233.815	-200.000	0.027	0.176
-232.800	-200.000	-0.010	-0.055
-231.786	45.187	0.268	-0.244
-230.771	-33.945	-0.147	-0.080
-229.757	-182.308	0.303	0.006
-228.742	42.686	-0.157	-0.142
-227.727	399.554	0.086	-0.179
-226.713	-165.256	0.193	-0.008
-225.698	-200.000	-0.009	0.055
-224.684	506.077	-0.094	-0.216
-223.669	-127.304	0.392	0.056
-222.655	-141.805	0.311	-0.031
-221.640	-185.270	-0.141	-0.002
-220.625	-25.751	-0.157	-0.091
-219.611	-79.294	0.198	0.066
-218.596	-95.158	-0.114	-0.030
-217.582	-200.000	-0.070	0.585
-216.567	75.999	0.170	0.178
-215.552	114.125	-0.018	0.022
-214.538	122.870	0.105	0.129
-213.523	-132.325	0.056	0.007
-212.509	-200.000	-0.020	0.099
-211.494	-145.225	0.069	0.006
-210.479	800.000	0.054	-0.178
-209.465	-143.042	0.158	-0.015
-208.450	-1.447	-0.300	0.209
-207.436	-43.109	-0.040	-0.020
-206.421	138.767	-0.288	0.373
-205.406	-200.000	-0.026	-0.196
-204.392	129.877	0.123	-0.155
-203.377	-96.816	0.174	0.045
-202.363	-200.000	0.004	0.140
-201.348	-119.886	-0.106	0.018
-200.333	-129.875	0.201	0.027
-199.319	27.642	-0.287	0.238
-198.304	37.460	0.127	-0.111
-197.290	-103.023	0.384	0.090
-196.275	374.113	-0.075	0.151
-195.260	-200.000	0.012	0.136
-194.246	-200.000	-0.019	0.160
-193.231	251.904	0.063	-0.105
-192.217	-69.664	-0.122	0.046
-191.202	630.748	-0.067	-0.168
-190.187	800.000	-0.094	-0.260
-189.173	-23.608	-0.242	-0.143
-188.158	-136.216	0.124	0.014
-187.144	-38.985	0.322	-0.167
-186.129	60.370	0.147	0.144
-185.114	275.181	-0.064	-0.111
-184.100	6.592	0.209	-0.153
-183.085	139.181	-0.017	-0.022
-182.071	-150.430	-0.555	-0.042
-181.056	90.680	0.286	0.316
-180.042	195.392	0.147	-0.221
-179.027	22.890	-0.097	0.078
-178.012	-79.551	0.250	0.083
-176.998	42.687	-0.249	-0.223
-175.983	-85.258	0.013	0.004
-174.969	521.267	-0.052	-0.120
-173.954	-200.000	0.022	-0.290
-172.939	800.000	-0.119	-0.347
-171.925	201.466	-0.057	-0.087
-170.910	800.000	-0.079	0.298
-169.896	-95.363	-0.226	0.060
-168.881	800.000	-0.067	0.242
-167.866	42.440	0.217	-0.195
-166.852	160.606	-0.062	0.086
-165.837	-169.902	-0.162	-0.006
-164.823	-200.000	0.059	0.399
-163.808	-115.806	-0.494	-0.091
-162.793	-200.000	0.004	-0.042
-161.779	-200.000	0.014	0.202
-160.764	-200.000	-0.004	0.267
-159.750	-200.000	-0.033	0.344
-158.735	-71.533	-0.198	0.073
-157.720	9.552	0.155	0.116
-156.706	-200.000	-0.020	0.258
-155.691	59.961	-0.114	0.111
-154.677	-11.870	-0.130	0.084
-153.662	-121.678	-0.341	0.056
-152.647	71.656	0.052	-0.053
-151.633	32.713	0.027	0.023
-150.618	-95.847	0.320	-0.084
-149.604	-62.254	0.111	0.046
-148.589	-200.000	0.009	0.057
-147.574	-60.768	-0.050	0.021
-146.560	-200.000	-0.007	0.185
-145.545	191.965	-0.064	0.095
-144.531	-151.552	0.339	0.025
-143.516	75.228	0.095	-0.098
-142.502	800.000	-0.017	0.070
-141.487	-124.408	-0.048	0.007
-140.472	-34.694	0.182	-0.098
-139.458	-135.711	-0.130	0.015
-138.443	42.871	0.193	-0.173
-137.429	-200.000	0.037	0.172
-136.414	-144.955	0.276	0.025
-135.399	192.037	0.019	-0.028
-134.385	-117.724	-0.284	0.050
-133.370	-141.607	-0.144	0.014
-132.356	153.135	-0.027	-0.037
-131.341	-181.758	-0.090	0.002
-130.326	86.441	-0.097	-0.105
-129.312	241.351	-0.153	-0.251
-128.297	-126.902	0.208	0.030
-127.283	800.000	0.055	-0.199
-126.268	-200.000	0.011	0.166
-125.253	31.499	-0.045	-0.038
-124.239	563.140	0.050	-0.120
-123.224	31.085	-0.123	0.104
-122.210	-200.000	0.033	-0.187
-121.195	-200.000	-0.024	0.301
-120.180	-90.809	-0.133	-0.038
-119.166	-200.000	-0.010	-0.160
-118.151	528.533	-0.061	0.142
-117.137	240.331	0.084	-0.138
-116.122	800.000	-0.136	0.508
-115.107	800.000	0.077	0.313
-114.093	-200.000	-0.012	0.075
-113.078	-200.000	-0.062	0.360
-112.064	-87.791	0.271	0.080
-111.049	-169.390	0.039	0.001
-110.034	339.139	0.202	-0.387
-109.020	72.345	0.170	0.174
-108.005	260.671	-0.129	0.220
-106.991	800.000	-0.058	0.171
-105.976	800.000	-0.073	0.235
-104.962	-153.098	-0.229	0.016
-103.947	800.000	-0.045	-0.148
-102.932	800.000	-0.016	0.045
-101.918	-60.754	0.081	0.034
-100.903	68.632	-0.265	0.268
-99.889	97.254	0.077	-0.086
-98.874	311.645	0.113	-0.209
-97.859	-22.282	0.276	0.164
-96.845	172.484	-0.089	0.125
-95.830	-200.000	-0.011	-0.171
-94.816	-75.440	0.138	-0.048
-93.801	-6.685	0.217	-0.145
-92.786	-92.527	0.103	0.029
-91.772	75.647	0.141	-0.146
-90.757	800.000	-0.007	-0.023
-89.743	-71.802	-0.402	0.147
-88.728	310.528	0.066	-0.122
-87.713	-5.117	0.157	-0.106
-86.699	301.483	0.227	-0.412
-85.684	-200.000	-0.038	0.269
-84.670	89.757	0.048	0.053
-83.655	800.000	0.035	0.128
-82.640	82.285	0.186	-0.199
-81.626	201.736	0.192	-0.290
-80.611	154.866	-0.245	-0.330
-79.597	171.575	0.034	0.049
-78.582	-140.846	-0.444	-0.045
-77.567	-200.000	-0.025	-0.221
-76.553	277.566	0.119	0.208
-75.538	800.000	0.022	-0.069
-74.524	7.436	-0.113	-0.083
-73.509	-101.284	0.180	-0.043
-72.494	800.000	0.031	-0.112
-71.480	-67.460	0.127	-0.049
-70.465	168.310	-0.236	-0.330
-69.451	189.101	0.088	0.129
-68.436	800.000	-0.045	-0.178
-67.422	68.900	0.163	0.164
-66.407	-134.545	0.170	0.020
-65.392	115.348	-0.150	-0.180
-64.378	107.294	0.013	0.015
-63.363	-200.000	-0.016	-0.310
-62.349	-47.236	0.273	-0.130
-61.334	116.935	-1.033	-1.245
-60.319	162.434	0.357	0.492
-59.305	-200.000	-0.159	-1.129
-58.290	238.689	0.507	0.827
-57.276	623.483	0.645	1.594
-56.261	-200.000	95.424	590.389
-55.246	574.667	1364.377	3267.667
-54.232	162.296	2548.253	3505.985
-53.217	106.963	2263.980	2638.630
-52.203	41.704	1892.011	1682.298
-51.188	35.563	1682.043	1449.385
-50.173	32.936	1637.850	1391.911
-49.159	49.882	1684.230	1558.322
-48.144	51.778	1700.159	1587.157
-47.130	35.301	1661.077	1429.139
-46.115	32.366	1647.448	1395.621
-45.100	32.312	1641.862	1390.430
-44.086	32.290	1638.917	1387.719
-43.071	32.310	1636.552	1385.810
-42.057	32.318	1633.957	1383.618
-41.042	32.228	1632.559	1381.717
-40.027	32.173	1630.990	1379.927
-39.013	32.083	1629.106	1377.618
-37.998	32.069	1627.578	1376.170
-36.984	32.205	1626.426	1376.140
-35.969	32.301	1624.737	1375.361
-34.954	32.308	1622.502	1373.463
-33.940	32.313	1620.888	1372.076
-32.925	32.346	1619.398	1370.999
-31.911	32.223	1617.813	1368.714
-30.896	32.356	1615.706	1367.843
-29.881	32.252	1614.269	1365.816
-28.867	32.283	1612.641	1364.611
-27.852	32.308	1611.313	1363.614
-26.838	32.319	1609.507	1362.111
-25.823	32.260	1608.523	1360.797
-24.809	32.333	1607.299	1360.235
-23.794	32.267	1605.723	1358.373
-22.779	32.323	1603.904	1357.178
-21.765	32.150	1603.176	1355.263
-20.750	32.174	1601.239	1353.743
-19.736	32.303	1599.921	1353.507
-18.721	32.356	1598.038	1352.238
-17.706	32.286	1596.921	1350.735
-16.692	32.394	1594.668	1349.552
-15.677	32.319	1593.811	1348.233
-14.663	32.294	1592.641	1347.013
-13.648	32.334	1591.235	1346.061
-12.633	32.372	1589.522	1344.827
-11.619	32.346	1588.202	1343.471
-10.604	32.338	1586.386	1341.823
-9.590	32.315	1585.022	1340.451
-8.575	32.275	1583.858	1339.132
-7.560	32.316	1582.826	1338.500
-6.546	32.309	1582.009	1337.703
-5.531	32.379	1580.102	1336.532
-4.517	32.374	1579.196	1335.682
-3.502	32.291	1578.118	1334.123
-2.487	32.361	1576.351	1333.074
-1.473	32.094	1564.738	1321.326
-0.458	29.406	1545.971	1286.704
0.556	26.379	1546.681	1256.676
1.571	24.277	1570.296	1260.905
2.586	23.851	1584.156	1268.879
3.600	21.345	1531.080	1208.945
4.615	12.228	1420.521	1062.772
5.629	3.795	1355.029	961.412
6.644	2.239	1346.467	945.628
7.659	2.115	1345.320	943.970
8.673	2.037	1344.347	942.726
9.688	2.029	1342.659	941.408
10.702	1.702	1339.686	937.227
11.717	5.394	1346.421	964.663
12.731	15.516	1365.668	1041.436
13.746	23.967	1379.667	1104.734
14.761	26.241	1383.008	1121.442
15.775	26.556	1382.981	1123.281
16.790	26.686	1382.491	1123.586
17.804	26.682	1381.902	1122.985
18.819	26.992	1381.644	1124.597
19.834	27.037	1381.039	1124.284
20.848	26.962	1380.090	1122.949
21.863	27.090	1379.125	1122.853
22.877	27.157	1378.820	1122.923
23.892	27.139	1377.413	1121.565
24.907	27.014	1377.183	1120.504
25.921	27.081	1375.871	1119.750
26.936	27.133	1374.881	1119.166
27.950	26.988	1374.164	1117.590
28.965	27.159	1372.604	1117.277
29.980	27.130	1371.013	1115.706
30.994	27.101	1370.096	1114.682
32.009	27.048	1369.247	1113.565
33.023	26.989	1367.930	1112.039
34.038	27.101	1367.009	1111.873
35.053	27.075	1365.595	1110.467
36.067	27.070	1364.722	1109.630
37.082	27.048	1363.854	1108.693
38.096	27.094	1362.617	1107.868
39.111	27.166	1362.223	1107.888
40.126	27.015	1361.790	1106.519
41.140	27.105	1360.994	1106.323
42.155	27.138	1360.835	1106.297
43.169	27.117	1360.700	1105.957
44.184	27.076	1360.645	1105.565
45.199	27.043	1360.075	1104.805
46.213	27.045	1359.525	1104.271
47.228	27.083	1358.199	1103.328
48.242	26.956	1357.898	1102.214
49.257	27.048	1355.782	1100.960
50.271	27.030	1354.473	1099.686
51.286	27.079	1352.910	1098.617
52.301	27.043	1351.822	1097.422
53.315	27.072	1350.988	1096.820
54.330	27.124	1350.226	1096.421
55.344	27.062	1348.986	1094.945
56.359	27.038	1348.391	1094.219
57.374	27.003	1347.760	1093.399
58.388	27.095	1346.699	1092.997
59.403	27.057	1346.547	1092.547
60.417	27.144	1345.689	1092.278
61.432	27.078	1345.232	1091.412
62.447	26.997	1344.392	1090.150
63.461	27.152	1342.666	1089.583
64.476	27.082	1342.293	1088.761
65.490	27.020	1341.359	1087.536
66.505	27.029	1339.701	1086.152
67.520	27.145	1338.367	1085.667
68.534	27.154	1337.205	1084.683
69.549	27.151	1336.237	1083.779
70.563	27.137	1335.649	1083.123
71.578	27.039	1334.517	1081.526
72.593	27.119	1333.373	1080.979
73.607	27.119	1333.138	1080.695
74.622	27.152	1332.399	1080.195
75.636	27.166	1331.706	1079.623
76.651	27.094	1330.906	1078.449
77.666	27.043	1330.375	1077.623
78.680	27.079	1330.265	1077.652
79.695	27.087	1329.055	1076.623
80.709	27.059	1328.732	1076.103
81.724	27.110	1327.356	1075.190
82.739	27.143	1326.634	1074.709
83.753	27.176	1325.897	1074.209
84.768	27.073	1324.201	1072.133
85.782	27.081	1323.382	1071.425
86.797	27.197	1322.439	1071.249
87.812	27.069	1321.495	1069.632
88.826	27.073	1320.251	1068.555
89.841	27.139	1318.800	1067.679
90.855	27.191	1318.136	1067.350
91.870	27.079	1317.542	1066.114
92.884	27.268	1316.264	1066.098
93.899	27.173	1315.894	1065.146
94.914	27.142	1315.015	1064.160
95.928	27.080	1314.421	1063.217
96.943	27.167	1314.074	1063.356
97.957	27.186	1312.823	1062.361
98.972	27.175	1312.329	1061.798
99.987	27.118	1311.500	1060.702
101.001	27.095	1310.362	1059.557
102.016	27.079	1309.506	1058.677
103.030	27.160	1308.664	1058.370
104.045	27.155	1307.613	1057.399
105.060	27.130	1306.773	1056.480
106.074	27.198	1305.695	1055.912
107.089	27.205	1304.735	1055.083
108.103	27.199	1303.781	1054.183
109.118	27.305	1302.425	1053.607
110.133	27.282	1301.344	1052.507
111.147	27.241	1301.048	1051.935
112.162	27.272	1299.163	1050.497
113.176	27.220	1298.482	1049.556
114.191	27.309	1297.560	1049.233
115.206	27.154	1296.717	1047.563
116.220	27.151	1296.148	1046.991
117.235	27.155	1295.286	1046.225
118.249	27.130	1294.107	1045.040
119.264	27.162	1293.247	1044.433
120.279	27.299	1292.272	1044.345
121.293	27.284	1291.323	1043.399
122.308	27.317	1290.429	1042.771
123.322	27.254	1289.953	1041.933
124.337	27.352	1289.082	1041.700
125.352	27.247	1288.019	1040.145
126.366	27.393	1287.090	1040.140
127.381	27.290	1286.531	1039.010
128.395	27.384	1285.707	1038.784
129.410	27.250	1284.869	1037.255
130.424	27.262	1284.391	1036.846
131.439	27.351	1283.772	1036.761
132.454	27.264	1282.317	1035.000
133.468	27.193	1282.277	1034.470
134.483	27.228	1281.397	1033.868
135.497	27.250	1280.584	1033.242
136.512	27.184	1279.751	1032.104
137.527	27.352	1278.113	1031.646
138.541	27.297	1276.869	1030.243
139.556	27.309	1275.976	1029.495
140.570	27.259	1275.107	1028.421
141.585	27.252	1274.282	1027.626
142.600	27.221	1273.332	1026.596
143.614	27.174	1272.151	1025.286
144.629	27.234	1271.142	1024.718
145.643	27.088	1270.352	1023.171
146.658	27.291	1269.046	1023.171
147.673	27.210	1268.415	1022.116
148.687	27.197	1267.358	1021.101
149.702	27.234	1266.235	1020.311
150.716	27.218	1265.006	1019.142
151.731	27.280	1264.040	1018.619
152.746	27.267	1263.337	1017.889
153.760	27.317	1261.896	1016.919
154.775	27.256	1261.263	1015.976
155.789	27.255	1260.630	1015.375
156.804	27.328	1259.279	1014.603
157.819	27.355	1258.480	1014.018
158.833	27.387	1257.955	1013.684
159.848	27.299	1257.660	1012.866
160.862	27.454	1256.555	1012.749
161.877	27.333	1255.917	1011.475
162.892	27.388	1254.882	1010.857
163.906	27.418	1254.233	1010.407
164.921	27.374	1253.657	1009.611
165.935	27.368	1252.849	1008.842
166.950	27.222	1252.265	1007.469
167.964	27.396	1251.269	1007.541
168.979	27.442	1250.630	1007.194
169.994	27.464	1250.263	1006.931
171.008	27.464	1249.699	1006.387
172.023	27.355	1249.193	1005.287
173.037	27.350	1248.641	1004.729
174.052	27.375	1247.374	1003.757
175.067	27.437	1246.666	1003.439
176.081	27.436	1246.110	1002.897
177.096	27.440	1245.110	1002.026
178.110	27.435	1244.423	1001.357
179.125	27.424	1242.943	1000.017
180.140	27.449	1242.253	999.513
181.154	27.419	1241.324	998.513
182.169	27.466	1239.787	997.447
183.183	27.387	1239.391	996.606
184.198	27.360	1238.174	995.392
185.213	27.495	1236.969	995.070
186.227	27.518	1236.186	994.478
187.242	27.572	1235.147	993.852
188.256	27.484	1234.868	993.056
189.271	27.528	1233.632	992.213
190.286	27.459	1233.218	991.417
191.300	27.547	1232.372	991.130
192.315	27.328	1232.070	989.608
193.329	27.484	1231.799	990.153
194.344	27.497	1231.287	989.721
195.359	27.503	1231.088	989.507
196.373	27.305	1230.613	987.963
197.388	27.478	1230.118	988.418
198.402	27.389	1229.833	987.617
199.417	27.444	1229.026	987.182
200.432	27.548	1228.299	987.073
201.446	27.476	1227.934	986.301
202.461	27.573	1226.861	985.879
203.475	27.485	1226.193	984.777
204.490	27.386	1225.694	983.753
205.504	27.483	1224.538	983.267
206.519	27.534	1223.699	982.779
207.534	27.523	1222.519	981.687
208.548	27.568	1221.420	980.956
209.563	27.602	1220.796	980.554
210.577	27.605	1220.037	979.873
211.592	27.634	1219.121	979.204
212.607	27.634	1218.566	978.674
213.621	27.692	1217.791	978.275
214.636	27.647	1216.967	977.285
215.650	27.562	1216.464	976.338
216.665	27.599	1215.496	975.675
217.680	27.604	1214.228	974.596
218.694	27.574	1213.855	974.050
219.709	27.748	1212.870	974.103
220.723	27.643	1212.411	973.086
221.738	27.660	1211.396	972.278
222.753	27.474	1211.286	971.111
223.767	27.624	1210.684	971.343
224.782	27.700	1209.981	971.097
225.796	27.716	1209.644	970.827
226.811	27.640	1208.866	969.714
227.826	27.697	1208.167	969.368
228.840	27.709	1207.964	969.184
229.855	27.711	1206.722	968.113
230.869	27.709	1206.240	967.627
231.884	27.682	1205.489	966.797
232.899	27.812	1204.321	966.466
233.913	27.809	1204.023	966.124
234.928	27.883	1203.909	966.339
235.942	27.706	1203.613	965.076
236.957	27.787	1202.465	964.500
237.972	27.749	1201.537	963.468
238.986	27.792	1201.239	963.375
240.001	27.771	1200.711	962.752
241.015	27.863	1199.931	962.527
242.030	27.899	1198.664	961.617
243.045	27.904	1198.504	961.430
244.059	27.794	1197.735	960.147
245.074	27.896	1196.562	959.657
246.088	27.883	1196.417	959.389
247.103	27.956	1195.478	958.935
248.117	28.022	1193.909	957.936
249.132	27.957	1193.728	957.366
250.147	27.979	1193.196	956.973
251.161	27.846	1192.515	955.642
252.176	27.999	1191.239	955.336
253.190	28.014	1191.042	955.171
254.205	27.886	1190.598	954.062
255.220	27.855	1189.966	953.308
256.234	27.943	1189.348	953.190
257.249	28.080	1188.473	953.118
258.263	27.990	1188.386	952.496
259.278	28.076	1187.506	952.152
260.293	28.026	1186.982	951.388
261.307	27.920	1186.994	950.761
262.322	28.066	1185.873	950.540
263.336	28.134	1184.878	950.011
264.351	28.009	1184.920	949.310
265.366	28.032	1184.521	949.030
266.380	28.059	1183.645	948.380
267.395	28.115	1182.874	947.968
268.409	27.978	1182.279	946.700
269.424	27.997	1181.410	946.017
270.439	28.024	1181.476	946.127
271.453	28.165	1180.279	945.812
272.468	28.102	1179.448	944.740
273.482	28.078	1178.580	943.834
274.497	28.129	1178.222	943.726
275.512	28.165	1177.761	943.464
276.526	28.097	1177.435	942.766
277.541	28.170	1176.289	942.140
278.555	28.232	1176.073	942.203
279.570	28.167	1175.136	941.037
280.585	28.150	1174.653	940.477
281.599	28.089	1173.950	939.520
282.614	28.101	1172.828	938.600
283.628	28.234	1171.722	938.314
284.643	28.281	1170.953	937.856
285.657	28.116	1170.506	936.569
286.672	28.084	1169.724	935.696
287.687	28.258	1168.453	935.485
288.701	28.369	1167.828	935.469
289.716	28.279	1166.962	934.232
290.730	28.218	1166.633	933.579
291.745	28.340	1166.372	933.909
292.760	28.382	1165.216	933.113
293.774	28.367	1165.026	932.804
294.789	28.381	1164.435	932.318
295.803	28.430	1163.743	931.932
296.818	28.312	1163.292	930.888
297.833	28.363	1162.626	930.529
298.847	28.326	1161.796	929.597
299.862	28.386	1161.074	929.239
300.876	28.340	1160.528	928.488
301.891	28.449	1159.820	928.391
302.906	28.542	1159.117	928.218
303.920	28.489	1158.505	927.377
304.935	28.471	1157.850	926.681
305.949	28.322	1157.734	925.750
306.964	28.493	1156.669	925.683
307.979	28.564	1155.943	925.380
308.993	28.514	1155.493	924.684
310.008	28.461	1154.769	923.753
311.022	28.451	1154.334	923.277
312.037	28.532	1153.337	922.804
313.052	28.409	1152.638	921.546
314.066	28.509	1151.725	921.234
315.081	28.460	1150.886	920.237
316.095	28.610	1150.105	920.283
317.110	28.568	1149.519	919.522
318.125	28.509	1149.040	918.759
319.139	28.514	1148.507	918.278
320.154	28.513	1147.939	917.738
321.168	28.573	1147.399	917.528
322.183	28.638	1146.355	916.932
323.197	28.500	1146.232	916.065
324.212	28.484	1146.070	915.774
325.227	28.567	1145.187	915.403
326.241	28.627	1144.534	915.098
327.256	28.626	1143.742	914.380
328.270	28.701	1143.044	914.112
329.285	28.643	1142.094	912.985
330.300	28.680	1141.253	912.414
331.314	28.746	1140.417	911.995
332.329	28.731	1139.771	911.324
333.343	28.664	1139.416	910.625
334.358	28.728	1138.365	910.020
335.373	28.682	1137.695	909.177
336.387	28.755	1137.196	909.063
337.402	28.857	1136.126	908.630
338.416	28.722	1135.550	907.422
339.431	28.839	1135.162	907.610
340.446	28.795	1134.844	907.059
341.460	28.972	1133.697	906.933
342.475	28.889	1132.779	905.711
343.489	28.744	1132.049	904.334
344.504	28.928	1131.057	904.366
345.519	28.922	1130.395	903.723
346.533	28.833	1129.994	902.890
347.548	28.955	1129.372	902.908
348.562	28.877	1128.633	901.857
349.577	28.930	1127.497	901.127
350.592	28.799	1126.908	899.934
351.606	28.799	1126.617	899.626
352.621	28.885	1126.042	899.508
353.635	29.039	1124.926	899.286
354.650	28.930	1124.737	898.527
355.665	28.928	1123.681	897.590
356.679	28.964	1123.515	897.555
357.694	28.927	1123.224	897.062
358.708	28.916	1122.606	896.435
359.723	28.925	1121.477	895.499
360.738	28.975	1120.770	895.100
361.752	29.063	1120.245	895.027
362.767	29.023	1119.786	894.391
363.781	29.044	1119.125	893.882
364.796	29.108	1118.639	893.726
365.810	29.109	1117.843	893.018
366.825	29.020	1117.750	892.431
367.840	29.156	1116.877	892.313
368.854	29.212	1116.614	892.297
369.869	29.131	1115.614	891.027
370.883	29.168	1114.806	890.482
371.898	29.097	1114.360	889.704
372.913	29.197	1113.520	889.435
373.927	29.234	1112.894	889.035
374.942	29.205	1112.583	888.571
375.956	29.256	1112.134	888.377
376.971	29.203	1111.754	887.742
377.986	29.245	1111.368	887.553
379.000	29.242	1110.638	886.880
380.015	29.219	1110.113	886.272
381.029	29.306	1109.359	886.008
382.044	29.258	1108.846	885.290
383.059	29.358	1107.838	884.889
384.073	29.200	1107.777	884.000
385.088	29.345	1106.706	883.763
386.102	29.418	1105.660	883.198
387.117	29.216	1105.128	881.731
388.132	29.357	1103.951	881.385
389.146	29.396	1103.402	881.056
390.161	29.236	1103.234	880.083
391.175	29.408	1102.368	880.134
392.190	29.347	1101.612	879.158
393.205	29.369	1100.723	878.479
394.219	29.411	1100.248	878.220
395.234	29.360	1099.444	877.260
396.248	29.508	1098.365	877.023
397.263	29.486	1098.165	876.682
398.278	29.401	1097.446	875.626
399.292	29.525	1096.678	875.527
400.307	29.567	1096.055	875.147
401.321	29.477	1095.717	874.378
402.336	29.415	1094.954	873.398
403.350	29.408	1094.362	872.813
404.365	29.471	1093.996	872.741
405.380	29.582	1092.952	872.357
406.394	29.582	1092.185	871.668
407.409	29.670	1091.421	871.395
408.423	29.699	1090.845	870.996
409.438	29.713	1089.940	870.262
410.453	29.568	1089.536	869.178
411.467	29.691	1088.473	868.833
412.482	29.769	1087.772	868.562
413.496	29.561	1087.547	867.329
414.511	29.665	1086.759	867.110
415.526	29.695	1086.425	866.910
416.540	29.732	1086.012	866.678
417.555	29.635	1085.781	865.960
418.569	29.670	1085.180	865.567
419.584	29.790	1084.466	865.483
420.599	29.775	1084.358	865.254
421.613	104.505	1321.451	1457.997
422.628	97.285	1355.950	1458.104
