DTS Sentinel unit serial number:	SN413079Multiplexer serial number:	ORYXHardware model number:	OX4-SRSoftware version number:	ORYX F/W v4.00 Oryx Data Collector v3.7.2.0data status	okinstallation	princeton_trtdifferential loss correction	single-endedforward channel	channel 2reverse channel	N/Adate	2019/09/11time	14:21:11forward acquisition time	60.00reverse acquisition time	0.00gamma	496.2192k internal	0.2291k external	0.2291temperature offset calibration	1.0010default loss term (dB/km)	0.3790temperature slope calibration	1.0000multiplexer offset coefficient	1.0000multiplexer slope coefficient	1.0000fibre end	0.00T internal ref (°C)	42.03T ext. ref 1 (°C)	0.90T ext. ref 2 (°C)	37.58length (m)	temperature (°C)	Stokes	anti-Stokes-747.200	-200.000	-0.009	0.300
-746.185	-93.405	0.191	0.054
-745.171	477.285	0.168	0.390
-744.156	21.188	-0.144	0.120
-743.142	-99.090	0.185	-0.048
-742.127	-80.060	0.155	0.053
-741.112	-108.346	0.465	-0.103
-740.098	31.238	-0.150	0.132
-739.083	127.213	0.092	0.119
-738.069	800.000	-0.085	0.326
-737.054	35.246	0.073	0.066
-736.039	-45.774	-0.311	0.157
-735.025	-200.000	0.015	0.090
-734.010	-200.000	0.028	-0.189
-732.996	-172.623	0.116	-0.004
-731.981	-57.477	-0.151	0.068
-730.966	-86.356	-0.107	-0.034
-729.952	-94.627	-0.388	0.108
-728.937	109.237	0.229	0.281
-727.923	-20.498	-0.349	-0.220
-726.908	-6.584	-0.190	-0.133
-725.894	61.716	-0.324	0.330
-724.879	-52.741	0.094	0.044
-723.864	-0.198	-0.097	-0.071
-722.850	27.885	0.289	0.250
-721.835	-116.010	0.109	-0.021
-720.821	-48.773	0.106	-0.052
-719.806	567.176	-0.028	0.069
-718.791	36.385	-0.043	0.038
-717.777	800.000	-0.019	0.076
-716.762	-200.000	0.019	-0.115
-715.748	-179.379	0.260	0.006
-714.733	662.893	0.052	0.137
-713.718	203.533	-0.135	-0.213
-712.704	800.000	0.079	-0.335
-711.689	800.000	0.041	0.163
-710.675	800.000	0.054	0.224
-709.660	177.199	-0.019	-0.028
-708.645	-200.000	-0.010	-0.128
-707.631	529.780	-0.040	-0.096
-706.616	-200.000	-0.015	0.119
-705.602	-200.000	-0.020	-0.141
-704.587	800.000	-0.076	-0.291
-703.572	800.000	0.094	0.291
-702.558	-150.357	-0.284	0.022
-701.543	574.059	-0.129	-0.321
-700.529	-144.102	-0.246	0.024
-699.514	-11.691	-0.343	0.230
-698.499	335.628	-0.046	-0.092
-697.485	13.961	-0.154	-0.123
-696.470	219.364	-0.299	0.489
-695.456	19.872	-0.159	-0.131
-694.441	-14.705	0.246	0.161
-693.426	69.893	-0.258	0.272
-692.412	-200.000	0.005	-0.287
-691.397	-200.000	-0.014	-0.177
-690.383	-187.067	-0.329	-0.005
-689.368	-151.652	-0.241	-0.018
-688.354	7.631	-0.179	-0.137
-687.339	-131.301	-0.087	0.012
-686.324	344.344	-0.037	0.075
-685.310	-49.489	0.220	0.107
-684.295	52.466	0.195	0.190
-683.281	-174.639	-0.161	0.005
-682.266	-26.673	-0.091	-0.054
-681.251	-117.434	-0.093	0.017
-680.237	-97.786	0.262	-0.069
-679.222	9.734	0.034	0.027
-678.208	-119.646	0.124	-0.022
-677.193	-200.000	-0.002	0.124
-676.178	-110.312	0.165	0.035
-675.164	-31.483	-0.428	0.246
-674.149	-135.325	-0.189	-0.023
-673.135	83.440	0.049	-0.055
-672.120	37.935	-0.191	-0.173
-671.105	-110.751	0.236	-0.050
-670.091	297.833	-0.108	0.202
-669.076	800.000	-0.033	0.118
-668.062	-113.008	-0.164	-0.033
-667.047	-22.151	-0.171	0.106
-666.032	21.033	0.193	0.160
-665.018	-113.960	0.180	-0.036
-664.003	-9.705	0.095	0.065
-662.989	96.480	-0.352	-0.412
-661.974	-43.084	-0.091	-0.047
-660.959	78.381	-0.244	0.266
-659.945	28.714	-0.203	0.176
-658.930	-200.000	0.018	-0.084
-657.916	-76.559	0.218	0.078
-656.901	-100.455	0.315	-0.080
-655.886	-39.249	-0.228	0.122
-654.872	-81.948	-0.427	0.143
-653.857	800.000	-0.019	0.071
-652.843	75.225	0.239	0.257
-651.828	-78.630	-0.133	0.046
-650.814	194.815	-0.236	-0.365
-649.799	-200.000	-0.023	-0.131
-648.784	-90.202	0.206	-0.061
-647.770	217.614	0.027	-0.045
-646.755	-200.000	-0.068	-0.492
-645.741	-36.788	0.092	0.051
-644.726	1.843	0.194	0.142
-643.711	-133.914	-0.234	0.030
-642.697	-112.202	-0.248	-0.051
-641.682	118.014	-0.122	0.154
-640.668	-88.339	0.185	-0.056
-639.653	190.999	0.186	0.285
-638.638	-200.000	0.010	-0.116
-637.624	-200.000	0.011	0.054
-636.609	-61.572	0.168	-0.072
-635.595	28.352	0.217	0.187
-634.580	-187.923	0.387	0.005
-633.565	-86.342	-0.210	-0.066
-632.551	800.000	0.002	0.007
-631.536	800.000	-0.030	0.107
-630.522	-122.862	0.199	0.033
-629.507	190.542	-0.007	-0.010
-628.492	-20.136	0.103	0.065
-627.478	274.809	-0.193	0.348
-626.463	-200.000	-0.014	-0.088
-625.449	274.738	-0.065	-0.118
-624.434	14.079	0.140	0.111
-623.419	-200.000	-0.034	-0.206
-622.405	-153.344	-0.325	0.023
-621.390	23.582	-0.235	-0.197
-620.376	800.000	-0.026	-0.089
-619.361	-118.672	0.125	0.023
-618.346	143.262	0.089	-0.121
-617.332	65.995	-0.375	-0.388
-616.317	800.000	0.071	-0.287
-615.303	69.765	0.237	0.249
-614.288	-200.000	-0.025	-0.222
-613.273	-106.142	-0.285	-0.065
-612.259	-132.862	-0.159	0.021
-611.244	70.463	-0.031	0.032
-610.230	-147.093	0.377	-0.033
-609.215	-131.568	0.092	-0.012
-608.201	61.184	0.259	-0.262
-607.186	-16.970	0.074	0.048
-606.171	-33.445	-0.023	0.013
-605.157	-4.336	-0.190	0.134
-604.142	-200.000	-0.016	0.227
-603.128	-116.054	-0.059	0.011
-602.113	-80.250	-0.317	0.108
-601.098	-129.762	0.453	0.063
-600.084	-90.039	-0.059	0.018
-599.069	201.476	0.078	-0.122
-598.055	261.428	0.192	-0.339
-597.040	-176.888	-0.120	0.003
-596.025	173.516	-0.128	0.188
-595.011	-125.529	0.193	-0.030
-593.996	-110.292	-0.180	0.038
-592.982	800.000	-0.111	-0.359
-591.967	-140.531	0.107	-0.011
-590.952	-135.691	0.205	0.025
-589.938	-58.615	-0.219	0.097
-588.923	-182.726	-0.408	0.008
-587.909	-200.000	-0.020	-0.197
-586.894	57.787	0.083	0.082
-585.879	-161.509	-0.157	-0.008
-584.865	233.902	0.045	0.075
-583.850	703.862	0.089	0.239
-582.836	348.515	-0.133	-0.268
-581.821	-200.000	-0.015	0.201
-580.806	53.939	-0.275	-0.269
-579.792	-28.138	0.223	0.131
-578.777	97.696	-0.106	0.124
-577.763	-41.231	-0.158	-0.083
-576.748	9.426	0.188	0.145
-575.733	-93.653	0.245	0.069
-574.719	92.082	0.228	-0.261
-573.704	66.709	0.311	-0.322
-572.690	119.301	-0.137	-0.173
-571.675	-27.740	0.155	0.091
-570.661	-200.000	-0.033	-0.204
-569.646	-200.000	0.035	0.216
-568.631	-9.064	0.197	0.134
-567.617	-200.000	0.022	-0.240
-566.602	-75.212	0.301	0.109
-565.588	-195.825	0.133	0.001
-564.573	-200.000	-0.022	-0.248
-563.558	314.928	0.016	-0.031
-562.544	-159.448	0.414	-0.023
-561.529	-48.208	0.446	0.219
-560.515	-54.809	0.363	0.167
-559.500	230.616	-0.198	-0.330
-558.485	41.827	-0.282	-0.260
-557.471	-30.976	-0.308	-0.177
-556.456	-29.774	0.157	-0.091
-555.442	-21.909	0.143	0.089
-554.427	-77.787	-0.206	-0.072
-553.412	-93.257	0.226	0.064
-552.398	-52.400	-0.071	-0.034
-551.383	-104.481	-0.282	0.066
-550.369	-17.744	0.111	-0.071
-549.354	-172.351	-0.368	-0.012
-548.339	800.000	-0.034	0.129
-547.325	-19.974	-0.010	0.006
-546.310	-82.253	0.383	-0.127
-545.296	-65.808	-0.199	-0.081
-544.281	285.705	-0.138	-0.253
-543.266	-7.580	-0.329	0.226
-542.252	-200.000	-0.021	-0.108
-541.237	-71.700	-0.111	0.042
-540.223	-200.000	-0.033	0.253
-539.208	263.197	0.074	0.130
-538.193	51.289	0.089	0.086
-537.179	800.000	-0.085	-0.260
-536.164	-44.740	0.228	0.116
-535.150	-163.459	0.137	-0.007
-534.135	118.433	0.269	-0.337
-533.121	-200.000	0.019	-0.137
-532.106	-20.698	0.084	-0.053
-531.091	-131.882	-0.150	-0.020
-530.077	-82.568	-0.300	0.099
-529.062	243.452	-0.119	0.203
-528.048	-98.506	0.102	-0.027
-527.033	6.757	-0.285	0.215
-526.018	-200.000	-0.010	-0.076
-525.004	-190.422	-0.234	-0.003
-523.989	-134.227	0.144	0.018
-522.975	120.572	-0.193	0.243
-521.960	315.158	0.174	-0.334
-520.945	142.172	-0.250	-0.336
-519.931	125.004	-0.038	0.049
-518.916	800.000	0.023	-0.097
-517.902	-200.000	-0.007	-0.107
-516.887	-200.000	0.038	0.204
-515.872	72.443	-0.057	-0.060
-514.858	-53.137	-0.356	-0.166
-513.843	-200.000	0.015	0.075
-512.829	-200.000	-0.002	-0.018
-511.814	-200.000	-0.000	-0.248
-510.799	-82.121	0.222	0.073
-509.785	-30.683	0.205	0.118
-508.770	-165.913	0.322	0.014
-507.756	-183.466	0.310	0.005
-506.741	-28.502	0.273	0.159
-505.726	-200.000	0.020	-0.250
-504.712	-79.979	0.147	0.050
-503.697	-99.391	-0.153	0.039
-502.683	-85.148	0.196	0.062
-501.668	-66.673	-0.280	-0.113
-500.653	-152.530	-0.446	0.032
-499.639	36.146	0.253	0.226
-498.624	2.407	0.319	-0.234
-497.610	280.886	-0.107	-0.194
-496.595	76.629	-0.242	0.260
-495.581	800.000	0.043	-0.147
-494.566	800.000	-0.147	-0.411
-493.551	35.824	0.115	-0.103
-492.537	28.775	-0.128	-0.110
-491.522	-38.657	0.112	0.060
-490.508	77.419	0.076	-0.083
-489.493	-45.010	-0.200	0.101
-488.478	-200.000	-0.023	-0.245
-487.464	276.544	0.159	0.286
-486.449	-56.784	0.241	-0.108
-485.435	-163.601	0.171	-0.008
-484.420	150.263	0.147	-0.203
-483.405	-14.875	0.142	-0.092
-482.391	-200.000	-0.006	-0.149
-481.376	-157.411	-0.073	-0.004
-480.362	800.000	-0.075	-0.311
-479.347	800.000	-0.056	0.247
-478.332	-200.000	0.012	0.393
-477.318	603.681	0.128	-0.322
-476.303	-104.379	-0.321	-0.075
-475.289	16.326	-0.177	0.142
-474.274	-64.005	0.333	0.138
-473.259	-16.055	-0.387	-0.249
-472.245	251.438	-0.184	0.318
-471.230	301.383	0.085	0.159
-470.216	24.898	0.025	-0.021
-469.201	708.850	0.051	-0.136
-468.186	-111.937	-0.304	0.062
-467.172	201.093	0.084	-0.131
-466.157	356.660	0.071	0.142
-465.143	-68.518	0.145	-0.057
-464.128	-200.000	0.011	-0.344
-463.113	800.000	-0.092	-0.287
-462.099	-7.704	0.095	0.065
-461.084	-134.552	-0.411	-0.051
-460.070	-175.150	-0.177	-0.005
-459.055	35.194	-0.105	-0.093
-458.040	482.710	0.068	0.157
-457.026	-100.780	0.244	0.061
-456.011	-13.054	-0.283	0.187
-454.997	-200.000	0.014	-0.170
-453.982	-79.475	0.060	0.021
-452.968	-200.000	-0.013	-0.185
-451.953	-127.694	-0.163	-0.024
-450.938	-200.000	0.000	0.040
-449.924	-132.142	-0.174	-0.023
-448.909	171.456	-0.044	-0.064
-447.895	-81.011	-0.165	0.055
-446.880	-200.000	0.004	0.132
-445.865	-65.982	0.295	-0.119
-444.851	448.327	0.057	0.127
-443.836	800.000	-0.102	-0.319
-442.822	-200.000	-0.007	-0.197
-441.807	-200.000	-0.131	-0.000
-440.792	546.135	-0.088	-0.212
-439.778	-200.000	-0.001	-0.298
-438.763	80.354	-0.105	-0.115
-437.749	593.870	-0.034	-0.084
-436.734	-200.000	0.055	-0.337
-435.719	143.525	-0.079	0.106
-434.705	53.262	-0.217	-0.210
-433.690	-200.000	-0.001	0.010
-432.676	-112.191	-0.265	0.054
-431.661	-200.000	-0.024	0.133
-430.646	491.719	-0.052	0.122
-429.632	-150.535	-0.143	-0.011
-428.617	-97.642	0.121	0.032
-427.603	-95.525	-0.216	-0.058
-426.588	330.005	0.053	-0.104
-425.573	-148.191	0.317	-0.026
-424.559	-30.427	-0.359	-0.206
-423.544	800.000	0.118	-0.344
-422.530	800.000	0.038	0.110
-421.515	-200.000	-0.020	-0.284
-420.500	-177.029	0.233	0.006
-419.486	-51.748	0.066	0.031
-418.471	-200.000	0.080	0.403
-417.457	-107.810	0.162	0.036
-416.442	305.681	0.082	0.154
-415.428	800.000	0.047	-0.193
-414.413	97.472	-0.181	-0.211
-413.398	222.231	-0.085	-0.139
-412.384	-200.000	-0.011	0.077
-411.369	-200.000	0.015	0.267
-410.355	220.359	-0.191	-0.310
-409.340	-23.574	0.086	-0.052
-408.325	-200.000	-0.013	-0.221
-407.311	-200.000	0.016	-0.085
-406.296	42.355	-0.108	0.099
-405.282	90.229	-0.247	-0.279
-404.267	-79.032	-0.403	-0.139
-403.252	17.488	0.153	0.123
-402.238	-9.795	0.137	0.092
-401.223	-200.000	0.038	0.176
-400.209	-200.000	-0.010	0.189
-399.194	-147.639	0.144	-0.012
-398.179	800.000	-0.062	-0.185
-397.165	-26.335	-0.187	0.111
-396.150	-133.916	-0.119	0.015
-395.136	171.778	0.193	-0.281
-394.121	4.217	0.340	-0.251
-393.106	358.777	0.184	-0.372
-392.092	-172.404	0.379	-0.012
-391.077	156.016	-0.170	0.237
-390.063	142.058	-0.128	0.171
-389.048	22.119	0.157	-0.130
-388.033	800.000	0.079	0.231
-387.019	56.887	-0.265	0.261
-386.004	0.949	0.087	0.063
-384.990	757.299	-0.019	0.052
-383.975	800.000	-0.020	0.058
-382.960	45.291	-0.116	0.108
-381.946	-183.110	0.280	0.005
-380.931	800.000	-0.012	0.048
-379.917	68.324	-0.155	0.160
-378.902	671.424	-0.167	0.438
-377.888	-12.163	0.260	0.172
-376.873	-98.366	-0.109	-0.028
-375.858	-200.000	0.017	0.202
-374.844	-168.059	0.356	0.014
-373.829	-185.618	-0.245	-0.004
-372.815	800.000	-0.073	0.290
-371.800	-200.000	-0.092	0.557
-370.785	11.057	-0.119	-0.092
-369.771	76.735	-0.078	-0.084
-368.756	-131.002	0.170	0.023
-367.742	-200.000	-0.015	0.198
-366.727	298.764	0.105	0.194
-365.712	390.320	-0.085	0.177
-364.698	-51.045	0.295	0.140
-363.683	-68.907	0.116	-0.045
-362.669	254.697	-0.104	-0.179
-361.654	-107.772	0.259	0.057
-360.639	-70.092	0.401	0.154
-359.625	-46.174	-0.228	-0.113
-358.610	-161.546	-0.302	-0.016
-357.596	800.000	-0.107	0.368
-356.581	-54.598	-0.466	0.213
-355.566	-60.330	-0.228	0.098
-354.552	-9.503	0.297	-0.200
-353.537	-22.986	0.068	0.041
-352.523	800.000	-0.034	-0.117
-351.508	-113.194	-0.039	0.008
-350.493	-107.923	0.144	0.032
-349.479	-200.000	0.006	0.218
-348.464	-200.000	-0.001	0.237
-347.450	-64.084	-0.367	0.151
-346.435	232.080	-0.097	0.160
-345.420	-184.431	0.287	0.005
-344.406	-97.757	-0.134	-0.035
-343.391	-91.116	-0.111	-0.032
-342.377	-200.000	0.028	-0.237
-341.362	782.377	-0.048	-0.134
-340.348	-200.000	0.009	0.089
-339.333	-117.755	0.198	-0.036
-338.318	105.253	-0.113	0.135
-337.304	238.970	-0.170	0.285
-336.289	91.186	-0.072	0.081
-335.275	-152.529	-0.224	-0.016
-334.260	800.000	0.119	-0.357
-333.245	-200.000	-0.045	-0.206
-332.231	-117.870	0.151	0.027
-331.216	-200.000	-0.055	0.298
-330.202	-28.269	-0.236	0.137
-329.187	-12.605	0.047	-0.031
-328.172	61.459	-0.162	-0.162
-327.158	415.369	-0.038	0.082
-326.143	-78.455	-0.115	0.040
-325.129	30.478	-0.278	0.239
-324.114	-31.609	0.105	-0.059
-323.099	800.000	0.028	0.099
-322.085	-86.454	-0.167	-0.052
-321.070	86.514	-0.126	-0.140
-320.056	-52.183	0.133	-0.062
-319.041	578.473	-0.066	0.162
-318.026	-200.000	-0.022	0.171
-317.012	-0.362	0.185	-0.132
-315.997	-200.000	0.005	0.054
-314.983	134.670	0.098	0.129
-313.968	-1.097	-0.229	0.163
-312.953	547.494	-0.135	-0.326
-311.939	187.810	-0.167	-0.251
-310.924	-200.000	0.064	0.314
-309.910	205.970	-0.091	0.143
-308.895	800.000	0.083	0.310
-307.880	-60.264	0.036	0.016
-306.866	-99.354	0.352	-0.089
-305.851	64.468	0.099	-0.100
-304.837	-47.596	-0.252	0.123
-303.822	-13.883	-0.065	-0.042
-302.807	-136.342	0.141	0.017
-301.793	-76.209	-0.349	-0.124
-300.778	800.000	-0.076	-0.247
-299.764	800.000	0.020	0.075
-298.749	108.801	0.071	0.086
-297.735	-6.418	0.058	0.040
-296.720	-109.417	-0.152	-0.032
-295.705	-92.855	-0.374	0.105
-294.691	388.152	0.079	-0.165
-293.676	800.000	-0.061	0.189
-292.662	-37.126	-0.224	-0.121
-291.647	94.475	0.135	-0.155
-290.632	222.087	-0.050	0.081
-289.618	42.695	0.025	-0.023
-288.603	54.247	-0.192	0.186
-287.589	756.913	0.113	0.307
-286.574	-19.462	0.163	-0.102
-285.559	667.161	-0.117	-0.303
-284.545	138.792	0.117	-0.155
-283.530	-73.545	-0.192	-0.070
-282.516	-99.731	-0.217	-0.055
-281.501	42.255	0.221	-0.202
-280.486	-22.341	0.346	0.211
-279.472	-102.064	0.285	0.069
-278.457	108.194	0.163	-0.195
-277.443	800.000	0.076	0.220
-276.428	-158.631	0.247	-0.014
-275.413	-96.628	0.281	0.074
-274.399	-74.332	0.309	0.112
-273.384	32.817	-0.167	0.145
-272.370	-119.079	-0.213	-0.037
-271.355	0.898	-0.114	-0.082
-270.340	-28.873	-0.322	-0.186
-269.326	544.201	0.078	-0.188
-268.311	283.197	0.046	0.083
-267.297	170.188	-0.076	0.110
-266.282	248.349	-0.154	-0.262
-265.267	-127.529	0.042	0.006
-264.253	-101.644	-0.390	0.095
-263.238	219.341	-0.133	-0.215
-262.224	188.818	0.188	-0.283
-261.209	-45.203	0.205	-0.103
-260.195	513.299	0.047	0.110
-259.180	105.922	-0.157	-0.187
-258.165	-81.711	-0.086	0.028
-257.151	-71.389	0.153	-0.058
-256.136	-67.255	0.202	0.080
-255.122	-47.474	0.158	0.077
-254.107	-85.636	0.109	-0.034
-253.092	176.119	-0.174	-0.254
-252.078	-28.909	-0.179	0.103
-251.063	-85.420	-0.102	0.032
-250.049	62.233	0.062	-0.062
-249.034	778.720	0.137	0.377
-248.019	-2.879	-0.176	0.123
-247.005	-141.501	0.239	0.024
-245.990	58.119	0.180	0.177
-244.976	-142.846	0.210	0.021
-243.961	20.328	-0.133	0.108
-242.946	-21.658	0.266	0.162
-241.932	-7.953	-0.197	0.133
-240.917	-74.338	0.057	0.021
-239.903	134.783	0.199	0.259
-238.888	244.059	-0.189	-0.318
-237.873	203.788	-0.218	-0.339
-236.859	179.070	0.155	0.228
-235.844	-109.536	0.047	0.010
-234.830	-176.239	0.133	0.003
-233.815	-155.294	0.130	-0.008
-232.800	-30.469	-0.370	0.211
-231.786	16.153	-0.163	0.129
-230.771	-200.000	-0.017	-0.241
-229.757	107.851	0.161	0.193
-228.742	-107.140	-0.069	0.015
-227.727	-75.515	0.304	0.109
-226.713	181.971	-0.212	0.313
-225.698	-50.589	0.120	-0.057
-224.684	-12.014	0.341	0.224
-223.669	11.211	0.183	-0.140
-222.655	56.852	-0.110	-0.108
-221.640	791.135	0.030	-0.084
-220.625	800.000	0.092	0.268
-219.611	731.737	0.039	-0.106
-218.596	738.664	-0.042	0.114
-217.582	36.363	-0.113	-0.100
-216.567	-111.395	0.344	-0.070
-215.552	28.815	-0.269	-0.229
-214.538	800.000	-0.095	0.371
-213.523	123.207	-0.232	-0.291
-212.509	27.831	-0.029	0.025
-211.494	-49.860	-0.164	-0.078
-210.479	-39.006	0.171	0.090
-209.465	800.000	-0.036	0.122
-208.450	800.000	0.051	-0.165
-207.436	-53.350	-0.238	-0.109
-206.421	510.932	0.038	0.089
-205.406	800.000	0.036	0.126
-204.392	296.663	-0.136	-0.249
-203.377	800.000	0.022	-0.074
-202.363	-200.000	0.050	0.310
-201.348	-33.476	-0.027	-0.015
-200.333	351.309	0.067	0.134
-199.319	80.041	-0.080	0.086
-198.304	294.212	0.141	0.259
-197.290	97.378	-0.287	0.330
-196.275	-200.000	-0.041	-0.442
-195.260	-200.000	0.012	0.281
-194.246	3.488	0.044	0.032
-193.231	201.311	0.088	0.135
-192.217	97.063	0.073	-0.084
-191.202	594.705	0.101	-0.251
-190.187	-200.000	0.026	-0.171
-189.173	-81.833	0.112	-0.037
-188.158	-88.780	-0.207	-0.062
-187.144	143.686	0.103	-0.138
-186.129	-200.000	0.001	0.159
-185.114	800.000	0.089	0.358
-184.100	-156.825	0.023	0.001
-183.085	-49.994	0.082	0.039
-182.071	186.756	-0.056	-0.083
-181.056	800.000	0.028	0.088
-180.042	-103.324	0.307	0.073
-179.027	-0.771	0.269	0.191
-178.012	-31.549	0.043	0.024
-176.998	-200.000	0.015	0.119
-175.983	68.232	-0.208	0.214
-174.969	800.000	0.025	-0.086
-173.954	140.010	-0.056	-0.073
-172.939	-200.000	-0.002	0.327
-171.925	-36.213	-0.090	0.048
-170.910	-129.653	-0.111	-0.015
-169.896	108.723	0.118	0.142
-168.881	-13.618	-0.122	-0.079
-167.866	0.368	0.214	-0.153
-166.852	84.636	-0.089	-0.097
-165.837	-200.000	0.027	-0.164
-164.823	38.625	-0.221	0.197
-163.808	42.148	0.330	0.300
-162.793	-200.000	-0.025	-0.210
-161.779	-49.618	-0.064	-0.030
-160.764	-101.930	0.208	0.050
-159.750	-200.000	0.062	0.288
-158.735	-175.206	0.301	-0.008
-157.720	800.000	-0.056	0.189
-156.706	-17.043	0.182	-0.115
-155.691	438.608	-0.050	-0.109
-154.677	-200.000	-0.061	0.395
-153.662	25.883	-0.231	-0.192
-152.647	-198.794	0.182	0.001
-151.633	-200.000	0.019	0.155
-150.618	468.003	-0.136	-0.306
-149.604	-49.941	0.214	-0.101
-148.589	-28.697	-0.308	-0.177
-147.574	131.755	-0.090	-0.116
-146.560	-19.228	-0.046	0.028
-145.545	164.102	-0.070	-0.099
-144.531	99.789	0.037	-0.043
-143.516	-110.289	0.312	-0.065
-142.502	289.407	0.067	-0.122
-141.487	-200.000	0.022	-0.123
-140.472	251.421	0.204	0.348
-139.458	-82.606	-0.256	0.083
-138.443	-51.645	-0.524	0.244
-137.429	561.569	-0.029	0.070
-136.414	58.149	-0.089	0.087
-135.399	781.243	0.041	0.112
-134.385	595.958	-0.206	-0.510
-133.370	800.000	-0.099	-0.277
-132.356	800.000	-0.079	-0.292
-131.341	-15.158	0.084	-0.054
-130.326	800.000	-0.029	-0.088
-129.312	-26.537	0.324	-0.190
-128.297	-51.009	-0.256	0.120
-127.283	-200.000	0.025	0.217
-126.268	-20.173	-0.114	0.070
-125.253	621.445	-0.082	0.206
-124.239	60.451	-0.295	-0.292
-123.224	-200.000	0.036	-0.329
-122.210	-34.508	0.092	-0.051
-121.195	-61.499	-0.058	-0.024
-120.180	-136.155	0.285	-0.033
-119.166	10.918	-0.479	-0.366
-118.151	-126.937	-0.109	-0.016
-117.137	93.345	0.115	0.131
-116.122	800.000	-0.138	-0.432
-115.107	126.949	-0.079	-0.100
-114.093	-200.000	-0.029	0.168
-113.078	509.011	-0.133	0.309
-112.064	-200.000	0.019	0.291
-111.049	-115.290	0.153	-0.029
-110.034	800.000	-0.031	-0.098
-109.020	-24.814	-0.128	0.076
-108.005	480.455	0.076	0.172
-106.991	504.878	0.124	0.287
-105.976	134.880	-0.098	0.127
-104.962	260.607	0.126	-0.217
-103.947	-200.000	0.025	-0.316
-102.932	118.035	-0.299	-0.368
-101.918	-170.996	0.095	0.003
-100.903	305.822	-0.123	-0.228
-99.889	81.320	-0.066	-0.072
-98.874	49.969	0.218	0.206
-97.859	50.286	-0.146	-0.138
-96.845	477.060	-0.113	-0.256
-95.830	-200.000	-0.076	-0.000
-94.816	-166.364	0.338	0.014
-93.801	210.214	-0.187	-0.292
-92.786	-200.000	0.011	0.077
-91.772	-200.000	0.008	0.053
-90.757	-200.000	-0.001	0.108
-89.743	-116.016	-0.194	-0.036
-88.728	213.942	-0.242	-0.382
-87.713	800.000	0.063	0.251
-86.699	212.727	-0.074	-0.117
-85.684	7.590	-0.249	-0.186
-84.670	57.053	0.222	-0.216
-83.655	-200.000	0.006	-0.101
-82.640	-200.000	0.012	0.085
-81.626	-27.131	0.275	-0.160
-80.611	-200.000	0.014	0.236
-79.597	-95.147	0.309	-0.083
-78.582	221.812	0.133	0.213
-77.567	-13.362	0.404	-0.261
-76.553	-67.845	-0.311	0.121
-75.538	800.000	-0.029	0.118
-74.524	800.000	0.030	0.092
-73.509	-200.000	-0.012	0.464
-72.494	-24.070	-0.128	-0.076
-71.480	-99.933	0.060	-0.015
-70.465	-82.324	0.186	0.060
-69.451	49.513	0.096	0.090
-68.436	10.199	0.264	-0.200
-67.422	-200.000	-0.031	0.317
-66.407	46.781	0.138	-0.128
-65.392	19.859	0.180	-0.145
-64.378	-106.575	0.298	0.066
-63.363	-181.879	0.310	0.006
-62.349	-128.976	0.028	0.004
-61.334	168.333	-0.453	-0.643
-60.319	122.636	0.287	0.358
-59.305	-200.000	-0.062	-0.960
-58.290	362.677	0.498	0.997
-57.276	800.000	0.612	1.721
-56.261	-200.000	75.145	540.081
-55.246	569.231	1302.989	3158.015
-54.232	145.712	2546.195	3401.538
-53.217	113.775	2349.049	2845.709
-52.203	51.770	1963.835	1862.515
-51.188	45.631	1750.905	1612.376
-50.173	42.598	1704.294	1546.103
-49.159	57.096	1738.552	1689.764
-48.144	62.973	1756.898	1752.986
-47.130	45.467	1720.160	1582.540
-46.115	42.097	1706.623	1544.107
-45.100	41.916	1702.516	1538.938
-44.086	41.833	1699.729	1535.720
-43.071	41.910	1696.491	1533.324
-42.057	41.758	1694.898	1530.654
-41.042	41.871	1692.021	1528.860
-40.027	41.930	1690.083	1527.501
-39.013	41.869	1688.354	1525.415
-37.998	41.874	1686.571	1523.776
-36.984	41.987	1684.668	1522.857
-35.969	42.092	1683.356	1522.412
-34.954	42.154	1681.483	1521.125
-33.940	42.105	1679.665	1519.049
-32.925	42.036	1677.968	1516.933
-31.911	42.081	1676.614	1515.987
-30.896	41.924	1674.870	1513.165
-29.881	41.967	1673.142	1511.868
-28.867	42.015	1671.313	1510.517
-27.852	42.005	1669.947	1509.146
-26.838	42.012	1668.049	1507.428
-25.823	42.111	1666.035	1506.290
-24.809	42.138	1665.092	1505.583
-23.794	42.065	1663.454	1503.495
-22.779	42.054	1662.387	1502.382
-21.765	42.017	1660.141	1500.018
-20.750	41.993	1658.702	1498.482
-19.736	42.058	1657.395	1497.724
-18.721	42.118	1655.750	1496.625
-17.706	42.027	1654.487	1494.745
-16.692	42.102	1652.288	1493.264
-15.677	42.052	1651.125	1491.776
-14.663	42.044	1649.780	1490.445
-13.648	42.060	1648.203	1489.079
-12.633	42.112	1646.773	1488.113
-11.619	42.085	1645.085	1486.333
-10.604	42.072	1643.907	1485.111
-9.590	42.008	1642.509	1483.312
-8.575	42.024	1641.391	1482.364
-7.560	41.994	1639.921	1480.752
-6.546	42.016	1638.426	1479.506
-5.531	42.052	1637.551	1478.927
-4.517	42.042	1636.086	1477.474
-3.502	42.092	1634.987	1476.788
-2.487	42.060	1633.748	1475.376
-1.473	42.050	1622.894	1465.441
-0.458	39.935	1603.596	1432.642
0.556	35.368	1602.661	1399.309
1.571	32.695	1626.466	1400.152
2.586	31.907	1641.592	1407.138
3.600	28.008	1587.710	1332.471
4.615	15.193	1465.195	1142.723
5.629	3.346	1388.840	1006.087
6.644	1.086	1378.392	983.772
7.659	0.851	1376.531	980.832
8.673	0.876	1375.338	980.058
9.688	0.807	1373.612	978.290
10.702	0.581	1371.245	975.059
11.717	4.803	1379.704	1008.377
12.731	16.416	1402.443	1100.980
13.746	24.069	1414.446	1160.389
14.761	24.519	1414.629	1163.368
15.775	24.530	1413.925	1162.759
16.790	24.570	1413.510	1162.574
17.804	24.640	1413.073	1162.567
18.819	24.827	1412.755	1163.418
19.834	24.838	1411.987	1162.757
20.848	24.832	1411.494	1162.210
21.863	24.812	1410.298	1160.994
22.877	24.883	1409.477	1160.675
23.892	24.844	1408.574	1159.578
24.907	24.958	1407.529	1159.350
25.921	24.829	1406.605	1157.650
26.936	24.865	1405.197	1156.622
27.950	24.951	1403.872	1155.985
28.965	24.868	1403.066	1154.687
29.980	24.888	1401.890	1153.740
30.994	24.825	1400.631	1152.197
32.009	24.926	1399.275	1151.633
33.023	24.886	1398.464	1150.605
34.038	24.890	1396.940	1149.274
35.053	24.846	1396.105	1148.207
36.067	24.856	1395.252	1147.468
37.082	24.965	1393.783	1146.855
38.096	24.747	1393.354	1145.005
39.111	24.827	1392.440	1144.665
40.126	24.839	1391.607	1143.954
41.140	24.839	1391.342	1143.635
42.155	24.810	1391.059	1143.118
43.169	24.868	1390.631	1143.035
44.184	24.897	1390.678	1143.152
45.199	24.726	1390.354	1141.695
46.213	24.768	1389.374	1141.056
47.228	24.908	1387.988	1140.711
48.242	24.998	1386.819	1140.223
49.257	24.859	1385.706	1138.320
50.271	24.890	1384.513	1137.441
51.286	24.862	1382.883	1135.823
52.301	24.859	1381.814	1134.821
53.315	24.880	1381.150	1134.309
54.330	24.920	1379.849	1133.397
55.344	24.865	1378.554	1131.884
56.359	24.937	1377.068	1131.016
57.374	24.874	1377.195	1130.624
58.388	24.868	1376.264	1129.721
59.403	24.774	1376.059	1128.861
60.417	24.850	1375.284	1128.602
61.432	24.890	1374.593	1128.190
62.447	24.886	1373.284	1126.988
63.461	24.795	1372.550	1125.717
64.476	24.917	1371.148	1125.235
65.490	24.833	1370.380	1123.977
66.505	24.822	1368.771	1122.486
67.520	24.834	1367.639	1121.538
68.534	24.859	1366.614	1120.754
69.549	24.891	1365.604	1120.021
70.563	24.918	1364.794	1119.429
71.578	24.890	1363.444	1118.051
72.593	24.836	1363.299	1117.496
73.607	24.891	1361.903	1116.594
74.622	24.928	1361.104	1116.072
75.636	24.945	1360.388	1115.493
76.651	24.914	1359.737	1114.662
77.666	24.928	1359.585	1114.530
78.680	24.787	1359.258	1113.287
79.695	24.897	1358.223	1113.024
80.709	24.859	1357.257	1111.896
81.724	24.894	1356.396	1111.308
82.739	24.866	1355.225	1110.077
83.753	24.887	1354.368	1109.406
84.768	24.844	1353.331	1108.196
85.782	24.875	1351.572	1106.851
86.797	24.871	1350.844	1106.128
87.812	24.801	1350.265	1105.124
88.826	24.880	1349.423	1104.823
89.841	24.881	1348.097	1103.648
90.855	24.971	1346.718	1102.979
91.870	24.898	1346.185	1101.990
92.884	24.904	1345.119	1101.057
93.899	24.937	1344.408	1100.581
94.914	24.927	1343.511	1099.689
95.928	24.957	1342.816	1099.206
96.943	25.010	1341.746	1098.557
97.957	24.906	1341.665	1097.755
98.972	24.940	1340.473	1096.895
99.987	25.019	1339.429	1096.427
101.001	24.983	1338.681	1095.496
102.016	24.949	1337.637	1094.337
103.030	24.970	1336.750	1093.642
104.045	24.921	1336.080	1092.697
105.060	24.903	1335.314	1091.869
106.074	24.980	1333.910	1091.091
107.089	24.910	1333.145	1089.942
108.103	24.951	1331.944	1089.114
109.118	25.033	1330.630	1088.442
110.133	25.002	1329.744	1087.433
111.147	24.974	1328.458	1086.117
112.162	24.939	1327.352	1084.900
113.176	24.995	1326.568	1084.505
114.191	24.984	1325.580	1083.532
115.206	25.010	1324.288	1082.536
116.220	24.938	1323.326	1081.224
117.235	25.020	1322.313	1080.793
118.249	24.955	1321.602	1079.726
119.264	24.945	1320.527	1078.689
120.279	24.971	1320.020	1078.340
121.293	25.030	1319.001	1077.765
122.308	25.120	1318.099	1077.475
123.322	25.026	1317.055	1075.962
124.337	24.995	1316.551	1075.267
125.352	25.107	1315.296	1074.821
126.366	25.063	1314.421	1073.747
127.381	25.045	1313.717	1072.969
128.395	25.057	1313.050	1072.398
129.410	25.038	1312.073	1071.395
130.424	25.092	1311.446	1071.106
131.439	25.122	1310.301	1070.255
132.454	24.922	1310.344	1069.006
133.468	25.058	1308.977	1068.605
134.483	25.092	1308.475	1068.303
135.497	25.122	1307.501	1067.594
136.512	25.058	1306.674	1066.438
137.527	25.086	1305.705	1065.725
138.541	25.045	1304.322	1064.257
139.556	25.107	1302.717	1063.220
140.570	25.036	1302.158	1062.247
141.585	25.003	1301.165	1061.151
142.600	24.985	1300.087	1060.070
143.614	25.067	1298.879	1059.478
144.629	25.031	1297.962	1058.420
145.643	24.933	1296.647	1056.677
146.658	24.945	1295.678	1055.868
147.673	24.964	1294.946	1055.287
148.687	24.901	1293.806	1053.891
149.702	24.960	1292.812	1053.339
150.716	24.969	1291.605	1052.315
151.731	25.066	1290.514	1051.903
152.746	24.893	1289.825	1050.233
153.760	24.968	1288.855	1049.786
154.775	24.986	1287.526	1048.721
155.789	25.082	1286.634	1048.462
156.804	24.977	1285.823	1047.095
157.819	24.993	1284.962	1046.392
158.833	25.141	1283.678	1046.120
159.848	25.108	1283.219	1045.461
160.862	25.168	1282.678	1045.278
161.877	25.105	1281.656	1043.986
162.892	25.117	1280.598	1043.097
163.906	25.116	1279.893	1042.425
164.921	25.085	1279.325	1041.693
165.935	25.090	1278.834	1041.228
166.950	25.107	1277.920	1040.491
167.964	25.096	1277.224	1039.771
168.979	25.101	1277.023	1039.542
169.994	25.061	1276.276	1038.612
171.008	25.080	1275.466	1037.967
172.023	25.183	1274.646	1037.808
173.037	25.256	1273.388	1037.113
174.052	25.164	1272.969	1036.148
175.067	25.226	1272.038	1035.658
176.081	25.200	1271.344	1034.849
177.096	25.231	1270.490	1034.242
178.110	25.235	1269.660	1033.497
179.125	25.208	1268.715	1032.478
180.140	25.159	1267.918	1031.460
181.154	25.168	1266.588	1030.335
182.169	25.144	1265.557	1029.273
183.183	25.236	1264.322	1028.700
184.198	25.201	1263.768	1027.959
185.213	25.206	1262.487	1026.858
186.227	25.260	1261.722	1026.449
187.242	25.220	1260.651	1025.263
188.256	25.178	1259.953	1024.365
189.271	25.235	1259.384	1024.133
190.286	25.293	1258.715	1023.830
191.300	25.179	1258.113	1022.603
192.315	25.327	1257.153	1022.575
193.329	25.218	1257.188	1021.888
194.344	25.296	1256.527	1021.706
195.359	25.118	1256.458	1020.545
196.373	25.138	1255.923	1020.136
197.388	25.104	1255.545	1019.544
198.402	25.257	1254.504	1019.477
199.417	25.299	1254.482	1019.609
200.432	25.268	1254.004	1018.954
201.446	25.189	1252.951	1017.558
202.461	25.209	1251.981	1016.795
203.475	25.222	1251.287	1016.218
204.490	25.251	1250.475	1015.631
205.504	25.270	1249.415	1014.787
206.519	25.279	1248.433	1013.949
207.534	25.322	1247.356	1013.226
208.548	25.240	1246.602	1012.062
209.563	25.356	1245.422	1011.670
210.577	25.272	1245.232	1010.951
211.592	25.425	1243.777	1010.543
212.607	25.331	1243.245	1009.495
213.621	25.295	1242.871	1008.900
214.636	25.345	1241.893	1008.293
215.650	25.396	1240.805	1007.609
216.665	25.393	1240.021	1006.867
217.680	25.340	1238.856	1005.535
218.694	25.354	1238.572	1005.296
219.709	25.331	1237.742	1004.404
220.723	25.361	1236.843	1003.753
221.738	25.396	1235.890	1003.085
222.753	25.279	1235.630	1002.130
223.767	25.321	1234.904	1001.687
224.782	25.503	1234.005	1001.886
225.796	25.518	1233.707	1001.638
226.811	25.452	1233.431	1000.956
227.826	25.453	1232.630	1000.223
228.840	25.557	1231.869	1000.096
229.855	25.451	1231.412	999.050
230.869	25.380	1230.585	997.897
231.884	25.368	1230.466	997.646
232.899	25.397	1229.172	996.667
233.913	25.368	1228.490	995.867
234.928	25.469	1228.150	996.063
235.942	25.650	1227.299	996.283
236.957	25.400	1226.835	994.434
237.972	25.433	1226.124	993.955
238.986	25.530	1224.956	993.458
240.001	25.588	1224.693	993.474
241.015	25.660	1223.700	992.980
242.030	25.625	1223.208	992.297
243.045	25.647	1222.172	991.493
244.059	25.616	1221.461	990.655
245.074	25.778	1220.256	990.483
246.088	25.627	1219.940	989.306
247.103	25.587	1219.531	988.668
248.117	25.633	1218.370	987.893
249.132	25.535	1217.743	986.759
250.147	25.749	1216.981	987.226
251.161	25.751	1216.141	986.470
252.176	25.662	1215.519	985.392
253.190	25.782	1214.910	985.468
254.205	25.738	1214.211	984.571
255.220	25.763	1213.753	984.249
256.234	25.657	1213.424	983.320
257.249	25.718	1212.857	983.103
258.263	25.748	1211.637	982.189
259.278	25.752	1211.450	981.973
260.293	25.804	1210.747	981.603
261.307	25.813	1210.163	981.088
262.322	25.814	1209.751	980.674
263.336	25.685	1209.210	979.449
264.351	25.736	1208.473	979.043
265.366	25.763	1207.790	978.548
266.380	25.775	1207.266	978.104
267.395	25.776	1206.224	977.179
268.409	25.730	1205.716	976.429
269.424	25.793	1205.299	976.346
270.439	25.826	1204.563	975.842
271.453	25.764	1204.220	975.143
272.468	25.741	1203.687	974.502
273.482	25.725	1202.572	973.424
274.497	25.804	1202.154	973.427
275.512	25.817	1201.783	973.111
276.526	25.827	1200.795	972.280
277.541	25.784	1200.443	971.675
278.555	25.850	1199.886	971.496
279.570	25.894	1198.664	970.659
280.585	25.888	1197.800	969.841
281.599	25.910	1196.861	969.112
282.614	25.875	1196.166	968.273
283.628	25.868	1195.465	967.582
284.643	25.895	1194.439	966.814
285.657	25.911	1193.729	966.238
286.672	25.942	1192.594	965.402
287.687	25.971	1192.165	965.124
288.701	25.942	1191.596	964.420
289.716	26.005	1190.646	963.902
290.730	25.991	1189.799	963.056
291.745	25.983	1189.657	962.813
292.760	25.935	1189.001	961.945
293.774	26.073	1188.407	962.113
294.789	26.040	1187.811	961.370
295.803	26.183	1186.872	961.286
296.818	26.078	1186.395	960.255
297.833	26.106	1185.450	959.553
298.847	26.118	1185.037	959.197
299.862	26.134	1184.352	958.646
300.876	26.046	1183.356	957.285
301.891	26.181	1182.984	957.615
302.906	26.229	1182.361	957.282
303.920	26.108	1181.782	956.090
304.935	26.172	1181.015	955.721
305.949	26.210	1180.401	955.343
306.964	26.126	1179.573	954.142
307.979	26.181	1179.206	954.052
308.993	26.241	1178.389	953.625
310.008	26.319	1177.458	953.197
311.022	26.252	1177.128	952.493
312.037	26.177	1176.012	951.110
313.052	26.159	1175.265	950.327
314.066	26.071	1174.762	949.375
315.081	26.128	1173.894	948.890
316.095	26.214	1173.128	948.634
317.110	26.247	1172.322	948.074
318.125	26.280	1171.903	947.826
319.139	26.263	1171.099	947.002
320.154	26.280	1170.737	946.715
321.168	26.251	1170.324	946.143
322.183	26.389	1169.335	945.984
323.197	26.313	1168.659	944.952
324.212	26.280	1168.115	944.256
325.227	26.245	1168.065	943.952
326.241	26.262	1167.598	943.577
327.256	26.316	1166.809	943.139
328.270	26.399	1165.722	942.608
329.285	26.353	1164.823	941.563
330.300	26.292	1164.360	940.786
331.314	26.401	1163.134	940.278
332.329	26.364	1162.075	939.148
333.343	26.443	1161.672	939.146
334.358	26.421	1160.746	938.201
335.373	26.519	1159.899	937.942
336.387	26.549	1159.691	937.849
337.402	26.476	1159.148	936.948
338.416	26.612	1158.057	936.686
339.431	26.566	1157.688	936.069
340.446	26.530	1157.205	935.406
341.460	26.570	1156.626	935.061
342.475	26.544	1155.358	933.820
343.489	26.615	1154.507	933.415
344.504	26.628	1153.716	932.762
345.519	26.635	1152.620	931.829
346.533	26.585	1152.248	931.191
347.548	26.519	1151.549	930.202
348.562	26.616	1150.854	930.056
349.577	26.552	1150.297	929.195
350.592	26.563	1149.360	928.411
351.606	26.512	1148.709	927.543
352.621	26.640	1147.935	927.491
353.635	26.637	1147.382	926.948
354.650	26.718	1146.905	926.895
355.665	26.629	1145.878	925.526
356.679	26.762	1145.186	925.567
357.694	26.579	1145.025	924.421
358.708	26.749	1144.156	924.504
359.723	26.646	1143.494	923.363
360.738	26.576	1143.175	922.664
361.752	26.594	1142.572	922.191
362.767	26.698	1141.792	922.007
363.781	26.759	1141.330	921.860
364.796	26.812	1140.745	921.579
365.810	26.822	1139.985	920.933
366.825	26.775	1139.277	920.042
367.840	26.733	1139.050	919.565
368.854	26.882	1138.604	919.879
369.869	26.856	1137.760	918.984
370.883	26.816	1136.857	917.972
371.898	26.871	1135.934	917.420
372.913	26.885	1135.647	917.178
373.927	26.941	1134.818	916.709
374.942	26.938	1134.542	916.391
375.956	26.913	1134.125	915.849
376.971	26.878	1133.711	915.255
377.986	27.006	1132.883	915.153
379.000	26.880	1132.545	914.165
380.015	27.000	1131.901	914.168
381.029	27.015	1131.146	913.553
382.044	26.931	1130.626	912.627
383.059	26.863	1129.990	911.694
384.073	27.009	1129.268	911.762
385.088	26.995	1128.391	910.901
386.102	26.980	1127.527	910.049
387.117	26.972	1126.604	909.182
388.132	26.864	1125.694	907.829
389.146	26.994	1124.976	907.818
390.161	27.102	1124.121	907.590
391.175	27.029	1123.850	906.927
392.190	27.044	1123.152	906.354
393.205	27.053	1122.492	905.789
394.219	27.012	1121.430	904.646
395.234	27.105	1120.834	904.552
396.248	27.115	1119.888	903.756
397.263	27.183	1119.030	903.323
398.278	27.142	1118.805	902.854
399.292	27.200	1118.297	902.654
400.307	27.249	1117.579	902.238
401.321	27.200	1117.163	901.581
402.336	27.158	1115.983	900.340
403.350	27.130	1115.664	899.866
404.365	27.164	1114.919	899.353
405.380	27.271	1114.314	899.312
406.394	27.382	1113.308	898.971
407.409	27.323	1112.620	898.046
408.423	27.303	1111.750	897.162
409.438	27.372	1110.838	896.687
410.453	27.370	1110.298	896.162
411.467	27.367	1109.841	895.697
412.482	27.419	1109.047	895.233
413.496	27.368	1108.632	894.573
414.511	27.338	1108.084	893.904
415.526	27.395	1107.595	893.708
416.540	27.507	1106.615	893.385
417.555	27.473	1106.279	892.872
418.569	27.366	1106.145	892.157
419.584	27.428	1105.291	891.696
420.599	27.397	1105.170	891.367
421.613	83.886	1292.429	1353.452
422.628	78.644	1319.703	1353.570
