DTS Sentinel unit serial number:	SN413079Multiplexer serial number:	ORYXHardware model number:	OX4-SRSoftware version number:	ORYX F/W v4.00 Oryx Data Collector v3.7.2.0data status	okinstallation	princeton_trtdifferential loss correction	single-endedforward channel	channel 2reverse channel	N/Adate	2019/09/10time	20:01:10forward acquisition time	60.00reverse acquisition time	0.00gamma	496.2192k internal	0.2328k external	0.2328temperature offset calibration	0.9947default loss term (dB/km)	0.3790temperature slope calibration	1.0000multiplexer offset coefficient	1.0000multiplexer slope coefficient	1.0000fibre end	0.00T internal ref (°C)	32.62T ext. ref 1 (°C)	-0.31T ext. ref 2 (°C)	25.70length (m)	temperature (°C)	Stokes	anti-Stokes-747.200	251.671	0.062	0.107
-746.185	800.000	-0.097	0.275
-745.171	800.000	-0.040	0.127
-744.156	132.839	-0.139	0.181
-743.142	-119.554	0.368	-0.064
-742.127	192.759	-0.075	-0.114
-741.112	800.000	0.047	-0.164
-740.098	76.412	-0.188	0.200
-739.083	-9.294	-0.203	0.137
-738.069	-200.000	-0.017	0.091
-737.054	-200.000	-0.020	-0.139
-736.039	-27.078	-0.150	-0.088
-735.025	380.870	-0.063	-0.130
-734.010	-8.461	-0.056	-0.038
-732.996	-106.484	-0.291	-0.065
-731.981	-43.339	0.241	-0.123
-730.966	800.000	-0.040	-0.135
-729.952	-200.000	0.014	-0.258
-728.937	38.653	0.012	0.010
-727.923	220.174	0.027	0.044
-726.908	-108.240	0.205	0.045
-725.894	-118.744	0.135	0.024
-724.879	114.182	-0.173	-0.212
-723.864	111.046	0.095	-0.115
-722.850	216.602	0.144	-0.231
-721.835	-76.468	-0.174	0.062
-720.821	-120.396	0.342	-0.059
-719.806	47.091	-0.142	0.133
-718.791	108.178	-0.240	-0.288
-717.777	4.326	-0.328	-0.242
-716.762	129.535	0.026	0.034
-715.748	355.078	0.079	-0.159
-714.733	36.718	-0.157	0.140
-713.718	-0.445	0.344	0.246
-712.704	-108.606	0.179	0.039
-711.689	-128.479	-0.145	0.021
-710.675	21.211	-0.115	0.094
-709.660	-150.933	0.232	0.018
-708.645	109.547	-0.108	0.130
-707.631	101.642	0.138	0.161
-706.616	-124.018	0.126	0.020
-705.602	495.298	0.041	0.094
-704.587	-139.131	-0.310	-0.034
-703.572	48.542	-0.211	-0.199
-702.558	-200.000	0.007	-0.135
-701.543	725.366	-0.037	-0.100
-700.529	-83.173	0.198	-0.064
-699.514	455.846	-0.093	-0.207
-698.499	166.425	0.007	-0.010
-697.485	10.801	-0.057	-0.043
-696.470	-200.000	0.009	-0.291
-695.456	-87.637	-0.302	-0.092
-694.441	94.771	0.072	-0.083
-693.426	-43.168	-0.170	0.086
-692.412	-200.000	-0.035	0.194
-691.397	-151.241	-0.209	-0.016
-690.383	-200.000	0.004	-0.082
-689.368	-92.836	-0.257	0.072
-688.354	-175.090	-0.103	0.003
-687.339	-25.978	-0.079	-0.047
-686.324	74.146	0.168	0.178
-685.310	-130.159	-0.351	0.048
-684.295	-200.000	-0.085	0.455
-683.281	800.000	0.048	-0.202
-682.266	800.000	-0.060	-0.184
-681.251	-89.919	-0.321	-0.094
-680.237	244.268	0.047	-0.079
-679.222	-46.086	0.036	0.018
-678.208	69.014	0.095	0.098
-677.193	-200.000	-0.036	-0.191
-676.178	45.776	-0.306	-0.284
-675.164	-128.236	-0.281	0.040
-674.149	-200.000	0.043	-0.256
-673.135	-146.144	-0.353	-0.031
-672.120	62.977	0.277	-0.279
-671.105	-31.760	-0.464	-0.262
-670.091	413.852	-0.149	0.319
-669.076	190.742	0.046	-0.070
-668.062	-6.537	0.217	-0.148
-667.047	35.974	0.059	0.053
-666.032	590.012	0.067	-0.165
-665.018	168.078	0.149	-0.213
-664.003	128.266	-0.163	0.209
-662.989	-132.836	-0.118	-0.015
-661.974	-200.000	-0.064	0.424
-660.959	800.000	0.165	-0.523
-659.945	-200.000	0.058	-0.287
-658.930	214.580	0.132	-0.209
-657.916	116.612	-0.041	0.050
-656.901	-107.979	-0.213	-0.046
-655.886	-73.513	-0.126	-0.046
-654.872	-132.057	0.089	0.012
-653.857	-5.945	-0.267	-0.183
-652.843	800.000	-0.052	0.183
-651.828	-178.989	-0.166	0.004
-650.814	83.392	-0.122	-0.134
-649.799	672.865	0.096	0.250
-648.784	-158.408	-0.352	0.020
-647.770	98.284	0.065	-0.075
-646.755	92.059	0.125	0.141
-645.741	-75.059	0.225	0.081
-644.726	-70.529	0.128	0.049
-643.711	78.157	-0.323	0.346
-642.697	800.000	0.017	0.054
-641.682	800.000	-0.038	0.105
-640.668	-158.989	-0.096	0.005
-639.653	263.838	-0.042	-0.073
-638.638	275.569	-0.025	0.044
-637.624	-122.207	-0.263	-0.043
-636.609	-39.858	0.162	0.085
-635.595	152.696	-0.169	-0.232
-634.580	178.004	-0.122	-0.179
-633.565	800.000	-0.062	-0.233
-632.551	384.311	-0.071	-0.146
-631.536	800.000	-0.040	-0.130
-630.522	800.000	-0.125	-0.519
-629.507	37.652	0.049	0.043
-628.492	-135.635	-0.264	0.031
-627.478	757.970	-0.115	-0.312
-626.463	-200.000	0.012	0.054
-625.449	-200.000	-0.007	-0.036
-624.434	140.105	0.051	-0.067
-623.419	27.057	-0.157	0.132
-622.405	-68.033	-0.229	0.090
-621.390	-170.149	-0.249	-0.009
-620.376	238.802	-0.058	0.097
-619.361	-200.000	-0.019	-0.248
-618.346	-200.000	0.027	0.211
-617.332	109.199	0.104	-0.125
-616.317	-200.000	0.024	-0.153
-615.303	800.000	-0.117	-0.464
-614.288	-98.254	-0.287	-0.074
-613.273	-123.005	0.205	0.033
-612.259	800.000	0.032	0.119
-611.244	-29.223	-0.110	-0.063
-610.230	-159.260	-0.240	-0.013
-609.215	-52.061	-0.160	-0.075
-608.201	269.436	-0.140	0.246
-607.186	-151.815	-0.174	0.013
-606.171	31.125	0.316	-0.271
-605.157	215.643	-0.160	0.255
-604.142	-5.469	0.164	0.113
-603.128	800.000	0.027	-0.090
-602.113	28.907	-0.395	-0.336
-601.098	-165.723	0.153	-0.007
-600.084	-95.343	-0.067	-0.018
-599.069	-200.000	-0.005	0.161
-598.055	10.287	0.149	0.114
-597.040	139.562	0.138	-0.182
-596.025	-160.618	-0.097	0.005
-595.011	-19.344	0.182	0.113
-593.996	11.892	-0.274	-0.211
-592.982	-141.238	0.495	0.050
-591.967	-78.533	-0.321	0.110
-590.952	-108.193	-0.132	-0.029
-589.938	65.321	-0.051	0.051
-588.923	-200.000	0.014	-0.079
-587.909	221.735	0.056	-0.091
-586.894	102.095	-0.084	0.098
-585.879	127.579	-0.229	-0.291
-584.865	-200.000	0.041	0.250
-583.850	90.517	0.230	0.257
-582.836	-200.000	-0.021	0.164
-581.821	-200.000	-0.033	0.257
-580.806	45.018	0.072	0.067
-579.792	588.004	-0.068	0.169
-578.777	105.983	0.197	0.234
-577.763	-13.214	0.065	0.043
-576.748	-200.000	-0.014	0.213
-575.733	-70.187	0.214	-0.082
-574.719	-163.748	0.216	-0.010
-573.704	-157.189	0.190	0.012
-572.690	-200.000	-0.027	-0.269
-571.675	550.427	0.046	-0.110
-570.661	44.926	-0.074	-0.068
-569.646	115.296	0.347	0.424
-568.631	-144.113	0.365	-0.034
-567.617	-6.462	0.138	0.094
-566.602	9.921	-0.128	0.097
-565.588	-159.387	0.437	-0.024
-564.573	-200.000	-0.022	-0.440
-563.558	201.490	0.170	-0.262
-562.544	-115.516	0.276	-0.052
-561.529	-200.000	0.013	0.217
-560.515	-200.000	-0.031	-0.235
-559.500	-109.178	-0.251	0.053
-558.485	633.566	-0.079	0.201
-557.471	119.762	-0.076	-0.094
-556.456	-200.000	-0.044	0.220
-555.442	-13.518	0.066	0.043
-554.427	-200.000	-0.008	-0.150
-553.412	716.325	-0.090	-0.239
-552.398	-127.294	-0.453	0.066
-551.383	-119.045	0.111	0.019
-550.369	-13.850	0.131	0.085
-549.354	334.829	-0.187	-0.363
-548.339	216.213	0.143	-0.228
-547.325	20.397	-0.218	0.176
-546.310	-40.457	-0.058	0.030
-545.296	96.140	-0.230	-0.262
-544.281	-59.479	-0.345	0.148
-543.266	-200.000	-0.015	0.296
-542.252	-200.000	-0.022	-0.213
-541.237	-38.178	0.304	0.161
-540.223	-200.000	0.051	-0.356
-539.208	53.577	0.140	-0.134
-538.193	-173.340	-0.310	0.009
-537.179	-68.117	0.213	-0.083
-536.164	-151.698	0.223	-0.016
-535.150	-40.442	0.183	-0.095
-534.135	-54.172	-0.254	0.115
-533.121	168.481	-0.153	0.218
-532.106	57.835	-0.174	-0.171
-531.091	291.662	0.032	0.058
-530.077	-43.356	-0.128	0.065
-529.062	130.165	-0.101	-0.129
-528.048	800.000	0.022	-0.094
-527.033	-58.521	-0.301	-0.130
-526.018	-104.126	-0.207	-0.048
-525.004	-200.000	-0.012	0.159
-523.989	-43.648	0.304	0.153
-522.975	279.234	-0.112	-0.200
-521.960	-105.809	-0.069	-0.016
-520.945	-122.271	0.440	-0.072
-519.931	-200.000	-0.039	-0.236
-518.916	-29.290	0.193	0.110
-517.902	-60.715	0.098	0.042
-516.887	494.512	-0.072	0.165
-515.872	-22.561	0.043	0.026
-514.858	32.372	0.201	-0.173
-513.843	-92.173	0.203	-0.057
-512.829	-200.000	-0.067	0.448
-511.814	42.739	-0.297	0.270
-510.799	279.146	-0.122	0.218
-509.785	-200.000	-0.033	-0.298
-508.770	281.746	-0.308	-0.551
-507.756	-25.273	-0.236	0.140
-506.741	-170.571	-0.363	-0.013
-505.726	768.423	0.028	-0.076
-504.712	-42.403	-0.338	-0.172
-503.697	-63.816	-0.186	-0.076
-502.683	34.427	0.266	-0.232
-501.668	466.885	-0.194	0.434
-500.653	-200.000	-0.025	-0.437
-499.639	-67.308	0.047	0.018
-498.624	-121.307	-0.182	-0.030
-497.610	-78.197	0.369	-0.126
-496.595	800.000	-0.090	-0.313
-495.581	-158.159	-0.227	-0.013
-494.566	-200.000	-0.007	-0.183
-493.551	-98.483	0.122	0.031
-492.537	-96.437	-0.282	0.074
-491.522	-139.569	0.354	0.038
-490.508	121.905	-0.170	-0.211
-489.493	-200.000	-0.049	-0.241
-488.478	1.789	-0.205	-0.148
-487.464	306.443	-0.103	0.190
-486.449	263.865	0.201	-0.348
-485.435	-151.020	0.346	-0.026
-484.420	347.585	-0.145	0.285
-483.405	92.468	0.203	0.228
-482.391	800.000	0.074	0.249
-481.376	37.099	-0.194	-0.171
-480.362	85.941	-0.139	-0.153
-479.347	-200.000	-0.065	-0.431
-478.332	-107.801	-0.214	-0.047
-477.318	-134.198	-0.137	0.017
-476.303	132.217	-0.152	-0.195
-475.289	-67.741	0.286	0.112
-474.274	182.963	0.054	0.079
-473.259	-94.968	-0.225	-0.061
-472.245	800.000	0.050	0.185
-471.230	-200.000	-0.011	-0.062
-470.216	-200.000	0.034	0.176
-469.201	-136.448	0.189	-0.022
-468.186	37.712	0.045	-0.039
-467.172	556.637	0.015	0.036
-466.157	95.298	0.177	-0.201
-465.143	-33.392	-0.073	-0.040
-464.128	-157.099	-0.234	-0.014
-463.113	192.456	0.132	0.199
-462.099	-73.004	0.316	0.116
-461.084	585.272	0.041	0.101
-460.070	-71.508	0.253	0.094
-459.055	-8.213	-0.223	-0.150
-458.040	4.301	-0.286	0.209
-457.026	103.574	-0.080	0.094
-456.011	-200.000	0.058	-0.266
-454.997	-200.000	-0.013	0.142
-453.982	271.326	-0.083	-0.146
-452.968	-63.160	-0.534	-0.219
-451.953	800.000	-0.041	-0.176
-450.938	-60.422	0.239	0.101
-449.924	-200.000	0.032	0.335
-448.909	155.170	-0.129	-0.176
-447.895	-200.000	-0.024	-0.142
-446.880	-5.699	0.271	-0.185
-445.865	800.000	-0.040	0.156
-444.851	-73.491	-0.341	-0.124
-443.836	-175.424	-0.327	-0.009
-442.822	28.580	-0.117	0.099
-441.807	-200.000	-0.011	-0.081
-440.792	130.071	-0.032	-0.041
-439.778	97.501	-0.100	0.115
-438.763	143.119	0.091	0.121
-437.749	-39.812	-0.192	-0.100
-436.734	-200.000	-0.022	-0.141
-435.719	81.803	-0.062	-0.066
-434.705	-134.351	0.182	-0.022
-433.690	800.000	0.073	0.222
-432.676	40.680	0.081	0.073
-431.661	360.678	-0.049	0.097
-430.646	86.083	-0.102	0.111
-429.632	185.595	0.099	-0.146
-428.617	800.000	-0.130	0.357
-427.603	-68.149	-0.157	0.061
-426.588	-151.582	0.083	0.006
-425.573	-122.172	0.203	0.033
-424.559	-200.000	0.027	-0.265
-423.544	4.798	0.148	0.108
-422.530	-200.000	-0.005	0.031
-421.515	82.052	-0.165	-0.178
-420.500	145.805	0.265	-0.354
-419.486	-200.000	-0.021	-0.426
-418.471	-200.000	0.015	-0.190
-417.457	-200.000	-0.010	-0.079
-416.442	-39.243	-0.180	-0.094
-415.428	-99.614	-0.223	0.056
-414.413	-89.209	-0.500	0.147
-413.398	595.449	-0.036	0.089
-412.384	-57.540	0.132	-0.057
-411.369	272.167	-0.112	0.196
-410.355	251.741	0.135	0.228
-409.340	173.465	-0.093	0.133
-408.325	-169.910	0.269	-0.010
-407.311	-19.033	-0.078	-0.048
-406.296	-200.000	0.001	0.194
-405.282	800.000	0.085	-0.235
-404.267	-183.008	0.422	0.007
-403.252	-200.000	0.003	0.150
-402.238	800.000	0.076	-0.213
-401.223	800.000	0.148	0.421
-400.209	-49.176	-0.090	0.043
-399.194	-127.332	-0.468	-0.068
-398.179	-43.114	0.028	0.014
-397.165	800.000	0.021	0.080
-396.150	104.611	0.095	0.112
-395.136	-200.000	-0.023	-0.225
-394.121	-200.000	0.017	-0.216
-393.106	29.277	0.106	-0.090
-392.092	-73.335	0.129	-0.047
-391.077	595.972	-0.024	0.059
-390.063	-200.000	-0.012	0.264
-389.048	143.467	-0.106	-0.140
-388.033	-78.375	-0.215	0.073
-387.019	59.641	0.101	-0.099
-386.004	800.000	-0.069	0.209
-384.990	-57.099	-0.181	-0.079
-383.975	288.960	-0.037	-0.067
-382.960	-200.000	-0.018	0.117
-381.946	-18.783	-0.306	0.190
-380.931	-42.387	-0.253	0.128
-379.917	-200.000	-0.029	0.278
-378.902	-158.907	0.228	0.013
-377.888	-100.738	-0.286	0.070
-376.873	570.472	0.089	0.214
-375.858	-138.184	-0.363	0.040
-374.844	-130.758	0.253	-0.034
-373.829	-170.426	0.219	0.008
-372.815	-78.001	0.384	-0.132
-371.800	-159.655	0.269	-0.015
-370.785	60.547	0.176	0.173
-369.771	45.230	-0.123	-0.113
-368.756	-12.332	-0.173	-0.112
-367.742	-181.982	0.058	0.001
-366.727	-200.000	-0.013	0.174
-365.712	-138.599	-0.228	-0.025
-364.698	-28.163	0.257	0.148
-363.683	800.000	-0.094	-0.316
-362.669	-200.000	0.034	0.184
-361.654	128.604	-0.177	0.224
-360.639	246.336	0.203	0.340
-359.625	800.000	0.026	0.091
-358.610	-6.269	0.091	-0.062
-357.596	-28.882	0.121	-0.069
-356.581	6.833	0.066	-0.049
-355.566	-71.275	-0.115	0.043
-354.552	191.308	-0.144	0.215
-353.537	-134.510	-0.134	0.016
-352.523	-200.000	0.024	0.125
-351.508	251.012	-0.207	0.349
-350.493	-97.110	-0.182	0.047
-349.479	-200.000	-0.040	-0.193
-348.464	800.000	-0.076	0.265
-347.450	-117.432	0.281	0.050
-346.435	-200.000	-0.005	-0.168
-345.420	635.067	-0.118	0.297
-344.406	-129.466	-0.202	-0.028
-343.391	-108.094	0.374	-0.080
-342.377	281.210	-0.029	-0.051
-341.362	89.644	-0.048	0.053
-340.348	230.896	0.175	-0.284
-339.333	261.537	0.140	-0.241
-338.318	-95.928	-0.126	0.033
-337.304	502.371	0.047	0.107
-336.289	84.519	-0.138	-0.150
-335.275	-137.899	0.227	0.025
-334.260	800.000	-0.107	0.311
-333.245	-200.000	-0.008	0.139
-332.231	800.000	-0.077	0.301
-331.216	-33.611	-0.294	0.161
-330.202	118.673	0.071	0.087
-329.187	-200.000	0.029	0.223
-328.172	-79.739	-0.105	-0.035
-327.158	25.465	0.147	0.121
-326.143	254.893	-0.246	-0.417
-325.129	-137.636	-0.241	0.027
-324.114	33.965	0.076	-0.066
-323.099	199.370	0.120	0.182
-322.085	-52.937	-0.038	0.017
-321.070	-102.015	0.227	-0.054
-320.056	-144.603	0.550	0.050
-319.041	800.000	0.058	-0.205
-318.026	-200.000	0.024	-0.343
-317.012	765.377	0.053	-0.143
-315.997	86.580	-0.076	0.083
-314.983	-115.909	-0.165	0.031
-313.968	-200.000	0.047	-0.210
-312.953	-49.722	0.082	-0.039
-311.939	60.747	-0.071	0.070
-310.924	320.871	0.130	0.244
-309.910	-47.101	0.388	0.188
-308.895	80.161	-0.124	-0.132
-307.880	-150.242	0.174	-0.013
-306.866	800.000	-0.068	-0.268
-305.851	64.234	0.232	0.231
-304.837	6.257	-0.190	-0.140
-303.822	800.000	0.014	-0.055
-302.807	52.909	0.137	-0.130
-301.793	1.606	0.082	0.059
-300.778	-68.251	0.184	0.071
-299.764	-65.886	0.130	0.051
-298.749	322.079	0.147	-0.278
-297.735	146.165	0.140	-0.186
-296.720	351.045	-0.051	0.100
-295.705	-162.918	0.302	-0.015
-294.691	-77.118	0.345	-0.119
-293.676	-200.000	-0.001	-0.010
-292.662	775.831	0.097	-0.261
-291.647	134.185	-0.216	0.277
-290.632	-200.000	0.020	0.151
-289.618	800.000	0.070	-0.259
-288.603	39.928	0.146	0.129
-287.589	153.861	0.181	0.246
-286.574	266.332	-0.032	0.055
-285.559	-4.396	0.237	0.163
-284.545	-186.425	-0.307	0.004
-283.530	-200.000	-0.037	-0.221
-282.516	-192.560	-0.171	-0.002
-281.501	-200.000	-0.036	0.187
-280.486	-46.165	0.081	-0.040
-279.472	-69.271	-0.223	-0.085
-278.457	-82.249	0.060	-0.019
-277.443	372.119	-0.060	-0.121
-276.428	632.316	0.144	0.360
-275.413	-200.000	-0.018	0.178
-274.399	-88.628	-0.391	-0.115
-273.384	-200.000	-0.018	0.247
-272.370	467.153	-0.079	-0.176
-271.355	800.000	-0.009	-0.024
-270.340	-120.971	-0.368	-0.061
-269.326	800.000	-0.044	-0.131
-268.311	-44.062	0.257	-0.128
-267.297	63.603	-0.221	0.219
-266.282	423.880	-0.055	0.117
-265.267	-200.000	0.025	-0.277
-264.253	34.351	-0.093	0.081
-263.238	-141.985	0.376	0.037
-262.224	-165.535	0.087	0.004
-261.209	76.592	0.170	-0.178
-260.195	800.000	-0.054	0.200
-259.180	-200.000	0.001	-0.116
-258.165	282.696	0.088	0.155
-257.151	771.996	0.068	0.184
-256.136	-200.000	-0.017	0.167
-255.122	800.000	0.029	-0.095
-254.107	-200.000	-0.021	0.217
-253.092	156.666	-0.087	-0.119
-252.078	101.136	-0.224	0.257
-251.063	800.000	0.011	0.038
-250.049	139.625	0.278	-0.362
-249.034	130.607	-0.150	-0.190
-248.019	-200.000	-0.103	0.481
-247.005	-24.749	0.116	0.068
-245.990	154.639	0.394	0.535
-244.976	-125.766	-0.295	0.044
-243.961	8.754	0.109	0.081
-242.946	-88.667	0.123	-0.036
-241.932	78.285	0.230	-0.243
-240.917	-31.515	0.221	0.123
-239.903	-200.000	-0.037	-0.243
-238.888	-23.632	-0.129	0.076
-237.873	800.000	-0.160	-0.476
-236.859	-147.315	0.131	-0.011
-235.844	59.160	-0.317	-0.308
-234.830	-200.000	0.014	-0.122
-233.815	-76.740	-0.395	-0.137
-232.800	-117.336	0.264	-0.047
-231.786	-200.000	0.015	0.412
-230.771	-200.000	0.015	0.108
-229.757	-111.459	0.097	0.019
-228.742	-200.000	-0.019	-0.196
-227.727	-200.000	-0.019	-0.114
-226.713	-3.679	-0.113	-0.078
-225.698	-200.000	0.019	0.322
-224.684	-62.676	0.100	-0.041
-223.669	-200.000	-0.002	-0.168
-222.655	800.000	0.066	0.256
-221.640	101.872	0.160	0.184
-220.625	218.778	-0.149	-0.235
-219.611	-1.274	0.166	0.115
-218.596	-200.000	-0.043	0.210
-217.582	11.540	0.201	0.152
-216.567	-179.076	0.355	-0.008
-215.552	-115.710	0.064	-0.012
-214.538	-200.000	0.040	0.416
-213.523	161.986	0.011	0.015
-212.509	-104.465	0.350	0.080
-211.494	11.305	0.200	-0.151
-210.479	-200.000	-0.017	-0.118
-209.465	34.386	-0.126	0.109
-208.450	262.667	-0.211	-0.361
-207.436	-200.000	0.043	-0.292
-206.421	20.496	0.092	0.073
-205.406	-2.090	0.105	-0.073
-204.392	800.000	0.069	-0.222
-203.377	-200.000	-0.021	-0.115
-202.363	90.566	-0.204	-0.226
-201.348	-200.000	-0.012	-0.052
-200.333	-7.529	-0.195	0.130
-199.319	-147.546	-0.479	-0.040
-198.304	125.452	-0.171	0.212
-197.290	-200.000	-0.032	0.280
-196.275	-5.542	-0.132	-0.090
-195.260	-141.599	0.291	0.029
-194.246	-200.000	0.006	-0.149
-193.231	-200.000	-0.033	-0.243
-192.217	547.761	0.099	0.233
-191.202	800.000	0.048	-0.203
-190.187	260.933	0.047	-0.080
-189.173	-154.343	0.242	0.016
-188.158	528.493	0.137	0.318
-187.144	-200.000	-0.076	0.371
-186.129	-120.880	-0.247	0.041
-185.114	70.339	-0.140	0.143
-184.100	-57.183	-0.110	0.048
-183.085	-132.376	0.096	-0.012
-182.071	-36.682	-0.071	0.038
-181.056	233.425	-0.062	-0.101
-180.042	-200.000	-0.079	-0.000
-179.027	-72.511	0.328	-0.119
-178.012	372.481	-0.050	-0.101
-176.998	800.000	0.095	-0.260
-175.983	-73.022	0.194	0.070
-174.969	185.733	0.085	-0.125
-173.954	-200.000	0.020	-0.193
-172.939	-166.232	-0.190	0.008
-171.925	-124.640	-0.104	0.016
-170.910	427.357	0.021	-0.045
-169.896	-28.332	0.100	0.057
-168.881	14.068	0.051	0.039
-167.866	-23.309	0.182	-0.108
-166.852	-7.169	0.203	0.136
-165.837	-141.981	0.183	0.018
-164.823	-198.008	0.263	0.002
-163.808	220.529	0.134	0.211
-162.793	231.387	0.107	-0.173
-161.779	-91.918	0.282	-0.079
-160.764	67.292	0.065	0.065
-159.750	-175.995	0.238	-0.006
-158.735	-62.348	0.290	0.119
-157.720	33.453	0.179	0.153
-156.706	-109.831	-0.102	0.021
-155.691	109.323	0.238	0.281
-154.677	-12.465	-0.160	-0.103
-153.662	800.000	0.039	-0.114
-152.647	-200.000	-0.028	0.143
-151.633	-17.553	-0.102	0.063
-150.618	61.307	-0.209	0.204
-149.604	-95.573	0.225	0.059
-148.589	800.000	0.050	0.149
-147.574	338.539	0.089	0.170
-146.560	-200.000	-0.046	-0.341
-145.545	-4.983	-0.207	0.140
-144.531	56.793	0.228	-0.219
-143.516	580.900	-0.082	-0.198
-142.502	-200.000	-0.003	-0.211
-141.487	-130.937	0.137	-0.018
-140.472	800.000	0.066	0.221
-139.458	-200.000	0.003	-0.289
-138.443	-77.747	0.077	0.026
-137.429	19.716	0.227	-0.180
-136.414	118.301	-0.170	0.207
-135.399	800.000	0.048	-0.142
-134.385	176.815	-0.050	0.071
-133.370	-45.049	-0.096	0.047
-132.356	82.136	-0.242	0.258
-131.341	800.000	0.036	0.125
-130.326	443.330	-0.093	-0.201
-129.312	-63.207	-0.188	0.076
-128.297	-21.894	-0.367	0.220
-127.283	606.900	-0.058	-0.141
-126.268	-98.668	-0.175	0.044
-125.253	-181.306	0.161	0.003
-124.239	800.000	-0.025	-0.069
-123.224	20.177	0.010	-0.008
-122.210	-53.587	-0.173	-0.078
-121.195	12.728	-0.200	0.152
-120.180	25.503	0.292	0.239
-119.166	308.618	0.115	0.211
-118.151	800.000	0.052	0.193
-117.137	-157.029	0.435	-0.026
-116.122	-109.980	-0.280	0.058
-115.107	800.000	-0.059	0.195
-114.093	-200.000	0.053	-0.235
-113.078	87.738	-0.252	-0.274
-112.064	122.599	-0.072	-0.088
-111.049	-192.872	0.184	0.002
-110.034	-200.000	-0.006	-0.041
-109.020	53.914	0.213	-0.201
-108.005	514.890	0.012	-0.028
-106.991	-30.196	-0.137	0.077
-105.976	800.000	-0.096	-0.326
-104.962	16.975	-0.151	0.118
-103.947	-63.766	0.234	-0.094
-102.932	-67.039	0.120	0.046
-101.918	22.227	0.172	-0.138
-100.903	-18.171	-0.273	0.168
-99.889	-200.000	-0.031	0.450
-98.874	137.898	-0.143	-0.184
-97.859	-112.247	0.085	0.017
-96.845	90.853	-0.134	-0.147
-95.830	-51.873	0.344	-0.157
-94.816	268.683	0.059	-0.101
-93.801	-127.329	0.223	-0.032
-92.786	166.808	0.107	0.149
-91.772	-200.000	0.017	0.117
-90.757	-134.795	-0.271	-0.032
-89.743	800.000	0.018	0.053
-88.728	-117.914	0.243	-0.043
-87.713	-200.000	0.037	-0.341
-86.699	641.154	0.071	0.177
-85.684	-81.867	-0.492	-0.158
-84.670	-98.831	-0.406	-0.101
-83.655	50.960	-0.062	-0.058
-82.640	-74.955	0.193	-0.068
-81.626	-15.330	-0.265	-0.167
-80.611	-51.111	-0.126	0.058
-79.597	-102.340	-0.108	-0.025
-78.582	-23.168	-0.229	0.135
-77.567	-50.362	-0.010	0.005
-76.553	-200.000	0.003	-0.249
-75.538	-34.613	-0.100	0.054
-74.524	-200.000	-0.008	0.254
-73.509	146.164	0.020	-0.026
-72.494	359.940	0.214	0.420
-71.480	115.939	-0.107	0.128
-70.465	-26.196	-0.091	0.052
-69.451	25.695	-0.081	-0.066
-68.436	-2.020	-0.206	0.142
-67.422	10.189	0.312	-0.233
-66.407	-136.830	0.150	0.017
-65.392	225.540	-0.059	0.093
-64.378	201.010	-0.094	0.142
-63.363	-127.030	-0.246	0.036
-62.349	-53.704	-0.319	0.143
-61.334	146.511	-0.910	-1.199
-60.319	432.388	0.330	0.702
-59.305	800.000	-0.212	-0.820
-58.290	216.408	0.713	1.112
-57.276	480.635	0.680	1.514
-56.261	-200.000	99.261	603.045
-55.246	607.981	1417.615	3469.367
-54.232	187.571	2623.832	3840.892
-53.217	111.043	2287.692	2702.112
-52.203	42.084	1903.314	1694.698
-51.188	35.854	1693.073	1460.355
-50.173	33.193	1648.236	1401.930
-49.159	50.067	1696.754	1570.485
-48.144	51.833	1712.905	1598.658
-47.130	35.381	1671.841	1438.265
-46.115	32.679	1657.275	1405.559
-45.100	32.426	1652.912	1399.924
-44.086	32.492	1650.160	1398.031
-43.071	32.573	1646.918	1395.824
-42.057	32.403	1645.040	1392.924
-41.042	32.472	1643.030	1391.671
-40.027	32.445	1641.087	1389.772
-39.013	32.434	1638.627	1387.555
-37.998	32.427	1637.308	1386.330
-36.984	32.558	1635.741	1385.913
-35.969	32.529	1634.927	1384.956
-34.954	32.608	1633.102	1383.933
-33.940	32.602	1630.779	1381.869
-32.925	32.648	1628.902	1380.560
-31.911	32.592	1627.247	1378.689
-30.896	32.668	1625.328	1377.566
-29.881	32.559	1624.055	1375.632
-28.867	32.613	1622.433	1374.604
-27.852	32.611	1620.749	1373.104
-26.838	32.630	1619.296	1371.958
-25.823	32.657	1618.516	1371.443
-24.809	32.678	1616.861	1370.135
-23.794	32.646	1615.429	1368.638
-22.779	32.704	1613.163	1367.079
-21.765	32.696	1611.649	1365.687
-20.750	32.703	1610.273	1364.515
-19.736	32.598	1609.342	1362.918
-18.721	32.668	1607.350	1361.679
-17.706	32.626	1606.095	1360.258
-16.692	32.710	1603.725	1358.805
-15.677	32.683	1603.218	1358.125
-14.663	32.726	1601.646	1357.048
-13.648	32.614	1600.666	1355.357
-12.633	32.714	1598.697	1354.356
-11.619	32.691	1597.468	1353.098
-10.604	32.759	1595.222	1351.625
-9.590	32.656	1594.895	1350.558
-8.575	32.671	1593.461	1349.398
-7.560	32.633	1592.522	1348.276
-6.546	32.590	1591.501	1347.049
-5.531	32.605	1590.365	1346.146
-4.517	32.751	1588.439	1345.502
-3.502	32.708	1587.550	1344.387
-2.487	32.795	1585.958	1343.608
-1.473	32.270	1574.244	1329.920
-0.458	29.305	1553.301	1291.437
0.556	23.113	1553.069	1256.205
1.571	20.590	1576.896	1257.145
2.586	20.224	1590.383	1265.122
3.600	18.356	1538.719	1210.716
4.615	9.958	1428.324	1068.422
5.629	1.483	1362.181	965.212
6.644	-0.252	1353.882	948.287
7.659	-0.224	1351.901	946.996
8.673	-0.393	1351.358	945.463
9.688	-0.351	1348.857	943.892
10.702	-0.569	1346.282	940.639
11.717	2.783	1352.906	966.319
12.731	12.123	1370.614	1038.248
13.746	18.669	1380.787	1087.475
14.761	19.461	1381.147	1092.680
15.775	19.501	1380.851	1092.604
16.790	19.586	1380.065	1092.422
17.804	19.603	1379.591	1092.055
18.819	19.772	1379.688	1093.106
19.834	19.958	1378.836	1093.511
20.848	19.929	1378.340	1092.832
21.863	19.896	1377.338	1091.733
22.877	19.845	1376.533	1090.678
23.892	19.886	1375.458	1089.986
24.907	19.959	1374.821	1089.846
25.921	19.918	1373.789	1088.673
26.936	19.941	1372.698	1087.861
27.950	19.950	1371.336	1086.739
28.965	19.812	1370.691	1085.265
29.980	19.834	1369.651	1084.484
30.994	19.855	1367.920	1083.151
32.009	19.892	1366.738	1082.350
33.023	19.891	1365.500	1081.265
34.038	19.905	1364.222	1080.245
35.053	19.847	1363.500	1079.216
36.067	19.832	1362.499	1078.235
37.082	19.890	1361.400	1077.631
38.096	19.960	1360.570	1077.314
39.111	19.902	1360.030	1076.431
40.126	19.831	1359.497	1075.471
41.140	19.876	1358.234	1074.657
42.155	19.926	1357.741	1074.486
43.169	19.881	1358.225	1074.495
44.184	19.966	1357.691	1074.503
45.199	19.942	1357.229	1073.894
46.213	19.894	1356.792	1073.156
47.228	19.903	1356.374	1072.784
48.242	19.869	1354.723	1071.172
49.257	19.889	1353.031	1069.863
50.271	19.879	1351.382	1068.407
51.286	19.996	1350.335	1068.201
52.301	19.920	1349.394	1066.900
53.315	19.820	1348.670	1065.613
54.330	20.021	1347.384	1065.740
55.344	19.908	1346.275	1064.073
56.359	19.921	1345.168	1063.185
57.374	19.841	1344.408	1061.997
58.388	19.929	1343.449	1061.688
59.403	19.976	1343.491	1061.915
60.417	19.950	1342.784	1061.103
61.432	19.788	1342.300	1059.636
62.447	19.957	1341.113	1059.640
63.461	19.875	1340.199	1058.318
64.476	19.935	1338.819	1057.504
65.490	19.889	1337.447	1056.044
66.505	19.906	1336.298	1055.148
67.520	19.907	1335.014	1054.048
68.534	19.843	1334.347	1053.040
69.549	19.887	1332.807	1051.994
70.563	19.900	1332.118	1051.439
71.578	20.030	1330.994	1051.249
72.593	19.959	1329.743	1049.735
73.607	19.924	1329.289	1049.073
74.622	19.932	1328.766	1048.618
75.636	19.859	1328.142	1047.587
76.651	19.948	1327.059	1047.178
77.666	19.950	1326.448	1046.620
78.680	19.849	1326.482	1045.940
79.695	19.910	1324.688	1044.803
80.709	19.910	1324.128	1044.265
81.724	19.950	1323.095	1043.602
82.739	19.943	1322.409	1042.926
83.753	19.870	1321.590	1041.746
84.768	19.943	1320.100	1040.919
85.782	20.008	1318.897	1040.272
86.797	19.974	1317.772	1039.088
87.812	19.932	1316.996	1038.130
88.826	20.057	1315.220	1037.391
89.841	20.038	1314.194	1036.375
90.855	19.988	1313.653	1035.555
91.870	20.002	1313.000	1035.034
92.884	20.036	1311.913	1034.285
93.899	20.103	1310.867	1033.773
94.914	20.111	1310.083	1033.111
95.928	19.999	1309.581	1031.954
96.943	19.968	1309.063	1031.271
97.957	20.035	1308.370	1031.035
98.972	20.010	1307.029	1029.736
99.987	19.990	1306.134	1028.822
101.001	19.907	1305.421	1027.676
102.016	19.966	1304.131	1026.917
103.030	20.063	1302.942	1026.465
104.045	19.975	1302.187	1025.258
105.060	20.003	1301.654	1024.917
106.074	20.084	1299.978	1023.980
107.089	20.078	1298.852	1022.972
108.103	19.932	1297.880	1021.253
109.118	20.068	1296.417	1020.811
110.133	20.090	1295.614	1020.221
111.147	20.026	1294.509	1018.881
112.162	20.152	1292.932	1018.290
113.176	20.170	1291.785	1017.404
114.191	20.094	1291.526	1016.663
115.206	20.137	1290.045	1015.660
116.220	20.069	1289.112	1014.438
117.235	20.147	1287.706	1013.695
118.249	20.011	1287.129	1012.356
119.264	20.071	1285.849	1011.615
120.279	20.062	1285.147	1010.920
121.293	20.059	1284.196	1010.066
122.308	20.071	1283.142	1009.216
123.322	20.166	1281.779	1008.608
124.337	20.129	1281.258	1007.891
125.352	20.166	1280.380	1007.326
126.366	20.128	1279.981	1006.703
127.381	20.091	1278.792	1005.466
128.395	20.163	1277.424	1004.715
129.410	20.165	1276.765	1004.120
130.424	20.182	1275.927	1003.473
131.439	20.088	1275.270	1002.321
132.454	20.175	1273.871	1001.635
133.468	19.989	1273.794	1000.411
134.483	20.150	1272.646	1000.352
135.497	20.122	1271.400	999.125
136.512	20.020	1270.588	997.811
137.527	20.171	1269.489	997.725
138.541	20.265	1267.110	996.311
139.556	20.166	1266.510	995.181
140.570	20.061	1265.734	993.878
141.585	20.084	1264.571	993.011
142.600	20.103	1263.245	991.991
143.614	20.152	1262.123	991.303
144.629	20.162	1260.984	990.378
145.643	19.986	1260.285	988.738
146.658	20.087	1259.336	988.480
147.673	20.144	1258.128	987.769
148.687	20.036	1257.181	986.326
149.702	20.075	1255.717	985.310
150.716	20.081	1254.714	984.471
151.731	20.080	1253.910	983.744
152.746	20.129	1252.501	982.833
153.760	20.204	1251.293	982.220
154.775	20.073	1250.601	980.849
155.789	20.068	1249.686	980.017
156.804	20.108	1248.766	979.435
157.819	20.116	1247.770	978.613
158.833	20.161	1246.948	978.134
159.848	20.173	1245.667	977.107
160.862	20.210	1244.914	976.644
161.877	20.125	1244.314	975.604
162.892	20.188	1243.512	975.246
163.906	20.143	1242.614	974.200
164.921	20.273	1241.944	974.319
165.935	20.259	1240.994	973.412
166.950	20.182	1240.300	972.348
167.964	20.326	1239.600	972.520
168.979	20.198	1239.550	971.676
169.994	20.242	1238.584	971.080
171.008	20.234	1237.920	970.429
172.023	20.205	1237.353	969.738
173.037	20.296	1236.611	969.581
174.052	20.249	1235.509	968.364
175.067	20.227	1234.909	967.689
176.081	20.192	1234.191	966.845
177.096	20.266	1233.201	966.397
178.110	20.137	1232.787	965.268
179.125	20.192	1230.937	964.040
180.140	20.253	1229.975	963.536
181.154	20.332	1228.838	963.000
182.169	20.264	1228.038	961.912
183.183	20.213	1227.394	961.039
184.198	20.219	1225.956	959.860
185.213	20.332	1225.400	959.969
186.227	20.409	1224.002	959.209
187.242	20.418	1222.633	958.103
188.256	20.271	1222.486	957.093
189.271	20.316	1221.841	956.754
190.286	20.409	1221.046	956.557
191.300	20.289	1220.623	955.479
192.315	20.304	1219.743	954.791
193.329	20.293	1219.512	954.463
194.344	20.303	1218.976	954.013
195.359	20.476	1218.185	954.258
196.373	20.349	1218.167	953.466
197.388	20.062	1217.789	951.511
198.402	20.251	1217.568	952.292
199.417	20.281	1216.554	951.574
200.432	20.401	1215.602	951.404
201.446	20.282	1215.437	950.543
202.461	20.394	1214.189	950.095
203.475	20.320	1213.941	949.411
204.490	20.307	1212.687	948.276
205.504	20.344	1211.652	947.584
206.519	20.270	1210.662	946.321
207.534	20.364	1209.764	946.049
208.548	20.403	1208.414	945.123
209.563	20.413	1208.082	944.833
210.577	20.446	1207.264	944.287
211.592	20.352	1206.766	943.305
212.607	20.450	1205.538	942.793
213.621	20.373	1205.224	942.044
214.636	20.453	1203.862	941.331
215.650	20.641	1202.785	941.425
216.665	20.500	1202.164	940.092
217.680	20.438	1201.444	939.112
218.694	20.403	1200.436	938.051
219.709	20.504	1199.839	938.047
220.723	20.394	1199.577	937.164
221.738	20.285	1199.143	936.154
222.753	20.332	1197.928	935.374
223.767	20.435	1197.243	935.312
224.782	20.502	1196.391	934.926
225.796	20.642	1195.696	935.052
226.811	20.507	1195.149	933.816
227.826	20.475	1195.166	933.575
228.840	20.466	1194.534	932.952
229.855	20.558	1193.777	932.771
230.869	20.501	1192.685	931.529
231.884	20.497	1192.340	931.154
232.899	20.532	1191.592	930.678
233.913	20.623	1190.988	930.609
234.928	20.575	1190.694	930.040
235.942	20.716	1189.536	929.810
236.957	20.574	1188.847	928.430
237.972	20.599	1188.240	928.007
238.986	20.616	1187.762	927.640
240.001	20.717	1186.948	927.463
241.015	20.704	1186.362	926.849
242.030	20.739	1185.411	926.212
243.045	20.676	1185.114	925.562
244.059	20.557	1184.604	924.452
245.074	20.652	1183.359	923.905
246.088	20.708	1182.424	923.389
247.103	20.658	1182.008	922.715
248.117	20.752	1180.813	922.197
249.132	20.730	1180.057	921.412
250.147	20.688	1179.672	920.804
251.161	20.776	1178.558	920.320
252.176	20.753	1178.099	919.758
253.190	20.855	1176.975	919.337
254.205	20.845	1176.807	919.074
255.220	20.774	1176.188	918.132
256.234	20.799	1175.793	917.874
257.249	20.774	1175.189	917.191
258.263	20.713	1174.595	916.324
259.278	20.872	1173.821	916.480
260.293	20.842	1173.788	916.215
261.307	20.794	1172.840	915.141
262.322	20.843	1172.300	914.893
263.336	20.714	1171.681	913.652
264.351	20.824	1171.199	913.771
265.366	20.819	1170.329	912.987
266.380	20.873	1169.450	912.504
267.395	20.762	1169.428	911.825
268.409	20.834	1168.506	911.404
269.424	20.837	1167.518	910.566
270.439	20.790	1167.496	910.222
271.453	20.926	1166.959	910.434
272.468	20.842	1165.660	908.901
273.482	20.787	1165.242	908.211
274.497	20.786	1165.008	907.941
275.512	20.968	1164.279	908.240
276.526	20.896	1163.753	907.375
277.541	20.870	1162.920	906.512
278.555	20.937	1162.497	906.449
279.570	21.032	1161.150	905.811
280.585	20.993	1160.478	905.005
281.599	21.028	1159.663	904.472
282.614	20.956	1159.050	903.537
283.628	20.978	1158.095	902.831
284.643	20.977	1157.273	902.104
285.657	20.892	1156.573	901.037
286.672	20.989	1156.002	901.015
287.687	20.937	1155.152	900.003
288.701	20.958	1154.184	899.279
289.716	21.035	1153.486	899.050
290.730	21.003	1152.632	898.139
291.745	21.068	1152.137	898.010
292.760	20.992	1151.895	897.354
293.774	21.115	1150.798	897.051
294.789	21.056	1150.311	896.289
295.803	21.150	1149.638	896.168
296.818	21.102	1149.204	895.502
297.833	21.119	1148.704	895.124
298.847	21.164	1147.771	894.547
299.862	21.180	1146.638	893.667
300.876	21.120	1146.282	893.001
301.891	21.236	1145.495	892.902
302.906	21.161	1145.306	892.294
303.920	21.112	1144.669	891.468
304.935	21.081	1144.122	890.803
305.949	21.175	1143.175	890.467
306.964	21.265	1142.504	890.326
307.979	21.323	1141.647	889.874
308.993	21.156	1141.473	888.812
310.008	21.302	1140.415	888.649
311.022	21.390	1139.857	888.583
312.037	21.191	1139.250	887.020
313.052	21.107	1138.173	885.676
314.066	21.305	1137.262	885.896
315.081	21.324	1136.369	885.217
316.095	21.302	1136.192	884.890
317.110	21.287	1135.879	884.493
318.125	21.275	1134.845	883.547
319.139	21.317	1133.933	882.973
320.154	21.257	1133.813	882.495
321.168	21.361	1133.256	882.507
322.183	21.363	1132.410	881.780
323.197	21.368	1131.914	881.344
324.212	21.393	1131.312	880.921
325.227	21.447	1130.404	880.409
326.241	21.426	1130.005	879.914
327.256	21.467	1129.151	879.381
328.270	21.501	1128.338	878.836
329.285	21.474	1127.472	877.952
330.300	21.480	1126.947	877.494
331.314	21.446	1126.088	876.576
332.329	21.459	1125.023	875.737
333.343	21.417	1124.514	875.054
334.358	21.584	1123.727	875.199
335.373	21.463	1122.842	873.828
336.387	21.509	1122.291	873.550
337.402	21.558	1121.583	873.164
338.416	21.510	1121.385	872.694
339.431	21.513	1120.680	872.082
340.446	21.604	1119.875	871.836
341.460	21.624	1118.996	871.171
342.475	21.596	1118.477	870.551
343.489	21.630	1117.503	869.882
344.504	21.529	1116.807	868.763
345.519	21.642	1116.164	868.748
346.533	21.652	1115.029	867.835
347.548	21.659	1114.649	867.502
348.562	21.704	1113.716	866.920
349.577	21.780	1112.728	866.447
350.592	21.574	1111.872	864.689
351.606	21.722	1111.185	864.808
352.621	21.665	1110.989	864.298
353.635	21.616	1110.754	863.796
354.650	21.708	1109.765	863.403
355.665	21.611	1109.345	862.525
356.679	21.772	1108.353	862.467
357.694	21.709	1108.017	861.822
358.708	21.714	1107.192	861.128
359.723	21.739	1106.316	860.491
360.738	21.703	1105.832	859.864
361.752	21.679	1105.723	859.584
362.767	21.780	1105.069	859.498
363.781	21.866	1104.151	859.124
364.796	21.759	1103.973	858.388
365.810	21.813	1103.268	858.027
366.825	21.708	1102.900	857.154
367.840	21.965	1102.114	857.723
368.854	21.881	1101.489	856.750
369.869	21.828	1100.704	855.805
370.883	21.974	1099.798	855.737
371.898	21.898	1099.365	854.955
372.913	21.973	1098.332	854.439
373.927	21.928	1098.452	854.236
374.942	21.949	1097.870	853.813
375.956	21.898	1097.129	852.911
376.971	21.960	1096.683	852.789
377.986	22.004	1095.640	852.116
379.000	22.000	1095.372	851.815
380.015	22.007	1094.875	851.388
381.029	22.047	1093.993	850.819
382.044	22.054	1093.603	850.475
383.059	21.997	1092.850	849.539
384.073	22.105	1092.314	849.569
385.088	22.099	1091.410	848.763
386.102	22.229	1090.283	848.440
387.117	22.070	1089.638	847.091
388.132	21.999	1088.806	846.027
389.146	22.139	1088.266	846.208
390.161	21.996	1087.879	845.146
391.175	22.157	1086.987	845.150
392.190	22.105	1086.041	844.091
393.205	22.144	1085.801	844.017
394.219	22.127	1084.845	843.116
395.234	22.193	1084.063	842.752
396.248	22.296	1082.870	842.242
397.263	22.239	1082.024	841.236
398.278	22.244	1081.719	840.953
399.292	22.198	1081.327	840.353
400.307	22.359	1080.439	840.355
401.321	22.280	1079.893	839.479
402.336	22.259	1079.036	838.638
403.350	22.197	1078.475	837.835
404.365	22.202	1078.200	837.569
405.380	22.291	1077.322	837.239
406.394	22.384	1076.286	836.799
407.409	22.322	1075.658	835.945
408.423	22.379	1074.870	835.529
409.438	22.324	1074.098	834.591
410.453	22.356	1073.536	834.235
411.467	22.376	1072.839	833.713
412.482	22.240	1072.719	832.903
413.496	22.423	1071.550	832.788
414.511	22.377	1070.843	831.948
415.526	22.354	1070.730	831.674
416.540	22.409	1069.926	831.239
417.555	22.411	1069.371	830.744
418.569	22.385	1069.358	830.535
419.584	22.428	1068.850	830.270
420.599	22.526	1068.337	830.261
421.613	148.695	1397.528	1793.991
422.628	136.980	1445.479	1794.077
