DTS Sentinel unit serial number:	SN413079Multiplexer serial number:	ORYXHardware model number:	OX4-SRSoftware version number:	ORYX F/W v4.00 Oryx Data Collector v3.7.2.0data status	okinstallation	princeton_trtdifferential loss correction	single-endedforward channel	channel 2reverse channel	N/Adate	2019/09/10time	19:41:10forward acquisition time	60.00reverse acquisition time	0.00gamma	496.2192k internal	0.2327k external	0.2327temperature offset calibration	0.9947default loss term (dB/km)	0.3790temperature slope calibration	1.0000multiplexer offset coefficient	1.0000multiplexer slope coefficient	1.0000fibre end	0.00T internal ref (°C)	33.14T ext. ref 1 (°C)	-0.32T ext. ref 2 (°C)	25.92length (m)	temperature (°C)	Stokes	anti-Stokes-747.200	311.706	0.060	-0.114
-746.185	-146.456	-0.185	-0.016
-745.171	-105.615	-0.018	0.004
-744.156	415.340	-0.094	-0.202
-743.142	-10.581	-0.117	-0.078
-742.127	-200.000	-0.043	0.286
-741.112	-200.000	0.041	0.411
-740.098	-200.000	-0.015	0.268
-739.083	187.879	-0.241	0.363
-738.069	83.021	0.241	0.264
-737.054	-61.890	0.306	0.129
-736.039	-134.098	-0.242	-0.030
-735.025	-200.000	0.013	0.116
-734.010	-200.000	-0.025	-0.476
-732.996	-7.838	-0.256	-0.174
-731.981	10.711	-0.286	-0.220
-730.966	-176.578	-0.139	0.004
-729.952	96.701	-0.124	0.143
-728.937	48.627	0.075	0.071
-727.923	63.952	0.069	0.070
-726.908	-112.947	0.142	0.028
-725.894	-86.682	-0.164	0.050
-724.879	-129.139	-0.369	-0.052
-723.864	2.418	-0.196	-0.143
-722.850	-200.000	0.005	-0.029
-721.835	-125.640	-0.078	0.012
-720.821	-200.000	0.009	0.281
-719.806	800.000	-0.054	-0.201
-718.791	36.858	-0.091	-0.081
-717.777	-200.000	0.040	-0.253
-716.762	29.761	-0.192	-0.164
-715.748	-200.000	0.025	0.156
-714.733	-200.000	0.014	0.068
-713.718	187.522	0.272	-0.409
-712.704	800.000	0.077	-0.269
-711.689	-200.000	-0.014	0.141
-710.675	-9.777	-0.244	-0.164
-709.660	-111.542	0.371	0.076
-708.645	-121.108	-0.114	-0.019
-707.631	-63.819	0.106	0.044
-706.616	372.323	-0.063	0.129
-705.602	-171.453	0.339	-0.011
-704.587	-200.000	-0.003	-0.123
-703.572	-50.546	-0.146	0.069
-702.558	-200.000	0.000	-0.216
-701.543	108.769	0.174	-0.209
-700.529	193.994	0.019	0.029
-699.514	-4.069	-0.274	0.191
-698.499	-200.000	0.019	0.245
-697.485	-200.000	-0.001	0.213
-696.470	57.761	0.150	-0.147
-695.456	-21.411	-0.404	-0.248
-694.441	341.551	-0.026	0.051
-693.426	50.180	-0.182	-0.173
-692.412	-180.634	-0.421	-0.009
-691.397	-30.625	-0.181	-0.103
-690.383	800.000	-0.098	0.277
-689.368	-118.123	-0.140	0.025
-688.354	-66.063	0.072	-0.029
-687.339	358.621	-0.031	0.063
-686.324	70.951	0.084	0.087
-685.310	-200.000	-0.030	-0.148
-684.295	18.468	0.126	-0.101
-683.281	-78.201	-0.183	-0.063
-682.266	-200.000	0.008	-0.238
-681.251	-131.650	-0.118	0.016
-680.237	215.379	-0.179	0.285
-679.222	-200.000	0.011	0.111
-678.208	85.831	0.024	-0.027
-677.193	43.727	0.108	0.099
-676.178	514.851	-0.127	0.299
-675.164	-93.005	-0.248	-0.070
-674.149	51.148	-0.088	0.084
-673.135	-8.998	0.230	0.155
-672.120	153.057	-0.056	0.078
-671.105	268.914	-0.135	0.239
-670.091	63.426	0.085	0.086
-669.076	-192.574	-0.325	0.003
-668.062	-100.258	0.095	-0.024
-667.047	-16.267	0.209	-0.133
-666.032	-44.086	0.252	0.127
-665.018	-102.093	-0.218	-0.053
-664.003	-177.999	-0.225	0.005
-662.989	-200.000	-0.032	-0.254
-661.974	-111.722	-0.073	-0.015
-660.959	259.427	0.130	0.225
-659.945	134.486	0.073	0.095
-658.930	68.234	0.265	-0.273
-657.916	57.107	0.021	-0.020
-656.901	800.000	0.068	-0.190
-655.886	166.273	-0.155	-0.220
-654.872	-200.000	0.021	-0.101
-653.857	117.839	-0.168	-0.207
-652.843	227.223	0.124	-0.203
-651.828	57.001	0.192	-0.188
-650.814	-200.000	-0.018	0.119
-649.799	144.059	0.054	0.072
-648.784	-200.000	0.035	-0.206
-647.770	-188.244	0.097	0.001
-646.755	82.250	-0.265	0.289
-645.741	-75.487	-0.138	0.049
-644.726	235.000	-0.049	0.081
-643.711	15.387	0.312	-0.246
-642.697	316.108	0.105	0.200
-641.682	-116.086	0.418	0.078
-640.668	-12.985	0.042	0.027
-639.653	-200.000	0.037	-0.372
-638.638	-17.304	-0.282	-0.178
-637.624	112.521	-0.188	-0.229
-636.609	-58.110	-0.191	-0.084
-635.595	-200.000	0.061	0.436
-634.580	10.490	0.163	-0.125
-633.565	786.363	0.094	-0.258
-632.551	-67.078	-0.198	-0.078
-631.536	96.714	0.265	0.305
-630.522	41.510	-0.099	0.090
-629.507	-30.580	0.077	-0.044
-628.492	-97.769	0.032	0.008
-627.478	91.817	0.153	-0.173
-626.463	33.509	-0.379	-0.330
-625.449	-48.865	0.051	0.024
-624.434	-113.965	0.518	-0.101
-623.419	-200.000	0.027	-0.337
-622.405	-65.961	-0.162	0.065
-621.390	-200.000	0.082	-0.512
-620.376	-74.362	-0.084	-0.030
-619.361	-97.214	-0.081	-0.021
-618.346	-98.509	-0.297	0.076
-617.332	343.378	0.063	0.124
-616.317	145.701	-0.065	0.087
-615.303	54.925	-0.103	-0.100
-614.288	800.000	-0.057	-0.193
-613.273	-124.940	0.466	-0.072
-612.259	-164.628	0.283	-0.013
-611.244	436.172	0.054	0.119
-610.230	132.160	-0.214	0.277
-609.215	-35.577	0.241	0.131
-608.201	-133.099	0.064	-0.008
-607.186	16.895	0.178	-0.142
-606.171	-155.107	0.202	-0.013
-605.157	-153.372	-0.179	0.013
-604.142	168.564	0.117	0.167
-603.128	234.739	-0.173	-0.286
-602.113	-134.457	-0.338	0.041
-601.098	800.000	-0.057	0.247
-600.084	-70.346	-0.015	0.006
-599.069	-161.506	0.241	-0.012
-598.055	800.000	0.071	0.254
-597.040	122.502	0.194	0.244
-596.025	800.000	0.064	-0.246
-595.011	-200.000	0.022	-0.136
-593.996	-95.619	-0.504	0.135
-592.982	69.184	0.170	-0.175
-591.967	6.685	0.154	0.115
-590.952	134.446	-0.087	0.114
-589.938	-200.000	-0.071	-0.402
-588.923	193.814	-0.119	-0.180
-587.909	-84.494	-0.115	0.036
-586.894	-39.768	0.143	-0.075
-585.879	276.538	0.040	0.071
-584.865	17.332	0.251	-0.200
-583.850	800.000	-0.130	-0.397
-582.836	-107.557	-0.198	-0.043
-581.821	-112.128	-0.156	0.032
-580.806	-200.000	-0.024	0.243
-579.792	22.881	-0.090	-0.074
-578.777	-200.000	0.001	0.073
-577.763	-150.264	0.074	-0.006
-576.748	511.163	-0.120	0.280
-575.733	-141.599	0.262	0.026
-574.719	29.414	0.320	0.273
-573.704	540.764	-0.015	-0.036
-572.690	-200.000	0.032	0.247
-571.675	377.430	-0.096	0.196
-570.661	-41.679	-0.278	-0.143
-569.646	221.155	-0.155	0.249
-568.631	-2.496	0.437	-0.306
-567.617	-200.000	0.049	-0.225
-566.602	800.000	-0.029	0.105
-565.588	-200.000	0.027	0.265
-564.573	239.619	-0.103	-0.171
-563.558	290.686	0.173	-0.314
-562.544	88.921	0.117	0.130
-561.529	-200.000	0.029	-0.208
-560.515	-200.000	0.051	-0.473
-559.500	-200.000	-0.039	-0.276
-558.485	-4.419	-0.043	-0.030
-557.471	-53.961	0.325	0.148
-556.456	-200.000	0.076	-0.405
-555.442	-195.232	-0.186	0.001
-554.427	20.472	-0.292	0.237
-553.412	132.208	0.163	-0.210
-552.398	-47.161	0.152	0.074
-551.383	-123.288	-0.231	0.037
-550.369	552.522	-0.099	0.238
-549.354	-140.633	0.147	-0.015
-548.339	800.000	0.009	-0.030
-547.325	-7.873	0.304	-0.205
-546.310	108.347	-0.066	0.079
-545.296	790.794	-0.108	0.296
-544.281	-62.115	-0.259	0.108
-543.266	800.000	0.027	0.117
-542.252	750.004	0.095	0.255
-541.237	-62.488	-0.156	0.065
-540.223	-179.721	0.180	0.004
-539.208	776.974	-0.061	-0.167
-538.193	19.447	0.356	-0.286
-537.179	711.881	-0.132	-0.350
-536.164	212.778	-0.016	0.025
-535.150	-200.000	-0.295	0.001
-534.135	-158.585	0.151	-0.009
-533.121	48.522	0.171	0.160
-532.106	-10.730	0.018	0.012
-531.091	-200.000	0.008	-0.075
-530.077	-159.498	-0.266	-0.015
-529.062	-6.527	-0.132	0.090
-528.048	800.000	-0.103	-0.338
-527.033	120.074	0.088	-0.109
-526.018	31.981	-0.259	0.223
-525.004	250.161	-0.124	-0.211
-523.989	191.236	-0.142	-0.213
-522.975	4.504	-0.059	0.043
-521.960	-93.549	0.158	0.044
-520.945	-200.000	0.014	0.083
-519.931	-6.873	0.078	0.053
-518.916	54.642	0.105	-0.101
-517.902	-128.159	0.158	-0.023
-516.887	254.159	0.113	0.192
-515.872	73.352	-0.111	-0.116
-514.858	-109.825	0.313	-0.066
-513.843	243.217	-0.148	-0.248
-512.829	63.240	0.112	0.112
-511.814	-50.979	0.043	0.020
-510.799	-41.440	-0.053	0.027
-509.785	18.367	-0.052	0.042
-508.770	51.881	0.193	-0.184
-507.756	-143.775	-0.187	0.018
-506.741	800.000	-0.094	0.299
-505.726	-60.197	-0.287	-0.122
-504.712	-200.000	0.010	-0.160
-503.697	205.993	-0.074	-0.115
-502.683	800.000	-0.138	-0.507
-501.668	278.641	-0.098	0.174
-500.653	290.685	-0.071	0.129
-499.639	4.711	0.025	0.018
-498.624	-127.122	0.182	-0.027
-497.610	790.491	0.091	-0.251
-496.595	-0.986	-0.352	0.249
-495.581	800.000	-0.090	-0.251
-494.566	8.453	0.045	-0.034
-493.551	800.000	-0.081	0.295
-492.537	19.059	0.229	0.183
-491.522	273.730	-0.105	-0.186
-490.508	172.074	-0.144	-0.206
-489.493	-31.754	-0.170	-0.095
-488.478	-200.000	0.040	0.292
-487.464	-173.736	0.046	0.001
-486.449	-90.350	0.189	0.055
-485.435	14.073	-0.180	-0.140
-484.420	-200.000	0.041	-0.482
-483.405	-200.000	-0.062	-0.308
-482.391	-123.771	0.170	-0.027
-481.376	-200.000	-0.022	-0.285
-480.362	178.536	0.183	0.267
-479.347	117.960	-0.007	-0.009
-478.332	-112.778	-0.244	0.048
-477.318	22.414	0.384	-0.313
-476.303	630.498	-0.044	0.110
-475.289	439.046	0.079	-0.172
-474.274	143.087	-0.063	-0.084
-473.259	351.824	-0.227	0.449
-472.245	190.954	-0.143	-0.215
-471.230	39.648	-0.266	-0.238
-470.216	108.169	-0.052	-0.062
-469.201	-200.000	-0.033	-0.569
-468.186	-200.000	-0.017	-0.098
-467.172	421.352	0.143	-0.305
-466.157	-121.063	-0.152	0.025
-465.143	-150.228	0.074	-0.006
-464.128	183.753	0.231	-0.340
-463.113	420.965	-0.115	-0.245
-462.099	-96.117	0.292	0.077
-461.084	15.542	0.120	-0.094
-460.070	-132.976	-0.167	-0.021
-459.055	123.899	0.129	0.162
-458.040	131.922	-0.117	0.150
-457.026	162.104	-0.165	-0.231
-456.011	-200.000	0.031	0.367
-454.997	-200.000	-0.030	0.215
-453.982	-158.155	0.210	-0.012
-452.968	-200.000	-0.037	0.266
-451.953	199.548	0.132	-0.202
-450.938	-121.009	-0.283	0.047
-449.924	151.870	-0.017	-0.024
-448.909	-200.000	0.004	0.030
-447.895	-200.000	0.033	-0.175
-446.880	345.969	-0.216	-0.423
-445.865	136.979	-0.216	-0.282
-444.851	600.920	0.068	-0.168
-443.836	62.855	0.045	0.045
-442.822	381.908	-0.087	-0.178
-441.807	800.000	-0.060	0.176
-440.792	-16.503	0.135	-0.085
-439.778	-106.072	0.221	-0.049
-438.763	-19.831	-0.184	-0.113
-437.749	279.173	-0.171	-0.304
-436.734	-121.485	-0.178	0.029
-435.719	162.338	0.136	0.191
-434.705	231.721	-0.076	0.123
-433.690	-85.771	0.216	-0.067
-432.676	-182.354	0.179	0.003
-431.661	89.358	0.212	-0.235
-430.646	-199.619	-0.125	0.001
-429.632	-73.588	-0.282	0.102
-428.617	133.974	-0.090	0.116
-427.603	800.000	-0.086	0.266
-426.588	800.000	-0.008	-0.025
-425.573	-44.521	-0.249	0.124
-424.559	302.148	-0.162	0.298
-423.544	800.000	0.098	-0.316
-422.530	118.304	-0.261	0.321
-421.515	-200.000	-0.052	-0.252
-420.500	-74.736	0.285	-0.102
-419.486	-89.619	0.345	-0.101
-418.471	-200.000	-0.009	0.065
-417.457	-3.412	0.145	-0.100
-416.442	20.443	0.037	0.029
-415.428	-34.727	0.118	0.064
-414.413	800.000	0.031	-0.113
-413.398	138.331	0.081	0.105
-412.384	61.883	0.208	-0.207
-411.369	38.359	0.107	0.095
-410.355	357.156	0.149	0.295
-409.340	-119.008	0.361	0.063
-408.325	-187.971	-0.192	-0.002
-407.311	-41.031	0.099	-0.051
-406.296	-152.322	0.194	-0.014
-405.282	-0.321	-0.155	0.109
-404.267	53.455	-0.088	0.084
-403.252	-200.000	-0.020	-0.201
-402.238	-11.239	-0.187	0.123
-401.223	-126.001	-0.222	-0.033
-400.209	309.903	-0.248	-0.462
-399.194	114.470	-0.210	-0.255
-398.179	-179.830	0.171	-0.004
-397.165	114.646	-0.077	0.094
-396.150	-107.274	0.112	0.025
-395.136	25.321	-0.381	0.315
-394.121	737.598	0.122	0.325
-393.106	800.000	-0.031	-0.093
-392.092	144.349	-0.139	0.184
-391.077	-14.688	0.218	0.139
-390.063	27.374	-0.222	0.186
-389.048	-23.854	0.145	-0.087
-388.033	47.092	-0.363	0.336
-387.019	-115.334	0.147	-0.028
-386.004	83.985	-0.083	0.090
-384.990	483.217	0.060	0.136
-383.975	531.567	-0.083	0.196
-382.960	172.595	-0.064	-0.092
-381.946	283.993	0.197	0.351
-380.931	224.123	-0.147	-0.235
-379.917	-176.709	0.160	0.004
-378.902	120.702	0.178	0.220
-377.888	-30.797	-0.305	0.171
-376.873	14.377	-0.184	-0.142
-375.858	315.615	0.259	-0.486
-374.844	-108.422	-0.223	-0.048
-373.829	-194.754	0.185	-0.001
-372.815	-123.990	0.199	-0.031
-371.800	-77.701	-0.348	-0.120
-370.785	1.433	0.367	-0.262
-369.771	54.012	-0.216	0.207
-368.756	-41.818	-0.063	0.032
-367.742	6.885	0.092	-0.068
-366.727	16.426	-0.179	0.141
-365.712	34.782	-0.224	-0.194
-364.698	305.969	-0.072	0.133
-363.683	468.942	0.070	-0.156
-362.669	-200.000	0.046	0.260
-361.654	800.000	-0.030	0.125
-360.639	55.517	0.173	0.167
-359.625	154.273	0.087	-0.119
-358.610	-200.000	-0.073	-0.327
-357.596	-200.000	0.012	0.187
-356.581	20.574	0.130	0.105
-355.566	39.912	0.285	0.254
-354.552	715.060	-0.084	0.220
-353.537	186.356	0.082	0.122
-352.523	800.000	-0.069	-0.285
-351.508	-23.428	-0.218	-0.130
-350.493	-200.000	-0.028	0.134
-349.479	87.248	-0.043	-0.047
-348.464	800.000	0.076	-0.222
-347.450	166.464	-0.024	-0.034
-346.435	320.852	0.140	0.264
-345.420	800.000	-0.006	0.018
-344.406	800.000	-0.047	-0.184
-343.391	776.189	-0.066	0.179
-342.377	340.863	0.029	0.057
-341.362	219.785	0.231	0.368
-340.348	53.782	0.139	0.132
-339.333	-164.796	-0.132	-0.006
-338.318	-193.741	-0.290	0.002
-337.304	83.271	0.105	0.113
-336.289	-78.883	-0.263	-0.089
-335.275	405.309	-0.162	-0.338
-334.260	800.000	-0.083	0.231
-333.245	800.000	0.023	0.070
-332.231	347.439	-0.090	-0.176
-331.216	-73.277	-0.087	-0.032
-330.202	25.509	-0.098	0.081
-329.187	-179.638	0.140	0.003
-328.172	-30.569	0.195	-0.109
-327.158	161.139	-0.106	-0.147
-326.143	-150.553	0.108	0.008
-325.129	-54.649	0.303	-0.136
-324.114	-200.000	0.054	0.534
-323.099	39.463	0.302	0.269
-322.085	6.115	-0.160	0.118
-321.070	660.753	0.004	-0.011
-320.056	243.735	-0.214	-0.356
-319.041	-200.000	0.011	-0.301
-318.026	181.613	0.328	-0.478
-317.012	146.154	0.167	-0.223
-315.997	-26.583	-0.021	0.012
-314.983	161.788	-0.184	-0.255
-313.968	-120.162	0.173	-0.029
-312.953	-104.310	-0.109	0.025
-311.939	707.122	0.112	0.293
-310.924	-5.841	-0.169	-0.115
-309.910	347.197	-0.274	0.535
-308.895	753.683	-0.100	0.268
-307.880	800.000	0.029	0.124
-306.866	63.351	0.370	0.368
-305.851	396.591	0.097	-0.201
-304.837	-149.145	0.090	0.007
-303.822	800.000	0.095	0.282
-302.807	800.000	-0.092	0.330
-301.793	352.864	0.164	0.322
-300.778	306.279	0.067	0.124
-299.764	350.973	0.068	-0.133
-298.749	800.000	-0.037	0.148
-297.735	-50.089	-0.157	0.074
-296.720	381.843	0.109	-0.221
-295.705	135.938	-0.107	0.138
-294.691	-200.000	-0.013	0.171
-293.676	492.371	0.152	-0.345
-292.662	800.000	0.078	0.257
-291.647	-200.000	-0.041	0.213
-290.632	30.681	0.190	-0.161
-289.618	174.953	0.046	-0.066
-288.603	410.909	-0.081	0.170
-287.589	-200.000	-0.011	0.113
-286.574	800.000	0.056	-0.162
-285.559	299.816	0.139	-0.254
-284.545	392.411	0.078	-0.160
-283.530	155.184	0.197	0.268
-282.516	175.942	-0.039	0.056
-281.501	102.616	-0.200	0.232
-280.486	22.093	-0.116	-0.094
-279.472	-200.000	0.038	0.223
-278.457	-57.334	0.038	0.016
-277.443	-118.435	0.070	0.012
-276.428	310.771	0.036	0.067
-275.413	259.504	0.203	0.347
-274.399	-185.230	-0.267	-0.004
-273.384	-200.000	0.010	-0.275
-272.370	6.844	0.084	0.062
-271.355	21.475	0.182	0.147
-270.340	531.408	0.074	0.174
-269.326	-21.984	-0.178	0.107
-268.311	241.571	-0.098	0.162
-267.297	800.000	-0.067	0.190
-266.282	800.000	-0.053	0.214
-265.267	-40.087	-0.218	0.112
-264.253	752.180	0.038	0.102
-263.238	-200.000	-0.003	0.066
-262.224	-45.082	-0.144	-0.071
-261.209	800.000	-0.066	-0.273
-260.195	232.081	-0.007	0.011
-259.180	79.858	0.156	0.166
-258.165	800.000	0.055	0.237
-257.151	-141.412	-0.236	-0.024
-256.136	-47.067	-0.173	-0.083
-255.122	800.000	-0.057	-0.231
-254.107	-112.712	0.274	-0.054
-253.092	-135.400	-0.127	-0.015
-252.078	800.000	0.079	0.219
-251.063	717.309	0.049	-0.129
-250.049	-200.000	-0.001	-0.114
-249.034	-7.356	0.057	0.038
-248.019	800.000	-0.081	0.262
-247.005	-11.585	-0.118	0.077
-245.990	-24.672	-0.115	-0.068
-244.976	-143.888	0.255	-0.024
-243.961	-84.337	0.385	0.120
-242.946	-200.000	0.007	-0.293
-241.932	57.006	-0.062	0.060
-240.917	-94.076	0.276	0.075
-239.903	-103.487	0.456	0.106
-238.888	10.567	-0.206	-0.155
-237.873	-5.383	0.219	-0.149
-236.859	238.939	0.035	0.057
-235.844	11.408	0.012	-0.009
-234.830	-105.058	-0.081	0.018
-233.815	-33.263	-0.152	0.083
-232.800	8.839	0.243	0.181
-231.786	-29.570	0.225	-0.127
-230.771	800.000	-0.081	-0.319
-229.757	-110.439	0.151	0.031
-228.742	13.711	-0.206	0.158
-227.727	-174.623	-0.141	-0.004
-226.713	45.195	-0.212	-0.193
-225.698	-200.000	-0.007	0.072
-224.684	-154.266	0.210	-0.014
-223.669	41.355	0.145	-0.129
-222.655	767.699	0.012	0.031
-221.640	-113.709	-0.209	0.040
-220.625	41.364	-0.250	-0.223
-219.611	521.649	0.092	0.214
-218.596	7.102	-0.032	0.023
-217.582	56.457	-0.233	0.224
-216.567	5.186	0.397	0.289
-215.552	-91.158	-0.184	0.052
-214.538	-200.000	0.014	-0.210
-213.523	-105.196	0.392	-0.088
-212.509	-145.158	0.300	0.027
-211.494	92.800	-0.269	0.300
-210.479	430.049	0.182	0.390
-209.465	753.539	0.106	-0.283
-208.450	282.723	0.042	0.074
-207.436	-103.797	0.310	0.072
-206.421	225.992	0.105	0.168
-205.406	-84.502	-0.376	0.117
-204.392	86.047	-0.102	0.111
-203.377	800.000	-0.037	0.127
-202.363	-108.460	0.226	-0.048
-201.348	251.735	-0.044	0.074
-200.333	-146.821	-0.283	-0.024
-199.319	-114.116	0.107	0.021
-198.304	-171.436	-0.214	-0.007
-197.290	800.000	-0.094	-0.405
-196.275	120.051	0.041	-0.050
-195.260	81.493	-0.147	0.157
-194.246	-200.000	-0.007	0.193
-193.231	-18.640	0.111	0.068
-192.217	721.684	0.038	-0.100
-191.202	50.075	-0.111	0.103
-190.187	-200.000	-0.015	-0.124
-189.173	367.376	0.030	0.060
-188.158	-66.520	-0.163	0.064
-187.144	-66.305	0.168	0.066
-186.129	20.798	0.078	-0.062
-185.114	91.775	-0.211	-0.234
-184.100	-2.293	0.268	0.185
-183.085	179.170	-0.238	0.343
-182.071	239.625	-0.105	0.172
-181.056	78.013	0.092	-0.097
-180.042	-124.082	-0.419	0.065
-179.027	-179.663	0.067	-0.001
-178.012	130.415	0.027	-0.034
-176.998	41.155	-0.178	-0.159
-175.983	-168.805	0.097	0.004
-174.969	-149.156	-0.170	0.013
-173.954	800.000	-0.057	-0.161
-172.939	-22.929	-0.293	0.174
-171.925	-104.770	0.236	0.053
-170.910	56.121	0.104	0.100
-169.896	732.587	0.054	-0.142
-168.881	-29.213	0.183	-0.103
-167.866	87.071	-0.194	0.211
-166.852	-200.000	0.023	-0.115
-165.837	-43.196	0.188	-0.094
-164.823	800.000	0.018	0.066
-163.808	-169.711	0.398	-0.014
-162.793	106.983	0.155	0.181
-161.779	54.571	-0.075	-0.071
-160.764	223.798	-0.130	0.206
-159.750	-200.000	0.025	-0.144
-158.735	-70.027	-0.148	0.056
-157.720	506.390	-0.054	0.124
-156.706	-99.376	-0.086	-0.021
-155.691	-200.000	0.007	0.069
-154.677	-123.074	-0.285	0.045
-153.662	68.630	-0.329	-0.333
-152.647	800.000	-0.048	-0.182
-151.633	-78.548	-0.285	0.096
-150.618	-67.666	0.308	0.119
-149.604	-200.000	-0.007	0.169
-148.589	118.662	-0.096	0.117
-147.574	225.588	0.089	-0.142
-146.560	800.000	-0.043	0.176
-145.545	369.784	0.060	0.119
-144.531	-62.641	0.205	-0.084
-143.516	-110.920	0.079	0.016
-142.502	-20.236	-0.030	-0.018
-141.487	-200.000	0.045	0.211
-140.472	554.714	-0.066	-0.157
-139.458	-200.000	-0.005	0.120
-138.443	-113.135	-0.400	0.078
-137.429	-160.800	0.209	-0.011
-136.414	4.180	-0.150	-0.108
-135.399	-17.235	0.112	-0.070
-134.385	-200.000	-0.044	0.339
-133.370	90.732	-0.088	-0.097
-132.356	800.000	-0.075	0.281
-131.341	-14.571	-0.110	-0.069
-130.326	-88.296	-0.284	-0.084
-129.312	613.071	-0.095	-0.233
-128.297	311.569	-0.107	-0.198
-127.283	-91.947	-0.265	-0.074
-126.268	-159.050	-0.449	-0.025
-125.253	-200.000	-0.024	-0.397
-124.239	-115.439	0.255	-0.047
-123.224	-200.000	-0.046	0.404
-122.210	-200.000	0.034	-0.191
-121.195	4.984	-0.202	-0.146
-120.180	-200.000	-0.005	0.339
-119.166	-153.461	-0.212	-0.014
-118.151	-29.819	0.282	0.158
-117.137	800.000	-0.038	0.137
-116.122	122.711	-0.115	-0.142
-115.107	-24.676	-0.177	-0.104
-114.093	-141.005	-0.342	0.034
-113.078	42.219	0.184	-0.164
-112.064	285.986	0.167	0.297
-111.049	-197.408	-0.206	-0.001
-110.034	800.000	-0.021	-0.072
-109.020	-57.071	0.270	-0.117
-108.005	187.414	-0.172	-0.253
-106.991	-79.943	0.149	0.049
-105.976	380.987	0.119	0.240
-104.962	-92.831	-0.164	0.045
-103.947	48.670	0.317	0.293
-102.932	800.000	-0.023	0.075
-101.918	0.201	-0.090	-0.063
-100.903	-200.000	-0.004	-0.054
-99.889	611.066	0.072	-0.177
-98.874	-200.000	-0.006	0.027
-97.859	-119.675	0.213	0.036
-96.845	291.505	-0.093	0.166
-95.830	-200.000	-0.046	0.287
-94.816	492.233	0.091	-0.204
-93.801	-200.000	0.060	0.278
-92.786	289.173	-0.035	0.062
-91.772	-200.000	0.028	0.222
-90.757	65.468	0.104	-0.104
-89.743	180.685	-0.153	0.221
-88.728	-200.000	-0.013	-0.267
-87.713	800.000	0.063	0.213
-86.699	-200.000	0.001	0.072
-85.684	-200.000	0.027	-0.342
-84.670	-3.587	0.229	0.157
-83.655	800.000	0.062	0.227
-82.640	-200.000	-0.040	-0.199
-81.626	398.987	-0.092	-0.189
-80.611	86.950	-0.054	-0.058
-79.597	-119.197	-0.287	0.049
-78.582	446.560	0.013	0.028
-77.567	172.584	-0.077	0.108
-76.553	80.453	0.159	0.169
-75.538	-200.000	0.005	0.113
-74.524	-200.000	-0.061	0.346
-73.509	-38.878	0.471	0.244
-72.494	-200.000	-0.028	-0.296
-71.480	800.000	-0.063	-0.249
-70.465	-92.141	-0.168	0.046
-69.451	-91.488	0.250	-0.070
-68.436	-122.546	-0.264	-0.042
-67.422	-200.000	-0.037	0.490
-66.407	-200.000	-0.081	0.413
-65.392	-180.890	0.087	-0.002
-64.378	800.000	0.057	-0.241
-63.363	776.414	-0.119	-0.318
-62.349	408.068	0.033	-0.068
-61.334	54.040	-1.021	-0.964
-60.319	7.832	0.771	0.567
-59.305	-200.000	-0.114	-0.786
-58.290	142.865	0.563	0.734
-57.276	421.053	0.665	1.398
-56.261	-200.000	100.747	618.893
-55.246	607.881	1433.575	3510.126
-54.232	183.850	2645.614	3841.071
-53.217	111.748	2297.784	2721.957
-52.203	42.473	1911.532	1706.261
-51.188	36.479	1701.128	1472.875
-50.173	33.735	1657.020	1414.215
-49.159	50.943	1706.857	1587.278
-48.144	52.724	1723.224	1615.901
-47.130	35.945	1681.158	1451.329
-46.115	33.205	1666.152	1417.811
-45.100	33.084	1660.353	1411.914
-44.086	33.049	1658.188	1409.754
-43.071	33.007	1655.479	1407.087
-42.057	32.924	1653.368	1404.616
-41.042	32.953	1651.014	1402.780
-40.027	32.972	1648.929	1401.093
-39.013	32.997	1647.297	1399.831
-37.998	32.967	1645.688	1398.189
-36.984	33.000	1644.407	1397.289
-35.969	33.126	1642.832	1396.826
-34.954	33.204	1641.328	1396.068
-33.940	33.135	1639.265	1393.749
-32.925	33.120	1637.722	1392.268
-31.911	33.112	1636.134	1390.809
-30.896	33.124	1633.917	1388.958
-29.881	33.084	1631.875	1386.875
-28.867	33.104	1630.599	1385.877
-27.852	33.162	1628.745	1384.675
-26.838	33.105	1627.664	1383.279
-25.823	33.266	1625.656	1382.700
-24.809	33.132	1625.101	1381.191
-23.794	33.162	1623.036	1379.600
-22.779	33.242	1621.363	1378.706
-21.765	33.129	1620.296	1376.921
-20.750	33.183	1618.159	1375.442
-19.736	33.166	1617.361	1374.589
-18.721	33.215	1615.418	1373.237
-17.706	33.220	1613.946	1371.965
-16.692	33.152	1612.753	1370.407
-15.677	33.094	1611.515	1368.882
-14.663	33.253	1609.503	1368.265
-13.648	33.226	1608.449	1367.121
-12.633	33.159	1607.021	1365.370
-11.619	33.183	1605.154	1363.905
-10.604	33.089	1603.967	1362.162
-9.590	33.164	1602.753	1361.615
-8.575	33.174	1601.558	1360.617
-7.560	33.146	1600.338	1359.325
-6.546	33.255	1598.750	1358.706
-5.531	33.186	1597.777	1357.334
-4.517	33.201	1596.508	1356.308
-3.502	33.301	1595.358	1355.990
-2.487	33.214	1593.738	1353.936
-1.473	32.837	1581.220	1340.576
-0.458	29.688	1560.964	1301.221
0.556	23.452	1559.923	1264.844
1.571	20.879	1583.749	1265.384
2.586	20.453	1597.139	1272.854
3.600	18.548	1545.144	1217.789
4.615	10.030	1434.213	1073.877
5.629	1.509	1367.274	969.501
6.644	-0.195	1358.704	952.539
7.659	-0.365	1357.043	950.213
8.673	-0.384	1356.251	949.454
9.688	-0.347	1353.842	947.916
10.702	-0.600	1350.970	944.224
11.717	2.826	1357.939	970.705
12.731	12.122	1375.458	1042.468
13.746	18.651	1385.540	1091.687
14.761	19.259	1385.887	1095.733
15.775	19.252	1385.675	1095.424
16.790	19.264	1385.208	1095.036
17.804	19.359	1384.369	1094.876
18.819	19.567	1384.014	1095.815
19.834	19.683	1383.026	1095.676
20.848	19.618	1382.544	1094.783
21.863	19.618	1382.094	1094.330
22.877	19.723	1380.591	1093.709
23.892	19.652	1379.707	1092.463
24.907	19.629	1379.243	1091.850
25.921	19.675	1378.316	1091.316
26.936	19.708	1377.097	1090.458
27.950	19.687	1376.538	1089.790
28.965	19.639	1374.946	1088.127
29.980	19.624	1373.535	1086.824
30.994	19.647	1372.401	1085.972
32.009	19.708	1371.526	1085.569
33.023	19.720	1369.609	1084.033
34.038	19.651	1369.290	1083.250
35.053	19.641	1368.002	1082.073
36.067	19.630	1367.089	1081.183
37.082	19.725	1365.725	1080.603
38.096	19.739	1365.390	1080.331
39.111	19.594	1364.340	1078.499
40.126	19.668	1363.786	1078.425
41.140	19.653	1363.069	1077.668
42.155	19.621	1362.783	1077.151
43.169	19.747	1362.695	1077.770
44.184	19.737	1362.189	1077.214
45.199	19.563	1362.210	1076.053
46.213	19.604	1361.727	1075.828
47.228	19.653	1360.424	1075.006
48.242	19.689	1359.185	1074.159
49.257	19.741	1357.474	1073.034
50.271	19.654	1356.466	1071.604
51.286	19.657	1355.082	1070.435
52.301	19.700	1353.858	1069.638
53.315	19.606	1352.729	1068.068
54.330	19.727	1351.840	1068.019
55.344	19.712	1350.699	1066.931
56.359	19.596	1349.950	1065.530
57.374	19.530	1349.681	1064.820
58.388	19.650	1348.456	1064.497
59.403	19.578	1348.067	1063.650
60.417	19.638	1347.688	1063.628
61.432	19.668	1346.265	1062.593
62.447	19.682	1345.394	1061.900
63.461	19.670	1344.362	1060.918
64.476	19.636	1343.835	1060.198
65.490	19.655	1342.306	1059.012
66.505	19.553	1340.595	1056.944
67.520	19.702	1339.132	1056.613
68.534	19.673	1338.364	1055.735
69.549	19.661	1337.358	1054.776
70.563	19.736	1336.343	1054.340
71.578	19.780	1335.005	1053.454
72.593	19.758	1334.294	1052.667
73.607	19.676	1333.742	1051.643
74.622	19.741	1332.735	1051.146
75.636	19.812	1331.431	1050.458
76.651	19.722	1331.130	1049.581
77.666	19.699	1330.783	1049.075
78.680	19.683	1329.973	1048.245
79.695	19.654	1329.241	1047.399
80.709	19.704	1327.910	1046.561
81.724	19.647	1327.580	1045.865
82.739	19.722	1326.578	1045.435
83.753	19.734	1325.470	1044.546
84.768	19.739	1324.426	1043.659
85.782	19.709	1323.277	1042.480
86.797	19.727	1321.995	1041.489
87.812	19.726	1320.649	1040.329
88.826	19.836	1319.823	1040.244
89.841	19.812	1318.351	1038.853
90.855	19.825	1317.619	1038.259
91.870	19.681	1317.340	1037.085
92.884	19.779	1316.169	1036.659
93.899	19.765	1315.566	1036.009
94.914	19.736	1314.730	1035.084
95.928	19.719	1313.968	1034.293
96.943	19.724	1313.063	1033.516
97.957	19.777	1312.297	1033.141
98.972	19.774	1310.826	1031.873
99.987	19.784	1309.828	1031.054
101.001	19.744	1308.964	1030.045
102.016	19.744	1307.777	1029.020
103.030	19.756	1306.826	1028.250
104.045	19.756	1306.158	1027.635
105.060	19.881	1305.007	1027.382
106.074	19.819	1303.996	1026.124
107.089	19.836	1302.933	1025.298
108.103	19.807	1301.836	1024.174
109.118	19.695	1300.907	1022.687
110.133	19.825	1299.330	1022.127
111.147	19.818	1298.054	1020.991
112.162	19.922	1296.751	1020.492
113.176	19.834	1295.813	1019.140
114.191	19.806	1295.303	1018.485
115.206	19.776	1294.004	1017.201
116.220	19.807	1292.930	1016.447
117.235	19.815	1291.643	1015.393
118.249	19.767	1291.072	1014.571
119.264	19.703	1289.952	1013.225
120.279	19.816	1288.854	1012.938
121.293	19.868	1287.921	1012.416
122.308	19.828	1287.046	1011.405
123.322	19.851	1285.862	1010.521
124.337	19.903	1285.054	1010.099
125.352	19.861	1283.877	1008.840
126.366	19.864	1282.969	1008.054
127.381	19.894	1282.121	1007.474
128.395	19.784	1281.318	1006.117
129.410	19.921	1279.653	1005.512
130.424	19.957	1278.835	1004.993
131.439	19.995	1278.136	1004.572
132.454	19.923	1277.191	1003.323
133.468	19.896	1276.468	1002.509
134.483	19.866	1276.275	1002.099
135.497	19.838	1275.080	1000.911
136.512	19.806	1273.983	999.772
137.527	19.867	1272.820	999.123
138.541	19.938	1270.981	998.002
139.556	19.857	1269.760	996.489
140.570	19.862	1269.128	995.931
141.585	19.891	1267.531	994.761
142.600	19.863	1266.555	993.746
143.614	19.888	1265.698	993.125
144.629	19.803	1264.545	991.646
145.643	19.840	1263.194	990.710
146.658	19.739	1262.481	989.488
147.673	19.728	1261.504	988.573
148.687	19.859	1260.320	988.304
149.702	19.921	1258.961	987.505
150.716	19.830	1258.027	986.168
151.731	19.912	1257.127	985.838
152.746	19.891	1255.951	984.710
153.760	19.881	1254.529	983.451
154.775	19.937	1253.886	983.182
155.789	19.846	1253.242	982.072
156.804	19.826	1252.108	980.982
157.819	19.844	1251.307	980.368
158.833	19.832	1250.192	979.340
159.848	19.826	1249.240	978.473
160.862	19.928	1248.372	978.283
161.877	19.836	1247.630	977.097
162.892	20.069	1246.298	977.280
163.906	19.957	1246.271	976.542
164.921	19.966	1245.063	975.558
165.935	19.961	1244.430	974.949
166.950	20.017	1243.356	974.336
167.964	20.001	1243.281	974.103
168.979	20.022	1242.392	973.438
169.994	20.129	1241.548	973.289
171.008	19.984	1241.043	971.997
172.023	20.000	1240.312	971.429
173.037	20.119	1239.336	971.245
174.052	19.912	1239.070	969.791
175.067	19.976	1237.779	969.051
176.081	20.112	1237.230	969.297
177.096	19.955	1236.153	967.489
178.110	19.976	1235.437	966.959
179.125	20.017	1234.677	966.511
180.140	20.067	1233.227	965.570
181.154	20.035	1232.045	964.378
182.169	20.005	1231.287	963.532
183.183	19.993	1230.515	962.774
184.198	20.066	1229.057	961.953
185.213	20.082	1228.022	961.151
186.227	20.006	1227.548	960.272
187.242	20.125	1226.211	959.799
188.256	20.043	1225.613	958.792
189.271	20.028	1225.047	958.180
190.286	20.088	1223.871	957.508
191.300	20.071	1223.588	957.109
192.315	19.970	1223.351	956.281
193.329	20.024	1222.555	955.874
194.344	20.075	1222.466	956.000
195.359	20.196	1221.232	955.615
196.373	20.119	1220.960	954.896
197.388	20.031	1220.360	953.857
198.402	19.981	1220.032	953.242
199.417	19.987	1219.855	953.050
200.432	20.046	1219.183	952.766
201.446	20.075	1218.219	952.089
202.461	20.071	1217.534	951.447
203.475	20.117	1216.585	950.872
204.490	20.052	1215.549	949.621
205.504	20.059	1215.151	949.268
206.519	20.161	1213.804	948.688
207.534	20.153	1213.057	947.978
208.548	20.167	1211.630	946.852
209.563	20.160	1211.143	946.354
210.577	20.170	1210.266	945.640
211.592	20.053	1209.377	944.223
212.607	20.300	1208.283	944.629
213.621	20.152	1208.053	943.560
214.636	20.213	1206.782	942.816
215.650	20.195	1206.649	942.531
216.665	20.227	1205.387	941.635
217.680	20.070	1204.708	940.168
218.694	20.222	1203.613	940.057
219.709	20.189	1203.210	939.477
220.723	20.252	1202.460	939.153
221.738	20.153	1201.802	938.017
222.753	20.113	1200.971	937.072
223.767	20.231	1200.321	937.118
224.782	20.230	1199.741	936.576
225.796	20.271	1199.208	936.300
226.811	20.236	1198.484	935.463
227.826	20.255	1197.877	935.008
228.840	20.233	1197.552	934.553
229.855	20.235	1196.862	933.943
230.869	20.337	1195.313	933.202
231.884	20.338	1194.713	932.656
232.899	20.250	1194.745	932.125
233.913	20.252	1193.958	931.439
234.928	20.322	1193.282	931.201
235.942	20.441	1192.668	931.278
236.957	20.208	1192.297	929.658
237.972	20.268	1191.227	929.065
238.986	20.236	1190.760	928.448
240.001	20.449	1189.511	928.529
241.015	20.427	1188.742	927.728
242.030	20.434	1188.480	927.478
243.045	20.402	1187.854	926.737
244.059	20.594	1186.464	926.594
245.074	20.497	1186.192	925.785
246.088	20.430	1185.399	924.725
247.103	20.385	1184.855	923.981
248.117	20.428	1183.840	923.334
249.132	20.507	1182.828	922.886
250.147	20.541	1182.317	922.586
251.161	20.535	1181.325	921.697
252.176	20.553	1180.870	921.355
253.190	20.457	1180.725	920.656
254.205	20.447	1179.882	919.860
255.220	20.522	1179.071	919.542
256.234	20.589	1178.468	919.345
257.249	20.524	1177.817	918.416
258.263	20.537	1177.269	917.974
259.278	20.522	1176.948	917.562
260.293	20.550	1176.988	917.663
261.307	20.594	1176.193	917.192
262.322	20.537	1175.330	916.138
263.336	20.626	1174.546	915.917
264.351	20.650	1174.240	915.721
265.366	20.631	1173.134	914.680
266.380	20.635	1172.455	914.088
267.395	20.588	1171.965	913.379
268.409	20.532	1171.424	912.583
269.424	20.493	1171.134	912.072
270.439	20.575	1170.591	911.995
271.453	20.628	1169.895	911.652
272.468	20.548	1169.018	910.467
273.482	20.582	1168.019	909.789
274.497	20.601	1167.737	909.586
275.512	20.733	1166.848	909.504
276.526	20.755	1165.599	908.564
277.541	20.685	1165.446	907.999
278.555	20.680	1164.900	907.468
279.570	20.657	1164.560	907.005
280.585	20.679	1163.371	906.112
281.599	20.633	1162.773	905.327
282.614	20.676	1161.872	904.766
283.628	20.871	1160.898	904.943
284.643	20.782	1159.500	903.313
285.657	20.744	1158.983	902.629
286.672	20.761	1158.392	902.177
287.687	20.822	1157.457	901.687
288.701	20.913	1156.662	901.461
289.716	20.893	1155.893	900.678
290.730	20.780	1155.313	899.560
291.745	20.872	1155.064	899.763
292.760	20.825	1154.152	898.731
293.774	20.903	1153.765	898.753
294.789	20.834	1153.427	898.053
295.803	20.797	1152.590	897.131
296.818	20.861	1151.958	896.888
297.833	21.008	1151.120	896.915
298.847	20.959	1150.611	896.185
299.862	20.897	1149.726	895.098
300.876	20.798	1149.194	894.096
301.891	20.948	1148.579	894.307
302.906	20.929	1147.725	893.467
303.920	21.044	1146.873	893.314
304.935	20.926	1146.597	892.414
305.949	20.977	1145.916	892.067
306.964	20.861	1145.375	890.973
307.979	20.973	1144.664	890.916
308.993	21.051	1143.714	890.494
310.008	20.909	1143.680	889.665
311.022	20.980	1142.622	889.127
312.037	21.029	1141.406	888.351
313.052	20.999	1140.488	887.406
314.066	21.113	1139.657	887.257
315.081	21.026	1139.064	886.278
316.095	21.114	1138.920	886.534
317.110	20.994	1138.329	885.383
318.125	21.119	1137.225	885.085
319.139	21.086	1136.993	884.655
320.154	21.195	1136.214	884.523
321.168	21.007	1135.865	883.222
322.183	20.981	1135.469	882.704
323.197	21.024	1134.826	882.346
324.212	21.025	1133.837	881.504
325.227	21.132	1133.711	881.865
326.241	21.204	1132.916	881.531
327.256	21.059	1132.076	880.073
328.270	21.107	1131.107	879.483
329.285	21.133	1130.418	878.998
330.300	21.160	1129.300	878.185
331.314	21.177	1128.513	877.585
332.329	21.161	1127.697	876.789
333.343	21.164	1127.194	876.337
334.358	21.304	1126.453	876.388
335.373	21.227	1125.679	875.321
336.387	21.278	1125.216	875.140
337.402	21.288	1124.249	874.356
338.416	21.263	1123.476	873.554
339.431	21.218	1123.170	873.016
340.446	21.366	1122.322	873.018
341.460	21.336	1122.024	872.557
342.475	21.240	1121.456	871.563
343.489	21.301	1120.038	870.684
344.504	21.346	1119.422	870.353
345.519	21.385	1118.245	869.555
346.533	21.427	1117.245	868.909
347.548	21.393	1116.653	868.203
348.562	21.401	1116.291	867.887
349.577	21.411	1115.560	867.291
350.592	21.370	1114.875	866.476
351.606	21.339	1114.066	865.618
352.621	21.428	1113.622	865.637
353.635	21.416	1113.257	865.219
354.650	21.461	1112.347	864.658
355.665	21.458	1111.822	864.158
356.679	21.494	1111.175	863.757
357.694	21.575	1110.224	863.339
358.708	21.498	1109.757	862.521
359.723	21.443	1109.181	861.725
360.738	21.374	1108.993	861.161
361.752	21.546	1107.879	861.066
362.767	21.518	1107.362	860.453
363.781	21.440	1107.086	859.777
364.796	21.517	1106.507	859.631
365.810	21.551	1105.582	859.002
366.825	21.671	1104.906	858.988
367.840	21.557	1104.914	858.360
368.854	21.644	1104.274	858.213
369.869	21.629	1103.203	857.230
370.883	21.629	1102.732	856.791
371.898	21.660	1101.923	856.238
372.913	21.617	1101.315	855.480
373.927	21.718	1101.102	855.732
374.942	21.696	1100.087	854.760
375.956	21.651	1099.525	854.030
376.971	21.603	1099.342	853.577
377.986	21.657	1098.776	853.327
379.000	21.792	1098.116	853.395
380.015	21.743	1097.558	852.647
381.029	21.669	1097.076	851.839
382.044	21.628	1096.543	851.150
383.059	21.722	1095.878	851.014
384.073	21.759	1095.119	850.526
385.088	21.672	1093.806	849.012
386.102	21.808	1093.272	849.180
387.117	21.805	1091.922	848.043
388.132	21.753	1091.279	847.216
389.146	21.721	1090.884	846.680
390.161	21.835	1090.139	846.577
391.175	21.846	1089.567	846.109
392.190	21.954	1088.652	845.848
393.205	21.807	1088.114	844.647
394.219	21.984	1087.156	844.678
395.234	21.934	1086.455	843.817
396.248	21.988	1085.554	843.305
397.263	21.990	1084.899	842.730
398.278	22.017	1084.049	842.123
399.292	22.032	1083.342	841.571
400.307	22.018	1082.711	840.941
401.321	21.961	1082.310	840.281
402.336	21.998	1081.729	839.933
403.350	21.993	1080.972	839.248
404.365	22.107	1080.083	839.030
405.380	22.130	1079.286	838.445
406.394	22.110	1078.374	837.567
407.409	22.014	1078.310	836.984
408.423	22.049	1077.730	836.629
409.438	22.151	1076.291	835.924
410.453	22.058	1075.966	835.150
411.467	22.167	1075.230	835.027
412.482	22.172	1074.590	834.479
413.496	22.082	1073.770	833.342
414.511	22.126	1073.640	833.376
415.526	22.184	1072.879	832.985
416.540	22.211	1072.563	832.794
417.555	22.111	1071.753	831.616
418.569	22.115	1071.428	831.312
419.584	22.195	1071.141	831.392
420.599	22.228	1070.367	830.875
421.613	148.823	1396.464	1794.226
422.628	137.203	1443.951	1794.320
