DTS Sentinel unit serial number:	SN413079Multiplexer serial number:	ORYXHardware model number:	OX4-SRSoftware version number:	ORYX F/W v4.00 Oryx Data Collector v3.7.2.0data status	okinstallation	princeton_trtdifferential loss correction	single-endedforward channel	channel 2reverse channel	N/Adate	2019/09/11time	19:29:11forward acquisition time	60.00reverse acquisition time	0.00gamma	496.2192k internal	0.2304k external	0.2304temperature offset calibration	1.0041default loss term (dB/km)	0.3790temperature slope calibration	1.0000multiplexer offset coefficient	1.0000multiplexer slope coefficient	1.0000fibre end	0.00T internal ref (°C)	40.52T ext. ref 1 (°C)	1.33T ext. ref 2 (°C)	32.65length (m)	temperature (°C)	Stokes	anti-Stokes-747.200	179.488	-0.178	0.266
-746.185	521.498	-0.131	0.314
-745.171	-49.151	0.255	-0.124
-744.156	-68.404	0.051	-0.020
-743.142	-3.429	-0.471	-0.334
-742.127	531.012	0.080	0.192
-741.112	-87.361	0.164	0.051
-740.098	39.527	-0.218	0.199
-739.083	-200.000	0.007	0.068
-738.069	-112.769	0.269	-0.054
-737.054	-200.000	0.024	0.146
-736.039	188.124	-0.132	-0.200
-735.025	800.000	-0.108	0.307
-734.010	-161.430	-0.336	-0.018
-732.996	-116.583	-0.211	-0.040
-731.981	800.000	-0.036	0.156
-730.966	70.558	-0.168	0.177
-729.952	-200.000	0.046	-0.237
-728.937	-124.194	-0.396	-0.063
-727.923	-200.000	-0.025	0.380
-726.908	24.487	-0.362	-0.305
-725.894	392.162	0.180	-0.380
-724.879	-91.371	-0.192	0.056
-723.864	800.000	0.130	0.537
-722.850	138.652	0.061	-0.082
-721.835	-200.000	0.025	0.239
-720.821	-150.952	0.137	-0.011
-719.806	800.000	-0.060	0.234
-718.791	800.000	-0.067	-0.214
-717.777	-40.765	-0.185	-0.097
-716.762	236.304	0.105	-0.177
-715.748	-65.538	-0.248	0.101
-714.733	-114.170	-0.096	0.019
-713.718	2.888	-0.067	-0.049
-712.704	-105.222	0.250	0.058
-711.689	190.108	0.071	-0.108
-710.675	-137.378	-0.355	-0.041
-709.660	134.424	0.031	0.040
-708.645	-94.444	-0.284	0.079
-707.631	-85.485	0.283	-0.090
-706.616	182.036	0.088	0.132
-705.602	101.734	-0.207	0.246
-704.587	603.425	-0.083	-0.211
-703.572	-3.815	-0.249	0.176
-702.558	-64.955	-0.135	-0.055
-701.543	85.135	0.145	0.162
-700.529	-77.304	0.221	0.078
-699.514	27.545	-0.123	0.105
-698.499	330.930	-0.073	0.144
-697.485	508.401	-0.103	0.242
-696.470	143.155	-0.248	-0.335
-695.456	-200.000	0.022	-0.167
-694.441	-174.639	-0.251	0.007
-693.426	-56.083	0.221	-0.100
-692.412	-53.639	-0.182	0.084
-691.397	151.025	0.128	-0.177
-690.383	-200.000	-0.035	0.285
-689.368	-200.000	-0.003	-0.240
-688.354	-200.000	0.019	0.334
-687.339	375.520	0.058	0.120
-686.324	41.495	-0.246	-0.226
-685.310	800.000	-0.118	-0.385
-684.295	146.883	0.129	0.177
-683.281	-125.050	-0.211	-0.033
-682.266	-200.000	-0.006	0.050
-681.251	800.000	-0.069	0.240
-680.237	-200.000	-0.066	0.331
-679.222	-200.000	0.081	-0.407
-678.208	78.774	0.142	-0.155
-677.193	460.784	-0.064	-0.145
-676.178	-195.469	-0.377	0.003
-675.164	142.593	0.091	-0.123
-674.149	-43.271	0.347	0.178
-673.135	113.339	0.063	0.078
-672.120	-200.000	-0.053	0.307
-671.105	109.359	-0.049	0.060
-670.091	-135.800	0.264	-0.032
-669.076	263.600	0.081	0.144
-668.062	-200.000	0.001	0.130
-667.047	-77.542	0.163	-0.057
-666.032	-60.394	0.106	-0.046
-665.018	-110.707	-0.229	-0.048
-664.003	-130.468	0.087	0.012
-662.989	-164.835	-0.436	0.020
-661.974	255.525	0.184	-0.320
-660.959	171.191	0.073	-0.106
-659.945	-17.092	0.296	0.189
-658.930	-153.162	-0.286	-0.020
-657.916	-89.939	-0.087	0.026
-656.901	-129.202	0.031	0.004
-655.886	-200.000	0.023	-0.385
-654.872	800.000	-0.143	-0.416
-653.857	542.350	-0.076	0.183
-652.843	-200.000	0.079	-0.381
-651.828	-65.140	0.162	-0.066
-650.814	800.000	-0.057	-0.176
-649.799	-61.595	-0.388	0.165
-648.784	163.330	0.127	-0.181
-647.770	39.240	-0.266	0.242
-646.755	-95.635	-0.246	0.067
-645.741	800.000	-0.120	0.364
-644.726	-56.042	0.350	0.158
-643.711	800.000	0.055	0.160
-642.697	-193.108	0.162	0.001
-641.682	800.000	0.063	-0.207
-640.668	216.155	0.202	-0.325
-639.653	123.282	0.098	-0.125
-638.638	-200.000	0.027	-0.152
-637.624	-107.764	-0.038	-0.008
-636.609	4.891	-0.248	-0.185
-635.595	434.139	-0.062	0.136
-634.580	502.628	-0.150	-0.352
-633.565	39.804	-0.149	0.135
-632.551	800.000	0.046	-0.167
-631.536	-43.510	0.119	0.061
-630.522	146.864	0.154	0.210
-629.507	800.000	0.037	0.106
-628.492	194.731	-0.202	-0.311
-627.478	342.668	0.178	-0.353
-626.463	89.825	0.152	-0.172
-625.449	652.321	0.033	0.086
-624.434	160.351	-0.192	0.271
-623.419	-200.000	0.027	-0.363
-622.405	-69.328	0.509	0.198
-621.390	363.753	-0.086	-0.174
-620.376	185.654	0.164	-0.247
-619.361	-200.000	-0.166	0.000
-618.346	183.830	-0.141	0.212
-617.332	-130.379	0.139	-0.019
-616.317	-5.252	0.102	-0.071
-615.303	-172.944	0.052	0.002
-614.288	-134.826	0.328	0.040
-613.273	-85.683	-0.233	-0.073
-612.259	-13.434	0.318	-0.209
-611.244	-79.730	0.231	0.079
-610.230	-52.029	-0.292	-0.138
-609.215	-55.437	0.237	0.108
-608.201	265.968	-0.114	-0.201
-607.186	-3.459	0.148	0.104
-606.171	-200.000	-0.015	-0.231
-605.157	-169.247	0.452	0.017
-604.142	-20.817	-0.293	-0.182
-603.128	109.398	0.103	-0.125
-602.113	-140.709	0.147	0.015
-601.098	-65.415	-0.136	-0.055
-600.084	-104.882	0.136	0.032
-599.069	800.000	0.060	0.182
-598.055	-80.580	0.258	-0.087
-597.040	800.000	0.019	-0.074
-596.025	-101.919	-0.177	0.043
-595.011	-127.667	-0.170	0.025
-593.996	56.060	0.117	-0.115
-592.982	800.000	-0.093	-0.269
-591.967	59.950	-0.216	-0.216
-590.952	-200.000	0.039	0.298
-589.938	-96.253	0.256	0.069
-588.923	800.000	-0.096	-0.291
-587.909	-83.227	0.223	-0.072
-586.894	146.834	-0.149	-0.202
-585.879	64.932	0.353	-0.361
-584.865	107.940	0.084	0.101
-583.850	-64.968	0.252	-0.103
-582.836	376.099	-0.109	-0.225
-581.821	-101.274	-0.152	0.038
-580.806	-95.050	0.075	0.020
-579.792	68.447	0.131	0.136
-578.777	536.834	0.021	0.052
-577.763	231.084	0.098	-0.162
-576.748	-135.040	-0.340	-0.042
-575.733	800.000	-0.080	-0.226
-574.719	-13.775	-0.218	0.143
-573.704	-55.716	-0.172	0.078
-572.690	-14.688	0.247	-0.160
-571.675	71.486	-0.127	-0.133
-570.661	-4.904	0.221	0.154
-569.646	110.026	0.367	0.446
-568.631	-112.034	0.105	-0.021
-567.617	-3.363	-0.078	-0.055
-566.602	800.000	-0.050	-0.193
-565.588	-200.000	-0.040	-0.191
-564.573	-109.412	-0.244	0.052
-563.558	-154.061	0.073	0.005
-562.544	-7.619	0.082	-0.056
-561.529	649.912	0.099	-0.257
-560.515	-35.789	0.213	0.117
-559.500	-128.103	-0.277	-0.040
-558.485	761.485	-0.109	0.299
-557.471	-41.896	0.055	-0.028
-556.456	-170.502	0.396	-0.014
-555.442	-32.330	-0.140	0.079
-554.427	-120.296	-0.385	0.066
-553.412	-182.102	0.313	-0.006
-552.398	20.632	0.123	-0.101
-551.383	97.268	-0.177	-0.205
-550.369	-18.776	-0.206	-0.130
-549.354	-200.000	-0.022	-0.175
-548.339	-27.105	0.155	-0.091
-547.325	694.636	-0.148	0.391
-546.310	800.000	-0.024	-0.086
-545.296	-200.000	-0.003	-0.119
-544.281	33.386	0.165	0.145
-543.266	36.862	0.231	0.206
-542.252	-83.529	0.058	0.019
-541.237	93.904	0.081	-0.093
-540.223	355.275	-0.131	-0.262
-539.208	-123.262	-0.314	0.051
-538.193	201.959	-0.181	0.282
-537.179	-200.000	-0.008	-0.124
-536.164	-200.000	0.001	-0.141
-535.150	318.317	-0.004	-0.007
-534.135	62.403	-0.151	-0.152
-533.121	-27.780	0.205	-0.120
-532.106	598.185	0.090	0.224
-531.091	-99.246	-0.169	0.043
-530.077	-158.350	0.652	0.038
-529.062	-141.858	0.209	-0.021
-528.048	-14.158	-0.420	-0.273
-527.033	-106.815	-0.333	-0.075
-526.018	-90.770	-0.191	0.056
-525.004	758.418	0.029	-0.080
-523.989	-200.000	-0.028	0.127
-522.975	332.300	-0.036	0.071
-521.960	-200.000	0.026	-0.195
-520.945	36.408	-0.229	-0.204
-519.931	26.692	-0.225	0.191
-518.916	88.471	-0.105	-0.118
-517.902	713.984	0.024	-0.063
-516.887	81.918	-0.093	0.102
-515.872	92.650	0.138	0.157
-514.858	-39.806	-0.420	-0.222
-513.843	-200.000	0.054	-0.392
-512.829	3.975	0.239	-0.176
-511.814	58.115	0.142	-0.141
-510.799	323.270	-0.173	0.333
-509.785	23.330	-0.115	-0.095
-508.770	-30.028	0.223	0.128
-507.756	-185.953	-0.318	0.005
-506.741	-200.000	0.021	0.153
-505.726	-67.015	0.301	-0.120
-504.712	6.150	-0.203	0.152
-503.697	-200.000	0.004	-0.141
-502.683	-56.375	-0.224	-0.100
-501.668	800.000	-0.063	-0.248
-500.653	800.000	-0.061	0.196
-499.639	95.749	-0.084	0.097
-498.624	-22.761	-0.133	0.081
-497.610	174.763	0.201	0.293
-496.595	6.726	-0.090	-0.067
-495.581	-200.000	-0.020	-0.139
-494.566	-148.871	-0.119	-0.010
-493.551	800.000	0.023	-0.077
-492.537	221.949	0.132	0.214
-491.522	-200.000	-0.060	-0.312
-490.508	88.730	-0.204	0.229
-489.493	5.784	0.103	-0.077
-488.478	-190.914	-0.156	-0.002
-487.464	417.329	0.046	0.099
-486.449	-91.603	0.164	0.047
-485.435	-32.841	0.069	-0.039
-484.420	-200.000	0.021	0.267
-483.405	-200.000	-0.053	-0.238
-482.391	94.122	-0.069	0.079
-481.376	100.958	0.171	0.201
-480.362	-23.423	-0.258	0.156
-479.347	-200.000	-0.024	0.216
-478.332	-19.329	-0.059	-0.037
-477.318	-162.998	0.076	-0.004
-476.303	-75.649	0.148	0.053
-475.289	27.050	0.026	-0.022
-474.274	344.541	0.174	-0.345
-473.259	-200.000	-0.032	-0.277
-472.245	182.641	-0.109	-0.162
-471.230	370.643	0.151	-0.308
-470.216	182.535	-0.100	-0.149
-469.201	-176.317	-0.344	-0.009
-468.186	-43.708	0.312	-0.158
-467.172	-156.366	0.200	0.013
-466.157	800.000	0.113	0.396
-465.143	-42.652	-0.273	-0.140
-464.128	80.746	0.125	-0.135
-463.113	-169.768	0.298	0.011
-462.099	-200.000	0.038	-0.210
-461.084	614.646	-0.086	-0.216
-460.070	-2.492	-0.214	0.151
-459.055	17.043	-0.140	-0.112
-458.040	311.054	-0.071	0.135
-457.026	-59.679	-0.216	0.093
-456.011	41.587	-0.068	0.062
-454.997	-94.300	0.213	0.059
-453.982	-200.000	0.058	-0.318
-452.968	800.000	-0.148	-0.457
-451.953	73.478	0.063	0.066
-450.938	202.049	-0.113	0.176
-449.924	-77.040	0.057	-0.020
-448.909	11.419	0.058	0.045
-447.895	38.464	0.329	-0.295
-446.880	800.000	-0.082	0.240
-445.865	24.307	-0.291	0.242
-444.851	-118.442	-0.577	-0.103
-443.836	434.355	0.202	0.442
-442.822	-200.000	-0.001	0.067
-441.807	137.036	0.088	-0.116
-440.792	-24.384	0.296	-0.178
-439.778	-183.921	-0.279	0.005
-438.763	-158.505	-0.222	0.013
-437.749	-124.786	-0.147	-0.023
-436.734	7.181	0.058	-0.044
-435.719	73.145	-0.062	0.065
-434.705	-143.667	0.115	-0.011
-433.690	346.396	0.098	0.194
-432.676	92.975	-0.202	-0.229
-431.661	-12.152	-0.034	0.023
-430.646	457.991	-0.062	0.139
-429.632	81.379	-0.134	-0.146
-428.617	193.912	0.135	-0.206
-427.603	800.000	-0.115	-0.328
-426.588	-141.630	-0.354	0.036
-425.573	-73.564	-0.052	-0.019
-424.559	-200.000	0.041	-0.388
-423.544	99.638	0.060	0.069
-422.530	116.837	0.063	0.077
-421.515	-60.764	-0.061	0.026
-420.500	-92.439	-0.038	0.011
-419.486	428.271	0.067	0.146
-418.471	393.337	-0.102	0.214
-417.457	800.000	0.067	0.193
-416.442	58.105	-0.337	0.332
-415.428	-53.923	0.179	0.082
-414.413	800.000	-0.015	-0.045
-413.398	800.000	0.039	0.111
-412.384	-128.455	-0.193	0.028
-411.369	-200.000	0.001	-0.314
-410.355	186.343	-0.151	-0.225
-409.340	-19.647	0.172	-0.107
-408.325	-87.638	0.263	-0.080
-407.311	-100.996	-0.181	-0.045
-406.296	156.346	0.136	-0.189
-405.282	-117.489	-0.097	0.018
-404.267	255.276	-0.112	-0.192
-403.252	-56.976	0.323	-0.143
-402.238	-85.382	-0.164	-0.051
-401.223	448.897	-0.063	0.140
-400.209	-0.721	-0.073	-0.052
-399.194	-109.949	0.205	0.043
-398.179	800.000	-0.025	0.094
-397.165	-48.864	-0.028	-0.013
-396.150	-72.968	0.217	-0.080
-395.136	-32.615	-0.038	-0.021
-394.121	-107.161	0.191	-0.042
-393.106	58.045	0.202	0.198
-392.092	-57.710	-0.099	-0.043
-391.077	-126.482	-0.176	0.026
-390.063	53.794	0.100	-0.097
-389.048	-101.554	-0.288	-0.070
-388.033	-110.199	-0.069	-0.014
-387.019	-79.918	-0.185	0.062
-386.004	28.891	0.203	0.173
-384.990	800.000	-0.034	0.115
-383.975	-91.297	-0.309	-0.089
-382.960	103.831	-0.115	0.135
-381.946	-99.682	0.187	-0.047
-380.931	216.167	-0.114	-0.182
-379.917	-200.000	-0.101	0.453
-378.902	-133.919	0.219	-0.027
-377.888	-200.000	-0.002	-0.308
-376.873	-160.888	-0.177	-0.009
-375.858	-24.619	-0.103	0.061
-374.844	-200.000	0.015	0.138
-373.829	-200.000	0.086	0.388
-372.815	-39.297	0.056	-0.030
-371.800	329.575	-0.293	-0.566
-370.785	45.550	0.348	-0.323
-369.771	352.171	0.140	-0.279
-368.756	-67.261	0.168	-0.066
-367.742	800.000	0.057	0.239
-366.727	289.768	-0.081	0.147
-365.712	-55.554	0.276	0.124
-364.698	163.375	0.084	0.118
-363.683	-142.002	-0.515	0.051
-362.669	-125.086	-0.493	-0.076
-361.654	515.173	0.118	-0.277
-360.639	108.002	0.024	-0.029
-359.625	-200.000	0.001	0.062
-358.610	800.000	0.094	0.262
-357.596	13.828	0.110	0.086
-356.581	-5.979	0.091	-0.062
-355.566	52.748	0.111	0.106
-354.552	519.715	0.207	-0.487
-353.537	-43.180	0.029	-0.015
-352.523	-200.000	-0.013	-0.216
-351.508	-79.690	0.022	-0.008
-350.493	421.707	0.111	-0.239
-349.479	-200.000	0.027	-0.268
-348.464	79.960	0.091	0.099
-347.450	-109.608	-0.119	-0.025
-346.435	-200.000	-0.023	-0.211
-345.420	-23.150	0.152	0.092
-344.406	17.059	0.351	0.279
-343.391	-200.000	0.027	0.479
-342.377	484.612	-0.082	0.188
-341.362	256.876	-0.161	0.277
-340.348	340.857	-0.035	-0.069
-339.333	-148.984	-0.391	-0.032
-338.318	720.761	-0.089	0.236
-337.304	-133.838	0.051	-0.006
-336.289	800.000	0.131	0.429
-335.275	8.721	-0.197	0.149
-334.260	-35.809	-0.285	0.155
-333.245	61.619	0.212	0.211
-332.231	47.008	-0.138	0.129
-331.216	-48.000	-0.212	0.103
-330.202	-200.000	0.065	0.324
-329.187	-200.000	0.047	0.389
-328.172	35.443	-0.116	0.102
-327.158	89.998	0.232	0.260
-326.143	372.352	0.114	0.233
-325.129	-85.874	0.218	0.068
-324.114	800.000	0.034	0.118
-323.099	800.000	0.039	-0.116
-322.085	800.000	0.044	0.172
-321.070	-47.892	-0.128	0.062
-320.056	479.230	-0.020	0.044
-319.041	-200.000	0.056	0.494
-318.026	-48.525	-0.151	-0.073
-317.012	13.089	0.115	-0.089
-315.997	82.326	0.052	-0.056
-314.983	-103.635	-0.293	-0.069
-313.968	102.911	0.114	-0.133
-312.953	369.942	0.117	0.238
-311.939	-200.000	0.009	0.057
-310.924	86.105	0.386	0.425
-309.910	145.093	-0.269	0.360
-308.895	91.894	-0.357	0.402
-307.880	339.245	0.217	0.424
-306.866	39.174	0.057	-0.051
-305.851	273.450	-0.146	0.258
-304.837	-200.000	-0.009	-0.221
-303.822	101.655	-0.138	0.161
-302.807	-0.239	0.302	-0.215
-301.793	303.029	-0.105	-0.195
-300.778	573.701	0.187	0.457
-299.764	-80.000	-0.195	-0.066
-298.749	236.277	0.117	0.194
-297.735	-69.797	0.281	0.107
-296.720	72.600	0.176	-0.184
-295.705	102.765	0.210	0.245
-294.691	-140.265	-0.355	0.037
-293.676	496.912	-0.101	-0.232
-292.662	283.418	-0.151	-0.272
-291.647	88.937	-0.179	-0.199
-290.632	-200.000	-0.000	-0.081
-289.618	-33.023	-0.143	0.080
-288.603	-98.564	-0.039	-0.010
-287.589	699.569	-0.071	0.188
-286.574	263.993	-0.135	-0.236
-285.559	74.225	-0.147	-0.154
-284.545	-183.483	-0.129	0.002
-283.530	113.945	-0.099	-0.120
-282.516	800.000	-0.101	0.320
-281.501	80.982	0.131	-0.142
-280.486	-200.000	0.016	-0.232
-279.472	90.861	-0.123	-0.137
-278.457	-200.000	0.032	0.215
-277.443	345.243	0.037	0.072
-276.428	105.159	-0.124	0.147
-275.413	-200.000	-0.008	0.144
-274.399	-92.434	0.283	-0.079
-273.384	-57.544	-0.288	0.126
-272.370	107.808	-0.048	0.057
-271.355	-178.329	0.196	0.005
-270.340	-47.095	0.295	0.144
-269.326	6.786	-0.088	0.066
-268.311	141.532	0.099	-0.132
-267.297	325.862	0.110	0.211
-266.282	210.003	0.055	-0.086
-265.267	110.638	-0.142	0.171
-264.253	-44.904	-0.228	-0.114
-263.238	-64.842	0.174	-0.070
-262.224	-200.000	-0.001	0.134
-261.209	278.693	-0.137	0.245
-260.195	800.000	0.082	0.237
-259.180	-111.839	0.087	-0.018
-258.165	391.417	0.090	-0.186
-257.151	-121.848	-0.132	0.022
-256.136	-200.000	-0.006	0.180
-255.122	174.364	-0.121	-0.175
-254.107	-200.000	-0.104	0.000
-253.092	270.525	-0.122	-0.214
-252.078	528.939	-0.101	-0.237
-251.063	61.447	0.112	0.111
-250.049	800.000	0.080	-0.231
-249.034	-200.000	0.016	-0.240
-248.019	107.828	-0.101	-0.121
-247.005	113.155	0.130	-0.158
-245.990	63.032	0.166	-0.166
-244.976	-48.797	-0.117	-0.056
-243.961	-24.734	-0.292	0.173
-242.946	775.178	-0.053	0.145
-241.932	256.117	-0.314	0.537
-240.917	581.321	-0.075	0.184
-239.903	-70.392	-0.197	0.074
-238.888	131.216	-0.116	0.149
-237.873	800.000	0.048	-0.138
-236.859	-122.744	0.510	-0.082
-235.844	-200.000	-0.038	-0.280
-234.830	36.199	0.114	-0.100
-233.815	156.957	-0.242	0.333
-232.800	-200.000	0.006	-0.100
-231.786	-200.000	0.023	0.320
-230.771	334.613	-0.091	-0.176
-229.757	-200.000	-0.065	-0.486
-228.742	93.125	-0.146	-0.164
-227.727	-149.216	0.229	0.018
-226.713	-200.000	-0.008	-0.185
-225.698	-63.291	0.127	-0.052
-224.684	800.000	0.051	-0.170
-223.669	188.974	-0.182	-0.272
-222.655	-200.000	0.014	-0.102
-221.640	-7.871	0.301	-0.202
-220.625	475.502	0.031	-0.070
-219.611	-20.478	0.032	0.020
-218.596	206.937	-0.046	-0.071
-217.582	25.058	0.064	0.053
-216.567	800.000	-0.066	0.257
-215.552	-200.000	-0.046	0.211
-214.538	-75.484	-0.085	0.030
-213.523	113.448	0.051	-0.062
-212.509	193.671	-0.125	0.189
-211.494	-28.276	0.192	0.111
-210.479	238.987	-0.138	0.229
-209.465	-200.000	-0.013	0.274
-208.450	-200.000	-0.011	0.168
-207.436	-82.049	0.218	-0.071
-206.421	-138.635	-0.164	-0.018
-205.406	68.109	-0.178	-0.182
-204.392	800.000	0.122	-0.380
-203.377	-97.202	0.176	-0.046
-202.363	-200.000	0.053	0.421
-201.348	-33.114	0.189	0.104
-200.333	-124.102	-0.250	-0.039
-199.319	197.262	0.205	-0.311
-198.304	-134.164	0.386	-0.047
-197.290	-200.000	-0.012	-0.093
-196.275	526.423	-0.159	-0.373
-195.260	199.601	0.181	0.277
-194.246	273.790	0.129	0.227
-193.231	800.000	0.056	-0.222
-192.217	-200.000	0.015	0.322
-191.202	-133.615	0.212	-0.026
-190.187	800.000	0.069	-0.219
-189.173	18.739	-0.083	0.066
-188.158	-21.031	0.104	-0.063
-187.144	-181.976	0.235	-0.004
-186.129	-200.000	-0.017	-0.277
-185.114	-29.979	0.168	-0.095
-184.100	-200.000	0.008	-0.080
-183.085	234.860	0.050	0.082
-182.071	-200.000	-0.013	0.185
-181.056	51.607	-0.107	0.101
-180.042	-200.000	-0.007	0.248
-179.027	800.000	-0.074	-0.255
-178.012	-98.432	0.214	-0.055
-176.998	268.435	0.052	0.091
-175.983	-200.000	-0.016	-0.080
-174.969	-83.712	0.390	0.124
-173.954	-98.798	0.323	-0.082
-172.939	183.225	-0.068	-0.100
-171.925	35.339	0.162	0.141
-170.910	-200.000	-0.073	0.326
-169.896	800.000	-0.069	-0.238
-168.881	-77.312	0.300	0.104
-167.866	-2.076	-0.172	0.121
-166.852	-20.905	-0.304	0.186
-165.837	-200.000	-0.025	0.337
-164.823	-109.643	0.162	0.034
-163.808	-72.698	0.554	0.203
-162.793	-153.214	0.160	-0.011
-161.779	-200.000	0.036	-0.267
-160.764	83.251	-0.184	-0.199
-159.750	-164.561	-0.085	0.004
-158.735	1.632	-0.223	0.160
-157.720	33.649	0.051	-0.045
-156.706	-200.000	0.036	0.298
-155.691	-32.719	-0.278	-0.154
-154.677	-141.693	0.012	-0.001
-153.662	-63.740	-0.416	0.170
-152.647	-200.000	-0.002	-0.129
-151.633	164.564	0.155	0.217
-150.618	141.062	-0.126	0.165
-149.604	100.417	0.151	-0.174
-148.589	23.981	0.199	-0.163
-147.574	-200.000	0.008	-0.159
-146.560	205.971	-0.120	0.185
-145.545	453.175	0.083	0.183
-144.531	-200.000	-0.065	-0.318
-143.516	-8.211	0.298	0.200
-142.502	-142.519	-0.334	-0.033
-141.487	-121.114	0.126	-0.021
-140.472	-200.000	-0.035	0.233
-139.458	-200.000	-0.064	0.387
-138.443	309.083	0.246	0.457
-137.429	-200.000	0.023	-0.146
-136.414	63.086	-0.082	-0.082
-135.399	84.261	0.035	-0.038
-134.385	66.742	-0.135	0.136
-133.370	236.682	0.060	-0.099
-132.356	-200.000	-0.021	-0.190
-131.341	-185.453	-0.226	-0.003
-130.326	-200.000	-0.020	-0.183
-129.312	800.000	0.030	-0.090
-128.297	-68.892	0.147	-0.056
-127.283	124.528	0.053	0.066
-126.268	800.000	0.096	-0.334
-125.253	120.829	0.069	-0.085
-124.239	185.336	-0.081	-0.119
-123.224	-23.515	0.105	-0.063
-122.210	-148.585	0.198	-0.016
-121.195	-64.667	0.208	-0.084
-120.180	57.241	0.323	0.313
-119.166	-83.175	-0.278	0.089
-118.151	785.660	-0.055	-0.149
-117.137	-171.224	0.407	0.014
-116.122	92.528	-0.249	-0.279
-115.107	285.440	-0.031	-0.055
-114.093	160.915	-0.170	0.235
-113.078	-200.000	-0.009	-0.049
-112.064	123.807	-0.076	-0.095
-111.049	272.343	0.178	-0.312
-110.034	-182.040	0.348	0.007
-109.020	-70.665	0.210	0.079
-108.005	265.063	0.110	-0.191
-106.991	-188.771	0.038	-0.000
-105.976	-69.104	-0.203	-0.078
-104.962	-200.000	0.007	-0.077
-103.947	7.881	-0.083	0.062
-102.932	-11.163	-0.194	0.127
-101.918	-49.168	-0.139	-0.066
-100.903	33.660	0.074	-0.063
-99.889	12.300	0.108	0.082
-98.874	-81.323	-0.341	0.112
-97.859	-84.181	-0.113	-0.036
-96.845	-126.486	-0.439	0.065
-95.830	-200.000	0.011	-0.150
-94.816	36.959	-0.139	0.122
-93.801	-3.738	-0.064	0.044
-92.786	42.581	-0.345	0.311
-91.772	-181.952	0.519	-0.010
-90.757	800.000	0.076	-0.221
-89.743	-82.179	-0.097	-0.031
-88.728	-160.891	0.042	0.002
-87.713	-10.530	-0.304	0.200
-86.699	52.399	-0.081	-0.077
-85.684	186.916	0.308	0.455
-84.670	787.237	0.105	0.286
-83.655	-200.000	-0.016	0.155
-82.640	197.904	-0.205	0.310
-81.626	-141.997	-0.324	-0.032
-80.611	-20.267	0.175	-0.107
-79.597	-84.619	-0.077	-0.024
-78.582	-125.971	0.162	-0.024
-77.567	-170.672	0.294	0.010
-76.553	-29.186	0.196	-0.111
-75.538	-196.884	0.160	0.001
-74.524	-1.913	-0.110	0.077
-73.509	-46.603	-0.298	0.145
-72.494	39.912	-0.120	0.107
-71.480	201.034	-0.106	-0.161
-70.465	-126.770	-0.237	-0.035
-69.451	-200.000	0.023	0.321
-68.436	-14.076	0.145	0.093
-67.422	-200.000	0.055	-0.422
-66.407	416.208	0.095	-0.202
-65.392	-200.000	-0.057	-0.327
-64.378	-144.394	0.335	0.031
-63.363	-200.000	0.020	0.286
-62.349	-147.447	0.090	-0.008
-61.334	-23.661	-1.053	-0.626
-60.319	46.278	0.399	0.366
-59.305	418.647	-0.329	-0.697
-58.290	105.036	0.551	0.645
-57.276	637.638	0.631	1.590
-56.261	-200.000	78.897	500.422
-55.246	520.523	1320.674	3069.850
-54.232	151.089	2548.239	3436.312
-53.217	109.521	2326.120	2762.405
-52.203	49.398	1947.011	1815.654
-51.188	43.771	1735.453	1574.699
-50.173	40.902	1690.397	1511.972
-49.159	55.314	1726.640	1655.194
-48.144	60.461	1745.644	1712.801
-47.130	43.722	1708.418	1549.548
-46.115	40.589	1694.175	1512.725
-45.100	40.423	1689.734	1507.436
-44.086	40.500	1687.119	1505.630
-43.071	40.413	1684.236	1502.339
-42.057	40.360	1682.310	1500.158
-41.042	40.399	1680.143	1498.458
-40.027	40.454	1678.308	1497.183
-39.013	40.303	1677.124	1494.922
-37.998	40.317	1675.483	1493.507
-36.984	40.456	1673.807	1493.003
-35.969	40.602	1671.846	1492.294
-34.954	40.611	1670.478	1491.083
-33.940	40.428	1669.047	1488.368
-32.925	40.526	1667.205	1487.400
-31.911	40.541	1665.184	1485.652
-30.896	40.441	1663.420	1483.270
-29.881	40.434	1662.251	1482.120
-28.867	40.514	1660.484	1481.079
-27.852	40.579	1658.993	1480.179
-26.838	40.529	1657.316	1478.250
-25.823	40.524	1655.986	1476.966
-24.809	40.633	1654.359	1476.274
-23.794	40.589	1653.387	1475.018
-22.779	40.629	1651.484	1473.559
-21.765	40.556	1649.916	1471.555
-20.750	40.524	1648.440	1469.946
-19.736	40.557	1646.895	1468.757
-18.721	40.579	1645.064	1467.227
-17.706	40.566	1643.974	1466.096
-16.692	40.490	1642.817	1464.450
-15.677	40.626	1640.637	1463.447
-14.663	40.529	1639.863	1461.987
-13.648	40.514	1638.452	1460.559
-12.633	40.451	1637.604	1459.278
-11.619	40.596	1635.124	1458.080
-10.604	40.522	1633.716	1456.226
-9.590	40.523	1632.561	1455.139
-8.575	40.479	1631.418	1453.745
-7.560	40.557	1629.998	1452.991
-6.546	40.582	1628.567	1451.840
-5.531	40.488	1627.706	1450.332
-4.517	40.484	1626.693	1449.340
-3.502	40.444	1625.695	1448.103
-2.487	40.600	1623.429	1447.164
-1.473	40.174	1610.914	1432.867
-0.458	36.666	1589.532	1388.663
0.556	31.541	1587.938	1346.910
1.571	28.397	1610.552	1342.971
2.586	27.551	1625.121	1348.739
3.600	24.303	1571.917	1281.174
4.615	13.578	1456.052	1114.848
5.629	3.412	1382.828	993.442
6.644	1.490	1373.184	974.117
7.659	1.362	1371.504	972.016
8.673	1.345	1370.516	971.121
9.688	1.134	1369.358	968.868
10.702	0.996	1366.447	965.844
11.717	4.581	1373.946	994.014
12.731	15.027	1393.905	1075.829
13.746	23.355	1408.358	1140.746
14.761	25.038	1410.220	1152.995
15.775	25.258	1409.867	1154.021
16.790	25.267	1409.673	1153.819
17.804	25.449	1408.703	1154.087
18.819	25.637	1408.319	1154.882
19.834	25.699	1407.625	1154.609
20.848	25.772	1406.853	1154.340
21.863	25.737	1405.549	1152.940
22.877	25.803	1405.001	1152.816
23.892	25.715	1404.294	1151.570
24.907	25.736	1403.487	1150.941
25.921	25.670	1402.420	1149.537
26.936	25.816	1401.057	1149.253
27.950	25.697	1400.311	1147.781
28.965	25.716	1399.481	1147.118
29.980	25.705	1397.730	1145.513
30.994	25.761	1396.391	1144.669
32.009	25.642	1395.565	1143.138
33.023	25.643	1394.216	1141.937
34.038	25.712	1393.050	1141.316
35.053	25.680	1391.861	1140.037
36.067	25.737	1390.941	1139.544
37.082	25.685	1390.442	1138.707
38.096	25.741	1389.252	1137.986
39.111	25.690	1388.146	1136.656
40.126	25.775	1387.414	1136.494
41.140	25.787	1386.915	1136.062
42.155	25.723	1386.933	1135.568
43.169	25.649	1387.183	1135.208
44.184	25.697	1386.590	1134.922
45.199	25.672	1386.147	1134.305
46.213	25.706	1385.527	1133.911
47.228	25.708	1385.035	1133.420
48.242	25.683	1383.257	1131.707
49.257	25.750	1381.781	1130.820
50.271	25.750	1380.522	1129.688
51.286	25.713	1379.583	1128.590
52.301	25.677	1377.943	1126.921
53.315	25.578	1377.501	1125.845
54.330	25.658	1376.250	1125.223
55.344	25.678	1375.387	1124.541
56.359	25.605	1374.157	1122.978
57.374	25.741	1372.974	1122.762
58.388	25.699	1372.882	1122.325
59.403	25.825	1372.043	1122.326
60.417	25.655	1371.612	1120.817
61.432	25.683	1370.833	1120.255
62.447	25.668	1370.220	1119.558
63.461	25.708	1368.798	1118.546
64.476	25.749	1367.497	1117.641
65.490	25.659	1366.795	1116.407
66.505	25.644	1365.124	1114.850
67.520	25.763	1363.438	1114.113
68.534	25.677	1362.813	1112.975
69.549	25.737	1361.741	1112.366
70.563	25.693	1360.824	1111.249
71.578	25.678	1359.840	1110.254
72.593	25.782	1359.277	1110.337
73.607	25.784	1358.212	1109.385
74.622	25.785	1357.231	1108.488
75.636	25.672	1356.889	1107.416
76.651	25.773	1355.867	1107.103
77.666	25.789	1355.405	1106.728
78.680	25.657	1355.298	1105.731
79.695	25.642	1354.245	1104.686
80.709	25.633	1354.042	1104.366
81.724	25.718	1352.697	1103.691
82.739	25.601	1352.176	1102.454
83.753	25.616	1350.835	1101.354
84.768	25.663	1349.487	1100.440
85.782	25.775	1348.221	1099.997
86.797	25.772	1347.175	1099.028
87.812	25.816	1346.174	1098.384
88.826	25.732	1344.792	1096.647
89.841	25.693	1344.307	1095.916
90.855	25.866	1342.748	1095.602
91.870	25.769	1342.287	1094.539
92.884	25.731	1341.538	1093.602
93.899	25.682	1340.750	1092.560
94.914	25.760	1340.208	1092.497
95.928	25.725	1339.031	1091.232
96.943	25.791	1337.935	1090.641
97.957	25.814	1337.364	1090.220
98.972	25.780	1336.845	1089.491
99.987	25.794	1335.817	1088.641
101.001	25.733	1334.912	1087.440
102.016	25.702	1334.248	1086.617
103.030	25.755	1333.452	1086.192
104.045	25.828	1332.692	1085.917
105.060	25.796	1331.416	1084.589
106.074	25.886	1330.344	1084.159
107.089	25.792	1329.138	1082.513
108.103	25.736	1328.589	1081.638
109.118	25.849	1327.103	1081.007
110.133	25.828	1325.971	1079.869
111.147	25.849	1324.668	1078.834
112.162	25.892	1323.624	1078.143
113.176	25.799	1322.476	1076.559
114.191	25.842	1321.608	1076.014
115.206	25.922	1320.624	1075.596
116.220	25.878	1319.337	1074.192
117.235	25.900	1318.403	1073.467
118.249	25.770	1317.945	1072.223
119.264	25.870	1316.951	1071.918
120.279	25.827	1316.170	1070.932
121.293	25.826	1315.504	1070.285
122.308	25.811	1314.815	1069.545
123.322	25.819	1314.228	1069.019
124.337	25.925	1313.151	1068.674
125.352	25.925	1312.106	1067.730
126.366	25.939	1311.171	1066.959
127.381	25.924	1310.505	1066.235
128.395	25.831	1309.522	1064.792
129.410	25.871	1308.538	1064.129
130.424	25.909	1308.072	1063.880
131.439	25.907	1306.994	1062.899
132.454	25.962	1306.148	1062.440
133.468	25.939	1305.555	1061.728
134.483	25.876	1305.227	1060.995
135.497	25.903	1304.060	1060.115
136.512	25.921	1303.433	1059.617
137.527	25.956	1302.017	1058.575
138.541	25.908	1300.707	1057.138
139.556	25.938	1299.646	1056.356
140.570	25.883	1298.941	1055.367
141.585	25.990	1297.353	1054.610
142.600	25.928	1296.578	1053.524
143.614	26.004	1295.605	1053.082
144.629	25.911	1294.718	1051.728
145.643	25.716	1293.938	1049.865
146.658	25.808	1292.866	1049.435
147.673	25.929	1291.134	1048.644
148.687	25.806	1290.424	1047.259
149.702	25.771	1289.453	1046.175
150.716	25.778	1288.268	1045.159
151.731	25.880	1287.317	1044.887
152.746	25.813	1286.187	1043.492
153.760	25.882	1285.297	1043.077
154.775	25.794	1284.543	1041.865
155.789	25.825	1283.283	1040.928
156.804	25.929	1282.297	1040.635
157.819	25.822	1281.555	1039.327
158.833	25.868	1281.182	1039.198
159.848	25.864	1280.474	1038.508
160.862	25.927	1279.598	1038.065
161.877	26.000	1278.341	1037.375
162.892	25.872	1278.027	1036.291
163.906	25.970	1276.907	1035.857
164.921	25.976	1276.007	1035.065
165.935	25.927	1275.596	1034.361
166.950	25.997	1274.671	1033.919
167.964	25.996	1274.228	1033.466
168.979	25.957	1274.018	1032.981
169.994	25.937	1272.959	1031.918
171.008	25.927	1272.483	1031.379
172.023	26.011	1271.141	1030.685
173.037	26.015	1270.505	1030.100
174.052	26.005	1269.713	1029.309
175.067	25.918	1269.599	1028.629
176.081	26.044	1267.988	1027.951
177.096	25.999	1267.597	1027.287
178.110	25.991	1266.754	1026.464
179.125	26.052	1265.390	1025.615
180.140	26.044	1264.306	1024.598
181.154	26.078	1263.537	1024.081
182.169	26.034	1262.589	1022.972
183.183	26.073	1261.217	1021.990
184.198	25.896	1260.765	1020.532
185.213	26.056	1259.527	1020.346
186.227	26.048	1258.449	1019.336
187.242	26.059	1257.758	1018.750
188.256	25.996	1257.236	1017.880
189.271	26.080	1256.184	1017.411
190.286	26.117	1255.209	1016.737
191.300	26.067	1254.830	1016.063
192.315	25.949	1254.560	1015.088
193.329	26.093	1253.839	1015.228
194.344	26.102	1253.372	1014.807
195.359	26.096	1253.047	1014.421
196.373	26.102	1252.525	1013.943
197.388	26.035	1251.883	1012.957
198.402	26.008	1251.795	1012.643
199.417	26.038	1251.267	1012.295
200.432	26.082	1250.407	1011.757
201.446	26.087	1249.838	1011.239
202.461	26.130	1249.090	1010.781
203.475	26.070	1248.165	1009.610
204.490	26.047	1247.327	1008.713
205.504	26.069	1246.484	1008.062
206.519	26.114	1245.384	1007.335
207.534	26.064	1244.541	1006.289
208.548	26.172	1243.304	1005.801
209.563	26.098	1242.907	1004.980
210.577	26.111	1242.126	1004.327
211.592	26.087	1241.730	1003.786
212.607	26.108	1240.578	1002.885
213.621	26.064	1239.839	1001.952
214.636	26.209	1238.888	1001.901
215.650	26.254	1237.632	1001.043
216.665	26.309	1236.830	1000.613
217.680	26.196	1236.343	999.502
218.694	26.140	1235.567	998.481
219.709	26.199	1234.478	997.839
220.723	26.223	1233.836	997.365
221.738	26.179	1233.318	996.610
222.753	26.040	1232.518	995.112
223.767	26.201	1231.770	995.305
224.782	26.330	1231.569	995.769
225.796	26.272	1230.921	994.837
226.811	26.294	1230.600	994.610
227.826	26.318	1229.841	994.040
228.840	26.256	1229.342	993.209
229.855	26.215	1228.732	992.401
230.869	26.363	1227.680	992.275
231.884	26.235	1227.450	991.299
232.899	26.312	1226.070	990.521
233.913	26.319	1225.241	989.801
234.928	26.299	1225.117	989.501
235.942	26.445	1224.140	989.423
236.957	26.384	1223.711	988.658
237.972	26.288	1223.315	987.723
238.986	26.172	1223.003	986.752
240.001	26.401	1222.347	987.388
241.015	26.378	1221.446	986.443
242.030	26.442	1220.213	985.710
243.045	26.477	1219.401	985.160
244.059	26.437	1218.916	984.464
245.074	26.493	1217.683	983.682
246.088	26.473	1217.574	983.399
247.103	26.422	1216.486	982.157
248.117	26.434	1215.975	981.721
249.132	26.572	1214.538	981.222
250.147	26.616	1213.774	980.760
251.161	26.549	1213.578	980.148
252.176	26.559	1212.896	979.568
253.190	26.616	1212.088	979.136
254.205	26.579	1211.574	978.432
255.220	26.454	1211.301	977.450
256.234	26.616	1210.223	977.370
257.249	26.621	1209.326	976.586
258.263	26.607	1208.838	976.027
259.278	26.521	1208.761	975.417
260.293	26.566	1208.223	975.137
261.307	26.625	1207.473	974.765
262.322	26.622	1206.769	974.095
263.336	26.619	1206.094	973.448
264.351	26.588	1205.889	973.026
265.366	26.669	1205.193	972.817
266.380	26.648	1204.260	971.863
267.395	26.642	1203.267	970.943
268.409	26.633	1202.867	970.487
269.424	26.636	1202.182	969.863
270.439	26.666	1202.309	970.041
271.453	26.700	1201.405	969.410
272.468	26.568	1200.815	968.140
273.482	26.542	1200.216	967.435
274.497	26.590	1199.711	967.198
275.512	26.749	1198.670	967.120
276.526	26.655	1198.100	966.073
277.541	26.649	1197.283	965.297
278.555	26.690	1196.874	965.102
279.570	26.633	1195.874	963.906
280.585	26.604	1195.505	963.370
281.599	26.709	1194.308	962.876
282.614	26.625	1193.700	961.856
283.628	26.672	1193.018	961.474
284.643	26.804	1191.681	961.010
285.657	26.791	1190.950	960.265
286.672	26.758	1190.070	959.295
287.687	26.756	1189.487	958.728
288.701	26.873	1188.586	958.536
289.716	26.857	1187.903	957.815
290.730	26.769	1187.514	956.953
291.745	26.818	1186.859	956.599
292.760	26.845	1186.373	956.267
293.774	26.817	1185.743	955.529
294.789	26.859	1185.258	955.274
295.803	26.882	1184.955	955.063
296.818	26.921	1183.433	953.956
297.833	26.988	1182.529	953.495
298.847	26.822	1182.702	952.683
299.862	26.858	1181.789	952.048
300.876	26.893	1180.955	951.475
301.891	26.963	1180.623	951.491
302.906	26.959	1179.896	950.802
303.920	27.085	1179.026	950.677
304.935	27.053	1178.193	949.751
305.949	27.132	1177.459	949.490
306.964	27.023	1177.439	948.817
307.979	27.125	1176.393	948.427
308.993	26.936	1176.415	947.375
310.008	27.052	1175.040	946.787
311.022	27.169	1174.347	946.751
312.037	26.981	1173.755	945.215
313.052	27.088	1172.736	944.868
314.066	27.093	1171.670	943.948
315.081	27.056	1171.151	943.256
316.095	27.031	1170.730	942.704
317.110	26.937	1170.448	941.904
318.125	27.088	1169.340	941.712
319.139	27.154	1168.805	941.539
320.154	27.119	1167.878	940.529
321.168	27.080	1167.322	939.799
322.183	27.175	1166.857	939.832
323.197	27.161	1166.358	939.273
324.212	27.046	1166.215	938.482
325.227	27.105	1165.769	938.343
326.241	27.211	1164.908	938.112
327.256	27.208	1164.086	937.353
328.270	27.179	1163.199	936.405
329.285	27.203	1162.642	936.002
330.300	27.171	1161.737	935.023
331.314	27.180	1160.933	934.338
332.329	27.274	1159.724	933.767
333.343	27.346	1159.079	933.537
334.358	27.291	1158.404	932.627
335.373	27.285	1158.103	932.269
336.387	27.401	1157.175	932.034
337.402	27.325	1156.400	930.939
338.416	27.309	1155.674	930.190
339.431	27.323	1155.271	929.857
340.446	27.170	1154.819	928.628
341.460	27.443	1153.768	929.096
342.475	27.353	1153.433	928.284
343.489	27.360	1152.485	927.472
344.504	27.270	1151.764	926.354
345.519	27.431	1150.354	925.954
346.533	27.451	1149.454	925.249
347.548	27.450	1148.780	924.622
348.562	27.467	1148.334	924.269
349.577	27.383	1147.770	923.303
350.592	27.424	1146.792	922.645
351.606	27.410	1146.391	922.169
352.621	27.433	1145.813	921.741
353.635	27.399	1145.454	921.195
354.650	27.417	1144.712	920.610
355.665	27.571	1143.693	920.485
356.679	27.544	1143.306	919.956
357.694	27.504	1142.695	919.183
358.708	27.563	1142.069	918.896
359.723	27.481	1140.990	917.534
360.738	27.553	1140.533	917.444
361.752	27.453	1139.980	916.416
362.767	27.517	1139.604	916.355
363.781	27.488	1139.531	916.071
364.796	27.656	1138.094	915.677
365.810	27.611	1137.599	914.970
366.825	27.648	1137.314	914.849
367.840	27.755	1136.666	914.783
368.854	27.683	1136.258	914.013
369.869	27.800	1135.281	913.730
370.883	27.685	1134.256	912.249
371.898	27.764	1133.646	912.071
372.913	27.720	1133.303	911.498
373.927	27.705	1132.696	910.851
374.942	27.798	1132.334	910.946
375.956	27.874	1131.594	910.646
376.971	27.751	1131.216	909.652
377.986	27.847	1130.650	909.591
379.000	27.838	1129.842	908.818
380.015	27.820	1129.895	908.688
381.029	27.888	1128.935	908.177
382.044	27.790	1128.439	907.212
383.059	27.976	1127.166	907.027
384.073	27.970	1126.646	906.502
385.088	27.833	1126.032	905.250
386.102	27.863	1125.396	904.807
387.117	27.891	1124.102	903.823
388.132	27.884	1123.453	903.186
389.146	27.994	1122.798	903.125
390.161	28.017	1122.029	902.540
391.175	27.866	1121.728	901.471
392.190	27.917	1120.966	901.029
393.205	28.014	1119.983	900.640
394.219	27.983	1119.364	899.910
395.234	27.981	1118.706	899.290
396.248	27.979	1117.819	898.488
397.263	27.991	1116.762	897.618
398.278	27.955	1116.785	897.381
399.292	28.060	1115.688	896.933
400.307	28.146	1114.942	896.678
401.321	27.971	1114.829	895.647
402.336	28.084	1114.093	895.532
403.350	28.213	1113.092	895.280
404.365	27.967	1112.855	893.804
405.380	28.075	1112.121	893.665
406.394	28.027	1111.401	892.772
407.409	28.167	1110.720	892.829
408.423	28.245	1109.890	892.465
409.438	28.217	1109.314	891.784
410.453	28.195	1108.578	891.008
411.467	28.165	1107.769	890.132
412.482	28.140	1107.368	889.611
413.496	28.249	1106.229	889.147
414.511	28.144	1106.108	888.460
415.526	28.264	1105.254	888.277
416.540	28.220	1105.363	888.073
417.555	28.241	1104.394	887.318
418.569	28.363	1103.650	887.231
419.584	28.486	1103.091	887.299
420.599	28.354	1103.269	886.724
421.613	90.491	1303.944	1388.237
422.628	84.720	1333.209	1388.381
