DTS Sentinel unit serial number:	SN413079Multiplexer serial number:	ORYXHardware model number:	OX4-SRSoftware version number:	ORYX F/W v4.00 Oryx Data Collector v3.7.2.0data status	okinstallation	princeton_trtdifferential loss correction	single-endedforward channel	channel 2reverse channel	N/Adate	2019/09/11time	08:41:11forward acquisition time	60.00reverse acquisition time	0.00gamma	496.2192k internal	0.2319k external	0.2319temperature offset calibration	0.9967default loss term (dB/km)	0.3790temperature slope calibration	1.0000multiplexer offset coefficient	1.0000multiplexer slope coefficient	1.0000fibre end	0.00T internal ref (°C)	33.50T ext. ref 1 (°C)	0.11T ext. ref 2 (°C)	30.96length (m)	temperature (°C)	Stokes	anti-Stokes-747.200	-114.739	0.201	0.039
-746.185	-15.971	0.136	0.087
-745.171	100.030	-0.183	-0.215
-744.156	-200.000	-0.023	0.464
-743.142	82.887	0.149	0.164
-742.127	498.334	-0.131	0.304
-741.112	-200.000	-0.036	0.230
-740.098	620.616	0.151	0.384
-739.083	92.632	-0.165	0.188
-738.069	-72.951	0.264	-0.098
-737.054	-200.000	0.044	0.215
-736.039	-58.422	-0.431	-0.190
-735.025	685.924	0.160	0.421
-734.010	-111.282	-0.239	-0.049
-732.996	5.248	-0.196	-0.146
-731.981	-37.571	-0.135	0.073
-730.966	-127.549	-0.129	0.019
-729.952	-200.000	-0.005	-0.032
-728.937	-165.453	0.153	0.007
-727.923	-200.000	-0.004	0.182
-726.908	-49.732	-0.174	0.083
-725.894	18.720	-0.384	0.311
-724.879	-149.613	-0.287	-0.023
-723.864	2.916	-0.198	-0.145
-722.850	-200.000	0.016	0.296
-721.835	-200.000	-0.046	-0.298
-720.821	-200.000	0.022	0.212
-719.806	-200.000	-0.007	-0.185
-718.791	800.000	-0.166	-0.488
-717.777	-120.280	-0.208	0.036
-716.762	99.231	0.270	-0.316
-715.748	-48.338	-0.075	-0.036
-714.733	406.723	0.066	-0.142
-713.718	-200.000	0.013	-0.329
-712.704	431.639	-0.110	-0.241
-711.689	34.710	0.120	-0.106
-710.675	475.652	0.130	-0.296
-709.660	-70.909	-0.354	-0.135
-708.645	-89.289	0.255	0.076
-707.631	-30.080	-0.158	0.091
-706.616	-6.216	0.113	0.078
-705.602	-30.838	-0.143	-0.082
-704.587	800.000	0.063	-0.203
-703.572	243.571	-0.118	-0.200
-702.558	20.055	-0.192	-0.156
-701.543	620.734	-0.034	0.085
-700.529	191.446	0.106	0.161
-699.514	-200.000	-0.055	0.293
-698.499	161.032	-0.184	-0.259
-697.485	288.527	-0.161	-0.294
-696.470	24.688	-0.251	0.210
-695.456	455.111	-0.056	0.126
-694.441	134.943	-0.070	0.091
-693.426	800.000	0.037	-0.154
-692.412	1.338	0.200	-0.145
-691.397	-80.603	-0.320	-0.108
-690.383	153.281	-0.134	0.185
-689.368	4.716	-0.142	-0.105
-688.354	800.000	-0.010	0.041
-687.339	-42.585	0.136	-0.070
-686.324	800.000	0.007	-0.027
-685.310	19.830	0.256	-0.208
-684.295	491.199	-0.043	-0.099
-683.281	-158.041	-0.149	-0.009
-682.266	0.171	-0.081	-0.058
-681.251	-200.000	0.005	0.256
-680.237	800.000	0.018	0.053
-679.222	240.929	0.065	-0.110
-678.208	685.057	-0.149	-0.392
-677.193	289.172	0.095	-0.174
-676.178	-133.468	-0.064	0.008
-675.164	800.000	-0.077	-0.263
-674.149	17.718	-0.119	0.096
-673.135	118.604	0.003	-0.004
-672.120	419.104	-0.117	-0.252
-671.105	44.776	-0.259	0.240
-670.091	-122.418	0.199	-0.033
-669.076	-200.000	0.067	-0.478
-668.062	-200.000	-0.021	0.133
-667.047	23.386	-0.083	-0.069
-666.032	-200.000	-0.002	0.221
-665.018	25.896	-0.227	-0.191
-664.003	372.886	0.089	-0.183
-662.989	-200.000	0.012	-0.287
-661.974	-94.856	0.395	-0.108
-660.959	94.528	-0.223	-0.256
-659.945	-57.381	0.199	0.088
-658.930	-1.630	0.224	-0.159
-657.916	305.244	-0.056	-0.106
-656.901	800.000	-0.103	0.321
-655.886	-107.208	-0.250	0.056
-654.872	263.105	-0.106	-0.185
-653.857	137.994	-0.184	0.243
-652.843	-54.856	-0.217	0.099
-651.828	-15.576	-0.272	0.175
-650.814	112.311	-0.168	0.204
-649.799	-111.683	0.059	-0.012
-648.784	-137.046	-0.059	0.007
-647.770	-200.000	-0.009	0.416
-646.755	1.206	-0.024	-0.017
-645.741	21.275	-0.201	-0.165
-644.726	-111.686	0.333	0.068
-643.711	69.866	-0.152	0.158
-642.697	91.169	-0.190	-0.215
-641.682	25.597	0.247	0.207
-640.668	800.000	0.019	-0.078
-639.653	-123.882	0.088	0.014
-638.638	-200.000	-0.058	-0.295
-637.624	-200.000	0.021	-0.353
-636.609	-95.456	-0.265	-0.072
-635.595	687.029	-0.120	-0.315
-634.580	800.000	0.036	-0.134
-633.565	-89.907	-0.324	0.095
-632.551	-152.269	0.229	0.017
-631.536	48.407	0.204	0.193
-630.522	83.047	-0.091	0.099
-629.507	45.003	0.052	-0.048
-628.492	562.343	0.108	0.263
-627.478	-97.413	0.296	0.077
-626.463	-200.000	0.021	-0.121
-625.449	151.147	-0.059	-0.081
-624.434	471.798	-0.074	-0.168
-623.419	63.657	-0.042	-0.043
-622.405	-61.488	-0.293	0.124
-621.390	709.229	0.115	-0.306
-620.376	-118.483	0.139	-0.025
-619.361	800.000	0.075	-0.277
-618.346	-200.000	0.008	0.376
-617.332	170.726	0.118	0.171
-616.317	22.451	0.172	-0.141
-615.303	-8.767	-0.063	-0.043
-614.288	-28.708	0.320	0.185
-613.273	-185.205	-0.441	0.007
-612.259	-60.622	0.080	-0.034
-611.244	73.058	-0.035	0.037
-610.230	771.756	0.075	0.205
-609.215	11.817	-0.095	-0.074
-608.201	488.452	0.039	0.091
-607.186	-200.000	-0.014	0.088
-606.171	-200.000	0.006	0.160
-605.157	-67.686	0.182	0.072
-604.142	685.515	-0.116	0.305
-603.128	800.000	0.090	0.348
-602.113	-200.000	-0.023	0.574
-601.098	-124.731	0.024	-0.004
-600.084	-145.747	-0.024	0.002
-599.069	-46.857	-0.233	-0.115
-598.055	-145.576	0.254	0.023
-597.040	24.941	0.158	-0.131
-596.025	392.338	-0.144	-0.302
-595.011	204.186	0.138	-0.215
-593.996	-200.000	-0.004	-0.124
-592.982	-67.147	-0.200	0.079
-591.967	344.039	-0.045	0.088
-590.952	800.000	0.074	-0.326
-589.938	-134.310	-0.165	0.020
-588.923	-92.901	-0.179	0.050
-587.909	-24.439	-0.082	0.049
-586.894	-200.000	0.001	0.186
-585.879	-100.609	-0.417	0.103
-584.865	468.771	-0.092	0.207
-583.850	-200.000	0.020	0.097
-582.836	800.000	-0.025	0.098
-581.821	496.017	-0.115	-0.265
-580.806	-75.197	0.208	-0.075
-579.792	-200.000	-0.003	-0.381
-578.777	-62.607	0.221	-0.092
-577.763	597.852	0.055	-0.138
-576.748	319.282	-0.121	0.232
-575.733	342.984	0.087	-0.171
-574.719	-200.000	-0.038	-0.304
-573.704	-34.719	-0.235	-0.129
-572.690	-91.966	0.207	-0.059
-571.675	800.000	-0.091	-0.321
-570.661	126.199	0.109	-0.138
-569.646	280.015	-0.147	0.265
-568.631	-98.103	0.152	-0.039
-567.617	-200.000	-0.000	-0.219
-566.602	57.745	-0.152	0.150
-565.588	34.334	-0.208	-0.183
-564.573	-116.661	0.177	0.033
-563.558	-0.422	0.207	0.148
-562.544	32.657	0.128	0.111
-561.529	800.000	0.135	0.460
-560.515	6.457	-0.116	-0.087
-559.500	101.489	-0.180	-0.210
-558.485	419.750	0.083	-0.178
-557.471	800.000	0.122	-0.411
-556.456	-142.447	0.071	-0.007
-555.442	-64.072	-0.242	-0.099
-554.427	-20.376	0.208	0.128
-553.412	-72.384	-0.038	-0.014
-552.398	-49.452	-0.318	0.152
-551.383	-49.574	0.122	-0.058
-550.369	-74.977	-0.311	0.112
-549.354	-200.000	-0.021	-0.224
-548.339	-110.910	-0.141	0.029
-547.325	-200.000	0.008	-0.293
-546.310	-9.116	-0.247	0.166
-545.296	-80.982	-0.360	-0.120
-544.281	-200.000	-0.028	0.281
-543.266	-200.000	-0.030	0.161
-542.252	116.436	0.173	0.213
-541.237	-114.738	0.233	0.045
-540.223	-75.117	-0.332	-0.119
-539.208	-200.000	0.003	-0.127
-538.193	-60.351	0.134	0.057
-537.179	198.506	-0.179	-0.275
-536.164	-60.807	-0.094	0.040
-535.150	108.270	0.115	-0.137
-534.135	64.631	0.222	0.224
-533.121	33.740	-0.107	-0.093
-532.106	-36.157	-0.302	-0.163
-531.091	-77.874	0.097	0.034
-530.077	-4.360	0.120	-0.083
-529.062	800.000	-0.087	-0.330
-528.048	-200.000	-0.031	0.152
-527.033	-87.424	-0.343	0.104
-526.018	-200.000	0.031	0.333
-525.004	-200.000	0.016	0.076
-523.989	-200.000	-0.010	0.087
-522.975	84.991	0.097	-0.107
-521.960	-110.105	-0.216	0.045
-520.945	-34.495	-0.383	0.210
-519.931	-99.783	0.245	-0.061
-518.916	800.000	0.041	-0.165
-517.902	532.616	-0.078	-0.185
-516.887	12.680	-0.182	0.141
-515.872	-47.822	-0.163	0.079
-514.858	409.415	0.211	-0.449
-513.843	182.611	0.145	-0.214
-512.829	800.000	0.038	0.141
-511.814	800.000	0.030	0.090
-510.799	159.719	0.297	0.414
-509.785	-50.138	-0.013	-0.006
-508.770	800.000	0.082	0.275
-507.756	-52.468	0.215	-0.100
-506.741	-200.000	0.011	0.073
-505.726	30.448	0.123	0.106
-504.712	-7.892	0.337	-0.228
-503.697	-200.000	0.003	-0.122
-502.683	-200.000	0.024	0.278
-501.668	216.349	0.136	-0.217
-500.653	158.324	-0.151	-0.209
-499.639	-194.762	0.199	-0.002
-498.624	157.230	0.141	0.195
-497.610	48.452	0.116	-0.109
-496.595	-111.020	0.400	-0.082
-495.581	-85.024	0.169	0.053
-494.566	-81.892	0.086	0.028
-493.551	-200.000	0.054	-0.414
-492.537	-200.000	0.025	0.177
-491.522	-186.787	0.195	-0.003
-490.508	-145.751	-0.185	0.017
-489.493	182.721	0.041	0.060
-488.478	15.362	0.147	0.116
-487.464	-171.603	-0.110	-0.004
-486.449	-43.852	-0.310	-0.156
-485.435	-8.441	-0.014	-0.009
-484.420	72.722	0.287	0.300
-483.405	-116.489	0.269	0.050
-482.391	76.133	0.127	0.135
-481.376	154.873	0.157	-0.216
-480.362	-125.486	-0.189	0.029
-479.347	-105.161	0.341	0.078
-478.332	0.367	-0.111	-0.079
-477.318	27.204	0.081	-0.068
-476.303	-61.192	-0.277	-0.117
-475.289	800.000	0.076	-0.232
-474.274	-200.000	-0.008	-0.230
-473.259	-95.065	-0.209	0.056
-472.245	-153.984	0.327	-0.022
-471.230	-81.528	0.276	0.091
-470.216	-87.828	0.224	-0.068
-469.201	79.836	-0.199	-0.214
-468.186	-28.205	-0.088	0.051
-467.172	-107.184	-0.158	0.035
-466.157	-81.180	0.250	0.083
-465.143	-111.996	0.119	0.024
-464.128	106.789	-0.294	0.349
-463.113	222.502	-0.072	0.116
-462.099	554.805	-0.030	-0.073
-461.084	-38.968	-0.107	0.056
-460.070	469.473	-0.096	-0.215
-459.055	270.583	-0.158	-0.279
-458.040	18.390	-0.153	0.122
-457.026	-141.552	0.158	0.016
-456.011	397.404	0.085	-0.178
-454.997	156.307	-0.321	-0.443
-453.982	248.510	-0.054	-0.091
-452.968	325.122	-0.095	0.181
-451.953	377.056	-0.050	-0.102
-450.938	-17.794	0.226	0.142
-449.924	-72.110	-0.157	-0.058
-448.909	96.617	0.054	0.062
-447.895	34.953	0.192	-0.168
-446.880	169.609	-0.158	0.225
-445.865	377.195	-0.116	0.237
-444.851	-13.665	0.156	-0.101
-443.836	26.445	0.198	-0.165
-442.822	232.477	-0.046	0.076
-441.807	800.000	-0.066	-0.198
-440.792	93.897	0.100	0.113
-439.778	663.079	0.192	-0.494
-438.763	48.843	-0.158	0.148
-437.749	31.924	-0.178	0.153
-436.734	200.357	-0.135	0.207
-435.719	-200.000	-0.024	0.165
-434.705	-148.319	0.221	0.018
-433.690	800.000	-0.034	0.111
-432.676	352.541	0.079	-0.157
-431.661	24.321	0.207	0.171
-430.646	-200.000	0.015	0.249
-429.632	42.421	0.147	-0.134
-428.617	519.324	0.100	-0.233
-427.603	-200.000	-0.013	0.389
-426.588	-200.000	-0.014	0.279
-425.573	-90.092	-0.176	0.051
-424.559	134.449	0.109	-0.141
-423.544	61.878	0.311	0.309
-422.530	506.748	-0.080	-0.186
-421.515	800.000	0.158	0.483
-420.500	-139.694	0.239	-0.025
-419.486	-48.632	-0.201	-0.097
-418.471	-83.625	-0.279	0.089
-417.457	-200.000	-0.094	0.520
-416.442	800.000	-0.054	0.172
-415.428	-161.291	0.436	0.023
-414.413	-200.000	0.022	-0.144
-413.398	-59.278	-0.117	0.050
-412.384	134.164	0.061	0.079
-411.369	71.534	0.098	0.101
-410.355	-11.235	0.165	0.108
-409.340	-200.000	0.011	-0.117
-408.325	76.140	0.015	-0.016
-407.311	64.069	0.047	-0.048
-406.296	800.000	-0.104	-0.338
-405.282	800.000	-0.061	0.229
-404.267	220.963	-0.181	-0.290
-403.252	-141.359	0.349	0.035
-402.238	-87.407	0.228	-0.069
-401.223	358.426	-0.079	0.158
-400.209	10.392	0.226	0.172
-399.194	251.088	0.026	0.045
-398.179	-200.000	0.018	-0.201
-397.165	-128.103	-0.159	-0.023
-396.150	89.968	-0.065	0.072
-395.136	-67.524	-0.211	-0.083
-394.121	-118.121	-0.170	0.030
-393.106	800.000	-0.040	-0.117
-392.092	-126.755	-0.268	-0.040
-391.077	4.879	-0.135	-0.099
-390.063	-43.067	0.117	0.059
-389.048	-47.643	0.408	0.198
-388.033	-200.000	-0.043	0.249
-387.019	47.592	-0.144	0.134
-386.004	350.815	-0.202	0.399
-384.990	800.000	-0.056	-0.156
-383.975	-198.784	0.175	0.001
-382.960	-200.000	0.011	0.216
-381.946	-104.879	-0.017	-0.004
-380.931	-127.760	-0.109	0.016
-379.917	-132.199	-0.193	0.025
-378.902	-46.134	0.234	0.115
-377.888	109.282	0.092	-0.109
-376.873	-200.000	-0.039	-0.202
-375.858	-200.000	0.030	-0.292
-374.844	4.809	-0.115	0.084
-373.829	122.685	-0.049	-0.061
-372.815	268.265	0.153	0.268
-371.800	394.769	0.110	-0.228
-370.785	-200.000	-0.036	0.171
-369.771	-200.000	0.013	-0.318
-368.756	319.920	-0.067	-0.126
-367.742	304.471	-0.093	-0.172
-366.727	-6.360	-0.379	-0.258
-365.712	306.940	-0.020	0.037
-364.698	146.287	0.139	-0.186
-363.683	-200.000	-0.002	-0.077
-362.669	54.321	-0.116	-0.111
-361.654	-0.949	-0.075	-0.053
-360.639	-149.867	-0.241	0.019
-359.625	-50.120	0.288	-0.136
-358.610	-90.282	-0.588	0.170
-357.596	699.495	-0.140	-0.368
-356.581	-125.637	0.140	-0.021
-355.566	57.771	-0.040	-0.039
-354.552	-145.515	-0.342	-0.031
-353.537	-70.106	0.279	0.106
-352.523	-117.163	0.363	-0.066
-351.508	-11.902	-0.041	0.027
-350.493	-12.651	0.209	0.136
-349.479	-75.126	0.200	0.071
-348.464	-145.198	0.310	-0.028
-347.450	170.088	-0.251	0.358
-346.435	400.311	0.170	-0.356
-345.420	-82.960	-0.114	-0.037
-344.406	-105.476	-0.097	0.022
-343.391	259.550	0.025	-0.044
-342.377	800.000	0.132	-0.364
-341.362	-134.788	0.075	-0.009
-340.348	107.350	0.289	0.342
-339.333	484.577	0.078	-0.178
-338.318	-142.772	0.174	0.017
-337.304	-26.824	-0.187	-0.109
-336.289	68.202	-0.050	0.051
-335.275	-100.774	-0.228	-0.056
-334.260	-85.257	-0.138	-0.043
-333.245	-72.359	0.123	-0.045
-332.231	83.966	-0.166	0.181
-331.216	-200.000	-0.008	0.136
-330.202	-26.098	0.179	-0.105
-329.187	12.955	0.147	-0.113
-328.172	-113.730	-0.284	0.055
-327.158	-16.201	-0.370	-0.234
-326.143	523.882	-0.117	-0.273
-325.129	-45.282	0.122	0.060
-324.114	800.000	-0.015	0.050
-323.099	-200.000	0.000	0.192
-322.085	46.473	0.152	-0.140
-321.070	-200.000	0.038	0.293
-320.056	121.238	-0.050	-0.062
-319.041	-200.000	0.019	0.232
-318.026	-200.000	-0.000	-0.070
-317.012	-18.246	-0.087	-0.054
-315.997	-21.304	-0.140	-0.085
-314.983	-38.974	0.116	-0.061
-313.968	-200.000	-0.001	-0.046
-312.953	72.611	-0.295	-0.306
-311.939	-158.320	0.414	0.024
-310.924	-200.000	-0.042	0.397
-309.910	8.433	-0.059	-0.044
-308.895	800.000	-0.057	-0.171
-307.880	800.000	-0.009	-0.026
-306.866	-134.412	0.200	0.024
-305.851	253.506	-0.052	-0.089
-304.837	-200.000	-0.020	0.209
-303.822	-120.431	-0.101	-0.017
-302.807	83.315	0.100	-0.108
-301.793	-200.000	-0.012	0.381
-300.778	224.088	-0.152	0.244
-299.764	-13.345	0.100	0.065
-298.749	-156.401	-0.209	-0.013
-297.735	800.000	-0.063	-0.219
-296.720	-200.000	0.001	-0.141
-295.705	-12.462	-0.067	-0.043
-294.691	-136.055	0.170	-0.020
-293.676	64.027	0.378	0.378
-292.662	-149.742	0.092	-0.007
-291.647	-200.000	-0.094	-0.457
-290.632	-200.000	-0.022	0.098
-289.618	185.156	-0.150	0.221
-288.603	-200.000	-0.022	0.185
-287.589	-119.933	-0.176	0.030
-286.574	206.056	0.101	-0.157
-285.559	-200.000	-0.391	0.001
-284.545	-200.000	-0.004	0.129
-283.530	800.000	-0.023	0.099
-282.516	93.957	-0.121	0.136
-281.501	-65.088	0.325	-0.130
-280.486	-200.000	0.025	0.112
-279.472	800.000	-0.042	-0.128
-278.457	-62.920	0.104	-0.043
-277.443	-10.006	-0.224	0.148
-276.428	48.305	0.083	0.077
-275.413	-76.124	0.084	0.029
-274.399	240.708	-0.134	0.221
-273.384	-200.000	-0.012	-0.172
-272.370	-140.160	-0.311	0.032
-271.355	413.723	0.103	0.217
-270.340	-71.265	-0.150	0.056
-269.326	-76.996	-0.191	0.066
-268.311	281.469	-0.036	-0.064
-267.297	-106.134	0.294	0.065
-266.282	45.682	-0.075	0.069
-265.267	-81.169	-0.517	-0.170
-264.253	-60.509	0.388	0.164
-263.238	53.599	-0.319	0.303
-262.224	800.000	0.086	-0.334
-261.209	-72.016	-0.096	-0.036
-260.195	-108.882	-0.126	0.027
-259.180	-36.407	0.126	0.067
-258.165	590.089	0.066	0.162
-257.151	-141.202	0.305	-0.031
-256.136	-200.000	-0.038	-0.213
-255.122	121.259	-0.271	-0.335
-254.107	-200.000	0.003	-0.238
-253.092	-162.090	0.156	-0.008
-252.078	-200.000	0.058	0.331
-251.063	-118.259	0.443	0.078
-250.049	-18.717	-0.056	-0.034
-249.034	-68.644	0.213	0.082
-248.019	-113.089	-0.283	0.055
-247.005	622.844	0.015	0.038
-245.990	-200.000	0.021	0.318
-244.976	-132.901	0.124	0.016
-243.961	-119.342	0.092	-0.016
-242.946	62.367	0.260	0.258
-241.932	-35.274	0.090	-0.049
-240.917	117.931	0.048	-0.059
-239.903	-91.980	0.150	0.042
-238.888	-200.000	-0.024	-0.166
-237.873	-200.000	0.005	-0.078
-236.859	-48.003	-0.106	-0.051
-235.844	-121.233	0.351	-0.058
-234.830	165.487	0.118	-0.166
-233.815	668.076	-0.084	0.215
-232.800	-57.220	0.091	-0.040
-231.786	556.044	0.008	-0.018
-230.771	-147.834	0.366	-0.030
-229.757	20.870	-0.094	-0.076
-228.742	398.487	-0.180	-0.374
-227.727	84.361	0.114	-0.124
-226.713	-200.000	-0.114	0.591
-225.698	-102.665	0.202	0.048
-224.684	-108.818	-0.168	-0.036
-223.669	339.019	-0.065	0.125
-222.655	-200.000	0.017	0.317
-221.640	25.026	-0.252	0.207
-220.625	-135.983	0.035	0.004
-219.611	184.707	0.218	0.320
-218.596	-114.364	-0.314	0.060
-217.582	167.050	-0.086	-0.121
-216.567	800.000	0.052	-0.195
-215.552	236.520	0.105	-0.172
-214.538	-43.940	-0.303	0.151
-213.523	-66.815	0.399	-0.156
-212.509	-41.360	0.334	0.171
-211.494	-200.000	-0.011	-0.165
-210.479	-55.058	-0.501	-0.224
-209.465	63.353	-0.042	-0.041
-208.450	132.806	0.117	-0.150
-207.436	-152.903	0.626	0.044
-206.421	-114.303	0.119	0.023
-205.406	-200.000	0.043	-0.290
-204.392	-123.035	-0.079	0.013
-203.377	244.770	-0.150	0.249
-202.363	548.513	-0.009	-0.020
-201.348	406.412	-0.186	0.388
-200.333	800.000	0.086	-0.365
-199.319	-178.122	-0.181	0.004
-198.304	-200.000	0.045	0.237
-197.290	82.883	-0.203	-0.219
-196.275	26.205	0.164	0.136
-195.260	82.030	-0.335	-0.360
-194.246	478.850	0.172	0.385
-193.231	401.046	0.165	-0.343
-192.217	40.304	0.099	-0.088
-191.202	79.107	-0.250	0.266
-190.187	-7.298	-0.240	0.161
-189.173	74.883	0.247	0.258
-188.158	193.274	0.152	0.227
-187.144	-70.037	0.117	0.044
-186.129	-200.000	0.024	-0.213
-185.114	-200.000	0.068	0.334
-184.100	800.000	-0.017	-0.063
-183.085	-7.252	-0.379	-0.254
-182.071	57.031	-0.323	-0.311
-181.056	332.479	-0.059	-0.112
-180.042	337.997	0.104	0.201
-179.027	2.981	0.244	0.176
-178.012	33.845	0.151	-0.130
-176.998	-30.309	-0.250	-0.141
-175.983	-116.765	-0.187	-0.034
-174.969	213.898	0.102	0.160
-173.954	-24.116	-0.155	-0.091
-172.939	-200.000	-0.011	0.089
-171.925	-55.464	-0.168	-0.075
-170.910	-12.890	-0.422	-0.272
-169.896	-155.708	-0.060	-0.004
-168.881	294.797	-0.089	-0.162
-167.866	-67.305	0.118	0.046
-166.852	-200.000	-0.000	0.112
-165.837	-54.239	0.194	-0.087
-164.823	-77.090	-0.253	-0.087
-163.808	170.055	0.107	0.151
-162.793	37.381	-0.318	-0.279
-161.779	94.385	0.152	-0.171
-160.764	-200.000	-0.052	0.300
-159.750	-200.000	-0.064	-0.291
-158.735	175.215	-0.039	-0.057
-157.720	-31.305	0.277	-0.154
-156.706	41.981	-0.046	-0.041
-155.691	81.053	-0.047	-0.051
-154.677	-50.266	0.098	-0.046
-153.662	-200.000	-0.015	0.163
-152.647	-39.709	-0.034	0.017
-151.633	407.872	-0.100	0.208
-150.618	-53.758	0.256	-0.116
-149.604	-59.880	0.124	-0.052
-148.589	-134.254	-0.073	0.009
-147.574	-169.860	0.211	-0.007
-146.560	-124.354	-0.086	0.013
-145.545	0.739	0.222	0.157
-144.531	800.000	-0.047	-0.170
-143.516	-129.888	0.241	-0.033
-142.502	-17.509	0.144	-0.089
-141.487	-200.000	-0.026	-0.115
-140.472	-73.073	0.237	-0.086
-139.458	-142.304	0.254	-0.025
-138.443	-9.901	-0.212	0.139
-137.429	-183.728	-0.163	-0.003
-136.414	-63.582	0.460	0.186
-135.399	-128.129	-0.179	-0.025
-134.385	800.000	0.042	0.151
-133.370	-111.138	0.307	0.062
-132.356	45.244	-0.216	0.197
-131.341	150.414	0.026	-0.035
-130.326	800.000	0.089	-0.291
-129.312	513.923	-0.025	0.058
-128.297	-17.461	0.301	-0.187
-127.283	-13.760	-0.146	0.094
-126.268	800.000	-0.067	0.244
-125.253	-31.968	0.234	0.129
-124.239	-200.000	0.007	-0.102
-123.224	-200.000	0.015	0.108
-122.210	251.654	-0.011	0.018
-121.195	-200.000	0.009	0.082
-120.180	-200.000	0.009	-0.100
-119.166	-119.828	-0.139	-0.024
-118.151	24.861	0.096	-0.079
-117.137	56.844	-0.090	0.087
-116.122	123.840	-0.134	-0.166
-115.107	-200.000	-0.027	-0.140
-114.093	165.729	0.147	-0.205
-113.078	-93.721	0.185	-0.050
-112.064	800.000	-0.069	0.218
-111.049	-65.259	0.339	-0.135
-110.034	88.977	-0.035	-0.038
-109.020	629.541	0.055	0.137
-108.005	-19.021	0.129	-0.079
-106.991	729.142	0.113	0.297
-105.976	-200.000	-0.058	-0.525
-104.962	800.000	0.029	-0.088
-103.947	790.108	-0.074	0.200
-102.932	-68.426	0.224	0.086
-101.918	-92.681	-0.021	0.006
-100.903	800.000	0.032	0.112
-99.889	31.472	0.074	0.063
-98.874	369.536	-0.126	0.251
-97.859	-128.653	-0.164	0.023
-96.845	800.000	0.079	0.253
-95.830	-134.039	0.093	-0.011
-94.816	-131.787	-0.261	-0.034
-93.801	-200.000	0.009	0.112
-92.786	-123.704	0.283	0.044
-91.772	658.617	0.063	0.160
-90.757	-200.000	0.015	-0.165
-89.743	466.787	-0.165	0.365
-88.728	-116.003	0.187	0.034
-87.713	475.612	-0.161	0.359
-86.699	350.487	0.075	0.147
-85.684	-3.485	0.209	0.144
-84.670	-200.000	0.033	0.241
-83.655	800.000	-0.069	0.286
-82.640	54.056	-0.295	0.280
-81.626	139.283	0.191	0.247
-80.611	800.000	-0.021	0.088
-79.597	-137.581	-0.328	-0.036
-78.582	-81.783	0.546	-0.176
-77.567	-200.000	0.005	-0.130
-76.553	328.630	0.066	-0.126
-75.538	-147.673	0.209	0.017
-74.524	-200.000	0.003	0.017
-73.509	800.000	0.076	-0.207
-72.494	62.592	0.114	-0.112
-71.480	-200.000	-0.041	0.468
-70.465	-39.675	-0.484	0.249
-69.451	-122.371	-0.348	-0.056
-68.436	29.714	0.232	-0.195
-67.422	199.495	-0.069	0.104
-66.407	800.000	-0.078	0.265
-65.392	-200.000	-0.092	0.420
-64.378	255.927	0.146	-0.246
-63.363	-75.311	-0.053	0.018
-62.349	-43.547	-0.261	0.130
-61.334	181.530	-0.540	-0.783
-60.319	125.453	0.320	0.397
-59.305	-200.000	-0.165	-0.919
-58.290	448.506	0.673	1.460
-57.276	388.402	0.743	1.514
-56.261	-200.000	100.221	593.599
-55.246	620.708	1421.048	3519.780
-54.232	180.364	2658.682	3841.152
-53.217	113.535	2327.747	2783.488
-52.203	43.158	1934.956	1739.026
-51.188	36.790	1720.621	1497.291
-50.173	33.969	1675.868	1436.995
-49.159	51.853	1726.245	1617.763
-48.144	54.600	1742.825	1654.266
-47.130	36.441	1698.112	1474.804
-46.115	33.515	1683.326	1439.717
-45.100	33.416	1678.269	1434.587
-44.086	33.357	1676.081	1432.212
-43.071	33.329	1673.112	1429.403
-42.057	33.256	1670.996	1426.991
-41.042	33.380	1668.581	1425.807
-40.027	33.389	1666.319	1423.882
-39.013	33.326	1664.533	1421.829
-37.998	33.312	1663.027	1420.378
-36.984	33.401	1661.433	1419.629
-35.969	33.518	1660.199	1419.394
-34.954	33.531	1658.501	1417.982
-33.940	33.563	1656.502	1416.456
-32.925	33.517	1654.907	1414.696
-31.911	33.495	1652.836	1412.706
-30.896	33.556	1651.058	1411.579
-29.881	33.446	1649.664	1409.518
-28.867	33.469	1647.581	1407.850
-27.852	33.540	1646.241	1407.177
-26.838	33.523	1644.416	1405.435
-25.823	33.504	1643.455	1404.420
-24.809	33.552	1641.524	1403.068
-23.794	33.599	1640.000	1402.053
-22.779	33.513	1638.642	1400.203
-21.765	33.485	1636.989	1398.532
-20.750	33.496	1635.380	1397.182
-19.736	33.492	1634.158	1396.049
-18.721	33.602	1632.314	1395.233
-17.706	33.457	1630.960	1392.953
-16.692	33.418	1629.700	1391.531
-15.677	33.538	1627.999	1390.903
-14.663	33.564	1626.463	1389.731
-13.648	33.586	1625.312	1388.849
-12.633	33.493	1623.939	1386.942
-11.619	33.458	1622.332	1385.262
-10.604	33.554	1620.843	1384.637
-9.590	33.594	1619.409	1383.649
-8.575	33.548	1618.216	1382.237
-7.560	33.547	1616.899	1381.050
-6.546	33.581	1615.876	1380.373
-5.531	33.478	1614.895	1378.727
-4.517	33.554	1613.408	1377.953
-3.502	33.530	1612.488	1376.943
-2.487	33.571	1610.725	1375.678
-1.473	33.457	1599.739	1365.417
-0.458	31.268	1580.932	1333.699
0.556	26.130	1583.018	1304.888
1.571	24.212	1608.126	1311.369
2.586	23.716	1621.973	1318.861
3.600	20.497	1566.145	1250.231
4.615	10.483	1450.732	1090.928
5.629	1.694	1383.444	983.637
6.644	0.242	1374.411	967.807
7.659	0.129	1373.223	966.158
8.673	0.071	1371.883	964.756
9.688	-0.002	1369.870	962.792
10.702	-0.274	1367.408	959.236
11.717	3.097	1373.741	985.214
12.731	13.108	1393.157	1063.824
13.746	21.076	1407.120	1126.029
14.761	22.820	1409.469	1139.071
15.775	23.167	1409.429	1141.177
16.790	23.163	1408.815	1140.553
17.804	23.225	1408.323	1140.454
18.819	23.455	1407.891	1141.483
19.834	23.635	1407.007	1141.829
20.848	23.595	1406.407	1140.981
21.863	23.515	1405.908	1139.963
22.877	23.537	1404.872	1139.161
23.892	23.624	1403.885	1138.819
24.907	23.497	1403.040	1137.215
25.921	23.605	1401.778	1136.787
26.936	23.574	1400.938	1135.805
27.950	23.609	1399.790	1134.996
28.965	23.613	1398.116	1133.569
29.980	23.612	1397.056	1132.598
30.994	23.639	1395.600	1131.492
32.009	23.619	1394.778	1130.601
33.023	23.581	1393.287	1129.046
34.038	23.621	1392.361	1128.453
35.053	23.622	1391.342	1127.534
36.067	23.534	1390.647	1126.308
37.082	23.525	1389.547	1125.261
38.096	23.534	1388.683	1124.524
39.111	23.410	1388.027	1123.103
40.126	23.665	1386.424	1123.323
41.140	23.550	1386.324	1122.412
42.155	23.523	1386.022	1121.897
43.169	23.562	1385.784	1121.853
44.184	23.586	1385.907	1122.007
45.199	23.542	1385.679	1121.446
46.213	23.591	1384.991	1121.097
47.228	23.566	1383.827	1119.901
48.242	23.613	1382.570	1119.076
49.257	23.678	1380.646	1117.828
50.271	23.560	1379.751	1116.263
51.286	23.461	1378.523	1114.548
52.301	23.550	1377.310	1114.032
53.315	23.566	1376.350	1113.253
54.330	23.591	1375.783	1112.852
55.344	23.535	1374.256	1111.169
56.359	23.592	1373.517	1110.832
57.374	23.643	1372.378	1110.129
58.388	23.599	1371.698	1109.205
59.403	23.462	1372.011	1108.505
60.417	23.561	1370.832	1108.074
61.432	23.595	1370.041	1107.546
62.447	23.596	1369.113	1106.704
63.461	23.592	1368.127	1105.786
64.476	23.653	1367.028	1105.181
65.490	23.652	1365.387	1103.751
66.505	23.565	1364.065	1102.044
67.520	23.571	1363.275	1101.346
68.534	23.643	1361.789	1100.493
69.549	23.629	1360.810	1099.515
70.563	23.659	1359.865	1098.844
71.578	23.575	1359.072	1097.586
72.593	23.472	1358.547	1096.424
73.607	23.643	1357.577	1096.605
74.622	23.663	1357.038	1096.196
75.636	23.603	1355.785	1094.718
76.651	23.620	1355.593	1094.570
77.666	23.516	1354.800	1093.189
78.680	23.504	1354.639	1092.890
79.695	23.506	1353.692	1092.039
80.709	23.600	1352.663	1091.693
81.724	23.549	1351.816	1090.599
82.739	23.518	1351.299	1089.897
83.753	23.508	1350.083	1088.757
84.768	23.624	1348.921	1088.437
85.782	23.674	1347.336	1087.367
86.797	23.704	1346.002	1086.377
87.812	23.562	1345.154	1084.729
88.826	23.574	1344.660	1084.304
89.841	23.602	1343.558	1083.496
90.855	23.604	1342.214	1082.328
91.870	23.605	1341.513	1081.670
92.884	23.718	1340.229	1081.230
93.899	23.642	1339.441	1080.033
94.914	23.564	1339.183	1079.258
95.928	23.676	1337.886	1078.798
96.943	23.703	1337.590	1078.624
97.957	23.670	1336.843	1077.727
98.972	23.600	1336.348	1076.806
99.987	23.669	1334.730	1075.825
101.001	23.626	1333.853	1074.765
102.016	23.532	1333.246	1073.614
103.030	23.728	1332.075	1073.756
104.045	23.677	1331.266	1072.706
105.060	23.681	1330.315	1071.867
106.074	23.718	1329.009	1070.941
107.089	23.700	1328.218	1070.100
108.103	23.585	1327.796	1068.976
109.118	23.703	1326.148	1068.261
110.133	23.742	1324.945	1067.432
111.147	23.726	1323.417	1066.013
112.162	23.776	1322.347	1065.358
113.176	23.760	1321.895	1064.801
114.191	23.767	1320.450	1063.582
115.206	23.823	1319.401	1062.979
116.220	23.728	1318.361	1061.484
117.235	23.624	1318.001	1060.479
118.249	23.695	1316.963	1059.973
119.264	23.667	1315.643	1058.649
120.279	23.804	1314.914	1058.785
121.293	23.722	1314.437	1057.819
122.308	23.717	1313.338	1056.808
123.322	23.821	1312.473	1056.640
124.337	23.787	1311.493	1055.554
125.352	23.803	1310.472	1054.736
126.366	23.774	1309.814	1053.941
127.381	23.777	1308.478	1052.790
128.395	23.780	1307.656	1052.052
129.410	23.763	1307.020	1051.349
130.424	23.792	1306.027	1050.627
131.439	23.768	1305.573	1050.028
132.454	23.600	1304.911	1048.410
133.468	23.745	1303.878	1048.341
134.483	23.814	1303.523	1048.373
135.497	23.719	1302.654	1047.020
136.512	23.811	1301.711	1046.712
137.527	23.766	1300.104	1045.062
138.541	23.732	1298.774	1043.700
139.556	23.640	1297.981	1042.432
140.570	23.755	1296.980	1042.211
141.585	23.728	1295.581	1040.836
142.600	23.726	1294.439	1039.810
143.614	23.811	1293.350	1039.342
144.629	23.667	1292.881	1038.033
145.643	23.633	1292.031	1037.058
146.658	23.659	1290.541	1035.924
147.673	23.641	1289.808	1035.141
148.687	23.643	1288.627	1034.108
149.702	23.622	1287.440	1032.945
150.716	23.706	1286.246	1032.386
151.731	23.686	1285.790	1031.812
152.746	23.571	1284.826	1030.275
153.760	23.771	1283.226	1030.060
154.775	23.856	1281.889	1029.390
155.789	23.792	1281.297	1028.453
156.804	23.706	1280.167	1026.961
157.819	23.725	1279.573	1026.502
158.833	23.777	1278.934	1026.200
159.848	23.852	1278.391	1026.101
160.862	23.847	1277.275	1025.089
161.877	23.675	1276.959	1023.751
162.892	23.715	1276.097	1023.204
163.906	23.750	1275.120	1022.527
164.921	23.848	1274.509	1022.510
165.935	23.808	1273.564	1021.434
166.950	23.836	1272.687	1020.798
167.964	23.880	1272.272	1020.628
168.979	23.789	1271.789	1019.630
169.994	23.924	1271.240	1019.877
171.008	23.854	1270.848	1019.069
172.023	23.842	1269.905	1018.150
173.037	23.883	1269.051	1017.610
174.052	24.017	1268.139	1017.559
175.067	23.926	1267.312	1016.282
176.081	24.019	1266.572	1016.130
177.096	23.982	1265.572	1015.028
178.110	23.714	1265.110	1013.037
179.125	23.841	1264.031	1012.813
180.140	23.909	1262.722	1012.057
181.154	23.895	1261.527	1010.931
182.169	23.882	1260.586	1010.013
183.183	23.908	1259.812	1009.454
184.198	23.818	1259.106	1008.286
185.213	23.899	1257.628	1007.472
186.227	23.918	1256.814	1006.838
187.242	24.060	1255.721	1006.679
188.256	24.017	1255.214	1005.937
189.271	23.999	1254.526	1005.199
190.286	23.908	1253.670	1003.908
191.300	24.018	1253.021	1003.919
192.315	24.024	1252.201	1003.207
193.329	23.861	1252.291	1002.273
194.344	23.935	1251.650	1002.086
195.359	23.953	1251.003	1001.580
196.373	23.885	1251.008	1001.116
197.388	23.895	1250.268	1000.489
198.402	23.795	1250.191	999.780
199.417	23.804	1249.633	999.294
200.432	23.946	1248.694	999.255
201.446	23.984	1247.804	998.663
202.461	23.909	1247.541	997.947
203.475	23.935	1246.253	996.973
204.490	23.968	1245.451	996.428
205.504	23.887	1244.728	995.310
206.519	23.983	1243.565	994.826
207.534	24.046	1242.351	994.121
208.548	23.936	1241.847	993.013
209.563	23.998	1240.898	992.514
210.577	24.098	1240.196	992.423
211.592	23.943	1239.520	990.930
212.607	24.005	1238.818	990.624
213.621	23.995	1238.063	989.877
214.636	24.086	1236.962	989.415
215.650	24.132	1236.188	988.963
216.665	24.092	1234.870	987.601
217.680	24.129	1233.939	986.975
218.694	24.080	1233.376	986.163
219.709	24.104	1232.891	985.822
220.723	24.029	1232.305	984.851
221.738	24.070	1231.376	984.251
222.753	23.972	1230.223	982.699
223.767	24.035	1229.853	982.667
224.782	24.036	1229.728	982.484
225.796	24.053	1229.358	982.195
226.811	24.170	1228.290	981.897
227.826	24.170	1227.668	981.313
228.840	24.240	1226.893	980.995
229.855	24.113	1226.582	979.957
230.869	24.176	1225.632	979.459
231.884	24.142	1225.064	978.730
232.899	24.185	1224.122	978.130
233.913	24.213	1223.410	977.627
234.928	24.263	1223.130	977.592
235.942	24.255	1222.503	976.960
236.957	24.192	1221.680	975.869
237.972	24.149	1221.033	975.033
238.986	24.242	1220.454	974.992
240.001	24.123	1220.261	974.103
241.015	24.354	1219.347	974.548
242.030	24.378	1218.548	973.956
243.045	24.318	1217.716	972.876
244.059	24.357	1217.144	972.543
245.074	24.409	1216.132	971.931
246.088	24.406	1215.297	971.163
247.103	24.382	1214.112	969.999
248.117	24.328	1213.629	969.237
249.132	24.318	1212.823	968.453
250.147	24.389	1212.324	968.355
251.161	24.477	1211.222	967.865
252.176	24.431	1210.469	966.928
253.190	24.472	1210.054	966.730
254.205	24.373	1209.736	965.856
255.220	24.460	1208.720	965.433
256.234	24.419	1208.477	964.927
257.249	24.367	1207.985	964.169
258.263	24.356	1207.453	963.603
259.278	24.358	1207.064	963.218
260.293	24.376	1206.238	962.566
261.307	24.461	1205.470	962.328
262.322	24.362	1205.067	961.387
263.336	24.486	1204.338	961.389
264.351	24.410	1203.643	960.343
265.366	24.427	1203.302	960.076
266.380	24.462	1202.519	959.554
267.395	24.500	1201.692	959.010
268.409	24.359	1201.450	957.975
269.424	24.521	1200.537	958.036
270.439	24.447	1200.304	957.367
271.453	24.512	1199.481	956.975
272.468	24.603	1198.250	956.396
273.482	24.499	1197.576	955.213
274.497	24.583	1197.083	955.189
275.512	24.576	1196.934	954.945
276.526	24.530	1196.476	954.252
277.541	24.551	1195.684	953.648
278.555	24.637	1194.870	953.373
279.570	24.585	1193.772	952.134
280.585	24.564	1193.124	951.421
281.599	24.632	1192.399	951.118
282.614	24.633	1191.441	950.277
283.628	24.630	1190.327	949.288
284.643	24.695	1189.385	948.799
285.657	24.632	1188.780	947.899
286.672	24.642	1188.036	947.276
287.687	24.699	1186.882	946.573
288.701	24.657	1186.896	946.277
289.716	24.597	1185.924	945.102
290.730	24.757	1185.217	945.301
291.745	24.725	1184.658	944.600
292.760	24.676	1183.973	943.715
293.774	24.685	1183.467	943.274
294.789	24.687	1183.248	943.024
295.803	24.712	1182.207	942.243
296.818	24.770	1181.649	942.024
297.833	24.808	1181.126	941.719
298.847	24.837	1180.050	940.931
299.862	24.771	1179.710	940.231
300.876	24.744	1178.946	939.398
301.891	24.861	1178.362	939.461
302.906	24.879	1177.245	938.584
303.920	24.807	1176.961	937.899
304.935	24.869	1176.170	937.507
305.949	24.915	1175.623	937.228
306.964	24.870	1175.162	936.544
307.979	24.908	1174.487	936.122
308.993	24.942	1173.845	935.703
310.008	24.991	1172.754	935.008
311.022	24.867	1172.499	934.075
312.037	24.909	1171.531	933.439
313.052	24.813	1170.927	932.375
314.066	24.933	1169.876	932.084
315.081	24.891	1169.339	931.352
316.095	24.888	1168.712	930.754
317.110	25.001	1167.603	930.376
318.125	25.000	1166.912	929.738
319.139	24.912	1166.920	929.208
320.154	24.928	1166.095	928.551
321.168	25.034	1165.718	928.718
322.183	25.071	1164.449	927.814
323.197	24.976	1164.127	926.983
324.212	25.059	1163.509	926.842
325.227	25.064	1163.020	926.394
326.241	25.031	1162.659	925.854
327.256	24.933	1162.130	924.845
328.270	24.957	1161.642	924.496
329.285	25.075	1160.051	923.761
330.300	25.081	1159.457	923.235
331.314	25.258	1157.962	922.875
332.329	25.121	1157.822	921.974
333.343	25.232	1156.702	921.572
334.358	25.206	1156.148	920.916
335.373	25.190	1155.597	920.311
336.387	25.189	1155.295	919.988
337.402	25.185	1154.186	919.001
338.416	25.186	1153.713	918.546
339.431	25.288	1153.114	918.513
340.446	25.290	1152.381	917.856
341.460	25.259	1151.716	917.087
342.475	25.327	1151.449	917.139
343.489	25.378	1149.823	916.026
344.504	25.226	1149.219	914.688
345.519	25.185	1148.587	913.894
346.533	25.305	1147.684	913.706
347.548	25.319	1146.778	912.979
348.562	25.256	1146.240	912.147
349.577	25.354	1145.630	912.078
350.592	25.328	1144.638	911.077
351.606	25.313	1144.102	910.491
352.621	25.325	1143.181	909.741
353.635	25.243	1143.297	909.334
354.650	25.415	1141.809	908.943
355.665	25.403	1141.555	908.597
356.679	25.422	1141.229	908.355
357.694	25.319	1140.671	907.310
358.708	25.438	1139.609	906.984
359.723	25.340	1139.211	906.097
360.738	25.409	1138.469	905.772
361.752	25.339	1137.862	904.856
362.767	25.551	1137.111	905.249
363.781	25.429	1136.853	904.346
364.796	25.513	1136.408	904.334
365.810	25.539	1135.467	903.639
366.825	25.576	1134.876	903.276
367.840	25.447	1134.635	902.355
368.854	25.572	1133.513	902.007
369.869	25.568	1132.839	901.373
370.883	25.617	1132.384	901.178
371.898	25.604	1131.512	900.338
372.913	25.614	1131.300	900.140
373.927	25.627	1130.354	899.371
374.942	25.701	1129.867	899.275
375.956	25.611	1129.545	898.489
376.971	25.669	1128.787	898.093
377.986	25.594	1128.697	897.568
379.000	25.729	1127.714	897.380
380.015	25.709	1127.604	897.116
381.029	25.650	1126.986	896.250
382.044	25.748	1125.685	895.625
383.059	25.731	1125.290	895.145
384.073	25.707	1124.795	894.552
385.088	25.756	1123.691	893.841
386.102	25.750	1123.025	893.201
387.117	25.700	1122.132	892.164
388.132	25.648	1121.130	891.033
389.146	25.764	1120.183	890.776
390.161	25.802	1119.777	890.559
391.175	25.806	1119.407	890.207
392.190	25.803	1118.521	889.409
393.205	25.740	1117.782	888.433
394.219	25.740	1117.043	887.766
395.234	25.864	1116.446	887.822
396.248	25.898	1115.095	886.840
397.263	25.837	1114.703	886.149
398.278	25.885	1114.338	886.014
399.292	25.999	1113.846	886.107
400.307	26.072	1112.599	885.396
401.321	25.883	1112.537	884.339
402.336	25.835	1111.637	883.308
403.350	25.939	1111.284	883.462
404.365	25.972	1110.330	882.788
405.380	26.042	1109.424	882.332
406.394	26.045	1108.468	881.504
407.409	26.084	1107.783	881.071
408.423	26.018	1107.646	880.565
409.438	26.053	1106.784	879.971
410.453	26.110	1105.883	879.454
411.467	26.035	1105.508	878.713
412.482	25.996	1104.980	878.026
413.496	26.125	1103.866	877.690
414.511	26.131	1103.381	877.257
415.526	26.061	1102.957	876.505
416.540	26.097	1102.513	876.244
417.555	26.026	1102.038	875.449
418.569	26.089	1101.604	875.330
419.584	26.121	1101.303	875.170
420.599	26.185	1100.387	874.675
421.613	146.576	1402.815	1793.767
422.628	135.928	1446.861	1793.864
