DTS Sentinel unit serial number:	SN413079Multiplexer serial number:	ORYXHardware model number:	OX4-SRSoftware version number:	ORYX F/W v4.00 Oryx Data Collector v3.7.2.0data status	okinstallation	princeton_trtdifferential loss correction	single-endedforward channel	channel 2reverse channel	N/Adate	2019/09/11time	08:57:11forward acquisition time	60.00reverse acquisition time	0.00gamma	496.2192k internal	0.2318k external	0.2318temperature offset calibration	0.9967default loss term (dB/km)	0.3790temperature slope calibration	1.0000multiplexer offset coefficient	1.0000multiplexer slope coefficient	1.0000fibre end	0.00T internal ref (°C)	34.00T ext. ref 1 (°C)	0.08T ext. ref 2 (°C)	30.50length (m)	temperature (°C)	Stokes	anti-Stokes-747.200	199.875	0.186	-0.288
-746.185	-47.952	-0.087	0.043
-745.171	800.000	0.081	-0.280
-744.156	-200.000	-0.002	0.294
-743.142	-87.394	-0.188	0.058
-742.127	-200.000	0.037	0.235
-741.112	485.677	0.153	-0.353
-740.098	-200.000	-0.003	0.188
-739.083	-61.968	0.111	-0.047
-738.069	-45.713	-0.299	-0.150
-737.054	800.000	-0.096	-0.379
-736.039	-3.986	-0.090	0.063
-735.025	684.645	-0.045	-0.118
-734.010	-119.234	0.313	-0.055
-732.996	56.812	-0.198	-0.195
-731.981	-87.117	-0.501	-0.154
-730.966	98.447	-0.182	-0.212
-729.952	-41.016	-0.213	-0.111
-728.937	800.000	0.099	0.290
-727.923	369.021	-0.054	-0.111
-726.908	-41.838	-0.133	-0.069
-725.894	-163.172	-0.205	0.010
-724.879	-5.496	0.140	-0.097
-723.864	191.548	-0.135	-0.206
-722.850	-200.000	-0.000	0.097
-721.835	29.199	0.126	-0.108
-720.821	-200.000	0.010	-0.138
-719.806	800.000	0.063	-0.195
-718.791	800.000	0.078	-0.217
-717.777	-119.426	0.106	-0.019
-716.762	-200.000	0.003	0.033
-715.748	37.263	0.125	-0.112
-714.733	-63.662	-0.298	0.124
-713.718	252.859	0.058	-0.101
-712.704	-20.537	-0.284	-0.176
-711.689	18.382	-0.146	-0.118
-710.675	-126.365	-0.135	-0.020
-709.660	-200.000	0.012	-0.136
-708.645	58.281	0.135	-0.133
-707.631	-77.888	-0.211	0.074
-706.616	-200.000	0.015	-0.347
-705.602	34.482	-0.128	0.113
-704.587	439.717	0.075	-0.166
-703.572	-108.198	-0.060	-0.013
-702.558	389.730	-0.051	0.107
-701.543	-61.440	0.153	0.065
-700.529	71.392	-0.195	0.205
-699.514	-58.376	0.210	-0.092
-698.499	-200.000	-0.040	-0.188
-697.485	692.203	-0.058	0.155
-696.470	106.439	0.237	0.284
-695.456	800.000	-0.070	0.265
-694.441	-136.425	-0.274	0.032
-693.426	-22.963	0.083	-0.051
-692.412	33.193	-0.142	0.125
-691.397	-200.000	-0.020	0.271
-690.383	-167.039	0.162	0.007
-689.368	738.674	0.105	0.285
-688.354	58.268	-0.193	0.191
-687.339	230.400	0.152	0.251
-686.324	800.000	-0.013	-0.037
-685.310	96.069	-0.339	-0.392
-684.295	27.168	0.245	-0.207
-683.281	800.000	0.060	0.208
-682.266	-88.905	-0.346	0.104
-681.251	-7.993	-0.169	0.115
-680.237	692.362	-0.099	-0.263
-679.222	77.177	-0.144	0.154
-678.208	635.837	-0.155	-0.396
-677.193	-176.819	0.591	0.015
-676.178	-42.892	-0.208	-0.107
-675.164	-108.546	-0.380	-0.082
-674.149	-200.000	0.049	-0.252
-673.135	14.070	0.365	-0.287
-672.120	-82.951	0.190	-0.062
-671.105	192.013	-0.053	-0.081
-670.091	800.000	0.070	0.300
-669.076	-96.491	0.253	-0.067
-668.062	69.919	-0.070	-0.073
-667.047	800.000	-0.063	-0.235
-666.032	-91.649	0.143	-0.041
-665.018	45.280	-0.232	-0.216
-664.003	172.217	-0.248	-0.359
-662.989	-200.000	0.007	0.340
-661.974	-42.523	0.094	-0.048
-660.959	12.941	0.142	0.111
-659.945	800.000	0.069	0.215
-658.930	-118.790	-0.310	0.055
-657.916	68.751	0.137	-0.142
-656.901	-91.067	-0.266	-0.077
-655.886	270.745	0.107	0.189
-654.872	148.311	0.206	-0.281
-653.857	52.084	-0.144	0.138
-652.843	-113.125	-0.207	0.041
-651.828	459.117	-0.018	-0.040
-650.814	-148.246	-0.160	-0.013
-649.799	-101.620	0.201	-0.049
-648.784	-200.000	-0.006	0.429
-647.770	-10.136	0.228	0.153
-646.755	-115.479	0.215	-0.041
-645.741	-200.000	0.018	0.099
-644.726	448.323	0.023	-0.052
-643.711	305.559	0.120	-0.224
-642.697	-200.000	-0.033	-0.356
-641.682	106.487	-0.068	0.082
-640.668	38.864	-0.078	0.070
-639.653	307.984	0.069	0.130
-638.638	7.943	0.036	0.027
-637.624	-49.365	-0.210	0.101
-636.609	8.996	0.153	-0.116
-635.595	16.633	-0.078	-0.062
-634.580	233.736	0.220	-0.366
-633.565	125.876	-0.113	0.144
-632.551	5.226	0.120	-0.089
-631.536	41.885	-0.142	-0.130
-630.522	-86.255	0.181	-0.056
-629.507	800.000	-0.071	0.208
-628.492	201.470	0.101	-0.157
-627.478	679.149	-0.041	-0.108
-626.463	-60.114	0.304	0.131
-625.449	-0.722	0.206	-0.147
-624.434	298.109	0.167	-0.309
-623.419	-32.566	0.248	-0.139
-622.405	-200.000	-0.038	0.249
-621.390	-156.288	-0.186	-0.012
-620.376	62.352	0.144	0.145
-619.361	13.068	-0.179	-0.139
-618.346	20.175	-0.202	0.164
-617.332	227.072	0.042	0.069
-616.317	-31.415	-0.179	0.102
-615.303	-200.000	-0.019	-0.228
-614.288	-200.000	-0.005	-0.150
-613.273	36.452	0.112	-0.099
-612.259	-26.865	-0.145	-0.085
-611.244	-123.375	0.118	0.019
-610.230	424.496	-0.122	0.264
-609.215	-37.257	-0.191	-0.103
-608.201	800.000	0.092	-0.258
-607.186	-123.182	-0.060	-0.010
-606.171	60.311	0.142	-0.142
-605.157	-105.545	0.177	0.040
-604.142	-200.000	-0.014	-0.171
-603.128	-54.707	0.012	0.006
-602.113	-105.687	-0.461	-0.105
-601.098	-133.777	-0.317	0.040
-600.084	-89.912	0.201	0.059
-599.069	-28.228	-0.158	-0.092
-598.055	269.072	0.135	-0.239
-597.040	-28.371	0.138	-0.080
-596.025	-200.000	-0.044	0.259
-595.011	85.040	-0.174	0.192
-593.996	-200.000	-0.011	-0.256
-592.982	1.526	0.332	-0.240
-591.967	80.143	-0.062	-0.067
-590.952	800.000	0.027	0.098
-589.938	34.646	-0.079	-0.070
-588.923	328.532	0.141	-0.273
-587.909	280.906	0.036	0.064
-586.894	-200.000	-0.061	0.295
-585.879	-25.107	-0.119	0.071
-584.865	-200.000	-0.000	-0.212
-583.850	-166.666	-0.264	0.011
-582.836	319.716	-0.065	-0.124
-581.821	130.305	0.054	0.069
-580.806	800.000	-0.061	-0.219
-579.792	-108.162	-0.185	0.040
-578.777	254.819	-0.033	-0.057
-577.763	-117.796	-0.298	-0.054
-576.748	105.756	-0.071	0.085
-575.733	-200.000	0.003	0.335
-574.719	-28.513	-0.398	-0.231
-573.704	800.000	0.129	-0.385
-572.690	-137.602	0.128	0.015
-571.675	64.920	0.064	0.065
-570.661	-200.000	-0.002	-0.399
-569.646	33.609	0.203	0.177
-568.631	800.000	0.045	0.132
-567.617	-27.835	0.103	0.060
-566.602	800.000	-0.076	0.284
-565.588	-62.563	-0.161	0.067
-564.573	-200.000	-0.020	-0.137
-563.558	-145.197	0.332	0.030
-562.544	393.880	0.188	-0.393
-561.529	800.000	0.099	-0.358
-560.515	79.567	-0.110	-0.119
-559.500	-81.683	0.251	-0.083
-558.485	-200.000	0.036	-0.378
-557.471	65.880	0.231	-0.235
-556.456	-200.000	-0.021	0.394
-555.442	-200.000	-0.019	0.245
-554.427	-200.000	-0.039	0.476
-553.412	-200.000	0.017	0.083
-552.398	51.166	-0.242	-0.231
-551.383	82.966	0.069	-0.076
-550.369	-123.055	0.176	-0.028
-549.354	-86.479	0.199	0.061
-548.339	-200.000	0.001	-0.196
-547.325	-25.400	0.132	0.078
-546.310	-118.754	0.503	-0.089
-545.296	21.393	-0.062	0.051
-544.281	-200.000	0.054	-0.315
-543.266	-100.690	0.275	-0.068
-542.252	7.609	0.170	-0.128
-541.237	-17.099	0.071	0.045
-540.223	-200.000	-0.033	-0.328
-539.208	37.615	-0.259	0.231
-538.193	118.187	-0.077	0.095
-537.179	471.931	0.032	0.073
-536.164	-79.128	0.074	0.025
-535.150	-200.000	-0.007	-0.244
-534.135	-200.000	-0.007	-0.082
-533.121	-200.000	0.018	-0.172
-532.106	-200.000	0.032	-0.181
-531.091	-106.327	0.106	-0.024
-530.077	800.000	-0.091	-0.256
-529.062	-200.000	-0.046	0.231
-528.048	-200.000	0.026	0.136
-527.033	236.169	-0.083	0.138
-526.018	738.436	-0.069	0.186
-525.004	97.669	0.175	0.202
-523.989	141.673	0.118	0.157
-522.975	0.525	-0.227	-0.163
-521.960	800.000	0.043	0.188
-520.945	-200.000	0.031	0.159
-519.931	-4.499	0.055	-0.038
-518.916	239.922	-0.147	0.246
-517.902	800.000	-0.095	-0.355
-516.887	-200.000	0.044	-0.339
-515.872	-200.000	-0.014	0.087
-514.858	-200.000	0.026	-0.173
-513.843	-13.392	-0.055	0.036
-512.829	-200.000	0.021	-0.198
-511.814	159.275	0.260	-0.362
-510.799	321.970	0.172	-0.328
-509.785	-76.537	-0.164	-0.058
-508.770	800.000	-0.015	0.057
-507.756	-192.189	0.342	-0.003
-506.741	136.506	-0.050	-0.065
-505.726	4.653	0.118	-0.087
-504.712	-24.278	0.063	-0.037
-503.697	-200.000	-0.015	0.133
-502.683	10.628	0.199	0.152
-501.668	74.496	0.065	0.068
-500.653	-165.961	-0.138	-0.006
-499.639	-200.000	0.009	0.120
-498.624	17.323	0.069	0.055
-497.610	111.425	0.135	0.163
-496.595	74.638	-0.121	-0.128
-495.581	800.000	-0.054	-0.163
-494.566	-182.144	-0.369	-0.007
-493.551	-115.910	-0.244	-0.046
-492.537	-26.966	-0.092	0.054
-491.522	-159.272	-0.343	-0.019
-490.508	295.123	-0.207	-0.379
-489.493	-116.555	0.129	0.024
-488.478	150.153	-0.354	-0.482
-487.464	800.000	-0.057	-0.204
-486.449	799.018	-0.049	-0.136
-485.435	301.789	0.022	-0.040
-484.420	-154.996	0.271	0.018
-483.405	-150.886	0.174	0.013
-482.391	-133.926	-0.398	-0.050
-481.376	-21.811	0.279	0.170
-480.362	800.000	-0.011	0.039
-479.347	-200.000	-0.038	-0.210
-478.332	101.735	-0.069	0.081
-477.318	-159.863	-0.275	-0.015
-476.303	-56.174	0.158	0.070
-475.289	578.929	-0.122	-0.300
-474.274	120.402	-0.091	-0.113
-473.259	-68.643	0.063	0.024
-472.245	-138.216	-0.324	0.036
-471.230	-200.000	-0.012	-0.075
-470.216	798.647	0.116	-0.320
-469.201	800.000	0.032	-0.135
-468.186	100.483	-0.045	-0.052
-467.172	800.000	-0.062	-0.259
-466.157	58.957	0.236	0.232
-465.143	-47.201	0.169	0.083
-464.128	-161.285	0.168	-0.009
-463.113	149.045	0.094	0.127
-462.099	318.121	-0.016	0.031
-461.084	-5.349	-0.125	-0.086
-460.070	209.657	-0.100	0.156
-459.055	-169.401	-0.044	0.002
-458.040	800.000	0.041	-0.165
-457.026	-108.055	0.070	-0.015
-456.011	-49.265	0.209	-0.100
-454.997	-4.384	0.193	0.133
-453.982	800.000	0.093	0.298
-452.968	111.054	0.212	0.256
-451.953	51.984	0.034	-0.032
-450.938	69.721	-0.021	-0.022
-449.924	9.308	0.203	0.153
-448.909	209.381	-0.099	0.156
-447.895	800.000	-0.102	-0.315
-446.880	800.000	-0.017	0.057
-445.865	396.780	-0.219	-0.459
-444.851	800.000	0.076	-0.245
-443.836	168.912	-0.154	0.220
-442.822	-92.380	-0.163	-0.046
-441.807	-144.306	-0.285	0.027
-440.792	800.000	-0.047	0.205
-439.778	184.002	0.174	0.258
-438.763	-67.448	-0.085	0.033
-437.749	-200.000	0.031	-0.184
-436.734	111.122	-0.110	0.133
-435.719	165.648	-0.115	0.162
-434.705	-200.000	0.015	0.164
-433.690	155.681	-0.300	-0.414
-432.676	-19.751	0.299	0.185
-431.661	-99.596	-0.108	0.027
-430.646	800.000	0.037	-0.110
-429.632	477.370	0.051	0.115
-428.617	-81.288	-0.198	0.065
-427.603	378.691	-0.159	0.326
-426.588	-159.347	0.368	0.021
-425.573	-118.345	0.053	0.009
-424.559	428.656	0.065	-0.139
-423.544	53.994	0.028	0.027
-422.530	800.000	0.124	-0.420
-421.515	800.000	-0.096	0.271
-420.500	533.569	-0.083	0.195
-419.486	436.337	0.099	-0.216
-418.471	201.466	0.102	0.157
-417.457	-46.562	-0.132	-0.065
-416.442	-200.000	-0.045	0.440
-415.428	269.909	-0.089	-0.156
-414.413	800.000	0.036	0.141
-413.398	108.681	0.266	0.318
-412.384	-89.012	-0.077	-0.023
-411.369	4.753	0.066	0.049
-410.355	-85.306	-0.120	0.037
-409.340	310.608	-0.095	0.177
-408.325	-170.499	-0.052	-0.002
-407.311	-200.000	0.001	-0.015
-406.296	-200.000	0.007	0.319
-405.282	-80.833	-0.360	0.119
-404.267	800.000	-0.016	0.047
-403.252	398.415	0.020	0.041
-402.238	73.725	-0.086	0.090
-401.223	-200.000	-0.017	-0.130
-400.209	-71.967	-0.315	0.117
-399.194	-200.000	0.015	-0.344
-398.179	95.986	-0.198	0.226
-397.165	253.432	0.183	0.312
-396.150	-145.058	0.163	-0.015
-395.136	800.000	-0.093	0.399
-394.121	-8.397	0.155	-0.104
-393.106	-106.054	-0.180	-0.040
-392.092	-103.707	0.108	0.025
-391.077	-44.977	0.276	-0.137
-390.063	-157.554	0.126	0.008
-389.048	-106.573	0.287	0.064
-388.033	-60.701	0.074	-0.031
-387.019	45.812	-0.041	0.038
-386.004	-106.695	-0.169	-0.038
-384.990	691.702	0.104	-0.273
-383.975	-200.000	-0.066	0.340
-382.960	-111.710	0.359	0.073
-381.946	-200.000	0.002	-0.018
-380.931	147.819	0.050	-0.067
-379.917	-114.370	-0.053	0.010
-378.902	27.810	0.158	-0.133
-377.888	-32.188	0.255	-0.142
-376.873	38.144	0.074	-0.066
-375.858	155.259	0.212	-0.291
-374.844	-79.665	0.111	0.037
-373.829	461.396	0.181	0.403
-372.815	-80.819	-0.089	-0.029
-371.800	800.000	-0.062	0.263
-370.785	-200.000	0.096	0.499
-369.771	-200.000	0.012	-0.103
-368.756	229.866	0.174	-0.284
-367.742	-200.000	-0.025	-0.212
-366.727	-200.000	-0.002	0.037
-365.712	-200.000	0.011	0.335
-364.698	-0.133	-0.097	-0.069
-363.683	187.168	-0.165	0.246
-362.669	-132.076	0.245	0.032
-361.654	22.753	-0.129	0.105
-360.639	-56.331	0.119	0.053
-359.625	568.039	-0.227	0.549
-358.610	-119.596	-0.155	-0.027
-357.596	-112.691	0.152	0.030
-356.581	800.000	0.197	0.584
-355.566	-186.054	-0.373	0.005
-354.552	-116.596	0.134	-0.025
-353.537	-200.000	0.042	-0.199
-352.523	34.336	0.162	0.141
-351.508	182.204	0.132	-0.194
-350.493	252.103	-0.083	-0.142
-349.479	144.237	-0.092	0.123
-348.464	-200.000	-0.083	0.412
-347.450	58.909	-0.293	0.287
-346.435	-200.000	0.032	-0.147
-345.420	107.993	0.104	-0.124
-344.406	800.000	-0.038	0.127
-343.391	-146.012	-0.229	-0.020
-342.377	-106.467	-0.053	0.012
-341.362	-165.630	0.120	0.005
-340.348	279.189	-0.143	0.254
-339.333	36.722	0.166	0.146
-338.318	224.943	-0.074	0.120
-337.304	-200.000	0.041	0.194
-336.289	-93.900	-0.277	0.076
-335.275	62.295	0.005	-0.005
-334.260	800.000	-0.048	-0.189
-333.245	800.000	0.063	-0.177
-332.231	-115.904	0.164	0.031
-331.216	602.590	0.104	-0.257
-330.202	-134.953	0.191	-0.023
-329.187	-69.791	-0.168	0.064
-328.172	-200.000	-0.090	0.428
-327.158	132.056	0.091	-0.116
-326.143	49.881	0.126	-0.118
-325.129	-125.810	0.308	0.046
-324.114	-59.594	0.200	-0.085
-323.099	-200.000	-0.009	0.057
-322.085	800.000	-0.058	-0.199
-321.070	-200.000	-0.027	-0.174
-320.056	-89.625	-0.098	-0.029
-319.041	12.964	-0.200	-0.154
-318.026	61.195	-0.240	0.238
-317.012	42.546	-0.258	0.233
-315.997	232.324	0.082	0.133
-314.983	-99.848	0.163	0.041
-313.968	-200.000	0.037	-0.420
-312.953	-56.983	0.304	-0.133
-311.939	800.000	-0.081	-0.317
-310.924	117.134	0.048	-0.058
-309.910	-17.539	0.159	-0.100
-308.895	-200.000	0.025	0.250
-307.880	96.752	-0.274	0.313
-306.866	-97.473	-0.029	-0.007
-305.851	-100.568	-0.052	0.013
-304.837	407.903	0.062	-0.131
-303.822	147.686	0.256	-0.343
-302.807	158.112	0.286	-0.394
-301.793	2.275	-0.186	0.133
-300.778	-200.000	0.003	0.198
-299.764	-14.664	-0.202	0.129
-298.749	-200.000	0.014	0.156
-297.735	-115.681	-0.217	0.041
-296.720	-80.412	-0.226	0.075
-295.705	-38.072	0.064	-0.034
-294.691	-106.341	0.081	-0.018
-293.676	-200.000	0.034	-0.270
-292.662	303.857	0.099	-0.183
-291.647	-109.116	-0.163	0.034
-290.632	-57.366	0.217	0.095
-289.618	-0.948	0.346	0.244
-288.603	348.648	0.083	0.164
-287.589	-200.000	-0.014	-0.132
-286.574	800.000	0.036	0.124
-285.559	154.535	-0.082	-0.112
-284.545	-91.874	-0.235	0.066
-283.530	158.728	-0.153	0.211
-282.516	800.000	-0.066	-0.250
-281.501	-128.007	-0.140	-0.020
-280.486	18.627	0.373	0.297
-279.472	79.937	-0.045	-0.048
-278.457	770.066	-0.067	-0.180
-277.443	-76.771	-0.220	-0.076
-276.428	262.562	0.071	-0.122
-275.413	-200.000	-0.009	-0.276
-274.399	-178.309	0.154	-0.004
-273.384	-200.000	0.041	-0.211
-272.370	19.128	0.070	-0.055
-271.355	152.469	0.276	-0.374
-270.340	50.517	0.077	0.073
-269.326	105.821	-0.084	0.098
-268.311	657.714	-0.017	0.043
-267.297	436.867	-0.037	0.079
-266.282	-61.038	-0.282	-0.119
-265.267	-64.335	0.058	0.024
-264.253	-170.157	-0.325	-0.011
-263.238	123.455	0.039	-0.049
-262.224	37.874	-0.342	0.302
-261.209	-200.000	0.010	0.101
-260.195	-72.540	0.269	-0.099
-259.180	368.104	-0.050	0.100
-258.165	-200.000	0.003	0.123
-257.151	613.165	-0.055	0.137
-256.136	-200.000	0.056	0.280
-255.122	105.832	-0.145	0.170
-254.107	233.244	0.159	-0.260
-253.092	-174.963	-0.193	0.005
-252.078	355.969	-0.042	0.083
-251.063	111.605	0.132	-0.158
-250.049	-91.405	0.186	0.053
-249.034	-143.987	0.045	0.004
-248.019	-200.000	0.012	-0.115
-247.005	387.121	-0.068	0.139
-245.990	-151.177	-0.145	0.011
-244.976	-200.000	0.007	0.192
-243.961	-200.000	0.011	-0.076
-242.946	765.383	0.114	-0.306
-241.932	-166.227	-0.247	0.010
-240.917	-79.261	-0.146	0.049
-239.903	22.687	0.053	0.043
-238.888	6.223	-0.241	-0.178
-237.873	800.000	0.059	0.221
-236.859	-103.013	0.131	0.031
-235.844	267.908	-0.252	0.438
-234.830	-134.572	-0.283	-0.034
-233.815	12.350	-0.183	0.140
-232.800	120.809	-0.053	0.065
-231.786	-126.925	0.204	-0.030
-230.771	-200.000	0.007	-0.113
-229.757	-149.862	-0.073	-0.006
-228.742	73.962	0.082	0.086
-227.727	-62.022	0.262	0.109
-226.713	-27.660	-0.027	0.016
-225.698	-13.755	0.286	0.184
-224.684	-94.478	-0.044	-0.012
-223.669	38.246	0.320	0.283
-222.655	163.222	-0.098	0.137
-221.640	-141.573	-0.147	-0.015
-220.625	73.952	0.245	0.255
-219.611	108.562	0.081	0.096
-218.596	208.699	0.104	0.162
-217.582	-167.050	-0.429	0.017
-216.567	137.926	0.468	0.608
-215.552	376.383	-0.160	0.324
-214.538	5.669	-0.182	-0.134
-213.523	-200.000	-0.050	0.241
-212.509	-28.380	-0.334	-0.191
-211.494	12.473	0.186	-0.143
-210.479	242.044	-0.108	0.179
-209.465	-20.030	-0.148	0.090
-208.450	-156.548	-0.471	-0.029
-207.436	800.000	-0.130	-0.368
-206.421	800.000	0.041	-0.169
-205.406	32.429	-0.205	-0.175
-204.392	800.000	-0.110	0.334
-203.377	188.953	0.067	-0.099
-202.363	-29.715	0.126	0.071
-201.348	-200.000	0.016	-0.176
-200.333	800.000	0.069	-0.240
-199.319	146.749	0.056	-0.075
-198.304	291.900	0.195	0.352
-197.290	-137.449	-0.262	0.029
-196.275	-200.000	0.033	0.146
-195.260	800.000	-0.085	0.314
-194.246	-200.000	-0.005	0.089
-193.231	-81.443	-0.185	0.060
-192.217	107.536	0.234	0.276
-191.202	315.541	0.086	-0.161
-190.187	-145.168	-0.126	0.011
-189.173	-19.167	-0.054	-0.033
-188.158	-61.643	-0.104	0.043
-187.144	343.810	0.161	-0.312
-186.129	-109.742	0.293	-0.061
-185.114	-200.000	-0.009	-0.063
-184.100	-200.000	0.038	-0.440
-183.085	-130.094	-0.284	-0.038
-182.071	284.399	-0.076	-0.135
-181.056	-116.062	0.201	-0.037
-180.042	238.045	-0.118	0.193
-179.027	50.893	0.132	-0.124
-178.012	-200.000	-0.018	-0.186
-176.998	-109.788	-0.525	0.109
-175.983	-124.509	-0.335	-0.052
-174.969	-200.000	0.035	-0.208
-173.954	35.398	0.030	-0.026
-172.939	193.635	-0.106	-0.159
-171.925	126.519	-0.058	0.073
-170.910	800.000	0.026	-0.108
-169.896	-200.000	-0.062	-0.391
-168.881	526.174	-0.103	0.240
-167.866	800.000	-0.060	0.249
-166.852	95.501	0.101	-0.114
-165.837	-30.531	0.243	-0.136
-164.823	800.000	0.067	-0.252
-163.808	108.516	-0.164	-0.194
-162.793	-181.861	-0.095	-0.002
-161.779	-27.148	0.274	0.158
-160.764	-80.501	-0.228	0.075
-159.750	36.435	0.209	0.182
-158.735	-59.169	0.080	-0.034
-157.720	-45.143	0.057	0.028
-156.706	-200.000	0.013	0.087
-155.691	-200.000	-0.020	-0.133
-154.677	-200.000	-0.019	-0.181
-153.662	219.698	-0.039	-0.061
-152.647	260.947	-0.074	0.127
-151.633	773.534	-0.085	0.229
-150.618	-65.508	0.250	0.099
-149.604	40.670	-0.265	0.236
-148.589	87.639	0.140	-0.153
-147.574	-99.552	-0.369	0.092
-146.560	800.000	0.096	0.295
-145.545	626.041	0.094	-0.235
-144.531	800.000	-0.024	-0.083
-143.516	-41.555	0.317	0.161
-142.502	69.174	0.149	0.151
-141.487	800.000	-0.054	-0.178
-140.472	495.923	-0.049	-0.111
-139.458	77.154	0.128	0.134
-138.443	-100.967	0.195	0.047
-137.429	-120.327	-0.078	0.013
-136.414	68.413	0.325	0.329
-135.399	-135.268	0.174	0.021
-134.385	52.320	0.195	-0.184
-133.370	375.444	-0.104	0.209
-132.356	-200.000	-0.009	-0.114
-131.341	484.518	0.175	-0.393
-130.326	-200.000	0.031	0.138
-129.312	53.382	-0.237	0.224
-128.297	-54.873	0.109	0.048
-127.283	-56.220	-0.244	-0.107
-126.268	166.922	0.073	-0.102
-125.253	-11.376	0.157	0.102
-124.239	-102.932	-0.106	0.025
-123.224	-124.770	0.117	0.018
-122.210	-200.000	-0.009	-0.172
-121.195	-200.000	0.003	-0.175
-120.180	562.720	0.160	-0.384
-119.166	-14.559	0.144	0.092
-118.151	342.117	0.042	-0.082
-117.137	32.581	-0.109	-0.093
-116.122	622.409	0.042	0.105
-115.107	-106.127	0.335	0.074
-114.093	-137.084	0.201	0.023
-113.078	-86.753	-0.277	-0.084
-112.064	5.492	0.243	0.177
-111.049	-75.461	-0.291	-0.102
-110.034	-27.737	0.300	0.172
-109.020	262.840	0.057	0.097
-108.005	210.244	-0.184	0.286
-106.991	-122.839	-0.187	0.030
-105.976	145.990	-0.130	-0.172
-104.962	445.417	-0.050	-0.109
-103.947	140.050	-0.066	-0.086
-102.932	-200.000	-0.004	0.019
-101.918	244.138	0.176	0.292
-100.903	194.999	0.102	-0.153
-99.889	169.444	-0.103	-0.145
-98.874	120.769	0.173	0.213
-97.859	54.146	0.100	-0.095
-96.845	-88.894	-0.065	0.019
-95.830	-154.358	0.081	-0.005
-94.816	-200.000	0.007	0.063
-93.801	-200.000	-0.429	-0.001
-92.786	86.348	0.234	0.254
-91.772	101.388	0.089	0.102
-90.757	-178.616	-0.313	-0.007
-89.743	-96.915	-0.497	0.129
-88.728	-7.086	0.158	0.106
-87.713	-117.077	-0.153	-0.028
-86.699	138.855	-0.140	0.181
-85.684	-200.000	0.003	0.636
-84.670	-62.854	0.245	-0.100
-83.655	-163.866	0.293	-0.014
-82.640	95.946	0.127	-0.143
-81.626	576.938	0.045	0.107
-80.611	62.811	-0.124	0.123
-79.597	257.555	-0.193	0.328
-78.582	-133.487	0.190	-0.024
-77.567	13.386	0.093	0.071
-76.553	-89.299	0.140	-0.041
-75.538	223.154	0.143	-0.228
-74.524	44.664	-0.027	0.025
-73.509	305.053	0.186	-0.341
-72.494	800.000	-0.065	0.179
-71.480	-51.994	0.338	0.155
-70.465	39.309	-0.411	-0.363
-69.451	-200.000	-0.001	0.130
-68.436	-82.094	0.332	0.107
-67.422	8.852	-0.021	-0.015
-66.407	800.000	0.094	0.259
-65.392	-18.577	0.265	0.163
-64.378	-200.000	-0.025	-0.128
-63.363	576.719	0.094	0.226
-62.349	11.033	0.364	-0.274
-61.334	215.196	-0.775	-1.212
-60.319	-200.000	0.111	0.526
-59.305	-200.000	0.053	-0.762
-58.290	200.761	0.811	1.229
-57.276	711.680	0.618	1.612
-56.261	-200.000	98.012	557.002
-55.246	599.656	1399.547	3421.860
-54.232	182.607	2642.785	3840.424
-53.217	112.337	2329.491	2775.651
-52.203	43.521	1938.210	1745.830
-51.188	37.309	1722.341	1503.433
-50.173	34.496	1676.995	1442.561
-49.159	51.376	1726.438	1614.994
-48.144	54.344	1743.387	1653.544
-47.130	36.898	1698.745	1479.466
-46.115	34.043	1683.947	1444.869
-45.100	33.858	1679.239	1439.372
-44.086	33.798	1676.912	1436.864
-43.071	33.788	1674.057	1434.286
-42.057	33.833	1671.393	1432.282
-41.042	33.772	1669.429	1430.089
-40.027	33.885	1667.433	1429.171
-39.013	33.837	1665.387	1426.996
-37.998	33.797	1663.840	1425.317
-36.984	33.858	1662.566	1424.627
-35.969	34.009	1660.961	1424.321
-34.954	34.188	1658.705	1423.673
-33.940	33.936	1657.455	1420.663
-32.925	33.885	1655.880	1418.874
-31.911	34.006	1653.754	1417.900
-30.896	33.898	1652.443	1415.910
-29.881	33.984	1650.596	1414.910
-28.867	34.067	1648.516	1413.691
-27.852	33.933	1647.356	1411.643
-26.838	34.023	1645.740	1410.870
-25.823	34.021	1644.951	1410.126
-24.809	33.994	1643.223	1408.391
-23.794	34.030	1641.768	1407.352
-22.779	34.057	1640.498	1406.407
-21.765	33.982	1638.505	1404.084
-20.750	33.999	1636.540	1402.476
-19.736	34.029	1635.298	1401.579
-18.721	34.046	1634.084	1400.606
-17.706	34.087	1632.290	1399.313
-16.692	34.026	1630.912	1397.625
-15.677	34.073	1629.148	1396.401
-14.663	34.135	1627.686	1395.551
-13.648	34.037	1626.754	1393.979
-12.633	34.005	1624.827	1392.038
-11.619	34.037	1623.169	1390.794
-10.604	34.134	1621.368	1389.909
-9.590	34.157	1620.375	1389.168
-8.575	34.083	1619.475	1387.799
-7.560	33.997	1618.453	1386.243
-6.546	33.979	1617.199	1384.983
-5.531	33.930	1616.019	1383.560
-4.517	34.049	1614.561	1383.119
-3.502	34.115	1613.481	1382.625
-2.487	34.162	1611.631	1381.326
-1.473	33.988	1600.646	1370.598
-0.458	31.501	1581.383	1336.310
0.556	26.237	1582.449	1305.672
1.571	24.184	1607.713	1311.307
2.586	23.633	1621.831	1318.612
3.600	20.475	1567.455	1251.580
4.615	10.444	1451.412	1091.580
5.629	1.744	1383.506	984.370
6.644	0.166	1374.927	968.037
7.659	0.168	1373.424	966.903
8.673	0.014	1372.553	965.214
9.688	-0.028	1370.484	963.407
10.702	-0.314	1367.733	959.561
11.717	3.075	1374.355	985.874
12.731	13.236	1393.672	1065.431
13.746	21.289	1407.682	1128.267
14.761	22.918	1410.112	1140.641
15.775	23.249	1409.299	1142.021
16.790	23.194	1409.326	1141.584
17.804	23.291	1408.330	1141.301
18.819	23.577	1408.201	1142.940
19.834	23.632	1407.622	1142.726
20.848	23.615	1406.712	1141.775
21.863	23.640	1405.674	1140.994
22.877	23.681	1404.842	1140.477
23.892	23.595	1404.474	1139.527
24.907	23.594	1403.139	1138.334
25.921	23.616	1402.443	1137.812
26.936	23.639	1401.536	1137.122
27.950	23.471	1400.691	1135.262
28.965	23.516	1399.329	1134.342
29.980	23.615	1397.624	1133.494
30.994	23.523	1396.709	1132.062
32.009	23.576	1395.391	1131.232
33.023	23.512	1394.396	1129.922
34.038	23.571	1393.181	1129.210
35.053	23.555	1391.873	1127.949
36.067	23.650	1390.387	1127.249
37.082	23.532	1390.068	1126.140
38.096	23.529	1389.096	1125.237
39.111	23.537	1388.166	1124.436
40.126	23.513	1387.834	1123.909
41.140	23.602	1386.564	1123.350
42.155	23.541	1386.827	1123.074
43.169	23.611	1386.261	1122.959
44.184	23.573	1386.204	1122.576
45.199	23.512	1385.880	1121.826
46.213	23.500	1385.409	1121.272
47.228	23.629	1384.191	1121.000
48.242	23.608	1383.112	1119.892
49.257	23.548	1381.816	1118.367
50.271	23.512	1380.195	1116.730
51.286	23.503	1378.981	1115.595
52.301	23.532	1377.803	1114.721
53.315	23.640	1376.576	1114.307
54.330	23.654	1376.163	1113.963
55.344	23.638	1374.442	1112.374
56.359	23.509	1374.118	1111.205
57.374	23.632	1372.917	1110.907
58.388	23.593	1372.452	1110.183
59.403	23.556	1372.537	1109.924
60.417	23.608	1371.642	1109.425
61.432	23.544	1370.245	1107.802
62.447	23.648	1369.516	1107.759
63.461	23.496	1368.700	1106.057
64.476	23.575	1367.409	1105.406
65.490	23.511	1366.841	1104.452
66.505	23.579	1364.537	1102.918
67.520	23.636	1363.170	1102.067
68.534	23.620	1362.571	1101.383
69.549	23.629	1361.552	1100.517
70.563	23.674	1360.349	1099.727
71.578	23.675	1359.316	1098.800
72.593	23.600	1358.953	1097.949
73.607	23.623	1358.118	1097.317
74.622	23.697	1357.264	1096.987
75.636	23.665	1356.686	1096.227
76.651	23.617	1355.856	1095.160
77.666	23.547	1355.543	1094.382
78.680	23.561	1355.297	1094.170
79.695	23.554	1354.147	1093.102
80.709	23.520	1353.477	1092.255
81.724	23.584	1352.425	1091.706
82.739	23.616	1351.092	1090.731
83.753	23.554	1350.513	1089.782
84.768	23.538	1349.366	1088.665
85.782	23.593	1347.925	1087.743
86.797	23.557	1347.190	1086.830
87.812	23.633	1345.763	1086.053
88.826	23.625	1344.650	1085.009
89.841	23.647	1343.627	1084.222
90.855	23.705	1342.481	1083.553
91.870	23.642	1342.107	1082.769
92.884	23.566	1341.287	1081.547
93.899	23.605	1340.338	1080.924
94.914	23.660	1339.214	1080.258
95.928	23.675	1338.759	1079.889
96.943	23.723	1337.974	1079.450
97.957	23.677	1337.085	1078.358
98.972	23.653	1336.272	1077.462
99.987	23.641	1335.279	1076.495
101.001	23.563	1334.218	1075.068
102.016	23.637	1333.040	1074.476
103.030	23.588	1332.224	1073.426
104.045	23.591	1332.007	1073.175
105.060	23.656	1330.727	1072.439
106.074	23.690	1329.503	1071.561
107.089	23.674	1328.656	1070.692
108.103	23.724	1327.831	1070.229
109.118	23.753	1326.546	1069.273
110.133	23.691	1325.376	1067.862
111.147	23.730	1324.379	1067.201
112.162	23.793	1322.853	1066.253
113.176	23.790	1322.244	1065.652
114.191	23.768	1320.916	1064.354
115.206	23.699	1320.164	1063.245
116.220	23.674	1318.955	1062.024
117.235	23.780	1317.811	1061.640
118.249	23.797	1316.996	1060.993
119.264	23.708	1316.266	1059.779
120.279	23.750	1315.361	1059.210
121.293	23.827	1314.338	1058.751
122.308	23.806	1313.558	1057.904
123.322	23.786	1312.358	1056.724
124.337	23.817	1312.172	1056.668
125.352	23.905	1311.251	1056.351
126.366	23.853	1310.158	1055.069
127.381	23.806	1308.709	1053.529
128.395	23.794	1308.118	1052.892
129.410	23.761	1307.270	1051.921
130.424	23.768	1306.993	1051.646
131.439	23.701	1306.224	1050.537
132.454	23.862	1304.919	1050.347
133.468	23.717	1304.463	1049.032
134.483	23.716	1303.782	1048.386
135.497	23.687	1303.315	1047.744
136.512	23.668	1301.817	1046.333
137.527	23.722	1300.983	1045.892
138.541	23.832	1299.220	1045.026
139.556	23.742	1298.558	1043.875
140.570	23.713	1297.413	1042.689
141.585	23.769	1295.941	1041.742
142.600	23.761	1294.849	1040.728
143.614	23.735	1294.089	1039.871
144.629	23.688	1293.545	1039.067
145.643	23.615	1292.538	1037.741
146.658	23.774	1291.011	1037.353
147.673	23.861	1289.778	1036.777
148.687	23.759	1289.213	1035.638
149.702	23.729	1287.885	1034.304
150.716	23.677	1287.053	1033.239
151.731	23.672	1285.908	1032.201
152.746	23.747	1284.852	1031.699
153.760	23.747	1283.803	1030.765
154.775	23.730	1282.995	1029.924
155.789	23.789	1281.662	1029.105
156.804	23.817	1280.991	1028.640
157.819	23.699	1280.523	1027.486
158.833	23.732	1279.846	1027.044
159.848	23.804	1279.036	1026.722
160.862	23.727	1278.451	1025.714
161.877	23.823	1277.330	1025.281
162.892	23.776	1276.488	1024.242
163.906	23.816	1275.681	1023.731
164.921	23.877	1274.543	1023.079
165.935	23.852	1274.069	1022.464
166.950	23.790	1273.984	1021.949
167.964	23.874	1272.907	1021.478
168.979	23.889	1272.030	1020.769
169.994	23.797	1272.070	1020.181
171.008	23.941	1270.840	1019.936
172.023	23.839	1270.333	1018.850
173.037	23.889	1269.777	1018.604
174.052	23.880	1268.928	1017.776
175.067	23.914	1267.924	1017.076
176.081	23.870	1267.431	1016.343
177.096	23.851	1266.660	1015.524
178.110	23.831	1265.903	1014.715
179.125	23.887	1264.451	1013.781
180.140	23.834	1263.679	1012.766
181.154	23.899	1262.469	1012.079
182.169	23.899	1261.220	1010.988
183.183	23.992	1259.928	1010.390
184.198	23.883	1259.226	1009.121
185.213	23.842	1258.370	1008.111
186.227	23.927	1257.614	1007.901
187.242	24.086	1256.419	1007.751
188.256	23.991	1255.703	1006.550
189.271	23.982	1254.626	1005.548
190.286	23.951	1254.202	1004.946
191.300	23.929	1253.493	1004.163
192.315	24.069	1252.543	1004.102
193.329	23.880	1253.007	1003.319
194.344	24.002	1252.467	1003.484
195.359	23.973	1251.555	1002.505
196.373	23.846	1251.394	1001.573
197.388	23.806	1250.903	1000.867
198.402	23.880	1250.218	1000.642
199.417	23.924	1249.858	1000.513
200.432	23.988	1249.446	1000.454
201.446	24.052	1248.619	1000.068
202.461	23.962	1247.921	998.910
203.475	23.795	1247.688	997.698
204.490	23.898	1245.914	996.771
205.504	23.892	1245.232	996.100
206.519	24.002	1244.504	996.049
207.534	23.981	1243.408	994.962
208.548	23.961	1242.195	993.795
209.563	24.127	1241.209	993.846
210.577	24.069	1240.527	992.889
211.592	23.975	1240.207	992.019
212.607	23.995	1239.431	991.421
213.621	24.042	1238.541	990.884
214.636	24.026	1237.609	989.962
215.650	24.156	1236.446	989.666
216.665	24.040	1235.836	988.447
217.680	23.923	1235.175	987.178
218.694	24.184	1234.019	987.614
219.709	24.045	1233.785	986.571
220.723	24.111	1232.645	985.938
221.738	24.092	1231.883	985.135
222.753	23.970	1231.448	984.027
223.767	24.143	1230.670	984.273
224.782	24.180	1230.409	984.182
225.796	24.099	1229.643	983.033
226.811	24.006	1229.292	982.156
227.826	24.133	1228.720	982.310
228.840	24.127	1227.692	981.372
229.855	24.244	1226.827	981.236
230.869	24.222	1226.342	980.638
231.884	24.214	1225.379	979.738
232.899	24.167	1225.357	979.375
233.913	24.115	1224.610	978.405
234.928	24.263	1224.012	978.656
235.942	24.295	1223.024	977.951
236.957	24.268	1222.605	977.381
237.972	24.183	1221.606	976.032
238.986	24.250	1221.030	975.854
240.001	24.331	1220.764	975.996
241.015	24.327	1219.825	975.141
242.030	24.249	1219.142	974.078
243.045	24.332	1217.903	973.459
244.059	24.233	1217.496	972.503
245.074	24.256	1216.986	972.139
246.088	24.346	1216.120	971.850
247.103	24.375	1215.026	971.045
248.117	24.337	1214.645	970.450
249.132	24.382	1213.572	969.752
250.147	24.437	1213.096	969.586
251.161	24.441	1212.145	968.763
252.176	24.491	1211.438	968.383
253.190	24.401	1210.728	967.239
254.205	24.402	1210.083	966.646
255.220	24.431	1209.460	966.217
256.234	24.393	1209.181	965.703
257.249	24.391	1208.634	965.172
258.263	24.468	1207.656	964.721
259.278	24.484	1207.601	964.678
260.293	24.436	1206.995	963.849
261.307	24.474	1206.441	963.529
262.322	24.578	1205.312	963.101
263.336	24.634	1204.585	962.738
264.351	24.481	1204.040	961.390
265.366	24.547	1203.592	961.303
266.380	24.505	1203.271	960.739
267.395	24.496	1202.320	959.843
268.409	24.526	1201.294	959.100
269.424	24.513	1201.354	958.991
270.439	24.474	1200.838	958.290
271.453	24.409	1200.232	957.372
272.468	24.451	1199.450	956.887
273.482	24.437	1198.686	956.116
274.497	24.593	1198.116	956.417
275.512	24.596	1197.587	955.921
276.526	24.615	1196.741	955.264
277.541	24.606	1195.952	954.501
278.555	24.498	1195.646	953.596
279.570	24.585	1194.662	953.194
280.585	24.701	1193.667	952.934
281.599	24.565	1193.167	951.721
282.614	24.672	1191.978	951.262
283.628	24.676	1190.999	950.416
284.643	24.656	1190.364	949.720
285.657	24.601	1189.436	948.601
286.672	24.686	1188.767	948.435
287.687	24.754	1187.945	948.056
288.701	24.681	1187.549	947.273
289.716	24.648	1186.649	946.295
290.730	24.723	1186.121	946.187
291.745	24.791	1185.132	945.673
292.760	24.870	1184.688	945.652
293.774	24.684	1184.154	944.162
294.789	24.785	1184.226	944.670
295.803	24.702	1183.495	943.564
296.818	24.784	1182.602	943.198
297.833	24.810	1181.455	942.341
298.847	24.757	1181.197	941.770
299.862	24.799	1180.393	941.269
300.876	24.783	1179.729	940.571
301.891	24.934	1178.904	940.624
302.906	24.856	1178.457	939.774
303.920	24.882	1177.710	939.229
304.935	24.777	1176.971	938.006
305.949	24.894	1176.486	938.151
306.964	24.802	1175.826	937.058
307.979	24.968	1174.773	937.007
308.993	24.969	1174.078	936.376
310.008	25.056	1173.726	936.466
311.022	24.931	1173.028	935.173
312.037	24.952	1172.236	934.569
313.052	24.937	1171.346	933.696
314.066	24.972	1170.222	932.900
315.081	24.966	1169.666	932.343
316.095	24.983	1169.185	931.966
317.110	24.924	1168.768	931.247
318.125	24.939	1168.174	930.766
319.139	24.985	1167.336	930.257
320.154	25.078	1166.476	929.970
321.168	24.919	1166.597	929.159
322.183	25.006	1165.557	928.699
323.197	24.982	1165.035	928.081
324.212	25.105	1164.186	927.957
325.227	25.032	1164.282	927.572
326.241	25.168	1163.426	927.514
327.256	25.084	1162.542	926.292
328.270	25.061	1161.789	925.490
329.285	25.083	1161.104	924.977
330.300	25.062	1160.436	924.254
331.314	25.203	1159.245	923.951
332.329	25.053	1158.947	922.857
333.343	25.203	1157.603	922.477
334.358	25.188	1157.261	922.045
335.373	25.133	1156.182	920.825
336.387	25.259	1155.545	920.880
337.402	25.189	1154.989	919.999
338.416	25.205	1154.731	919.794
339.431	25.317	1153.837	919.572
340.446	25.258	1153.291	918.752
341.460	25.265	1152.550	918.118
342.475	25.320	1151.779	917.704
343.489	25.282	1150.939	916.760
344.504	25.230	1149.984	915.651
345.519	25.276	1149.003	915.023
346.533	25.233	1148.720	914.498
347.548	25.228	1147.856	913.705
348.562	25.387	1146.920	913.688
349.577	25.291	1146.550	912.825
350.592	25.167	1145.608	911.366
351.606	25.306	1144.790	911.337
352.621	25.330	1144.069	910.807
353.635	25.350	1143.669	910.506
354.650	25.465	1142.800	910.316
355.665	25.504	1142.085	909.863
356.679	25.380	1141.678	908.835
357.694	25.446	1141.240	908.738
358.708	25.442	1140.136	907.756
359.723	25.519	1139.448	907.518
360.738	25.352	1139.113	906.328
361.752	25.395	1138.637	906.088
362.767	25.448	1137.982	905.752
363.781	25.509	1137.765	905.808
364.796	25.466	1137.069	904.956
365.810	25.591	1136.113	904.745
366.825	25.523	1135.835	904.099
367.840	25.582	1135.063	903.704
368.854	25.569	1134.684	903.258
369.869	25.516	1133.848	902.246
370.883	25.603	1132.968	901.901
371.898	25.620	1132.492	901.528
372.913	25.563	1132.007	900.777
373.927	25.587	1131.403	900.334
374.942	25.694	1131.202	900.633
375.956	25.763	1130.271	900.156
376.971	25.666	1130.031	899.398
377.986	25.718	1129.416	899.090
379.000	25.595	1128.826	897.926
380.015	25.584	1128.293	897.369
381.029	25.646	1127.742	897.161
382.044	25.673	1126.697	896.382
383.059	25.714	1125.923	895.891
384.073	25.793	1125.313	895.721
385.088	25.897	1124.290	895.343
386.102	25.757	1124.009	894.344
387.117	25.769	1122.801	893.366
388.132	25.737	1121.866	892.385
389.146	25.762	1121.223	891.917
390.161	25.807	1120.617	891.578
391.175	25.783	1119.972	890.868
392.190	25.893	1119.339	890.830
393.205	25.704	1118.794	889.383
394.219	25.855	1117.674	889.159
395.234	25.909	1116.891	888.724
396.248	25.851	1116.179	887.794
397.263	25.832	1115.849	887.361
398.278	25.916	1114.962	886.991
399.292	26.043	1113.978	886.749
400.307	25.862	1113.553	885.445
401.321	25.904	1113.350	885.410
402.336	25.864	1112.436	884.410
403.350	25.888	1111.740	883.894
404.365	26.084	1110.594	883.865
405.380	25.984	1110.373	883.123
406.394	25.899	1109.773	882.153
407.409	26.071	1109.199	882.459
408.423	26.104	1108.014	881.599
409.438	26.123	1107.356	881.092
410.453	26.124	1106.894	880.648
411.467	26.036	1106.139	879.543
412.482	26.086	1105.269	879.018
413.496	26.114	1104.817	878.712
414.511	26.006	1104.053	877.504
415.526	26.099	1103.841	877.711
416.540	26.065	1103.209	876.967
417.555	26.132	1102.906	876.972
418.569	26.058	1102.378	876.115
419.584	26.238	1101.854	876.494
420.599	26.216	1101.565	876.082
421.613	146.459	1402.332	1793.215
422.628	135.876	1446.115	1793.322
