DTS Sentinel unit serial number:	SN413079Multiplexer serial number:	ORYXHardware model number:	OX4-SRSoftware version number:	ORYX F/W v4.00 Oryx Data Collector v3.7.2.0data status	okinstallation	princeton_trtdifferential loss correction	single-endedforward channel	channel 2reverse channel	N/Adate	2019/09/11time	03:49:11forward acquisition time	60.00reverse acquisition time	0.00gamma	496.2192k internal	0.2329k external	0.2329temperature offset calibration	0.9936default loss term (dB/km)	0.3790temperature slope calibration	1.0000multiplexer offset coefficient	1.0000multiplexer slope coefficient	1.0000fibre end	0.00T internal ref (°C)	29.56T ext. ref 1 (°C)	-0.30T ext. ref 2 (°C)	23.76length (m)	temperature (°C)	Stokes	anti-Stokes-747.200	-200.000	0.009	0.135
-746.185	396.849	-0.050	-0.105
-745.171	299.540	0.057	-0.105
-744.156	38.897	-0.409	0.368
-743.142	-200.000	-0.047	0.401
-742.127	277.326	-0.161	0.289
-741.112	-200.000	0.016	-0.179
-740.098	22.081	0.121	-0.100
-739.083	244.924	0.091	0.154
-738.069	214.838	0.167	0.267
-737.054	800.000	0.072	0.283
-736.039	24.406	-0.232	-0.193
-735.025	230.726	-0.081	0.133
-734.010	575.289	-0.013	0.031
-732.996	-57.584	0.245	0.108
-731.981	319.559	-0.131	-0.250
-730.966	-13.501	-0.216	-0.141
-729.952	525.400	-0.137	-0.324
-728.937	-82.894	-0.133	0.043
-727.923	-200.000	0.013	-0.117
-726.908	-200.000	0.004	-0.171
-725.894	800.000	0.080	-0.304
-724.879	-200.000	-0.032	-0.371
-723.864	-20.254	-0.091	-0.056
-722.850	-44.792	0.081	0.041
-721.835	-53.055	-0.188	-0.087
-720.821	-26.178	0.210	0.124
-719.806	-200.000	0.033	-0.187
-718.791	412.729	0.073	0.157
-717.777	-15.395	0.248	0.160
-716.762	173.259	-0.120	0.174
-715.748	86.383	-0.154	0.171
-714.733	-49.550	0.107	-0.051
-713.718	33.514	0.234	-0.205
-712.704	0.945	0.179	-0.129
-711.689	-111.932	-0.177	0.036
-710.675	-200.000	-0.031	-0.169
-709.660	-200.000	-0.018	-0.241
-708.645	-125.798	0.316	-0.048
-707.631	280.422	0.068	0.122
-706.616	63.376	0.295	-0.297
-705.602	167.568	0.158	-0.226
-704.587	-171.375	-0.359	0.012
-703.572	-91.406	-0.644	-0.185
-702.558	-95.528	0.261	-0.070
-701.543	800.000	0.027	-0.110
-700.529	-123.185	0.147	-0.024
-699.514	-168.902	0.219	-0.008
-698.499	800.000	0.091	-0.257
-697.485	63.239	0.213	-0.215
-696.470	94.345	-0.063	-0.072
-695.456	-46.813	0.337	0.166
-694.441	-69.730	0.085	-0.033
-693.426	-32.244	0.132	0.074
-692.412	-35.293	-0.188	-0.103
-691.397	160.557	0.043	-0.060
-690.383	-0.983	-0.060	0.042
-689.368	8.180	0.170	0.128
-688.354	-200.000	0.000	0.162
-687.339	17.940	0.235	0.189
-686.324	537.253	-0.147	-0.350
-685.310	-2.996	0.246	0.172
-684.295	-128.674	-0.110	-0.016
-683.281	-131.489	-0.041	-0.005
-682.266	800.000	-0.101	-0.345
-681.251	800.000	0.055	0.213
-680.237	602.465	0.056	0.141
-679.222	167.504	0.027	0.039
-678.208	800.000	0.018	0.076
-677.193	52.860	-0.004	0.004
-676.178	-35.392	0.090	-0.049
-675.164	266.632	0.247	-0.434
-674.149	-35.532	-0.239	0.130
-673.135	-200.000	0.037	0.357
-672.120	-200.000	0.015	-0.328
-671.105	-102.888	-0.338	-0.081
-670.091	-120.133	-0.294	-0.051
-669.076	-200.000	0.008	-0.079
-668.062	-30.678	-0.109	-0.062
-667.047	202.849	0.250	-0.389
-666.032	800.000	0.016	-0.059
-665.018	800.000	0.074	-0.220
-664.003	418.730	-0.127	-0.273
-662.989	-110.721	0.107	0.022
-661.974	-111.282	0.134	0.027
-660.959	-12.635	0.176	-0.115
-659.945	224.228	0.170	0.275
-658.930	-200.000	0.018	0.119
-657.916	-200.000	0.080	0.412
-656.901	151.741	0.044	-0.060
-655.886	-92.701	-0.201	0.056
-654.872	-150.548	-0.027	0.002
-653.857	48.354	-0.233	-0.219
-652.843	108.960	-0.231	-0.277
-651.828	-78.439	0.294	-0.101
-650.814	-200.000	-0.043	0.232
-649.799	-200.000	0.020	-0.258
-648.784	197.211	0.154	-0.236
-647.770	3.279	0.250	-0.183
-646.755	328.023	-0.130	-0.250
-645.741	-90.093	0.398	-0.116
-644.726	-89.141	0.180	-0.053
-643.711	125.689	0.108	0.136
-642.697	-200.000	-0.036	-0.294
-641.682	-200.000	0.016	0.173
-640.668	-200.000	0.050	0.411
-639.653	246.253	0.022	0.037
-638.638	-68.568	0.207	0.081
-637.624	43.404	0.178	0.163
-636.609	-125.730	-0.074	-0.011
-635.595	-200.000	-0.014	0.252
-634.580	-200.000	0.045	-0.265
-633.565	-200.000	-0.001	0.014
-632.551	-3.157	-0.429	-0.300
-631.536	-102.237	0.237	-0.057
-630.522	209.095	-0.134	0.210
-629.507	311.687	0.060	-0.113
-628.492	-109.415	-0.166	0.035
-627.478	-0.212	0.060	0.042
-626.463	-200.000	-0.042	-0.217
-625.449	-1.431	0.252	-0.178
-624.434	800.000	0.040	0.174
-623.419	-27.181	0.193	0.113
-622.405	-142.091	-0.262	-0.026
-621.390	613.260	0.128	-0.321
-620.376	433.889	-0.137	0.298
-619.361	-49.664	0.102	0.049
-618.346	800.000	0.114	-0.473
-617.332	-90.749	-0.273	0.079
-616.317	-48.458	0.255	0.123
-615.303	-200.000	-0.021	-0.131
-614.288	142.892	-0.128	-0.171
-613.273	-200.000	-0.053	0.333
-612.259	-45.283	0.095	0.047
-611.244	17.655	-0.358	0.285
-610.230	32.770	-0.040	0.035
-609.215	-56.594	0.154	-0.068
-608.201	-200.000	-0.011	-0.215
-607.186	121.962	-0.135	-0.168
-606.171	15.640	0.179	-0.141
-605.157	800.000	-0.038	-0.168
-604.142	-86.991	0.306	-0.093
-603.128	800.000	-0.042	-0.144
-602.113	125.421	-0.109	0.138
-601.098	-58.125	-0.156	-0.068
-600.084	167.773	-0.088	0.126
-599.069	30.851	-0.385	-0.330
-598.055	-44.791	-0.286	-0.143
-597.040	-199.119	-0.367	0.002
-596.025	-200.000	-0.002	-0.132
-595.011	800.000	-0.087	0.256
-593.996	64.915	-0.350	0.354
-592.982	22.498	0.074	-0.061
-591.967	-8.982	0.076	-0.051
-590.952	-63.955	-0.373	-0.153
-589.938	456.499	0.099	-0.220
-588.923	396.146	0.072	-0.151
-587.909	358.418	0.033	0.066
-586.894	800.000	-0.046	-0.134
-585.879	-23.437	-0.147	0.089
-584.865	-127.036	0.434	0.064
-583.850	-44.192	0.344	0.173
-582.836	53.328	0.134	-0.128
-581.821	-43.411	0.292	0.148
-580.806	-23.076	-0.227	0.137
-579.792	-33.052	0.062	-0.034
-578.777	-26.675	0.136	-0.080
-577.763	61.849	-0.145	0.145
-576.748	-200.000	0.011	-0.254
-575.733	-110.164	0.210	-0.044
-574.719	193.727	-0.061	0.092
-573.704	134.676	-0.086	0.112
-572.690	-52.839	-0.220	0.101
-571.675	-91.594	0.355	-0.101
-570.661	-149.667	-0.161	0.013
-569.646	175.358	0.118	0.170
-568.631	800.000	-0.030	0.100
-567.617	-162.073	0.306	-0.015
-566.602	254.442	0.115	0.197
-565.588	-102.251	0.121	0.029
-564.573	-200.000	-0.009	0.108
-563.558	800.000	-0.048	0.134
-562.544	-200.000	0.002	0.196
-561.529	-139.547	-0.150	0.016
-560.515	179.253	-0.033	-0.048
-559.500	711.495	0.042	0.112
-558.485	456.327	0.193	-0.428
-557.471	134.966	0.314	-0.408
-556.456	-200.000	0.007	-0.122
-555.442	58.851	0.137	-0.135
-554.427	515.987	-0.061	0.144
-553.412	-121.690	-0.140	0.023
-552.398	10.314	-0.107	-0.082
-551.383	-69.525	0.168	-0.064
-550.369	800.000	0.023	0.072
-549.354	191.289	0.038	0.057
-548.339	36.774	0.142	-0.125
-547.325	-81.751	0.144	-0.047
-546.310	320.252	-0.088	-0.166
-545.296	-96.414	-0.142	-0.038
-544.281	-161.211	0.069	0.004
-543.266	-17.621	-0.106	0.067
-542.252	-200.000	0.369	-0.001
-541.237	-150.477	-0.573	0.044
-540.223	376.938	-0.057	-0.116
-539.208	-200.000	-0.088	-0.389
-538.193	58.243	0.157	-0.154
-537.179	800.000	0.102	0.320
-536.164	74.724	0.132	0.139
-535.150	-200.000	-0.003	0.043
-534.135	110.648	-0.240	0.288
-533.121	-43.357	-0.119	0.060
-532.106	-193.513	0.305	-0.003
-531.091	-55.809	-0.269	-0.120
-530.077	-124.329	-0.242	0.038
-529.062	-138.861	0.206	-0.022
-528.048	-40.118	-0.113	0.059
-527.033	-121.494	0.335	0.056
-526.018	-13.068	-0.223	0.144
-525.004	800.000	-0.029	-0.095
-523.989	183.254	0.179	-0.264
-522.975	-14.183	-0.288	-0.185
-521.960	50.167	0.204	-0.193
-520.945	-191.917	-0.217	0.002
-519.931	243.160	-0.078	-0.130
-518.916	20.661	-0.202	0.163
-517.902	281.281	0.138	-0.247
-516.887	-93.855	-0.211	0.058
-515.872	122.410	-0.161	0.201
-514.858	253.926	-0.091	-0.156
-513.843	-200.000	-0.006	-0.067
-512.829	-77.386	0.205	-0.071
-511.814	101.318	-0.101	0.118
-510.799	800.000	0.063	0.184
-509.785	-20.402	-0.057	0.035
-508.770	-180.740	-0.461	0.009
-507.756	345.839	-0.061	0.119
-506.741	98.615	-0.268	0.309
-505.726	36.507	-0.052	0.046
-504.712	176.353	-0.123	-0.178
-503.697	-63.773	-0.138	0.056
-502.683	800.000	0.048	0.196
-501.668	124.746	0.051	-0.064
-500.653	800.000	0.028	-0.091
-499.639	-2.376	-0.171	-0.119
-498.624	136.905	0.196	0.255
-497.610	-91.835	-0.159	-0.045
-496.595	123.307	-0.096	-0.120
-495.581	215.901	-0.032	-0.051
-494.566	-200.000	-0.024	-0.138
-493.551	-80.836	0.249	-0.082
-492.537	-26.100	-0.174	0.102
-491.522	-200.000	0.052	0.342
-490.508	-71.765	-0.040	-0.015
-489.493	-49.932	-0.141	-0.067
-488.478	-82.043	-0.435	0.142
-487.464	-200.000	0.003	0.127
-486.449	-200.000	0.015	-0.242
-485.435	-200.000	-0.014	0.105
-484.420	721.767	-0.102	-0.271
-483.405	21.412	-0.027	0.022
-482.391	-29.491	0.060	0.034
-481.376	58.974	-0.082	-0.081
-480.362	-128.914	0.246	0.034
-479.347	15.426	-0.159	-0.124
-478.332	-14.313	0.155	0.099
-477.318	-200.000	-0.013	-0.150
-476.303	-32.549	0.220	-0.122
-475.289	-120.375	-0.145	-0.025
-474.274	24.943	-0.227	-0.188
-473.259	251.464	-0.148	0.251
-472.245	800.000	0.044	0.148
-471.230	-200.000	0.014	-0.080
-470.216	-200.000	-0.018	0.304
-469.201	88.369	-0.111	0.123
-468.186	147.662	-0.240	-0.322
-467.172	123.409	0.291	-0.363
-466.157	-200.000	0.032	-0.478
-465.143	800.000	0.016	0.057
-464.128	-30.578	0.161	-0.091
-463.113	288.488	0.067	0.121
-462.099	-44.716	-0.238	0.118
-461.084	-81.761	0.513	-0.168
-460.070	-61.572	-0.224	-0.094
-459.055	244.790	0.114	0.191
-458.040	160.821	-0.116	-0.161
-457.026	-110.254	-0.262	-0.054
-456.011	-80.511	-0.286	0.095
-454.997	-200.000	0.005	-0.087
-453.982	-4.064	0.332	-0.229
-452.968	191.106	0.046	-0.069
-451.953	-200.000	0.004	-0.174
-450.938	93.098	-0.187	-0.210
-449.924	58.430	0.035	0.034
-448.909	262.609	0.066	-0.114
-447.895	-25.187	0.228	-0.134
-446.880	332.083	-0.150	-0.288
-445.865	37.834	-0.089	-0.079
-444.851	-51.778	-0.238	0.111
-443.836	34.972	0.104	0.091
-442.822	80.055	-0.135	-0.145
-441.807	24.426	-0.096	-0.079
-440.792	326.341	-0.017	0.032
-439.778	82.306	-0.288	0.311
-438.763	800.000	0.068	0.281
-437.749	-118.659	-0.188	0.033
-436.734	-96.846	0.134	0.035
-435.719	-200.000	0.004	-0.059
-434.705	247.627	-0.118	0.198
-433.690	8.923	-0.103	0.077
-432.676	-130.861	0.163	0.022
-431.661	800.000	-0.080	0.246
-430.646	-160.842	0.134	0.007
-429.632	800.000	-0.078	0.337
-428.617	142.146	-0.251	0.332
-427.603	-200.000	-0.019	-0.104
-426.588	49.470	-0.059	0.055
-425.573	-72.269	-0.148	0.054
-424.559	129.809	-0.288	0.366
-423.544	800.000	0.126	0.425
-422.530	726.334	0.062	-0.165
-421.515	800.000	-0.037	0.121
-420.500	71.466	0.088	-0.090
-419.486	247.488	0.010	-0.018
-418.471	274.111	-0.095	-0.168
-417.457	4.195	0.313	-0.228
-416.442	-48.002	0.209	0.100
-415.428	447.449	0.118	0.258
-414.413	601.538	0.053	-0.130
-413.398	-103.996	-0.198	-0.046
-412.384	-103.206	0.034	-0.008
-411.369	483.006	0.129	0.291
-410.355	163.288	0.086	0.120
-409.340	198.914	-0.193	-0.294
-408.325	-67.079	0.354	-0.139
-407.311	452.607	0.153	0.337
-406.296	-200.000	-0.006	0.325
-405.282	280.009	-0.175	-0.310
-404.267	128.929	-0.136	-0.173
-403.252	-18.776	-0.204	0.126
-402.238	54.195	-0.262	0.251
-401.223	-88.041	0.267	0.080
-400.209	-125.347	-0.215	-0.033
-399.194	-49.840	-0.203	-0.096
-398.179	-200.000	-0.013	0.294
-397.165	3.405	0.187	-0.135
-396.150	-200.000	0.001	-0.381
-395.136	238.782	-0.165	0.273
-394.121	-57.827	0.304	0.132
-393.106	-2.310	-0.049	-0.034
-392.092	-28.186	-0.183	-0.105
-391.077	-126.910	0.324	0.047
-390.063	85.097	-0.027	-0.029
-389.048	38.158	0.107	0.094
-388.033	800.000	0.145	-0.419
-387.019	-200.000	-0.005	0.130
-386.004	-64.462	-0.118	0.048
-384.990	-3.634	-0.126	0.087
-383.975	-200.000	-0.065	-0.378
-382.960	-28.235	0.109	0.063
-381.946	800.000	0.014	-0.040
-380.931	-200.000	0.137	-0.779
-379.917	800.000	0.025	-0.107
-378.902	-108.208	-0.389	0.084
-377.888	626.946	0.124	0.311
-376.873	11.363	-0.426	0.324
-375.858	800.000	0.055	0.222
-374.844	211.898	0.090	-0.141
-373.829	-86.463	-0.157	0.048
-372.815	-200.000	0.006	0.155
-371.800	143.412	-0.102	0.135
-370.785	705.433	0.065	0.169
-369.771	-200.000	0.010	0.087
-368.756	259.577	-0.025	0.042
-367.742	-200.000	-0.017	0.208
-366.727	-111.801	-0.173	-0.035
-365.712	800.000	0.043	-0.171
-364.698	-38.635	0.160	-0.084
-363.683	-200.000	0.006	0.037
-362.669	99.043	-0.052	0.059
-361.654	207.673	-0.170	-0.264
-360.639	337.112	-0.088	-0.170
-359.625	-38.419	-0.124	-0.065
-358.610	10.045	0.187	-0.141
-357.596	57.839	-0.258	-0.250
-356.581	157.745	0.106	0.146
-355.566	115.024	0.163	0.197
-354.552	-200.000	-0.021	-0.192
-353.537	800.000	0.044	0.144
-352.523	788.922	-0.084	-0.230
-351.508	176.419	0.026	0.038
-350.493	-21.190	0.258	-0.157
-349.479	87.388	-0.059	0.065
-348.464	275.042	-0.068	-0.119
-347.450	122.577	0.300	-0.372
-346.435	-3.331	-0.236	-0.163
-345.420	-200.000	0.053	0.401
-344.406	354.459	0.223	0.439
-343.391	800.000	0.059	0.239
-342.377	182.984	0.249	-0.364
-341.362	-200.000	-0.051	0.296
-340.348	156.589	-0.226	0.310
-339.333	-68.358	0.233	0.090
-338.318	-172.623	-0.332	-0.010
-337.304	-16.629	0.105	0.066
-336.289	-57.268	0.185	0.081
-335.275	-22.492	0.217	-0.130
-334.260	48.043	-0.114	-0.106
-333.245	168.402	-0.201	-0.283
-332.231	-200.000	-0.027	0.143
-331.216	-47.972	0.244	0.117
-330.202	-164.890	-0.233	-0.010
-329.187	-24.320	0.042	0.025
-328.172	122.896	0.283	-0.351
-327.158	-4.076	-0.104	-0.071
-326.143	-200.000	-0.070	0.604
-325.129	-200.000	-0.069	0.420
-324.114	-200.000	0.005	-0.200
-323.099	61.169	0.261	0.257
-322.085	279.541	0.119	0.210
-321.070	-145.671	-0.221	-0.020
-320.056	800.000	-0.174	-0.516
-319.041	90.312	0.115	-0.128
-318.026	-200.000	0.025	-0.253
-317.012	-165.556	0.257	-0.011
-315.997	-68.339	0.183	-0.070
-314.983	-155.319	-0.519	0.033
-313.968	-200.000	0.000	-0.013
-312.953	-200.000	-0.018	-0.296
-311.939	-88.133	-0.285	-0.085
-310.924	800.000	-0.071	-0.224
-309.910	-168.608	0.200	-0.008
-308.895	186.550	-0.067	-0.099
-307.880	-105.299	0.172	0.039
-306.866	244.836	0.123	0.204
-305.851	-22.892	-0.085	0.051
-304.837	489.579	-0.069	-0.156
-303.822	300.084	0.062	0.113
-302.807	-46.440	0.149	-0.073
-301.793	357.913	0.044	0.087
-300.778	-34.323	-0.153	0.083
-299.764	-35.105	-0.256	-0.138
-298.749	-200.000	0.002	0.170
-297.735	-200.000	-0.045	0.253
-296.720	-16.148	0.282	-0.177
-295.705	-200.000	-0.003	-0.124
-294.691	-51.448	-0.119	-0.055
-293.676	-51.489	-0.019	0.009
-292.662	-14.918	0.173	0.110
-291.647	10.040	0.123	0.093
-290.632	220.522	-0.060	-0.096
-289.618	-70.469	-0.229	-0.086
-288.603	-135.768	0.168	0.020
-287.589	-83.297	-0.192	-0.061
-286.574	-200.000	0.056	-0.321
-285.559	-55.917	-0.047	-0.021
-284.545	-200.000	-0.050	-0.326
-283.530	-200.000	-0.011	-0.098
-282.516	81.459	0.209	0.223
-281.501	-169.199	-0.181	-0.007
-280.486	-116.439	-0.099	0.018
-279.472	70.401	0.077	0.078
-278.457	800.000	0.055	0.202
-277.443	116.579	0.021	0.025
-276.428	-61.120	-0.083	0.035
-275.413	800.000	0.026	-0.104
-274.399	685.460	0.054	0.138
-273.384	346.704	0.103	-0.200
-272.370	141.886	0.168	-0.220
-271.355	-179.020	0.218	-0.005
-270.340	-200.000	-0.066	-0.303
-269.326	-52.827	0.196	-0.089
-268.311	-200.000	0.011	-0.079
-267.297	29.342	0.094	0.079
-266.282	176.541	0.193	0.278
-265.267	-200.000	-0.032	0.203
-264.253	800.000	0.074	0.230
-263.238	-38.332	-0.093	-0.048
-262.224	126.780	-0.128	-0.161
-261.209	-128.700	0.420	0.059
-260.195	275.445	0.097	0.170
-259.180	330.845	0.184	-0.350
-258.165	-200.000	-0.008	-0.202
-257.151	10.178	0.423	0.318
-256.136	118.583	-0.188	0.229
-255.122	9.660	0.108	0.081
-254.107	-200.000	-0.012	-0.117
-253.092	228.855	0.170	0.273
-252.078	7.632	-0.059	-0.044
-251.063	115.919	0.145	-0.175
-250.049	-200.000	0.007	0.107
-249.034	-55.428	0.384	0.170
-248.019	-105.695	-0.108	0.024
-247.005	-16.211	-0.459	0.288
-245.990	-116.898	0.334	0.060
-244.976	-2.398	-0.038	-0.026
-243.961	45.031	0.163	0.148
-242.946	88.956	-0.161	0.177
-241.932	-46.041	0.129	-0.063
-240.917	34.828	0.199	0.172
-239.903	-159.239	-0.360	-0.020
-238.888	-200.000	0.047	0.304
-237.873	800.000	-0.049	0.190
-236.859	-71.634	0.359	0.132
-235.844	-200.000	0.029	0.191
-234.830	-143.926	0.149	0.014
-233.815	-46.612	0.088	-0.043
-232.800	-200.000	0.051	-0.343
-231.786	0.373	-0.218	-0.154
-230.771	-200.000	-0.017	0.278
-229.757	-59.557	0.210	0.089
-228.742	36.142	-0.084	0.073
-227.727	800.000	-0.083	-0.357
-226.713	-147.613	-0.445	0.037
-225.698	-21.837	-0.073	0.044
-224.684	69.980	0.094	0.095
-223.669	562.834	0.116	0.278
-222.655	-108.999	-0.238	-0.050
-221.640	800.000	-0.042	0.143
-220.625	662.950	-0.084	-0.215
-219.611	354.238	-0.074	0.145
-218.596	78.542	0.117	-0.123
-217.582	-121.955	-0.146	-0.024
-216.567	-43.230	-0.112	0.056
-215.552	-200.000	0.006	-0.212
-214.538	215.876	-0.126	-0.197
-213.523	-200.000	0.002	-0.073
-212.509	-78.928	0.012	-0.004
-211.494	-69.824	-0.360	-0.135
-210.479	199.517	-0.114	0.172
-209.465	-144.712	-0.318	0.029
-208.450	4.938	0.178	0.129
-207.436	800.000	0.074	-0.268
-206.421	81.233	0.128	0.137
-205.406	-44.535	0.357	-0.176
-204.392	-200.000	0.027	0.125
-203.377	593.763	-0.036	-0.088
-202.363	800.000	-0.007	0.020
-201.348	800.000	-0.032	-0.110
-200.333	57.915	0.231	0.223
-199.319	-21.674	-0.274	0.164
-198.304	-200.000	0.005	-0.268
-197.290	-107.164	0.192	-0.042
-196.275	424.002	-0.090	0.190
-195.260	-147.102	-0.256	-0.022
-194.246	313.121	-0.081	-0.151
-193.231	611.772	0.013	-0.031
-192.217	86.344	0.059	0.065
-191.202	-67.987	-0.151	-0.058
-190.187	-161.954	-0.138	0.007
-189.173	-200.000	0.018	0.124
-188.158	545.638	-0.057	0.133
-187.144	-157.288	-0.168	-0.010
-186.129	355.996	0.103	0.201
-185.114	334.286	-0.097	-0.185
-184.100	-143.717	0.408	-0.038
-183.085	71.189	-0.157	-0.161
-182.071	-200.000	-0.053	-0.441
-181.056	-200.000	0.001	-0.011
-180.042	-123.738	0.064	-0.010
-179.027	424.926	0.117	0.249
-178.012	194.023	-0.215	-0.320
-176.998	398.288	-0.116	0.240
-175.983	81.815	-0.142	0.152
-174.969	-200.000	0.067	0.317
-173.954	172.958	0.221	-0.314
-172.939	68.079	0.224	-0.226
-171.925	-60.316	0.392	0.164
-170.910	69.749	-0.177	-0.180
-169.896	146.979	0.286	0.379
-168.881	-155.088	0.081	0.005
-167.866	200.320	0.112	-0.169
-166.852	-41.636	0.152	0.077
-165.837	800.000	0.132	-0.436
-164.823	336.881	0.074	0.142
-163.808	-200.000	0.017	0.163
-162.793	-33.818	0.335	0.182
-161.779	-109.807	-0.221	-0.046
-160.764	-166.450	0.154	-0.006
-159.750	-117.456	0.374	-0.067
-158.735	71.137	-0.185	0.189
-157.720	-50.604	-0.203	0.094
-156.706	-200.000	-0.002	0.186
-155.691	-200.000	0.057	0.367
-154.677	51.502	0.195	0.182
-153.662	-99.939	-0.188	0.046
-152.647	-52.225	-0.052	0.024
-151.633	185.750	0.060	-0.088
-150.618	-199.331	-0.495	0.003
-149.604	-60.408	0.258	-0.108
-148.589	119.711	0.117	0.143
-147.574	800.000	0.031	-0.113
-146.560	310.526	-0.054	0.100
-145.545	72.989	-0.209	-0.215
-144.531	13.620	0.199	0.152
-143.516	35.740	0.186	0.161
-142.502	36.252	-0.144	0.125
-141.487	-121.019	-0.181	0.030
-140.472	-119.523	-0.183	0.031
-139.458	441.315	-0.068	-0.147
-138.443	800.000	0.048	-0.169
-137.429	-200.000	0.003	0.235
-136.414	-4.872	0.066	0.045
-135.399	-200.000	0.037	0.192
-134.385	-152.336	0.239	0.017
-133.370	-169.400	0.013	0.000
-132.356	399.388	-0.075	-0.155
-131.341	107.927	0.081	0.095
-130.326	80.345	-0.216	-0.228
-129.312	683.138	0.080	-0.204
-128.297	98.987	0.140	0.159
-127.283	800.000	-0.077	-0.313
-126.268	203.732	0.071	-0.109
-125.253	-102.054	0.304	0.072
-124.239	678.910	0.140	0.359
-123.224	-83.476	0.388	-0.122
-122.210	-200.000	0.031	0.254
-121.195	-54.788	0.105	0.046
-120.180	-108.037	-0.339	-0.072
-119.166	8.170	0.146	0.108
-118.151	-100.899	-0.159	0.038
-117.137	38.534	-0.200	0.176
-116.122	463.571	0.127	0.279
-115.107	800.000	-0.010	0.034
-114.093	175.695	-0.199	0.283
-113.078	-63.983	0.085	-0.034
-112.064	355.539	0.128	0.251
-111.049	-16.781	-0.227	0.141
-110.034	340.264	0.148	0.284
-109.020	-200.000	-0.018	0.185
-108.005	-43.634	0.360	-0.178
-106.991	583.234	0.079	-0.190
-105.976	800.000	0.065	-0.266
-104.962	65.225	-0.153	0.152
-103.947	104.669	-0.096	0.111
-102.932	-77.785	0.223	-0.076
-101.918	-46.726	0.209	0.101
-100.903	174.691	0.186	-0.264
-99.889	-164.816	0.304	0.013
-98.874	-7.185	0.172	-0.115
-97.859	528.070	-0.084	-0.194
-96.845	-29.485	0.288	-0.162
-95.830	1.236	-0.069	0.049
-94.816	-21.332	-0.107	-0.064
-93.801	-200.000	-0.030	0.239
-92.786	-122.463	-0.031	-0.005
-91.772	33.863	0.032	-0.028
-90.757	39.781	0.200	0.176
-89.743	-44.407	0.131	-0.065
-88.728	-21.548	0.390	-0.233
-87.713	-200.000	0.045	0.198
-86.699	-39.922	0.125	-0.064
-85.684	-108.744	0.144	-0.030
-84.670	-187.553	0.031	-0.000
-83.655	800.000	-0.076	0.318
-82.640	800.000	0.021	0.061
-81.626	-116.689	-0.061	-0.011
-80.611	794.015	0.102	0.276
-79.597	-142.003	-0.149	0.015
-78.582	-200.000	-0.015	0.253
-77.567	168.702	-0.048	0.066
-76.553	421.154	-0.194	-0.409
-75.538	109.748	0.277	0.326
-74.524	-10.721	-0.515	0.334
-73.509	-45.449	0.232	0.113
-72.494	800.000	-0.053	0.167
-71.480	-77.092	0.224	-0.076
-70.465	800.000	0.089	0.361
-69.451	-61.268	0.198	-0.082
-68.436	45.189	-0.134	-0.121
-67.422	800.000	0.061	0.236
-66.407	473.414	-0.224	0.495
-65.392	114.013	-0.079	-0.094
-64.378	-200.000	0.033	0.181
-63.363	5.441	-0.070	0.051
-62.349	-78.383	-0.302	-0.102
-61.334	319.790	-0.746	-1.389
-60.319	14.262	0.535	0.409
-59.305	-200.000	-0.077	-1.008
-58.290	243.620	0.589	0.968
-57.276	741.593	0.571	1.506
-56.261	-200.000	105.612	611.101
-55.246	501.356	1508.177	3413.956
-54.232	174.912	2709.312	3845.249
-53.217	104.338	2300.832	2654.678
-52.203	38.665	1904.682	1666.072
-51.188	32.652	1690.974	1433.507
-50.173	30.151	1647.195	1377.778
-49.159	49.030	1701.381	1566.229
-48.144	49.359	1716.545	1582.610
-47.130	32.323	1673.959	1416.386
-46.115	29.731	1659.047	1384.328
-45.100	29.549	1654.267	1378.927
-44.086	29.507	1651.742	1376.458
-43.071	29.509	1648.824	1373.982
-42.057	29.325	1646.733	1370.817
-41.042	29.427	1644.708	1369.834
-40.027	29.393	1643.314	1368.366
-39.013	29.406	1641.048	1366.527
-37.998	29.393	1639.625	1365.191
-36.984	29.416	1638.137	1364.065
-35.969	29.569	1636.459	1363.744
-34.954	29.528	1634.742	1361.956
-33.940	29.591	1633.154	1361.046
-32.925	29.557	1631.427	1359.299
-31.911	29.516	1628.977	1356.903
-30.896	29.531	1627.568	1355.784
-29.881	29.485	1626.075	1354.150
-28.867	29.460	1624.784	1352.840
-27.852	29.581	1622.960	1352.152
-26.838	29.548	1622.202	1351.225
-25.823	29.651	1620.390	1350.415
-24.809	29.689	1618.617	1349.159
-23.794	29.576	1617.900	1347.684
-22.779	29.537	1616.828	1346.454
-21.765	29.511	1614.950	1344.648
-20.750	29.567	1612.938	1343.326
-19.736	29.615	1611.442	1342.380
-18.721	29.622	1610.126	1341.279
-17.706	29.594	1608.984	1340.073
-16.692	29.649	1606.982	1338.748
-15.677	29.603	1605.680	1337.280
-14.663	29.688	1604.583	1336.928
-13.648	29.623	1603.416	1335.428
-12.633	29.640	1601.629	1334.016
-11.619	29.581	1600.118	1332.278
-10.604	29.666	1598.678	1331.639
-9.590	29.553	1597.682	1329.937
-8.575	29.688	1595.742	1329.247
-7.560	29.568	1595.332	1327.984
-6.546	29.526	1594.172	1326.669
-5.531	29.632	1592.741	1326.186
-4.517	29.608	1591.737	1325.122
-3.502	29.589	1590.842	1324.186
-2.487	29.593	1589.584	1323.117
-1.473	29.483	1577.369	1312.113
-0.458	26.757	1557.885	1276.685
0.556	21.045	1559.839	1247.682
1.571	18.834	1585.437	1251.950
2.586	18.621	1598.938	1260.932
3.600	16.883	1545.812	1206.568
4.615	8.877	1436.043	1067.656
5.629	1.239	1372.415	971.494
6.644	-0.185	1363.713	956.186
7.659	-0.301	1362.842	954.753
8.673	-0.355	1362.181	953.860
9.688	-0.348	1360.035	952.320
10.702	-0.486	1356.654	948.993
11.717	3.024	1364.418	976.669
12.731	12.434	1381.812	1049.360
13.746	19.765	1393.740	1105.361
14.761	21.605	1396.399	1119.147
15.775	21.910	1396.044	1120.711
16.790	21.916	1395.458	1120.179
17.804	22.050	1394.766	1120.377
18.819	22.251	1394.371	1121.246
19.834	22.291	1394.210	1121.272
20.848	22.387	1393.265	1121.025
21.863	22.301	1392.224	1119.537
22.877	22.391	1391.308	1119.274
23.892	22.311	1390.976	1118.399
24.907	22.303	1390.011	1117.476
25.921	22.363	1389.039	1116.977
26.936	22.345	1387.921	1115.864
27.950	22.376	1386.661	1114.947
28.965	22.464	1385.451	1114.432
29.980	22.395	1384.319	1112.990
30.994	22.402	1382.861	1111.762
32.009	22.305	1382.386	1110.667
33.023	22.204	1381.575	1109.280
34.038	22.402	1380.268	1109.384
35.053	22.298	1379.321	1107.868
36.067	22.330	1378.048	1106.948
37.082	22.374	1377.153	1106.408
38.096	22.319	1376.117	1105.134
39.111	22.288	1375.800	1104.584
40.126	22.284	1375.116	1103.915
41.140	22.356	1374.342	1103.648
42.155	22.182	1374.285	1102.412
43.169	22.266	1374.242	1102.803
44.184	22.298	1373.800	1102.551
45.199	22.337	1373.362	1102.347
46.213	22.404	1372.622	1102.077
47.228	22.356	1371.664	1100.909
48.242	22.293	1370.732	1099.670
49.257	22.304	1368.995	1098.248
50.271	22.427	1367.027	1097.341
51.286	22.377	1366.340	1096.378
52.301	22.314	1365.192	1094.971
53.315	22.310	1364.624	1094.394
54.330	22.417	1363.379	1093.964
55.344	22.296	1362.173	1092.147
56.359	22.237	1361.485	1091.135
57.374	22.364	1360.320	1090.886
58.388	22.430	1359.846	1090.819
59.403	22.375	1359.363	1089.998
60.417	22.285	1358.554	1088.695
61.432	22.266	1357.922	1087.972
62.447	22.386	1356.854	1087.765
63.461	22.352	1355.622	1086.467
64.476	22.344	1355.139	1085.938
65.490	22.411	1353.421	1084.874
66.505	22.443	1351.789	1083.667
67.520	22.405	1350.659	1082.432
68.534	22.323	1350.039	1081.338
69.549	22.472	1348.831	1081.189
70.563	22.360	1348.495	1080.137
71.578	22.369	1347.134	1079.005
72.593	22.338	1347.030	1078.640
73.607	22.400	1345.649	1077.817
74.622	22.418	1344.791	1077.144
75.636	22.288	1344.884	1076.329
76.651	22.435	1343.235	1075.812
77.666	22.400	1343.046	1075.351
78.680	22.310	1342.977	1074.648
79.695	22.364	1341.830	1073.968
80.709	22.241	1341.067	1072.509
81.724	22.389	1339.863	1072.353
82.739	22.415	1339.046	1071.764
83.753	22.308	1338.513	1070.591
84.768	22.331	1336.845	1069.306
85.782	22.306	1335.748	1068.180
86.797	22.338	1334.891	1067.591
87.812	22.337	1333.706	1066.546
88.826	22.328	1332.547	1065.467
89.841	22.470	1331.043	1065.033
90.855	22.419	1330.593	1064.272
91.870	22.515	1329.380	1063.787
92.884	22.448	1328.785	1062.809
93.899	22.461	1327.982	1062.151
94.914	22.483	1327.153	1061.528
95.928	22.497	1326.351	1060.877
96.943	22.447	1325.471	1059.778
97.957	22.348	1325.014	1058.722
98.972	22.471	1323.540	1058.190
99.987	22.394	1322.951	1057.161
101.001	22.462	1321.187	1056.066
102.016	22.374	1321.260	1055.507
103.030	22.435	1319.948	1054.731
104.045	22.490	1319.228	1054.391
105.060	22.383	1318.616	1053.165
106.074	22.442	1317.132	1052.242
107.089	22.520	1315.963	1051.678
108.103	22.538	1314.585	1050.591
109.118	22.401	1314.017	1049.229
110.133	22.487	1312.674	1048.575
111.147	22.452	1311.505	1047.339
112.162	22.475	1310.460	1046.552
113.176	22.410	1309.761	1045.516
114.191	22.459	1309.023	1045.125
115.206	22.475	1307.392	1043.824
116.220	22.526	1306.097	1043.002
117.235	22.435	1305.679	1042.037
118.249	22.464	1304.706	1041.336
119.264	22.463	1303.855	1040.562
120.279	22.446	1303.235	1039.872
121.293	22.490	1302.635	1039.560
122.308	22.547	1301.186	1038.649
123.322	22.455	1300.117	1037.163
124.337	22.596	1299.328	1037.270
125.352	22.609	1298.358	1036.482
126.366	22.507	1297.965	1035.478
127.381	22.665	1296.871	1035.441
128.395	22.579	1295.735	1033.937
129.410	22.607	1294.763	1033.235
130.424	22.433	1294.468	1031.889
131.439	22.549	1293.274	1031.526
132.454	22.510	1292.344	1030.461
133.468	22.405	1292.113	1029.574
134.483	22.541	1291.179	1029.534
135.497	22.522	1290.428	1028.731
136.512	22.501	1288.940	1027.330
137.527	22.534	1288.003	1026.685
138.541	22.537	1286.488	1025.404
139.556	22.509	1285.194	1024.122
140.570	22.559	1284.340	1023.639
141.585	22.593	1282.904	1022.600
142.600	22.525	1282.237	1021.585
143.614	22.498	1281.495	1020.749
144.629	22.518	1280.316	1019.836
145.643	22.519	1279.076	1018.760
146.658	22.431	1278.062	1017.358
147.673	22.428	1277.270	1016.620
148.687	22.517	1276.470	1016.406
149.702	22.432	1275.046	1014.690
150.716	22.388	1274.358	1013.802
151.731	22.517	1272.803	1013.216
152.746	22.546	1271.889	1012.563
153.760	22.542	1270.947	1011.704
154.775	22.522	1270.074	1010.802
155.789	22.547	1268.907	1009.928
156.804	22.603	1268.148	1009.556
157.819	22.565	1267.250	1008.533
158.833	22.536	1266.684	1007.830
159.848	22.622	1265.501	1007.290
160.862	22.638	1264.920	1006.826
161.877	22.584	1263.931	1005.646
162.892	22.583	1263.237	1004.996
163.906	22.664	1262.461	1004.752
164.921	22.620	1261.718	1003.823
165.935	22.663	1260.530	1003.030
166.950	22.650	1260.289	1002.680
167.964	22.670	1259.205	1001.841
168.979	22.664	1258.798	1001.395
169.994	22.586	1258.312	1000.475
171.008	22.643	1257.444	1000.018
172.023	22.739	1256.828	999.984
173.037	22.690	1256.274	999.177
174.052	22.715	1255.679	998.760
175.067	22.688	1254.594	997.657
176.081	22.688	1254.117	997.190
177.096	22.740	1253.114	996.596
178.110	22.661	1252.132	995.278
179.125	22.783	1250.863	994.869
180.140	22.791	1250.027	994.164
181.154	22.610	1249.082	992.304
182.169	22.697	1247.836	991.715
183.183	22.669	1247.044	990.840
184.198	22.710	1246.169	990.290
185.213	22.718	1245.168	989.452
186.227	22.697	1244.448	988.673
187.242	22.755	1243.101	987.841
188.256	22.820	1242.483	987.629
189.271	22.736	1241.613	986.379
190.286	22.832	1240.353	985.825
191.300	22.734	1240.469	985.281
192.315	22.827	1239.568	984.998
193.329	22.794	1239.297	984.513
194.344	22.851	1238.742	984.304
195.359	22.778	1238.535	983.645
196.373	22.795	1237.745	983.023
197.388	22.695	1237.398	982.108
198.402	22.586	1237.660	981.619
199.417	22.688	1236.248	980.982
200.432	22.648	1235.976	980.456
201.446	22.720	1235.223	980.171
202.461	22.704	1234.897	979.738
203.475	22.743	1233.581	978.825
204.490	22.767	1232.216	977.786
205.504	22.741	1231.655	977.110
206.519	22.897	1230.096	976.647
207.534	22.862	1229.503	975.900
208.548	22.848	1228.671	975.076
209.563	22.877	1228.191	974.769
210.577	22.747	1227.280	973.243
211.592	22.768	1226.387	972.561
212.607	22.815	1226.105	972.510
213.621	22.945	1225.002	972.269
214.636	22.941	1224.163	971.494
215.650	22.960	1223.456	970.949
216.665	22.837	1222.296	969.271
217.680	22.818	1221.644	968.560
218.694	22.875	1221.032	968.301
219.709	22.922	1220.188	967.804
220.723	22.926	1219.384	967.106
221.738	22.859	1218.829	966.213
222.753	22.807	1218.253	965.384
223.767	22.819	1217.376	964.668
224.782	22.973	1216.995	965.124
225.796	22.856	1216.875	964.302
226.811	22.966	1215.843	964.002
227.826	22.933	1215.429	963.408
228.840	23.036	1214.532	963.175
229.855	22.908	1213.919	961.905
230.869	22.948	1213.452	961.667
231.884	22.909	1212.703	960.774
232.899	22.877	1211.993	959.953
233.913	23.005	1211.251	959.978
234.928	23.068	1210.574	959.699
235.942	23.064	1210.159	959.264
236.957	22.982	1209.837	958.478
237.972	22.989	1209.145	957.880
238.986	22.951	1208.438	957.033
240.001	23.026	1207.559	956.657
241.015	23.123	1206.404	956.181
242.030	23.132	1205.612	955.515
243.045	23.134	1204.939	954.911
244.059	23.119	1204.465	954.372
245.074	23.219	1203.288	953.893
246.088	23.266	1202.894	953.747
247.103	23.210	1201.889	952.563
248.117	23.182	1201.049	951.664
249.132	23.185	1200.205	950.929
250.147	23.252	1199.770	950.859
251.161	23.219	1198.959	949.954
252.176	23.098	1198.534	948.887
253.190	23.313	1197.605	949.218
254.205	23.280	1197.213	948.645
255.220	23.065	1196.552	946.888
256.234	23.100	1196.492	946.941
257.249	23.213	1195.276	946.500
258.263	23.195	1194.694	945.859
259.278	23.347	1194.039	946.068
260.293	23.319	1193.698	945.566
261.307	23.272	1192.990	944.670
262.322	23.256	1192.579	944.175
263.336	23.333	1191.733	943.832
264.351	23.273	1191.327	943.109
265.366	23.204	1191.139	942.510
266.380	23.220	1190.384	941.913
267.395	23.296	1189.458	941.501
268.409	23.174	1188.774	940.231
269.424	23.264	1188.432	940.352
270.439	23.317	1188.132	940.316
271.453	23.367	1187.170	939.736
272.468	23.334	1186.129	938.651
273.482	23.361	1185.102	937.898
274.497	23.278	1185.261	937.504
275.512	23.244	1184.958	937.000
276.526	23.257	1183.684	935.978
277.541	23.405	1182.884	936.047
278.555	23.426	1182.206	935.537
279.570	23.372	1181.874	934.908
280.585	23.332	1181.013	933.930
281.599	23.413	1180.189	933.624
282.614	23.379	1179.490	932.812
283.628	23.386	1178.678	932.124
284.643	23.396	1177.575	931.220
285.657	23.470	1176.761	930.882
286.672	23.416	1175.801	929.758
287.687	23.528	1175.074	929.685
288.701	23.484	1174.804	929.160
289.716	23.508	1173.901	928.491
290.730	23.553	1172.877	927.836
291.745	23.501	1172.474	927.160
292.760	23.528	1171.960	926.812
293.774	23.536	1171.109	926.102
294.789	23.566	1171.029	926.111
295.803	23.590	1170.462	925.705
296.818	23.499	1169.940	924.736
297.833	23.507	1169.009	923.963
298.847	23.481	1168.586	923.408
299.862	23.657	1167.466	923.358
300.876	23.580	1166.915	922.441
301.891	23.556	1166.521	921.920
302.906	23.775	1165.246	921.967
303.920	23.698	1165.116	921.388
304.935	23.594	1164.466	920.249
305.949	23.541	1163.706	919.292
306.964	23.728	1163.151	919.745
307.979	23.807	1162.354	919.440
308.993	23.755	1161.712	918.583
310.008	23.743	1161.152	917.996
311.022	23.740	1160.253	917.191
312.037	23.696	1159.688	916.435
313.052	23.695	1158.932	915.751
314.066	23.841	1157.567	915.341
315.081	23.767	1157.154	914.555
316.095	23.702	1156.863	913.909
317.110	23.782	1156.089	913.626
318.125	23.872	1154.870	913.047
319.139	23.725	1154.893	912.227
320.154	23.758	1154.194	911.767
321.168	23.831	1153.774	911.729
322.183	23.771	1152.743	910.523
323.197	23.849	1152.188	910.407
324.212	23.813	1151.852	909.874
325.227	23.756	1151.043	908.862
326.241	23.767	1151.188	908.954
327.256	23.858	1149.847	908.276
328.270	23.823	1149.131	907.452
329.285	23.923	1148.330	907.254
330.300	23.912	1147.695	906.612
331.314	23.968	1146.634	905.981
332.329	23.874	1145.685	904.671
333.343	23.924	1145.384	904.606
334.358	24.027	1144.444	904.309
335.373	23.949	1144.125	903.579
336.387	23.956	1143.635	903.149
337.402	23.948	1142.737	902.321
338.416	23.986	1141.747	901.653
339.431	23.988	1141.434	901.337
340.446	24.044	1140.320	900.660
341.460	24.150	1139.733	900.652
342.475	24.071	1139.131	899.697
343.489	23.996	1138.461	898.708
344.504	24.067	1137.200	897.991
345.519	24.202	1136.188	897.793
346.533	23.945	1136.002	896.272
347.548	24.070	1135.191	896.182
348.562	24.132	1134.100	895.551
349.577	24.074	1133.778	894.928
350.592	24.142	1132.830	894.441
351.606	24.045	1132.209	893.384
352.621	24.141	1131.443	893.187
353.635	24.072	1131.161	892.538
354.650	24.256	1130.583	892.922
355.665	24.139	1130.257	892.003
356.679	24.295	1129.010	891.719
357.694	24.148	1128.957	890.861
358.708	24.340	1127.441	890.548
359.723	24.235	1127.332	889.856
360.738	24.193	1126.581	888.976
361.752	24.181	1125.741	888.176
362.767	24.270	1125.644	888.466
363.781	24.385	1124.626	888.156
364.796	24.270	1124.400	887.325
365.810	24.218	1124.207	886.835
366.825	24.254	1123.316	886.234
367.840	24.363	1122.728	886.233
368.854	24.405	1121.875	885.689
369.869	24.521	1120.960	885.463
370.883	24.384	1120.709	884.506
371.898	24.369	1119.999	883.792
372.913	24.304	1119.516	883.014
373.927	24.385	1119.002	882.932
374.942	24.500	1118.347	882.904
375.956	24.430	1117.863	882.096
376.971	24.405	1117.310	881.460
377.986	24.423	1116.479	880.814
379.000	24.526	1116.082	880.933
380.015	24.537	1115.420	880.387
381.029	24.432	1114.824	879.322
382.044	24.494	1114.403	879.217
383.059	24.469	1113.720	878.475
384.073	24.661	1112.256	878.186
385.088	24.489	1112.138	877.171
386.102	24.549	1111.470	876.862
387.117	24.442	1110.677	875.633
388.132	24.477	1109.525	874.819
389.146	24.624	1108.753	874.851
390.161	24.681	1108.278	874.681
391.175	24.658	1107.572	873.933
392.190	24.589	1106.911	872.998
393.205	24.655	1106.003	872.523
394.219	24.555	1105.575	871.621
395.234	24.773	1104.387	871.669
396.248	24.717	1103.628	870.720
397.263	24.749	1102.445	869.868
398.278	24.742	1102.179	869.546
399.292	24.889	1101.702	869.807
400.307	24.659	1101.494	868.449
401.321	24.762	1100.493	868.084
402.336	24.691	1100.101	867.350
403.350	24.639	1099.440	866.504
404.365	24.595	1098.776	865.687
405.380	24.790	1098.145	866.058
406.394	24.759	1097.289	865.159
407.409	24.835	1096.356	864.714
408.423	24.887	1095.687	864.359
409.438	24.812	1095.267	863.590
410.453	24.929	1094.501	863.475
411.467	24.854	1093.990	862.631
412.482	24.902	1092.800	861.849
413.496	24.967	1092.324	861.710
414.511	24.913	1091.954	861.080
415.526	24.880	1091.439	860.443
416.540	24.906	1091.063	860.195
417.555	24.979	1090.167	859.759
418.569	24.930	1090.025	859.337
419.584	24.983	1089.675	859.239
420.599	25.110	1088.962	859.212
421.613	147.986	1403.153	1798.752
422.628	136.868	1448.903	1798.836
