DTS Sentinel unit serial number:	SN413079Multiplexer serial number:	ORYXHardware model number:	OX4-SRSoftware version number:	ORYX F/W v4.00 Oryx Data Collector v3.7.2.0data status	okinstallation	princeton_trtdifferential loss correction	single-endedforward channel	channel 2reverse channel	N/Adate	2019/09/10time	23:37:10forward acquisition time	60.00reverse acquisition time	0.00gamma	496.2192k internal	0.2330k external	0.2330temperature offset calibration	0.9948default loss term (dB/km)	0.3790temperature slope calibration	1.0000multiplexer offset coefficient	1.0000multiplexer slope coefficient	1.0000fibre end	0.00T internal ref (°C)	29.62T ext. ref 1 (°C)	-0.32T ext. ref 2 (°C)	23.06length (m)	temperature (°C)	Stokes	anti-Stokes-747.200	-115.182	0.213	-0.041
-746.185	-66.764	0.319	0.127
-745.171	-200.000	0.019	-0.128
-744.156	800.000	0.016	0.053
-743.142	93.849	0.075	-0.085
-742.127	-200.000	-0.019	0.210
-741.112	153.278	0.193	-0.266
-740.098	-117.111	-0.571	0.105
-739.083	534.506	0.010	0.025
-738.069	236.300	0.160	0.266
-737.054	461.814	0.131	0.294
-736.039	-185.315	-0.133	0.002
-735.025	-200.000	-0.021	0.240
-734.010	443.684	0.119	0.262
-732.996	151.892	0.092	0.126
-731.981	-168.970	0.169	0.006
-730.966	-43.450	-0.139	-0.071
-729.952	-174.210	-0.197	0.006
-728.937	-193.993	-0.114	0.001
-727.923	14.113	-0.029	-0.022
-726.908	29.944	0.153	-0.131
-725.894	297.986	-0.041	0.076
-724.879	-70.155	-0.200	0.076
-723.864	293.935	0.057	-0.105
-722.850	578.042	0.105	-0.259
-721.835	71.997	-0.144	-0.150
-720.821	3.701	0.291	0.213
-719.806	-78.613	0.354	0.122
-718.791	-200.000	0.048	-0.266
-717.777	52.438	-0.381	0.366
-716.762	-115.913	-0.151	-0.028
-715.748	-112.849	-0.123	-0.025
-714.733	-29.070	-0.100	0.057
-713.718	-200.000	0.001	0.032
-712.704	800.000	-0.041	0.118
-711.689	-148.356	-0.258	0.021
-710.675	377.628	0.106	-0.217
-709.660	-182.395	0.184	-0.003
-708.645	-73.616	0.327	0.120
-707.631	183.686	0.076	-0.114
-706.616	180.478	-0.024	-0.036
-705.602	-73.679	-0.290	-0.106
-704.587	71.075	0.275	0.286
-703.572	488.946	-0.101	-0.231
-702.558	305.634	0.117	-0.219
-701.543	198.593	0.211	0.324
-700.529	371.756	0.078	0.159
-699.514	62.247	-0.063	-0.064
-698.499	35.956	-0.127	0.112
-697.485	368.848	0.182	-0.371
-696.470	316.212	-0.135	-0.256
-695.456	-200.000	0.006	0.039
-694.441	800.000	-0.117	-0.355
-693.426	163.834	0.066	0.093
-692.412	800.000	0.028	0.120
-691.397	-200.000	-0.001	0.194
-690.383	-153.397	-0.496	-0.035
-689.368	-129.515	0.049	0.007
-688.354	-200.000	0.006	0.514
-687.339	27.625	0.203	0.172
-686.324	-200.000	0.019	-0.160
-685.310	157.615	0.153	-0.213
-684.295	90.132	-0.069	0.077
-683.281	800.000	-0.021	0.061
-682.266	23.445	-0.187	0.154
-681.251	-69.814	0.175	0.067
-680.237	-179.164	0.241	0.005
-679.222	9.806	0.136	-0.104
-678.208	-200.000	0.052	-0.332
-677.193	13.777	0.052	0.041
-676.178	-112.728	-0.230	0.046
-675.164	-44.554	0.144	-0.072
-674.149	106.129	0.067	0.079
-673.135	-117.461	-0.356	-0.065
-672.120	-4.212	-0.104	-0.072
-671.105	-42.415	-0.125	-0.064
-670.091	6.429	-0.312	0.233
-669.076	-85.613	-0.397	0.124
-668.062	32.976	0.221	0.192
-667.047	-42.949	-0.081	-0.041
-666.032	329.129	0.063	0.121
-665.018	140.218	0.060	0.079
-664.003	-145.919	-0.178	-0.016
-662.989	-200.000	-0.005	0.091
-661.974	-22.518	-0.289	-0.175
-660.959	800.000	0.049	-0.141
-659.945	122.617	-0.061	-0.076
-658.930	61.600	0.333	-0.333
-657.916	15.787	0.073	0.058
-656.901	-48.046	-0.039	0.019
-655.886	-200.000	-0.024	-0.244
-654.872	-7.113	0.245	0.167
-653.857	-200.000	0.057	-0.323
-652.843	-200.000	-0.018	-0.091
-651.828	185.933	0.057	-0.086
-650.814	-97.631	-0.161	0.042
-649.799	732.837	-0.058	-0.156
-648.784	-48.824	-0.097	-0.047
-647.770	800.000	-0.067	-0.246
-646.755	-6.814	0.446	-0.304
-645.741	240.829	-0.111	-0.186
-644.726	78.719	-0.072	-0.077
-643.711	428.109	-0.099	0.214
-642.697	235.373	-0.187	-0.309
-641.682	206.693	-0.048	-0.074
-640.668	-200.000	0.013	-0.217
-639.653	800.000	-0.111	-0.350
-638.638	73.337	0.159	-0.167
-637.624	-200.000	-0.007	0.343
-636.609	24.452	-0.175	-0.145
-635.595	-113.249	0.254	0.050
-634.580	-165.172	-0.094	-0.004
-633.565	30.646	0.225	0.193
-632.551	78.305	-0.125	0.133
-631.536	18.523	0.338	0.271
-630.522	34.593	0.042	0.037
-629.507	800.000	-0.053	0.210
-628.492	168.682	-0.159	-0.227
-627.478	17.338	-0.177	0.141
-626.463	-155.263	-0.193	0.013
-625.449	-36.915	-0.209	-0.112
-624.434	592.379	0.075	0.187
-623.419	-78.957	0.017	0.006
-622.405	69.683	-0.201	0.207
-621.390	-200.000	-0.032	0.181
-620.376	-122.255	0.465	-0.076
-619.361	800.000	-0.037	-0.136
-618.346	190.668	0.042	-0.063
-617.332	-167.744	-0.140	0.006
-616.317	145.702	-0.049	-0.066
-615.303	16.039	-0.120	0.095
-614.288	-200.000	-0.002	0.051
-613.273	-200.000	0.024	0.191
-612.259	-91.123	-0.331	0.095
-611.244	169.004	-0.205	0.294
-610.230	113.816	0.116	0.142
-609.215	-200.000	0.016	0.092
-608.201	-87.936	-0.254	-0.077
-607.186	-200.000	-0.008	0.175
-606.171	-122.744	0.146	0.024
-605.157	1.287	-0.073	0.053
-604.142	-200.000	0.032	-0.236
-603.128	-179.735	0.189	-0.004
-602.113	-158.039	-0.174	-0.010
-601.098	404.442	-0.152	-0.320
-600.084	698.009	-0.118	-0.310
-599.069	506.902	0.133	-0.309
-598.055	-29.693	0.349	0.199
-597.040	-200.000	-0.011	0.228
-596.025	179.453	0.117	-0.171
-595.011	-200.000	0.063	0.309
-593.996	-200.000	-0.006	-0.222
-592.982	-98.688	0.085	-0.022
-591.967	165.790	0.077	-0.109
-590.952	-107.431	-0.424	0.093
-589.938	-200.000	0.018	0.219
-588.923	-186.784	-0.438	0.006
-587.909	-200.000	0.002	-0.130
-586.894	-172.219	0.330	0.011
-585.879	-200.000	-0.022	-0.181
-584.865	355.234	-0.082	-0.163
-583.850	-200.000	-0.055	-0.283
-582.836	-22.162	0.173	0.105
-581.821	525.824	0.052	-0.122
-580.806	800.000	-0.038	0.158
-579.792	800.000	0.005	0.013
-578.777	800.000	-0.023	0.096
-577.763	147.516	-0.105	0.141
-576.748	138.217	-0.067	-0.087
-575.733	236.951	0.045	-0.075
-574.719	-82.177	-0.374	0.122
-573.704	179.470	-0.177	0.259
-572.690	57.171	-0.055	0.053
-571.675	800.000	0.058	-0.225
-570.661	99.474	0.065	-0.075
-569.646	25.478	-0.085	-0.071
-568.631	-9.984	0.204	-0.136
-567.617	60.249	-0.064	-0.063
-566.602	234.938	-0.116	-0.191
-565.588	354.371	0.038	-0.076
-564.573	-59.999	-0.248	0.106
-563.558	-105.950	0.350	0.079
-562.544	84.231	0.123	0.134
-561.529	-75.067	-0.074	-0.026
-560.515	-85.466	-0.314	-0.098
-559.500	174.515	-0.085	0.123
-558.485	-83.712	0.157	0.050
-557.471	-104.077	-0.185	-0.043
-556.456	800.000	0.052	-0.150
-555.442	-31.084	-0.043	0.024
-554.427	21.785	-0.238	0.194
-553.412	-24.139	-0.261	-0.156
-552.398	498.497	0.132	-0.305
-551.383	72.180	-0.085	0.088
-550.369	0.769	0.077	-0.055
-549.354	-84.141	0.220	0.070
-548.339	219.176	0.096	-0.154
-547.325	-60.908	-0.341	-0.144
-546.310	-54.387	0.183	0.083
-545.296	708.961	-0.138	-0.364
-544.281	109.520	0.157	0.187
-543.266	26.360	-0.147	0.123
-542.252	36.206	0.105	0.093
-541.237	-42.646	0.296	0.150
-540.223	-90.268	0.439	-0.127
-539.208	-148.676	0.186	-0.015
-538.193	-200.000	-0.087	-0.388
-537.179	67.765	-0.172	0.176
-536.164	301.693	-0.020	0.036
-535.150	-94.577	0.411	0.112
-534.135	-200.000	-0.047	0.250
-533.121	126.709	-0.095	-0.121
-532.106	-102.092	0.212	-0.051
-531.091	265.101	0.156	0.271
-530.077	-25.489	-0.131	-0.077
-529.062	9.007	-0.273	-0.205
-528.048	549.880	-0.150	-0.359
-527.033	-124.568	0.125	-0.019
-526.018	-200.000	-0.029	-0.222
-525.004	-36.812	-0.071	0.038
-523.989	800.000	0.043	0.157
-522.975	-49.212	-0.035	0.017
-521.960	0.362	-0.081	-0.058
-520.945	532.845	-0.064	0.152
-519.931	25.131	-0.420	0.348
-518.916	-45.047	-0.167	-0.083
-517.902	123.885	-0.135	-0.169
-516.887	-122.346	0.280	0.046
-515.872	-68.223	-0.161	0.062
-514.858	-68.018	0.402	0.157
-513.843	265.503	-0.223	-0.389
-512.829	-200.000	-0.009	-0.084
-511.814	-200.000	-0.007	0.035
-510.799	-40.814	0.245	0.127
-509.785	-2.147	0.195	-0.137
-508.770	800.000	-0.121	-0.467
-507.756	130.535	0.106	0.135
-506.741	800.000	0.025	0.091
-505.726	-200.000	0.044	0.000
-504.712	531.903	0.197	0.465
-503.697	-200.000	0.014	-0.174
-502.683	127.793	-0.063	0.079
-501.668	112.545	-0.173	-0.208
-500.653	-200.000	0.019	0.085
-499.639	-122.882	0.059	0.010
-498.624	298.648	0.091	-0.167
-497.610	-76.557	0.092	-0.032
-496.595	-200.000	0.020	0.131
-495.581	800.000	-0.091	0.256
-494.566	258.676	-0.082	0.141
-493.551	-5.433	-0.248	0.170
-492.537	29.144	-0.117	0.099
-491.522	45.128	-0.095	0.087
-490.508	-200.000	-0.010	0.183
-489.493	-200.000	-0.048	0.224
-488.478	-46.496	0.103	-0.051
-487.464	800.000	0.089	-0.300
-486.449	-0.560	-0.151	-0.107
-485.435	-139.753	-0.254	-0.027
-484.420	265.195	0.098	-0.170
-483.405	-89.175	-0.176	-0.052
-482.391	142.403	0.080	-0.106
-481.376	-90.181	-0.216	0.062
-480.362	-81.605	-0.157	0.051
-479.347	-134.189	0.317	0.039
-478.332	72.319	-0.152	0.158
-477.318	800.000	0.032	-0.102
-476.303	-166.574	0.171	0.007
-475.289	103.110	0.092	-0.107
-474.274	-63.768	-0.030	0.012
-473.259	74.693	0.277	-0.290
-472.245	-152.316	0.211	-0.015
-471.230	-119.333	0.569	0.099
-470.216	107.110	-0.120	0.142
-469.201	800.000	-0.033	-0.139
-468.186	13.102	0.081	0.063
-467.172	-124.384	-0.310	0.048
-466.157	-149.647	0.427	-0.034
-465.143	-200.000	-0.058	-0.260
-464.128	-92.884	-0.172	0.048
-463.113	-200.000	0.017	0.106
-462.099	91.692	-0.058	0.065
-461.084	112.242	-0.295	0.355
-460.070	-185.048	0.208	0.003
-459.055	-157.472	-0.383	-0.023
-458.040	-1.701	0.194	0.136
-457.026	233.843	0.263	-0.430
-456.011	13.984	0.133	0.103
-454.997	20.105	0.033	-0.027
-453.982	-200.000	-0.192	0.000
-452.968	81.042	0.171	0.184
-451.953	-200.000	0.010	0.241
-450.938	-130.212	0.137	0.019
-449.924	-200.000	0.038	-0.249
-448.909	72.160	-0.262	-0.271
-447.895	760.679	-0.050	-0.134
-446.880	-108.562	-0.119	0.025
-445.865	-98.433	0.286	0.073
-444.851	800.000	-0.025	0.074
-443.836	-48.456	-0.048	-0.023
-442.822	800.000	-0.092	0.273
-441.807	683.899	-0.156	0.405
-440.792	135.907	0.227	0.294
-439.778	-32.726	-0.049	-0.027
-438.763	-96.586	-0.184	0.048
-437.749	632.519	0.010	0.025
-436.734	108.473	0.162	-0.192
-435.719	108.208	-0.024	0.028
-434.705	-15.114	-0.071	0.045
-433.690	-127.923	-0.097	0.014
-432.676	800.000	-0.034	0.103
-431.661	19.688	-0.144	0.115
-430.646	-37.739	-0.051	0.027
-429.632	54.562	-0.189	0.182
-428.617	-200.000	0.046	-0.207
-427.603	350.744	-0.052	0.103
-426.588	-200.000	0.086	-0.411
-425.573	62.454	0.201	-0.200
-424.559	35.589	0.146	-0.128
-423.544	60.624	0.093	0.091
-422.530	378.066	0.103	0.210
-421.515	-3.143	-0.337	0.234
-420.500	-200.000	0.052	0.618
-419.486	-55.402	0.148	0.066
-418.471	-51.731	0.054	0.025
-417.457	583.226	0.102	-0.248
-416.442	-74.773	-0.114	0.041
-415.428	-73.174	-0.153	-0.056
-414.413	-200.000	0.005	0.058
-413.398	-200.000	-0.041	-0.344
-412.384	-108.985	-0.056	0.012
-411.369	501.845	0.202	-0.464
-410.355	116.827	-0.017	-0.021
-409.340	-63.686	0.299	0.122
-408.325	-104.712	-0.348	0.080
-407.311	265.216	-0.033	-0.058
-406.296	-200.000	0.102	0.488
-405.282	-117.057	0.201	-0.036
-404.267	-93.894	-0.129	0.035
-403.252	96.650	-0.078	-0.089
-402.238	-20.692	0.334	-0.204
-401.223	21.580	-0.198	0.160
-400.209	268.915	0.143	0.249
-399.194	-31.684	-0.181	0.101
-398.179	-200.000	0.019	0.297
-397.165	29.334	0.121	0.102
-396.150	-61.197	-0.143	0.060
-395.136	168.781	-0.144	0.204
-394.121	689.541	-0.040	0.105
-393.106	-138.438	0.290	-0.032
-392.092	-200.000	-0.050	0.235
-391.077	-10.391	0.067	-0.044
-390.063	349.112	-0.091	0.178
-389.048	84.184	-0.173	0.187
-388.033	-200.000	0.042	-0.193
-387.019	-200.000	0.047	-0.398
-386.004	-91.136	-0.341	0.097
-384.990	-3.627	-0.161	0.111
-383.975	8.923	-0.134	0.100
-382.960	-55.591	0.079	0.035
-381.946	40.511	-0.189	-0.169
-380.931	-200.000	-0.061	0.379
-379.917	157.707	0.106	0.146
-378.902	-200.000	0.003	-0.035
-377.888	84.436	0.178	0.193
-376.873	-153.461	-0.215	0.015
-375.858	800.000	0.028	-0.108
-374.844	-96.027	-0.090	0.024
-373.829	331.238	-0.214	-0.409
-372.815	126.795	-0.103	-0.129
-371.800	-74.991	0.062	0.022
-370.785	351.600	0.019	-0.036
-369.771	369.301	-0.065	0.130
-368.756	-200.000	-0.011	0.066
-367.742	-62.121	0.241	-0.100
-366.727	242.958	-0.107	0.178
-365.712	163.032	-0.036	0.050
-364.698	-45.508	0.428	0.210
-363.683	-200.000	0.019	-0.414
-362.669	96.922	0.208	-0.236
-361.654	800.000	0.032	0.105
-360.639	27.236	-0.291	-0.242
-359.625	-15.062	-0.255	-0.162
-358.610	-200.000	-0.025	0.132
-357.596	-106.932	-0.231	-0.051
-356.581	800.000	0.029	-0.090
-355.566	-129.788	0.110	0.015
-354.552	612.537	-0.024	0.058
-353.537	-18.504	0.196	0.121
-352.523	-165.887	0.150	0.006
-351.508	800.000	0.038	0.124
-350.493	483.566	-0.089	0.201
-349.479	81.515	0.226	-0.242
-348.464	268.284	-0.010	0.018
-347.450	-83.188	-0.092	0.029
-346.435	-102.059	-0.161	0.038
-345.420	-93.573	-0.172	0.047
-344.406	800.000	0.040	-0.114
-343.391	-200.000	-0.017	0.327
-342.377	294.037	0.183	0.331
-341.362	-172.870	0.055	0.002
-340.348	245.012	-0.134	0.224
-339.333	595.420	-0.093	0.227
-338.318	4.054	-0.169	-0.122
-337.304	-14.174	0.365	0.233
-336.289	-22.047	-0.254	0.153
-335.275	208.427	-0.042	-0.065
-334.260	33.199	0.256	-0.220
-333.245	-50.638	-0.111	0.052
-332.231	346.594	0.101	0.197
-331.216	-138.428	0.032	0.003
-330.202	-172.987	-0.198	0.006
-329.187	800.000	0.099	-0.309
-328.172	91.034	0.181	0.201
-327.158	-200.000	0.057	0.273
-326.143	-200.000	-0.034	0.220
-325.129	-59.884	-0.301	-0.128
-324.114	-200.000	0.010	-0.332
-323.099	-192.862	-0.139	0.001
-322.085	-66.014	0.082	0.033
-321.070	-79.276	-0.158	-0.053
-320.056	-80.746	0.075	0.025
-319.041	-83.376	0.230	0.073
-318.026	360.908	-0.042	0.083
-317.012	23.597	-0.175	0.143
-315.997	-26.155	0.198	0.115
-314.983	-45.696	0.305	0.149
-313.968	145.239	-0.053	-0.070
-312.953	800.000	0.062	-0.216
-311.939	-151.816	0.131	0.009
-310.924	-139.002	0.235	0.025
-309.910	-32.161	-0.099	0.055
-308.895	32.838	0.046	0.039
-307.880	78.971	-0.112	0.119
-306.866	-200.000	0.006	-0.161
-305.851	161.935	0.122	-0.169
-304.837	522.662	0.067	0.155
-303.822	96.787	-0.101	0.114
-302.807	-200.000	-0.036	0.221
-301.793	-2.874	0.128	0.089
-300.778	-91.178	0.218	-0.062
-299.764	-54.955	-0.272	-0.121
-298.749	-59.739	0.359	-0.152
-297.735	-20.457	0.150	-0.092
-296.720	198.064	-0.159	0.240
-295.705	-115.362	0.129	0.024
-294.691	159.003	-0.226	0.311
-293.676	99.762	0.020	0.023
-292.662	-200.000	-0.046	-0.297
-291.647	-74.834	0.121	-0.043
-290.632	800.000	-0.051	-0.149
-289.618	-50.563	-0.315	0.147
-288.603	-142.064	0.258	0.025
-287.589	-45.749	-0.238	0.117
-286.574	41.357	0.297	-0.266
-285.559	-96.331	0.348	-0.091
-284.545	800.000	-0.069	0.197
-283.530	-200.000	-0.028	-0.174
-282.516	-102.937	0.352	-0.083
-281.501	-200.000	-0.002	0.260
-280.486	-200.000	-0.033	0.349
-279.472	-99.511	-0.208	-0.052
-278.457	107.898	0.049	0.058
-277.443	508.987	-0.038	-0.088
-276.428	-200.000	-0.010	-0.054
-275.413	-34.188	0.227	0.123
-274.399	-200.000	-0.076	-0.384
-273.384	-78.959	-0.097	0.033
-272.370	-64.979	-0.219	0.087
-271.355	371.398	-0.145	0.291
-270.340	800.000	0.012	0.051
-269.326	428.231	-0.085	0.182
-268.311	-62.543	0.274	-0.113
-267.297	-29.780	-0.325	-0.183
-266.282	-65.502	0.181	0.072
-265.267	-112.893	0.202	-0.040
-264.253	-200.000	-0.061	0.290
-263.238	124.739	-0.145	-0.181
-262.224	13.300	0.152	-0.116
-261.209	-39.034	-0.168	0.087
-260.195	266.684	0.012	-0.021
-259.180	424.206	0.091	-0.193
-258.165	161.740	-0.209	0.289
-257.151	616.892	0.039	0.097
-256.136	-15.290	-0.184	-0.116
-255.122	-200.000	-0.033	-0.256
-254.107	403.042	0.043	-0.089
-253.092	-200.000	-0.036	0.396
-252.078	-69.606	-0.180	0.068
-251.063	-122.982	-0.154	-0.024
-250.049	115.233	0.217	0.261
-249.034	-38.559	0.190	-0.099
-248.019	-200.000	0.022	0.099
-247.005	-200.000	0.010	-0.104
-245.990	172.390	0.221	-0.314
-244.976	160.907	-0.162	0.224
-243.961	614.306	-0.076	0.187
-242.946	-200.000	0.027	0.415
-241.932	800.000	-0.036	0.111
-240.917	-79.034	0.042	-0.014
-239.903	-200.000	-0.041	-0.329
-238.888	-147.056	-0.193	0.016
-237.873	-41.520	0.419	-0.213
-236.859	-7.559	0.084	-0.056
-235.844	-71.482	-0.136	0.050
-234.830	-200.000	0.031	-0.289
-233.815	-92.246	0.021	-0.006
-232.800	-200.000	-0.014	0.073
-231.786	-39.163	-0.289	-0.150
-230.771	-32.130	0.163	-0.090
-229.757	-106.656	-0.194	-0.042
-228.742	800.000	-0.057	-0.191
-227.727	-92.112	-0.304	0.085
-226.713	-79.809	-0.226	0.075
-225.698	756.678	0.072	-0.192
-224.684	-13.942	0.387	0.247
-223.669	-106.714	0.393	-0.086
-222.655	193.022	0.220	0.328
-221.640	56.926	0.264	-0.254
-220.625	-19.968	-0.282	0.172
-219.611	177.693	0.129	-0.186
-218.596	-55.979	0.125	0.055
-217.582	-200.000	-0.069	0.336
-216.567	-200.000	-0.015	0.223
-215.552	-200.000	-0.021	-0.160
-214.538	397.913	0.206	0.426
-213.523	-200.000	0.016	0.122
-212.509	-10.547	0.053	0.035
-211.494	-53.556	0.150	-0.068
-210.479	47.924	0.138	-0.127
-209.465	-200.000	0.056	-0.370
-208.450	189.651	0.120	-0.177
-207.436	-200.000	-0.020	0.111
-206.421	-86.074	-0.285	-0.087
-205.406	247.047	-0.007	-0.011
-204.392	-200.000	-0.000	0.117
-203.377	-29.201	0.201	0.114
-202.363	-83.131	-0.072	-0.023
-201.348	-180.186	0.240	-0.005
-200.333	-21.359	-0.087	0.052
-199.319	11.462	0.156	-0.118
-198.304	-47.185	-0.286	-0.138
-197.290	9.221	-0.209	0.156
-196.275	131.842	0.108	-0.137
-195.260	409.214	0.119	-0.248
-194.246	210.829	0.182	-0.281
-193.231	-200.000	-0.000	-0.514
-192.217	109.381	-0.084	0.099
-191.202	1.073	0.054	0.038
-190.187	265.187	-0.042	-0.073
-189.173	-41.278	0.316	-0.160
-188.158	77.974	-0.104	-0.109
-187.144	27.729	-0.333	0.276
-186.129	-55.368	-0.178	0.079
-185.114	129.307	0.143	-0.180
-184.100	-15.717	0.119	-0.075
-183.085	800.000	-0.101	0.326
-182.071	-28.778	-0.263	0.149
-181.056	38.263	-0.286	0.251
-180.042	-86.680	-0.257	-0.078
-179.027	-157.665	-0.256	-0.015
-178.012	86.929	0.142	-0.154
-176.998	-200.000	-0.072	-0.321
-175.983	-200.000	0.005	-0.055
-174.969	-9.870	-0.147	-0.097
-173.954	-21.964	0.438	0.262
-172.939	-132.753	-0.381	0.048
-171.925	-84.078	0.273	-0.085
-170.910	-98.786	0.203	0.051
-169.896	507.507	0.059	-0.135
-168.881	-200.000	0.035	-0.299
-167.866	459.913	-0.178	-0.390
-166.852	219.260	-0.161	-0.254
-165.837	-110.472	0.312	-0.064
-164.823	30.080	0.228	0.191
-163.808	166.932	-0.086	-0.120
-162.793	-37.636	0.157	-0.082
-161.779	-112.425	-0.301	0.059
-160.764	140.082	0.116	-0.151
-159.750	116.119	0.318	-0.383
-158.735	7.404	0.098	-0.072
-157.720	-200.000	0.053	-0.393
-156.706	-55.697	0.090	0.040
-155.691	-174.884	0.107	0.003
-154.677	-92.922	0.271	-0.075
-153.662	405.378	-0.189	-0.393
-152.647	-200.000	-0.029	-0.234
-151.633	800.000	-0.042	0.176
-150.618	8.586	0.333	0.247
-149.604	-108.379	0.116	0.025
-148.589	-100.323	-0.032	-0.008
-147.574	-72.893	-0.178	0.064
-146.560	-5.236	0.122	-0.083
-145.545	800.000	-0.050	0.157
-144.531	-128.148	-0.266	0.037
-143.516	116.357	-0.125	-0.151
-142.502	800.000	-0.021	-0.088
-141.487	-150.796	-0.231	-0.017
-140.472	-190.588	0.357	0.004
-139.458	345.303	-0.187	-0.361
-138.443	-109.243	-0.524	0.109
-137.429	-22.706	0.090	0.053
-136.414	-130.550	-0.009	0.001
-135.399	-140.044	0.052	-0.005
-134.385	-61.488	0.273	-0.113
-133.370	68.892	0.103	0.104
-132.356	-118.538	-0.381	0.066
-131.341	-77.502	0.244	0.083
-130.326	-0.987	-0.228	0.159
-129.312	38.166	0.127	0.111
-128.297	244.373	0.107	-0.177
-127.283	800.000	0.171	-0.495
-126.268	93.464	-0.135	-0.150
-125.253	-200.000	-0.005	-0.238
-124.239	19.813	-0.090	0.071
-123.224	-133.209	0.201	0.025
-122.210	-200.000	-0.015	-0.240
-121.195	-105.878	0.112	-0.025
-120.180	-200.000	-0.009	0.354
-119.166	-121.392	-0.257	-0.042
-118.151	145.296	-0.085	0.112
-117.137	-100.239	0.132	-0.032
-116.122	-84.525	0.054	0.017
-115.107	102.220	0.109	0.125
-114.093	-17.953	-0.198	-0.122
-113.078	-200.000	0.001	-0.263
-112.064	432.376	-0.022	0.048
-111.049	-34.199	0.242	0.130
-110.034	335.722	-0.107	-0.203
-109.020	544.529	0.062	-0.147
-108.005	-73.404	-0.130	0.046
-106.991	84.392	-0.169	-0.181
-105.976	496.895	0.072	0.163
-104.962	-80.867	0.259	0.085
-103.947	-59.934	-0.272	-0.114
-102.932	470.646	0.098	0.217
-101.918	-40.951	0.092	-0.047
-100.903	-109.683	0.377	-0.078
-99.889	-50.597	-0.144	-0.067
-98.874	-10.556	0.114	-0.074
-97.859	-160.584	0.109	-0.006
-96.845	111.951	-0.100	0.118
-95.830	-47.282	0.214	-0.102
-94.816	800.000	-0.023	-0.081
-93.801	-200.000	-0.088	-0.428
-92.786	321.943	0.146	-0.272
-91.772	-54.547	0.142	-0.063
-90.757	-200.000	-0.010	-0.191
-89.743	-200.000	-0.027	-0.174
-88.728	49.305	-0.117	0.108
-87.713	-69.311	0.045	0.017
-86.699	169.357	0.123	0.173
-85.684	38.014	0.180	0.157
-84.670	-139.208	0.284	0.030
-83.655	86.450	0.056	0.061
-82.640	-200.000	-0.039	0.000
-81.626	140.089	0.068	-0.088
-80.611	-13.459	0.121	-0.077
-79.597	-13.846	-0.276	0.175
-78.582	-105.510	0.389	0.087
-77.567	-138.386	0.120	-0.013
-76.553	225.260	-0.118	0.188
-75.538	-76.913	0.355	-0.122
-74.524	117.587	0.255	-0.308
-73.509	0.522	0.492	0.345
-72.494	-200.000	-0.017	-0.370
-71.480	-21.370	-0.056	-0.034
-70.465	-99.408	-0.139	0.034
-69.451	33.545	-0.127	-0.108
-68.436	130.317	-0.095	-0.120
-67.422	356.245	-0.115	0.225
-66.407	-122.152	-0.239	0.038
-65.392	-96.616	0.360	-0.093
-64.378	-56.743	0.295	0.128
-63.363	-200.000	0.005	-0.188
-62.349	334.293	-0.147	-0.279
-61.334	74.268	-1.020	-1.050
-60.319	37.483	0.830	0.722
-59.305	-200.000	-0.217	-1.260
-58.290	573.724	0.524	1.251
-57.276	469.332	0.676	1.489
-56.261	-200.000	105.068	619.581
-55.246	523.853	1499.330	3454.666
-54.232	176.560	2699.358	3845.365
-53.217	106.234	2289.906	2658.557
-52.203	38.939	1897.096	1661.179
-51.188	32.774	1685.112	1428.968
-50.173	30.211	1641.613	1373.081
-49.159	49.364	1695.115	1562.413
-48.144	49.601	1710.079	1577.918
-47.130	32.375	1668.338	1411.525
-46.115	29.746	1653.764	1379.553
-45.100	29.584	1648.407	1373.825
-44.086	29.444	1645.792	1370.551
-43.071	29.558	1642.597	1368.682
-42.057	29.450	1640.556	1366.131
-41.042	29.520	1638.664	1365.013
-40.027	29.582	1636.636	1363.733
-39.013	29.438	1635.410	1361.590
-37.998	29.404	1633.749	1359.902
-36.984	29.543	1632.237	1359.614
-35.969	29.613	1630.514	1358.641
-34.954	29.750	1628.638	1358.033
-33.940	29.595	1627.100	1355.554
-32.925	29.664	1625.060	1354.311
-31.911	29.608	1623.327	1352.399
-30.896	29.601	1621.919	1351.125
-29.881	29.577	1620.434	1349.656
-28.867	29.571	1618.721	1348.137
-27.852	29.585	1617.088	1346.821
-26.838	29.612	1615.878	1345.957
-25.823	29.550	1615.068	1344.777
-24.809	29.668	1613.204	1344.034
-23.794	29.672	1612.056	1343.047
-22.779	29.651	1610.267	1341.355
-21.765	29.614	1608.625	1339.667
-20.750	29.647	1607.214	1338.678
-19.736	29.616	1606.257	1337.603
-18.721	29.690	1604.177	1336.353
-17.706	29.678	1602.382	1334.717
-16.692	29.636	1600.991	1333.201
-15.677	29.701	1599.826	1332.647
-14.663	29.730	1598.768	1331.925
-13.648	29.744	1596.967	1330.472
-12.633	29.641	1595.730	1328.644
-11.619	29.610	1594.374	1327.238
-10.604	29.755	1592.424	1326.608
-9.590	29.594	1591.782	1324.863
-8.575	29.703	1590.436	1324.473
-7.560	29.700	1589.339	1323.484
-6.546	29.702	1588.098	1322.415
-5.531	29.640	1587.328	1321.277
-4.517	29.648	1586.069	1320.232
-3.502	29.588	1584.969	1318.833
-2.487	29.805	1582.762	1318.497
-1.473	29.289	1571.514	1305.419
-0.458	26.334	1552.515	1268.877
0.556	20.702	1552.762	1237.719
1.571	18.440	1577.767	1241.179
2.586	18.162	1590.566	1249.106
3.600	16.442	1538.990	1196.329
4.615	8.798	1429.576	1060.739
5.629	1.313	1366.291	966.185
6.644	-0.137	1358.310	951.277
7.659	-0.340	1357.099	949.063
8.673	-0.444	1356.451	947.869
9.688	-0.379	1354.236	946.648
10.702	-0.476	1350.653	943.449
11.717	2.428	1357.141	966.246
12.731	11.561	1374.276	1036.536
13.746	19.011	1386.719	1093.356
14.761	20.898	1389.047	1107.097
15.775	21.043	1389.214	1108.054
16.790	21.128	1388.245	1107.724
17.804	21.176	1387.755	1107.536
18.819	21.360	1387.487	1108.394
19.834	21.433	1387.022	1108.385
20.848	21.478	1386.098	1107.832
21.863	21.542	1385.650	1107.786
22.877	21.568	1384.236	1106.717
23.892	21.528	1383.670	1105.917
24.907	21.577	1382.916	1105.527
25.921	21.537	1382.031	1104.465
26.936	21.533	1380.775	1103.343
27.950	21.442	1380.055	1102.096
28.965	21.555	1378.620	1101.559
29.980	21.495	1377.621	1100.289
30.994	21.430	1376.725	1099.068
32.009	21.523	1375.015	1098.186
33.023	21.533	1373.745	1097.143
34.038	21.653	1372.082	1096.465
35.053	21.423	1372.037	1094.892
36.067	21.566	1370.697	1094.620
37.082	21.539	1370.085	1093.865
38.096	21.476	1368.992	1092.505
39.111	21.520	1368.512	1092.299
40.126	21.591	1367.493	1091.834
41.140	21.500	1367.109	1090.860
42.155	21.462	1366.792	1090.272
43.169	21.506	1366.763	1090.430
44.184	21.469	1366.253	1089.697
45.199	21.502	1366.190	1089.754
46.213	21.543	1365.370	1089.259
47.228	21.504	1364.221	1088.002
48.242	21.532	1363.068	1087.161
49.257	21.497	1361.293	1085.433
50.271	21.538	1360.051	1084.599
51.286	21.532	1358.931	1083.575
52.301	21.602	1357.662	1082.898
53.315	21.574	1356.823	1081.963
54.330	21.565	1355.964	1081.126
55.344	21.470	1354.710	1079.445
56.359	21.452	1353.832	1078.539
57.374	21.571	1352.837	1078.382
58.388	21.427	1352.506	1077.139
59.403	21.509	1351.873	1077.044
60.417	21.572	1351.056	1076.681
61.432	21.454	1350.546	1075.454
62.447	21.521	1349.281	1074.762
63.461	21.458	1348.803	1073.905
64.476	21.578	1347.639	1073.614
65.490	21.675	1346.178	1072.954
66.505	21.533	1344.311	1070.503
67.520	21.569	1342.949	1069.542
68.534	21.575	1342.034	1068.752
69.549	21.636	1341.156	1068.333
70.563	21.448	1340.588	1066.640
71.578	21.629	1339.197	1066.542
72.593	21.575	1338.952	1065.924
73.607	21.633	1337.878	1065.327
74.622	21.553	1337.381	1064.348
75.636	21.590	1336.493	1063.773
76.651	21.501	1335.698	1062.509
77.666	21.591	1335.068	1062.454
78.680	21.581	1334.609	1061.936
79.695	21.533	1334.047	1061.102
80.709	21.627	1332.765	1060.559
81.724	21.664	1331.949	1060.042
82.739	21.598	1331.185	1058.939
83.753	21.605	1330.291	1058.177
84.768	21.623	1329.006	1057.169
85.782	21.605	1327.673	1055.909
86.797	21.547	1327.209	1055.097
87.812	21.586	1326.196	1054.432
88.826	21.668	1324.459	1053.449
89.841	21.799	1323.196	1053.139
90.855	21.584	1322.629	1051.306
91.870	21.570	1321.851	1050.511
92.884	21.590	1321.074	1049.920
93.899	21.712	1319.730	1049.491
94.914	21.624	1319.556	1048.732
95.928	21.682	1318.214	1047.919
96.943	21.706	1317.712	1047.568
97.957	21.635	1317.376	1046.787
98.972	21.639	1316.351	1045.903
99.987	21.601	1315.438	1044.857
101.001	21.694	1313.717	1043.954
102.016	21.556	1313.265	1042.681
103.030	21.647	1312.173	1042.260
104.045	21.722	1311.487	1042.069
105.060	21.645	1310.515	1040.751
106.074	21.649	1309.702	1040.032
107.089	21.706	1308.231	1039.114
108.103	21.771	1307.064	1038.476
109.118	21.689	1306.301	1037.295
110.133	21.706	1304.829	1036.133
111.147	21.745	1303.900	1035.536
112.162	21.779	1302.511	1034.544
113.176	21.727	1301.814	1033.591
114.191	21.738	1300.835	1032.785
115.206	21.724	1299.968	1031.925
116.220	21.660	1298.706	1030.455
117.235	21.695	1297.890	1029.919
118.249	21.704	1296.937	1029.126
119.264	21.695	1296.253	1028.440
120.279	21.760	1295.250	1027.933
121.293	21.807	1294.366	1027.415
122.308	21.761	1293.567	1026.424
123.322	21.846	1292.436	1025.934
124.337	21.809	1291.651	1025.001
125.352	21.886	1290.529	1024.472
126.366	21.810	1289.615	1023.210
127.381	21.754	1288.765	1022.121
128.395	21.785	1287.714	1021.379
129.410	21.808	1286.757	1020.659
130.424	21.803	1286.285	1020.164
131.439	21.809	1285.296	1019.325
132.454	21.789	1284.482	1018.477
133.468	21.739	1283.748	1017.512
134.483	21.681	1283.463	1016.859
135.497	21.645	1282.728	1015.976
136.512	21.681	1281.341	1014.996
137.527	21.754	1279.810	1014.120
138.541	21.626	1278.543	1012.283
139.556	21.770	1277.436	1012.151
140.570	21.689	1276.514	1010.866
141.585	21.689	1275.194	1009.728
142.600	21.721	1274.076	1008.935
143.614	21.648	1273.524	1007.993
144.629	21.651	1272.054	1006.757
145.643	21.697	1271.093	1006.170
146.658	21.693	1270.026	1005.214
147.673	21.654	1269.034	1004.117
148.687	21.786	1267.801	1003.805
149.702	21.737	1266.864	1002.699
150.716	21.693	1265.926	1001.616
151.731	21.715	1264.944	1000.875
152.746	21.797	1264.006	1000.512
153.760	21.876	1262.767	999.894
154.775	21.801	1261.690	998.527
155.789	21.817	1261.248	998.179
156.804	21.805	1260.159	997.161
157.819	21.808	1258.907	996.095
158.833	21.856	1258.304	995.805
159.848	21.783	1257.662	994.796
160.862	21.711	1257.249	993.970
161.877	21.792	1256.015	993.369
162.892	21.801	1255.457	992.889
163.906	21.863	1253.953	991.961
164.921	21.762	1253.925	991.280
165.935	21.878	1253.266	991.328
166.950	21.878	1252.313	990.485
167.964	21.930	1251.564	990.100
168.979	21.905	1251.105	989.507
169.994	21.935	1250.394	989.024
171.008	21.880	1249.820	988.176
172.023	21.962	1248.778	987.725
173.037	21.883	1248.173	986.714
174.052	21.845	1247.801	986.123
175.067	22.002	1246.470	985.860
176.081	21.973	1245.921	985.176
177.096	21.875	1244.988	983.803
178.110	21.916	1243.854	983.051
179.125	21.898	1243.322	982.442
180.140	21.936	1241.841	981.395
181.154	21.885	1241.188	980.509
182.169	21.861	1240.053	979.389
183.183	21.940	1239.057	978.960
184.198	21.987	1237.541	977.937
185.213	21.971	1236.678	977.079
186.227	21.987	1236.196	976.702
187.242	22.031	1234.928	975.856
188.256	22.014	1234.035	974.970
189.271	22.031	1233.126	974.261
190.286	21.976	1232.804	973.616
191.300	21.942	1232.367	972.996
192.315	21.942	1231.894	972.537
193.329	21.993	1231.420	972.359
194.344	22.113	1230.489	972.199
195.359	21.952	1230.337	971.102
196.373	21.916	1229.830	970.417
197.388	21.895	1229.313	969.811
198.402	21.983	1229.153	970.081
199.417	21.883	1228.926	969.265
200.432	22.064	1228.012	969.461
201.446	21.987	1227.158	968.274
202.461	21.854	1226.654	967.055
203.475	21.930	1226.193	967.028
204.490	21.942	1224.936	966.016
205.504	21.906	1223.824	964.857
206.519	22.018	1222.639	964.452
207.534	22.029	1221.642	963.639
208.548	21.997	1220.678	962.620
209.563	22.019	1220.336	962.382
210.577	22.072	1219.063	961.586
211.592	22.094	1218.423	961.116
212.607	22.132	1217.806	960.750
213.621	22.134	1216.856	959.928
214.636	22.068	1216.197	958.962
215.650	22.087	1215.285	958.263
216.665	22.121	1214.242	957.541
217.680	22.184	1213.693	957.367
218.694	22.126	1212.717	956.199
219.709	22.126	1211.731	955.336
220.723	22.177	1211.574	955.404
221.738	22.057	1210.944	954.167
222.753	21.938	1210.136	952.801
223.767	22.137	1209.403	953.220
224.782	22.082	1209.334	952.781
225.796	22.173	1208.470	952.510
226.811	22.072	1207.860	951.403
227.826	22.137	1207.143	951.103
228.840	22.190	1206.460	950.765
229.855	22.159	1205.763	949.966
230.869	22.164	1204.890	949.221
231.884	22.268	1204.157	949.119
232.899	22.229	1203.596	948.382
233.913	22.162	1203.287	947.694
234.928	22.224	1202.901	947.644
235.942	22.244	1201.973	946.933
236.957	22.216	1201.508	946.336
237.972	22.212	1200.838	945.701
238.986	22.252	1199.980	945.156
240.001	22.378	1199.414	945.303
241.015	22.293	1198.467	944.019
242.030	22.368	1197.862	943.862
243.045	22.422	1196.985	943.377
244.059	22.346	1196.221	942.281
245.074	22.372	1195.239	941.562
246.088	22.335	1194.903	941.020
247.103	22.407	1193.892	940.527
248.117	22.333	1193.012	939.354
249.132	22.371	1192.410	939.001
250.147	22.446	1192.006	938.998
251.161	22.477	1190.729	938.071
252.176	22.368	1190.457	937.194
253.190	22.419	1190.041	937.054
254.205	22.585	1188.848	936.917
255.220	22.437	1188.459	935.738
256.234	22.397	1188.103	935.167
257.249	22.415	1187.397	934.621
258.263	22.470	1186.541	934.155
259.278	22.453	1186.284	933.783
260.293	22.580	1185.490	933.749
261.307	22.454	1185.468	932.982
262.322	22.531	1184.358	932.430
263.336	22.410	1183.844	931.302
264.351	22.438	1183.434	931.046
265.366	22.493	1182.772	930.735
266.380	22.471	1182.186	930.073
267.395	22.509	1180.992	929.256
268.409	22.489	1180.721	928.855
269.424	22.457	1180.565	928.481
270.439	22.557	1179.711	928.252
271.453	22.600	1179.004	927.838
272.468	22.559	1177.935	926.699
273.482	22.537	1177.276	925.983
274.497	22.587	1177.172	926.085
275.512	22.515	1176.720	925.268
276.526	22.596	1175.664	924.784
277.541	22.590	1175.199	924.303
278.555	22.560	1174.686	923.659
279.570	22.720	1173.629	923.584
280.585	22.632	1172.569	922.206
281.599	22.679	1171.912	921.857
282.614	22.700	1171.050	921.208
283.628	22.771	1169.903	920.593
284.643	22.662	1169.739	919.815
285.657	22.634	1168.540	918.645
286.672	22.693	1167.770	918.261
287.687	22.698	1166.680	917.349
288.701	22.692	1166.557	917.140
289.716	22.813	1165.532	916.882
290.730	22.797	1164.687	916.058
291.745	22.653	1164.666	915.210
292.760	22.684	1163.869	914.664
293.774	22.798	1163.077	914.550
294.789	22.843	1162.558	914.295
295.803	22.755	1162.369	913.611
296.818	22.785	1161.463	912.972
297.833	22.796	1160.621	912.285
298.847	22.819	1160.222	912.011
299.862	22.890	1159.103	911.415
300.876	22.824	1158.247	910.322
301.891	22.880	1158.152	910.454
302.906	22.939	1156.990	909.766
303.920	22.988	1156.900	909.865
304.935	22.858	1156.230	908.589
305.949	22.805	1155.719	907.836
306.964	22.976	1154.957	908.037
307.979	23.041	1153.865	907.433
308.993	23.007	1153.105	906.577
310.008	22.920	1153.060	906.017
311.022	22.975	1152.191	905.536
312.037	22.934	1151.259	904.512
313.052	22.889	1150.652	903.726
314.066	23.070	1149.183	903.417
315.081	22.931	1148.782	902.312
316.095	22.994	1148.002	901.938
317.110	23.058	1147.664	901.924
318.125	23.019	1146.968	901.098
319.139	23.034	1146.228	900.509
320.154	22.984	1146.010	900.006
321.168	23.079	1145.426	899.951
322.183	23.028	1144.904	899.202
323.197	22.941	1144.043	898.004
324.212	23.067	1143.442	898.092
325.227	23.024	1143.493	897.837
326.241	23.108	1142.744	897.591
327.256	23.156	1141.757	896.980
328.270	23.096	1140.732	895.792
329.285	23.113	1140.036	895.257
330.300	23.080	1139.393	894.504
331.314	23.083	1138.535	893.768
332.329	23.153	1137.649	893.345
333.343	23.073	1136.962	892.323
334.358	23.143	1136.142	891.951
335.373	23.136	1135.911	891.656
336.387	23.238	1134.861	891.270
337.402	23.274	1134.206	890.854
338.416	23.224	1134.064	890.411
339.431	23.186	1133.440	889.654
340.446	23.314	1132.291	889.314
341.460	23.367	1131.639	888.991
342.475	23.314	1130.868	888.041
343.489	23.174	1130.386	886.882
344.504	23.153	1129.337	885.876
345.519	23.299	1128.455	885.835
346.533	23.334	1127.203	884.951
347.548	23.469	1126.560	885.042
348.562	23.345	1126.422	884.234
349.577	23.315	1125.486	883.273
350.592	23.211	1124.619	881.997
351.606	23.283	1124.379	882.088
352.621	23.408	1123.791	882.170
353.635	23.316	1122.981	880.998
354.650	23.424	1121.909	880.618
355.665	23.307	1121.658	879.763
356.679	23.410	1121.068	879.730
357.694	23.471	1120.412	879.439
358.708	23.567	1119.364	879.017
359.723	23.409	1119.300	878.104
360.738	23.422	1118.510	877.470
361.752	23.441	1117.699	876.852
362.767	23.482	1117.623	876.919
363.781	23.592	1116.938	876.845
364.796	23.623	1116.072	876.241
365.810	23.544	1115.716	875.495
366.825	23.543	1115.021	874.869
367.840	23.581	1114.652	874.685
368.854	23.709	1114.113	874.818
369.869	23.646	1113.238	873.744
370.883	23.692	1112.278	873.137
371.898	23.648	1111.817	872.484
372.913	23.749	1111.314	872.507
373.927	23.613	1110.779	871.343
374.942	23.667	1110.100	870.998
375.956	23.745	1109.749	871.028
376.971	23.786	1108.951	870.525
377.986	23.647	1108.569	869.466
379.000	23.733	1107.999	869.363
380.015	23.743	1107.290	868.782
381.029	23.750	1107.038	868.542
382.044	23.740	1106.503	867.996
383.059	23.775	1105.567	867.353
384.073	23.680	1104.980	866.355
385.088	23.673	1104.179	865.613
386.102	23.735	1103.163	865.045
387.117	23.772	1102.106	864.316
388.132	23.804	1101.369	863.818
389.146	23.834	1100.997	863.597
390.161	23.792	1100.371	862.826
391.175	23.827	1099.202	862.003
392.190	23.793	1098.996	861.598
393.205	23.864	1098.342	861.354
394.219	23.905	1097.241	860.612
395.234	23.896	1096.484	859.898
396.248	23.859	1095.844	859.141
397.263	23.935	1094.852	858.658
398.278	24.021	1094.112	858.417
399.292	23.922	1093.788	857.605
400.307	23.897	1093.368	857.084
401.321	23.883	1092.364	856.151
402.336	23.980	1091.744	856.058
403.350	23.821	1091.466	855.000
404.365	23.974	1090.637	855.009
405.380	23.985	1090.214	854.653
406.394	24.075	1089.106	854.142
407.409	24.043	1088.147	853.161
408.423	24.031	1087.756	852.722
409.438	24.073	1086.911	852.183
410.453	24.098	1086.094	851.585
411.467	24.145	1085.513	851.279
412.482	23.994	1084.869	849.981
413.496	24.211	1084.156	850.383
414.511	24.093	1083.840	849.495
415.526	24.096	1083.482	849.155
416.540	24.163	1083.030	849.045
417.555	24.064	1082.390	847.997
418.569	24.025	1082.101	847.506
419.584	24.207	1081.239	847.623
420.599	24.174	1081.129	847.307
421.613	149.039	1401.027	1798.623
422.628	137.658	1447.590	1798.702
