DTS Sentinel unit serial number:	SN413079Multiplexer serial number:	ORYXHardware model number:	OX4-SRSoftware version number:	ORYX F/W v4.00 Oryx Data Collector v3.7.2.0data status	okinstallation	princeton_trtdifferential loss correction	single-endedforward channel	channel 2reverse channel	N/Adate	2019/09/11time	15:41:11forward acquisition time	60.00reverse acquisition time	0.00gamma	496.2192k internal	0.2289k external	0.2289temperature offset calibration	1.0018default loss term (dB/km)	0.3790temperature slope calibration	1.0000multiplexer offset coefficient	1.0000multiplexer slope coefficient	1.0000fibre end	0.00T internal ref (°C)	42.81T ext. ref 1 (°C)	1.02T ext. ref 2 (°C)	37.22length (m)	temperature (°C)	Stokes	anti-Stokes-747.200	-1.717	0.156	0.113
-746.185	-104.929	-0.144	-0.034
-745.171	-41.731	-0.155	-0.082
-744.156	75.443	0.130	0.140
-743.142	-50.601	-0.190	0.092
-742.127	10.051	-0.102	0.079
-741.112	406.316	0.116	0.252
-740.098	-48.014	0.055	0.027
-739.083	75.696	0.150	0.162
-738.069	-200.000	-0.049	0.452
-737.054	-83.855	-0.246	-0.080
-736.039	-70.021	-0.418	-0.163
-735.025	701.911	0.041	-0.111
-734.010	-31.761	0.172	-0.099
-732.996	-200.000	0.026	-0.349
-731.981	44.868	0.323	0.305
-730.966	-103.028	-0.172	0.042
-729.952	-123.643	0.127	0.021
-728.937	-173.371	0.199	-0.006
-727.923	155.279	0.072	-0.101
-726.908	26.927	-0.067	-0.058
-725.894	-200.000	-0.042	-0.201
-724.879	234.442	-0.077	0.130
-723.864	-160.809	0.260	-0.014
-722.850	166.185	0.147	-0.213
-721.835	-78.480	-0.279	-0.098
-720.821	-200.000	-0.016	0.306
-719.806	37.381	0.016	-0.015
-718.791	-15.120	-0.209	0.137
-717.777	-143.934	-0.218	0.021
-716.762	-200.000	0.000	-0.017
-715.748	206.668	-0.038	0.061
-714.733	117.495	-0.043	0.054
-713.718	116.660	-0.158	0.198
-712.704	-200.000	0.059	-0.370
-711.689	4.844	0.268	-0.202
-710.675	362.845	0.085	-0.176
-709.660	-52.371	-0.054	0.026
-708.645	-200.000	-0.001	0.026
-707.631	-200.000	0.047	0.351
-706.616	-68.121	-0.269	0.107
-705.602	-62.485	0.491	-0.209
-704.587	-200.000	0.006	-0.388
-703.572	-200.000	-0.051	0.247
-702.558	-154.611	-0.363	0.025
-701.543	800.000	-0.067	0.297
-700.529	37.251	-0.128	0.116
-699.514	521.423	-0.053	0.127
-698.499	37.563	0.108	0.098
-697.485	63.786	0.104	0.107
-696.470	261.210	-0.143	-0.253
-695.456	-200.000	0.050	-0.226
-694.441	385.142	0.114	-0.240
-693.426	-115.922	0.149	0.028
-692.412	800.000	0.027	0.102
-691.397	-116.489	-0.373	-0.070
-690.383	-77.585	-0.028	0.010
-689.368	-57.132	0.347	-0.156
-688.354	345.142	-0.115	0.232
-687.339	16.240	-0.122	-0.098
-686.324	800.000	-0.094	-0.358
-685.310	-200.000	-0.018	-0.123
-684.295	-200.000	-0.017	0.142
-683.281	-46.804	-0.477	-0.239
-682.266	189.993	0.143	0.220
-681.251	56.267	0.295	-0.293
-680.237	187.185	-0.107	-0.163
-679.222	49.161	0.050	-0.048
-678.208	-200.000	-0.046	0.370
-677.193	800.000	-0.093	-0.327
-676.178	140.819	-0.269	-0.364
-675.164	57.244	-0.059	0.059
-674.149	66.593	0.065	-0.068
-673.135	-54.032	-0.079	0.037
-672.120	-140.749	-0.087	-0.009
-671.105	77.338	0.168	0.183
-670.091	-12.432	0.187	-0.125
-669.076	-47.501	-0.128	-0.064
-668.062	190.046	0.162	-0.249
-667.047	-200.000	-0.013	-0.157
-666.032	175.956	-0.157	-0.233
-665.018	224.581	0.112	-0.185
-664.003	-46.671	-0.236	-0.118
-662.989	451.776	-0.075	-0.169
-661.974	348.782	0.149	-0.301
-660.959	-200.000	-0.032	-0.201
-659.945	-114.345	-0.316	-0.062
-658.930	-200.000	-0.011	0.088
-657.916	251.400	-0.099	-0.173
-656.901	-79.644	0.128	-0.044
-655.886	-200.000	0.056	-0.386
-654.872	648.819	0.167	-0.436
-653.857	-200.000	0.107	0.519
-652.843	78.205	-0.165	-0.179
-651.828	7.409	-0.159	-0.121
-650.814	229.333	-0.184	0.306
-649.799	-200.000	-0.040	0.459
-648.784	-200.000	-0.004	0.059
-647.770	-200.000	0.081	-0.406
-646.755	144.551	0.135	0.185
-645.741	140.099	-0.062	-0.084
-644.726	343.180	-0.162	0.325
-643.711	-141.291	-0.053	-0.005
-642.697	-52.376	0.174	0.082
-641.682	57.260	-0.201	-0.200
-640.668	800.000	-0.120	0.347
-639.653	114.785	-0.157	0.195
-638.638	244.093	-0.153	0.263
-637.624	-7.376	-0.148	-0.102
-636.609	639.529	-0.057	-0.148
-635.595	800.000	-0.062	-0.247
-634.580	495.675	-0.156	0.366
-633.565	-25.871	-0.173	-0.104
-632.551	-117.658	0.257	-0.047
-631.536	458.532	0.065	-0.147
-630.522	-97.070	-0.044	-0.012
-629.507	-111.060	0.322	-0.067
-628.492	-200.000	-0.017	-0.308
-627.478	114.421	0.073	-0.091
-626.463	775.018	0.056	-0.156
-625.449	59.661	-0.234	0.236
-624.434	-147.156	0.026	-0.002
-623.419	444.664	-0.069	0.154
-622.405	2.701	0.068	0.050
-621.390	-200.000	-0.064	-0.338
-620.376	-183.144	0.280	-0.005
-619.361	800.000	0.083	0.316
-618.346	-118.628	-0.069	0.012
-617.332	-19.023	-0.155	-0.098
-616.317	-128.566	-0.341	-0.049
-615.303	-153.341	0.127	-0.009
-614.288	800.000	0.038	0.131
-613.273	-43.062	0.266	-0.137
-612.259	102.499	-0.130	0.155
-611.244	26.660	-0.217	-0.185
-610.230	114.257	0.069	-0.086
-609.215	800.000	0.020	-0.082
-608.201	23.291	-0.268	0.224
-607.186	120.479	-0.151	0.191
-606.171	-200.000	0.005	0.126
-605.157	365.390	-0.059	-0.121
-604.142	-79.370	-0.143	0.049
-603.128	-100.381	-0.217	0.055
-602.113	-200.000	-0.015	-0.269
-601.098	-123.857	-0.054	-0.009
-600.084	-200.000	0.042	-0.197
-599.069	349.583	0.036	-0.073
-598.055	-63.256	0.174	-0.073
-597.040	-0.205	-0.201	-0.146
-596.025	-200.000	-0.020	-0.187
-595.011	629.515	0.101	-0.260
-593.996	-200.000	0.062	-0.398
-592.982	-18.332	-0.045	0.028
-591.967	-95.736	0.187	0.051
-590.952	-200.000	0.005	0.103
-589.938	-200.000	0.027	-0.133
-588.923	-133.282	-0.162	-0.021
-587.909	436.733	-0.075	0.165
-586.894	707.999	-0.066	0.177
-585.879	27.277	-0.109	-0.093
-584.865	-59.644	-0.081	-0.035
-583.850	-52.898	0.192	0.090
-582.836	-200.000	-0.011	0.104
-581.821	26.090	-0.346	-0.294
-580.806	-117.612	-0.235	-0.043
-579.792	3.214	0.081	0.060
-578.777	-96.407	0.127	0.034
-577.763	-89.330	0.298	-0.090
-576.748	-140.536	-0.178	-0.019
-575.733	22.762	-0.171	-0.143
-574.719	-126.377	-0.031	-0.005
-573.704	-39.618	-0.283	0.151
-572.690	66.352	0.158	0.164
-571.675	249.570	0.142	0.245
-570.661	-39.138	-0.340	-0.182
-569.646	-200.000	-0.037	0.185
-568.631	-161.359	-0.458	-0.024
-567.617	15.252	-0.336	-0.268
-566.602	-200.000	0.013	0.397
-565.588	-26.490	-0.323	0.193
-564.573	2.867	0.066	-0.048
-563.558	800.000	0.022	0.084
-562.544	-200.000	-0.016	-0.073
-561.529	257.418	0.072	0.126
-560.515	396.532	-0.046	0.097
-559.500	617.106	-0.042	-0.108
-558.485	62.668	0.072	-0.073
-557.471	490.231	-0.078	-0.182
-556.456	800.000	0.135	-0.426
-555.442	449.216	-0.025	-0.055
-554.427	-200.000	-0.050	0.304
-553.412	33.203	-0.149	0.131
-552.398	76.827	-0.155	0.167
-551.383	115.560	-0.116	0.144
-550.369	-200.000	-0.002	0.049
-549.354	94.023	0.160	-0.184
-548.339	-54.879	-0.167	0.076
-547.325	-200.000	0.009	-0.058
-546.310	-165.738	0.141	-0.006
-545.296	-200.000	-0.005	0.201
-544.281	38.316	-0.289	0.262
-543.266	-43.182	-0.100	-0.051
-542.252	0.783	0.231	-0.168
-541.237	-200.000	-0.001	-0.053
-540.223	-200.000	-0.063	-0.347
-539.208	-110.145	0.226	-0.048
-538.193	-17.884	-0.066	0.042
-537.179	-200.000	-0.020	-0.193
-536.164	-200.000	-0.010	0.186
-535.150	-31.526	0.376	0.215
-534.135	800.000	-0.088	0.255
-533.121	-200.000	0.029	-0.288
-532.106	266.774	-0.128	0.227
-531.091	48.676	-0.265	0.253
-530.077	29.027	-0.162	-0.140
-529.062	-46.347	-0.165	0.083
-528.048	200.364	0.058	-0.091
-527.033	523.033	-0.174	0.415
-526.018	-200.000	-0.017	-0.323
-525.004	-132.190	0.085	0.011
-523.989	800.000	0.022	-0.076
-522.975	-6.016	-0.277	-0.193
-521.960	-57.405	0.418	0.186
-520.945	71.422	0.108	-0.114
-519.931	-38.408	-0.108	-0.058
-518.916	-10.730	-0.112	0.075
-517.902	800.000	0.103	-0.299
-516.887	4.445	0.137	-0.102
-515.872	28.566	0.267	0.230
-514.858	-48.456	-0.150	0.073
-513.843	24.597	-0.416	-0.350
-512.829	-130.572	-0.262	-0.036
-511.814	92.211	-0.257	-0.295
-510.799	-96.657	0.309	-0.083
-509.785	9.983	-0.226	0.174
-508.770	-200.000	0.075	-0.408
-507.756	46.591	0.171	0.161
-506.741	57.629	-0.205	0.204
-505.726	-80.833	0.094	-0.032
-504.712	90.942	0.202	0.229
-503.697	-86.409	0.521	-0.163
-502.683	-106.245	-0.273	-0.062
-501.668	-12.958	-0.066	0.043
-500.653	50.312	-0.175	0.168
-499.639	800.000	0.019	-0.058
-498.624	-66.043	0.177	-0.072
-497.610	-150.299	-0.212	0.017
-496.595	527.030	-0.169	0.406
-495.581	-88.348	-0.096	-0.029
-494.566	-71.338	0.098	0.037
-493.551	-200.000	-0.009	0.043
-492.537	-195.534	0.280	-0.002
-491.522	37.226	0.290	-0.261
-490.508	800.000	-0.107	0.350
-489.493	506.465	-0.133	0.314
-488.478	70.704	0.182	-0.191
-487.464	-200.000	-0.013	0.397
-486.449	638.507	0.051	0.132
-485.435	22.165	0.337	0.279
-484.420	232.227	-0.121	0.202
-483.405	-137.026	0.133	-0.015
-482.391	-29.187	-0.263	-0.153
-481.376	-200.000	0.010	-0.257
-480.362	-50.387	-0.253	0.121
-479.347	338.980	-0.076	0.151
-478.332	-115.904	0.443	0.084
-477.318	-200.000	-0.018	-0.096
-476.303	289.274	-0.141	0.259
-475.289	-88.671	-0.136	-0.041
-474.274	-200.000	-0.058	-0.331
-473.259	-16.478	0.071	-0.046
-472.245	-200.000	-0.008	0.304
-471.230	-147.446	-0.057	0.005
-470.216	-86.584	0.377	-0.117
-469.201	772.034	-0.095	0.262
-468.186	-56.272	0.112	0.051
-467.172	30.641	0.227	0.197
-466.157	60.522	0.278	-0.280
-465.143	-11.165	0.160	-0.107
-464.128	629.452	-0.076	0.195
-463.113	316.785	-0.104	0.199
-462.099	94.040	0.189	0.218
-461.084	776.558	-0.200	-0.552
-460.070	-122.963	-0.265	-0.043
-459.055	-96.241	0.323	-0.087
-458.040	407.796	-0.136	-0.291
-457.026	-122.061	0.126	0.021
-456.011	-72.962	-0.348	-0.130
-454.997	800.000	-0.053	0.173
-453.982	-113.635	0.192	0.038
-452.968	-200.000	0.009	-0.142
-451.953	51.755	0.079	-0.076
-450.938	181.266	0.091	-0.135
-449.924	800.000	0.072	0.274
-448.909	-192.941	-0.360	0.003
-447.895	190.028	-0.228	0.346
-446.880	800.000	-0.051	-0.220
-445.865	360.995	0.122	-0.248
-444.851	127.411	0.057	0.074
-443.836	-200.000	0.051	0.337
-442.822	82.110	0.203	0.223
-441.807	-200.000	0.021	0.174
-440.792	322.046	0.035	-0.067
-439.778	-200.000	-0.002	-0.118
-438.763	32.305	-0.157	-0.137
-437.749	124.564	0.070	0.089
-436.734	-200.000	-0.028	-0.139
-435.719	800.000	-0.041	0.118
-434.705	-13.593	0.143	0.094
-433.690	0.438	0.153	0.111
-432.676	47.930	0.243	-0.230
-431.661	-68.203	-0.102	-0.040
-430.646	-174.936	-0.286	-0.008
-429.632	-99.396	-0.119	-0.030
-428.617	-43.244	0.174	-0.089
-427.603	57.941	0.322	0.319
-426.588	-200.000	-0.025	0.295
-425.573	107.621	-0.315	0.380
-424.559	-200.000	-0.014	0.241
-423.544	459.005	-0.177	0.398
-422.530	-89.571	0.117	0.035
-421.515	-71.599	-0.121	0.046
-420.500	123.092	-0.083	-0.105
-419.486	176.046	-0.134	-0.197
-418.471	-200.000	-0.016	0.199
-417.457	-138.021	0.052	0.006
-416.442	-200.000	0.029	0.255
-415.428	29.897	0.080	-0.069
-414.413	-171.570	0.182	0.006
-413.398	-92.134	-0.178	-0.051
-412.384	800.000	0.075	0.319
-411.369	155.511	0.072	-0.101
-410.355	130.991	0.193	0.251
-409.340	52.449	-0.190	0.183
-408.325	800.000	-0.078	-0.241
-407.311	385.101	-0.049	-0.102
-406.296	800.000	-0.061	-0.177
-405.282	58.837	-0.207	0.205
-404.267	-114.311	-0.202	-0.039
-403.252	800.000	-0.081	-0.353
-402.238	-7.023	0.248	-0.170
-401.223	-110.076	-0.027	-0.006
-400.209	134.795	-0.049	0.065
-399.194	800.000	0.069	-0.235
-398.179	-67.335	0.068	-0.027
-397.165	332.883	0.017	0.034
-396.150	800.000	0.023	-0.092
-395.136	800.000	-0.063	0.222
-394.121	-54.352	-0.233	-0.107
-393.106	-200.000	-0.020	0.277
-392.092	580.961	0.057	-0.141
-391.077	-113.778	0.147	0.029
-390.063	-156.393	0.147	-0.009
-389.048	800.000	0.025	0.082
-388.033	765.123	-0.109	0.300
-387.019	100.742	-0.047	-0.055
-386.004	-84.331	-0.148	-0.047
-384.990	-115.122	-0.104	0.020
-383.975	-141.720	0.106	-0.011
-382.960	-67.888	0.271	0.107
-381.946	-6.762	0.156	-0.107
-380.931	-134.923	-0.110	0.013
-379.917	241.977	-0.164	0.276
-378.902	506.280	0.073	0.171
-377.888	536.793	0.104	0.250
-376.873	-1.437	0.110	-0.078
-375.858	-1.785	-0.140	0.099
-374.844	-200.000	0.051	-0.285
-373.829	-200.000	-0.001	-0.202
-372.815	311.237	-0.113	0.213
-371.800	282.573	0.106	0.193
-370.785	-200.000	-0.016	-0.112
-369.771	708.968	0.111	-0.296
-368.756	-200.000	0.010	-0.279
-367.742	-77.530	-0.327	0.114
-366.727	-200.000	0.068	0.428
-365.712	-158.452	0.168	0.010
-364.698	-200.000	0.000	-0.146
-363.683	119.894	0.100	-0.125
-362.669	-58.898	-0.121	-0.053
-361.654	-146.019	0.176	-0.016
-360.639	800.000	0.018	-0.059
-359.625	-100.486	-0.136	-0.034
-358.610	-110.114	0.284	-0.060
-357.596	-122.070	0.326	0.054
-356.581	11.814	-0.268	-0.208
-355.566	-200.000	0.005	0.111
-354.552	148.840	0.107	0.146
-353.537	800.000	0.090	-0.397
-352.523	-200.000	0.016	-0.191
-351.508	-200.000	-0.039	-0.524
-350.493	-188.741	-0.454	0.006
-349.479	-200.000	-0.034	0.293
-348.464	800.000	-0.044	-0.170
-347.450	800.000	-0.049	-0.200
-346.435	209.818	-0.174	-0.275
-345.420	8.220	-0.305	0.231
-344.406	-12.962	0.062	0.041
-343.391	-200.000	-0.047	-0.227
-342.377	-121.546	0.270	0.045
-341.362	66.076	-0.219	0.225
-340.348	-26.249	0.293	0.173
-339.333	-200.000	0.010	0.327
-338.318	800.000	0.062	-0.252
-337.304	-186.073	0.232	0.003
-336.289	-53.099	0.151	-0.070
-335.275	528.898	0.069	0.163
-334.260	356.997	0.048	0.097
-333.245	-200.000	-0.008	0.115
-332.231	-40.978	0.124	-0.065
-331.216	249.466	-0.124	0.212
-330.202	800.000	-0.026	0.096
-329.187	-33.647	0.139	0.077
-328.172	-44.325	0.080	0.040
-327.158	-13.591	-0.370	0.242
-326.143	-109.897	-0.408	0.086
-325.129	53.607	0.010	0.010
-324.114	319.613	0.176	-0.336
-323.099	50.002	0.087	-0.083
-322.085	-200.000	-0.007	-0.385
-321.070	208.623	0.159	0.250
-320.056	190.080	0.238	0.361
-319.041	-200.000	-0.008	-0.130
-318.026	785.648	-0.037	-0.104
-317.012	77.014	-0.173	0.185
-315.997	-76.503	-0.177	0.063
-314.983	-70.762	0.172	-0.065
-313.968	-21.577	-0.035	0.021
-312.953	212.682	0.140	-0.223
-311.939	-166.028	-0.151	0.007
-310.924	-200.000	0.052	0.400
-309.910	-97.214	-0.257	0.068
-308.895	-200.000	0.004	-0.105
-307.880	-108.009	0.300	-0.066
-306.866	-92.192	-0.125	0.035
-305.851	-31.366	-0.268	0.152
-304.837	191.923	-0.096	-0.145
-303.822	-123.991	0.184	0.029
-302.807	-200.000	0.064	-0.514
-301.793	177.033	0.065	0.095
-300.778	193.212	0.246	0.375
-299.764	-50.823	0.167	0.079
-298.749	9.981	0.151	-0.116
-297.735	60.630	0.083	-0.083
-296.720	-59.430	-0.177	-0.077
-295.705	800.000	-0.082	-0.273
-294.691	651.925	0.014	0.037
-293.676	-24.139	0.483	0.291
-292.662	106.398	-0.149	-0.178
-291.647	68.254	0.230	-0.237
-290.632	125.649	-0.131	0.167
-289.618	-3.441	-0.207	-0.145
-288.603	8.256	0.278	-0.210
-287.589	173.572	0.083	0.120
-286.574	182.961	0.051	-0.075
-285.559	437.583	0.057	0.125
-284.545	-73.867	0.145	-0.053
-283.530	-43.954	0.415	0.210
-282.516	-200.000	0.068	0.331
-281.501	-35.750	0.172	0.094
-280.486	238.659	0.079	0.132
-279.472	800.000	-0.105	0.348
-278.457	78.049	-0.047	0.051
-277.443	800.000	0.116	-0.357
-276.428	99.919	-0.189	0.221
-275.413	800.000	-0.056	-0.231
-274.399	800.000	-0.028	-0.086
-273.384	497.737	-0.096	0.221
-272.370	-96.348	-0.246	-0.065
-271.355	-150.763	-0.252	0.019
-270.340	477.118	-0.071	-0.161
-269.326	-149.437	-0.163	0.013
-268.311	-200.000	-0.031	0.140
-267.297	-53.470	0.357	-0.164
-266.282	-13.034	0.169	-0.110
-265.267	44.926	-0.307	-0.284
-264.253	-23.950	0.377	-0.227
-263.238	-9.464	-0.189	0.127
-262.224	-200.000	-0.189	0.001
-261.209	-83.842	0.371	0.119
-260.195	-149.949	0.203	-0.016
-259.180	-86.546	0.211	-0.065
-258.165	800.000	0.007	0.026
-257.151	-138.282	0.342	-0.038
-256.136	72.862	-0.084	0.088
-255.122	-49.630	0.271	0.130
-254.107	163.070	0.123	0.173
-253.092	-91.099	0.200	-0.058
-252.078	-124.701	0.131	0.020
-251.063	-102.531	0.234	0.056
-250.049	48.099	0.278	-0.262
-249.034	-32.956	0.243	-0.136
-248.019	175.008	0.103	0.150
-247.005	-200.000	-0.012	-0.080
-245.990	151.080	-0.115	-0.157
-244.976	-59.842	-0.384	0.165
-243.961	-182.746	0.148	0.003
-242.946	169.162	-0.065	-0.093
-241.932	-72.867	0.327	-0.121
-240.917	-179.652	0.204	-0.004
-239.903	-102.803	-0.322	0.077
-238.888	-101.035	0.155	-0.038
-237.873	-134.682	0.289	0.035
-236.859	-200.000	-0.028	0.148
-235.844	-200.000	-0.013	0.066
-234.830	-65.711	-0.213	-0.086
-233.815	182.855	-0.085	-0.126
-232.800	-151.606	0.247	0.018
-231.786	401.624	0.139	0.294
-230.771	322.495	0.035	-0.066
-229.757	361.726	0.062	-0.125
-228.742	390.390	-0.166	0.347
-227.727	-200.000	-0.010	0.058
-226.713	82.047	-0.203	-0.220
-225.698	-200.000	-0.090	-0.459
-224.684	-2.461	-0.147	-0.103
-223.669	-118.262	0.139	0.025
-222.655	-146.159	0.342	-0.030
-221.640	-105.138	-0.313	0.072
-220.625	-37.700	-0.139	-0.074
-219.611	16.258	-0.118	0.094
-218.596	-200.000	-0.004	-0.055
-217.582	4.620	-0.203	-0.150
-216.567	13.407	-0.265	-0.206
-215.552	781.693	-0.055	0.152
-214.538	800.000	0.027	0.108
-213.523	-200.000	-0.002	-0.163
-212.509	-18.953	0.268	-0.167
-211.494	41.749	-0.131	0.119
-210.479	380.382	0.125	0.258
-209.465	210.086	-0.162	0.255
-208.450	-200.000	0.002	-0.216
-207.436	-96.860	0.290	-0.076
-206.421	51.881	0.203	-0.194
-205.406	-200.000	0.041	0.213
-204.392	-44.988	-0.256	0.128
-203.377	800.000	0.068	0.218
-202.363	-77.205	-0.262	-0.091
-201.348	-127.168	0.252	0.037
-200.333	-104.919	-0.098	0.023
-199.319	156.797	0.174	0.241
-198.304	45.197	-0.235	-0.217
-197.290	-103.972	-0.233	-0.054
-196.275	-132.469	0.182	0.024
-195.260	800.000	-0.068	0.205
-194.246	-23.356	0.188	0.113
-193.231	-200.000	-0.012	-0.133
-192.217	-47.283	-0.412	-0.201
-191.202	800.000	-0.064	0.228
-190.187	800.000	0.062	0.229
-189.173	-0.220	-0.070	-0.050
-188.158	-137.032	0.406	-0.047
-187.144	-200.000	-0.034	0.240
-186.129	157.860	0.108	-0.151
-185.114	-103.384	-0.087	0.020
-184.100	14.476	-0.338	-0.264
-183.085	-44.730	0.338	-0.169
-182.071	265.287	0.093	0.163
-181.056	142.795	-0.020	0.026
-180.042	-45.519	0.381	-0.189
-179.027	-68.660	0.261	0.101
-178.012	800.000	0.115	-0.395
-176.998	521.021	0.043	-0.102
-175.983	-13.444	-0.290	-0.188
-174.969	63.237	-0.249	-0.251
-173.954	-148.732	-0.242	-0.020
-172.939	686.176	-0.126	-0.331
-171.925	-200.000	0.041	-0.222
-170.910	167.046	-0.171	0.244
-169.896	-200.000	0.006	-0.106
-168.881	-98.044	-0.252	-0.065
-167.866	-92.149	-0.125	-0.035
-166.852	-68.160	0.277	-0.108
-165.837	-56.913	0.229	0.101
-164.823	-46.141	0.166	-0.082
-163.808	18.945	-0.232	0.187
-162.793	800.000	-0.088	0.290
-161.779	800.000	0.054	-0.208
-160.764	97.409	0.342	-0.393
-159.750	-32.453	-0.379	-0.212
-158.735	-143.907	0.453	-0.043
-157.720	-103.711	-0.059	0.014
-156.706	-78.873	0.162	0.055
-155.691	-4.503	0.211	-0.146
-154.677	-87.226	-0.543	-0.165
-153.662	354.833	0.145	-0.289
-152.647	151.746	0.151	-0.206
-151.633	800.000	0.021	-0.062
-150.618	800.000	-0.036	-0.144
-149.604	-112.006	-0.236	-0.048
-148.589	-118.258	-0.308	-0.055
-147.574	195.576	-0.038	-0.058
-146.560	-87.598	-0.159	0.048
-145.545	128.697	0.125	0.160
-144.531	-113.097	0.374	0.074
-143.516	-54.012	0.218	0.100
-142.502	-36.867	-0.269	-0.144
-141.487	-36.936	0.105	-0.056
-140.472	-200.000	0.015	0.081
-139.458	85.611	-0.192	0.212
-138.443	18.852	0.042	0.034
-137.429	42.605	0.134	-0.122
-136.414	43.556	-0.136	0.124
-135.399	239.851	-0.185	-0.309
-134.385	-113.591	0.227	0.044
-133.370	654.325	-0.087	0.224
-132.356	-117.662	-0.183	0.033
-131.341	800.000	-0.081	-0.302
-130.326	-173.535	0.262	0.008
-129.312	-99.100	0.122	-0.031
-128.297	-70.006	0.287	0.110
-127.283	27.801	-0.039	-0.032
-126.268	800.000	0.102	-0.359
-125.253	335.151	-0.155	-0.301
-124.239	-79.970	-0.146	0.049
-123.224	-128.228	-0.261	-0.037
-122.210	-65.550	0.343	0.138
-121.195	-111.651	-0.017	0.004
-120.180	349.139	-0.189	0.372
-119.166	-113.622	0.119	0.023
-118.151	466.073	0.015	0.034
-117.137	-200.000	0.049	0.396
-116.122	-28.486	0.328	0.189
-115.107	-121.289	-0.298	-0.050
-114.093	800.000	-0.056	0.184
-113.078	-37.862	0.300	-0.160
-112.064	447.259	-0.180	0.396
-111.049	-200.000	0.106	0.503
-110.034	-75.468	0.244	-0.087
-109.020	56.579	-0.169	0.164
-108.005	439.556	0.149	-0.326
-106.991	193.850	0.073	-0.110
-105.976	-200.000	0.376	0.002
-104.962	31.351	0.065	0.056
-103.947	-21.987	-0.107	0.065
-102.932	-61.554	-0.090	0.038
-101.918	-94.856	0.321	-0.087
-100.903	46.885	0.176	0.164
-99.889	327.020	-0.124	-0.238
-98.874	58.386	0.350	0.343
-97.859	248.552	0.035	0.060
-96.845	132.930	-0.067	-0.086
-95.830	35.832	-0.237	0.208
-94.816	167.693	0.032	0.046
-93.801	800.000	0.068	-0.240
-92.786	684.466	0.028	-0.074
-91.772	-93.968	0.416	0.114
-90.757	-200.000	-0.010	0.297
-89.743	-200.000	-0.006	0.154
-88.728	-200.000	0.028	0.184
-87.713	-200.000	0.033	0.202
-86.699	-58.261	0.252	0.109
-85.684	-136.130	-0.127	0.015
-84.670	415.430	-0.119	0.254
-83.655	42.753	-0.049	0.044
-82.640	800.000	-0.144	-0.415
-81.626	-200.000	-0.052	-0.391
-80.611	-62.008	-0.068	-0.028
-79.597	-200.000	0.018	-0.490
-78.582	-14.083	-0.221	0.142
-77.567	800.000	-0.099	0.385
-76.553	-125.581	0.204	-0.031
-75.538	180.174	0.049	0.072
-74.524	-41.443	0.088	0.045
-73.509	276.090	0.083	-0.148
-72.494	-200.000	-0.001	0.160
-71.480	-200.000	0.019	0.139
-70.465	36.491	-0.047	0.042
-69.451	-115.566	-0.121	-0.023
-68.436	-1.390	-0.148	-0.104
-67.422	128.104	-0.111	0.141
-66.407	0.448	0.202	-0.144
-65.392	-57.820	0.024	0.011
-64.378	-94.187	0.305	-0.083
-63.363	-200.000	-0.077	0.528
-62.349	423.052	-0.052	0.111
-61.334	97.402	-0.800	-0.917
-60.319	118.562	0.390	0.480
-59.305	-200.000	-0.058	-0.551
-58.290	162.103	0.598	0.837
-57.276	226.026	0.869	1.407
-56.261	-200.000	74.763	543.615
-55.246	578.574	1299.739	3173.504
-54.232	145.847	2529.710	3383.944
-53.217	114.679	2343.975	2850.715
-52.203	52.691	1959.602	1868.270
-51.188	46.457	1746.753	1616.539
-50.173	43.367	1699.971	1549.519
-49.159	57.334	1732.843	1687.608
-48.144	63.459	1751.227	1752.679
-47.130	46.106	1715.596	1584.741
-46.115	42.890	1701.157	1546.683
-45.100	42.671	1696.615	1540.815
-44.086	42.684	1694.222	1538.684
-43.071	42.658	1691.357	1535.822
-42.057	42.655	1689.119	1533.702
-41.042	42.601	1686.965	1531.273
-40.027	42.638	1685.320	1530.001
-39.013	42.664	1683.318	1528.323
-37.998	42.625	1681.523	1526.334
-36.984	42.648	1680.320	1525.360
-35.969	42.742	1679.060	1524.867
-34.954	42.841	1676.737	1523.449
-33.940	42.795	1675.556	1521.966
-32.925	42.880	1673.152	1520.360
-31.911	42.882	1671.913	1519.194
-30.896	42.774	1669.865	1516.459
-29.881	42.848	1667.694	1514.982
-28.867	42.857	1665.883	1513.342
-27.852	42.652	1665.416	1511.323
-26.838	42.719	1663.577	1510.091
-25.823	42.803	1662.011	1509.244
-24.809	42.874	1660.816	1508.632
-23.794	42.854	1659.009	1506.781
-22.779	42.951	1657.007	1505.627
-21.765	42.794	1655.913	1503.395
-20.750	42.807	1654.527	1502.180
-19.736	42.840	1652.983	1500.961
-18.721	42.894	1651.062	1499.560
-17.706	42.877	1649.839	1498.264
-16.692	42.777	1648.438	1496.187
-15.677	42.872	1646.600	1495.169
-14.663	42.885	1645.417	1494.132
-13.648	42.804	1643.743	1491.948
-12.633	42.892	1642.236	1491.171
-11.619	42.838	1640.869	1489.477
-10.604	42.885	1638.985	1488.052
-9.590	42.920	1637.550	1486.946
-8.575	42.818	1636.883	1485.531
-7.560	42.829	1635.736	1484.510
-6.546	42.919	1634.341	1483.849
-5.531	42.823	1633.190	1482.043
-4.517	42.837	1631.931	1480.941
-3.502	42.808	1630.985	1479.812
-2.487	42.956	1629.158	1479.186
-1.473	42.794	1618.331	1468.108
-0.458	40.467	1597.930	1432.754
0.556	35.758	1596.304	1396.817
1.571	33.087	1620.355	1398.007
2.586	32.279	1635.468	1404.887
3.600	28.511	1581.541	1331.156
4.615	15.568	1459.931	1141.344
5.629	3.718	1381.824	1003.578
6.644	1.226	1371.617	979.994
7.659	0.957	1370.092	977.083
8.673	0.983	1368.836	976.267
9.688	0.905	1367.080	974.426
10.702	0.768	1364.473	971.600
11.717	5.189	1374.138	1006.957
12.731	17.269	1397.512	1102.819
13.746	24.853	1409.542	1161.642
14.761	24.904	1408.127	1160.707
15.775	24.747	1407.643	1159.186
16.790	24.790	1407.024	1158.852
17.804	24.900	1406.276	1158.843
18.819	25.079	1405.983	1159.662
19.834	25.144	1405.084	1159.235
20.848	25.152	1404.165	1158.424
21.863	25.182	1403.778	1158.201
22.877	25.181	1402.658	1157.166
23.892	25.148	1401.595	1155.973
24.907	25.039	1401.398	1155.006
25.921	25.101	1400.017	1154.162
26.936	25.094	1399.146	1153.299
27.950	25.069	1398.455	1152.466
28.965	25.020	1397.268	1151.073
29.980	25.022	1395.598	1149.607
30.994	25.109	1394.156	1148.873
32.009	25.078	1393.413	1147.964
33.023	25.077	1391.834	1146.552
34.038	25.165	1390.434	1145.863
35.053	25.087	1389.514	1144.505
36.067	25.069	1388.612	1143.548
37.082	25.036	1387.939	1142.683
38.096	25.003	1387.367	1141.895
39.111	25.091	1386.205	1141.400
40.126	25.082	1385.165	1140.383
41.140	25.104	1384.976	1140.271
42.155	25.032	1384.720	1139.499
43.169	24.985	1384.573	1138.981
44.184	25.074	1384.233	1139.165
45.199	25.013	1384.029	1138.508
46.213	25.128	1383.501	1138.702
47.228	25.097	1382.132	1137.276
48.242	25.129	1380.851	1136.329
49.257	25.100	1379.474	1134.911
50.271	25.149	1377.982	1133.895
51.286	25.124	1376.929	1132.768
52.301	25.022	1375.972	1131.234
53.315	25.106	1374.563	1130.507
54.330	25.072	1374.109	1129.816
55.344	25.081	1372.909	1128.789
56.359	25.101	1371.844	1127.940
57.374	25.127	1370.906	1127.234
58.388	25.129	1370.078	1126.467
59.403	25.103	1369.823	1125.989
60.417	25.136	1368.875	1125.316
61.432	25.120	1368.477	1124.794
62.447	25.072	1367.643	1123.708
63.461	25.078	1366.231	1122.486
64.476	25.089	1365.342	1121.725
65.490	25.048	1364.704	1120.845
66.505	25.147	1362.553	1119.594
67.520	25.151	1361.230	1118.436
68.534	25.212	1360.022	1117.725
69.549	25.055	1359.772	1116.438
70.563	25.017	1358.939	1115.424
71.578	25.038	1358.237	1114.876
72.593	25.138	1357.055	1114.432
73.607	25.081	1356.441	1113.476
74.622	25.237	1355.130	1113.267
75.636	25.231	1354.363	1112.503
76.651	25.045	1354.437	1111.307
77.666	25.011	1353.679	1110.380
78.680	25.067	1353.320	1110.333
79.695	25.030	1352.606	1109.422
80.709	25.032	1351.403	1108.345
81.724	25.176	1350.261	1108.202
82.739	25.150	1349.353	1107.196
83.753	25.138	1348.551	1106.369
84.768	25.077	1347.285	1104.857
85.782	25.120	1346.240	1104.169
86.797	25.104	1345.246	1103.156
87.812	25.059	1344.283	1101.993
88.826	25.083	1343.169	1101.129
89.841	25.110	1341.946	1100.195
90.855	25.097	1340.984	1099.224
91.870	25.099	1339.911	1098.265
92.884	25.170	1339.156	1097.981
93.899	25.106	1338.752	1097.160
94.914	25.256	1337.528	1096.978
95.928	25.223	1336.864	1096.135
96.943	25.218	1336.176	1095.440
97.957	25.126	1335.756	1094.443
98.972	25.168	1334.571	1093.629
99.987	25.152	1333.663	1092.692
101.001	25.193	1332.519	1091.907
102.016	25.080	1331.989	1090.686
103.030	25.283	1330.679	1090.749
104.045	25.192	1329.940	1089.499
105.060	25.213	1329.039	1088.790
106.074	25.180	1328.264	1087.860
107.089	25.193	1326.854	1086.686
108.103	25.258	1325.774	1086.098
109.118	25.295	1324.892	1085.502
110.133	25.264	1323.626	1084.187
111.147	25.218	1322.534	1082.913
112.162	25.204	1321.422	1081.823
113.176	25.208	1320.170	1080.727
114.191	25.229	1319.623	1080.309
115.206	25.209	1318.916	1079.518
116.220	25.314	1317.285	1078.715
117.235	25.267	1316.425	1077.635
118.249	25.118	1315.625	1075.992
119.264	25.147	1314.665	1075.287
120.279	25.273	1314.073	1075.463
121.293	25.234	1313.246	1074.454
122.308	25.267	1312.499	1073.943
123.322	25.247	1311.279	1072.735
124.337	25.293	1310.492	1072.269
125.352	25.329	1309.394	1071.492
126.366	25.205	1309.285	1070.567
127.381	25.320	1307.923	1070.045
128.395	25.289	1307.386	1069.324
129.410	25.362	1306.245	1068.730
130.424	25.291	1305.870	1067.906
131.439	25.172	1305.027	1066.418
132.454	25.197	1304.301	1065.878
133.468	25.336	1303.483	1065.942
134.483	25.220	1302.986	1064.748
135.497	25.309	1301.996	1064.374
136.512	25.318	1300.669	1063.250
137.527	25.224	1299.918	1061.983
138.541	25.264	1298.544	1061.003
139.556	25.193	1297.463	1059.609
140.570	25.171	1296.640	1058.713
141.585	25.270	1295.227	1058.052
142.600	25.248	1294.314	1057.081
143.614	25.215	1293.574	1056.189
144.629	25.265	1292.625	1055.614
145.643	25.223	1291.336	1054.218
146.658	25.211	1290.264	1053.185
147.673	25.167	1289.287	1052.034
148.687	25.202	1288.586	1051.571
149.702	25.124	1287.314	1049.987
150.716	25.278	1285.820	1049.574
151.731	25.276	1284.993	1048.797
152.746	25.136	1284.305	1047.323
153.760	25.299	1282.759	1046.921
154.775	25.248	1282.075	1045.975
155.789	25.259	1280.940	1045.017
156.804	25.261	1279.870	1044.065
157.819	25.245	1279.253	1043.373
158.833	25.245	1278.584	1042.736
159.848	25.289	1277.703	1042.182
160.862	25.234	1277.240	1041.394
161.877	25.306	1276.453	1041.080
162.892	25.380	1275.297	1040.469
163.906	25.264	1274.741	1039.253
164.921	25.415	1273.378	1038.923
165.935	25.456	1272.794	1038.595
166.950	25.318	1272.328	1037.324
167.964	25.441	1271.423	1037.204
168.979	25.327	1271.627	1036.618
169.994	25.395	1270.544	1036.036
171.008	25.353	1269.991	1035.252
172.023	25.343	1269.232	1034.487
173.037	25.357	1268.329	1033.739
174.052	25.366	1267.750	1033.224
175.067	25.358	1267.430	1032.828
176.081	25.335	1266.575	1031.909
177.096	25.317	1265.440	1030.786
178.110	25.413	1264.280	1030.305
179.125	25.367	1263.332	1029.178
180.140	25.543	1262.198	1029.170
181.154	25.400	1261.413	1027.619
182.169	25.351	1260.596	1026.581
183.183	25.309	1259.709	1025.530
184.198	25.414	1258.643	1025.170
185.213	25.481	1256.999	1024.120
186.227	25.534	1256.240	1023.715
187.242	25.389	1255.557	1022.245
188.256	25.474	1254.638	1021.886
189.271	25.426	1254.052	1021.046
190.286	25.486	1252.957	1020.407
191.300	25.466	1252.556	1019.875
192.315	25.391	1252.022	1018.923
193.329	25.370	1251.926	1018.636
194.344	25.450	1251.209	1018.419
195.359	25.517	1250.596	1018.208
196.373	25.455	1250.289	1017.516
197.388	25.321	1249.669	1016.162
198.402	25.385	1249.654	1016.426
199.417	25.426	1249.171	1016.171
200.432	25.461	1248.489	1015.726
201.446	25.506	1247.691	1015.242
202.461	25.472	1246.870	1014.292
203.475	25.567	1246.081	1014.093
204.490	25.432	1244.859	1012.250
205.504	25.446	1244.063	1011.592
206.519	25.537	1243.400	1011.475
207.534	25.477	1242.312	1010.165
208.548	25.513	1241.331	1009.482
209.563	25.598	1240.578	1009.254
210.577	25.466	1240.078	1008.019
211.592	25.543	1239.086	1007.552
212.607	25.591	1238.392	1007.170
213.621	25.599	1237.478	1006.382
214.636	25.572	1236.574	1005.404
215.650	25.525	1235.947	1004.548
216.665	25.483	1235.066	1003.507
217.680	25.631	1233.972	1003.355
218.694	25.624	1233.180	1002.582
219.709	25.623	1232.449	1001.895
220.723	25.515	1232.086	1000.910
221.738	25.488	1231.237	999.982
222.753	25.565	1230.240	999.512
223.767	25.649	1229.575	999.346
224.782	25.675	1229.374	999.242
225.796	25.724	1228.757	998.922
226.811	25.495	1228.800	997.599
227.826	25.660	1227.280	997.189
228.840	25.728	1226.707	997.012
229.855	25.729	1225.551	995.989
230.869	25.661	1225.407	995.407
231.884	25.577	1225.039	994.555
232.899	25.619	1223.999	993.855
233.913	25.637	1223.447	993.420
234.928	25.785	1222.919	993.723
235.942	25.645	1222.653	992.642
236.957	25.762	1221.716	992.439
237.972	25.739	1220.807	991.487
238.986	25.642	1220.280	990.438
240.001	25.750	1219.544	990.345
241.015	25.794	1218.655	989.782
242.030	25.821	1218.202	989.469
243.045	25.799	1217.622	988.792
244.059	25.904	1216.299	988.209
245.074	25.873	1215.485	987.286
246.088	25.923	1214.824	986.939
247.103	25.828	1214.281	985.890
248.117	25.736	1213.810	984.913
249.132	25.793	1212.881	984.387
250.147	25.941	1212.041	984.425
251.161	25.758	1211.851	983.187
252.176	25.941	1210.469	982.975
253.190	25.881	1210.119	982.277
254.205	25.984	1209.207	982.010
255.220	25.906	1208.848	981.207
256.234	25.869	1208.183	980.378
257.249	25.967	1207.591	980.344
258.263	25.893	1207.048	979.418
259.278	25.996	1206.480	979.429
260.293	26.002	1205.850	978.865
261.307	25.948	1205.616	978.293
262.322	25.849	1204.764	976.977
263.336	26.003	1203.666	976.834
264.351	25.945	1203.112	975.986
265.366	25.963	1202.642	975.612
266.380	25.987	1201.984	975.126
267.395	25.968	1201.427	974.483
268.409	25.957	1200.819	973.845
269.424	26.021	1200.218	973.614
270.439	25.907	1200.121	972.839
271.453	26.046	1199.231	972.777
272.468	25.875	1198.480	971.161
273.482	26.077	1197.519	971.382
274.497	25.945	1197.347	970.450
275.512	26.013	1196.651	970.165
276.526	26.002	1196.156	969.620
277.541	26.172	1195.214	969.684
278.555	26.118	1194.627	968.828
279.570	26.047	1193.993	967.849
280.585	26.030	1193.499	967.272
281.599	26.216	1192.286	967.197
282.614	26.124	1191.299	965.821
283.628	26.073	1190.565	964.865
284.643	26.200	1189.410	964.524
285.657	26.177	1188.529	963.604
286.672	26.199	1187.615	962.894
287.687	26.236	1186.969	962.482
288.701	26.079	1186.647	961.300
289.716	26.269	1185.601	961.375
290.730	26.297	1185.131	961.062
291.745	26.137	1184.683	959.761
292.760	26.273	1183.530	959.464
293.774	26.331	1183.202	959.422
294.789	26.233	1182.929	958.597
295.803	26.282	1182.038	958.047
296.818	26.287	1181.490	957.546
297.833	26.266	1180.864	956.843
298.847	26.372	1180.246	956.816
299.862	26.354	1179.047	955.664
300.876	26.305	1178.364	954.769
301.891	26.384	1177.946	954.764
302.906	26.492	1177.401	954.807
303.920	26.357	1176.937	953.633
304.935	26.353	1176.422	953.114
305.949	26.353	1175.267	952.091
306.964	26.377	1174.884	951.825
307.979	26.277	1174.495	950.897
308.993	26.479	1173.578	951.133
310.008	26.363	1172.746	949.768
311.022	26.506	1172.344	950.104
312.037	26.406	1171.231	948.594
313.052	26.295	1170.637	947.451
314.066	26.279	1169.816	946.616
315.081	26.434	1168.762	946.492
316.095	26.415	1168.091	945.763
317.110	26.532	1167.355	945.697
318.125	26.523	1167.126	945.379
319.139	26.442	1166.703	944.531
320.154	26.517	1165.809	944.114
321.168	26.546	1165.069	943.581
322.183	26.513	1164.797	943.108
323.197	26.448	1164.042	942.073
324.212	26.501	1163.418	941.759
325.227	26.488	1163.402	941.599
326.241	26.512	1162.785	941.138
327.256	26.700	1161.710	941.162
328.270	26.551	1160.853	939.610
329.285	26.578	1159.972	938.957
330.300	26.528	1159.658	938.361
331.314	26.578	1158.747	937.797
332.329	26.682	1157.488	937.233
333.343	26.601	1156.868	936.231
334.358	26.570	1156.252	935.488
335.373	26.626	1155.645	935.205
336.387	26.670	1155.187	934.976
337.402	26.668	1154.144	934.044
338.416	26.689	1153.816	933.802
339.431	26.747	1152.889	933.268
340.446	26.687	1152.274	932.376
341.460	26.724	1152.080	932.327
342.475	26.810	1150.720	931.586
343.489	26.856	1149.698	930.913
344.504	26.699	1149.040	929.493
345.519	26.730	1148.118	928.822
346.533	26.952	1147.348	929.256
347.548	26.804	1146.411	927.658
348.562	26.860	1146.190	927.683
349.577	26.885	1145.097	926.845
350.592	26.764	1144.236	925.447
351.606	26.846	1143.709	925.358
352.621	26.898	1143.025	924.986
353.635	26.779	1142.865	924.171
354.650	26.812	1142.537	923.990
355.665	26.863	1141.699	923.492
356.679	27.018	1140.607	923.314
357.694	26.899	1140.319	922.397
358.708	26.920	1139.584	921.822
359.723	26.862	1138.641	920.687
360.738	26.860	1138.086	920.146
361.752	26.815	1137.692	919.516
362.767	26.975	1137.179	919.833
363.781	27.011	1136.761	919.595
364.796	27.036	1135.987	919.012
365.810	27.022	1135.386	918.377
366.825	27.098	1134.729	918.149
367.840	27.176	1134.093	917.946
368.854	27.022	1133.829	916.873
369.869	26.974	1133.401	916.203
370.883	27.010	1132.464	915.545
371.898	27.129	1131.344	915.158
372.913	27.116	1131.136	914.843
373.927	27.147	1130.679	914.550
374.942	27.213	1129.843	914.125
375.956	27.146	1129.337	913.298
376.971	27.177	1128.788	912.928
377.986	27.254	1128.333	912.867
379.000	27.315	1127.560	912.469
380.015	27.108	1127.355	911.182
381.029	27.101	1126.843	910.654
382.044	27.134	1126.042	910.088
383.059	27.234	1125.136	909.779
384.073	27.357	1124.448	909.753
385.088	27.273	1123.334	908.353
386.102	27.182	1122.814	907.401
387.117	27.233	1122.160	907.043
388.132	27.219	1121.113	906.048
389.146	27.197	1120.497	905.362
390.161	27.232	1119.991	905.045
391.175	27.229	1119.187	904.302
392.190	27.255	1118.603	903.879
393.205	27.302	1117.711	903.312
394.219	27.407	1116.958	903.142
395.234	27.393	1116.636	902.733
396.248	27.332	1115.669	901.570
397.263	27.479	1114.484	901.260
398.278	27.328	1113.914	899.972
399.292	27.408	1113.572	900.010
400.307	27.481	1112.768	899.645
401.321	27.395	1112.115	898.609
402.336	27.407	1111.478	898.078
403.350	27.409	1110.863	897.509
404.365	27.517	1110.381	897.572
405.380	27.518	1109.592	896.861
406.394	27.565	1108.743	896.328
407.409	27.600	1108.186	895.969
408.423	27.627	1107.150	895.184
409.438	27.653	1106.598	894.784
410.453	27.579	1106.031	893.885
411.467	27.626	1105.320	893.461
412.482	27.708	1104.322	892.976
413.496	27.518	1103.898	891.629
414.511	27.585	1103.273	891.370
415.526	27.616	1103.118	891.316
416.540	27.667	1102.482	890.972
417.555	27.696	1101.709	890.412
418.569	27.577	1101.600	889.663
419.584	27.588	1101.332	889.425
420.599	27.746	1100.777	889.669
421.613	81.228	1288.763	1335.833
422.628	76.029	1316.166	1335.972
