DTS Sentinel unit serial number:	SN413079Multiplexer serial number:	ORYXHardware model number:	OX4-SRSoftware version number:	ORYX F/W v4.00 Oryx Data Collector v3.7.2.0data status	okinstallation	princeton_trtdifferential loss correction	single-endedforward channel	channel 2reverse channel	N/Adate	2019/09/11time	22:29:10forward acquisition time	60.00reverse acquisition time	0.00gamma	496.2192k internal	0.2325k external	0.2325temperature offset calibration	1.0071default loss term (dB/km)	0.3790temperature slope calibration	1.0000multiplexer offset coefficient	1.0000multiplexer slope coefficient	1.0000fibre end	0.00T internal ref (°C)	35.08T ext. ref 1 (°C)	1.76T ext. ref 2 (°C)	29.57length (m)	temperature (°C)	Stokes	anti-Stokes-747.200	659.532	-0.054	-0.140
-746.185	46.920	-0.145	0.136
-745.171	-85.404	-0.075	0.023
-744.156	-3.100	-0.420	0.296
-743.142	37.203	-0.037	0.033
-742.127	-200.000	-0.006	-0.242
-741.112	-200.000	0.031	-0.280
-740.098	89.773	-0.098	0.111
-739.083	0.188	0.189	-0.136
-738.069	-200.000	0.002	0.298
-737.054	266.879	-0.060	-0.105
-736.039	299.796	0.200	0.372
-735.025	-44.366	0.292	0.148
-734.010	-200.000	-0.037	0.295
-732.996	14.775	0.049	-0.039
-731.981	-200.000	0.077	-0.454
-730.966	-31.412	0.184	-0.104
-729.952	800.000	-0.139	-0.540
-728.937	-84.682	-0.531	-0.169
-727.923	-200.000	-0.040	-0.325
-726.908	-141.706	-0.314	-0.032
-725.894	-200.000	-0.019	0.199
-724.879	311.116	-0.101	0.191
-723.864	97.056	-0.191	0.221
-722.850	-32.014	0.364	-0.206
-721.835	-83.521	-0.212	0.068
-720.821	-102.721	0.095	-0.023
-719.806	-45.284	0.248	-0.124
-718.791	-57.495	-0.377	0.167
-717.777	-30.186	-0.187	0.107
-716.762	490.656	0.056	-0.128
-715.748	-200.000	-0.005	-0.108
-714.733	-45.853	-0.207	0.103
-713.718	-200.000	0.016	-0.136
-712.704	46.171	-0.124	0.116
-711.689	-5.661	0.135	-0.093
-710.675	87.933	0.131	-0.146
-709.660	-61.412	-0.204	0.087
-708.645	0.711	0.182	0.131
-707.631	-10.830	-0.147	0.098
-706.616	-200.000	0.032	0.141
-705.602	800.000	-0.111	-0.354
-704.587	-200.000	-0.022	-0.206
-703.572	343.494	0.083	-0.165
-702.558	800.000	0.083	0.239
-701.543	84.500	0.150	0.166
-700.529	54.393	-0.142	0.138
-699.514	1.489	0.343	-0.249
-698.499	-27.819	-0.067	0.039
-697.485	557.142	-0.097	0.235
-696.470	-200.000	0.002	0.011
-695.456	-2.746	-0.218	-0.153
-694.441	-200.000	-0.008	0.239
-693.426	-45.094	0.145	-0.073
-692.412	800.000	0.010	-0.043
-691.397	-12.933	-0.155	0.101
-690.383	47.837	0.145	0.137
-689.368	800.000	-0.060	-0.181
-688.354	800.000	-0.022	0.064
-687.339	-200.000	0.027	0.350
-686.324	-200.000	-0.009	-0.339
-685.310	-52.827	0.309	-0.143
-684.295	800.000	0.018	-0.076
-683.281	-200.000	0.011	0.049
-682.266	-169.871	-0.140	0.005
-681.251	324.302	-0.083	0.160
-680.237	16.143	0.289	-0.230
-679.222	56.071	0.342	-0.334
-678.208	800.000	0.118	0.445
-677.193	-200.000	0.027	0.218
-676.178	-170.629	0.256	0.009
-675.164	272.724	-0.100	-0.177
-674.149	25.808	0.237	0.199
-673.135	-7.689	0.264	-0.180
-672.120	-134.651	0.258	0.032
-671.105	214.120	-0.062	-0.098
-670.091	-84.878	0.211	-0.067
-669.076	-193.630	-0.167	-0.001
-668.062	-31.546	-0.410	-0.232
-667.047	-59.074	-0.189	0.082
-666.032	-143.781	0.192	-0.018
-665.018	53.851	-0.190	-0.184
-664.003	66.206	0.169	-0.172
-662.989	89.180	-0.310	0.347
-661.974	177.062	-0.036	0.052
-660.959	800.000	-0.029	0.118
-659.945	-200.000	0.023	-0.145
-658.930	213.966	0.092	-0.146
-657.916	38.322	-0.132	-0.118
-656.901	-200.000	0.048	-0.283
-655.886	-150.644	-0.137	0.011
-654.872	-200.000	-0.002	-0.124
-653.857	800.000	-0.004	0.012
-652.843	-121.304	-0.036	-0.006
-651.828	551.292	0.077	0.187
-650.814	-96.905	-0.067	0.018
-649.799	-186.321	0.205	0.003
-648.784	800.000	-0.065	-0.243
-647.770	49.109	0.057	0.054
-646.755	-200.000	0.020	0.369
-645.741	-200.000	0.004	0.033
-644.726	697.665	-0.004	0.010
-643.711	-136.469	0.312	-0.036
-642.697	-200.000	0.002	0.154
-641.682	-35.563	0.166	0.090
-640.668	-200.000	-0.001	-0.249
-639.653	-200.000	0.045	-0.472
-638.638	363.982	-0.181	-0.366
-637.624	59.160	0.091	-0.090
-636.609	-38.863	-0.258	0.137
-635.595	-64.280	0.171	0.070
-634.580	-37.399	-0.123	-0.066
-633.565	132.762	0.224	-0.291
-632.551	53.665	0.158	-0.153
-631.536	800.000	-0.042	-0.153
-630.522	-175.176	-0.244	-0.007
-629.507	-15.344	-0.173	-0.111
-628.492	-79.167	0.106	0.036
-627.478	17.233	0.309	-0.246
-626.463	-200.000	0.018	0.121
-625.449	-200.000	-0.050	-0.329
-624.434	-68.925	-0.218	-0.085
-623.419	141.217	-0.036	-0.048
-622.405	-198.853	-0.357	0.002
-621.390	324.580	-0.115	-0.221
-620.376	-36.914	-0.208	0.112
-619.361	-50.823	0.106	-0.050
-618.346	53.066	-0.119	0.115
-617.332	24.654	-0.205	0.171
-616.317	800.000	-0.030	0.112
-615.303	167.890	0.089	0.127
-614.288	-200.000	0.002	0.078
-613.273	-200.000	-0.038	0.228
-612.259	52.168	0.080	0.077
-611.244	-3.998	0.109	-0.076
-610.230	129.140	-0.039	0.050
-609.215	-200.000	-0.014	-0.066
-608.201	-200.000	-0.032	-0.355
-607.186	-200.000	-0.027	-0.253
-606.171	178.573	0.163	-0.239
-605.157	-200.000	-0.005	0.276
-604.142	-21.957	-0.152	-0.092
-603.128	84.705	-0.193	0.212
-602.113	-200.000	0.011	-0.058
-601.098	-156.682	0.406	-0.025
-600.084	-200.000	0.001	-0.207
-599.069	-29.111	-0.050	0.029
-598.055	-103.214	-0.102	0.024
-597.040	-200.000	0.017	-0.173
-596.025	16.470	-0.104	0.083
-595.011	-200.000	0.014	0.326
-593.996	7.703	-0.136	-0.102
-592.982	800.000	0.049	-0.153
-591.967	800.000	0.034	-0.133
-590.952	143.775	0.091	-0.121
-589.938	-28.554	0.105	-0.061
-588.923	-58.759	0.214	-0.093
-587.909	68.244	-0.224	-0.230
-586.894	-200.000	0.011	-0.090
-585.879	28.672	0.152	-0.129
-584.865	169.835	-0.045	0.065
-583.850	-200.000	0.017	0.161
-582.836	800.000	-0.038	0.111
-581.821	26.356	0.262	0.220
-580.806	800.000	0.037	-0.120
-579.792	147.628	0.047	-0.064
-578.777	800.000	-0.020	-0.084
-577.763	-200.000	0.003	-0.215
-576.748	-200.000	0.007	-0.039
-575.733	800.000	0.039	-0.110
-574.719	32.700	0.033	0.028
-573.704	105.343	-0.206	0.244
-572.690	-118.901	-0.156	0.027
-571.675	-29.517	0.133	-0.076
-570.661	357.590	-0.100	-0.199
-569.646	800.000	0.084	-0.342
-568.631	145.802	-0.217	-0.291
-567.617	-200.000	0.013	-0.154
-566.602	-22.901	-0.410	0.248
-565.588	136.999	0.117	0.154
-564.573	200.101	0.136	-0.209
-563.558	-42.889	0.124	-0.063
-562.544	40.300	0.070	-0.063
-561.529	-78.449	-0.326	-0.112
-560.515	-131.043	-0.073	0.010
-559.500	0.452	-0.465	-0.333
-558.485	-31.309	0.184	-0.104
-557.471	259.277	-0.045	0.078
-556.456	-39.133	0.137	-0.072
-555.442	-26.789	-0.281	0.165
-554.427	-39.660	-0.179	-0.094
-553.412	420.253	0.140	0.300
-552.398	-103.335	0.365	-0.086
-551.383	-200.000	-0.010	-0.204
-550.369	-84.141	-0.216	-0.068
-549.354	-4.847	0.094	0.065
-548.339	425.213	-0.090	0.195
-547.325	-28.597	0.263	0.151
-546.310	-85.727	-0.170	-0.053
-545.296	-102.951	0.223	-0.053
-544.281	-102.991	-0.322	0.076
-543.266	55.465	0.112	0.108
-542.252	-147.944	-0.242	0.020
-541.237	-200.000	0.006	-0.180
-540.223	-200.000	-0.038	-0.205
-539.208	102.214	0.081	-0.095
-538.193	-129.357	0.243	0.034
-537.179	-200.000	-0.011	-0.053
-536.164	-158.738	0.266	-0.015
-535.150	-102.827	-0.336	-0.080
-534.135	379.108	-0.066	-0.134
-533.121	-42.542	-0.292	0.149
-532.106	-1.268	0.221	0.156
-531.091	689.391	-0.056	0.146
-530.077	-33.292	-0.279	-0.155
-529.062	-200.000	-0.009	-0.209
-528.048	-58.932	0.279	0.121
-527.033	-101.142	0.149	0.036
-526.018	-200.000	-0.013	0.104
-525.004	-177.603	-0.169	-0.004
-523.989	-1.040	-0.104	0.073
-522.975	-48.147	-0.232	0.112
-521.960	-162.449	-0.111	0.006
-520.945	-104.681	-0.214	-0.049
-519.931	800.000	-0.055	0.205
-518.916	-141.382	0.308	-0.031
-517.902	-200.000	-0.085	0.422
-516.887	-119.527	0.219	0.038
-515.872	-92.789	0.142	0.040
-514.858	-45.103	-0.232	-0.115
-513.843	12.575	-0.227	-0.175
-512.829	89.842	-0.147	-0.165
-511.814	-3.554	-0.147	-0.102
-510.799	61.999	-0.103	0.103
-509.785	-104.134	0.134	-0.031
-508.770	-200.000	-0.003	-0.157
-507.756	-200.000	0.008	-0.211
-506.741	-89.964	0.297	0.087
-505.726	770.724	0.057	-0.156
-504.712	-54.473	-0.117	-0.053
-503.697	176.682	0.105	-0.153
-502.683	168.800	-0.247	0.352
-501.668	-104.999	0.133	0.030
-500.653	12.624	-0.158	0.122
-499.639	800.000	-0.080	-0.348
-498.624	-163.353	-0.212	0.010
-497.610	11.953	-0.123	0.095
-496.595	-17.321	-0.102	-0.064
-495.581	-23.285	0.112	0.067
-494.566	-189.412	-0.110	-0.001
-493.551	-105.354	-0.173	0.039
-492.537	-35.472	0.201	0.109
-491.522	169.467	-0.088	0.125
-490.508	23.932	-0.124	-0.103
-489.493	-200.000	-0.009	0.100
-488.478	-71.835	0.127	-0.047
-487.464	366.163	0.042	0.084
-486.449	-200.000	-0.069	0.301
-485.435	-9.518	-0.175	0.117
-484.420	-162.142	-0.122	0.006
-483.405	100.040	0.152	0.176
-482.391	-32.863	0.270	0.150
-481.376	-127.610	-0.369	-0.053
-480.362	49.913	0.337	-0.318
-479.347	177.413	-0.090	-0.131
-478.332	84.708	-0.139	0.152
-477.318	-162.943	-0.208	-0.010
-476.303	345.722	0.224	-0.439
-475.289	651.389	-0.026	0.067
-474.274	-120.133	-0.186	-0.032
-473.259	-89.419	-0.090	-0.026
-472.245	-200.000	0.030	0.140
-471.230	41.247	-0.103	0.093
-470.216	136.870	-0.100	0.131
-469.201	261.047	-0.133	0.230
-468.186	-159.627	0.184	-0.010
-467.172	40.809	0.180	-0.162
-466.157	-122.996	0.307	0.049
-465.143	84.159	0.127	0.138
-464.128	-150.924	-0.416	-0.031
-463.113	800.000	0.029	0.126
-462.099	29.776	0.093	-0.079
-461.084	-10.868	0.121	0.080
-460.070	77.053	0.113	0.119
-459.055	102.856	-0.229	0.268
-458.040	767.203	-0.146	0.397
-457.026	642.832	0.118	-0.299
-456.011	-107.455	-0.329	-0.072
-454.997	-58.027	0.419	-0.182
-453.982	-17.056	0.225	-0.142
-452.968	-72.878	-0.150	-0.055
-451.953	246.720	0.079	0.133
-450.938	-117.099	0.116	0.021
-449.924	800.000	-0.037	0.147
-448.909	249.107	-0.097	-0.164
-447.895	-25.974	0.108	0.064
-446.880	-94.213	-0.111	-0.030
-445.865	-6.066	-0.173	-0.118
-444.851	64.616	-0.267	-0.269
-443.836	-171.756	0.316	-0.010
-442.822	457.026	-0.066	0.145
-441.807	800.000	-0.071	0.269
-440.792	-125.055	0.147	-0.023
-439.778	655.000	-0.064	0.165
-438.763	-30.485	0.192	-0.109
-437.749	386.793	-0.065	0.134
-436.734	-200.000	-0.043	0.201
-435.719	-139.570	-0.400	0.043
-434.705	-93.589	0.242	0.067
-433.690	-126.848	-0.147	0.022
-432.676	167.104	-0.168	-0.237
-431.661	215.767	-0.059	-0.093
-430.646	-17.197	-0.149	0.093
-429.632	184.347	-0.305	0.450
-428.617	-86.700	0.264	-0.081
-427.603	-101.520	0.271	0.066
-426.588	-105.245	-0.455	-0.103
-425.573	41.781	0.057	0.052
-424.559	-14.448	-0.134	-0.086
-423.544	-58.490	-0.383	-0.166
-422.530	-137.910	-0.120	-0.013
-421.515	72.894	-0.032	0.033
-420.500	800.000	0.044	-0.177
-419.486	550.319	-0.111	-0.264
-418.471	21.035	-0.171	-0.138
-417.457	146.711	-0.314	-0.420
-416.442	-180.162	0.085	0.002
-415.428	-43.487	0.281	-0.141
-414.413	-70.980	-0.243	0.091
-413.398	104.238	0.057	-0.067
-412.384	-8.642	-0.031	0.021
-411.369	-124.133	0.186	-0.029
-410.355	116.062	-0.126	-0.153
-409.340	800.000	-0.095	-0.286
-408.325	-200.000	-0.005	0.043
-407.311	-200.000	0.003	0.035
-406.296	297.467	0.198	0.363
-405.282	74.702	-0.047	-0.049
-404.267	-146.515	-0.152	0.013
-403.252	-91.766	0.221	0.063
-402.238	126.197	0.165	0.208
-401.223	-200.000	-0.027	-0.415
-400.209	-118.171	0.210	0.037
-399.194	-112.695	-0.266	0.053
-398.179	257.619	0.113	-0.193
-397.165	800.000	-0.108	-0.342
-396.150	159.321	0.039	-0.054
-395.136	59.409	0.251	0.247
-394.121	-122.037	-0.212	-0.035
-393.106	91.413	0.028	-0.031
-392.092	10.519	0.201	0.152
-391.077	153.003	-0.186	0.254
-390.063	567.322	0.069	-0.167
-389.048	-89.706	-0.112	0.033
-388.033	459.890	-0.030	0.066
-387.019	-118.628	-0.099	0.017
-386.004	479.090	0.122	0.276
-384.990	-16.504	0.345	-0.218
-383.975	800.000	-0.146	0.443
-382.960	-145.888	0.142	0.013
-381.946	-8.120	-0.057	0.038
-380.931	-76.703	0.082	0.029
-379.917	130.044	0.253	0.322
-378.902	-192.866	-0.176	-0.002
-377.888	-79.609	0.122	0.041
-376.873	666.348	-0.108	0.277
-375.858	373.347	0.110	0.222
-374.844	156.990	0.139	0.192
-373.829	-46.300	-0.144	0.070
-372.815	-200.000	0.008	-0.169
-371.800	800.000	0.037	-0.112
-370.785	53.058	0.205	0.195
-369.771	-22.954	-0.271	0.162
-368.756	-37.456	-0.058	0.031
-367.742	-92.880	0.147	-0.041
-366.727	-66.997	-0.132	-0.052
-365.712	-76.030	0.578	-0.203
-364.698	-75.899	0.424	-0.149
-363.683	191.557	-0.211	-0.315
-362.669	-200.000	-0.007	-0.031
-361.654	159.690	0.144	0.199
-360.639	-33.938	0.032	0.017
-359.625	-200.000	0.010	0.084
-358.610	800.000	0.144	0.408
-357.596	254.652	0.083	-0.142
-356.581	-200.000	-0.002	-0.242
-355.566	-200.000	-0.014	-0.140
-354.552	-155.468	0.125	0.008
-353.537	-92.902	0.074	0.020
-352.523	-114.707	0.200	-0.038
-351.508	-149.325	-0.090	0.007
-350.493	-151.600	0.067	0.005
-349.479	-38.643	0.415	-0.218
-348.464	-200.000	0.006	0.063
-347.450	-200.000	0.330	-0.001
-346.435	-48.482	-0.365	-0.174
-345.420	800.000	-0.025	0.096
-344.406	663.949	-0.070	-0.179
-343.391	-39.910	0.524	0.272
-342.377	67.640	0.077	0.079
-341.362	36.656	-0.253	-0.222
-340.348	-23.530	-0.134	-0.080
-339.333	-68.402	0.309	-0.119
-338.318	800.000	-0.015	0.061
-337.304	-135.177	0.091	0.011
-336.289	-175.579	-0.103	-0.003
-335.275	-8.279	-0.121	0.081
-334.260	800.000	-0.108	0.334
-333.245	-103.589	0.146	0.034
-332.231	-200.000	-0.041	0.317
-331.216	800.000	-0.093	0.259
-330.202	790.999	-0.058	-0.160
-329.187	-200.000	0.036	0.284
-328.172	800.000	0.065	-0.216
-327.158	296.962	0.173	0.315
-326.143	318.506	-0.092	-0.173
-325.129	83.138	0.222	0.240
-324.114	-52.223	0.173	0.080
-323.099	-145.747	-0.255	-0.023
-322.085	563.884	-0.124	0.298
-321.070	-40.834	-0.385	0.198
-320.056	-173.566	-0.230	0.007
-319.041	265.785	0.176	-0.305
-318.026	213.049	-0.012	-0.019
-317.012	-107.550	0.249	-0.054
-315.997	69.784	0.245	-0.250
-314.983	96.594	-0.153	-0.174
-313.968	468.886	-0.069	-0.155
-312.953	800.000	-0.166	0.503
-311.939	53.093	-0.047	-0.044
-310.924	-113.302	-0.095	-0.019
-309.910	-127.223	0.114	0.017
-308.895	-116.254	-0.185	0.034
-307.880	-191.093	0.414	-0.004
-306.866	-200.000	-0.000	-0.241
-305.851	800.000	-0.040	-0.146
-304.837	-200.000	0.012	-0.074
-303.822	-157.359	0.204	0.012
-302.807	107.491	-0.095	0.112
-301.793	-200.000	0.010	0.221
-300.778	154.304	-0.086	0.117
-299.764	-149.285	-0.128	0.010
-298.749	-101.677	-0.178	0.043
-297.735	267.821	0.092	0.159
-296.720	180.846	0.139	-0.203
-295.705	64.947	0.235	-0.236
-294.691	253.621	0.030	0.052
-293.676	-200.000	0.035	0.202
-292.662	-65.127	-0.205	0.082
-291.647	713.481	0.167	0.439
-290.632	-174.401	0.219	0.006
-289.618	-200.000	0.030	-0.325
-288.603	13.698	0.123	0.095
-287.589	-31.926	-0.082	0.046
-286.574	-83.313	0.120	-0.038
-285.559	107.683	0.308	0.363
-284.545	-124.251	-0.083	-0.013
-283.530	-105.168	-0.273	-0.062
-282.516	-200.000	-0.016	0.397
-281.501	-200.000	-0.003	0.181
-280.486	-107.227	-0.182	0.040
-279.472	107.425	-0.198	-0.234
-278.457	448.381	-0.078	-0.170
-277.443	-101.716	0.348	-0.084
-276.428	-107.543	-0.122	0.027
-275.413	-76.565	0.314	0.109
-274.399	-12.802	0.078	-0.050
-273.384	-113.150	0.208	0.041
-272.370	688.026	-0.100	-0.260
-271.355	-137.433	0.102	0.011
-270.340	-81.810	0.100	-0.032
-269.326	-84.807	0.193	0.060
-268.311	76.883	-0.234	0.246
-267.297	-122.672	-0.074	0.012
-266.282	800.000	-0.058	0.196
-265.267	800.000	-0.136	-0.372
-264.253	-200.000	0.000	-0.136
-263.238	274.575	0.194	-0.340
-262.224	-142.676	0.194	-0.019
-261.209	-12.364	0.175	-0.113
-260.195	246.482	-0.082	-0.137
-259.180	-46.484	0.149	-0.072
-258.165	-200.000	-0.008	-0.048
-257.151	0.097	0.225	0.159
-256.136	-139.438	-0.050	-0.005
-255.122	-200.000	0.015	0.425
-254.107	15.462	-0.129	0.100
-253.092	49.377	-0.168	-0.156
-252.078	24.840	-0.104	0.085
-251.063	182.212	-0.196	-0.286
-250.049	-83.044	0.286	-0.091
-249.034	-55.021	-0.112	0.050
-248.019	-200.000	0.016	-0.296
-247.005	-54.978	0.032	-0.014
-245.990	82.813	-0.290	-0.312
-244.976	-200.000	0.025	0.322
-243.961	-113.452	-0.147	0.028
-242.946	26.989	0.058	0.048
-241.932	11.154	-0.319	0.241
-240.917	-25.439	0.218	-0.128
-239.903	-78.429	0.084	0.028
-238.888	156.117	0.166	-0.227
-237.873	504.441	-0.046	0.105
-236.859	-166.130	-0.382	0.016
-235.844	140.469	-0.119	0.155
-234.830	-122.949	0.373	-0.059
-233.815	263.676	-0.156	-0.269
-232.800	-17.671	-0.353	0.219
-231.786	-89.085	-0.470	-0.138
-230.771	-86.994	-0.238	-0.072
-229.757	97.501	0.190	-0.216
-228.742	732.655	0.073	0.192
-227.727	-200.000	-0.004	0.123
-226.713	7.697	-0.158	-0.117
-225.698	-105.811	-0.042	0.009
-224.684	-81.367	-0.416	0.136
-223.669	800.000	-0.181	0.522
-222.655	147.000	0.117	-0.156
-221.640	201.462	0.189	-0.287
-220.625	-200.000	-0.018	0.121
-219.611	163.534	0.322	-0.447
-218.596	-200.000	0.070	0.325
-217.582	-125.026	-0.258	-0.039
-216.567	-200.000	0.005	0.082
-215.552	96.594	-0.251	-0.284
-214.538	96.030	0.235	-0.265
-213.523	-200.000	0.020	0.246
-212.509	-103.197	0.224	-0.052
-211.494	-47.762	0.271	0.130
-210.479	188.854	-0.122	0.180
-209.465	-143.842	0.447	0.042
-208.450	-37.556	0.143	-0.075
-207.436	303.356	0.126	0.231
-206.421	341.086	0.068	0.130
-205.406	343.145	-0.159	-0.307
-204.392	145.319	0.205	0.272
-203.377	391.832	0.084	0.173
-202.363	800.000	0.165	0.465
-201.348	800.000	-0.162	0.449
-200.333	-168.803	0.360	0.013
-199.319	-200.000	-0.029	0.133
-198.304	-79.444	-0.308	0.103
-197.290	-123.307	-0.148	0.023
-196.275	87.814	0.155	0.169
-195.260	800.000	0.061	0.232
-194.246	-92.567	0.160	0.044
-193.231	-200.000	-0.014	-0.245
-192.217	84.932	-0.250	-0.271
-191.202	-200.000	0.005	-0.061
-190.187	56.341	0.228	-0.219
-189.173	52.684	0.170	-0.160
-188.158	196.688	0.154	0.232
-187.144	-71.074	0.161	-0.060
-186.129	60.333	-0.298	0.291
-185.114	-60.592	0.309	-0.130
-184.100	-200.000	0.015	0.085
-183.085	-16.955	-0.162	-0.101
-182.071	-65.772	-0.103	0.041
-181.056	-200.000	-0.046	-0.210
-180.042	717.178	-0.111	-0.290
-179.027	139.493	-0.145	-0.188
-178.012	-81.846	0.252	0.081
-176.998	-43.703	-0.415	0.206
-175.983	-2.852	-0.266	-0.184
-174.969	-59.434	0.106	0.045
-173.954	302.612	-0.125	0.229
-172.939	285.340	-0.121	0.215
-171.925	-119.466	0.223	0.038
-170.910	39.650	0.117	-0.103
-169.896	170.497	0.152	-0.214
-168.881	152.894	0.220	-0.297
-167.866	-110.022	-0.319	0.066
-166.852	800.000	0.070	0.291
-165.837	800.000	0.020	0.067
-164.823	296.874	-0.199	0.360
-163.808	-79.573	0.232	-0.077
-162.793	694.668	0.055	0.142
-161.779	113.188	0.225	-0.269
-160.764	175.998	-0.115	0.164
-159.750	-26.588	-0.162	0.093
-158.735	150.854	-0.106	0.142
-157.720	-106.638	0.207	0.045
-156.706	-92.472	0.380	-0.105
-155.691	-150.734	-0.039	-0.003
-154.677	-200.000	-0.011	-0.136
-153.662	49.717	0.215	-0.200
-152.647	-67.112	-0.122	0.047
-151.633	-149.783	0.109	-0.008
-150.618	-65.909	0.099	0.039
-149.604	-58.450	0.198	0.085
-148.589	-177.074	-0.168	-0.004
-147.574	-166.410	-0.080	0.003
-146.560	-102.420	0.568	-0.134
-145.545	-96.214	-0.156	-0.041
-144.531	489.564	0.122	0.274
-143.516	148.307	0.188	-0.250
-142.502	800.000	-0.024	-0.082
-141.487	-109.566	0.182	-0.038
-140.472	800.000	-0.046	-0.125
-139.458	250.879	0.208	-0.349
-138.443	53.920	0.130	0.123
-137.429	477.783	0.089	-0.199
-136.414	33.142	0.296	0.253
-135.399	800.000	-0.068	0.245
-134.385	109.611	0.085	0.100
-133.370	-200.000	0.033	-0.165
-132.356	132.184	-0.046	-0.059
-131.341	-200.000	-0.019	0.180
-130.326	609.407	-0.100	-0.247
-129.312	-12.120	0.523	-0.337
-128.297	535.658	-0.061	0.142
-127.283	-50.075	-0.196	0.091
-126.268	217.819	0.163	-0.256
-125.253	-61.794	-0.252	-0.104
-124.239	477.632	-0.082	0.182
-123.224	-200.000	0.008	-0.151
-122.210	294.307	-0.148	-0.266
-121.195	262.152	0.011	-0.019
-120.180	347.320	-0.228	-0.442
-119.166	-200.000	0.040	0.226
-118.151	177.209	0.059	-0.085
-117.137	62.586	-0.270	-0.266
-116.122	-51.140	0.214	-0.099
-115.107	-7.053	-0.116	-0.077
-114.093	-24.618	0.237	0.139
-113.078	-21.124	-0.118	0.071
-112.064	-138.317	-0.193	-0.021
-111.049	341.433	0.048	-0.091
-110.034	-200.000	-0.009	-0.192
-109.020	415.854	-0.087	0.183
-108.005	558.741	-0.050	0.119
-106.991	34.481	-0.062	-0.053
-105.976	-179.621	0.139	0.003
-104.962	469.635	-0.118	0.260
-103.947	-66.687	0.081	-0.031
-102.932	-200.000	-0.002	0.197
-101.918	800.000	0.062	-0.200
-100.903	120.492	-0.162	-0.198
-99.889	-200.000	0.026	-0.339
-98.874	77.527	-0.222	0.232
-97.859	-23.757	0.062	-0.037
-96.845	-133.034	-0.192	0.024
-95.830	96.300	0.251	-0.283
-94.816	-20.908	0.299	0.180
-93.801	-200.000	0.010	-0.075
-92.786	-102.961	-0.275	0.064
-91.772	91.194	0.100	0.111
-90.757	173.537	-0.130	-0.184
-89.743	800.000	0.002	0.009
-88.728	800.000	-0.074	-0.267
-87.713	-200.000	0.040	0.311
-86.699	-200.000	0.003	-0.135
-85.684	29.739	-0.098	0.082
-84.670	-174.338	-0.069	0.002
-83.655	-11.909	-0.186	-0.120
-82.640	40.021	0.093	-0.082
-81.626	143.372	0.174	-0.228
-80.611	-200.000	0.002	-0.172
-79.597	-30.844	0.104	-0.058
-78.582	171.838	0.141	-0.199
-77.567	207.317	-0.236	-0.362
-76.553	-40.498	-0.369	0.188
-75.538	-200.000	-0.130	-0.563
-74.524	-25.581	-0.094	-0.055
-73.509	15.060	-0.094	0.073
-72.494	95.879	0.164	0.184
-71.480	5.535	-0.170	0.123
-70.465	-41.630	-0.163	0.082
-69.451	-1.554	-0.158	-0.109
-68.436	172.774	-0.188	0.266
-67.422	800.000	-0.061	-0.179
-66.407	95.956	0.128	0.144
-65.392	282.532	0.145	-0.256
-64.378	-92.729	0.269	0.074
-63.363	-200.000	0.010	0.151
-62.349	-75.196	0.163	-0.057
-61.334	14.985	-0.987	-0.759
-60.319	-51.908	0.786	0.359
-59.305	589.518	-0.423	-1.026
-58.290	347.565	0.468	0.905
-57.276	305.315	0.825	1.505
-56.261	-200.000	96.148	583.801
-55.246	576.438	1373.287	3296.203
-54.232	154.865	2586.572	3492.362
-53.217	110.805	2281.826	2697.005
-52.203	44.917	1899.452	1717.671
-51.188	38.518	1687.165	1477.545
-50.173	35.708	1642.327	1417.544
-49.159	53.742	1691.527	1595.256
-48.144	57.487	1709.525	1640.126
-47.130	38.080	1665.507	1455.083
-46.115	35.215	1649.527	1419.878
-45.100	34.972	1645.161	1414.270
-44.086	34.910	1642.629	1411.579
-43.071	34.825	1639.816	1408.479
-42.057	34.941	1637.685	1407.441
-41.042	34.984	1635.216	1405.582
-40.027	35.025	1633.264	1404.152
-39.013	34.945	1631.254	1401.781
-37.998	34.952	1630.045	1400.734
-36.984	34.938	1628.692	1399.415
-35.969	35.026	1627.079	1398.618
-34.954	35.080	1625.483	1397.587
-33.940	35.155	1623.558	1396.419
-32.925	35.155	1621.711	1394.779
-31.911	35.123	1620.050	1393.063
-30.896	35.008	1618.379	1390.730
-29.881	34.983	1617.240	1389.517
-28.867	35.010	1615.762	1388.390
-27.852	34.989	1613.910	1386.590
-26.838	35.091	1612.134	1385.748
-25.823	35.075	1611.170	1384.745
-24.809	35.096	1609.412	1383.336
-23.794	35.165	1608.016	1382.574
-22.779	35.114	1606.408	1380.769
-21.765	35.046	1605.184	1379.174
-20.750	35.078	1602.956	1377.434
-19.736	35.154	1601.410	1376.601
-18.721	35.133	1600.524	1375.629
-17.706	35.141	1598.652	1374.022
-16.692	35.107	1596.797	1372.136
-15.677	35.098	1595.682	1371.053
-14.663	35.128	1594.455	1370.162
-13.648	35.106	1593.132	1368.816
-12.633	35.039	1591.691	1367.040
-11.619	35.122	1590.307	1366.388
-10.604	35.127	1588.690	1364.981
-9.590	35.221	1587.522	1364.594
-8.575	35.227	1585.443	1362.796
-7.560	35.165	1584.489	1361.485
-6.546	35.056	1583.806	1360.066
-5.531	35.053	1582.497	1358.867
-4.517	35.164	1581.291	1358.567
-3.502	35.229	1579.634	1357.545
-2.487	35.160	1578.814	1356.298
-1.473	34.862	1567.027	1344.027
-0.458	32.186	1548.098	1309.125
0.556	28.660	1549.039	1278.129
1.571	26.359	1573.355	1281.783
2.586	25.861	1587.745	1289.829
3.600	22.965	1534.726	1226.574
4.615	12.946	1422.964	1072.339
5.629	3.722	1354.311	963.216
6.644	1.942	1345.304	945.695
7.659	1.778	1344.115	943.758
8.673	1.705	1343.143	942.544
9.688	1.625	1341.036	940.486
10.702	1.420	1338.291	937.210
11.717	4.991	1345.658	964.404
12.731	15.391	1365.406	1043.457
13.746	23.814	1379.441	1106.784
14.761	25.747	1381.529	1120.401
15.775	25.960	1381.237	1121.390
16.790	26.019	1380.833	1121.333
17.804	26.174	1380.410	1121.851
18.819	26.346	1380.335	1122.758
19.834	26.466	1379.480	1122.709
20.848	26.504	1378.574	1122.108
21.863	26.471	1377.725	1121.116
22.877	26.513	1376.786	1120.511
23.892	26.485	1375.961	1119.569
24.907	26.467	1375.259	1118.787
25.921	26.412	1374.479	1117.712
26.936	26.408	1373.479	1116.775
27.950	26.512	1372.202	1116.279
28.965	26.549	1370.981	1115.415
29.980	26.524	1369.363	1113.844
30.994	26.509	1368.417	1112.885
32.009	26.500	1367.342	1111.860
33.023	26.491	1366.174	1110.755
34.038	26.488	1365.238	1109.879
35.053	26.398	1364.032	1108.250
36.067	26.559	1362.875	1108.195
37.082	26.530	1362.078	1107.271
38.096	26.443	1361.464	1106.141
39.111	26.454	1360.790	1105.565
40.126	26.422	1360.210	1104.803
41.140	26.411	1359.559	1104.104
42.155	26.448	1359.339	1104.055
43.169	26.406	1359.692	1103.987
44.184	26.380	1359.226	1103.353
45.199	26.424	1358.444	1102.891
46.213	26.513	1357.778	1102.795
47.228	26.512	1356.685	1101.802
48.242	26.456	1355.662	1100.534
49.257	26.478	1354.225	1099.405
50.271	26.456	1352.954	1098.142
51.286	26.394	1351.618	1096.580
52.301	26.334	1350.953	1095.586
53.315	26.442	1349.614	1095.051
54.330	26.361	1348.575	1093.623
55.344	26.507	1347.632	1093.643
56.359	26.351	1346.829	1091.954
57.374	26.461	1345.912	1091.779
58.388	26.529	1345.331	1091.622
59.403	26.454	1344.556	1090.443
60.417	26.502	1343.993	1090.180
61.432	26.482	1343.277	1089.382
62.447	26.466	1342.657	1088.688
63.461	26.461	1341.594	1087.696
64.476	26.498	1340.273	1086.754
65.490	26.481	1339.701	1086.093
66.505	26.425	1338.167	1084.413
67.520	26.509	1336.400	1083.392
68.534	26.405	1335.745	1082.143
69.549	26.468	1335.047	1081.857
70.563	26.495	1333.971	1081.047
71.578	26.431	1333.140	1079.900
72.593	26.416	1332.327	1079.052
73.607	26.404	1331.757	1078.426
74.622	26.400	1330.802	1077.536
75.636	26.422	1330.115	1077.015
76.651	26.480	1329.459	1076.734
77.666	26.548	1328.787	1076.494
78.680	26.474	1328.615	1075.825
79.695	26.477	1327.751	1075.045
80.709	26.471	1326.723	1074.079
81.724	26.467	1325.833	1073.243
82.739	26.497	1325.042	1072.685
83.753	26.521	1323.751	1071.685
84.768	26.393	1323.150	1070.349
85.782	26.495	1322.114	1070.021
86.797	26.549	1320.796	1069.180
87.812	26.575	1319.682	1068.336
88.826	26.491	1318.653	1066.910
89.841	26.556	1317.481	1066.252
90.855	26.428	1316.815	1064.865
91.870	26.519	1315.647	1064.359
92.884	26.533	1314.992	1063.817
93.899	26.534	1314.563	1063.383
94.914	26.526	1313.585	1062.453
95.928	26.406	1312.791	1061.010
96.943	26.491	1312.305	1061.023
97.957	26.526	1311.474	1060.462
98.972	26.660	1310.186	1060.114
99.987	26.536	1309.489	1058.727
101.001	26.588	1308.304	1057.980
102.016	26.503	1308.086	1057.213
103.030	26.522	1307.012	1056.364
104.045	26.491	1306.031	1055.297
105.060	26.504	1305.129	1054.549
106.074	26.548	1303.950	1053.762
107.089	26.577	1302.947	1053.024
108.103	26.556	1302.026	1052.067
109.118	26.607	1301.108	1051.525
110.133	26.563	1300.282	1050.508
111.147	26.637	1298.689	1049.558
112.162	26.655	1297.855	1048.897
113.176	26.595	1296.757	1047.569
114.191	26.601	1295.918	1046.833
115.206	26.658	1294.957	1046.294
116.220	26.643	1293.673	1045.077
117.235	26.590	1292.880	1044.037
118.249	26.627	1291.999	1043.446
119.264	26.622	1291.095	1042.596
120.279	26.584	1290.460	1041.775
121.293	26.579	1290.007	1041.289
122.308	26.609	1288.938	1040.505
123.322	26.717	1287.929	1040.220
124.337	26.730	1287.079	1039.516
125.352	26.593	1286.294	1038.004
126.366	26.723	1285.605	1038.097
127.381	26.698	1284.934	1037.323
128.395	26.744	1283.611	1036.428
129.410	26.612	1283.192	1035.241
130.424	26.731	1282.635	1035.379
131.439	26.532	1281.868	1033.532
132.454	26.652	1281.011	1033.434
133.468	26.606	1280.147	1032.383
134.483	26.655	1279.765	1032.262
135.497	26.553	1279.069	1031.032
136.512	26.689	1277.438	1030.400
137.527	26.647	1276.604	1029.396
138.541	26.622	1275.476	1028.253
139.556	26.573	1273.959	1026.662
140.570	26.722	1273.128	1026.747
141.585	26.723	1271.574	1025.407
142.600	26.669	1271.153	1024.669
143.614	26.528	1270.348	1023.133
144.629	26.543	1269.249	1022.246
145.643	26.587	1267.911	1021.324
146.658	26.540	1266.934	1020.182
147.673	26.593	1266.277	1019.859
148.687	26.578	1265.024	1018.678
149.702	26.514	1264.256	1017.606
150.716	26.622	1262.520	1016.727
151.731	26.495	1262.542	1015.942
152.746	26.522	1261.634	1015.274
153.760	26.618	1260.083	1014.473
154.775	26.592	1259.550	1013.808
155.789	26.678	1257.989	1012.942
156.804	26.572	1257.525	1011.890
157.819	26.567	1256.758	1011.152
158.833	26.724	1255.622	1011.025
159.848	26.703	1255.221	1010.499
160.862	26.620	1254.891	1009.677
161.877	26.766	1253.659	1009.410
162.892	26.739	1252.718	1008.414
163.906	26.620	1252.431	1007.434
164.921	26.690	1251.548	1007.024
165.935	26.762	1250.742	1006.685
166.950	26.758	1250.279	1006.198
167.964	26.794	1249.316	1005.534
168.979	26.767	1248.969	1005.017
169.994	26.667	1248.770	1004.215
171.008	26.770	1247.716	1003.850
172.023	26.665	1246.962	1002.570
173.037	26.875	1246.125	1002.973
174.052	26.753	1245.537	1001.734
175.067	26.752	1244.665	1000.938
176.081	26.768	1243.951	1000.366
177.096	26.724	1243.053	999.311
178.110	26.824	1242.125	999.028
179.125	26.796	1241.267	998.097
180.140	26.844	1240.191	997.408
181.154	26.741	1238.958	995.761
182.169	26.802	1237.809	995.082
183.183	26.791	1237.229	994.466
184.198	26.835	1235.652	993.356
185.213	26.810	1235.290	992.839
186.227	26.774	1234.349	991.799
187.242	26.862	1233.465	991.482
188.256	26.808	1232.573	990.379
189.271	26.888	1231.593	989.939
190.286	26.865	1230.914	989.184
191.300	26.844	1230.369	988.542
192.315	26.764	1230.349	988.001
193.329	26.809	1229.667	987.614
194.344	26.908	1228.996	987.529
195.359	26.940	1228.610	987.300
196.373	26.803	1228.540	986.411
197.388	26.770	1227.887	985.624
198.402	26.728	1227.486	984.988
199.417	26.880	1226.807	985.177
200.432	26.828	1226.305	984.405
201.446	26.791	1225.800	983.715
202.461	26.761	1225.235	983.009
203.475	26.848	1224.311	982.651
204.490	26.893	1223.089	981.831
205.504	26.877	1222.009	980.790
206.519	26.957	1220.856	980.209
207.534	26.917	1220.279	979.440
208.548	26.845	1219.408	978.270
209.563	26.851	1219.123	977.985
210.577	26.842	1218.566	977.404
211.592	26.863	1217.390	976.486
212.607	26.980	1216.456	976.283
213.621	26.989	1215.825	975.733
214.636	26.978	1214.916	974.864
215.650	26.922	1213.921	973.679
216.665	26.962	1212.928	973.008
217.680	26.830	1212.458	971.837
218.694	27.037	1211.910	972.421
219.709	26.956	1210.678	970.916
220.723	26.960	1209.946	970.263
221.738	27.049	1209.664	970.422
222.753	26.775	1209.263	968.551
223.767	26.923	1208.384	968.554
224.782	26.997	1208.084	968.624
225.796	26.993	1207.496	968.044
226.811	27.094	1206.795	967.936
227.826	27.129	1206.004	967.399
228.840	27.193	1204.958	966.815
229.855	26.982	1204.954	965.606
230.869	27.117	1203.847	965.348
231.884	27.070	1203.351	964.618
232.899	27.028	1202.764	963.841
233.913	27.042	1202.020	963.233
234.928	27.103	1201.562	963.100
235.942	27.144	1201.127	962.888
236.957	27.179	1200.048	962.121
237.972	27.036	1199.845	961.116
238.986	27.035	1198.715	960.119
240.001	27.270	1198.173	960.844
241.015	27.205	1197.732	960.060
242.030	27.144	1196.972	959.043
243.045	27.294	1195.839	958.844
244.059	27.240	1195.088	957.874
245.074	27.283	1194.420	957.478
246.088	27.211	1193.918	956.614
247.103	27.351	1192.633	956.234
248.117	27.269	1192.154	955.332
249.132	27.216	1191.766	954.663
250.147	27.365	1190.794	954.578
251.161	27.308	1189.717	953.331
252.176	27.333	1189.270	953.023
253.190	27.323	1188.659	952.395
254.205	27.322	1188.258	951.984
255.220	27.312	1187.705	951.406
256.234	27.294	1187.421	950.997
257.249	27.206	1186.904	950.039
258.263	27.315	1185.943	949.758
259.278	27.271	1185.402	949.009
260.293	27.281	1185.128	948.755
261.307	27.378	1184.340	948.547
262.322	27.277	1183.964	947.637
263.336	27.245	1183.079	946.680
264.351	27.409	1182.304	946.828
265.366	27.336	1181.703	945.885
266.380	27.348	1181.101	945.381
267.395	27.401	1180.189	944.843
268.409	27.404	1179.747	944.420
269.424	27.369	1179.383	943.863
270.439	27.439	1179.015	943.848
271.453	27.410	1178.202	942.966
272.468	27.332	1177.551	941.953
273.482	27.420	1176.519	941.499
274.497	27.353	1176.333	940.922
275.512	27.493	1175.886	941.205
276.526	27.522	1174.714	940.333
277.541	27.469	1173.963	939.378
278.555	27.567	1173.200	939.188
279.570	27.555	1172.651	938.605
280.585	27.508	1171.925	937.697
281.599	27.559	1170.918	937.071
282.614	27.472	1170.487	936.198
283.628	27.471	1169.387	935.228
284.643	27.499	1168.617	934.674
285.657	27.518	1167.784	934.019
286.672	27.465	1167.272	933.259
287.687	27.551	1166.249	932.800
288.701	27.548	1165.900	932.418
289.716	27.644	1165.011	932.118
290.730	27.568	1164.531	931.264
291.745	27.697	1163.550	931.056
292.760	27.557	1163.551	930.259
293.774	27.710	1162.455	930.079
294.789	27.694	1162.145	929.667
295.803	27.616	1161.415	928.605
296.818	27.635	1160.640	928.000
297.833	27.709	1159.909	927.712
298.847	27.647	1159.511	926.995
299.862	27.710	1158.873	926.721
300.876	27.597	1158.384	925.675
301.891	27.745	1157.484	925.627
302.906	27.818	1156.741	925.317
303.920	27.835	1156.113	924.822
304.935	27.788	1155.722	924.186
305.949	27.752	1155.028	923.366
306.964	27.865	1154.440	923.390
307.979	27.873	1153.863	922.887
308.993	27.797	1153.118	921.826
310.008	27.853	1152.364	921.422
311.022	27.835	1151.566	920.613
312.037	27.874	1150.666	920.005
313.052	27.822	1150.141	919.243
314.066	27.821	1149.365	918.536
315.081	27.863	1148.213	917.745
316.095	27.828	1147.825	917.182
317.110	27.891	1147.408	917.084
318.125	27.908	1146.825	916.622
319.139	27.900	1145.884	915.747
320.154	27.924	1145.404	915.403
321.168	28.027	1144.816	915.369
322.183	28.005	1144.212	914.695
323.197	27.825	1144.129	913.646
324.212	27.855	1143.419	913.147
325.227	27.931	1142.977	913.092
326.241	28.010	1142.514	913.040
327.256	27.952	1141.129	911.559
328.270	28.025	1140.332	911.208
329.285	27.965	1139.906	910.490
330.300	27.879	1139.483	909.639
331.314	27.986	1138.513	909.317
332.329	28.061	1137.451	908.764
333.343	28.073	1136.714	908.152
334.358	28.038	1136.430	907.674
335.373	28.099	1135.600	907.232
336.387	28.149	1134.689	906.668
337.402	28.117	1134.189	906.031
338.416	28.057	1133.817	905.356
339.431	28.125	1133.044	904.995
340.446	28.091	1132.227	904.097
341.460	28.230	1131.874	904.420
342.475	28.208	1130.501	903.135
343.489	28.230	1129.791	902.598
344.504	28.214	1129.105	901.892
345.519	28.037	1128.950	900.813
346.533	28.161	1127.983	900.575
347.548	28.243	1126.911	900.042
348.562	28.225	1126.297	899.382
349.577	28.226	1125.507	898.675
350.592	28.011	1125.328	897.397
351.606	28.181	1124.403	897.419
352.621	28.266	1123.542	897.068
353.635	28.213	1123.251	896.494
354.650	28.276	1122.333	895.991
355.665	28.355	1121.674	895.774
356.679	28.316	1121.244	895.157
357.694	28.364	1120.470	894.697
358.708	28.369	1119.906	894.192
359.723	28.283	1119.320	893.225
360.738	28.314	1118.321	892.498
361.752	28.342	1117.980	892.285
362.767	28.317	1117.468	891.677
363.781	28.448	1117.065	891.912
364.796	28.322	1116.351	890.648
365.810	28.368	1116.029	890.540
366.825	28.340	1115.687	890.052
367.840	28.427	1114.854	889.732
368.854	28.439	1114.215	889.201
369.869	28.433	1113.705	888.686
370.883	28.423	1112.808	887.841
371.898	28.496	1112.138	887.581
372.913	28.586	1111.656	887.552
373.927	28.494	1110.894	886.423
374.942	28.534	1110.612	886.310
375.956	28.597	1110.159	886.175
376.971	28.486	1109.717	885.208
377.986	28.466	1109.079	884.526
379.000	28.512	1108.457	884.172
380.015	28.593	1108.131	884.223
381.029	28.578	1107.321	883.428
382.044	28.642	1106.354	882.887
383.059	28.665	1105.811	882.486
384.073	28.609	1104.921	881.427
385.088	28.550	1104.402	880.654
386.102	28.587	1103.744	880.230
387.117	28.692	1102.555	879.704
388.132	28.652	1101.593	878.669
389.146	28.681	1101.099	878.336
390.161	28.731	1100.611	878.109
391.175	28.729	1100.167	877.666
392.190	28.732	1099.088	876.741
393.205	28.722	1098.304	875.993
394.219	28.598	1098.278	875.300
395.234	28.679	1097.424	874.930
396.248	28.856	1096.514	874.969
397.263	28.778	1095.391	873.625
398.278	28.850	1094.824	873.436
399.292	28.898	1094.409	873.259
400.307	28.835	1093.754	872.360
401.321	28.866	1093.314	872.075
402.336	28.888	1092.296	871.294
403.350	28.853	1091.874	870.710
404.365	28.877	1091.408	870.379
405.380	28.900	1090.544	869.719
406.394	28.932	1089.928	869.305
407.409	28.969	1089.082	868.726
408.423	28.947	1088.642	868.194
409.438	29.047	1087.837	867.949
410.453	29.052	1087.284	867.453
411.467	29.115	1086.307	866.893
412.482	29.027	1085.881	866.062
413.496	29.018	1085.111	865.330
414.511	28.986	1084.696	864.773
415.526	29.137	1084.091	864.920
416.540	29.100	1083.460	864.170
417.555	29.117	1082.927	863.746
418.569	28.998	1082.926	863.110
419.584	29.129	1082.542	863.344
420.599	29.099	1082.161	862.823
421.613	102.154	1316.056	1444.296
422.628	95.087	1350.119	1444.425
