DTS Sentinel unit serial number:	SN413079Multiplexer serial number:	ORYXHardware model number:	OX4-SRSoftware version number:	ORYX F/W v4.00 Oryx Data Collector v3.7.2.0data status	okinstallation	princeton_trtdifferential loss correction	single-endedforward channel	channel 2reverse channel	N/Adate	2019/09/11time	00:17:11forward acquisition time	60.00reverse acquisition time	0.00gamma	496.2192k internal	0.2331k external	0.2331temperature offset calibration	0.9943default loss term (dB/km)	0.3790temperature slope calibration	1.0000multiplexer offset coefficient	1.0000multiplexer slope coefficient	1.0000fibre end	0.00T internal ref (°C)	29.30T ext. ref 1 (°C)	-0.32T ext. ref 2 (°C)	22.85length (m)	temperature (°C)	Stokes	anti-Stokes-747.200	-138.827	-0.082	0.009
-746.185	-63.517	0.274	0.113
-745.171	-156.335	0.408	0.026
-744.156	25.839	-0.110	-0.092
-743.142	-200.000	-0.009	0.061
-742.127	-84.932	-0.019	0.006
-741.112	181.954	0.166	0.246
-740.098	-61.592	-0.278	-0.117
-739.083	-1.743	-0.204	-0.144
-738.069	188.274	-0.044	-0.066
-737.054	363.769	-0.128	0.258
-736.039	93.694	-0.315	-0.359
-735.025	-112.071	-0.093	-0.019
-734.010	-104.080	-0.299	-0.070
-732.996	-101.273	0.051	-0.013
-731.981	-9.433	-0.259	-0.174
-730.966	-33.884	-0.224	0.124
-729.952	-200.000	-0.014	0.222
-728.937	486.277	0.089	-0.205
-727.923	13.258	-0.328	-0.256
-726.908	-200.000	0.077	-0.397
-725.894	78.053	-0.161	-0.172
-724.879	-170.537	0.154	0.005
-723.864	20.286	0.292	0.237
-722.850	-200.000	0.006	0.121
-721.835	188.366	-0.098	-0.147
-720.821	-29.241	-0.396	-0.228
-719.806	35.409	-0.206	0.181
-718.791	-43.908	-0.265	0.134
-717.777	-57.884	-0.177	-0.078
-716.762	-80.245	-0.239	-0.080
-715.748	130.846	-0.243	-0.313
-714.733	-76.253	0.192	-0.068
-713.718	-137.061	-0.083	0.010
-712.704	327.414	-0.064	-0.124
-711.689	152.893	-0.276	-0.379
-710.675	517.118	0.071	-0.168
-709.660	-62.558	0.277	-0.116
-708.645	-197.660	-0.208	-0.001
-707.631	-39.986	0.279	-0.146
-706.616	-97.953	0.205	0.053
-705.602	-0.391	-0.244	-0.174
-704.587	-200.000	-0.015	-0.109
-703.572	-95.803	0.223	0.060
-702.558	-200.000	-0.019	0.120
-701.543	-115.432	0.386	0.073
-700.529	-200.000	0.019	0.375
-699.514	10.241	0.138	0.106
-698.499	-137.255	-0.311	0.035
-697.485	-98.776	-0.191	-0.049
-696.470	134.933	0.126	-0.164
-695.456	-136.271	-0.298	-0.035
-694.441	-127.255	0.177	-0.026
-693.426	800.000	0.054	0.180
-692.412	34.224	0.235	0.206
-691.397	-115.775	-0.119	-0.022
-690.383	-39.914	-0.248	-0.130
-689.368	-65.321	0.318	0.128
-688.354	-136.117	-0.138	-0.016
-687.339	-33.027	-0.218	-0.122
-686.324	-183.393	0.277	-0.005
-685.310	-106.065	-0.137	-0.031
-684.295	79.204	-0.120	-0.129
-683.281	-62.044	0.163	-0.068
-682.266	-90.984	0.326	-0.094
-681.251	-200.000	0.012	-0.191
-680.237	312.857	-0.214	0.404
-679.222	336.339	-0.039	0.075
-678.208	769.781	-0.095	0.260
-677.193	-81.798	0.351	0.115
-676.178	800.000	-0.080	-0.312
-675.164	-200.000	0.042	-0.212
-674.149	-20.079	-0.238	-0.147
-673.135	13.171	-0.166	-0.129
-672.120	126.068	0.249	-0.316
-671.105	-52.329	0.267	-0.124
-670.091	288.117	0.054	0.098
-669.076	-128.847	0.111	0.016
-668.062	-22.984	0.102	-0.062
-667.047	-33.924	-0.091	0.050
-666.032	-43.231	-0.201	0.102
-665.018	-101.301	0.191	0.047
-664.003	-200.000	0.029	0.207
-662.989	-36.587	0.212	-0.114
-661.974	-165.708	-0.124	0.005
-660.959	-48.455	0.186	-0.090
-659.945	-92.513	-0.142	0.040
-658.930	176.552	-0.195	-0.284
-657.916	341.352	0.079	-0.154
-656.901	538.178	0.125	-0.297
-655.886	-200.000	-0.008	-0.109
-654.872	-200.000	-0.009	-0.278
-653.857	163.662	0.117	-0.165
-652.843	347.033	-0.088	0.173
-651.828	13.518	-0.260	-0.202
-650.814	-107.970	0.147	0.032
-649.799	-64.878	-0.354	-0.144
-648.784	136.929	0.115	-0.151
-647.770	-200.000	-0.019	-0.089
-646.755	-100.446	0.027	0.007
-645.741	800.000	-0.041	-0.130
-644.726	-49.767	0.258	0.123
-643.711	303.837	-0.079	-0.147
-642.697	-18.044	-0.231	0.145
-641.682	800.000	-0.072	0.263
-640.668	-26.244	0.180	-0.106
-639.653	-84.426	-0.183	-0.058
-638.638	25.230	-0.452	-0.377
-637.624	221.119	-0.166	-0.267
-636.609	-71.712	0.159	-0.060
-635.595	-200.000	0.028	-0.315
-634.580	78.654	-0.182	-0.195
-633.565	69.598	-0.161	0.166
-632.551	-63.371	0.281	0.116
-631.536	-69.828	0.204	-0.078
-630.522	-141.690	0.194	0.019
-629.507	-16.211	0.212	-0.135
-628.492	130.722	0.117	0.150
-627.478	39.661	0.136	0.122
-626.463	-66.562	-0.284	-0.113
-625.449	127.412	0.166	0.212
-624.434	800.000	0.073	0.309
-623.419	-34.376	0.167	-0.092
-622.405	-200.000	0.016	0.201
-621.390	686.379	-0.112	0.292
-620.376	-99.505	-0.214	0.054
-619.361	84.342	-0.066	-0.072
-618.346	-80.076	-0.197	-0.066
-617.332	-200.000	0.284	-0.000
-616.317	-200.000	-0.053	0.359
-615.303	-87.835	-0.328	-0.099
-614.288	800.000	-0.081	0.286
-613.273	-83.793	0.149	-0.048
-612.259	110.702	-0.107	-0.129
-611.244	530.616	-0.050	0.117
-610.230	-200.000	-0.036	0.175
-609.215	-9.637	0.190	0.127
-608.201	-200.000	0.010	-0.665
-607.186	800.000	-0.119	-0.397
-606.171	-200.000	0.019	-0.244
-605.157	-200.000	0.025	-0.281
-604.142	-9.208	-0.379	-0.254
-603.128	-200.000	-0.015	0.066
-602.113	800.000	-0.046	0.143
-601.098	-1.972	0.108	0.076
-600.084	-90.240	-0.227	0.066
-599.069	800.000	-0.042	-0.168
-598.055	-200.000	0.030	-0.137
-597.040	-200.000	-0.022	-0.145
-596.025	-76.817	-0.101	0.036
-595.011	526.039	-0.108	-0.254
-593.996	-200.000	0.046	-0.260
-592.982	-200.000	0.016	-0.282
-591.967	-200.000	0.003	0.037
-590.952	-200.000	0.002	0.444
-589.938	-61.348	0.227	-0.096
-588.923	331.575	0.059	-0.115
-587.909	106.271	-0.206	-0.244
-586.894	-200.000	-0.002	0.126
-585.879	659.950	0.017	-0.043
-584.865	141.485	-0.026	0.034
-583.850	85.103	-0.157	-0.173
-582.836	-200.000	-0.032	-0.284
-581.821	762.811	0.074	-0.202
-580.806	-135.115	-0.244	-0.029
-579.792	800.000	-0.054	-0.214
-578.777	-58.389	-0.236	0.102
-577.763	443.102	-0.135	-0.295
-576.748	-97.966	0.146	0.038
-575.733	-200.000	-0.083	0.396
-574.719	-111.237	-0.278	0.057
-573.704	-200.000	0.024	-0.250
-572.690	800.000	0.078	0.239
-571.675	-146.868	-0.332	-0.029
-570.661	-47.136	0.090	-0.044
-569.646	-122.337	-0.150	-0.024
-568.631	-22.409	0.498	-0.301
-567.617	-72.515	-0.081	-0.030
-566.602	-48.703	0.134	-0.064
-565.588	-65.921	0.044	0.018
-564.573	-29.356	-0.019	-0.011
-563.558	84.771	0.110	0.121
-562.544	311.757	0.121	-0.226
-561.529	22.429	0.314	0.256
-560.515	800.000	0.056	-0.190
-559.500	93.791	-0.301	0.341
-558.485	-43.741	0.208	0.104
-557.471	800.000	-0.063	0.183
-556.456	367.658	0.038	-0.078
-555.442	269.758	0.037	-0.064
-554.427	-45.597	0.010	0.005
-553.412	800.000	0.053	0.223
-552.398	-31.908	0.350	0.196
-551.383	-142.685	-0.100	-0.010
-550.369	-200.000	-0.032	-0.188
-549.354	-41.713	-0.145	0.075
-548.339	-200.000	0.015	-0.155
-547.325	77.549	0.345	-0.367
-546.310	-95.246	-0.194	-0.052
-545.296	95.292	-0.200	0.227
-544.281	-111.820	0.098	0.020
-543.266	-47.475	-0.130	-0.063
-542.252	-106.676	-0.196	-0.044
-541.237	6.605	0.041	0.030
-540.223	-17.299	0.390	-0.246
-539.208	-200.000	-0.005	0.282
-538.193	-200.000	0.061	-0.267
-537.179	-60.290	0.290	-0.123
-536.164	185.249	-0.185	-0.275
-535.150	-101.545	0.070	-0.017
-534.135	-200.000	0.032	0.252
-533.121	-200.000	0.026	-0.171
-532.106	369.135	-0.089	-0.179
-531.091	195.083	-0.094	-0.142
-530.077	-68.077	0.243	-0.095
-529.062	0.867	-0.258	0.184
-528.048	571.780	0.142	-0.344
-527.033	-200.000	0.066	0.439
-526.018	-200.000	0.031	-0.321
-525.004	368.093	0.031	-0.062
-523.989	800.000	0.089	-0.277
-522.975	-137.798	0.192	0.021
-521.960	-200.000	0.020	0.286
-520.945	-28.332	-0.342	0.197
-519.931	8.569	-0.204	-0.153
-518.916	455.147	-0.038	-0.085
-517.902	-12.894	0.239	0.155
-516.887	-200.000	-0.058	-0.326
-515.872	68.924	0.092	-0.094
-514.858	84.115	-0.195	-0.212
-513.843	-50.782	0.206	0.097
-512.829	161.965	-0.211	0.294
-511.814	662.774	-0.113	-0.291
-510.799	-98.695	-0.163	-0.041
-509.785	-123.976	-0.329	-0.052
-508.770	201.096	0.112	-0.171
-507.756	51.983	-0.029	-0.028
-506.741	-69.050	0.306	0.118
-505.726	-71.273	-0.115	0.043
-504.712	-83.752	-0.182	-0.058
-503.697	50.629	0.296	0.280
-502.683	72.312	0.140	-0.146
-501.668	71.679	0.050	-0.052
-500.653	-19.361	-0.313	0.194
-499.639	-101.578	-0.285	-0.069
-498.624	446.688	0.077	-0.168
-497.610	800.000	-0.069	-0.204
-496.595	18.250	-0.058	-0.046
-495.581	214.589	0.037	-0.059
-494.566	-155.932	0.135	0.009
-493.551	-23.333	0.053	0.031
-492.537	-166.946	-0.354	0.014
-491.522	-51.185	0.316	-0.147
-490.508	-47.515	-0.121	-0.058
-489.493	255.937	0.086	-0.147
-488.478	-91.200	0.124	-0.036
-487.464	106.039	0.049	-0.058
-486.449	685.372	-0.032	0.083
-485.435	-37.677	-0.357	0.189
-484.420	800.000	0.172	0.567
-483.405	-88.625	-0.354	-0.105
-482.391	185.223	-0.195	0.288
-481.376	166.817	0.110	0.155
-480.362	-111.011	-0.176	-0.036
-479.347	183.469	-0.218	-0.321
-478.332	-78.757	0.063	0.021
-477.318	-71.475	-0.329	-0.123
-476.303	-105.536	0.319	0.072
-475.289	-166.904	-0.166	-0.007
-474.274	196.641	-0.178	-0.270
-473.259	135.277	0.175	-0.226
-472.245	7.151	0.215	0.160
-471.230	247.114	0.076	0.127
-470.216	800.000	-0.015	-0.057
-469.201	240.714	-0.171	0.284
-468.186	112.080	-0.131	-0.158
-467.172	-130.884	0.217	0.029
-466.157	-191.820	0.234	0.002
-465.143	107.341	-0.191	0.226
-464.128	439.116	0.112	-0.243
-463.113	232.997	-0.164	-0.269
-462.099	359.418	0.207	0.412
-461.084	-200.000	0.001	0.052
-460.070	357.730	0.018	0.035
-459.055	-151.563	-0.400	-0.029
-458.040	168.784	0.223	0.316
-457.026	-200.000	-0.025	0.508
-456.011	171.294	0.180	-0.257
-454.997	42.402	0.415	-0.376
-453.982	-200.000	-0.001	0.133
-452.968	-72.603	-0.131	0.048
-451.953	800.000	0.061	0.170
-450.938	-106.791	0.255	-0.056
-449.924	442.094	0.059	-0.130
-448.909	621.520	0.101	0.253
-447.895	170.020	-0.089	-0.126
-446.880	-200.000	0.025	0.219
-445.865	800.000	-0.024	0.087
-444.851	-131.032	-0.150	0.020
-443.836	181.664	0.167	-0.245
-442.822	-51.505	0.395	-0.183
-441.807	-200.000	-0.008	-0.118
-440.792	-33.335	0.391	0.215
-439.778	-48.839	-0.089	-0.043
-438.763	-32.811	-0.289	-0.160
-437.749	800.000	-0.073	0.240
-436.734	-84.646	-0.139	0.044
-435.719	800.000	0.037	-0.138
-434.705	-48.736	0.186	0.089
-433.690	-96.281	-0.176	0.046
-432.676	413.947	-0.101	-0.213
-431.661	32.579	0.199	0.171
-430.646	800.000	-0.098	-0.284
-429.632	-2.912	-0.561	-0.390
-428.617	-71.042	-0.465	-0.174
-427.603	380.032	0.061	0.124
-426.588	-200.000	-0.049	0.359
-425.573	-88.872	0.241	0.071
-424.559	47.094	0.270	-0.249
-423.544	-14.153	-0.063	0.040
-422.530	-16.661	-0.099	-0.062
-421.515	-200.000	0.011	-0.151
-420.500	-8.475	0.135	0.090
-419.486	5.852	0.278	0.204
-418.471	-10.890	-0.181	0.119
-417.457	-200.000	-0.008	-0.043
-416.442	-195.761	0.075	-0.001
-415.428	-141.895	0.032	-0.003
-414.413	-166.167	-0.325	0.014
-413.398	18.231	0.103	0.081
-412.384	-71.905	-0.262	0.097
-411.369	-92.766	-0.178	-0.049
-410.355	-164.141	0.286	0.013
-409.340	190.529	-0.056	-0.083
-408.325	-65.949	-0.206	0.082
-407.311	21.205	0.194	-0.157
-406.296	81.466	-0.153	0.164
-405.282	-134.679	0.218	-0.026
-404.267	153.804	0.229	-0.312
-403.252	103.084	-0.183	-0.213
-402.238	-114.256	-0.187	-0.036
-401.223	-200.000	0.030	-0.323
-400.209	-70.990	0.334	0.125
-399.194	-5.218	-0.361	0.246
-398.179	-200.000	0.062	-0.275
-397.165	-200.000	-0.050	0.399
-396.150	-51.039	-0.203	0.095
-395.136	215.997	-0.099	-0.157
-394.121	114.968	-0.070	-0.085
-393.106	-84.290	0.113	0.036
-392.092	-103.174	0.325	0.076
-391.077	-200.000	0.063	-0.347
-390.063	800.000	0.043	0.148
-389.048	800.000	-0.081	0.278
-388.033	-34.809	0.246	-0.133
-387.019	-200.000	-0.001	-0.015
-386.004	-73.398	-0.129	-0.047
-384.990	-200.000	0.038	0.186
-383.975	-62.129	-0.167	0.069
-382.960	-173.201	0.075	0.002
-381.946	-12.520	0.385	0.249
-380.931	800.000	-0.063	0.182
-379.917	-200.000	0.017	-0.103
-378.902	-16.858	0.156	0.098
-377.888	-200.000	0.007	-0.056
-376.873	-200.000	0.054	-0.279
-375.858	-149.575	-0.120	0.009
-374.844	-44.288	0.056	0.028
-373.829	-95.680	0.288	-0.076
-372.815	-85.148	0.064	0.020
-371.800	-200.000	-0.014	0.239
-370.785	-200.000	-0.060	0.372
-369.771	296.792	-0.104	-0.190
-368.756	-200.000	0.036	0.551
-367.742	269.833	-0.094	0.164
-366.727	200.931	-0.121	-0.184
-365.712	119.655	-0.031	-0.038
-364.698	-200.000	0.012	-0.333
-363.683	800.000	0.065	0.194
-362.669	-52.950	-0.193	-0.088
-361.654	-63.473	-0.383	-0.156
-360.639	28.780	-0.011	-0.009
-359.625	139.278	-0.081	0.105
-358.610	-51.110	0.156	0.073
-357.596	-124.007	-0.068	-0.011
-356.581	66.138	-0.037	0.038
-355.566	654.858	-0.100	-0.256
-354.552	-33.161	-0.158	-0.087
-353.537	-122.762	-0.310	-0.050
-352.523	2.886	0.113	-0.081
-351.508	-38.691	0.358	0.187
-350.493	156.777	-0.093	-0.127
-349.479	-139.709	0.320	-0.034
-348.464	800.000	-0.015	0.060
-347.450	800.000	0.067	0.268
-346.435	-46.087	0.112	-0.055
-345.420	283.544	-0.097	0.173
-344.406	464.525	-0.073	-0.161
-343.391	283.883	-0.103	0.183
-342.377	575.220	-0.087	-0.210
-341.362	76.802	0.263	0.276
-340.348	55.810	0.096	0.092
-339.333	31.679	0.117	-0.100
-338.318	-106.093	0.182	-0.041
-337.304	-200.000	0.034	-0.321
-336.289	561.149	-0.124	0.296
-335.275	-200.000	0.006	-0.077
-334.260	-85.168	0.106	-0.033
-333.245	-104.943	-0.272	0.062
-332.231	408.864	-0.202	-0.423
-331.216	-141.464	0.293	-0.029
-330.202	-200.000	-0.018	0.093
-329.187	61.998	-0.021	-0.021
-328.172	-45.977	-0.220	-0.107
-327.158	800.000	-0.120	-0.394
-326.143	-98.547	-0.079	-0.020
-325.129	42.229	-0.289	0.260
-324.114	335.549	-0.074	0.143
-323.099	-200.000	-0.032	0.197
-322.085	-200.000	-0.032	0.224
-321.070	-27.327	0.093	0.053
-320.056	800.000	0.112	0.437
-319.041	196.537	0.075	-0.112
-318.026	800.000	-0.026	-0.102
-317.012	-86.307	0.219	-0.067
-315.997	-200.000	0.043	-0.348
-314.983	-91.434	-0.306	0.087
-313.968	-200.000	0.041	-0.266
-312.953	800.000	0.068	0.209
-311.939	93.516	-0.305	0.342
-310.924	-200.000	-0.029	-0.126
-309.910	-22.341	-0.135	0.081
-308.895	-10.768	-0.227	0.149
-307.880	80.774	-0.259	-0.277
-306.866	-200.000	-0.048	-0.407
-305.851	-200.000	0.001	0.056
-304.837	800.000	0.047	-0.195
-303.822	-99.518	0.404	-0.100
-302.807	-42.024	0.271	0.137
-301.793	-200.000	-0.035	-0.165
-300.778	-72.375	0.092	0.034
-299.764	74.940	0.187	-0.195
-298.749	-7.119	-0.147	-0.099
-297.735	-102.599	0.044	0.010
-296.720	107.625	0.039	-0.045
-295.705	-200.000	0.022	-0.131
-294.691	-108.630	0.359	0.076
-293.676	460.905	-0.178	-0.393
-292.662	119.627	0.038	0.047
-291.647	392.016	-0.141	0.289
-290.632	-127.354	0.142	0.021
-289.618	-156.697	-0.293	-0.018
-288.603	72.949	0.137	-0.141
-287.589	140.009	0.296	-0.386
-286.574	-85.032	0.171	0.053
-285.559	-112.400	-0.244	-0.048
-284.545	-90.697	-0.094	-0.027
-283.530	-200.000	0.063	0.307
-282.516	-152.835	0.331	0.023
-281.501	800.000	0.049	0.137
-280.486	64.223	0.032	0.032
-279.472	-133.330	0.278	0.035
-278.457	-200.000	0.005	-0.065
-277.443	13.751	-0.272	0.209
-276.428	-121.837	0.045	-0.007
-275.413	-38.219	0.357	-0.187
-274.399	-200.000	-0.004	0.192
-273.384	-200.000	-0.028	-0.125
-272.370	800.000	-0.086	0.290
-271.355	72.905	0.100	-0.103
-270.340	800.000	0.090	0.292
-269.326	11.442	0.313	0.237
-268.311	800.000	0.109	0.457
-267.297	-111.146	0.220	0.045
-266.282	351.470	-0.032	0.062
-265.267	601.148	0.104	0.255
-264.253	-200.000	0.005	-0.034
-263.238	5.377	-0.227	-0.166
-262.224	-46.365	-0.131	-0.064
-261.209	-79.137	0.315	0.106
-260.195	109.093	0.189	0.223
-259.180	-45.478	-0.409	0.200
-258.165	642.542	0.192	0.483
-257.151	57.194	-0.042	0.041
-256.136	-66.340	-0.235	0.092
-255.122	-4.363	-0.069	0.047
-254.107	259.252	0.131	0.223
-253.092	-200.000	0.008	-0.078
-252.078	-13.499	-0.208	-0.133
-251.063	-153.283	0.382	0.026
-250.049	-94.333	-0.164	0.044
-249.034	600.933	0.147	-0.360
-248.019	-111.260	-0.023	0.005
-247.005	179.720	-0.098	0.142
-245.990	-123.586	0.106	-0.017
-244.976	58.101	0.266	0.257
-243.961	-113.987	-0.195	0.037
-242.946	-57.229	-0.116	0.050
-241.932	-200.000	0.023	0.322
-240.917	-200.000	0.000	-0.301
-239.903	34.924	0.158	0.136
-238.888	-87.733	0.088	0.026
-237.873	-144.483	-0.214	-0.020
-236.859	-200.000	0.001	0.018
-235.844	143.314	-0.065	0.086
-234.830	-122.701	0.101	0.016
-233.815	-11.747	-0.276	0.179
-232.800	279.524	-0.021	0.038
-231.786	-115.440	-0.213	0.040
-230.771	800.000	0.096	0.279
-229.757	-80.112	-0.206	-0.068
-228.742	-60.640	0.149	0.062
-227.727	58.194	-0.089	0.086
-226.713	800.000	-0.036	-0.130
-225.698	-200.000	-0.041	-0.209
-224.684	-31.142	0.224	-0.125
-223.669	199.132	0.012	-0.018
-222.655	-98.676	-0.088	-0.022
-221.640	125.847	0.151	0.189
-220.625	126.460	0.286	-0.356
-219.611	-72.925	-0.369	-0.134
-218.596	480.086	0.065	0.146
-217.582	-92.085	-0.145	-0.040
-216.567	-200.000	0.001	0.362
-215.552	-141.921	0.230	-0.023
-214.538	66.161	0.128	-0.128
-213.523	128.915	0.073	0.092
-212.509	-189.098	0.233	-0.003
-211.494	-108.538	0.221	-0.047
-210.479	-53.870	0.118	-0.053
-209.465	114.648	0.105	0.127
-208.450	46.274	-0.054	0.049
-207.436	-200.000	-0.072	0.349
-206.421	-181.168	0.155	0.003
-205.406	-1.585	0.160	0.111
-204.392	24.489	0.218	0.177
-203.377	274.485	0.221	0.385
-202.363	-200.000	0.020	-0.187
-201.348	-200.000	-0.056	-0.515
-200.333	-174.146	0.198	0.006
-199.319	-200.000	0.018	0.154
-198.304	-162.904	0.039	-0.002
-197.290	-131.935	0.297	-0.038
-196.275	-200.000	-0.021	0.196
-195.260	-46.667	0.135	0.065
-194.246	503.097	0.082	0.187
-193.231	-69.538	-0.188	0.071
-192.217	347.782	0.119	0.231
-191.202	182.642	-0.104	0.152
-190.187	317.592	0.110	-0.204
-189.173	-67.843	-0.262	-0.101
-188.158	-91.781	0.075	-0.021
-187.144	-38.690	-0.216	0.112
-186.129	-117.383	-0.416	-0.074
-185.114	-200.000	-0.033	-0.245
-184.100	-132.685	-0.371	-0.047
-183.085	-58.587	-0.028	-0.012
-182.071	220.476	0.195	-0.309
-181.056	-146.646	0.164	0.014
-180.042	119.932	-0.125	0.153
-179.027	106.503	-0.173	-0.202
-178.012	-53.319	-0.310	0.140
-176.998	-122.024	0.101	0.016
-175.983	-20.136	0.238	-0.144
-174.969	137.163	0.196	0.252
-173.954	142.698	-0.060	0.079
-172.939	-12.554	0.079	-0.051
-171.925	800.000	-0.044	-0.162
-170.910	-200.000	-0.006	-0.146
-169.896	1.066	-0.129	0.091
-168.881	17.707	0.258	0.202
-167.866	-200.000	-0.054	-0.247
-166.852	-200.000	0.005	-0.063
-165.837	-200.000	-0.013	0.352
-164.823	-114.899	0.211	0.040
-163.808	-200.000	-0.001	0.161
-162.793	-200.000	-0.050	0.310
-161.779	-102.903	-0.266	0.062
-160.764	90.195	-0.116	-0.128
-159.750	-200.000	0.133	-0.000
-158.735	-78.897	-0.439	0.147
-157.720	207.270	0.135	0.206
-156.706	-58.355	-0.294	0.126
-155.691	-128.093	0.198	0.028
-154.677	-200.000	0.025	0.113
-153.662	303.301	0.208	-0.378
-152.647	-99.786	-0.203	-0.050
-151.633	63.836	-0.118	0.116
-150.618	17.005	0.207	0.161
-149.604	800.000	0.183	-0.590
-148.589	-193.909	0.318	-0.003
-147.574	-127.048	0.225	0.032
-146.560	122.466	0.161	-0.198
-145.545	800.000	-0.113	0.307
-144.531	434.821	0.107	-0.228
-143.516	-33.328	0.130	0.071
-142.502	51.627	-0.120	0.112
-141.487	110.663	-0.159	0.188
-140.472	-69.476	-0.156	0.059
-139.458	-24.712	0.299	0.175
-138.443	-2.533	-0.126	-0.087
-137.429	175.821	0.119	0.170
-136.414	-78.122	-0.151	0.051
-135.399	-113.395	-0.233	0.045
-134.385	86.712	-0.079	-0.086
-133.370	-200.000	-0.013	-0.417
-132.356	-200.000	0.054	0.338
-131.341	-200.000	0.003	0.046
-130.326	95.539	-0.150	-0.168
-129.312	-85.440	-0.255	0.078
-128.297	-187.974	0.156	0.002
-127.283	11.133	-0.114	0.085
-126.268	-200.000	-0.112	0.000
-125.253	350.299	0.251	0.488
-124.239	800.000	0.057	-0.206
-123.224	530.309	-0.096	-0.223
-122.210	800.000	-0.076	0.278
-121.195	-59.595	0.153	0.064
-120.180	-135.752	-0.103	0.012
-119.166	31.932	0.172	-0.145
-118.151	32.011	-0.331	0.280
-117.137	-127.750	-0.209	0.030
-116.122	-200.000	-0.035	0.154
-115.107	77.676	0.105	-0.110
-114.093	54.260	-0.126	-0.119
-113.078	-152.677	-0.073	-0.005
-112.064	-141.302	0.212	0.021
-111.049	-145.397	-0.148	0.013
-110.034	210.164	0.063	-0.098
-109.020	-200.000	-0.028	-0.268
-108.005	800.000	-0.051	-0.168
-106.991	-24.257	-0.183	-0.107
-105.976	-136.138	-0.127	0.015
-104.962	-200.000	-0.008	-0.276
-103.947	60.985	-0.164	-0.160
-102.932	236.426	0.023	0.038
-101.918	-200.000	0.019	0.189
-100.903	-200.000	-0.040	-0.174
-99.889	-122.557	-0.259	-0.041
-98.874	800.000	-0.094	0.301
-97.859	-15.845	0.416	-0.260
-96.845	208.232	0.172	0.264
-95.830	-169.859	0.163	-0.006
-94.816	-3.251	-0.147	0.100
-93.801	300.461	0.278	0.503
-92.786	210.575	0.085	0.130
-91.772	30.662	0.068	0.057
-90.757	201.447	0.247	0.373
-89.743	-200.000	-0.023	0.148
-88.728	-59.380	0.155	-0.065
-87.713	800.000	-0.116	0.430
-86.699	-91.939	-0.278	-0.077
-85.684	800.000	0.049	0.137
-84.670	87.066	0.331	-0.358
-83.655	-77.404	-0.237	0.081
-82.640	142.994	0.163	0.213
-81.626	-200.000	0.025	0.233
-80.611	32.799	-0.212	0.180
-79.597	-69.806	-0.325	0.122
-78.582	299.245	0.125	0.227
-77.567	61.450	0.070	-0.068
-76.553	-163.775	-0.253	-0.012
-75.538	-78.568	0.188	0.063
-74.524	105.859	-0.123	-0.143
-73.509	-100.342	0.005	-0.001
-72.494	665.496	-0.069	0.175
-71.480	-142.201	0.251	-0.024
-70.465	-135.735	0.167	0.019
-69.451	160.821	-0.004	0.006
-68.436	405.304	0.141	-0.292
-67.422	800.000	-0.045	0.170
-66.407	496.353	-0.057	-0.129
-65.392	800.000	-0.132	-0.366
-64.378	760.161	-0.065	-0.172
-63.363	-200.000	0.042	0.181
-62.349	32.050	-0.228	0.192
-61.334	67.617	-0.944	-0.945
-60.319	87.269	0.685	0.742
-59.305	491.224	-0.422	-0.946
-58.290	800.000	0.347	1.056
-57.276	248.496	0.829	1.375
-56.261	-200.000	106.779	618.563
-55.246	515.265	1509.752	3453.226
-54.232	175.437	2708.351	3845.365
-53.217	104.189	2292.856	2641.693
-52.203	38.489	1898.751	1657.881
-51.188	32.414	1685.941	1426.137
-50.173	29.895	1642.176	1370.440
-49.159	48.696	1696.561	1557.879
-48.144	48.811	1712.084	1572.936
-47.130	32.054	1668.666	1408.600
-46.115	29.410	1654.079	1376.535
-45.100	29.261	1648.751	1370.936
-44.086	29.323	1645.934	1368.999
-43.071	29.178	1643.987	1366.256
-42.057	29.174	1641.883	1364.420
-41.042	29.204	1639.481	1362.592
-40.027	29.277	1637.279	1361.246
-39.013	29.159	1635.933	1359.201
-37.998	29.095	1634.686	1357.641
-36.984	29.170	1633.060	1356.790
-35.969	29.339	1631.442	1356.636
-34.954	29.422	1629.701	1355.741
-33.940	29.322	1628.170	1353.682
-32.925	29.296	1626.468	1352.024
-31.911	29.336	1624.414	1350.556
-30.896	29.330	1622.662	1348.998
-29.881	29.245	1621.543	1347.392
-28.867	29.228	1619.946	1345.892
-27.852	29.254	1618.111	1344.501
-26.838	29.301	1616.530	1343.479
-25.823	29.323	1615.342	1342.595
-24.809	29.357	1614.018	1341.689
-23.794	29.368	1613.037	1340.902
-22.779	29.321	1611.539	1339.263
-21.765	29.287	1609.681	1337.420
-20.750	29.263	1607.998	1335.792
-19.736	29.265	1606.571	1334.571
-18.721	29.354	1604.986	1333.843
-17.706	29.352	1603.502	1332.542
-16.692	29.228	1602.943	1331.126
-15.677	29.341	1600.918	1330.207
-14.663	29.430	1599.420	1329.550
-13.648	29.443	1597.882	1328.319
-12.633	29.332	1596.471	1326.292
-11.619	29.299	1595.080	1324.847
-10.604	29.259	1593.989	1323.602
-9.590	29.344	1592.747	1323.124
-8.575	29.352	1591.118	1321.779
-7.560	29.372	1589.974	1320.919
-6.546	29.278	1588.828	1319.244
-5.531	29.265	1587.778	1318.223
-4.517	29.376	1586.844	1318.187
-3.502	29.271	1585.629	1316.381
-2.487	29.464	1584.088	1316.423
-1.473	29.016	1572.486	1303.556
-0.458	26.223	1552.458	1267.339
0.556	20.401	1553.572	1236.157
1.571	18.171	1578.116	1239.435
2.586	18.071	1591.057	1248.756
3.600	16.329	1538.661	1195.207
4.615	8.683	1430.066	1060.283
5.629	1.204	1366.480	965.571
6.644	-0.240	1358.629	950.799
7.659	-0.235	1356.967	949.584
8.673	-0.383	1356.651	948.339
9.688	-0.412	1354.021	946.233
10.702	-0.617	1351.234	942.913
11.717	2.536	1357.172	966.901
12.731	11.591	1374.763	1037.038
13.746	18.964	1387.649	1093.728
14.761	20.973	1389.467	1107.845
15.775	21.177	1389.631	1109.175
16.790	21.296	1388.941	1109.282
17.804	21.362	1388.320	1109.104
18.819	21.529	1388.094	1109.886
19.834	21.648	1387.730	1110.254
20.848	21.577	1387.014	1109.135
21.863	21.658	1385.878	1108.638
22.877	21.690	1384.888	1107.953
23.892	21.608	1384.467	1106.997
24.907	21.717	1383.048	1106.452
25.921	21.643	1382.043	1105.084
26.936	21.525	1381.975	1104.188
27.950	21.738	1380.004	1103.857
28.965	21.619	1379.272	1102.426
29.980	21.796	1377.961	1102.390
30.994	21.634	1376.756	1100.315
32.009	21.636	1375.506	1099.229
33.023	21.638	1374.436	1098.287
34.038	21.710	1373.466	1097.869
35.053	21.733	1371.531	1096.370
36.067	21.671	1371.072	1095.517
37.082	21.641	1370.112	1094.464
38.096	21.644	1369.393	1093.811
39.111	21.679	1368.327	1093.082
40.126	21.659	1367.950	1092.560
41.140	21.677	1367.285	1092.042
42.155	21.639	1367.298	1091.724
43.169	21.673	1367.123	1091.698
44.184	21.653	1366.896	1091.292
45.199	21.630	1366.601	1090.816
46.213	21.601	1365.968	1090.034
47.228	21.714	1364.833	1089.737
48.242	21.624	1363.273	1087.835
49.257	21.712	1362.114	1087.361
50.271	21.651	1360.437	1085.550
51.286	21.506	1359.820	1084.065
52.301	21.694	1358.054	1083.722
53.315	21.612	1357.670	1082.809
54.330	21.682	1356.283	1082.043
55.344	21.614	1355.392	1080.819
56.359	21.604	1354.247	1079.744
57.374	21.516	1353.944	1078.868
58.388	21.622	1353.092	1078.743
59.403	21.636	1352.549	1078.303
60.417	21.824	1351.224	1078.304
61.432	21.618	1351.229	1076.949
62.447	21.607	1350.480	1076.188
63.461	21.663	1349.435	1075.604
64.476	21.615	1348.370	1074.364
65.490	21.679	1346.866	1073.464
66.505	21.762	1345.179	1072.536
67.520	21.613	1344.507	1070.993
68.534	21.737	1342.854	1070.340
69.549	21.738	1342.074	1069.624
70.563	21.790	1340.629	1068.700
71.578	21.678	1339.974	1067.398
72.593	21.730	1339.068	1066.899
73.607	21.659	1338.671	1066.058
74.622	21.713	1338.155	1065.880
75.636	21.713	1337.262	1065.073
76.651	21.773	1336.182	1064.483
77.666	21.689	1335.778	1063.559
78.680	21.727	1335.126	1063.172
79.695	21.730	1334.222	1062.376
80.709	21.757	1333.351	1061.756
81.724	21.587	1333.140	1060.464
82.739	21.578	1332.300	1059.646
83.753	21.748	1330.441	1059.100
84.768	21.664	1329.649	1057.870
85.782	21.667	1328.647	1056.998
86.797	21.747	1327.335	1056.340
87.812	21.742	1326.177	1055.301
88.826	21.768	1324.941	1054.378
89.841	21.735	1324.206	1053.502
90.855	21.669	1323.624	1052.546
91.870	21.798	1322.268	1052.153
92.884	21.812	1321.315	1051.383
93.899	21.725	1321.070	1050.575
94.914	21.720	1320.343	1049.870
95.928	21.813	1318.806	1049.117
96.943	21.682	1318.464	1047.962
97.957	21.817	1317.269	1047.729
98.972	21.584	1317.315	1046.283
99.987	21.811	1315.519	1046.118
101.001	21.830	1314.305	1045.170
102.016	21.758	1313.881	1044.311
103.030	21.706	1312.869	1043.108
104.045	21.851	1312.292	1043.416
105.060	21.785	1311.443	1042.261
106.074	21.752	1310.350	1041.105
107.089	21.811	1308.818	1040.143
108.103	21.834	1308.165	1039.671
109.118	21.874	1306.994	1038.881
110.133	21.891	1305.144	1037.421
111.147	21.818	1304.820	1036.638
112.162	21.892	1303.445	1035.895
113.176	21.729	1302.814	1034.341
114.191	21.772	1302.051	1033.892
115.206	21.832	1300.824	1033.181
116.220	21.886	1299.618	1032.453
117.235	21.782	1298.841	1031.131
118.249	21.721	1297.758	1029.822
119.264	21.879	1296.293	1029.497
120.279	21.819	1295.831	1028.686
121.293	21.982	1294.962	1028.861
122.308	21.888	1294.290	1027.684
123.322	21.884	1293.134	1026.652
124.337	21.827	1292.557	1025.768
125.352	21.876	1291.384	1025.036
126.366	21.904	1290.396	1024.322
127.381	21.951	1289.326	1023.657
128.395	21.773	1288.289	1021.708
129.410	21.836	1287.584	1021.424
130.424	21.804	1287.462	1021.050
131.439	21.949	1285.815	1020.494
132.454	21.881	1285.082	1019.427
133.468	21.919	1284.261	1018.906
134.483	21.785	1284.029	1017.853
135.497	21.973	1282.471	1017.620
136.512	21.785	1282.223	1016.243
137.527	21.768	1280.732	1014.873
138.541	21.797	1279.330	1013.839
139.556	21.758	1277.858	1012.359
140.570	21.812	1276.844	1011.778
141.585	21.806	1276.155	1011.106
142.600	21.800	1274.987	1010.060
143.614	21.864	1273.736	1009.347
144.629	21.828	1272.923	1008.407
145.643	21.818	1271.588	1007.200
146.658	21.763	1270.946	1006.289
147.673	21.889	1269.714	1005.949
148.687	21.835	1268.345	1004.465
149.702	21.826	1267.440	1003.606
150.716	21.745	1266.466	1002.286
151.731	21.780	1265.874	1001.924
152.746	21.804	1264.639	1000.996
153.760	21.952	1263.236	1000.644
154.775	21.804	1262.577	999.190
155.789	21.901	1261.263	998.613
156.804	21.876	1260.674	997.915
157.819	21.837	1259.574	996.732
158.833	21.887	1258.823	996.334
159.848	21.958	1258.208	996.165
160.862	21.906	1257.399	995.140
161.877	21.919	1256.229	994.202
162.892	21.950	1255.844	993.985
163.906	21.958	1254.633	992.980
164.921	21.958	1254.223	992.570
165.935	21.937	1253.234	991.578
166.950	21.937	1252.926	991.250
167.964	21.916	1252.029	990.332
168.979	22.017	1251.173	990.135
169.994	22.097	1250.663	990.097
171.008	22.024	1250.079	989.136
172.023	21.972	1249.216	988.076
173.037	22.010	1248.434	987.582
174.052	21.967	1247.891	986.820
175.067	22.007	1247.257	986.461
176.081	22.051	1246.465	985.994
177.096	22.094	1245.327	985.246
178.110	21.993	1244.774	984.154
179.125	22.019	1243.712	983.371
180.140	22.112	1242.461	982.820
181.154	22.055	1241.446	981.607
182.169	22.068	1240.180	980.596
183.183	21.980	1239.570	979.533
184.198	22.091	1238.179	978.970
185.213	22.068	1237.240	978.009
186.227	22.150	1236.162	977.528
187.242	22.200	1235.550	977.237
188.256	22.146	1234.547	976.056
189.271	22.183	1233.924	975.682
190.286	22.052	1233.535	974.558
191.300	22.201	1232.224	974.263
192.315	22.057	1232.054	973.246
193.329	22.118	1231.813	973.310
194.344	22.138	1231.180	972.829
195.359	22.176	1230.450	972.378
196.373	22.124	1230.386	971.954
197.388	22.049	1230.067	971.199
198.402	22.023	1229.747	970.718
199.417	22.069	1228.773	970.118
200.432	22.106	1228.241	969.818
201.446	22.019	1227.736	968.851
202.461	22.044	1227.017	968.336
203.475	22.128	1226.040	967.941
204.490	22.055	1225.113	966.724
205.504	22.133	1224.391	966.497
206.519	22.158	1223.246	965.646
207.534	22.179	1222.240	964.880
208.548	22.238	1221.157	964.268
209.563	22.109	1220.589	963.026
210.577	22.169	1219.792	962.641
211.592	22.089	1219.165	961.623
212.607	22.137	1218.217	961.053
213.621	22.193	1217.136	960.418
214.636	22.243	1216.473	960.082
215.650	22.115	1216.015	958.940
216.665	22.234	1214.833	958.569
217.680	22.160	1213.969	957.401
218.694	22.254	1213.180	957.206
219.709	22.237	1212.797	956.726
220.723	22.186	1212.002	955.739
221.738	22.258	1210.556	954.905
222.753	22.199	1210.045	954.094
223.767	22.189	1209.828	953.788
224.782	22.347	1209.060	953.954
225.796	22.249	1208.822	953.146
226.811	22.186	1208.276	952.293
227.826	22.377	1207.615	952.720
228.840	22.346	1207.189	952.134
229.855	22.305	1206.267	951.098
230.869	22.382	1205.528	950.846
231.884	22.371	1204.669	950.025
232.899	22.213	1204.124	948.664
233.913	22.311	1203.698	948.771
234.928	22.387	1203.039	948.580
235.942	22.326	1202.793	947.971
236.957	22.322	1201.979	947.225
237.972	22.299	1200.762	946.056
238.986	22.388	1199.783	945.678
240.001	22.429	1199.868	945.884
241.015	22.546	1199.102	945.824
242.030	22.444	1198.476	944.702
243.045	22.547	1197.658	944.523
244.059	22.331	1196.908	942.689
245.074	22.486	1195.925	942.661
246.088	22.558	1195.100	942.317
247.103	22.407	1194.471	940.929
248.117	22.561	1193.689	941.054
249.132	22.476	1193.082	940.037
250.147	22.515	1191.920	939.243
251.161	22.665	1191.228	939.417
252.176	22.474	1190.774	937.957
253.190	22.580	1190.082	937.894
254.205	22.610	1189.276	937.336
255.220	22.528	1189.152	936.720
256.234	22.563	1188.423	936.244
257.249	22.636	1187.650	935.940
258.263	22.502	1187.570	935.084
259.278	22.579	1186.872	934.862
260.293	22.610	1186.217	934.430
261.307	22.603	1185.669	933.874
262.322	22.538	1185.297	933.158
263.336	22.643	1184.186	932.756
264.351	22.656	1183.901	932.513
265.366	22.683	1183.121	931.960
266.380	22.602	1182.313	930.815
267.395	22.612	1181.679	930.285
268.409	22.609	1181.153	929.773
269.424	22.558	1180.808	929.149
270.439	22.763	1179.771	929.332
271.453	22.688	1179.353	928.524
272.468	22.639	1178.682	927.659
273.482	22.610	1177.998	926.883
274.497	22.600	1177.881	926.660
275.512	22.700	1176.692	926.169
276.526	22.684	1176.250	925.651
277.541	22.675	1175.534	924.962
278.555	22.684	1174.698	924.265
279.570	22.686	1174.114	923.738
280.585	22.731	1173.572	923.466
281.599	22.675	1172.319	922.102
282.614	22.679	1171.876	921.696
283.628	22.739	1170.617	920.937
284.643	22.709	1169.973	920.192
285.657	22.736	1168.920	919.421
286.672	22.771	1168.057	918.844
287.687	22.750	1167.490	918.208
288.701	22.780	1167.180	918.038
289.716	22.857	1166.191	917.581
290.730	22.798	1165.438	916.603
291.745	22.791	1164.789	915.973
292.760	22.829	1164.102	915.549
293.774	22.859	1163.542	915.184
294.789	22.899	1163.626	915.371
295.803	22.906	1162.660	914.569
296.818	22.771	1162.105	913.353
297.833	22.948	1160.927	913.260
298.847	22.953	1160.344	912.750
299.862	22.985	1159.702	912.326
300.876	22.936	1159.300	911.680
301.891	22.982	1158.302	911.051
302.906	23.036	1157.580	910.678
303.920	23.044	1157.392	910.490
304.935	22.925	1156.893	909.408
305.949	23.041	1156.329	909.478
306.964	23.021	1155.284	908.471
307.979	23.147	1154.298	908.265
308.993	23.048	1154.130	907.545
310.008	23.185	1152.678	907.025
311.022	23.128	1152.329	906.375
312.037	23.084	1151.432	905.367
313.052	23.104	1150.676	904.794
314.066	23.089	1150.044	904.140
315.081	22.988	1149.519	903.132
316.095	23.056	1149.053	903.033
317.110	23.020	1148.452	902.296
318.125	23.054	1147.657	901.766
319.139	23.119	1146.880	901.406
320.154	23.150	1146.406	901.115
321.168	23.126	1145.661	900.327
322.183	23.150	1145.278	900.069
323.197	23.245	1144.467	899.830
324.212	23.168	1143.857	898.880
325.227	23.135	1143.586	898.422
326.241	23.156	1142.853	897.873
327.256	23.289	1141.918	897.734
328.270	23.076	1141.539	896.277
329.285	23.205	1140.239	895.827
330.300	23.281	1139.754	895.752
331.314	23.257	1138.638	894.674
332.329	23.242	1138.258	894.223
333.343	23.325	1137.178	893.715
334.358	23.304	1136.459	892.966
335.373	23.359	1135.562	892.458
336.387	23.337	1135.273	892.038
337.402	23.395	1134.490	891.639
338.416	23.339	1133.909	890.819
339.431	23.397	1133.141	890.429
340.446	23.382	1132.694	889.926
341.460	23.376	1132.322	889.522
342.475	23.515	1131.268	889.313
343.489	23.467	1130.502	888.393
344.504	23.378	1129.536	887.111
345.519	23.487	1128.955	887.121
346.533	23.642	1127.368	886.568
347.548	23.468	1127.129	885.432
348.562	23.336	1126.801	884.439
349.577	23.437	1125.929	884.179
350.592	23.352	1125.429	883.285
351.606	23.436	1124.468	882.869
352.621	23.412	1124.086	882.374
353.635	23.468	1123.319	881.973
354.650	23.558	1122.357	881.584
355.665	23.470	1122.298	881.024
356.679	23.474	1121.611	880.427
357.694	23.487	1120.799	879.777
358.708	23.401	1120.357	878.925
359.723	23.494	1119.520	878.651
360.738	23.475	1119.051	878.109
361.752	23.439	1118.385	877.334
362.767	23.523	1118.067	877.420
363.781	23.570	1117.301	876.973
364.796	23.605	1117.015	876.845
365.810	23.688	1116.302	876.615
366.825	23.649	1115.613	875.808
367.840	23.665	1114.988	875.315
368.854	23.764	1114.521	875.363
369.869	23.666	1113.894	874.307
370.883	23.737	1112.928	873.824
371.898	23.694	1112.118	872.898
372.913	23.761	1111.784	872.887
373.927	23.729	1111.528	872.454
374.942	23.659	1110.913	871.548
375.956	23.744	1110.349	871.446
376.971	23.712	1110.172	871.074
377.986	23.786	1108.800	870.282
379.000	23.795	1108.853	870.289
380.015	23.737	1108.435	869.600
381.029	23.772	1107.825	869.216
382.044	23.800	1106.884	868.539
383.059	23.915	1106.366	868.617
384.073	23.872	1105.365	867.546
385.088	23.930	1104.174	866.818
386.102	23.947	1103.297	866.135
387.117	23.988	1102.595	865.707
388.132	23.827	1101.861	864.268
389.146	23.852	1101.435	863.981
390.161	23.941	1100.819	863.851
391.175	23.866	1099.955	862.733
392.190	23.923	1099.559	862.622
393.205	23.909	1098.519	861.662
394.219	23.843	1098.163	860.991
395.234	23.964	1097.410	860.910
396.248	23.877	1096.282	859.526
397.263	24.042	1095.471	859.610
398.278	24.117	1094.499	859.134
399.292	24.108	1094.209	858.786
400.307	24.145	1093.490	858.328
401.321	24.047	1092.900	857.313
402.336	23.986	1092.742	856.822
403.350	24.059	1091.488	856.113
404.365	24.187	1090.918	856.204
405.380	24.036	1090.694	855.229
406.394	24.050	1089.748	854.479
407.409	24.067	1089.335	854.160
408.423	24.210	1088.227	853.900
409.438	24.255	1087.447	853.428
410.453	24.229	1086.779	852.705
411.467	24.154	1086.263	851.863
412.482	24.128	1085.688	851.217
413.496	24.216	1084.858	850.908
414.511	24.238	1084.117	850.357
415.526	24.358	1083.570	850.424
416.540	24.282	1083.546	849.968
417.555	24.277	1082.467	849.025
418.569	24.281	1082.400	848.916
419.584	24.327	1081.724	848.529
420.599	24.353	1081.307	848.251
421.613	149.058	1401.414	1799.115
422.628	137.666	1448.040	1799.201
