DTS Sentinel unit serial number:	SN413079Multiplexer serial number:	ORYXHardware model number:	OX4-SRSoftware version number:	ORYX F/W v4.00 Oryx Data Collector v3.7.2.0data status	okinstallation	princeton_trtdifferential loss correction	single-endedforward channel	channel 2reverse channel	N/Adate	2019/09/11time	12:57:11forward acquisition time	60.00reverse acquisition time	0.00gamma	496.2192k internal	0.2293k external	0.2293temperature offset calibration	0.9968default loss term (dB/km)	0.3790temperature slope calibration	1.0000multiplexer offset coefficient	1.0000multiplexer slope coefficient	1.0000fibre end	0.00T internal ref (°C)	41.45T ext. ref 1 (°C)	0.21T ext. ref 2 (°C)	38.78length (m)	temperature (°C)	Stokes	anti-Stokes-747.200	111.810	0.068	-0.084
-746.185	-200.000	-0.035	-0.274
-745.171	-61.784	-0.191	0.082
-744.156	297.218	-0.047	-0.088
-743.142	229.189	0.088	-0.147
-742.127	109.117	-0.028	-0.034
-741.112	-200.000	-0.032	-0.438
-740.098	-200.000	0.039	0.323
-739.083	-137.214	-0.556	0.065
-738.069	-89.940	-0.218	0.065
-737.054	-62.896	-0.123	-0.052
-736.039	-16.836	-0.170	0.110
-735.025	-200.000	-0.014	-0.065
-734.010	-200.000	-0.020	-0.362
-732.996	-200.000	-0.014	-0.159
-731.981	109.648	-0.109	0.133
-730.966	-200.000	0.029	0.141
-729.952	-39.663	-0.213	-0.114
-728.937	96.535	-0.188	0.220
-727.923	-200.000	0.005	0.051
-726.908	153.592	-0.208	0.291
-725.894	288.358	0.138	0.255
-724.879	-50.715	0.289	-0.139
-723.864	28.321	0.014	-0.012
-722.850	34.932	-0.189	-0.169
-721.835	-82.409	-0.266	0.088
-720.821	-72.364	0.206	-0.078
-719.806	47.284	0.398	0.379
-718.791	-200.000	-0.051	-0.376
-717.777	93.865	-0.112	-0.130
-716.762	800.000	-0.028	-0.121
-715.748	109.031	0.157	0.191
-714.733	8.406	-0.077	0.059
-713.718	-186.204	-0.177	-0.003
-712.704	73.210	-0.233	-0.249
-711.689	-168.135	0.034	0.001
-710.675	97.894	-0.144	-0.170
-709.660	-200.000	0.004	-0.109
-708.645	262.676	-0.159	-0.281
-707.631	-200.000	-0.003	0.079
-706.616	-157.348	0.150	-0.009
-705.602	-135.617	0.216	0.026
-704.587	-156.724	0.216	0.014
-703.572	181.641	-0.144	-0.216
-702.558	-22.638	-0.276	-0.171
-701.543	800.000	0.055	-0.192
-700.529	-200.000	-0.025	0.228
-699.514	75.529	-0.093	0.101
-698.499	-200.000	-0.029	-0.137
-697.485	-115.154	0.116	0.023
-696.470	511.001	-0.149	-0.355
-695.456	-87.176	0.377	-0.117
-694.441	303.028	0.157	0.297
-693.426	-200.000	-0.219	0.001
-692.412	-136.382	-0.125	-0.015
-691.397	-200.000	0.004	-0.032
-690.383	0.724	-0.219	-0.160
-689.368	-77.017	0.226	-0.080
-688.354	-100.740	0.198	0.050
-687.339	800.000	0.085	0.293
-686.324	-143.853	-0.203	0.020
-685.310	108.779	-0.105	0.128
-684.295	800.000	-0.066	0.284
-683.281	33.353	-0.170	-0.151
-682.266	-200.000	0.000	-0.174
-681.251	175.897	0.252	-0.373
-680.237	-145.830	-0.242	-0.022
-679.222	192.967	0.051	-0.078
-678.208	-6.487	-0.078	0.054
-677.193	358.404	-0.200	-0.407
-676.178	-200.000	0.032	0.269
-675.164	-200.000	-0.038	0.262
-674.149	-110.043	-0.207	0.044
-673.135	746.905	-0.106	-0.292
-672.120	464.974	0.022	-0.049
-671.105	256.878	0.013	0.022
-670.091	800.000	0.042	0.130
-669.076	144.908	-0.236	-0.321
-668.062	-177.835	0.382	-0.009
-667.047	-120.449	-0.045	0.008
-666.032	-35.567	-0.154	0.085
-665.018	-42.792	0.150	-0.078
-664.003	-200.000	0.033	-0.179
-662.989	88.259	0.099	0.112
-661.974	-77.740	0.161	-0.057
-660.959	-89.752	0.116	0.035
-659.945	-200.000	-0.029	-0.161
-658.930	800.000	-0.046	-0.137
-657.916	-200.000	-0.026	-0.167
-656.901	-138.092	-0.253	-0.029
-655.886	-200.000	-0.023	0.117
-654.872	-14.188	-0.194	-0.127
-653.857	-124.734	-0.286	-0.045
-652.843	-151.712	-0.264	-0.020
-651.828	800.000	-0.008	0.032
-650.814	-200.000	0.029	-0.188
-649.799	-19.435	-0.116	-0.074
-648.784	89.190	-0.198	-0.225
-647.770	94.169	0.139	-0.160
-646.755	81.165	-0.105	0.116
-645.741	15.768	-0.305	-0.245
-644.726	800.000	0.046	-0.155
-643.711	112.658	0.150	0.185
-642.697	-104.046	-0.257	-0.061
-641.682	-103.394	0.215	-0.052
-640.668	131.016	-0.128	-0.167
-639.653	-54.707	-0.163	-0.075
-638.638	144.130	-0.067	0.092
-637.624	-200.000	-0.070	0.412
-636.609	6.562	-0.060	-0.046
-635.595	800.000	-0.033	-0.120
-634.580	-79.335	0.098	-0.034
-633.565	-60.087	0.067	0.029
-632.551	65.259	0.091	-0.094
-631.536	-82.936	0.177	-0.058
-630.522	136.269	0.142	-0.189
-629.507	-85.320	-0.180	0.057
-628.492	800.000	0.147	0.470
-627.478	-64.273	-0.270	-0.112
-626.463	-200.000	0.026	-0.217
-625.449	-200.000	0.010	0.184
-624.434	-200.000	0.029	-0.232
-623.419	-63.417	-0.131	-0.055
-622.405	223.014	0.299	-0.491
-621.390	51.791	-0.091	-0.089
-620.376	800.000	0.054	0.204
-619.361	800.000	-0.011	-0.040
-618.346	-23.262	-0.212	-0.130
-617.332	-200.000	0.008	0.071
-616.317	173.840	-0.139	-0.205
-615.303	162.165	0.165	0.235
-614.288	-62.462	0.333	-0.141
-613.273	800.000	-0.031	0.117
-612.259	800.000	-0.042	0.148
-611.244	-34.795	-0.045	0.025
-610.230	-161.075	-0.108	-0.006
-609.215	339.931	0.108	-0.215
-608.201	800.000	0.052	0.198
-607.186	-200.000	0.013	-0.062
-606.171	97.042	0.144	0.168
-605.157	-109.884	0.326	-0.070
-604.142	-200.000	-0.018	-0.324
-603.128	-200.000	0.027	0.305
-602.113	-68.831	-0.019	-0.007
-601.098	542.748	-0.094	0.227
-600.084	305.948	-0.041	-0.077
-599.069	98.218	-0.071	-0.083
-598.055	-38.650	-0.181	-0.097
-597.040	601.953	-0.022	0.055
-596.025	-200.000	0.011	0.157
-595.011	-141.173	0.168	0.017
-593.996	-143.649	-0.117	0.011
-592.982	800.000	-0.032	0.106
-591.967	83.564	0.020	0.023
-590.952	358.417	-0.149	-0.302
-589.938	65.157	0.106	0.109
-588.923	770.054	0.088	0.244
-587.909	-88.250	0.122	0.037
-586.894	-116.722	0.241	0.045
-585.879	320.744	-0.108	-0.209
-584.865	151.567	0.193	0.267
-583.850	-36.449	0.237	0.130
-582.836	400.152	-0.061	0.129
-581.821	-2.483	0.155	0.110
-580.806	-200.000	-0.030	0.272
-579.792	-105.670	0.097	-0.022
-578.777	66.262	0.218	-0.225
-577.763	-200.000	-0.036	-0.242
-576.748	800.000	0.073	0.205
-575.733	800.000	0.055	0.172
-574.719	-200.000	-0.043	0.261
-573.704	23.478	-0.087	-0.072
-572.690	-30.691	-0.165	0.095
-571.675	-34.004	-0.136	-0.076
-570.661	-200.000	0.020	-0.128
-569.646	189.616	-0.141	-0.215
-568.631	-101.463	-0.148	0.037
-567.617	-200.000	0.036	0.193
-566.602	-126.387	-0.057	0.009
-565.588	-200.000	-0.038	0.232
-564.573	40.147	-0.159	-0.146
-563.558	800.000	0.084	0.253
-562.544	72.658	-0.113	-0.120
-561.529	-29.638	0.224	-0.130
-560.515	800.000	-0.128	0.387
-559.500	-103.953	0.164	0.039
-558.485	572.764	0.080	-0.198
-557.471	-200.000	0.004	-0.091
-556.456	-200.000	0.010	-0.152
-555.442	-53.738	-0.162	0.075
-554.427	25.977	0.233	0.198
-553.412	-4.474	0.316	-0.222
-552.398	153.027	0.191	-0.265
-551.383	-200.000	0.016	-0.080
-550.369	800.000	-0.056	0.222
-549.354	-18.289	0.098	0.062
-548.339	767.978	-0.088	0.244
-547.325	237.954	-0.075	0.126
-546.310	800.000	0.021	0.092
-545.296	-38.918	-0.178	0.095
-544.281	256.169	-0.116	-0.203
-543.266	-200.000	-0.010	0.054
-542.252	-102.888	0.171	0.041
-541.237	514.728	-0.025	-0.059
-540.223	-184.833	0.053	0.001
-539.208	-32.745	-0.042	0.024
-538.193	-40.183	-0.229	0.121
-537.179	-89.324	-0.188	-0.056
-536.164	71.737	0.084	0.089
-535.150	800.000	-0.008	0.032
-534.135	14.920	0.109	0.087
-533.121	296.588	-0.115	-0.214
-532.106	49.692	-0.150	0.144
-531.091	51.169	0.068	0.065
-530.077	-113.049	0.166	0.033
-529.062	14.702	0.148	0.118
-528.048	-71.066	0.328	-0.125
-527.033	-91.136	-0.173	-0.050
-526.018	285.497	-0.126	0.231
-525.004	-84.331	-0.189	0.061
-523.989	634.890	0.064	0.165
-522.975	-101.800	-0.241	0.059
-521.960	24.738	-0.034	-0.028
-520.945	-95.225	0.158	-0.043
-519.931	88.150	-0.290	0.326
-518.916	-60.391	-0.295	0.127
-517.902	703.894	0.035	-0.093
-516.887	225.443	-0.078	-0.128
-515.872	-200.000	0.018	-0.222
-514.858	98.979	0.098	0.115
-513.843	410.531	-0.082	-0.177
-512.829	-159.373	-0.368	-0.021
-511.814	-86.645	0.023	-0.007
-510.799	-121.652	0.056	0.009
-509.785	-200.000	-0.037	0.224
-508.770	-75.179	0.263	0.095
-507.756	145.230	-0.105	0.142
-506.741	-36.287	-0.095	0.052
-505.726	-30.659	0.229	-0.131
-504.712	27.200	0.177	0.151
-503.697	-97.336	-0.433	-0.114
-502.683	131.754	-0.199	-0.259
-501.668	26.645	-0.250	-0.213
-500.653	155.892	0.101	-0.141
-499.639	800.000	0.055	0.198
-498.624	361.413	-0.058	-0.118
-497.610	800.000	-0.072	-0.234
-496.595	-42.348	0.338	-0.175
-495.581	-2.271	0.106	-0.075
-494.566	1.866	0.221	0.161
-493.551	800.000	-0.011	-0.044
-492.537	137.610	0.053	-0.071
-491.522	105.963	-0.013	-0.015
-490.508	-21.163	-0.278	-0.172
-489.493	264.606	-0.095	0.167
-488.478	38.855	-0.129	-0.117
-487.464	-91.779	-0.264	0.076
-486.449	-200.000	0.044	0.297
-485.435	-200.000	-0.020	-0.121
-484.420	85.360	0.046	0.051
-483.405	135.082	0.083	0.109
-482.391	-200.000	-0.053	-0.328
-481.376	-10.516	0.055	-0.037
-480.362	-200.000	0.006	-0.133
-479.347	147.458	-0.154	0.210
-478.332	-3.533	-0.077	0.055
-477.318	-119.267	-0.356	-0.063
-476.303	88.973	-0.128	-0.145
-475.289	50.382	-0.080	-0.076
-474.274	-200.000	0.357	-0.001
-473.259	400.536	0.008	0.017
-472.245	125.333	0.083	-0.106
-471.230	-200.000	0.021	0.151
-470.216	18.813	-0.232	-0.188
-469.201	-200.000	0.002	0.128
-468.186	116.939	0.134	0.166
-467.172	46.790	-0.333	-0.314
-466.157	800.000	-0.055	-0.220
-465.143	800.000	-0.069	-0.238
-464.128	-33.792	-0.070	-0.039
-463.113	114.858	0.129	-0.159
-462.099	-200.000	-0.078	-0.480
-461.084	0.496	0.158	0.114
-460.070	-90.761	0.211	-0.061
-459.055	216.424	0.011	0.017
-458.040	-169.074	-0.294	-0.011
-457.026	76.802	-0.110	-0.118
-456.011	-200.000	-0.062	0.307
-454.997	-112.252	-0.157	0.032
-453.982	512.433	0.056	0.133
-452.968	-1.253	0.144	-0.103
-451.953	104.012	0.187	0.223
-450.938	322.657	-0.038	-0.073
-449.924	-200.000	-0.011	0.183
-448.909	-92.453	0.217	-0.062
-447.895	-13.074	-0.087	-0.057
-446.880	391.897	-0.049	-0.103
-445.865	5.126	-0.177	0.132
-444.851	-200.000	-0.028	-0.152
-443.836	58.408	-0.029	0.029
-442.822	-75.579	0.385	-0.139
-441.807	475.958	0.098	-0.224
-440.792	84.528	-0.083	0.091
-439.778	50.340	-0.223	-0.213
-438.763	800.000	0.047	-0.140
-437.749	28.936	0.200	0.171
-436.734	-136.637	0.206	0.024
-435.719	262.411	0.020	0.035
-434.705	-200.000	-0.035	0.291
-433.690	132.082	0.138	0.180
-432.676	149.424	-0.173	-0.237
-431.661	302.195	-0.006	0.011
-430.646	60.915	0.204	-0.205
-429.632	223.509	-0.036	-0.059
-428.617	436.453	0.114	-0.251
-427.603	38.168	0.186	-0.168
-426.588	63.331	0.343	-0.347
-425.573	-28.331	-0.065	0.038
-424.559	-117.180	0.108	0.020
-423.544	-200.000	0.013	-0.102
-422.530	800.000	0.014	-0.058
-421.515	2.935	-0.130	-0.095
-420.500	-200.000	0.064	0.401
-419.486	195.912	0.082	0.126
-418.471	484.598	0.091	-0.209
-417.457	-88.108	0.122	-0.037
-416.442	-24.405	-0.242	-0.146
-415.428	199.754	0.128	-0.198
-414.413	-200.000	0.045	-0.293
-413.398	-59.030	-0.046	0.020
-412.384	51.183	-0.129	-0.123
-411.369	-17.453	0.168	-0.107
-410.355	-133.695	-0.185	0.023
-409.340	407.307	0.120	0.257
-408.325	-60.694	-0.284	-0.122
-407.311	-70.224	-0.404	-0.155
-406.296	-70.781	0.204	-0.078
-405.282	-200.000	0.013	0.170
-404.267	436.606	-0.119	0.262
-403.252	-97.980	0.124	0.032
-402.238	-99.474	0.260	0.066
-401.223	-78.918	-0.084	-0.029
-400.209	-200.000	0.013	-0.259
-399.194	-200.000	0.078	-0.350
-398.179	-52.242	-0.258	-0.121
-397.165	68.125	-0.174	-0.180
-396.150	-123.618	0.084	-0.013
-395.136	-200.000	-0.047	0.292
-394.121	362.950	0.152	0.308
-393.106	-200.000	0.016	0.400
-392.092	69.734	0.167	0.173
-391.077	32.870	0.189	-0.165
-390.063	800.000	-0.041	-0.116
-389.048	800.000	-0.019	-0.068
-388.033	303.545	0.106	-0.198
-387.019	-101.390	-0.105	-0.026
-386.004	-200.000	-0.034	0.391
-384.990	-200.000	-0.012	0.316
-383.975	410.891	-0.039	0.084
-382.960	206.431	0.069	0.108
-381.946	800.000	-0.055	-0.242
-380.931	-2.016	0.246	-0.174
-379.917	-43.467	0.054	0.028
-378.902	-193.062	-0.184	0.002
-377.888	-180.286	-0.121	-0.003
-376.873	-31.395	0.211	0.120
-375.858	-189.043	-0.070	0.001
-374.844	-11.229	0.138	0.092
-373.829	-62.902	0.285	-0.119
-372.815	230.725	-0.174	-0.287
-371.800	-79.788	-0.445	0.151
-370.785	-200.000	-0.045	0.241
-369.771	800.000	-0.080	0.235
-368.756	148.670	-0.159	0.216
-367.742	-109.281	0.120	0.026
-366.727	-200.000	-0.003	0.095
-365.712	15.951	-0.065	-0.051
-364.698	-6.555	0.104	0.071
-363.683	371.209	0.073	-0.149
-362.669	186.621	0.066	-0.099
-361.654	445.760	-0.071	-0.158
-360.639	17.178	-0.269	0.215
-359.625	-43.226	0.398	0.203
-358.610	189.390	-0.163	0.247
-357.596	95.640	-0.082	-0.094
-356.581	609.813	0.130	-0.328
-355.566	-105.516	0.266	-0.061
-354.552	23.494	0.063	-0.052
-353.537	14.938	0.076	-0.060
-352.523	-136.524	0.061	-0.007
-351.508	-113.084	-0.241	-0.048
-350.493	-200.000	-0.037	0.289
-349.479	-8.538	0.157	0.106
-348.464	11.912	0.112	0.086
-347.450	91.727	-0.349	-0.395
-346.435	21.939	-0.180	0.148
-345.420	39.209	0.061	0.055
-344.406	48.564	0.090	0.085
-343.391	-200.000	0.036	-0.179
-342.377	-114.604	0.292	-0.056
-341.362	800.000	0.054	-0.188
-340.348	-35.239	-0.022	0.012
-339.333	-143.536	-0.201	-0.019
-338.318	-111.411	-0.262	-0.054
-337.304	-83.435	0.200	0.065
-336.289	-200.000	-0.029	0.336
-335.275	-200.000	0.013	0.248
-334.260	-107.263	-0.180	-0.040
-333.245	-200.000	0.012	-0.149
-332.231	285.021	-0.178	-0.322
-331.216	-200.000	0.046	-0.332
-330.202	-43.167	0.344	0.176
-329.187	-127.041	-0.219	0.032
-328.172	71.274	-0.209	0.218
-327.158	-36.311	0.409	0.222
-326.143	-75.696	0.254	0.091
-325.129	667.325	-0.137	-0.356
-324.114	120.321	0.117	0.146
-323.099	500.672	-0.098	0.228
-322.085	-13.852	-0.071	-0.046
-321.070	-200.000	-0.008	0.122
-320.056	122.651	-0.146	0.183
-319.041	-152.039	-0.160	-0.012
-318.026	159.124	0.137	0.192
-317.012	273.264	0.093	-0.165
-315.997	-160.848	0.239	-0.013
-314.983	378.048	0.067	-0.138
-313.968	-125.349	0.249	-0.038
-312.953	-200.000	-0.012	-0.167
-311.939	335.522	0.067	0.131
-310.924	-200.000	0.059	0.380
-309.910	-200.000	0.007	-0.119
-308.895	-91.120	-0.312	0.090
-307.880	-26.736	-0.313	0.184
-306.866	-200.000	0.006	0.270
-305.851	-41.904	-0.114	-0.059
-304.837	-100.261	-0.083	0.021
-303.822	140.211	-0.085	-0.113
-302.807	459.139	-0.108	0.241
-301.793	800.000	-0.114	0.339
-300.778	-200.000	0.009	-0.272
-299.764	21.002	0.244	-0.199
-298.749	123.087	0.200	0.251
-297.735	70.725	-0.201	-0.209
-296.720	87.037	-0.295	-0.328
-295.705	0.791	-0.007	-0.005
-294.691	-26.982	0.061	0.036
-293.676	-123.202	-0.255	-0.041
-292.662	-200.000	0.009	0.041
-291.647	-200.000	-0.006	-0.030
-290.632	-32.270	0.071	0.040
-289.618	169.026	0.169	0.243
-288.603	176.775	0.134	0.196
-287.589	49.097	0.279	0.263
-286.574	-77.906	0.236	-0.082
-285.559	-124.047	0.204	-0.032
-284.545	-200.000	0.011	-0.258
-283.530	11.155	0.144	-0.111
-282.516	-89.894	0.237	0.069
-281.501	-89.075	-0.205	0.061
-280.486	71.877	-0.022	-0.023
-279.472	-23.489	0.193	0.116
-278.457	-43.748	-0.280	0.141
-277.443	-111.616	0.059	-0.012
-276.428	26.343	-0.135	0.114
-275.413	-200.000	0.040	0.189
-274.399	-200.000	0.000	0.054
-273.384	-109.523	0.131	0.028
-272.370	11.242	-0.175	-0.135
-271.355	166.589	0.159	0.226
-270.340	-200.000	-0.052	-0.308
-269.326	134.789	0.023	-0.030
-268.311	0.790	-0.094	-0.068
-267.297	-56.788	-0.313	0.139
-266.282	-200.000	0.042	-0.209
-265.267	-17.474	-0.256	0.162
-264.253	213.984	-0.141	0.223
-263.238	-18.997	-0.134	-0.084
-262.224	107.441	0.091	-0.109
-261.209	356.152	-0.100	0.200
-260.195	-100.025	0.461	0.116
-259.180	123.735	0.140	0.176
-258.165	-67.171	-0.202	0.080
-257.151	800.000	0.065	-0.274
-256.136	6.729	-0.101	-0.076
-255.122	800.000	-0.054	-0.168
-254.107	-200.000	-0.018	0.082
-253.092	-200.000	-0.002	-0.193
-252.078	-108.794	-0.299	0.064
-251.063	710.021	0.080	0.212
-250.049	-200.000	0.013	0.185
-249.034	-45.350	-0.190	0.095
-248.019	275.881	0.062	0.111
-247.005	800.000	0.098	0.375
-245.990	350.367	-0.174	0.346
-244.976	800.000	0.044	-0.190
-243.961	-65.253	0.164	0.066
-242.946	46.300	-0.222	-0.206
-241.932	76.548	-0.144	-0.153
-240.917	96.210	-0.100	-0.115
-239.903	-143.720	0.234	-0.022
-238.888	296.259	-0.067	0.124
-237.873	59.297	0.139	-0.138
-236.859	-157.398	-0.301	-0.018
-235.844	-118.722	-0.051	-0.009
-234.830	184.957	0.115	-0.171
-233.815	800.000	-0.044	-0.131
-232.800	129.955	-0.216	-0.277
-231.786	-27.425	0.143	0.084
-230.771	124.322	0.039	0.049
-229.757	35.349	-0.125	-0.110
-228.742	12.309	0.084	0.065
-227.727	29.219	0.115	-0.098
-226.713	-79.486	0.137	0.046
-225.698	162.341	0.091	0.128
-224.684	35.812	0.257	-0.227
-223.669	800.000	0.034	-0.132
-222.655	-36.317	-0.340	0.184
-221.640	666.435	0.047	0.123
-220.625	25.409	0.169	-0.141
-219.611	-101.801	-0.214	0.052
-218.596	-49.186	-0.312	-0.150
-217.582	1.722	-0.115	-0.083
-216.567	800.000	0.061	-0.263
-215.552	-116.359	0.317	-0.059
-214.538	-200.000	-0.025	0.146
-213.523	-45.078	0.103	-0.051
-212.509	-84.446	0.153	0.048
-211.494	-200.000	0.022	0.266
-210.479	-114.224	0.222	0.043
-209.465	467.399	-0.020	-0.045
-208.450	-160.268	-0.104	-0.006
-207.436	-78.108	-0.172	0.059
-206.421	253.567	-0.077	-0.132
-205.406	41.198	0.178	-0.161
-204.392	476.861	0.074	-0.168
-203.377	7.621	-0.228	0.171
-202.363	-27.604	0.215	-0.125
-201.348	-29.330	0.036	-0.021
-200.333	63.590	0.476	-0.479
-199.319	-106.083	-0.388	0.087
-198.304	189.970	-0.082	-0.123
-197.290	-60.237	0.117	0.050
-196.275	114.471	-0.129	0.157
-195.260	800.000	0.050	-0.184
-194.246	92.688	-0.261	0.295
-193.231	87.131	0.064	0.071
-192.217	-69.047	-0.378	0.146
-191.202	255.828	-0.046	0.079
-190.187	-151.483	0.145	-0.011
-189.173	800.000	0.039	0.158
-188.158	-72.531	-0.134	0.050
-187.144	800.000	0.139	0.605
-186.129	800.000	0.024	0.073
-185.114	24.111	0.148	-0.122
-184.100	-142.781	-0.158	-0.015
-183.085	99.080	0.298	-0.345
-182.071	800.000	0.108	-0.346
-181.056	-86.414	0.043	0.013
-180.042	-200.000	-0.014	0.218
-179.027	-200.000	0.040	-0.235
-178.012	-98.786	-0.233	-0.059
-176.998	220.239	-0.180	0.289
-175.983	390.771	0.030	-0.062
-174.969	-200.000	0.010	-0.322
-173.954	20.807	0.048	-0.039
-172.939	-200.000	-0.017	0.077
-171.925	-81.744	0.128	0.042
-170.910	-24.988	0.121	-0.072
-169.896	111.084	-0.075	0.090
-168.881	136.265	0.189	-0.247
-167.866	-35.396	-0.174	-0.095
-166.852	117.113	-0.230	-0.283
-165.837	-170.298	0.367	0.013
-164.823	-200.000	-0.070	-0.344
-163.808	265.213	0.197	-0.343
-162.793	-91.930	-0.053	0.015
-161.779	-132.757	-0.188	-0.024
-160.764	-104.195	-0.524	-0.122
-159.750	228.700	0.062	0.101
-158.735	35.515	0.114	-0.100
-157.720	-37.539	-0.133	-0.071
-156.706	-88.197	0.336	0.101
-155.691	-117.223	0.330	-0.060
-154.677	-200.000	0.085	0.392
-153.662	355.978	-0.053	0.105
-152.647	155.499	0.355	0.488
-151.633	-200.000	0.071	0.465
-150.618	-200.000	0.034	0.168
-149.604	-200.000	-0.018	0.108
-148.589	-172.981	0.234	0.007
-147.574	-40.525	0.158	0.082
-146.560	98.852	0.177	-0.204
-145.545	363.903	-0.041	0.082
-144.531	36.118	0.354	-0.312
-143.516	800.000	-0.077	0.265
-142.502	47.331	0.257	0.239
-141.487	-109.842	-0.198	0.042
-140.472	-10.378	-0.181	-0.120
-139.458	95.443	0.222	-0.253
-138.443	-90.438	0.030	-0.009
-137.429	43.317	-0.009	0.009
-136.414	-84.427	0.195	0.061
-135.399	-146.779	-0.130	-0.011
-134.385	-200.000	-0.038	-0.206
-133.370	-200.000	0.014	0.077
-132.356	722.255	0.058	0.155
-131.341	101.408	0.169	-0.197
-130.326	800.000	-0.070	-0.254
-129.312	303.449	0.042	-0.079
-128.297	3.201	0.156	-0.114
-127.283	-200.000	-0.017	0.100
-126.268	-98.792	-0.174	-0.044
-125.253	87.526	-0.085	0.094
-124.239	127.798	0.169	-0.215
-123.224	-19.753	0.258	-0.159
-122.210	-79.830	0.307	-0.103
-121.195	-34.445	-0.191	-0.105
-120.180	413.139	0.102	-0.218
-119.166	-200.000	-0.004	-0.263
-118.151	-81.983	0.333	0.109
-117.137	800.000	-0.034	0.102
-116.122	151.893	-0.070	0.096
-115.107	-132.044	0.269	-0.035
-114.093	50.787	0.070	0.066
-113.078	25.905	-0.259	0.216
-112.064	52.981	-0.164	0.157
-111.049	60.695	-0.173	0.171
-110.034	129.088	0.156	0.198
-109.020	-120.987	0.112	-0.019
-108.005	-22.474	0.048	-0.029
-106.991	-18.208	0.052	0.033
-105.976	575.499	0.090	0.220
-104.962	-14.733	-0.071	0.045
-103.947	800.000	-0.025	0.085
-102.932	800.000	-0.189	0.542
-101.918	-69.024	0.619	0.238
-100.903	-200.000	0.201	-0.000
-99.889	707.923	0.116	-0.306
-98.874	-200.000	0.002	0.323
-97.859	-88.500	0.352	0.105
-96.845	-126.813	0.302	0.044
-95.830	-200.000	-0.029	0.193
-94.816	800.000	-0.040	0.120
-93.801	95.905	-0.047	0.054
-92.786	-200.000	-0.028	0.217
-91.772	-200.000	0.046	-0.305
-90.757	-42.664	-0.222	0.113
-89.743	-50.714	-0.413	-0.194
-88.728	91.154	-0.124	-0.139
-87.713	722.664	0.160	-0.425
-86.699	-32.370	0.100	-0.056
-85.684	-192.745	-0.240	0.002
-84.670	279.535	0.068	0.120
-83.655	160.782	-0.089	0.124
-82.640	-200.000	0.002	-0.037
-81.626	142.245	0.208	0.276
-80.611	-120.848	-0.077	-0.013
-79.597	-81.208	0.349	-0.115
-78.582	-38.218	0.150	-0.079
-77.567	298.349	0.060	-0.110
-76.553	800.000	0.145	0.405
-75.538	-151.098	0.225	0.017
-74.524	465.566	0.131	0.292
-73.509	225.324	0.198	0.319
-72.494	109.500	-0.119	-0.142
-71.480	-68.236	-0.301	0.117
-70.465	-47.810	0.201	-0.097
-69.451	299.285	-0.025	0.046
-68.436	151.344	0.157	-0.212
-67.422	499.820	0.035	-0.080
-66.407	-200.000	0.072	-0.348
-65.392	-16.731	-0.182	0.115
-64.378	-38.390	-0.464	-0.245
-63.363	-159.955	0.343	-0.019
-62.349	-178.650	-0.329	-0.008
-61.334	-39.082	-0.792	-0.415
-60.319	291.132	0.140	0.254
-59.305	-200.000	-0.022	-0.671
-58.290	290.883	0.234	0.424
-57.276	475.836	0.621	1.397
-56.261	-200.000	75.648	519.256
-55.246	544.855	1309.112	3114.592
-54.232	144.098	2565.948	3408.909
-53.217	110.686	2369.514	2838.246
-52.203	50.845	1982.252	1869.970
-51.188	44.958	1766.893	1620.165
-50.173	42.015	1720.833	1555.044
-49.159	55.799	1755.420	1694.424
-48.144	61.719	1772.904	1757.478
-47.130	44.728	1736.579	1590.315
-46.115	41.437	1723.328	1552.558
-45.100	41.360	1718.059	1547.150
-44.086	41.377	1714.851	1544.336
-43.071	41.393	1712.826	1542.568
-42.057	41.361	1709.491	1539.262
-41.042	41.308	1707.922	1537.375
-40.027	41.334	1706.320	1536.075
-39.013	41.244	1704.452	1533.639
-37.998	41.392	1702.180	1532.675
-36.984	41.311	1700.876	1530.813
-35.969	41.479	1699.703	1530.985
-34.954	41.665	1697.377	1530.256
-33.940	41.474	1695.748	1527.268
-32.925	41.514	1693.767	1525.727
-31.911	41.428	1692.641	1523.993
-30.896	41.444	1690.480	1522.110
-29.881	41.467	1688.276	1520.242
-28.867	41.445	1686.775	1518.659
-27.852	41.501	1685.001	1517.428
-26.838	41.327	1684.397	1515.504
-25.823	41.545	1682.116	1515.044
-24.809	41.557	1680.793	1513.882
-23.794	41.543	1679.020	1512.119
-22.779	41.482	1677.889	1510.580
-21.765	41.439	1676.086	1508.570
-20.750	41.398	1674.487	1506.766
-19.736	41.432	1673.294	1505.888
-18.721	41.582	1670.994	1504.887
-17.706	41.457	1669.752	1502.768
-16.692	41.495	1667.989	1501.408
-15.677	41.380	1667.384	1499.937
-14.663	41.467	1665.493	1498.834
-13.648	41.394	1664.259	1497.117
-12.633	41.450	1662.602	1495.987
-11.619	41.481	1660.896	1494.622
-10.604	41.458	1659.375	1493.020
-9.590	41.476	1657.746	1491.634
-8.575	41.546	1656.215	1490.714
-7.560	41.464	1655.239	1489.166
-6.546	41.475	1654.017	1488.088
-5.531	41.448	1653.056	1486.963
-4.517	41.379	1651.835	1485.291
-3.502	41.334	1650.930	1484.090
-2.487	41.585	1648.997	1484.160
-1.473	41.546	1638.407	1474.277
-0.458	39.418	1618.659	1440.903
0.556	33.918	1617.267	1405.879
1.571	31.114	1641.331	1405.582
2.586	30.271	1655.588	1411.259
3.600	26.319	1600.719	1335.237
4.615	13.848	1477.986	1147.113
5.629	2.556	1401.252	1013.114
6.644	0.435	1390.703	991.464
7.659	0.183	1389.601	988.938
8.673	0.151	1388.175	987.627
9.688	0.082	1386.768	986.086
10.702	-0.064	1383.773	982.911
11.717	3.668	1391.381	1012.741
12.731	15.099	1414.421	1105.264
13.746	23.117	1427.702	1168.740
14.761	23.680	1427.940	1172.556
15.775	23.698	1426.700	1171.552
16.790	23.607	1426.288	1170.506
17.804	23.731	1425.475	1170.556
18.819	23.926	1425.686	1171.906
19.834	23.997	1424.471	1171.272
20.848	24.045	1423.579	1170.750
21.863	24.007	1423.234	1170.117
22.877	24.014	1422.025	1169.061
23.892	24.102	1421.052	1168.738
24.907	24.008	1420.244	1167.353
25.921	24.031	1419.498	1166.789
26.936	24.079	1417.974	1165.743
27.950	24.007	1417.454	1164.746
28.965	24.048	1416.003	1163.718
29.980	24.048	1414.332	1162.238
30.994	23.990	1413.798	1161.319
32.009	24.063	1411.951	1160.177
33.023	24.015	1410.862	1158.869
34.038	23.997	1409.897	1157.851
35.053	23.961	1409.315	1157.038
36.067	24.075	1407.894	1156.512
37.082	24.047	1406.965	1155.462
38.096	24.035	1406.117	1154.586
39.111	24.014	1405.049	1153.472
40.126	23.974	1404.921	1153.004
41.140	24.021	1403.906	1152.376
42.155	23.984	1403.443	1151.656
43.169	23.989	1403.649	1151.754
44.184	23.992	1403.340	1151.418
45.199	24.046	1402.983	1151.369
46.213	24.027	1402.036	1150.371
47.228	24.020	1401.424	1149.721
48.242	24.027	1400.235	1148.690
49.257	23.990	1398.703	1147.091
50.271	24.004	1397.332	1145.953
51.286	24.019	1395.810	1144.702
52.301	24.058	1394.404	1143.699
53.315	24.019	1393.917	1142.947
54.330	23.970	1393.076	1141.842
55.344	24.006	1391.992	1141.085
56.359	24.034	1390.365	1139.829
57.374	24.007	1389.670	1138.986
58.388	24.093	1388.780	1138.702
59.403	23.983	1389.088	1138.154
60.417	24.058	1388.165	1137.773
61.432	24.100	1387.093	1137.062
62.447	24.016	1386.864	1136.238
63.461	24.004	1385.148	1134.654
64.476	24.005	1384.397	1133.946
65.490	24.098	1383.016	1133.307
66.505	24.168	1381.157	1132.132
67.520	24.043	1380.613	1130.788
68.534	24.068	1379.156	1129.653
69.549	24.165	1378.285	1129.456
70.563	24.068	1377.199	1127.854
71.578	24.025	1376.688	1127.061
72.593	24.014	1376.058	1126.379
73.607	24.095	1374.431	1125.457
74.622	24.083	1374.027	1124.953
75.636	24.186	1372.920	1124.592
76.651	24.062	1372.574	1123.432
77.666	24.025	1372.411	1122.963
78.680	24.034	1371.902	1122.506
79.695	24.087	1370.829	1121.861
80.709	23.940	1369.936	1120.106
81.724	24.068	1369.064	1120.100
82.739	24.050	1367.944	1118.972
83.753	24.056	1367.223	1118.317
84.768	24.039	1366.101	1117.194
85.782	24.054	1364.712	1116.055
86.797	24.118	1363.218	1115.133
87.812	23.921	1362.772	1113.437
88.826	23.973	1361.882	1112.935
89.841	24.097	1360.457	1112.448
90.855	24.031	1360.005	1111.566
91.870	24.123	1358.459	1110.782
92.884	24.102	1358.072	1110.238
93.899	24.094	1357.149	1109.333
94.914	24.169	1356.224	1108.948
95.928	24.112	1355.534	1107.926
96.943	24.108	1354.529	1106.985
97.957	24.069	1354.028	1106.234
98.972	24.068	1353.143	1105.407
99.987	24.075	1352.436	1104.773
101.001	24.136	1350.887	1103.787
102.016	24.130	1349.846	1102.803
103.030	24.094	1349.022	1101.812
104.045	23.981	1348.457	1100.556
105.060	24.132	1347.044	1100.234
106.074	24.133	1346.313	1099.547
107.089	24.074	1345.351	1098.300
108.103	24.161	1343.982	1097.624
109.118	24.185	1342.649	1096.581
110.133	24.219	1341.835	1096.030
111.147	24.166	1340.822	1094.784
112.162	24.103	1339.949	1093.586
113.176	24.144	1338.869	1092.859
114.191	24.190	1337.566	1091.977
115.206	24.227	1336.518	1091.256
116.220	24.233	1335.617	1090.458
117.235	24.144	1334.536	1088.937
118.249	24.135	1333.650	1088.062
119.264	24.132	1332.890	1087.324
120.279	24.249	1331.523	1086.830
121.293	24.194	1331.077	1086.031
122.308	24.224	1330.336	1085.517
123.322	24.182	1329.378	1084.381
124.337	24.229	1328.361	1083.743
125.352	24.258	1328.182	1083.679
126.366	24.221	1326.673	1082.124
127.381	24.285	1325.752	1081.669
128.395	24.214	1325.138	1080.638
129.410	24.238	1323.933	1079.704
130.424	24.136	1323.464	1078.608
131.439	24.210	1322.531	1078.202
132.454	24.185	1321.895	1077.435
133.468	24.266	1321.029	1077.128
134.483	24.184	1320.256	1075.904
135.497	24.269	1319.338	1075.572
136.512	24.218	1318.746	1074.690
137.527	24.296	1317.211	1073.810
138.541	24.300	1315.501	1072.347
139.556	24.135	1314.847	1070.728
140.570	24.134	1314.472	1070.323
141.585	24.336	1312.878	1070.138
142.600	24.156	1312.317	1068.509
143.614	24.334	1310.852	1068.288
144.629	24.281	1309.745	1066.974
145.643	24.097	1309.121	1065.273
146.658	24.044	1308.022	1063.965
147.673	24.098	1306.734	1063.148
148.687	24.197	1305.394	1062.551
149.702	24.087	1304.410	1061.004
150.716	24.194	1303.140	1060.510
151.731	24.100	1302.180	1059.080
152.746	24.134	1301.706	1058.804
153.760	24.054	1300.398	1057.166
154.775	24.135	1299.307	1056.668
155.789	24.140	1298.315	1055.799
156.804	24.140	1297.183	1054.785
157.819	24.189	1296.006	1054.024
158.833	24.278	1295.540	1054.080
159.848	24.158	1294.947	1052.795
160.862	24.146	1294.588	1052.334
161.877	24.271	1293.059	1051.736
162.892	24.194	1292.390	1050.647
163.906	24.204	1291.405	1049.811
164.921	24.239	1291.040	1049.627
165.935	24.275	1289.976	1048.885
166.950	24.306	1289.391	1048.497
167.964	24.331	1288.943	1048.188
168.979	24.357	1288.226	1047.665
169.994	24.278	1287.707	1046.686
171.008	24.309	1286.950	1046.158
172.023	24.461	1285.585	1045.847
173.037	24.323	1285.436	1044.823
174.052	24.314	1284.672	1044.059
175.067	24.253	1283.939	1043.016
176.081	24.205	1283.348	1042.162
177.096	24.341	1282.293	1042.006
178.110	24.330	1281.273	1041.019
179.125	24.364	1280.529	1040.523
180.140	24.354	1279.136	1039.239
181.154	24.404	1278.347	1038.798
182.169	24.279	1277.433	1037.235
183.183	24.210	1276.672	1036.129
184.198	24.142	1275.222	1034.463
185.213	24.310	1274.397	1034.674
186.227	24.434	1273.357	1034.458
187.242	24.351	1272.194	1032.941
188.256	24.331	1271.702	1032.339
189.271	24.380	1270.710	1031.723
190.286	24.379	1269.877	1030.948
191.300	24.351	1269.491	1030.382
192.315	24.308	1269.031	1029.668
193.329	24.392	1268.285	1029.457
194.344	24.441	1267.830	1029.278
195.359	24.310	1267.615	1028.262
196.373	24.336	1267.093	1027.896
197.388	24.245	1266.539	1026.830
198.402	24.320	1265.640	1026.445
199.417	24.338	1265.353	1026.224
200.432	24.461	1265.003	1026.553
201.446	24.335	1264.238	1025.123
202.461	24.402	1263.519	1024.830
203.475	24.418	1262.700	1024.169
204.490	24.384	1261.834	1023.176
205.504	24.284	1260.636	1021.542
206.519	24.432	1259.655	1021.507
207.534	24.487	1258.526	1020.812
208.548	24.373	1258.273	1019.870
209.563	24.516	1257.043	1019.596
210.577	24.557	1256.066	1018.946
211.592	24.473	1255.165	1017.647
212.607	24.510	1254.436	1017.176
213.621	24.489	1254.020	1016.630
214.636	24.520	1252.732	1015.674
215.650	24.469	1252.126	1014.801
216.665	24.560	1250.913	1014.247
217.680	24.453	1250.105	1012.891
218.694	24.436	1249.596	1012.294
219.709	24.596	1248.506	1012.231
220.723	24.597	1248.070	1011.793
221.738	24.574	1247.099	1010.784
222.753	24.408	1246.461	1009.240
223.767	24.509	1245.974	1009.327
224.782	24.561	1245.525	1009.167
225.796	24.676	1244.987	1009.294
226.811	24.546	1244.246	1007.871
227.826	24.578	1243.641	1007.469
228.840	24.582	1243.269	1007.101
229.855	24.505	1242.956	1006.326
230.869	24.566	1241.947	1005.764
231.884	24.554	1241.368	1005.138
232.899	24.609	1240.396	1004.570
233.913	24.715	1239.206	1004.116
234.928	24.695	1238.816	1003.596
235.942	24.685	1238.552	1003.235
236.957	24.629	1238.056	1002.435
237.972	24.572	1237.115	1001.261
238.986	24.658	1236.280	1000.983
240.001	24.712	1235.866	1000.860
241.015	24.733	1234.794	1000.018
242.030	24.628	1234.370	998.999
243.045	24.627	1233.696	998.359
244.059	24.718	1232.594	997.888
245.074	24.807	1231.896	997.733
246.088	24.781	1230.948	996.733
247.103	24.805	1230.282	996.240
248.117	24.755	1229.327	995.099
249.132	24.680	1228.945	994.280
250.147	24.899	1227.796	994.482
251.161	24.930	1227.055	993.965
252.176	24.878	1226.513	993.152
253.190	24.795	1225.944	992.139
254.205	24.724	1225.678	991.442
255.220	24.837	1224.471	991.007
256.234	24.863	1223.967	990.655
257.249	24.841	1223.802	990.315
258.263	24.986	1222.228	989.750
259.278	24.947	1222.098	989.343
260.293	24.956	1221.552	988.864
261.307	24.887	1221.056	987.991
262.322	24.889	1220.509	987.477
263.336	24.920	1219.677	986.883
264.351	24.884	1219.156	986.180
265.366	25.038	1218.450	986.365
266.380	24.948	1217.912	985.348
267.395	24.885	1217.388	984.490
268.409	24.871	1216.859	983.899
269.424	24.925	1216.090	983.488
270.439	25.065	1215.565	983.746
271.453	25.048	1214.602	982.788
272.468	24.966	1213.915	981.691
273.482	24.957	1213.272	981.038
274.497	25.010	1212.473	980.594
275.512	25.073	1212.036	980.496
276.526	25.062	1211.314	979.766
277.541	25.089	1210.686	979.319
278.555	25.006	1210.511	978.640
279.570	24.983	1209.971	977.989
280.585	25.026	1208.763	977.158
281.599	24.942	1207.741	975.790
282.614	24.993	1207.262	975.593
283.628	25.048	1206.402	975.111
284.643	25.023	1205.308	974.004
285.657	25.136	1204.249	973.680
286.672	25.054	1203.430	972.483
287.687	25.079	1202.521	971.802
288.701	25.096	1202.211	971.553
289.716	25.132	1201.362	970.980
290.730	25.046	1200.904	970.058
291.745	25.152	1200.121	969.910
292.760	25.181	1199.833	969.749
293.774	25.231	1198.485	968.844
294.789	25.189	1198.016	968.153
295.803	25.170	1198.051	967.993
296.818	25.297	1196.676	967.479
297.833	25.212	1196.098	966.470
298.847	25.205	1195.713	966.034
299.862	25.096	1195.134	964.896
300.876	25.123	1193.958	964.005
301.891	25.381	1193.457	964.906
302.906	25.202	1193.442	963.843
303.920	25.290	1192.290	963.302
304.935	25.252	1191.596	962.449
305.949	25.330	1190.842	962.178
306.964	25.310	1190.234	961.493
307.979	25.360	1189.500	961.078
308.993	25.411	1189.224	961.044
310.008	25.290	1188.526	959.752
311.022	25.373	1187.299	959.118
312.037	25.359	1186.296	958.146
313.052	25.363	1185.759	957.652
314.066	25.373	1184.765	956.817
315.081	25.371	1184.169	956.239
316.095	25.387	1183.593	955.773
317.110	25.329	1183.100	954.983
318.125	25.461	1182.380	955.018
319.139	25.468	1181.579	954.323
320.154	25.385	1181.258	953.539
321.168	25.397	1180.439	952.860
322.183	25.510	1179.956	952.982
323.197	25.352	1179.646	951.811
324.212	25.504	1178.624	951.709
325.227	25.498	1178.237	951.280
326.241	25.519	1177.898	951.030
327.256	25.484	1177.378	950.346
328.270	25.506	1176.014	949.272
329.285	25.321	1175.674	947.939
330.300	25.475	1174.532	947.748
331.314	25.461	1173.910	947.088
332.329	25.581	1172.756	946.702
333.343	25.618	1172.245	946.402
334.358	25.739	1171.300	946.195
335.373	25.660	1170.552	945.090
336.387	25.517	1169.972	943.786
337.402	25.533	1169.158	943.130
338.416	25.573	1169.123	943.228
339.431	25.548	1168.287	942.337
340.446	25.656	1167.201	941.944
341.460	25.631	1166.706	941.330
342.475	25.741	1165.661	940.983
343.489	25.656	1164.858	939.805
344.504	25.680	1163.965	939.126
345.519	25.699	1163.286	938.593
346.533	25.782	1162.379	938.215
347.548	25.734	1161.560	937.217
348.562	25.652	1160.938	936.208
349.577	25.640	1160.549	935.746
350.592	25.668	1159.505	934.971
351.606	25.627	1158.965	934.239
352.621	25.633	1158.424	933.751
353.635	25.708	1157.859	933.603
354.650	25.781	1157.010	933.215
355.665	25.821	1156.205	932.690
356.679	25.830	1155.529	932.106
357.694	25.904	1155.285	932.211
358.708	25.870	1154.448	931.274
359.723	25.767	1153.763	930.109
360.738	25.822	1153.068	929.751
361.752	25.808	1152.923	929.479
362.767	25.865	1151.974	928.925
363.781	25.877	1151.457	928.491
364.796	25.816	1151.247	927.923
365.810	25.849	1150.926	927.753
366.825	25.843	1149.900	926.811
367.840	26.039	1149.292	927.246
368.854	26.047	1148.565	926.622
369.869	26.023	1148.160	926.088
370.883	25.991	1146.842	924.780
371.898	26.000	1146.205	924.230
372.913	26.045	1145.714	923.984
373.927	25.997	1145.628	923.585
374.942	26.029	1144.737	922.949
375.956	26.062	1144.386	922.751
376.971	26.100	1143.679	922.295
377.986	26.018	1143.239	921.439
379.000	26.260	1142.624	922.096
380.015	26.040	1142.512	920.805
381.029	26.084	1141.683	920.277
382.044	26.119	1140.403	919.346
383.059	26.267	1139.674	919.425
384.073	26.217	1139.113	918.641
385.088	26.113	1138.808	917.785
386.102	26.136	1137.807	917.011
387.117	26.140	1136.598	915.975
388.132	26.111	1136.040	915.298
389.146	26.135	1135.650	915.025
390.161	26.096	1134.940	914.175
391.175	26.078	1134.152	913.369
392.190	26.156	1133.734	913.346
393.205	26.232	1132.442	912.606
394.219	26.253	1131.904	912.198
395.234	26.212	1131.089	911.257
396.248	26.329	1130.010	910.895
397.263	26.313	1129.174	910.059
398.278	26.241	1128.782	909.301
399.292	26.366	1128.475	909.604
400.307	26.399	1127.643	909.017
401.321	26.401	1126.432	907.971
402.336	26.362	1126.209	907.514
403.350	26.391	1125.290	906.841
404.365	26.392	1124.931	906.476
405.380	26.367	1124.485	905.908
406.394	26.393	1122.991	904.757
407.409	26.461	1122.891	904.938
408.423	26.459	1122.242	904.320
409.438	26.481	1121.303	903.597
410.453	26.636	1120.158	903.368
411.467	26.520	1119.573	902.238
412.482	26.552	1119.213	902.024
413.496	26.488	1118.465	901.025
414.511	26.532	1118.161	900.921
415.526	26.538	1117.409	900.263
416.540	26.515	1117.646	900.261
417.555	26.452	1116.831	899.211
418.569	26.504	1116.162	898.850
419.584	26.499	1115.749	898.415
420.599	26.484	1115.679	898.201
421.613	83.828	1295.588	1360.814
422.628	78.804	1321.809	1360.960
