DTS Sentinel unit serial number:	SN413079Multiplexer serial number:	ORYXHardware model number:	OX4-SRSoftware version number:	ORYX F/W v4.00 Oryx Data Collector v3.7.2.0data status	okinstallation	princeton_trtdifferential loss correction	single-endedforward channel	channel 2reverse channel	N/Adate	2019/09/11time	14:49:11forward acquisition time	60.00reverse acquisition time	0.00gamma	496.2192k internal	0.2290k external	0.2290temperature offset calibration	1.0003default loss term (dB/km)	0.3790temperature slope calibration	1.0000multiplexer offset coefficient	1.0000multiplexer slope coefficient	1.0000fibre end	0.00T internal ref (°C)	42.56T ext. ref 1 (°C)	0.92T ext. ref 2 (°C)	38.40length (m)	temperature (°C)	Stokes	anti-Stokes-747.200	-200.000	-0.004	-0.067
-746.185	462.914	0.119	0.271
-745.171	26.823	-0.100	0.086
-744.156	50.960	0.361	0.351
-743.142	-93.359	0.084	-0.024
-742.127	614.320	0.098	-0.253
-741.112	-82.333	0.271	0.090
-740.098	-146.010	-0.141	0.013
-739.083	-81.939	-0.075	-0.025
-738.069	324.835	0.027	0.053
-737.054	73.330	-0.010	-0.011
-736.039	1.965	0.176	0.130
-735.025	232.740	0.034	-0.057
-734.010	-200.000	-0.075	-0.351
-732.996	282.172	-0.045	0.082
-731.981	800.000	0.030	0.127
-730.966	800.000	0.112	0.345
-729.952	371.190	-0.172	-0.358
-728.937	149.037	-0.098	-0.136
-727.923	-200.000	0.021	-0.140
-726.908	-100.930	0.223	-0.056
-725.894	172.366	-0.147	-0.217
-724.879	463.875	-0.056	-0.127
-723.864	-200.000	-0.007	-0.075
-722.850	-128.540	-0.238	0.035
-721.835	144.922	-0.038	0.053
-720.821	343.778	-0.071	-0.142
-719.806	169.122	-0.066	0.096
-718.791	-138.995	0.176	-0.019
-717.777	-166.768	0.117	0.005
-716.762	-26.641	0.110	-0.066
-715.748	-74.866	-0.428	-0.157
-714.733	-68.432	0.242	-0.096
-713.718	27.018	-0.134	0.115
-712.704	-89.350	0.058	-0.017
-711.689	391.656	-0.129	-0.273
-710.675	-168.617	0.128	0.005
-709.660	-200.000	0.012	0.338
-708.645	-200.000	0.044	-0.256
-707.631	-72.814	0.211	-0.080
-706.616	-147.100	0.472	-0.041
-705.602	586.500	-0.106	0.266
-704.587	-94.082	-0.279	0.078
-703.572	-35.976	0.251	-0.139
-702.558	-65.627	0.097	0.040
-701.543	-200.000	-0.011	0.359
-700.529	-100.315	-0.211	-0.054
-699.514	19.016	0.212	0.174
-698.499	-196.551	-0.396	-0.003
-697.485	347.203	-0.099	0.200
-696.470	-200.000	0.035	0.274
-695.456	293.185	0.109	0.204
-694.441	111.985	0.148	-0.183
-693.426	277.665	-0.159	-0.290
-692.412	-37.726	0.083	0.045
-691.397	-76.043	-0.267	0.096
-690.383	-200.000	-0.011	-0.264
-689.368	-89.857	0.315	-0.094
-688.354	112.938	0.173	0.215
-687.339	113.103	0.251	-0.311
-686.324	-2.374	0.138	-0.099
-685.310	58.020	-0.186	-0.187
-684.295	800.000	0.048	-0.180
-683.281	275.141	0.157	0.285
-682.266	39.292	-0.078	0.072
-681.251	739.461	-0.064	-0.176
-680.237	139.911	0.049	-0.066
-679.222	116.139	-0.191	-0.239
-678.208	-143.581	-0.350	0.034
-677.193	-134.669	0.091	0.011
-676.178	-43.672	-0.077	0.040
-675.164	-45.526	-0.156	0.079
-674.149	93.502	-0.088	0.102
-673.135	-5.303	0.088	-0.062
-672.120	144.949	-0.115	-0.158
-671.105	-19.966	-0.083	0.052
-670.091	-133.134	-0.240	-0.031
-669.076	377.126	-0.111	-0.231
-668.062	-155.846	-0.238	0.016
-667.047	230.426	0.132	0.221
-666.032	-150.272	0.228	-0.018
-665.018	-137.275	0.181	-0.021
-664.003	800.000	0.142	-0.422
-662.989	161.394	0.140	0.200
-661.974	-119.200	0.115	-0.021
-660.959	262.531	-0.028	-0.050
-659.945	-16.250	-0.190	-0.123
-658.930	222.928	-0.026	-0.043
-657.916	-200.000	0.003	0.105
-656.901	800.000	-0.082	-0.363
-655.886	-192.508	-0.057	0.001
-654.872	800.000	0.055	-0.171
-653.857	800.000	0.080	-0.321
-652.843	379.018	0.084	0.176
-651.828	237.463	-0.105	0.177
-650.814	-28.252	0.088	-0.052
-649.799	-115.827	0.346	0.066
-648.784	-51.571	-0.104	0.050
-647.770	-200.000	-0.076	-0.000
-646.755	-92.320	-0.207	0.060
-645.741	262.820	-0.118	-0.208
-644.726	-200.000	0.060	0.348
-643.711	-84.625	0.176	0.056
-642.697	76.159	0.143	-0.154
-641.682	75.726	-0.049	0.053
-640.668	-98.559	-0.114	-0.030
-639.653	-109.062	-0.177	-0.038
-638.638	611.222	0.157	-0.401
-637.624	800.000	-0.055	0.228
-636.609	-122.208	-0.141	0.024
-635.595	148.919	-0.091	-0.125
-634.580	-140.515	0.136	0.014
-633.565	-200.000	-0.025	0.143
-632.551	47.842	-0.115	-0.109
-631.536	-27.883	-0.175	-0.104
-630.522	335.041	-0.096	-0.190
-629.507	800.000	0.044	-0.174
-628.492	-90.562	-0.327	-0.097
-627.478	191.563	0.028	-0.042
-626.463	800.000	-0.059	0.172
-625.449	143.420	-0.094	-0.128
-624.434	433.190	0.163	-0.361
-623.419	101.256	0.181	-0.214
-622.405	201.772	0.096	0.151
-621.390	-200.000	0.014	0.396
-620.376	48.493	0.125	-0.119
-619.361	395.704	-0.067	0.142
-618.346	88.189	-0.103	0.117
-617.332	361.485	-0.056	0.114
-616.317	188.161	-0.114	-0.173
-615.303	-102.305	0.271	0.066
-614.288	-200.000	-0.096	0.435
-613.273	205.885	0.155	-0.246
-612.259	-200.000	0.044	0.219
-611.244	-126.506	-0.219	-0.033
-610.230	228.187	0.129	0.213
-609.215	-156.839	0.366	0.023
-608.201	94.457	0.213	0.247
-607.186	35.032	0.058	0.051
-606.171	-114.720	-0.328	-0.064
-605.157	-115.277	-0.224	0.043
-604.142	-91.523	0.203	-0.059
-603.128	-74.282	-0.134	-0.049
-602.113	-200.000	0.026	0.238
-601.098	-93.481	-0.206	0.058
-600.084	-153.453	-0.317	-0.022
-599.069	-82.765	-0.171	-0.056
-598.055	-148.871	-0.303	0.025
-597.040	53.258	0.062	-0.061
-596.025	170.461	0.087	-0.127
-595.011	-109.205	-0.139	0.030
-593.996	52.911	0.073	-0.071
-592.982	-82.981	-0.125	-0.041
-591.967	800.000	0.093	-0.403
-590.952	201.848	-0.232	0.364
-589.938	-31.801	-0.082	0.047
-588.923	-200.000	0.025	-0.390
-587.909	-200.000	-0.020	-0.203
-586.894	-105.780	0.024	-0.006
-585.879	435.864	0.141	0.312
-584.865	122.842	-0.170	0.217
-583.850	202.989	0.083	0.130
-582.836	348.878	0.046	0.093
-581.821	-192.366	-0.600	-0.006
-580.806	-117.275	0.329	-0.061
-579.792	-109.909	0.264	0.056
-578.777	-43.012	-0.060	-0.031
-577.763	-200.000	-0.003	-0.093
-576.748	192.262	-0.134	0.206
-575.733	-73.595	-0.098	-0.036
-574.719	800.000	-0.101	-0.418
-573.704	800.000	-0.089	-0.317
-572.690	168.967	0.152	0.220
-571.675	159.755	-0.190	0.269
-570.661	-38.161	0.212	-0.114
-569.646	-13.120	-0.333	-0.220
-568.631	14.433	-0.122	-0.097
-567.617	-67.284	0.210	-0.084
-566.602	-2.248	0.148	-0.106
-565.588	-77.006	-0.104	-0.037
-564.573	65.655	0.176	0.181
-563.558	-39.159	-0.100	0.054
-562.544	-54.899	-0.250	-0.115
-561.529	-142.462	0.418	-0.042
-560.515	-200.000	-0.096	0.559
-559.500	37.952	-0.333	-0.301
-558.485	-23.266	0.153	0.094
-557.471	-94.743	-0.341	-0.094
-556.456	-45.900	0.238	-0.120
-555.442	47.939	-0.059	-0.056
-554.427	800.000	0.071	-0.235
-553.412	-185.797	0.105	-0.002
-552.398	51.704	-0.042	-0.040
-551.383	751.279	-0.114	-0.313
-550.369	-138.411	-0.157	0.018
-549.354	179.099	-0.047	0.070
-548.339	50.591	-0.161	-0.155
-547.325	27.165	0.032	-0.027
-546.310	-104.073	-0.168	0.040
-545.296	432.027	0.019	-0.041
-544.281	208.645	-0.011	0.018
-543.266	27.462	-0.252	-0.216
-542.252	-0.472	0.094	-0.068
-541.237	201.503	-0.060	0.093
-540.223	-200.000	0.026	-0.216
-539.208	-109.328	0.142	-0.031
-538.193	-109.097	0.098	0.021
-537.179	229.145	-0.070	-0.117
-536.164	800.000	-0.018	-0.059
-535.150	546.996	-0.023	-0.055
-534.135	-145.603	-0.408	-0.037
-533.121	-200.000	-0.014	-0.483
-532.106	0.217	0.063	0.046
-531.091	188.444	0.102	0.156
-530.077	800.000	-0.062	0.265
-529.062	-200.000	-0.051	0.369
-528.048	-200.000	0.014	-0.203
-527.033	-79.756	-0.130	0.045
-526.018	-3.514	-0.049	0.035
-525.004	-104.407	-0.320	-0.075
-523.989	-29.182	-0.202	0.117
-522.975	-126.430	0.411	-0.062
-521.960	-108.688	0.280	0.061
-520.945	-200.000	-0.048	0.347
-519.931	-80.331	0.177	-0.060
-518.916	2.164	0.089	0.065
-517.902	800.000	-0.062	-0.187
-516.887	800.000	0.005	0.020
-515.872	11.075	-0.226	-0.175
-514.858	89.152	-0.049	-0.055
-513.843	-79.221	-0.244	-0.084
-512.829	168.235	0.053	0.077
-511.814	410.686	0.121	0.260
-510.799	-83.178	-0.201	0.065
-509.785	-146.649	-0.255	-0.022
-508.770	-56.468	-0.380	0.171
-507.756	-65.094	0.186	0.076
-506.741	-125.244	0.172	0.027
-505.726	-200.000	-0.042	-0.223
-504.712	115.022	0.110	0.136
-503.697	-200.000	-0.078	0.375
-502.683	-54.888	-0.128	-0.059
-501.668	-136.692	-0.214	-0.025
-500.653	698.452	-0.076	0.202
-499.639	-200.000	0.012	0.247
-498.624	-106.542	0.193	0.044
-497.610	13.595	0.106	0.084
-496.595	-200.000	-0.034	0.183
-495.581	-70.181	-0.168	0.065
-494.566	380.089	0.180	-0.374
-493.551	-200.000	-0.008	0.327
-492.537	-102.068	-0.213	0.052
-491.522	-162.510	-0.333	-0.017
-490.508	54.201	0.127	0.124
-489.493	800.000	0.079	-0.317
-488.478	303.451	0.174	0.326
-487.464	371.570	-0.114	-0.236
-486.449	89.675	0.151	-0.171
-485.435	-200.000	-0.004	0.133
-484.420	-200.000	0.056	-0.253
-483.405	127.118	-0.276	0.355
-482.391	-99.385	0.088	0.023
-481.376	-32.989	0.252	-0.142
-480.362	53.386	-0.036	-0.035
-479.347	-67.230	-0.457	0.182
-478.332	-200.000	-0.035	0.293
-477.318	461.795	-0.055	0.124
-476.303	-44.939	-0.194	-0.098
-475.289	-200.000	-0.047	0.250
-474.274	117.032	0.117	0.145
-473.259	-93.102	0.309	0.087
-472.245	-4.050	0.189	-0.133
-471.230	271.416	-0.040	0.071
-470.216	-71.843	0.138	0.052
-469.201	76.971	-0.225	0.242
-468.186	800.000	0.027	-0.085
-467.172	-178.755	-0.425	-0.010
-466.157	112.877	-0.129	0.159
-465.143	488.215	-0.140	0.324
-464.128	-200.000	-0.007	0.167
-463.113	800.000	0.055	-0.207
-462.099	178.719	-0.053	-0.079
-461.084	-59.617	-0.118	-0.051
-460.070	189.896	0.047	0.071
-459.055	-47.915	-0.230	-0.113
-458.040	800.000	0.019	0.077
-457.026	800.000	-0.078	0.267
-456.011	-44.123	0.183	-0.093
-454.997	191.973	0.150	-0.230
-453.982	-108.464	-0.071	-0.016
-452.968	-200.000	-0.025	-0.245
-451.953	-83.816	0.348	0.112
-450.938	239.868	-0.104	0.176
-449.924	38.856	0.078	0.071
-448.909	220.299	-0.068	-0.111
-447.895	800.000	-0.063	-0.175
-446.880	202.654	0.040	0.062
-445.865	120.167	0.215	0.270
-444.851	-55.331	0.169	0.077
-443.836	-52.485	0.369	-0.173
-442.822	-159.203	-0.282	-0.016
-441.807	591.862	0.049	0.122
-440.792	-112.300	0.286	0.058
-439.778	61.104	0.121	-0.122
-438.763	-66.755	-0.470	-0.188
-437.749	324.632	0.101	0.195
-436.734	800.000	0.029	0.107
-435.719	-200.000	0.006	-0.281
-434.705	-200.000	0.035	-0.223
-433.690	-163.929	-0.125	-0.006
-432.676	272.279	-0.225	-0.403
-431.661	-200.000	0.049	-0.317
-430.646	800.000	-0.137	-0.384
-429.632	-110.225	-0.183	-0.039
-428.617	-25.334	-0.378	0.226
-427.603	-80.460	-0.384	0.130
-426.588	-200.000	-0.011	-0.132
-425.573	-200.000	-0.007	0.187
-424.559	-168.848	-0.236	0.009
-423.544	-59.295	0.271	0.118
-422.530	800.000	0.045	-0.143
-421.515	269.251	0.138	-0.245
-420.500	54.642	0.194	-0.190
-419.486	-46.768	0.075	-0.037
-418.471	-33.964	-0.226	-0.126
-417.457	-116.296	0.098	0.018
-416.442	-1.889	-0.283	0.202
-415.428	-200.000	-0.017	-0.256
-414.413	-141.268	0.296	-0.030
-413.398	-200.000	-0.007	0.101
-412.384	-63.326	0.147	-0.061
-411.369	-200.000	0.046	0.234
-410.355	128.515	-0.138	-0.178
-409.340	-200.000	0.011	0.088
-408.325	-48.657	0.030	-0.014
-407.311	28.965	0.324	-0.278
-406.296	388.893	0.121	-0.254
-405.282	-93.934	0.217	0.060
-404.267	-200.000	0.026	0.325
-403.252	-56.784	0.181	0.081
-402.238	-200.000	0.045	-0.204
-401.223	57.225	0.112	0.111
-400.209	291.344	-0.179	-0.328
-399.194	344.531	-0.056	-0.110
-398.179	800.000	-0.064	-0.191
-397.165	401.601	0.176	-0.374
-396.150	-61.951	-0.272	-0.115
-395.136	-49.345	-0.092	-0.044
-394.121	-144.935	0.531	-0.049
-393.106	-44.498	0.093	0.047
-392.092	-5.769	-0.273	0.189
-391.077	-200.000	0.010	0.252
-390.063	-200.000	0.037	0.176
-389.048	-129.147	-0.112	0.016
-388.033	257.148	-0.111	0.193
-387.019	-200.000	0.038	-0.280
-386.004	79.524	-0.067	-0.072
-384.990	-39.439	0.413	0.219
-383.975	-114.265	0.059	0.012
-382.960	167.799	-0.022	0.032
-381.946	-140.500	0.182	0.019
-380.931	114.478	0.047	0.058
-379.917	-200.000	-0.006	-0.044
-378.902	45.402	0.346	0.322
-377.888	42.486	-0.130	-0.119
-376.873	118.961	0.084	0.105
-375.858	709.671	-0.098	-0.262
-374.844	800.000	0.055	0.216
-373.829	44.201	-0.172	-0.159
-372.815	104.450	-0.153	-0.181
-371.800	134.281	0.090	-0.118
-370.785	-100.809	0.311	-0.077
-369.771	13.562	-0.134	0.105
-368.756	800.000	-0.163	-0.456
-367.742	-131.876	-0.111	0.015
-366.727	-135.026	0.126	0.015
-365.712	-33.821	0.150	0.083
-364.698	-92.924	0.346	-0.097
-363.683	259.440	-0.102	0.178
-362.669	33.705	0.271	0.238
-361.654	800.000	0.072	0.220
-360.639	-93.090	-0.075	-0.021
-359.625	0.174	0.354	-0.255
-358.610	-79.463	-0.220	-0.075
-357.596	-139.854	0.229	0.024
-356.581	800.000	0.077	0.303
-355.566	20.841	-0.292	-0.239
-354.552	50.731	0.031	0.030
-353.537	-12.032	0.219	0.145
-352.523	37.647	-0.114	0.102
-351.508	494.165	0.067	0.154
-350.493	-39.412	-0.169	-0.089
-349.479	679.974	-0.007	0.019
-348.464	-20.391	0.120	-0.074
-347.450	-200.000	-0.031	-0.323
-346.435	457.044	-0.077	-0.173
-345.420	-112.889	0.106	-0.021
-344.406	800.000	0.061	0.254
-343.391	640.889	0.081	0.208
-342.377	-54.730	0.198	-0.090
-341.362	15.291	0.356	0.282
-340.348	800.000	0.010	-0.042
-339.333	-52.459	0.331	-0.154
-338.318	574.345	0.125	-0.308
-337.304	800.000	-0.081	-0.237
-336.289	800.000	-0.092	-0.371
-335.275	800.000	-0.081	0.232
-334.260	-200.000	0.237	0.001
-333.245	800.000	-0.080	0.227
-332.231	125.137	0.064	0.082
-331.216	800.000	0.067	0.187
-330.202	94.947	0.026	-0.030
-329.187	-119.352	-0.207	-0.036
-328.172	-200.000	0.048	0.321
-327.158	800.000	0.051	-0.170
-326.143	-79.529	0.153	0.052
-325.129	-25.012	-0.218	-0.130
-324.114	-200.000	-0.022	-0.153
-323.099	-60.177	-0.150	-0.064
-322.085	-25.411	-0.474	0.282
-321.070	391.011	0.072	-0.151
-320.056	-72.717	-0.127	-0.047
-319.041	-83.927	0.185	-0.059
-318.026	-76.623	0.105	-0.037
-317.012	65.688	0.136	-0.138
-315.997	-200.000	0.004	0.179
-314.983	100.951	-0.105	0.124
-313.968	349.266	0.124	-0.247
-312.953	-109.964	-0.320	-0.067
-311.939	-52.970	0.187	0.087
-310.924	177.572	0.241	-0.354
-309.910	-26.212	0.173	-0.102
-308.895	800.000	0.052	0.224
-307.880	136.135	0.030	-0.040
-306.866	800.000	-0.047	0.132
-305.851	732.332	0.046	0.125
-304.837	-91.260	0.305	-0.088
-303.822	77.195	-0.205	-0.219
-302.807	216.051	0.119	-0.190
-301.793	-144.644	-0.406	0.038
-300.778	-155.649	-0.545	0.035
-299.764	25.098	0.076	-0.063
-298.749	800.000	0.039	0.127
-297.735	452.503	-0.109	-0.243
-296.720	110.283	0.170	-0.206
-295.705	-136.802	0.284	0.033
-294.691	44.299	0.217	-0.200
-293.676	800.000	0.061	0.257
-292.662	-93.055	-0.246	0.069
-291.647	-111.582	0.202	0.041
-290.632	-7.532	0.190	0.129
-289.618	-200.000	-0.058	-0.270
-288.603	800.000	0.038	-0.125
-287.589	-101.442	-0.336	-0.082
-286.574	-121.729	0.354	0.059
-285.559	-69.660	0.077	-0.029
-284.545	-130.096	0.193	-0.026
-283.530	-200.000	-0.019	0.315
-282.516	355.842	-0.160	0.321
-281.501	-115.386	0.194	-0.037
-280.486	-69.864	-0.136	0.052
-279.472	-200.000	0.081	0.379
-278.457	312.602	0.109	-0.207
-277.443	-179.469	-0.210	0.005
-276.428	-79.097	0.150	0.051
-275.413	-106.808	-0.312	-0.070
-274.399	-124.434	-0.190	-0.030
-273.384	-173.958	0.216	0.006
-272.370	-143.691	0.044	-0.004
-271.355	-51.066	-0.166	0.078
-270.340	-112.413	0.256	-0.052
-269.326	-200.000	-0.010	0.293
-268.311	-150.813	-0.044	0.003
-267.297	-53.349	-0.118	0.054
-266.282	44.764	0.061	-0.057
-265.267	90.399	0.196	0.221
-264.253	-148.779	0.347	0.028
-263.238	-200.000	0.303	-0.001
-262.224	800.000	-0.069	0.268
-261.209	800.000	-0.025	-0.071
-260.195	8.445	-0.046	-0.035
-259.180	87.795	0.067	0.075
-258.165	25.560	0.286	0.239
-257.151	116.697	-0.324	0.400
-256.136	71.365	0.093	-0.097
-255.122	-134.828	0.141	0.017
-254.107	-122.835	0.238	0.039
-253.092	89.891	0.164	-0.184
-252.078	111.353	0.073	-0.088
-251.063	319.488	0.083	-0.157
-250.049	-200.000	-0.007	-0.052
-249.034	32.318	-0.191	-0.166
-248.019	-75.149	-0.276	0.099
-247.005	314.160	0.100	-0.189
-245.990	101.674	0.186	0.218
-244.976	-200.000	0.003	-0.066
-243.961	690.448	-0.150	0.395
-242.946	-124.016	-0.144	-0.023
-241.932	800.000	0.046	-0.127
-240.917	-111.076	-0.248	0.051
-239.903	-124.533	0.086	0.013
-238.888	237.845	0.094	0.157
-237.873	184.157	-0.141	0.209
-236.859	-51.226	-0.188	0.089
-235.844	67.314	0.030	-0.031
-234.830	181.298	0.230	-0.339
-233.815	42.368	-0.092	0.084
-232.800	83.808	0.197	-0.216
-231.786	-200.000	0.006	0.429
-230.771	-158.292	-0.221	0.013
-229.757	148.873	0.222	0.301
-228.742	-49.339	-0.228	-0.109
-227.727	-200.000	-0.010	0.058
-226.713	800.000	-0.038	0.117
-225.698	-30.166	0.389	-0.222
-224.684	138.216	-0.112	-0.147
-223.669	-200.000	-0.060	-0.307
-222.655	-168.470	0.205	0.008
-221.640	33.933	-0.287	0.251
-220.625	-200.000	-0.038	0.467
-219.611	-98.667	-0.230	-0.059
-218.596	800.000	-0.037	-0.150
-217.582	800.000	0.052	-0.185
-216.567	71.746	-0.142	-0.148
-215.552	-113.814	0.291	0.057
-214.538	-200.000	-0.003	0.248
-213.523	132.658	-0.231	-0.299
-212.509	-35.450	0.220	0.120
-211.494	-200.000	0.058	-0.287
-210.479	-200.000	0.017	0.273
-209.465	-132.922	0.106	0.014
-208.450	188.634	0.076	-0.114
-207.436	-94.599	0.273	0.075
-206.421	-94.570	0.091	-0.025
-205.406	117.162	0.234	0.289
-204.392	-81.023	-0.246	0.082
-203.377	-162.196	-0.252	-0.013
-202.363	800.000	-0.093	-0.307
-201.348	204.382	0.237	0.368
-200.333	-200.000	0.025	-0.120
-199.319	474.567	0.121	0.274
-198.304	-87.456	-0.230	0.070
-197.290	-26.033	0.248	0.146
-196.275	45.073	0.081	-0.075
-195.260	25.399	-0.148	-0.124
-194.246	-41.218	-0.280	0.145
-193.231	800.000	0.117	-0.397
-192.217	325.728	-0.102	0.195
-191.202	109.609	-0.360	-0.432
-190.187	-51.926	-0.083	-0.039
-189.173	8.585	0.249	-0.188
-188.158	551.670	-0.124	0.299
-187.144	226.561	0.030	-0.049
-186.129	-200.000	0.075	-0.425
-185.114	110.720	0.150	-0.181
-184.100	-67.538	-0.329	-0.129
-183.085	-60.623	0.400	0.170
-182.071	-93.020	0.186	-0.052
-181.056	33.526	0.082	0.072
-180.042	181.784	-0.039	-0.057
-179.027	792.513	0.075	0.206
-178.012	64.329	-0.246	-0.248
-176.998	77.103	-0.142	0.151
-175.983	-200.000	-0.002	-0.137
-174.969	108.161	0.078	0.093
-173.954	-109.035	-0.413	-0.088
-172.939	800.000	-0.031	0.137
-171.925	625.661	-0.083	0.211
-170.910	-61.030	0.167	0.071
-169.896	270.779	0.088	-0.156
-168.881	-67.591	-0.337	-0.132
-167.866	101.098	0.196	0.228
-166.852	563.503	-0.187	-0.454
-165.837	-159.011	0.228	0.013
-164.823	-103.135	0.142	0.034
-163.808	800.000	-0.042	0.175
-162.793	-200.000	0.013	-0.091
-161.779	251.986	-0.048	-0.082
-160.764	-135.945	0.441	0.052
-159.750	58.461	-0.151	-0.148
-158.735	-51.865	0.260	0.121
-157.720	800.000	-0.084	0.248
-156.706	76.102	-0.159	-0.168
-155.691	799.099	0.024	-0.067
-154.677	10.987	0.330	0.253
-153.662	-60.131	-0.113	0.048
-152.647	51.821	0.115	0.110
-151.633	-194.246	-0.160	-0.001
-150.618	-200.000	-0.014	-0.075
-149.604	590.236	0.145	0.358
-148.589	-22.530	0.094	-0.057
-147.574	-115.703	0.522	-0.098
-146.560	-85.577	0.090	-0.028
-145.545	77.239	-0.091	-0.097
-144.531	800.000	0.049	-0.176
-143.516	-24.539	-0.333	-0.198
-142.502	-200.000	-0.043	0.239
-141.487	138.349	-0.120	-0.158
-140.472	-119.527	-0.484	0.084
-139.458	800.000	-0.065	-0.185
-138.443	-26.124	-0.247	0.145
-137.429	-200.000	0.018	-0.215
-136.414	416.809	-0.126	0.270
-135.399	-26.867	-0.112	0.066
-134.385	-111.350	0.120	0.025
-133.370	368.482	-0.071	-0.143
-132.356	-95.108	0.026	0.007
-131.341	-154.332	-0.304	-0.020
-130.326	190.803	0.240	0.361
-129.312	-13.740	-0.130	0.084
-128.297	-120.606	-0.289	0.049
-127.283	-31.556	-0.318	0.179
-126.268	20.551	0.266	-0.215
-125.253	-144.411	0.349	0.032
-124.239	-82.037	0.364	0.119
-123.224	80.554	0.204	-0.220
-122.210	-200.000	-0.007	-0.086
-121.195	-104.120	0.377	0.088
-120.180	-31.482	0.167	0.094
-119.166	48.663	0.106	-0.099
-118.151	800.000	-0.159	0.467
-117.137	-78.462	0.169	0.058
-116.122	800.000	-0.050	-0.163
-115.107	800.000	0.052	0.167
-114.093	-54.889	-0.179	0.081
-113.078	281.483	0.108	-0.193
-112.064	23.170	0.295	-0.242
-111.049	800.000	0.034	0.103
-110.034	-200.000	0.064	0.292
-109.020	800.000	0.080	0.237
-108.005	-200.000	0.079	-0.446
-106.991	48.919	0.211	0.198
-105.976	74.018	0.144	-0.150
-104.962	198.841	0.182	0.278
-103.947	30.211	0.136	0.116
-102.932	-16.952	0.179	0.113
-101.918	-200.000	-0.007	-0.137
-100.903	48.494	-0.134	-0.125
-99.889	800.000	0.067	0.186
-98.874	-200.000	0.017	0.489
-97.859	-23.973	0.427	0.255
-96.845	224.893	-0.182	0.294
-95.830	80.118	-0.040	0.043
-94.816	-200.000	-0.027	0.188
-93.801	-68.346	0.509	-0.197
-92.786	-15.465	0.296	-0.189
-91.772	-109.962	0.073	-0.015
-90.757	456.027	-0.136	-0.301
-89.743	-40.892	0.055	-0.028
-88.728	393.428	-0.199	0.413
-87.713	-107.028	-0.197	0.044
-86.699	800.000	0.024	0.078
-85.684	-110.304	0.125	0.026
-84.670	353.324	0.137	-0.272
-83.655	-112.389	0.347	0.069
-82.640	179.789	-0.159	-0.232
-81.626	58.306	0.155	-0.152
-80.611	-52.576	-0.080	0.037
-79.597	-200.000	-0.004	-0.130
-78.582	774.482	-0.043	-0.117
-77.567	90.000	0.194	-0.217
-76.553	90.401	0.416	-0.465
-75.538	-113.254	-0.063	-0.012
-74.524	-200.000	-0.009	0.261
-73.509	-180.511	-0.240	-0.005
-72.494	130.035	-0.177	-0.226
-71.480	-200.000	0.022	0.345
-70.465	800.000	-0.045	0.129
-69.451	-200.000	0.003	-0.102
-68.436	-65.455	-0.466	0.187
-67.422	-200.000	-0.011	0.067
-66.407	800.000	0.094	0.298
-65.392	781.677	-0.108	0.296
-64.378	77.337	-0.224	-0.238
-63.363	749.884	0.080	0.214
-62.349	73.893	0.140	0.147
-61.334	-8.304	-0.659	-0.442
-60.319	-200.000	-0.016	0.106
-59.305	-200.000	0.025	-0.536
-58.290	668.673	0.329	0.848
-57.276	725.816	0.696	1.852
-56.261	-200.000	74.505	522.941
-55.246	561.496	1298.052	3130.181
-54.232	146.004	2532.544	3387.454
-53.217	113.467	2347.384	2841.937
-52.203	52.152	1962.645	1865.475
-51.188	46.120	1749.617	1615.684
-50.173	43.089	1701.647	1548.091
-49.159	56.858	1734.938	1685.104
-48.144	63.071	1753.144	1750.700
-47.130	45.926	1716.942	1583.768
-46.115	42.558	1703.993	1545.894
-45.100	42.563	1698.604	1540.988
-44.086	42.529	1695.674	1538.002
-43.071	42.460	1693.842	1535.754
-42.057	42.453	1690.961	1533.025
-41.042	42.426	1688.587	1530.608
-40.027	42.385	1687.416	1529.173
-39.013	42.443	1684.866	1527.247
-37.998	42.343	1683.722	1525.387
-36.984	42.429	1681.605	1524.058
-35.969	42.554	1680.754	1524.178
-34.954	42.641	1679.322	1523.477
-33.940	42.549	1677.154	1520.753
-32.925	42.625	1675.228	1519.524
-31.911	42.598	1673.500	1517.694
-30.896	42.634	1671.260	1515.872
-29.881	42.583	1669.475	1513.807
-28.867	42.552	1668.325	1512.468
-27.852	42.490	1667.141	1510.868
-26.838	42.545	1665.489	1509.729
-25.823	42.552	1663.775	1508.164
-24.809	42.519	1662.710	1506.890
-23.794	42.567	1661.082	1505.715
-22.779	42.571	1659.919	1504.631
-21.765	42.601	1657.776	1502.852
-20.750	42.638	1655.776	1501.259
-19.736	42.585	1655.063	1500.158
-18.721	42.592	1653.334	1498.582
-17.706	42.593	1651.654	1497.012
-16.692	42.616	1649.762	1495.406
-15.677	42.593	1648.435	1493.974
-14.663	42.607	1647.135	1492.840
-13.648	42.532	1645.625	1490.854
-12.633	42.500	1644.281	1489.342
-11.619	42.619	1642.459	1488.512
-10.604	42.648	1640.837	1487.194
-9.590	42.572	1639.823	1485.656
-8.575	42.620	1638.436	1484.698
-7.560	42.671	1637.071	1483.775
-6.546	42.631	1635.771	1482.248
-5.531	42.566	1635.040	1481.042
-4.517	42.572	1633.718	1479.835
-3.502	42.624	1632.589	1479.131
-2.487	42.628	1631.677	1478.276
-1.473	42.738	1620.431	1468.838
-0.458	40.560	1601.145	1435.553
0.556	35.720	1599.858	1400.953
1.571	32.926	1623.794	1401.089
2.586	32.112	1637.826	1406.974
3.600	28.188	1583.933	1332.057
4.615	15.217	1462.156	1141.753
5.629	3.406	1385.379	1005.063
6.644	1.110	1374.485	982.206
7.659	0.902	1372.828	979.589
8.673	0.833	1371.966	978.443
9.688	0.825	1370.228	977.060
10.702	0.460	1367.779	972.878
11.717	4.527	1376.088	1005.047
12.731	15.948	1398.341	1095.908
13.746	23.801	1410.590	1156.740
14.761	24.486	1410.991	1161.429
15.775	24.421	1410.654	1160.624
16.790	24.546	1409.765	1160.606
17.804	24.538	1409.029	1159.843
18.819	24.729	1409.066	1161.009
19.834	24.884	1408.219	1161.219
20.848	24.777	1407.899	1160.158
21.863	24.806	1406.615	1159.181
22.877	24.830	1405.577	1158.383
23.892	24.830	1404.698	1157.550
24.907	24.872	1403.806	1156.984
25.921	24.869	1403.651	1156.739
26.936	24.943	1401.756	1155.553
27.950	24.824	1401.118	1154.154
28.965	24.855	1399.633	1153.029
29.980	24.844	1398.199	1151.677
30.994	24.857	1396.920	1150.601
32.009	24.864	1395.879	1149.691
33.023	24.852	1394.774	1148.598
34.038	24.750	1394.157	1147.334
35.053	24.860	1392.765	1146.794
36.067	24.970	1391.189	1146.099
37.082	24.834	1390.517	1144.571
38.096	24.847	1389.811	1143.975
39.111	24.792	1388.716	1142.619
40.126	24.882	1387.964	1142.477
41.140	24.743	1388.097	1141.597
42.155	24.778	1387.343	1141.102
43.169	24.742	1387.586	1140.966
44.184	24.898	1387.063	1141.432
45.199	24.808	1386.766	1140.513
46.213	24.831	1386.437	1140.284
47.228	24.965	1385.026	1139.876
48.242	24.855	1383.717	1138.001
49.257	24.855	1382.259	1136.700
50.271	24.954	1380.868	1136.086
51.286	24.820	1379.800	1134.258
52.301	24.841	1378.574	1133.279
53.315	24.746	1377.736	1131.893
54.330	24.773	1377.217	1131.535
55.344	24.770	1375.712	1130.183
56.359	24.795	1374.360	1129.130
57.374	24.849	1374.127	1129.174
58.388	24.869	1373.053	1128.323
59.403	24.789	1372.785	1127.499
60.417	24.772	1372.152	1126.769
61.432	24.874	1371.174	1126.510
62.447	24.783	1370.316	1125.129
63.461	24.766	1369.179	1123.989
64.476	24.902	1368.068	1123.836
65.490	24.873	1367.124	1122.777
66.505	24.877	1365.695	1121.527
67.520	24.799	1364.403	1119.882
68.534	24.866	1363.523	1119.477
69.549	24.866	1362.687	1118.693
70.563	24.823	1361.925	1117.702
71.578	24.840	1360.483	1116.521
72.593	24.875	1359.847	1116.121
73.607	24.830	1359.110	1115.136
74.622	24.858	1358.145	1114.420
75.636	24.929	1357.633	1114.346
76.651	24.894	1356.612	1113.187
77.666	24.860	1356.285	1112.612
78.680	24.869	1355.521	1111.943
79.695	24.824	1355.147	1111.255
80.709	24.740	1354.143	1109.817
81.724	24.783	1353.472	1109.433
82.739	24.852	1352.436	1108.911
83.753	24.885	1351.412	1108.178
84.768	24.822	1350.320	1106.794
85.782	24.953	1348.810	1106.272
86.797	24.928	1347.863	1105.243
87.812	24.929	1346.738	1104.225
88.826	24.826	1346.054	1102.935
89.841	24.902	1344.979	1102.426
90.855	24.916	1343.667	1101.336
91.870	24.857	1343.286	1100.562
92.884	24.858	1342.405	1099.751
93.899	24.968	1341.365	1099.477
94.914	24.932	1340.750	1098.657
95.928	24.817	1340.351	1097.523
96.943	24.917	1339.222	1097.119
97.957	24.954	1338.477	1096.636
98.972	24.953	1337.675	1095.877
99.987	24.917	1336.701	1094.763
101.001	24.822	1336.189	1093.663
102.016	24.913	1334.939	1093.101
103.030	24.839	1334.026	1091.804
104.045	24.957	1332.907	1091.510
105.060	24.948	1331.905	1090.541
106.074	25.013	1330.800	1089.931
107.089	24.782	1330.295	1088.015
108.103	24.930	1328.704	1087.519
109.118	24.986	1327.685	1086.929
110.133	24.869	1326.925	1085.500
111.147	24.933	1325.567	1084.684
112.162	24.978	1324.027	1083.599
113.176	25.011	1323.141	1082.974
114.191	25.035	1322.507	1082.504
115.206	24.918	1322.071	1081.350
116.220	24.989	1320.660	1080.525
117.235	25.008	1319.449	1079.553
118.249	24.930	1318.561	1078.262
119.264	24.954	1317.933	1077.799
120.279	24.974	1316.657	1076.782
121.293	24.964	1316.375	1076.394
122.308	24.916	1315.721	1075.475
123.322	25.005	1314.716	1075.093
124.337	25.031	1313.978	1074.548
125.352	25.076	1313.118	1074.024
126.366	25.036	1312.174	1072.917
127.381	25.018	1311.323	1072.015
128.395	25.024	1309.859	1070.759
129.410	25.051	1309.781	1070.764
130.424	25.042	1308.846	1069.852
131.439	25.022	1307.835	1068.810
132.454	25.011	1307.508	1068.385
133.468	24.965	1306.989	1067.593
134.483	25.016	1305.920	1066.928
135.497	25.113	1304.598	1066.329
136.512	25.080	1303.884	1065.456
137.527	25.067	1302.612	1064.245
138.541	25.027	1301.416	1062.933
139.556	25.072	1299.705	1061.712
140.570	25.082	1299.060	1061.150
141.585	25.093	1298.292	1060.491
142.600	25.127	1296.912	1059.475
143.614	25.053	1296.208	1058.366
144.629	25.088	1295.446	1057.858
145.643	24.968	1294.521	1056.301
146.658	24.977	1293.450	1055.387
147.673	25.011	1292.308	1054.561
148.687	24.927	1291.774	1053.535
149.702	24.864	1290.469	1052.009
150.716	24.888	1289.116	1050.954
151.731	24.948	1288.056	1050.347
152.746	25.000	1286.733	1049.482
153.760	24.962	1285.802	1048.410
154.775	25.006	1284.705	1047.679
155.789	24.953	1283.859	1046.587
156.804	24.984	1283.140	1046.087
157.819	24.913	1282.222	1044.830
158.833	25.031	1281.307	1044.681
159.848	25.082	1280.374	1044.126
160.862	24.986	1280.173	1043.312
161.877	25.046	1279.063	1042.664
162.892	24.995	1278.355	1041.697
163.906	25.050	1277.581	1041.292
164.921	25.044	1276.560	1040.334
165.935	25.168	1275.796	1040.337
166.950	25.109	1275.333	1039.529
167.964	25.122	1274.345	1038.704
168.979	25.225	1273.808	1038.773
169.994	25.062	1273.592	1037.559
171.008	25.129	1272.796	1037.207
172.023	25.168	1271.966	1036.662
173.037	25.193	1271.017	1035.946
174.052	25.135	1270.722	1035.280
175.067	25.093	1270.210	1034.525
176.081	25.126	1269.189	1033.794
177.096	25.207	1268.104	1033.282
178.110	25.177	1267.250	1032.323
179.125	25.158	1266.220	1031.288
180.140	25.121	1265.381	1030.299
181.154	25.058	1264.249	1028.924
182.169	25.140	1263.185	1028.435
183.183	25.201	1261.959	1027.697
184.198	25.175	1261.255	1026.882
185.213	25.191	1260.067	1025.917
186.227	25.268	1259.099	1025.480
187.242	25.231	1258.513	1024.702
188.256	25.207	1257.331	1023.507
189.271	25.160	1256.678	1022.622
190.286	25.176	1256.024	1022.091
191.300	25.186	1255.368	1021.524
192.315	25.180	1254.930	1021.039
193.329	25.201	1254.289	1020.550
194.344	25.169	1254.195	1020.197
195.359	25.288	1253.672	1020.362
196.373	25.151	1253.543	1019.384
197.388	25.125	1252.529	1018.320
198.402	25.191	1252.030	1018.203
199.417	25.147	1252.093	1017.912
200.432	25.142	1251.219	1017.085
201.446	25.208	1250.365	1016.673
202.461	25.202	1249.776	1016.072
203.475	25.210	1248.872	1015.292
204.490	25.153	1247.872	1014.066
205.504	25.265	1246.790	1013.730
206.519	25.288	1246.006	1013.131
207.534	25.288	1244.991	1012.216
208.548	25.372	1243.868	1011.690
209.563	25.207	1243.817	1010.626
210.577	25.255	1242.751	1009.943
211.592	25.227	1241.925	1009.023
212.607	25.210	1241.316	1008.343
213.621	25.372	1240.297	1008.339
214.636	25.349	1239.583	1007.537
215.650	25.294	1238.861	1006.554
216.665	25.395	1237.703	1006.087
217.680	25.428	1236.669	1005.345
218.694	25.452	1235.735	1004.630
219.709	25.298	1235.582	1003.556
220.723	25.475	1234.043	1003.208
221.738	25.346	1233.733	1002.144
222.753	25.253	1233.075	1001.007
223.767	25.316	1232.401	1000.720
224.782	25.542	1231.843	1001.433
225.796	25.403	1231.755	1000.502
226.811	25.465	1230.914	1000.077
227.826	25.511	1229.530	999.118
228.840	25.390	1229.369	998.228
229.855	25.420	1228.748	997.803
230.869	25.375	1228.310	997.105
231.884	25.420	1227.254	996.410
232.899	25.465	1226.584	996.026
233.913	25.464	1226.265	995.675
234.928	25.479	1225.656	995.175
235.942	25.527	1224.918	994.753
236.957	25.552	1224.162	994.192
237.972	25.477	1223.423	993.087
238.986	25.426	1222.963	992.346
240.001	25.479	1222.397	992.088
241.015	25.512	1221.614	991.548
242.030	25.608	1220.713	991.257
243.045	25.581	1220.009	990.454
244.059	25.663	1218.874	989.891
245.074	25.642	1218.078	989.042
246.088	25.577	1217.740	988.324
247.103	25.626	1216.617	987.596
248.117	25.598	1215.934	986.800
249.132	25.645	1214.999	986.213
250.147	25.725	1214.534	986.185
251.161	25.579	1213.863	984.752
252.176	25.709	1212.948	984.634
253.190	25.655	1212.427	983.831
254.205	25.622	1211.990	983.206
255.220	25.699	1211.391	983.057
256.234	25.739	1210.691	982.617
257.249	25.711	1209.790	981.646
258.263	25.735	1209.090	981.122
259.278	25.638	1208.790	980.267
260.293	25.732	1208.212	980.222
261.307	25.783	1207.716	980.012
262.322	25.858	1206.719	979.521
263.336	25.766	1206.312	978.605
264.351	25.704	1205.971	977.907
265.366	25.727	1205.423	977.500
266.380	25.741	1204.856	977.029
267.395	25.692	1204.061	976.033
268.409	25.759	1203.126	975.547
269.424	25.711	1203.147	975.219
270.439	25.735	1202.439	974.690
271.453	25.863	1201.475	974.518
272.468	25.762	1200.551	973.135
273.482	25.782	1199.828	972.572
274.497	25.752	1199.929	972.401
275.512	25.938	1198.966	972.542
276.526	25.766	1198.225	970.925
277.541	25.776	1197.737	970.500
278.555	25.908	1197.078	970.588
279.570	25.876	1196.308	969.706
280.585	25.782	1195.681	968.609
281.599	25.915	1194.420	968.214
282.614	25.818	1193.818	967.122
283.628	25.765	1192.936	966.034
284.643	25.857	1191.961	965.655
285.657	25.841	1191.226	964.889
286.672	25.878	1190.040	964.041
287.687	25.916	1189.679	963.862
288.701	25.993	1188.755	963.443
289.716	26.023	1188.042	962.939
290.730	26.027	1187.267	962.245
291.745	25.998	1186.894	961.706
292.760	26.004	1186.386	961.238
293.774	25.993	1186.139	960.894
294.789	26.009	1185.340	960.251
295.803	25.966	1184.810	959.505
296.818	26.057	1184.082	959.315
297.833	26.200	1182.951	959.076
298.847	26.085	1182.485	958.000
299.862	26.055	1181.503	956.961
300.876	25.997	1181.173	956.302
301.891	26.118	1180.603	956.395
302.906	26.197	1179.950	956.202
303.920	26.122	1179.061	955.002
304.935	26.132	1178.523	954.531
305.949	26.057	1178.126	953.731
306.964	26.193	1177.344	953.732
307.979	26.065	1177.011	952.699
308.993	26.103	1175.971	951.973
310.008	26.205	1175.074	951.705
311.022	26.207	1174.701	951.329
312.037	26.222	1173.529	950.370
313.052	26.211	1172.745	949.598
314.066	26.087	1171.910	948.183
315.081	26.175	1171.463	948.201
316.095	26.159	1170.787	947.483
317.110	26.070	1170.476	946.683
318.125	26.205	1169.493	946.513
319.139	26.177	1169.027	945.902
320.154	26.166	1168.195	945.092
321.168	26.338	1167.488	945.333
322.183	26.233	1167.256	944.515
323.197	26.300	1166.292	944.001
324.212	26.191	1166.070	943.167
325.227	26.226	1165.241	942.597
326.241	26.376	1164.989	943.089
327.256	26.476	1164.004	942.731
328.270	26.347	1162.836	941.032
329.285	26.456	1162.429	941.184
330.300	26.279	1161.582	939.494
331.314	26.261	1161.151	938.969
332.329	26.365	1159.936	938.444
333.343	26.368	1159.303	937.865
334.358	26.505	1158.503	937.842
335.373	26.526	1157.747	937.259
336.387	26.479	1156.876	936.228
337.402	26.457	1156.475	935.706
338.416	26.401	1156.067	935.001
339.431	26.405	1155.230	934.264
340.446	26.528	1154.572	934.284
341.460	26.590	1153.398	933.574
342.475	26.524	1153.048	932.865
343.489	26.600	1152.197	932.487
344.504	26.425	1151.055	930.578
345.519	26.600	1150.235	930.735
346.533	26.529	1149.937	930.045
347.548	26.536	1149.061	929.291
348.562	26.514	1148.173	928.378
349.577	26.587	1147.655	928.251
350.592	26.610	1146.495	927.347
351.606	26.527	1146.442	926.796
352.621	26.499	1146.135	926.323
353.635	26.706	1144.881	926.286
354.650	26.699	1144.126	925.560
355.665	26.709	1143.380	924.924
356.679	26.654	1143.164	924.388
357.694	26.638	1142.898	924.011
358.708	26.743	1141.581	923.397
359.723	26.660	1141.228	922.607
360.738	26.683	1140.331	921.915
361.752	26.719	1140.119	921.846
362.767	26.664	1139.563	921.038
363.781	26.742	1139.165	921.027
364.796	26.786	1138.202	920.395
365.810	26.746	1137.568	919.598
366.825	26.785	1137.547	919.696
367.840	26.763	1136.914	918.993
368.854	26.822	1136.146	918.587
369.869	26.865	1135.313	918.049
370.883	26.876	1134.266	917.177
371.898	26.838	1133.881	916.595
372.913	26.827	1133.394	916.062
373.927	26.788	1132.854	915.347
374.942	26.928	1132.060	915.334
375.956	26.791	1132.094	914.586
376.971	26.857	1131.457	914.324
377.986	26.974	1130.840	914.337
379.000	27.039	1130.280	914.130
380.015	26.891	1129.883	912.979
381.029	26.957	1128.796	912.354
382.044	26.894	1128.339	911.586
383.059	26.964	1127.673	911.323
384.073	27.065	1126.470	910.775
385.088	27.015	1125.867	909.957
386.102	27.009	1124.995	909.138
387.117	26.903	1124.765	908.343
388.132	26.995	1123.172	907.436
389.146	26.981	1122.674	906.884
390.161	27.020	1121.907	906.379
391.175	27.078	1121.519	906.273
392.190	26.927	1121.362	905.315
393.205	27.101	1120.043	905.038
394.219	27.140	1119.133	904.414
395.234	27.121	1118.535	903.759
396.248	27.187	1117.668	903.304
397.263	27.155	1117.099	902.606
398.278	27.110	1116.324	901.676
399.292	27.217	1115.783	901.691
400.307	27.292	1114.912	901.280
401.321	27.091	1114.599	899.950
402.336	27.255	1113.661	899.925
403.350	27.186	1113.172	899.107
404.365	27.199	1112.653	898.672
405.380	27.216	1112.008	898.155
406.394	27.316	1111.145	897.875
407.409	27.282	1110.364	896.996
408.423	27.386	1109.380	896.636
409.438	27.297	1108.761	895.614
410.453	27.315	1108.286	895.240
411.467	27.427	1107.330	894.941
412.482	27.317	1106.783	893.880
413.496	27.375	1106.344	893.733
414.511	27.300	1105.665	892.736
415.526	27.314	1105.285	892.417
416.540	27.349	1104.738	892.070
417.555	27.293	1104.217	891.293
418.569	27.322	1103.960	891.153
419.584	27.321	1103.556	890.740
420.599	27.541	1102.684	891.033
421.613	81.761	1288.286	1339.392
422.628	76.609	1315.342	1339.526
