DTS Sentinel unit serial number:	SN413079Multiplexer serial number:	ORYXHardware model number:	OX4-SRSoftware version number:	ORYX F/W v4.00 Oryx Data Collector v3.7.2.0data status	okinstallation	princeton_trtdifferential loss correction	single-endedforward channel	channel 2reverse channel	N/Adate	2019/09/11time	15:17:11forward acquisition time	60.00reverse acquisition time	0.00gamma	496.2192k internal	0.2289k external	0.2289temperature offset calibration	1.0015default loss term (dB/km)	0.3790temperature slope calibration	1.0000multiplexer offset coefficient	1.0000multiplexer slope coefficient	1.0000fibre end	0.00T internal ref (°C)	42.94T ext. ref 1 (°C)	0.99T ext. ref 2 (°C)	35.88length (m)	temperature (°C)	Stokes	anti-Stokes-747.200	-84.178	0.179	-0.058
-746.185	-25.397	0.040	-0.024
-745.171	-200.000	-0.001	0.011
-744.156	800.000	-0.120	0.504
-743.142	-200.000	0.022	0.115
-742.127	55.994	-0.154	0.153
-741.112	-200.000	-0.031	-0.140
-740.098	-101.682	-0.129	-0.032
-739.083	197.405	0.234	0.366
-738.069	10.246	0.286	-0.223
-737.054	-59.607	0.169	-0.074
-736.039	63.792	-0.277	0.285
-735.025	-68.686	0.350	-0.139
-734.010	-141.140	-0.290	-0.030
-732.996	-153.019	-0.212	0.015
-731.981	-25.826	-0.193	-0.116
-730.966	22.330	0.211	0.176
-729.952	-106.279	0.281	-0.064
-728.937	20.835	0.060	-0.050
-727.923	-45.279	-0.079	0.040
-726.908	169.819	-0.101	0.148
-725.894	-178.348	-0.348	-0.008
-724.879	-200.000	0.004	-0.041
-723.864	-200.000	0.010	-0.102
-722.850	-95.214	-0.133	0.037
-721.835	-109.664	0.167	0.036
-720.821	-200.000	-0.025	0.165
-719.806	-200.000	-0.009	0.161
-718.791	340.977	0.073	-0.145
-717.777	-27.691	0.199	-0.119
-716.762	52.534	0.148	-0.144
-715.748	-24.894	0.080	-0.049
-714.733	223.005	-0.072	0.119
-713.718	101.360	0.055	-0.066
-712.704	-200.000	0.010	0.112
-711.689	-104.792	0.104	0.025
-710.675	-113.899	-0.356	0.071
-709.660	800.000	-0.091	-0.359
-708.645	23.924	-0.193	-0.163
-707.631	-32.660	0.200	0.114
-706.616	-200.000	0.020	0.104
-705.602	-83.961	-0.274	-0.089
-704.587	-92.111	-0.242	0.070
-703.572	162.045	0.155	0.223
-702.558	214.960	0.101	0.163
-701.543	-74.164	-0.076	0.028
-700.529	-200.000	-0.021	-0.105
-699.514	53.157	0.086	0.084
-698.499	800.000	0.107	0.352
-697.485	553.734	0.093	0.228
-696.470	-200.000	-0.017	0.190
-695.456	-150.113	-0.062	-0.005
-694.441	-200.000	0.012	-0.242
-693.426	-105.099	-0.361	0.084
-692.412	-16.182	-0.415	-0.269
-691.397	401.977	-0.116	-0.250
-690.383	219.643	0.054	0.088
-689.368	44.949	0.083	0.078
-688.354	378.523	-0.182	0.380
-687.339	-139.348	-0.183	0.020
-686.324	-53.743	0.350	-0.163
-685.310	-16.736	0.122	0.079
-684.295	-200.000	-0.001	-0.253
-683.281	-107.058	-0.110	-0.025
-682.266	25.520	-0.055	0.047
-681.251	-18.844	0.269	0.171
-680.237	-11.535	-0.356	-0.239
-679.222	-100.329	-0.393	-0.100
-678.208	-80.885	-0.210	-0.071
-677.193	71.184	0.097	0.103
-676.178	123.617	-0.192	0.247
-675.164	4.137	0.120	-0.090
-674.149	159.078	-0.069	0.099
-673.135	-200.000	0.047	0.211
-672.120	-17.730	-0.124	-0.080
-671.105	-137.345	-0.238	-0.028
-670.091	800.000	0.029	0.084
-669.076	800.000	0.057	0.244
-668.062	-68.201	0.240	-0.096
-667.047	800.000	0.085	-0.378
-666.032	800.000	-0.087	-0.280
-665.018	-155.287	-0.201	-0.013
-664.003	188.102	0.080	-0.121
-662.989	247.483	0.090	-0.155
-661.974	-87.222	-0.112	0.035
-660.959	-26.589	-0.172	-0.103
-659.945	-43.150	-0.133	0.069
-658.930	347.234	-0.090	-0.180
-657.916	-200.000	0.007	-0.033
-656.901	35.030	-0.277	-0.248
-655.886	-31.726	-0.084	-0.048
-654.872	63.130	-0.067	-0.069
-653.857	-57.316	-0.456	-0.205
-652.843	-200.000	0.005	-0.136
-651.828	11.722	0.017	-0.013
-650.814	-80.132	-0.228	0.078
-649.799	-73.535	0.130	-0.048
-648.784	-200.000	0.084	-0.415
-647.770	-53.069	0.098	-0.046
-646.755	-44.641	-0.241	-0.123
-645.741	304.583	0.086	-0.164
-644.726	-161.544	-0.404	-0.021
-643.711	199.012	-0.141	0.221
-642.697	-129.518	-0.205	0.029
-641.682	22.864	0.248	0.208
-640.668	132.632	0.142	-0.188
-639.653	-114.352	-0.021	0.004
-638.638	276.339	-0.085	0.154
-637.624	-162.363	0.282	-0.014
-636.609	137.738	0.233	-0.311
-635.595	-131.991	-0.247	0.033
-634.580	-200.000	-0.001	0.163
-633.565	-146.871	-0.156	-0.014
-632.551	-8.891	-0.219	-0.150
-631.536	-76.036	0.408	-0.147
-630.522	196.604	-0.174	-0.270
-629.507	800.000	-0.024	0.095
-628.492	-200.000	0.065	0.319
-627.478	268.000	-0.132	0.236
-626.463	-47.307	0.365	0.181
-625.449	800.000	0.080	-0.263
-624.434	-200.000	0.018	0.095
-623.419	-25.026	-0.357	0.216
-622.405	-200.000	0.050	-0.237
-621.390	0.023	0.206	-0.149
-620.376	6.072	0.344	-0.260
-619.361	-200.000	-0.013	0.218
-618.346	284.692	0.132	-0.242
-617.332	800.000	0.060	-0.204
-616.317	221.532	0.139	-0.228
-615.303	-86.393	-0.023	0.007
-614.288	100.993	-0.187	-0.221
-613.273	-200.000	0.018	-0.105
-612.259	33.963	0.224	-0.199
-611.244	-64.635	-0.232	-0.096
-610.230	-19.921	0.245	0.154
-609.215	3.828	0.178	0.133
-608.201	74.623	-0.232	-0.249
-607.186	-64.873	-0.225	0.093
-606.171	-98.767	0.205	0.053
-605.157	212.824	0.021	0.033
-604.142	21.615	-0.159	-0.132
-603.128	-4.943	-0.040	0.028
-602.113	-200.000	0.057	0.260
-601.098	-109.961	-0.502	0.107
-600.084	-49.223	-0.115	-0.056
-599.069	-70.960	-0.088	-0.034
-598.055	-62.008	0.129	0.055
-597.040	199.673	-0.136	0.213
-596.025	-200.000	-0.007	0.188
-595.011	124.780	0.370	0.474
-593.996	107.699	0.089	-0.108
-592.982	-144.381	0.162	-0.015
-591.967	278.033	0.128	0.232
-590.952	147.666	-0.070	0.096
-589.938	116.351	0.022	-0.027
-588.923	-10.345	0.227	-0.153
-587.909	-151.870	-0.137	0.010
-586.894	17.023	-0.356	0.287
-585.879	-76.594	-0.188	-0.067
-584.865	-66.315	-0.153	0.062
-583.850	99.739	0.110	0.130
-582.836	800.000	-0.046	0.149
-581.821	275.644	-0.166	-0.301
-580.806	364.628	0.083	-0.171
-579.792	-59.811	-0.145	-0.063
-578.777	-200.000	-0.007	-0.060
-577.763	-48.246	-0.272	0.133
-576.748	236.631	-0.126	-0.213
-575.733	-200.000	-0.006	0.111
-574.719	800.000	-0.031	0.099
-573.704	-14.460	-0.133	0.087
-572.690	-139.818	-0.213	0.023
-571.675	724.314	0.059	0.159
-570.661	239.103	-0.078	-0.131
-569.646	-79.956	-0.057	-0.020
-568.631	6.327	0.133	-0.100
-567.617	227.442	-0.119	-0.196
-566.602	230.868	0.012	-0.020
-565.588	298.646	-0.126	-0.235
-564.573	284.063	0.071	-0.130
-563.558	155.179	0.066	-0.093
-562.544	-170.667	-0.192	-0.007
-561.529	101.306	-0.066	0.078
-560.515	327.849	0.111	0.217
-559.500	-72.144	-0.222	0.084
-558.485	-200.000	0.018	0.263
-557.471	-68.424	0.105	0.041
-556.456	-137.291	0.121	-0.014
-555.442	151.767	-0.143	-0.199
-554.427	72.940	0.285	-0.303
-553.412	800.000	0.056	-0.214
-552.398	-79.046	0.151	-0.052
-551.383	-123.943	-0.237	0.038
-550.369	100.663	0.081	-0.096
-549.354	-149.852	0.136	-0.011
-548.339	-200.000	-0.041	0.270
-547.325	317.719	0.151	-0.290
-546.310	-200.000	0.007	0.049
-545.296	691.454	0.051	-0.136
-544.281	258.896	0.010	-0.018
-543.266	-60.747	0.203	0.088
-542.252	800.000	-0.032	-0.132
-541.237	83.888	0.084	-0.094
-540.223	275.314	-0.083	-0.149
-539.208	25.269	0.322	-0.272
-538.193	-73.900	-0.096	0.035
-537.179	54.631	-0.126	0.124
-536.164	97.967	-0.118	0.138
-535.150	-59.964	-0.199	-0.087
-534.135	155.531	0.181	-0.253
-533.121	116.010	0.069	0.086
-532.106	-54.341	-0.057	-0.026
-531.091	204.069	-0.185	-0.292
-530.077	800.000	-0.048	-0.210
-529.062	-138.480	0.305	-0.034
-528.048	420.037	0.135	0.293
-527.033	-200.000	-0.015	0.238
-526.018	-76.217	-0.218	-0.078
-525.004	-101.396	-0.175	-0.043
-523.989	152.891	0.069	0.096
-522.975	-100.217	-0.210	0.053
-521.960	273.100	-0.086	0.155
-520.945	67.781	0.200	0.208
-519.931	105.875	0.167	0.201
-518.916	-200.000	0.032	-0.164
-517.902	251.953	-0.153	-0.264
-516.887	-17.998	0.253	0.161
-515.872	800.000	0.125	-0.372
-514.858	800.000	0.073	-0.291
-513.843	627.549	-0.131	-0.336
-512.829	-45.562	-0.368	-0.185
-511.814	42.196	-0.026	-0.024
-510.799	-166.235	-0.032	-0.001
-509.785	-26.036	0.267	0.159
-508.770	800.000	0.056	0.166
-507.756	255.058	-0.059	0.103
-506.741	-104.623	-0.007	0.002
-505.726	-176.172	0.098	-0.003
-504.712	626.381	0.074	-0.190
-503.697	-65.549	0.043	0.018
-502.683	-91.911	-0.410	-0.118
-501.668	-113.999	0.171	0.034
-500.653	67.448	-0.230	-0.239
-499.639	177.309	0.069	-0.102
-498.624	800.000	0.034	0.146
-497.610	30.378	0.291	0.252
-496.595	800.000	0.095	0.336
-495.581	209.919	0.155	0.247
-494.566	-133.576	-0.299	-0.038
-493.551	-108.161	0.152	-0.033
-492.537	-12.933	0.159	-0.105
-491.522	88.415	0.191	0.216
-490.508	800.000	-0.040	-0.173
-489.493	97.727	0.056	-0.065
-488.478	-8.460	0.308	-0.210
-487.464	-53.647	0.377	-0.175
-486.449	-46.895	0.097	-0.048
-485.435	-57.586	-0.074	-0.033
-484.420	800.000	-0.092	0.407
-483.405	-200.000	0.005	0.166
-482.391	102.930	0.206	0.245
-481.376	-143.944	0.205	0.020
-480.362	337.427	0.052	-0.103
-479.347	169.792	0.085	-0.123
-478.332	-111.527	-0.111	0.023
-477.318	800.000	-0.074	-0.220
-476.303	380.807	-0.080	0.166
-475.289	-200.000	0.044	0.237
-474.274	-149.001	-0.129	0.010
-473.259	-55.937	0.142	0.064
-472.245	-89.187	0.455	0.136
-471.230	460.615	0.050	0.113
-470.216	-14.586	-0.127	0.083
-469.201	-25.001	-0.213	0.128
-468.186	203.786	-0.105	0.165
-467.172	141.808	-0.020	-0.026
-466.157	-21.006	0.186	0.115
-465.143	-200.000	0.016	0.215
-464.128	234.262	-0.166	-0.277
-463.113	800.000	-0.058	-0.165
-462.099	-200.000	0.063	-0.288
-461.084	800.000	-0.117	-0.381
-460.070	800.000	0.114	-0.321
-459.055	-200.000	0.073	-0.337
-458.040	-200.000	-0.015	-0.099
-457.026	-200.000	-0.009	-0.372
-456.011	-90.094	0.163	0.048
-454.997	-200.000	-0.001	0.083
-453.982	124.252	0.129	0.165
-452.968	-190.128	0.176	0.002
-451.953	-128.558	0.195	0.028
-450.938	-131.344	-0.226	-0.030
-449.924	18.170	0.075	0.060
-448.909	-200.000	0.016	0.230
-447.895	84.485	-0.123	0.137
-446.880	800.000	0.143	-0.407
-445.865	-115.803	-0.497	0.094
-444.851	-200.000	0.004	0.192
-443.836	800.000	0.096	-0.282
-442.822	-200.000	-0.010	-0.060
-441.807	414.338	-0.185	-0.400
-440.792	-200.000	-0.066	0.298
-439.778	800.000	-0.037	-0.112
-438.763	471.378	0.064	-0.146
-437.749	-20.123	-0.160	0.100
-436.734	-144.129	0.146	-0.014
-435.719	-131.128	-0.136	0.018
-434.705	50.603	-0.194	-0.186
-433.690	225.411	0.193	-0.316
-432.676	-112.600	0.219	0.044
-431.661	211.523	0.171	0.273
-430.646	129.048	-0.212	0.274
-429.632	800.000	0.060	-0.238
-428.617	800.000	-0.026	-0.076
-427.603	-200.000	-0.035	0.220
-426.588	800.000	0.033	0.117
-425.573	-16.446	0.119	0.076
-424.559	252.418	-0.066	-0.114
-423.544	-39.689	-0.048	0.025
-422.530	-142.276	-0.295	0.030
-421.515	-200.000	-0.062	0.341
-420.500	505.747	-0.031	-0.073
-419.486	-45.546	0.232	-0.116
-418.471	-200.000	-0.026	0.115
-417.457	-78.485	0.239	0.083
-416.442	544.891	-0.224	-0.541
-415.428	-200.000	-0.120	0.610
-414.413	79.939	-0.141	-0.154
-413.398	-200.000	0.044	-0.268
-412.384	273.501	-0.187	-0.334
-411.369	-200.000	-0.009	0.070
-410.355	-121.590	0.330	0.055
-409.340	118.902	0.111	0.139
-408.325	-200.000	-0.039	-0.210
-407.311	70.621	-0.196	-0.205
-406.296	-15.828	0.168	0.108
-405.282	-10.314	-0.062	-0.042
-404.267	-67.569	-0.215	0.085
-403.252	148.472	-0.133	-0.182
-402.238	-200.000	0.016	0.372
-401.223	-82.778	0.132	-0.043
-400.209	125.411	-0.120	0.154
-399.194	-141.051	0.477	-0.049
-398.179	214.950	-0.043	-0.069
-397.165	-57.773	-0.114	0.051
-396.150	-127.647	0.053	-0.008
-395.136	-69.143	-0.111	0.043
-394.121	27.401	-0.206	-0.175
-393.106	-200.000	-0.028	-0.224
-392.092	395.703	0.058	0.122
-391.077	-200.000	-0.037	-0.304
-390.063	16.623	-0.020	-0.016
-389.048	-38.001	-0.410	0.220
-388.033	-32.361	0.293	-0.165
-387.019	202.759	0.116	0.181
-386.004	800.000	0.041	0.158
-384.990	-175.120	-0.371	-0.010
-383.975	66.675	0.240	-0.247
-382.960	-200.000	0.077	-0.374
-381.946	88.387	-0.134	-0.150
-380.931	800.000	0.035	-0.115
-379.917	-191.901	0.065	0.001
-378.902	-200.000	0.001	0.182
-377.888	-181.390	-0.488	0.010
-376.873	-116.233	0.171	-0.032
-375.858	800.000	0.012	-0.038
-374.844	191.026	0.118	-0.180
-373.829	-200.000	0.068	-0.304
-372.815	-26.826	0.285	-0.168
-371.800	303.343	-0.081	0.151
-370.785	-200.000	0.034	-0.225
-369.771	800.000	-0.061	0.189
-368.756	-200.000	0.011	0.384
-367.742	96.020	-0.250	-0.289
-366.727	419.467	-0.123	0.267
-365.712	-200.000	-0.058	-0.499
-364.698	-29.666	-0.283	0.163
-363.683	-57.880	-0.204	0.090
-362.669	-165.483	-0.468	-0.021
-361.654	-41.588	-0.161	0.084
-360.639	-112.375	0.241	0.049
-359.625	-200.000	-0.035	0.546
-358.610	800.000	0.040	0.177
-357.596	-6.857	-0.135	0.092
-356.581	800.000	0.057	0.227
-355.566	340.352	-0.168	-0.331
-354.552	559.021	-0.117	-0.286
-353.537	-39.437	0.129	0.068
-352.523	-200.000	-0.005	0.345
-351.508	270.643	-0.071	0.127
-350.493	800.000	-0.098	0.316
-349.479	468.067	0.060	0.135
-348.464	-43.620	0.130	-0.066
-347.450	51.440	0.249	-0.238
-346.435	560.401	0.073	0.178
-345.420	651.441	-0.040	0.105
-344.406	-25.027	0.281	0.168
-343.391	54.314	0.100	-0.097
-342.377	240.621	0.169	-0.284
-341.362	-33.582	0.212	-0.118
-340.348	-200.000	-0.017	0.158
-339.333	0.833	0.024	-0.017
-338.318	-200.000	-0.401	-0.001
-337.304	79.984	-0.155	-0.168
-336.289	-123.617	-0.409	-0.066
-335.275	-51.635	0.280	-0.132
-334.260	12.584	-0.047	-0.037
-333.245	135.080	0.075	-0.098
-332.231	168.779	-0.072	-0.103
-331.216	-54.049	-0.212	0.097
-330.202	501.642	0.082	-0.192
-329.187	-7.146	-0.185	-0.126
-328.172	-200.000	0.055	0.306
-327.158	523.005	-0.106	-0.252
-326.143	-96.192	-0.155	0.042
-325.129	-95.051	-0.151	-0.041
-324.114	-90.366	-0.151	-0.044
-323.099	71.191	0.162	-0.169
-322.085	-160.743	-0.407	0.022
-321.070	-93.570	-0.187	0.052
-320.056	21.543	0.139	-0.114
-319.041	4.326	0.171	-0.126
-318.026	57.763	0.099	-0.098
-317.012	-124.459	0.333	0.052
-315.997	181.170	-0.032	0.048
-314.983	33.645	0.072	0.063
-313.968	-11.836	0.041	-0.027
-312.953	460.149	-0.123	-0.276
-311.939	-27.155	-0.186	0.109
-310.924	-200.000	0.031	-0.192
-309.910	228.279	0.170	0.280
-308.895	-200.000	0.006	-0.155
-307.880	-146.415	-0.257	0.023
-306.866	151.539	0.102	-0.140
-305.851	-84.477	-0.160	-0.051
-304.837	-75.548	-0.258	0.092
-303.822	-89.952	0.241	0.071
-302.807	-21.398	0.377	-0.232
-301.793	33.084	-0.290	0.253
-300.778	-200.000	0.052	0.281
-299.764	-120.086	0.149	0.026
-298.749	-200.000	0.005	0.091
-297.735	198.898	0.094	-0.144
-296.720	22.785	0.159	-0.131
-295.705	360.721	-0.032	0.065
-294.691	-2.969	-0.095	0.067
-293.676	800.000	0.005	0.017
-292.662	571.814	0.092	-0.226
-291.647	-21.987	-0.160	-0.098
-290.632	-145.487	-0.032	-0.003
-289.618	177.807	-0.289	0.424
-288.603	-200.000	0.010	-0.346
-287.589	43.331	0.271	0.249
-286.574	319.988	-0.143	0.274
-285.559	-22.096	-0.165	0.101
-284.545	-64.937	-0.061	0.025
-283.530	695.983	0.024	-0.064
-282.516	-12.899	-0.220	0.144
-281.501	-200.000	0.055	0.254
-280.486	58.317	-0.171	0.168
-279.472	34.861	-0.263	0.232
-278.457	800.000	-0.030	-0.097
-277.443	30.438	-0.088	0.075
-276.428	800.000	-0.032	-0.112
-275.413	-90.785	-0.197	0.057
-274.399	-72.491	-0.059	0.022
-273.384	-152.087	0.105	0.008
-272.370	92.216	-0.253	-0.287
-271.355	24.911	-0.159	-0.132
-270.340	-56.840	0.059	0.026
-269.326	27.651	-0.174	0.147
-268.311	135.679	0.235	0.307
-267.297	-200.000	0.010	-0.076
-266.282	138.069	-0.225	0.297
-265.267	-200.000	-0.031	0.223
-264.253	-75.060	0.060	-0.021
-263.238	-65.434	0.303	0.123
-262.224	127.293	0.203	0.259
-261.209	-126.325	0.147	0.022
-260.195	108.488	-0.159	0.191
-259.180	-62.437	0.187	0.078
-258.165	-59.012	-0.223	0.097
-257.151	157.941	0.193	0.269
-256.136	800.000	0.072	-0.246
-255.122	-98.472	0.035	0.009
-254.107	-72.395	-0.271	-0.101
-253.092	113.872	-0.060	-0.074
-252.078	66.843	-0.319	0.327
-251.063	0.171	-0.140	0.100
-250.049	484.989	0.048	0.110
-249.034	800.000	-0.059	0.254
-248.019	-200.000	0.027	0.124
-247.005	-200.000	-0.035	0.230
-245.990	286.370	0.073	-0.133
-244.976	-32.878	0.080	0.045
-243.961	-81.212	-0.224	0.074
-242.946	-200.000	-0.008	-0.158
-241.932	87.781	0.131	-0.146
-240.917	-200.000	0.022	-0.237
-239.903	286.428	-0.056	0.101
-238.888	-200.000	0.014	-0.084
-237.873	795.092	-0.039	0.108
-236.859	800.000	-0.106	0.320
-235.844	85.372	-0.121	0.133
-234.830	19.283	-0.113	0.091
-233.815	145.529	0.240	-0.323
-232.800	213.623	-0.094	-0.149
-231.786	210.240	0.088	0.138
-230.771	-80.034	-0.066	-0.022
-229.757	-131.338	0.231	-0.031
-228.742	-200.000	0.042	0.207
-227.727	186.220	0.063	0.094
-226.713	62.812	0.130	0.131
-225.698	-77.525	0.090	-0.031
-224.684	800.000	0.047	0.140
-223.669	-92.238	0.244	0.069
-222.655	182.769	-0.194	-0.288
-221.640	-200.000	-0.015	0.177
-220.625	-81.663	-0.283	-0.093
-219.611	-2.968	-0.050	0.035
-218.596	-61.566	-0.352	-0.148
-217.582	-35.048	-0.155	-0.085
-216.567	-108.462	0.310	0.067
-215.552	13.417	0.320	0.249
-214.538	-66.721	-0.272	-0.108
-213.523	-31.550	0.205	-0.116
-212.509	-94.126	-0.225	0.062
-211.494	-177.067	0.010	-0.000
-210.479	-49.969	0.329	-0.157
-209.465	-200.000	-0.012	0.239
-208.450	-200.000	-0.001	-0.100
-207.436	35.094	0.143	0.126
-206.421	58.523	0.243	-0.239
-205.406	76.449	-0.152	-0.162
-204.392	-33.970	0.204	0.113
-203.377	-147.962	0.416	-0.035
-202.363	-200.000	0.002	0.054
-201.348	116.208	-0.103	-0.127
-200.333	375.128	0.106	-0.216
-199.319	-88.020	0.100	0.030
-198.304	83.191	0.117	-0.127
-197.290	28.553	-0.225	0.191
-196.275	-1.718	0.314	-0.222
-195.260	-200.000	0.000	0.344
-194.246	-126.810	0.198	-0.029
-193.231	121.230	-0.146	0.182
-192.217	207.489	0.124	-0.195
-191.202	-200.000	-0.059	-0.379
-190.187	467.605	-0.077	0.173
-189.173	373.243	-0.016	-0.032
-188.158	17.859	0.165	-0.132
-187.144	23.739	0.110	-0.091
-186.129	-31.343	0.233	0.132
-185.114	-81.844	0.449	-0.147
-184.100	800.000	0.067	-0.280
-183.085	257.586	0.113	0.195
-182.071	-200.000	-0.068	0.344
-181.056	-200.000	0.006	0.205
-180.042	800.000	0.057	-0.170
-179.027	70.225	-0.042	0.044
-178.012	518.872	0.014	-0.033
-176.998	-163.304	-0.240	-0.012
-175.983	48.274	0.176	0.165
-174.969	-9.038	-0.186	-0.125
-173.954	-200.000	0.008	-0.078
-172.939	296.344	-0.197	-0.362
-171.925	256.875	0.114	-0.196
-170.910	-174.485	0.058	0.002
-169.896	800.000	-0.031	0.086
-168.881	-123.590	-0.308	-0.049
-167.866	109.723	-0.174	0.209
-166.852	800.000	0.029	-0.094
-165.837	-111.070	0.146	-0.030
-164.823	238.636	-0.133	0.221
-163.808	-82.697	0.252	-0.082
-162.793	-200.000	0.041	0.203
-161.779	256.701	0.135	-0.232
-160.764	-137.821	0.125	0.014
-159.750	489.709	0.197	0.450
-158.735	486.970	-0.078	0.179
-157.720	-76.579	0.175	-0.062
-156.706	14.018	0.311	0.243
-155.691	-28.665	-0.027	0.016
-154.677	-36.812	-0.363	0.195
-153.662	244.349	0.286	0.482
-152.647	81.092	0.174	0.188
-151.633	-99.808	-0.176	-0.044
-150.618	-94.288	0.172	-0.047
-149.604	281.036	-0.258	0.462
-148.589	10.164	-0.315	-0.240
-147.574	-200.000	-0.007	-0.095
-146.560	-94.787	0.306	0.083
-145.545	800.000	0.091	-0.300
-144.531	-110.621	-0.318	0.066
-143.516	99.329	0.203	0.235
-142.502	800.000	0.018	-0.065
-141.487	-94.789	0.078	-0.021
-140.472	-81.792	-0.104	0.034
-139.458	-200.000	0.039	-0.200
-138.443	-114.426	-0.071	-0.014
-137.429	-118.841	0.483	0.085
-136.414	129.240	0.194	-0.249
-135.399	-56.575	0.202	0.090
-134.385	618.891	0.183	0.460
-133.370	800.000	-0.082	-0.350
-132.356	-133.070	0.091	-0.012
-131.341	-167.417	-0.272	0.011
-130.326	716.974	0.075	-0.199
-129.312	2.939	-0.086	-0.062
-128.297	-155.747	0.138	-0.009
-127.283	-200.000	-0.059	-0.279
-126.268	-115.617	0.170	-0.032
-125.253	406.284	-0.103	0.217
-124.239	-84.403	-0.160	0.051
-123.224	-55.349	-0.138	0.062
-122.210	213.698	0.017	0.028
-121.195	119.232	-0.046	0.057
-120.180	-95.607	-0.147	0.039
-119.166	-200.000	0.046	0.357
-118.151	-61.634	0.061	-0.026
-117.137	118.751	-0.093	0.114
-116.122	5.830	0.241	-0.178
-115.107	165.646	0.061	-0.086
-114.093	-200.000	-0.010	-0.190
-113.078	-106.961	0.163	-0.036
-112.064	-200.000	-0.022	-0.216
-111.049	7.750	-0.273	-0.205
-110.034	-200.000	-0.009	-0.473
-109.020	-200.000	-0.045	-0.248
-108.005	-89.215	-0.262	-0.077
-106.991	-200.000	-0.022	-0.217
-105.976	-140.809	0.196	-0.020
-104.962	-200.000	-0.044	-0.227
-103.947	-44.071	-0.303	0.152
-102.932	-34.061	-0.403	-0.222
-101.918	-79.176	0.253	-0.086
-100.903	43.984	0.167	0.153
-99.889	-99.830	0.337	0.084
-98.874	707.681	-0.147	0.389
-97.859	-112.399	-0.131	0.026
-96.845	800.000	-0.042	-0.175
-95.830	-78.204	0.176	-0.060
-94.816	-200.000	-0.067	0.383
-93.801	-95.812	-0.146	0.039
-92.786	-200.000	-0.030	-0.464
-91.772	277.236	-0.140	-0.249
-90.757	-3.100	-0.313	-0.218
-89.743	-200.000	0.003	-0.065
-88.728	25.569	-0.047	-0.039
-87.713	-14.637	-0.125	0.080
-86.699	269.636	-0.096	-0.168
-85.684	800.000	-0.026	0.100
-84.670	63.590	0.125	0.125
-83.655	-89.126	-0.521	0.154
-82.640	30.001	0.130	-0.111
-81.626	396.316	-0.083	0.173
-80.611	434.334	0.054	0.117
-79.597	770.112	0.097	0.265
-78.582	155.628	-0.117	-0.161
-77.567	-173.798	0.213	-0.006
-76.553	-39.310	0.233	-0.122
-75.538	-160.945	0.094	0.005
-74.524	69.816	-0.143	-0.148
-73.509	-200.000	0.003	-0.056
-72.494	-81.908	0.252	-0.082
-71.480	-200.000	-0.013	-0.150
-70.465	-200.000	-0.018	0.276
-69.451	-97.473	-0.113	0.029
-68.436	800.000	-0.093	0.302
-67.422	-25.988	0.157	0.092
-66.407	-71.228	-0.214	-0.080
-65.392	-149.699	-0.407	-0.032
-64.378	339.044	-0.193	0.375
-63.363	135.936	-0.174	-0.227
-62.349	495.227	0.074	0.169
-61.334	86.143	-0.484	-0.532
-60.319	0.704	0.211	0.151
-59.305	-200.000	-0.109	-0.658
-58.290	96.867	0.592	0.677
-57.276	216.664	0.780	1.238
-56.261	-200.000	74.945	539.902
-55.246	576.601	1298.597	3166.292
-54.232	145.328	2529.991	3379.206
-53.217	114.705	2347.168	2854.712
-52.203	52.808	1962.700	1872.166
-51.188	46.653	1749.932	1620.951
-50.173	43.501	1702.486	1552.770
-49.159	57.711	1735.273	1692.791
-48.144	64.086	1753.121	1759.313
-47.130	46.348	1717.327	1588.140
-46.115	43.044	1703.621	1550.046
-45.100	42.843	1699.230	1544.448
-44.086	42.741	1696.736	1541.337
-43.071	42.776	1694.164	1539.204
-42.057	42.716	1691.990	1536.711
-41.042	42.871	1689.478	1535.548
-40.027	42.789	1687.706	1533.257
-39.013	42.851	1685.535	1531.694
-37.998	42.649	1684.522	1529.176
-36.984	42.808	1682.615	1528.594
-35.969	42.837	1681.514	1527.748
-34.954	42.913	1679.993	1526.881
-33.940	42.997	1677.581	1525.266
-32.925	42.902	1675.619	1522.702
-31.911	43.004	1673.879	1521.838
-30.896	42.957	1672.103	1519.805
-29.881	42.990	1670.497	1518.535
-28.867	42.805	1669.343	1516.030
-27.852	42.957	1667.190	1515.162
-26.838	42.913	1665.536	1513.267
-25.823	42.889	1664.554	1512.134
-24.809	42.997	1662.560	1511.067
-23.794	42.949	1661.583	1509.766
-22.779	43.091	1659.751	1509.101
-21.765	43.054	1657.880	1507.063
-20.750	42.895	1656.408	1504.476
-19.736	42.945	1654.852	1503.378
-18.721	43.062	1653.332	1502.811
-17.706	43.022	1652.112	1501.347
-16.692	42.918	1650.373	1498.927
-15.677	42.968	1649.378	1498.342
-14.663	43.049	1647.456	1497.133
-13.648	42.895	1646.623	1495.178
-12.633	43.020	1644.571	1494.177
-11.619	42.920	1643.174	1492.106
-10.604	42.924	1641.398	1490.469
-9.590	43.025	1639.868	1489.764
-8.575	42.970	1639.047	1488.555
-7.560	43.009	1637.985	1487.818
-6.546	42.969	1636.633	1486.239
-5.531	42.978	1635.287	1485.020
-4.517	43.058	1633.980	1484.365
-3.502	42.971	1632.803	1482.595
-2.487	43.113	1631.129	1482.061
-1.473	42.950	1619.838	1470.550
-0.458	40.291	1598.831	1432.223
0.556	35.359	1596.708	1394.606
1.571	32.593	1620.343	1394.678
2.586	31.877	1635.701	1402.420
3.600	28.359	1582.712	1331.359
4.615	15.719	1461.406	1143.801
5.629	3.587	1383.625	1004.279
6.644	1.157	1372.767	980.607
7.659	0.985	1371.510	978.509
8.673	0.952	1369.676	976.902
9.688	0.877	1368.432	975.443
10.702	0.685	1365.885	972.305
11.717	5.160	1375.452	1007.979
12.731	17.519	1398.944	1105.838
13.746	25.003	1411.261	1164.318
14.761	24.863	1409.302	1161.690
15.775	24.658	1408.399	1159.508
16.790	24.690	1408.181	1159.435
17.804	24.787	1407.538	1159.431
18.819	24.942	1407.335	1160.167
19.834	25.055	1406.185	1159.848
20.848	25.027	1405.584	1159.066
21.863	25.035	1404.541	1158.155
22.877	24.978	1403.859	1157.126
23.892	25.030	1402.763	1156.453
24.907	25.037	1402.184	1155.922
25.921	24.950	1401.271	1154.507
26.936	25.003	1400.240	1153.897
27.950	25.001	1399.090	1152.829
28.965	25.003	1397.870	1151.740
29.980	25.016	1396.756	1150.800
30.994	24.949	1395.434	1149.179
32.009	24.994	1394.064	1148.239
33.023	24.996	1393.120	1147.371
34.038	25.102	1391.600	1146.694
35.053	25.103	1390.496	1145.695
36.067	25.014	1389.947	1144.568
37.082	25.082	1388.650	1143.834
38.096	24.933	1388.388	1142.567
39.111	24.944	1387.477	1141.783
40.126	24.955	1386.606	1141.038
41.140	25.040	1385.988	1140.968
42.155	24.983	1385.683	1140.253
43.169	25.032	1385.711	1140.490
44.184	24.982	1385.513	1139.908
45.199	25.011	1384.889	1139.480
46.213	25.048	1383.894	1138.792
47.228	25.056	1383.090	1138.084
48.242	25.050	1381.964	1137.018
49.257	25.041	1380.110	1135.333
50.271	24.973	1379.585	1134.372
51.286	25.119	1377.925	1133.827
52.301	25.085	1376.409	1132.266
53.315	25.006	1375.370	1130.810
54.330	25.081	1374.856	1130.761
55.344	25.048	1373.713	1129.514
56.359	25.074	1372.749	1128.785
57.374	25.045	1371.882	1127.789
58.388	25.015	1371.671	1127.326
59.403	25.062	1371.030	1126.994
60.417	25.036	1370.295	1126.132
61.432	25.084	1368.973	1125.242
62.447	24.981	1368.895	1124.434
63.461	24.982	1367.919	1123.543
64.476	24.957	1366.695	1122.279
65.490	25.054	1365.246	1121.599
66.505	24.959	1364.011	1119.888
67.520	25.037	1362.440	1118.984
68.534	25.064	1361.439	1118.232
69.549	25.033	1360.881	1117.482
70.563	25.085	1359.558	1116.620
71.578	25.039	1358.482	1115.356
72.593	25.130	1357.366	1114.906
73.607	25.044	1357.358	1114.264
74.622	25.196	1356.072	1114.055
75.636	25.025	1355.890	1112.742
76.651	24.997	1355.147	1111.860
77.666	24.980	1354.709	1111.302
78.680	24.978	1354.214	1110.784
79.695	24.984	1353.257	1109.934
80.709	25.002	1352.818	1109.590
81.724	25.026	1351.487	1108.549
82.739	25.098	1350.221	1107.860
83.753	24.990	1349.346	1106.372
84.768	25.061	1348.276	1105.838
85.782	25.043	1347.050	1104.620
86.797	25.044	1346.049	1103.710
87.812	25.051	1345.246	1103.000
88.826	25.062	1343.784	1101.765
89.841	24.979	1342.963	1100.486
90.855	25.078	1341.929	1100.148
91.870	25.154	1340.868	1099.651
92.884	25.071	1340.216	1098.507
93.899	25.124	1339.290	1097.980
94.914	25.167	1338.693	1097.653
95.928	25.099	1337.970	1096.549
96.943	25.112	1337.301	1095.982
97.957	25.108	1336.603	1095.291
98.972	25.068	1335.834	1094.318
99.987	24.977	1335.117	1093.074
101.001	25.023	1334.147	1092.468
102.016	25.085	1332.677	1091.547
103.030	25.015	1331.623	1090.158
104.045	24.985	1330.893	1089.280
105.060	25.085	1330.168	1089.200
106.074	25.193	1329.199	1088.967
107.089	25.233	1328.131	1088.237
108.103	25.069	1327.012	1086.229
109.118	25.098	1326.072	1085.538
110.133	25.258	1324.125	1084.816
111.147	25.165	1323.493	1083.643
112.162	25.044	1322.784	1082.235
113.176	25.170	1321.566	1081.901
114.191	25.127	1320.642	1080.792
115.206	25.203	1319.465	1080.191
116.220	25.122	1318.468	1078.789
117.235	25.117	1317.672	1078.017
118.249	25.005	1317.208	1076.865
119.264	25.060	1316.018	1076.129
120.279	25.107	1315.146	1075.604
121.293	25.126	1314.203	1074.851
122.308	25.189	1313.277	1074.373
123.322	25.205	1312.681	1073.887
124.337	25.153	1311.999	1072.923
125.352	25.137	1311.026	1071.940
126.366	25.245	1309.917	1071.583
127.381	25.237	1309.000	1070.685
128.395	25.160	1307.908	1069.240
129.410	25.124	1306.949	1068.150
130.424	25.259	1306.480	1068.476
131.439	25.117	1305.883	1067.045
132.454	25.238	1304.562	1066.592
133.468	25.197	1304.543	1066.240
134.483	25.232	1304.125	1066.008
135.497	25.252	1302.847	1064.988
136.512	25.267	1301.636	1063.994
137.527	25.193	1300.524	1062.553
138.541	25.236	1299.122	1061.568
139.556	25.183	1298.013	1060.252
140.570	25.301	1296.821	1059.882
141.585	25.124	1295.927	1058.017
142.600	25.188	1295.159	1057.675
143.614	25.186	1294.022	1056.635
144.629	25.232	1292.739	1055.770
145.643	25.034	1292.303	1054.151
146.658	25.034	1291.662	1053.537
147.673	25.166	1289.915	1052.795
148.687	25.108	1289.184	1051.765
149.702	25.052	1288.126	1050.481
150.716	25.133	1286.820	1049.795
151.731	25.178	1285.551	1048.930
152.746	25.209	1284.221	1047.933
153.760	25.147	1283.638	1047.006
154.775	25.164	1282.757	1046.292
155.789	25.214	1281.565	1045.516
156.804	25.063	1280.918	1044.020
157.819	25.195	1279.597	1043.617
158.833	25.147	1279.598	1043.249
159.848	25.087	1278.829	1042.177
160.862	25.281	1277.646	1042.249
161.877	25.267	1277.002	1041.550
162.892	25.172	1276.585	1040.567
163.906	25.130	1275.684	1039.498
164.921	25.178	1274.539	1038.749
165.935	25.144	1273.627	1037.719
166.950	25.274	1273.158	1037.993
167.964	25.209	1272.477	1036.975
168.979	25.289	1272.169	1037.090
169.994	25.277	1271.599	1036.467
171.008	25.232	1270.964	1035.599
172.023	25.299	1269.857	1034.989
173.037	25.247	1269.397	1034.224
174.052	25.293	1268.457	1033.630
175.067	25.361	1267.602	1033.235
176.081	25.343	1267.025	1032.567
177.096	25.344	1266.112	1031.739
178.110	25.227	1265.776	1030.700
179.125	25.366	1263.989	1029.955
180.140	25.349	1263.524	1029.384
181.154	25.357	1261.764	1027.907
182.169	25.290	1260.969	1026.782
183.183	25.383	1259.624	1026.128
184.198	25.360	1258.657	1025.120
185.213	25.332	1257.928	1024.278
186.227	25.432	1256.801	1023.836
187.242	25.355	1256.543	1023.100
188.256	25.392	1255.540	1022.400
189.271	25.419	1254.364	1021.505
190.286	25.434	1253.775	1021.020
191.300	25.508	1253.395	1021.042
192.315	25.274	1253.250	1019.508
193.329	25.360	1252.347	1019.172
194.344	25.381	1251.905	1018.840
195.359	25.296	1251.568	1017.991
196.373	25.292	1250.887	1017.326
197.388	25.271	1250.877	1017.106
198.402	25.329	1250.292	1016.873
199.417	25.379	1249.908	1016.752
200.432	25.356	1249.165	1015.926
201.446	25.365	1248.394	1015.262
202.461	25.388	1247.656	1014.702
203.475	25.374	1247.180	1014.143
204.490	25.345	1245.849	1012.811
205.504	25.397	1244.989	1012.316
206.519	25.416	1244.087	1011.598
207.534	25.494	1242.514	1010.670
208.548	25.451	1241.988	1009.909
209.563	25.401	1241.712	1009.315
210.577	25.325	1240.756	1008.019
211.592	25.353	1239.794	1007.306
212.607	25.492	1239.021	1007.369
213.621	25.542	1238.148	1006.848
214.636	25.468	1237.591	1005.896
215.650	25.488	1236.275	1004.848
216.665	25.580	1235.267	1004.456
217.680	25.516	1234.684	1003.531
218.694	25.544	1233.855	1002.927
219.709	25.402	1233.342	1001.628
220.723	25.392	1232.785	1001.030
221.738	25.367	1232.139	1000.281
222.753	25.444	1230.694	999.446
223.767	25.382	1230.723	999.037
224.782	25.583	1230.004	999.479
225.796	25.621	1229.191	998.943
226.811	25.563	1228.544	998.010
227.826	25.547	1228.090	997.460
228.840	25.551	1227.677	997.057
229.855	25.561	1226.959	996.445
230.869	25.563	1226.084	995.654
231.884	25.674	1225.464	995.682
232.899	25.526	1224.591	994.064
233.913	25.610	1224.076	994.020
234.928	25.727	1223.320	993.966
235.942	25.762	1222.843	993.683
236.957	25.707	1221.861	992.492
237.972	25.590	1221.597	991.547
238.986	25.558	1221.055	990.843
240.001	25.625	1220.341	990.545
241.015	25.710	1219.644	990.359
242.030	25.746	1218.711	989.714
243.045	25.849	1217.677	989.350
244.059	25.773	1217.048	988.333
245.074	25.761	1215.984	987.318
246.088	25.777	1215.233	986.710
247.103	25.748	1214.954	986.235
248.117	25.743	1213.655	985.063
249.132	25.740	1213.372	984.735
250.147	25.839	1212.450	984.436
251.161	25.953	1211.655	984.327
252.176	25.721	1211.523	982.869
253.190	25.912	1210.420	982.924
254.205	25.904	1209.626	982.153
255.220	25.774	1209.615	981.346
256.234	25.811	1209.060	981.010
257.249	25.880	1207.929	980.381
258.263	25.829	1207.533	979.696
259.278	25.955	1206.940	979.813
260.293	26.036	1205.990	979.394
261.307	25.891	1205.850	978.410
262.322	25.876	1205.551	977.997
263.336	25.911	1204.639	977.361
264.351	25.947	1204.003	976.953
265.366	25.868	1203.715	976.204
266.380	25.884	1202.901	975.549
267.395	25.949	1202.106	975.168
268.409	26.017	1201.174	974.692
269.424	25.942	1200.811	973.904
270.439	25.871	1200.517	973.199
271.453	25.988	1199.937	973.275
272.468	25.944	1199.099	972.271
273.482	25.924	1198.141	971.300
274.497	25.953	1197.719	971.026
275.512	26.019	1197.229	970.897
276.526	25.928	1196.595	969.810
277.541	26.037	1195.756	969.627
278.555	25.964	1195.240	968.734
279.570	26.023	1194.414	968.295
280.585	25.956	1193.769	967.328
281.599	26.016	1192.816	966.792
282.614	25.951	1191.735	965.479
283.628	26.061	1190.950	965.348
284.643	26.139	1190.180	965.056
285.657	26.063	1189.160	963.737
286.672	26.002	1188.212	962.557
287.687	26.152	1187.838	962.972
288.701	26.189	1187.169	962.542
289.716	26.038	1186.184	960.850
290.730	26.015	1185.836	960.361
291.745	26.104	1185.225	960.254
292.760	26.254	1184.535	960.410
293.774	26.189	1184.095	959.622
294.789	26.152	1183.586	958.929
295.803	26.166	1183.035	958.472
296.818	26.221	1182.133	957.949
297.833	26.052	1181.861	956.747
298.847	26.093	1180.878	956.083
299.862	26.195	1180.223	956.008
300.876	26.302	1179.080	955.565
301.891	26.150	1179.017	954.626
302.906	26.211	1178.495	954.439
303.920	26.323	1177.710	954.313
304.935	26.304	1176.939	953.502
305.949	26.273	1176.247	952.695
306.964	26.286	1175.474	952.052
307.979	26.405	1174.522	951.824
308.993	26.310	1174.469	951.196
310.008	26.335	1173.893	950.776
311.022	26.416	1172.909	950.318
312.037	26.482	1171.734	949.631
313.052	26.417	1170.781	948.431
314.066	26.407	1170.401	947.988
315.081	26.370	1169.830	947.248
316.095	26.423	1169.074	946.831
317.110	26.397	1168.468	946.119
318.125	26.498	1167.715	945.955
319.139	26.387	1167.274	944.933
320.154	26.283	1166.711	943.851
321.168	26.449	1165.962	944.026
322.183	26.329	1165.734	943.136
323.197	26.448	1165.013	943.086
324.212	26.326	1164.553	941.994
325.227	26.415	1163.984	941.919
326.241	26.618	1163.366	942.387
327.256	26.451	1162.784	940.964
328.270	26.573	1161.550	940.517
329.285	26.537	1160.543	939.433
330.300	26.541	1159.978	938.912
331.314	26.525	1159.364	938.252
332.329	26.496	1158.470	937.293
333.343	26.509	1157.703	936.657
334.358	26.557	1156.648	935.969
335.373	26.643	1156.205	935.972
336.387	26.574	1155.671	935.100
337.402	26.545	1154.975	934.303
338.416	26.585	1154.217	933.816
339.431	26.599	1153.918	933.561
340.446	26.595	1153.234	932.907
341.460	26.634	1152.455	932.393
342.475	26.682	1151.632	931.893
343.489	26.643	1150.682	930.841
344.504	26.662	1149.772	930.118
345.519	26.633	1148.853	929.143
346.533	26.776	1148.187	929.258
347.548	26.736	1147.576	928.474
348.562	26.746	1146.902	927.901
349.577	26.807	1146.187	927.552
350.592	26.619	1145.342	925.822
351.606	26.616	1145.000	925.448
352.621	26.685	1144.419	925.254
353.635	26.755	1143.473	924.761
354.650	26.735	1143.042	924.229
355.665	26.854	1141.811	923.759
356.679	26.834	1141.777	923.547
357.694	26.908	1140.711	922.979
358.708	26.823	1139.776	921.710
359.723	26.746	1139.486	921.000
360.738	26.854	1138.467	920.645
361.752	26.859	1138.274	920.435
362.767	26.886	1137.747	920.062
363.781	26.968	1137.144	919.911
364.796	26.903	1136.681	919.126
365.810	26.991	1136.027	918.961
366.825	26.843	1135.418	917.635
367.840	26.902	1135.265	917.729
368.854	27.000	1134.648	917.644
369.869	27.066	1133.577	917.029
370.883	27.016	1132.984	916.220
371.898	27.048	1132.097	915.580
372.913	26.997	1131.564	914.813
373.927	26.952	1131.468	914.428
374.942	27.068	1130.741	914.341
375.956	27.180	1129.670	913.959
376.971	27.144	1129.129	913.261
377.986	27.080	1129.235	912.940
379.000	27.035	1129.032	912.469
380.015	27.140	1128.292	912.320
381.029	27.109	1127.311	911.289
382.044	27.118	1126.359	910.487
383.059	27.147	1125.806	910.103
384.073	27.085	1125.402	909.384
385.088	27.152	1124.349	908.787
386.102	27.143	1123.358	907.864
387.117	27.177	1122.702	907.420
388.132	27.107	1121.768	906.236
389.146	27.209	1120.908	905.968
390.161	27.181	1120.943	905.780
391.175	27.169	1120.212	905.048
392.190	27.166	1119.429	904.323
393.205	27.160	1118.880	903.770
394.219	27.069	1117.905	902.447
395.234	27.203	1117.487	902.697
396.248	27.246	1116.316	901.885
397.263	27.304	1115.077	901.090
398.278	27.426	1115.079	901.616
399.292	27.369	1114.109	900.470
400.307	27.435	1113.366	900.114
401.321	27.438	1112.669	899.490
402.336	27.416	1112.219	898.935
403.350	27.354	1111.438	897.921
404.365	27.495	1110.829	898.043
405.380	27.358	1110.268	896.835
406.394	27.369	1109.635	896.301
407.409	27.493	1108.819	896.169
408.423	27.525	1107.977	895.567
409.438	27.514	1107.175	894.787
410.453	27.468	1106.607	894.020
411.467	27.479	1105.836	893.372
412.482	27.515	1105.423	893.139
413.496	27.509	1104.212	892.050
414.511	27.427	1104.059	891.446
415.526	27.522	1103.773	891.603
416.540	27.649	1103.044	891.557
417.555	27.484	1102.327	890.090
418.569	27.565	1102.349	890.426
419.584	27.599	1101.665	889.958
420.599	27.600	1101.660	889.881
421.613	80.553	1287.343	1331.118
422.628	75.432	1314.400	1331.255
