DTS Sentinel unit serial number:	SN413079Multiplexer serial number:	ORYXHardware model number:	OX4-SRSoftware version number:	ORYX F/W v4.00 Oryx Data Collector v3.7.2.0data status	okinstallation	princeton_trtdifferential loss correction	single-endedforward channel	channel 2reverse channel	N/Adate	2019/09/11time	07:53:11forward acquisition time	60.00reverse acquisition time	0.00gamma	496.2192k internal	0.2325k external	0.2325temperature offset calibration	0.9921default loss term (dB/km)	0.3790temperature slope calibration	1.0000multiplexer offset coefficient	1.0000multiplexer slope coefficient	1.0000fibre end	0.00T internal ref (°C)	31.87T ext. ref 1 (°C)	0.09T ext. ref 2 (°C)	28.04length (m)	temperature (°C)	Stokes	anti-Stokes-747.200	-74.677	0.183	-0.066
-746.185	-108.101	-0.482	-0.105
-745.171	-173.113	0.246	0.008
-744.156	118.653	0.090	0.112
-743.142	-75.991	0.131	-0.047
-742.127	-200.000	-0.040	0.243
-741.112	-200.000	0.014	0.155
-740.098	79.024	0.256	0.277
-739.083	190.273	0.073	-0.111
-738.069	489.177	0.035	0.082
-737.054	-158.094	-0.121	0.007
-736.039	64.172	-0.114	-0.115
-735.025	-157.694	0.120	0.007
-734.010	-37.160	-0.139	-0.075
-732.996	-31.447	0.133	-0.076
-731.981	314.641	-0.140	-0.267
-730.966	71.189	-0.129	0.135
-729.952	-200.000	0.048	-0.276
-728.937	-200.000	0.024	-0.316
-727.923	-71.271	0.100	-0.038
-726.908	499.741	-0.052	-0.122
-725.894	800.000	0.059	-0.243
-724.879	-200.000	0.037	-0.297
-723.864	391.550	-0.117	-0.245
-722.850	13.556	-0.201	0.157
-721.835	103.567	-0.098	-0.117
-720.821	90.287	-0.177	-0.199
-719.806	241.986	0.133	0.225
-718.791	-138.720	-0.346	-0.038
-717.777	800.000	-0.029	0.118
-716.762	584.928	0.021	0.052
-715.748	800.000	-0.090	0.321
-714.733	22.262	0.247	0.203
-713.718	-23.131	0.184	-0.112
-712.704	-155.343	0.344	-0.023
-711.689	-144.872	-0.216	0.020
-710.675	-113.183	-0.468	-0.093
-709.660	102.042	-0.250	-0.294
-708.645	-128.490	0.164	-0.023
-707.631	-200.000	0.033	0.415
-706.616	-200.000	-0.037	-0.227
-705.602	-200.000	0.002	0.169
-704.587	300.343	0.153	-0.284
-703.572	453.442	0.150	-0.334
-702.558	17.146	-0.156	-0.124
-701.543	800.000	0.089	0.286
-700.529	112.196	0.140	0.170
-699.514	393.111	0.071	-0.149
-698.499	11.731	0.167	0.129
-697.485	140.997	-0.134	0.179
-696.470	-86.813	0.362	0.111
-695.456	-64.030	-0.229	0.094
-694.441	329.790	0.010	-0.020
-693.426	-200.000	-0.010	0.224
-692.412	-65.799	-0.196	-0.079
-691.397	-130.485	-0.274	-0.037
-690.383	-130.457	-0.207	-0.028
-689.368	-200.000	0.075	0.399
-688.354	103.270	-0.209	0.246
-687.339	-174.794	-0.481	-0.014
-686.324	-200.000	-0.015	-0.528
-685.310	-135.193	-0.246	-0.030
-684.295	-120.539	-0.102	0.017
-683.281	157.099	0.059	0.082
-682.266	-54.270	0.412	0.188
-681.251	72.591	-0.296	-0.311
-680.237	-200.000	0.040	0.293
-679.222	123.326	0.201	0.254
-678.208	256.070	-0.131	-0.225
-677.193	-190.113	-0.159	-0.002
-676.178	401.748	-0.052	-0.109
-675.164	-200.000	0.035	-0.300
-674.149	800.000	-0.101	-0.332
-673.135	55.717	-0.211	0.205
-672.120	-131.554	-0.236	0.031
-671.105	190.167	0.184	-0.278
-670.091	-126.453	0.281	-0.042
-669.076	-200.000	0.021	0.106
-668.062	-156.136	0.184	-0.012
-667.047	-43.910	-0.144	-0.073
-666.032	16.697	0.147	0.117
-665.018	53.545	-0.159	0.153
-664.003	355.488	0.067	-0.134
-662.989	-96.483	0.079	-0.021
-661.974	150.566	0.133	0.182
-660.959	800.000	-0.094	0.346
-659.945	-98.255	0.082	0.021
-658.930	709.329	0.089	0.236
-657.916	161.513	-0.174	0.244
-656.901	23.526	-0.061	-0.051
-655.886	-200.000	-0.016	-0.092
-654.872	71.753	0.090	-0.094
-653.857	-35.144	-0.256	0.140
-652.843	-174.024	-0.106	0.003
-651.828	-200.000	-0.020	-0.097
-650.814	-105.732	-0.379	0.086
-649.799	-54.678	-0.015	-0.007
-648.784	-21.716	0.264	0.161
-647.770	-118.562	0.268	0.048
-646.755	-133.729	0.129	-0.016
-645.741	196.158	0.148	0.226
-644.726	-71.005	0.312	0.118
-643.711	-200.000	-0.000	-0.218
-642.697	-23.587	0.083	0.050
-641.682	-200.000	-0.006	-0.346
-640.668	100.797	-0.197	-0.230
-639.653	-200.000	0.022	0.106
-638.638	-147.159	0.222	0.019
-637.624	439.737	0.042	-0.091
-636.609	416.357	0.120	0.257
-635.595	104.737	0.132	0.157
-634.580	148.075	-0.077	0.104
-633.565	-97.949	-0.040	-0.010
-632.551	-81.740	-0.270	-0.089
-631.536	64.336	-0.077	-0.078
-630.522	63.123	0.080	0.081
-629.507	-114.611	-0.339	0.065
-628.492	-128.085	-0.053	0.008
-627.478	352.561	0.128	0.254
-626.463	800.000	0.104	-0.375
-625.449	-89.704	-0.375	-0.110
-624.434	-149.489	0.364	-0.029
-623.419	-100.311	0.042	0.010
-622.405	53.288	-0.135	-0.130
-621.390	-200.000	0.090	-0.464
-620.376	-107.015	0.555	0.123
-619.361	-27.404	-0.154	0.090
-618.346	800.000	0.039	-0.145
-617.332	-127.987	-0.143	-0.021
-616.317	-200.000	-0.031	-0.136
-615.303	51.285	-0.221	-0.210
-614.288	-44.267	0.170	0.086
-613.273	-34.480	0.100	0.055
-612.259	464.805	-0.083	-0.186
-611.244	226.766	0.103	-0.168
-610.230	36.971	0.025	-0.022
-609.215	182.260	0.045	0.066
-608.201	6.247	-0.104	-0.077
-607.186	217.654	-0.231	-0.369
-606.171	800.000	-0.054	-0.233
-605.157	111.422	0.194	0.234
-604.142	800.000	-0.062	0.212
-603.128	12.789	-0.075	-0.058
-602.113	-90.445	0.158	0.046
-601.098	120.223	-0.306	-0.381
-600.084	-16.640	0.252	0.160
-599.069	-200.000	0.030	0.427
-598.055	267.260	-0.226	0.396
-597.040	159.955	0.058	-0.080
-596.025	59.316	-0.230	-0.227
-595.011	-124.687	-0.309	-0.048
-593.996	-71.863	0.314	0.117
-592.982	234.400	-0.102	0.168
-591.967	73.145	-0.231	-0.242
-590.952	-200.000	0.012	-0.201
-589.938	-6.064	0.191	0.131
-588.923	198.212	-0.043	0.065
-587.909	2.175	-0.265	-0.192
-586.894	11.808	-0.165	-0.127
-585.879	-200.000	-0.008	-0.133
-584.865	-200.000	-0.015	-0.309
-583.850	8.795	0.115	0.087
-582.836	19.434	-0.209	-0.169
-581.821	800.000	0.058	-0.174
-580.806	-200.000	-0.031	0.148
-579.792	23.044	-0.138	-0.113
-578.777	800.000	-0.052	0.193
-577.763	-166.284	0.428	0.018
-576.748	57.721	0.052	-0.051
-575.733	-55.736	0.410	0.184
-574.719	-169.607	0.092	-0.003
-573.704	-54.332	-0.122	0.056
-572.690	-200.000	0.002	0.032
-571.675	245.120	0.188	0.316
-570.661	30.114	-0.098	-0.084
-569.646	-24.280	-0.399	0.239
-568.631	796.752	-0.101	0.279
-567.617	-102.787	-0.270	0.064
-566.602	-34.592	0.039	0.021
-565.588	460.156	0.075	0.167
-564.573	-35.181	0.061	0.033
-563.558	35.524	-0.129	0.113
-562.544	-20.909	0.068	-0.042
-561.529	-57.701	0.296	-0.130
-560.515	202.032	0.184	0.285
-559.500	56.478	0.227	-0.221
-558.485	11.063	0.096	-0.074
-557.471	114.823	0.428	-0.523
-556.456	-200.000	0.042	-0.335
-555.442	-200.000	-0.014	-0.107
-554.427	-114.737	0.270	0.052
-553.412	234.252	-0.160	-0.265
-552.398	-119.356	0.379	-0.066
-551.383	-15.195	0.198	-0.127
-550.369	800.000	0.036	-0.149
-549.354	-147.709	-0.182	-0.015
-548.339	-71.469	0.373	-0.140
-547.325	55.645	0.240	0.233
-546.310	236.626	-0.024	0.039
-545.296	800.000	0.053	-0.205
-544.281	-7.646	-0.265	0.179
-543.266	675.859	-0.044	0.115
-542.252	378.624	-0.102	0.209
-541.237	-78.138	-0.353	0.122
-540.223	13.775	-0.290	-0.226
-539.208	-168.862	-0.264	-0.010
-538.193	-135.087	-0.039	0.005
-537.179	5.361	0.085	0.063
-536.164	-156.308	0.193	-0.012
-535.150	-79.099	0.190	-0.065
-534.135	-50.610	0.010	0.005
-533.121	-4.845	-0.250	0.173
-532.106	-155.573	-0.183	0.012
-531.091	113.410	-0.301	-0.366
-530.077	-100.936	0.281	-0.069
-529.062	44.185	-0.142	0.130
-528.048	800.000	0.003	0.010
-527.033	122.832	-0.184	-0.231
-526.018	606.776	-0.093	-0.232
-525.004	33.831	0.075	0.065
-523.989	333.963	0.103	0.199
-522.975	-133.033	0.341	0.043
-521.960	42.244	-0.212	0.192
-520.945	191.018	0.099	0.149
-519.931	800.000	-0.067	0.267
-518.916	-200.000	0.008	0.105
-517.902	33.119	-0.195	-0.169
-516.887	724.005	0.050	0.133
-515.872	147.338	0.154	0.208
-514.858	-115.854	0.069	-0.013
-513.843	55.836	-0.137	0.133
-512.829	106.970	-0.149	0.177
-511.814	72.173	0.104	0.109
-510.799	-118.562	-0.433	0.077
-509.785	44.100	0.107	0.098
-508.770	-174.553	-0.068	-0.002
-507.756	-50.591	0.194	-0.091
-506.741	-104.594	-0.206	-0.048
-505.726	-104.742	0.050	0.011
-504.712	293.843	-0.222	0.405
-503.697	-200.000	0.028	-0.151
-502.683	105.451	0.207	-0.245
-501.668	141.448	0.212	0.281
-500.653	800.000	-0.024	-0.085
-499.639	-200.000	-0.039	0.405
-498.624	-200.000	-0.003	0.059
-497.610	-7.878	-0.298	-0.201
-496.595	-50.242	0.045	-0.021
-495.581	-200.000	-0.023	-0.257
-494.566	800.000	0.025	0.098
-493.551	95.652	-0.041	0.047
-492.537	-200.000	-0.019	-0.195
-491.522	-200.000	0.041	-0.191
-490.508	-200.000	-0.017	-0.215
-489.493	191.505	-0.157	-0.237
-488.478	-52.716	0.166	-0.076
-487.464	-81.374	-0.218	0.072
-486.449	800.000	0.118	-0.365
-485.435	-20.359	-0.108	0.067
-484.420	-64.156	0.363	0.148
-483.405	-200.000	0.054	-0.372
-482.391	128.480	-0.172	-0.218
-481.376	-68.045	0.201	-0.078
-480.362	193.324	0.255	0.385
-479.347	-99.922	0.322	0.080
-478.332	256.416	-0.228	-0.391
-477.318	64.408	-0.172	0.173
-476.303	-200.000	-0.018	0.084
-475.289	147.365	-0.173	0.232
-474.274	-64.212	0.252	0.103
-473.259	-151.120	-0.072	0.005
-472.245	53.122	-0.102	0.098
-471.230	-200.000	0.077	-0.384
-470.216	-200.000	-0.018	-0.380
-469.201	-200.000	-0.018	-0.206
-468.186	149.334	-0.144	-0.195
-467.172	-38.589	0.167	0.088
-466.157	-15.645	0.320	0.204
-465.143	-65.976	-0.174	-0.070
-464.128	-200.000	-0.048	0.262
-463.113	177.818	-0.166	-0.241
-462.099	96.056	0.256	-0.292
-461.084	-25.778	0.195	-0.115
-460.070	-82.687	0.223	0.072
-459.055	72.906	-0.204	-0.213
-458.040	192.301	-0.037	0.056
-457.026	2.431	0.133	0.096
-456.011	61.204	0.225	0.223
-454.997	141.057	0.169	-0.223
-453.982	800.000	-0.049	0.137
-452.968	-200.000	-0.005	-0.167
-451.953	13.480	-0.505	0.391
-450.938	-40.340	-0.162	-0.084
-449.924	-183.989	0.231	-0.004
-448.909	800.000	0.125	-0.430
-447.895	800.000	-0.053	-0.186
-446.880	800.000	-0.083	-0.329
-445.865	800.000	0.058	0.206
-444.851	243.144	0.162	0.271
-443.836	118.549	-0.216	-0.266
-442.822	102.347	-0.185	0.215
-441.807	800.000	0.056	0.157
-440.792	-120.158	0.180	0.031
-439.778	14.490	0.129	0.100
-438.763	-76.673	-0.027	0.009
-437.749	158.802	-0.023	-0.032
-436.734	-200.000	0.019	0.313
-435.719	-45.909	0.227	-0.111
-434.705	180.064	0.111	0.162
-433.690	-200.000	-0.021	-0.154
-432.676	-90.532	0.413	-0.119
-431.661	800.000	0.056	0.193
-430.646	92.075	-0.035	-0.040
-429.632	99.301	0.151	-0.175
-428.617	38.618	-0.219	-0.195
-427.603	124.085	-0.302	-0.379
-426.588	166.960	0.213	0.301
-425.573	356.630	0.168	-0.333
-424.559	-3.267	-0.123	-0.085
-423.544	626.396	0.041	0.102
-422.530	9.062	-0.107	-0.080
-421.515	-159.182	-0.640	-0.036
-420.500	-200.000	0.036	-0.196
-419.486	30.437	-0.120	-0.102
-418.471	-200.000	0.001	-0.013
-417.457	-11.684	0.136	0.089
-416.442	800.000	0.131	0.439
-415.428	-60.585	-0.480	0.203
-414.413	-14.795	0.303	-0.194
-413.398	-43.687	-0.094	0.047
-412.384	17.291	-0.119	-0.094
-411.369	152.160	-0.231	0.315
-410.355	-62.404	0.100	0.041
-409.340	-50.581	0.096	0.045
-408.325	-115.867	-0.020	0.004
-407.311	-93.868	-0.208	0.057
-406.296	-79.730	-0.172	-0.058
-405.282	28.178	0.246	-0.207
-404.267	-33.367	0.211	-0.116
-403.252	-7.773	-0.078	0.053
-402.238	718.963	0.059	0.157
-401.223	50.682	0.177	0.166
-400.209	-200.000	-0.022	-0.248
-399.194	-79.439	-0.340	-0.114
-398.179	270.207	-0.082	0.144
-397.165	-112.890	-0.089	-0.018
-396.150	-13.193	0.224	-0.145
-395.136	-41.849	-0.090	-0.046
-394.121	800.000	0.124	-0.493
-393.106	-60.939	0.100	0.042
-392.092	-156.233	0.322	-0.020
-391.077	4.572	-0.437	-0.319
-390.063	79.040	-0.233	-0.248
-389.048	-45.751	0.277	-0.136
-388.033	69.938	-0.196	0.201
-387.019	14.126	-0.246	-0.191
-386.004	4.289	-0.109	0.079
-384.990	800.000	-0.079	-0.262
-383.975	137.382	-0.202	0.263
-382.960	-39.425	-0.153	0.080
-381.946	63.439	-0.139	-0.139
-380.931	153.282	0.105	-0.143
-379.917	774.412	0.083	0.225
-378.902	160.177	-0.100	-0.139
-377.888	-200.000	-0.007	0.077
-376.873	170.441	-0.136	0.193
-375.858	304.322	-0.022	0.040
-374.844	-200.000	0.027	-0.177
-373.829	-200.000	-0.047	0.298
-372.815	-71.365	-0.148	0.055
-371.800	8.333	-0.058	0.044
-370.785	-58.159	0.172	-0.075
-369.771	38.792	-0.148	-0.131
-368.756	367.983	-0.067	0.135
-367.742	-23.302	0.239	-0.143
-366.727	-200.000	0.517	0.000
-365.712	203.770	0.140	0.215
-364.698	-66.486	-0.219	0.086
-363.683	-200.000	-0.038	-0.306
-362.669	-128.429	-0.213	-0.030
-361.654	785.729	-0.004	-0.010
-360.639	-53.923	0.218	0.099
-359.625	-18.007	0.203	0.126
-358.610	-138.531	-0.166	0.018
-357.596	-200.000	0.088	0.390
-356.581	-200.000	-0.017	-0.294
-355.566	800.000	0.081	-0.232
-354.552	-139.275	-0.081	-0.009
-353.537	40.610	0.274	0.245
-352.523	637.901	-0.149	0.376
-351.508	-200.000	-0.071	0.419
-350.493	192.994	0.164	0.246
-349.479	-148.786	-0.056	0.005
-348.464	-176.734	-0.258	-0.007
-347.450	-200.000	-0.024	-0.108
-346.435	-19.862	0.190	-0.116
-345.420	-200.000	-0.002	0.081
-344.406	-48.323	-0.201	0.096
-343.391	-19.858	0.309	-0.189
-342.377	-200.000	0.035	0.356
-341.362	68.842	-0.023	-0.023
-340.348	800.000	-0.134	0.476
-339.333	-200.000	-0.012	0.195
-338.318	76.925	0.178	-0.188
-337.304	-24.964	0.351	0.207
-336.289	-28.404	0.040	-0.023
-335.275	-200.000	-0.063	0.380
-334.260	186.721	0.119	-0.175
-333.245	47.479	0.129	-0.120
-332.231	800.000	-0.048	-0.143
-331.216	800.000	0.109	-0.441
-330.202	-200.000	0.015	-0.245
-329.187	645.123	0.170	0.430
-328.172	319.338	-0.144	-0.271
-327.158	-200.000	0.064	0.343
-326.143	-200.000	-0.036	0.174
-325.129	-88.470	0.224	-0.066
-324.114	-62.616	0.160	-0.066
-323.099	-200.000	0.036	-0.231
-322.085	147.995	-0.183	-0.245
-321.070	-4.819	-0.196	-0.134
-320.056	-200.000	0.004	0.159
-319.041	-23.259	0.128	-0.077
-318.026	-19.952	-0.252	0.155
-317.012	-77.164	-0.193	-0.067
-315.997	194.273	0.103	-0.154
-314.983	800.000	-0.078	0.221
-313.968	-63.415	0.243	-0.099
-312.953	8.885	0.084	0.063
-311.939	433.349	0.074	0.160
-310.924	-200.000	0.008	0.285
-309.910	800.000	0.037	0.155
-308.895	-200.000	0.022	0.427
-307.880	-200.000	0.000	-0.082
-306.866	414.745	-0.026	-0.054
-305.851	375.743	0.038	0.077
-304.837	-67.384	0.225	0.087
-303.822	-161.518	-0.154	-0.008
-302.807	800.000	0.101	0.335
-301.793	548.533	0.048	0.114
-300.778	-200.000	0.051	0.302
-299.764	-71.825	-0.138	0.051
-298.749	-71.524	0.230	0.085
-297.735	-9.278	0.134	-0.089
-296.720	59.044	-0.158	0.154
-295.705	-85.230	-0.098	0.030
-294.691	187.467	0.024	0.035
-293.676	788.110	0.163	-0.443
-292.662	41.029	-0.074	-0.066
-291.647	137.384	-0.101	-0.131
-290.632	186.619	0.119	0.176
-289.618	-100.836	-0.051	0.012
-288.603	-97.145	0.148	-0.038
-287.589	-87.758	0.369	-0.110
-286.574	-30.268	-0.332	-0.187
-285.559	-165.352	0.259	0.011
-284.545	-156.943	-0.305	-0.018
-283.530	800.000	0.052	-0.173
-282.516	-200.000	-0.013	0.212
-281.501	-89.873	-0.105	-0.030
-280.486	45.152	0.116	-0.106
-279.472	125.578	-0.047	0.059
-278.457	-105.505	-0.236	-0.053
-277.443	-200.000	0.032	0.344
-276.428	-200.000	-0.014	-0.148
-275.413	-59.548	-0.066	0.028
-274.399	-28.873	0.292	-0.166
-273.384	800.000	-0.051	0.212
-272.370	-47.613	-0.156	-0.075
-271.355	-4.039	0.012	-0.008
-270.340	382.208	0.073	0.149
-269.326	800.000	0.046	-0.176
-268.311	129.002	0.039	0.050
-267.297	800.000	0.030	-0.094
-266.282	155.451	0.175	-0.238
-265.267	800.000	-0.073	-0.257
-264.253	-42.741	-0.068	0.034
-263.238	-200.000	0.032	0.242
-262.224	241.332	0.277	-0.457
-261.209	-200.000	-0.012	-0.161
-260.195	-55.121	-0.050	-0.022
-259.180	-200.000	0.030	-0.347
-258.165	191.061	0.166	0.247
-257.151	95.292	-0.231	-0.261
-256.136	427.579	-0.126	0.268
-255.122	-200.000	-0.037	-0.322
-254.107	-117.301	-0.351	-0.063
-253.092	15.903	0.191	0.149
-252.078	800.000	0.047	-0.158
-251.063	156.378	-0.189	0.258
-250.049	349.609	-0.048	0.094
-249.034	800.000	0.020	0.059
-248.019	104.215	0.156	0.182
-247.005	238.283	-0.290	0.476
-245.990	-77.006	-0.383	0.132
-244.976	-122.213	-0.184	0.030
-243.961	136.550	-0.195	0.252
-242.946	800.000	-0.059	-0.228
-241.932	9.006	0.160	0.120
-240.917	-139.047	-0.176	-0.019
-239.903	328.073	0.109	-0.207
-238.888	276.459	-0.010	0.018
-237.873	480.177	-0.087	0.195
-236.859	-200.000	0.017	-0.132
-235.844	-11.845	-0.203	0.131
-234.830	-142.842	-0.207	-0.020
-233.815	-150.904	-0.291	-0.022
-232.800	-156.174	0.069	-0.004
-231.786	-19.470	0.231	-0.142
-230.771	479.243	0.136	0.304
-229.757	-76.659	-0.084	0.029
-228.742	800.000	0.069	-0.205
-227.727	88.915	0.161	0.177
-226.713	-48.453	-0.311	-0.148
-225.698	800.000	0.038	0.105
-224.684	104.519	0.053	-0.061
-223.669	-200.000	0.027	-0.239
-222.655	-159.053	0.231	0.013
-221.640	373.840	-0.083	-0.167
-220.625	529.313	-0.105	-0.245
-219.611	800.000	-0.069	-0.235
-218.596	604.394	-0.077	-0.190
-217.582	32.703	-0.182	0.156
-216.567	168.460	0.109	0.154
-215.552	348.985	-0.064	-0.126
-214.538	-34.300	0.209	0.114
-213.523	-113.462	0.221	0.043
-212.509	-185.861	-0.071	-0.001
-211.494	-24.875	-0.311	0.182
-210.479	-200.000	0.032	0.220
-209.465	220.154	-0.120	-0.190
-208.450	800.000	0.051	-0.144
-207.436	323.690	0.256	-0.483
-206.421	182.764	0.182	-0.266
-205.406	-53.658	-0.174	-0.079
-204.392	611.931	-0.151	0.373
-203.377	800.000	0.089	-0.260
-202.363	-200.000	0.044	-0.292
-201.348	-200.000	-0.025	-0.185
-200.333	-80.171	0.070	0.023
-199.319	-118.303	-0.229	0.040
-198.304	-43.657	0.167	0.083
-197.290	172.493	0.050	-0.071
-196.275	-200.000	0.032	0.138
-195.260	263.396	-0.103	-0.177
-194.246	121.045	-0.237	0.291
-193.231	-109.680	-0.272	-0.057
-192.217	-56.517	-0.376	-0.164
-191.202	-61.581	0.277	0.115
-190.187	-200.000	-0.096	0.418
-189.173	-163.261	0.206	-0.010
-188.158	-122.880	0.168	0.027
-187.144	60.289	-0.211	0.206
-186.129	800.000	0.078	0.219
-185.114	21.112	-0.137	0.110
-184.100	-200.000	0.062	0.316
-183.085	-106.180	0.034	-0.008
-182.071	-39.276	-0.076	0.039
-181.056	-81.054	-0.077	0.025
-180.042	492.590	-0.182	-0.413
-179.027	478.154	-0.033	-0.074
-178.012	-120.775	-0.117	0.019
-176.998	800.000	-0.021	-0.076
-175.983	123.843	-0.104	-0.128
-174.969	103.922	-0.092	-0.107
-173.954	-105.595	0.300	0.067
-172.939	-0.432	0.287	-0.201
-171.925	-200.000	-0.012	-0.182
-170.910	-47.446	0.246	-0.118
-169.896	-200.000	0.001	0.147
-168.881	800.000	0.064	0.228
-167.866	671.458	-0.090	0.229
-166.852	448.443	0.166	-0.361
-165.837	-4.299	0.137	0.093
-164.823	258.329	-0.149	0.254
-163.808	-112.058	0.136	0.027
-162.793	800.000	-0.017	0.053
-161.779	75.148	-0.122	0.127
-160.764	-172.896	-0.512	-0.016
-159.750	-103.187	0.318	-0.074
-158.735	-200.000	-0.036	0.263
-157.720	-200.000	-0.067	0.481
-156.706	34.866	-0.351	0.302
-155.691	356.080	0.094	0.185
-154.677	-152.383	0.156	0.011
-153.662	-40.190	0.175	0.090
-152.647	800.000	-0.068	0.257
-151.633	-200.000	-0.048	0.249
-150.618	-200.000	0.009	0.107
-149.604	-138.950	0.270	0.029
-148.589	51.241	0.168	0.157
-147.574	689.948	-0.045	0.117
-146.560	8.860	0.206	-0.153
-145.545	-6.697	0.119	0.080
-144.531	800.000	0.040	-0.127
-143.516	698.187	0.034	0.089
-142.502	792.524	0.105	0.285
-141.487	264.076	0.117	-0.201
-140.472	-117.769	0.019	0.003
-139.458	60.277	0.039	-0.038
-138.443	176.138	-0.140	0.201
-137.429	-78.347	-0.133	0.045
-136.414	-43.792	-0.428	-0.212
-135.399	114.643	-0.296	-0.356
-134.385	-200.000	0.005	-0.170
-133.370	632.250	0.155	-0.387
-132.356	-200.000	0.047	0.211
-131.341	3.170	-0.155	-0.111
-130.326	800.000	-0.027	-0.107
-129.312	-34.950	-0.078	-0.042
-128.297	-200.000	-0.012	-0.055
-127.283	-200.000	-0.005	-0.026
-126.268	800.000	-0.079	0.295
-125.253	-65.447	0.485	0.192
-124.239	27.064	0.024	-0.020
-123.224	800.000	-0.043	0.123
-122.210	-50.133	-0.017	0.008
-121.195	664.183	0.022	-0.056
-120.180	-200.000	0.016	-0.080
-119.166	-97.694	0.201	-0.051
-118.151	-200.000	-0.153	0.000
-117.137	-188.173	-0.142	-0.002
-116.122	127.822	-0.207	-0.259
-115.107	62.858	-0.173	-0.170
-114.093	-72.966	-0.105	-0.038
-113.078	-200.000	-0.035	0.192
-112.064	-180.750	0.108	-0.002
-111.049	79.745	-0.139	0.147
-110.034	154.168	-0.200	-0.271
-109.020	800.000	-0.069	-0.207
-108.005	304.897	-0.107	0.195
-106.991	-120.162	0.206	-0.035
-105.976	-27.470	0.329	0.188
-104.962	738.900	-0.092	0.244
-103.947	-90.956	0.234	-0.066
-102.932	-149.339	0.131	0.010
-101.918	362.862	0.138	-0.272
-100.903	-200.000	0.021	-0.214
-99.889	-42.708	-0.042	0.021
-98.874	-45.151	0.343	-0.168
-97.859	-19.793	0.128	-0.078
-96.845	586.100	0.144	0.347
-95.830	15.557	0.127	0.098
-94.816	-74.013	0.065	-0.023
-93.801	1.501	-0.251	-0.177
-92.786	-200.000	-0.013	-0.065
-91.772	-106.961	0.217	-0.047
-90.757	41.702	-0.041	-0.037
-89.743	487.483	-0.170	0.381
-88.728	-83.578	-0.182	0.057
-87.713	800.000	0.063	-0.196
-86.699	642.955	0.035	-0.087
-85.684	206.843	-0.162	-0.248
-84.670	-84.730	0.045	-0.014
-83.655	800.000	0.042	-0.136
-82.640	444.355	-0.108	-0.232
-81.626	-38.083	0.231	-0.120
-80.611	107.169	0.083	0.097
-79.597	-200.000	0.008	0.069
-78.582	79.448	0.094	-0.099
-77.567	-132.745	0.181	0.023
-76.553	290.570	0.088	0.156
-75.538	-200.000	-0.017	0.205
-74.524	63.387	0.089	-0.088
-73.509	215.809	-0.104	-0.163
-72.494	155.989	-0.161	0.218
-71.480	-152.037	0.470	0.034
-70.465	268.064	0.149	-0.257
-69.451	63.171	-0.115	-0.114
-68.436	337.181	0.079	-0.151
-67.422	-200.000	-0.027	-0.150
-66.407	197.678	-0.078	0.118
-65.392	-200.000	-0.006	0.129
-64.378	135.420	0.194	0.248
-63.363	-117.030	-0.100	0.018
-62.349	-121.493	0.224	0.037
-61.334	49.861	-1.089	-1.009
-60.319	-77.180	0.816	0.279
-59.305	-200.000	-0.172	-0.941
-58.290	160.325	0.664	0.910
-57.276	306.908	0.746	1.366
-56.261	-200.000	100.942	641.110
-55.246	621.898	1451.734	3588.603
-54.232	179.773	2671.011	3842.921
-53.217	111.810	2312.127	2741.436
-52.203	41.600	1919.984	1707.547
-51.188	35.068	1707.563	1468.666
-50.173	32.407	1663.510	1410.801
-49.159	51.453	1712.826	1597.786
-48.144	52.975	1729.109	1624.462
-47.130	34.773	1687.624	1449.049
-46.115	31.970	1673.026	1415.351
-45.100	31.799	1668.015	1409.772
-44.086	31.719	1665.287	1406.806
-43.071	31.799	1662.553	1405.043
-42.057	31.687	1660.516	1402.427
-41.042	31.786	1658.322	1401.254
-40.027	31.719	1656.450	1399.121
-39.013	31.753	1654.255	1397.462
-37.998	31.688	1652.846	1395.734
-36.984	31.776	1651.730	1395.390
-35.969	31.863	1650.082	1394.591
-34.954	31.959	1648.435	1393.854
-33.940	31.869	1646.601	1391.585
-32.925	31.864	1644.759	1389.934
-31.911	31.879	1642.911	1388.429
-30.896	31.919	1641.365	1387.361
-29.881	31.856	1639.711	1385.440
-28.867	31.809	1638.177	1383.744
-27.852	31.818	1636.517	1382.356
-26.838	31.841	1635.101	1381.270
-25.823	31.930	1633.730	1380.718
-24.809	31.959	1632.048	1379.452
-23.794	31.944	1631.198	1378.567
-22.779	31.916	1629.625	1376.978
-21.765	31.878	1627.778	1375.088
-20.750	31.895	1626.265	1373.879
-19.736	31.906	1624.632	1372.524
-18.721	31.934	1622.924	1371.233
-17.706	31.877	1622.207	1370.153
-16.692	31.893	1620.016	1368.365
-15.677	31.857	1618.772	1366.996
-14.663	31.924	1617.479	1366.340
-13.648	31.986	1615.617	1365.165
-12.633	31.881	1614.182	1363.137
-11.619	31.932	1612.853	1362.329
-10.604	31.879	1611.936	1361.114
-9.590	31.912	1610.432	1360.032
-8.575	31.896	1609.098	1358.733
-7.560	31.949	1607.721	1357.902
-6.546	31.933	1606.769	1356.928
-5.531	31.828	1606.118	1355.565
-4.517	31.910	1604.573	1354.802
-3.502	31.921	1602.888	1353.401
-2.487	31.959	1601.575	1352.514
-1.473	31.884	1590.318	1342.418
-0.458	29.584	1571.894	1310.514
0.556	23.784	1573.140	1282.246
1.571	21.760	1597.976	1287.519
2.586	21.179	1611.450	1293.953
3.600	19.687	1560.551	1242.261
4.615	12.050	1448.922	1102.133
5.629	2.705	1379.981	989.523
6.644	0.182	1369.277	965.596
7.659	0.086	1368.192	964.126
8.673	0.062	1367.724	963.557
9.688	0.030	1365.581	961.759
10.702	-0.049	1362.548	959.035
11.717	3.709	1370.873	988.896
12.731	13.340	1389.086	1064.176
13.746	20.342	1400.456	1118.049
14.761	22.033	1402.348	1130.353
15.775	22.257	1402.425	1131.762
16.790	22.174	1402.004	1130.783
17.804	22.333	1401.328	1131.163
18.819	22.474	1401.105	1131.791
19.834	22.595	1400.679	1132.120
20.848	22.648	1399.540	1131.438
21.863	22.625	1398.939	1130.705
22.877	22.598	1398.158	1129.800
23.892	22.661	1396.953	1129.134
24.907	22.592	1396.335	1128.091
25.921	22.537	1395.812	1127.219
26.936	22.523	1394.389	1125.882
27.950	22.634	1392.973	1125.346
28.965	22.717	1391.980	1124.970
29.980	22.692	1390.597	1123.595
30.994	22.583	1389.748	1122.120
32.009	22.650	1388.583	1121.501
33.023	22.530	1387.817	1120.019
34.038	22.596	1386.318	1119.135
35.053	22.571	1385.719	1118.391
36.067	22.639	1384.375	1117.636
37.082	22.564	1383.839	1116.633
38.096	22.721	1382.185	1116.191
39.111	22.654	1381.589	1115.187
40.126	22.594	1381.281	1114.459
41.140	22.666	1380.253	1113.986
42.155	22.610	1380.311	1113.585
43.169	22.584	1379.981	1113.055
44.184	22.562	1379.883	1112.738
45.199	22.566	1379.628	1112.457
46.213	22.583	1378.835	1111.826
47.228	22.616	1378.042	1111.300
48.242	22.661	1376.770	1110.458
49.257	22.686	1375.160	1109.217
50.271	22.648	1373.821	1107.800
51.286	22.642	1372.164	1106.326
52.301	22.613	1371.277	1105.335
53.315	22.645	1370.253	1104.609
54.330	22.619	1369.833	1104.010
55.344	22.639	1368.537	1102.998
56.359	22.630	1367.214	1101.776
57.374	22.623	1366.667	1101.193
58.388	22.616	1366.170	1100.649
59.403	22.634	1365.646	1100.244
60.417	22.631	1365.336	1099.877
61.432	22.676	1363.699	1098.744
62.447	22.669	1363.060	1098.086
63.461	22.554	1362.839	1097.094
64.476	22.667	1360.849	1096.097
65.490	22.656	1360.315	1095.503
66.505	22.661	1358.606	1094.062
67.520	22.726	1357.265	1093.285
68.534	22.718	1356.399	1092.444
69.549	22.639	1355.639	1091.245
70.563	22.691	1354.491	1090.551
71.578	22.580	1353.721	1089.146
72.593	22.768	1352.367	1089.119
73.607	22.635	1352.318	1088.161
74.622	22.617	1351.028	1086.915
75.636	22.704	1350.101	1086.609
76.651	22.620	1349.780	1085.742
77.666	22.563	1349.548	1085.105
78.680	22.594	1348.645	1084.477
79.695	22.643	1348.101	1084.242
80.709	22.681	1347.032	1083.519
81.724	22.640	1346.382	1082.651
82.739	22.667	1345.273	1081.830
83.753	22.615	1344.270	1080.606
84.768	22.682	1343.036	1079.929
85.782	22.615	1342.389	1078.901
86.797	22.689	1340.685	1077.891
87.812	22.725	1339.635	1077.173
88.826	22.735	1338.724	1076.403
89.841	22.695	1337.307	1074.929
90.855	22.769	1336.352	1074.515
91.870	22.685	1335.819	1073.476
92.884	22.742	1334.911	1073.003
93.899	22.693	1334.173	1072.018
94.914	22.815	1333.224	1071.897
95.928	22.684	1332.727	1070.608
96.943	22.742	1332.020	1070.299
97.957	22.753	1330.664	1069.179
98.972	22.700	1330.204	1068.394
99.987	22.730	1328.748	1067.315
101.001	22.689	1328.101	1066.454
102.016	22.813	1326.724	1066.001
103.030	22.753	1326.422	1065.299
104.045	22.639	1326.113	1064.269
105.060	22.747	1324.594	1063.606
106.074	22.711	1323.612	1062.510
107.089	22.754	1322.976	1062.165
108.103	22.772	1321.563	1061.041
109.118	22.744	1320.482	1059.910
110.133	22.791	1319.236	1059.102
111.147	22.783	1318.109	1058.054
112.162	22.804	1316.889	1057.106
113.176	22.786	1315.748	1055.989
114.191	22.724	1315.126	1055.029
115.206	22.798	1314.004	1054.473
116.220	22.842	1312.276	1053.256
117.235	22.769	1311.738	1052.297
118.249	22.748	1311.110	1051.578
119.264	22.751	1310.330	1050.875
120.279	22.769	1309.549	1050.264
121.293	22.848	1308.442	1049.750
122.308	22.878	1307.356	1048.967
123.322	22.870	1306.508	1048.144
124.337	22.855	1306.045	1047.592
125.352	22.958	1304.359	1046.756
126.366	22.861	1303.992	1045.793
127.381	22.962	1302.849	1045.385
128.395	22.868	1302.173	1044.192
129.410	22.803	1301.074	1042.834
130.424	22.931	1300.489	1043.028
131.439	22.843	1299.217	1041.399
132.454	22.825	1298.614	1040.719
133.468	22.835	1297.730	1039.975
134.483	22.845	1297.413	1039.685
135.497	22.843	1296.333	1038.720
136.512	22.793	1295.562	1037.716
137.527	22.881	1294.166	1037.021
138.541	22.719	1292.901	1034.964
139.556	22.745	1291.630	1034.009
140.570	22.769	1290.998	1033.551
141.585	22.720	1289.845	1032.249
142.600	22.757	1288.925	1031.639
143.614	22.871	1288.288	1031.706
144.629	22.711	1286.868	1029.543
145.643	22.751	1285.790	1028.822
146.658	22.724	1285.024	1027.961
147.673	22.790	1283.915	1027.368
148.687	22.798	1282.923	1026.529
149.702	22.791	1281.884	1025.567
150.716	22.775	1280.704	1024.437
151.731	22.756	1280.015	1023.688
152.746	22.792	1278.456	1022.555
153.760	22.744	1277.704	1021.589
154.775	22.773	1276.638	1020.812
155.789	22.860	1275.760	1020.524
156.804	22.810	1274.890	1019.450
157.819	22.798	1274.139	1018.690
158.833	22.738	1273.539	1017.772
159.848	22.996	1272.179	1018.084
160.862	22.897	1271.918	1017.216
161.877	22.914	1270.935	1016.434
162.892	22.897	1270.126	1015.598
163.906	22.890	1269.577	1015.034
164.921	22.902	1268.818	1014.405
165.935	22.935	1267.827	1013.710
166.950	22.969	1267.161	1013.285
167.964	22.975	1266.759	1012.910
168.979	22.861	1266.324	1011.817
169.994	22.988	1265.287	1011.626
171.008	22.928	1264.809	1010.813
172.023	22.999	1263.793	1010.312
173.037	22.919	1263.691	1009.684
174.052	22.874	1262.586	1008.455
175.067	22.966	1261.597	1008.103
176.081	22.981	1261.167	1007.754
177.096	22.985	1260.184	1006.901
178.110	22.949	1258.993	1005.660
179.125	23.053	1257.929	1005.311
180.140	23.048	1257.061	1004.501
181.154	22.968	1256.123	1003.206
182.169	22.997	1255.103	1002.466
183.183	23.096	1253.355	1001.546
184.198	22.857	1253.436	1000.168
185.213	22.958	1252.241	999.694
186.227	23.027	1251.127	999.108
187.242	23.025	1250.451	998.467
188.256	23.064	1249.191	997.592
189.271	23.081	1248.453	997.014
190.286	23.082	1247.828	996.429
191.300	22.992	1247.456	995.537
192.315	23.023	1246.974	995.240
193.329	22.976	1246.764	994.721
194.344	23.050	1246.082	994.505
195.359	22.966	1245.402	993.403
196.373	23.019	1244.979	993.275
197.388	22.998	1244.488	992.677
198.402	22.972	1244.093	992.130
199.417	22.956	1243.951	991.838
200.432	22.970	1243.312	991.316
201.446	22.916	1242.325	990.141
202.461	22.962	1241.679	989.798
203.475	22.983	1241.303	989.525
204.490	23.076	1239.723	988.701
205.504	23.038	1238.762	987.631
206.519	23.182	1237.631	987.444
207.534	23.063	1237.126	986.295
208.548	23.020	1236.249	985.269
209.563	23.079	1235.469	984.890
210.577	23.161	1234.852	984.765
211.592	23.070	1234.100	983.572
212.607	23.094	1233.207	982.908
213.621	23.264	1231.849	982.680
214.636	23.091	1231.212	981.124
215.650	23.197	1231.018	981.472
216.665	23.101	1229.990	980.035
217.680	23.079	1228.855	978.920
218.694	23.122	1228.391	978.701
219.709	23.144	1227.420	977.963
220.723	23.221	1226.427	977.509
221.738	23.220	1225.512	976.689
222.753	23.113	1225.107	975.692
223.767	23.209	1224.683	975.797
224.782	23.207	1223.820	975.010
225.796	23.251	1223.833	975.175
226.811	23.159	1223.112	974.008
227.826	23.219	1222.516	973.781
228.840	23.289	1221.723	973.445
229.855	23.212	1220.895	972.279
230.869	23.302	1219.967	971.948
231.884	23.388	1219.271	971.778
232.899	23.216	1218.803	970.376
233.913	23.242	1218.515	970.203
234.928	23.372	1217.418	969.955
235.942	23.436	1217.013	969.895
236.957	23.419	1216.092	968.983
237.972	23.311	1215.659	967.961
238.986	23.345	1214.752	967.341
240.001	23.311	1214.348	966.746
241.015	23.358	1213.469	966.220
242.030	23.386	1212.845	965.790
243.045	23.394	1211.965	965.048
244.059	23.430	1211.199	964.546
245.074	23.442	1209.969	963.548
246.088	23.435	1209.602	963.132
247.103	23.404	1208.783	962.228
248.117	23.441	1207.615	961.410
249.132	23.500	1207.414	961.489
250.147	23.474	1206.551	960.576
251.161	23.428	1206.159	959.926
252.176	23.508	1205.050	959.394
253.190	23.528	1204.346	958.857
254.205	23.599	1203.489	958.470
255.220	23.410	1203.649	957.494
256.234	23.525	1202.864	957.403
257.249	23.590	1201.691	956.739
258.263	23.502	1201.702	956.186
259.278	23.571	1201.150	956.035
260.293	23.537	1200.416	955.184
261.307	23.561	1200.123	954.995
262.322	23.546	1199.489	954.325
263.336	23.547	1198.606	953.546
264.351	23.646	1197.854	953.394
265.366	23.528	1197.385	952.300
266.380	23.478	1197.196	951.797
267.395	23.553	1196.259	951.371
268.409	23.378	1195.642	949.858
269.424	23.531	1195.240	950.274
270.439	23.622	1194.347	949.967
271.453	23.529	1193.656	948.835
272.468	23.616	1192.541	948.332
273.482	23.569	1192.164	947.696
274.497	23.623	1191.807	947.616
275.512	23.638	1191.264	947.183
276.526	23.668	1190.373	946.549
277.541	23.674	1189.773	946.019
278.555	23.717	1189.210	945.717
279.570	23.712	1188.435	944.991
280.585	23.633	1187.601	943.822
281.599	23.752	1186.767	943.710
282.614	23.744	1185.781	942.800
283.628	23.656	1184.934	941.577
284.643	23.826	1183.765	941.463
285.657	23.748	1183.072	940.419
286.672	23.743	1182.180	939.600
287.687	23.758	1181.546	939.091
288.701	23.742	1181.222	938.669
289.716	23.775	1180.162	937.916
290.730	23.724	1179.590	937.111
291.745	23.686	1178.970	936.333
292.760	23.768	1178.443	936.263
293.774	23.739	1178.120	935.771
294.789	23.834	1177.245	935.491
295.803	23.854	1176.814	935.171
296.818	23.742	1176.358	934.139
297.833	23.833	1175.184	933.600
298.847	23.919	1174.738	933.615
299.862	23.850	1173.938	932.537
300.876	23.859	1173.432	932.099
301.891	23.925	1172.815	931.873
302.906	24.009	1171.802	931.424
303.920	23.965	1171.448	930.830
304.935	23.906	1170.858	929.973
305.949	23.963	1170.102	929.585
306.964	23.977	1169.578	929.162
307.979	23.983	1168.747	928.451
308.993	24.069	1167.926	928.166
310.008	24.006	1167.310	927.265
311.022	23.924	1167.021	926.522
312.037	23.930	1166.154	925.785
313.052	23.934	1165.379	925.111
314.066	24.103	1164.270	925.024
315.081	23.910	1163.752	923.531
316.095	23.913	1163.288	923.094
317.110	24.060	1162.203	922.912
318.125	24.115	1161.963	922.928
319.139	24.042	1161.164	921.834
320.154	24.106	1160.532	921.579
321.168	24.114	1159.777	920.941
322.183	24.206	1159.236	920.907
323.197	24.031	1158.880	919.635
324.212	24.016	1158.383	919.084
325.227	24.082	1158.128	919.141
326.241	24.190	1157.332	918.988
327.256	24.072	1156.884	917.940
328.270	24.175	1155.778	917.512
329.285	24.132	1154.947	916.551
330.300	24.203	1154.428	916.420
331.314	24.201	1153.178	915.337
332.329	24.150	1152.409	914.383
333.343	24.230	1151.399	913.912
334.358	24.219	1150.590	913.132
335.373	24.292	1149.995	912.957
336.387	24.328	1149.205	912.429
337.402	24.262	1148.799	911.691
338.416	24.315	1148.301	911.487
339.431	24.295	1147.733	910.852
340.446	24.176	1147.348	909.857
341.460	24.363	1146.623	910.154
342.475	24.305	1145.447	908.846
343.489	24.456	1144.369	908.682
344.504	24.361	1143.847	907.700
345.519	24.329	1142.933	906.735
346.533	24.445	1142.545	906.933
347.548	24.426	1141.693	906.082
348.562	24.425	1140.660	905.174
349.577	24.243	1140.606	904.128
350.592	24.183	1139.789	903.098
351.606	24.263	1138.499	902.402
352.621	24.382	1137.957	902.496
353.635	24.350	1137.651	902.009
354.650	24.555	1136.978	902.431
355.665	24.354	1136.413	900.887
356.679	24.442	1135.751	900.731
357.694	24.446	1135.239	900.263
358.708	24.529	1134.537	900.047
359.723	24.443	1133.749	898.904
360.738	24.365	1133.217	898.014
361.752	24.413	1132.578	897.670
362.767	24.466	1131.896	897.317
363.781	24.532	1131.605	897.336
364.796	24.494	1131.011	896.596
365.810	24.634	1129.880	896.322
366.825	24.559	1129.791	895.797
367.840	24.691	1129.051	895.792
368.854	24.708	1128.353	895.242
369.869	24.580	1128.002	894.244
370.883	24.706	1127.151	894.121
371.898	24.588	1126.399	892.853
372.913	24.674	1125.727	892.674
373.927	24.728	1125.324	892.545
374.942	24.786	1124.583	892.168
375.956	24.599	1124.477	891.069
376.971	24.641	1123.615	890.520
377.986	24.718	1122.893	890.249
379.000	24.729	1122.775	890.135
380.015	24.829	1122.031	889.960
381.029	24.726	1121.130	888.658
382.044	24.786	1120.439	888.328
383.059	24.856	1120.131	888.352
384.073	24.869	1119.279	887.663
385.088	25.007	1117.944	887.209
386.102	24.899	1117.459	886.213
387.117	24.742	1116.601	884.677
388.132	24.751	1116.030	884.189
389.146	24.698	1115.450	883.388
390.161	24.728	1114.833	882.974
391.175	24.795	1114.413	882.893
392.190	24.822	1113.169	881.962
393.205	24.861	1112.592	881.618
394.219	24.904	1111.939	881.233
395.234	24.860	1111.224	880.372
396.248	24.952	1110.209	879.943
397.263	24.951	1109.322	879.159
398.278	24.891	1109.260	878.735
399.292	24.936	1108.763	878.486
400.307	25.053	1107.861	878.268
401.321	25.044	1107.050	877.500
402.336	24.881	1106.512	876.200
403.350	24.947	1105.885	875.951
404.365	25.030	1104.905	875.500
405.380	25.115	1104.252	875.322
406.394	25.155	1103.336	874.713
407.409	25.071	1102.633	873.667
408.423	25.132	1102.115	873.479
409.438	25.138	1101.312	872.795
410.453	25.172	1100.693	872.391
411.467	25.178	1099.852	871.678
412.482	25.248	1099.200	871.424
413.496	25.203	1098.708	870.734
414.511	25.145	1097.876	869.717
415.526	25.005	1097.955	869.024
416.540	25.114	1097.350	868.999
417.555	25.179	1096.769	868.774
418.569	25.141	1096.258	868.108
419.584	25.322	1096.007	868.712
420.599	25.185	1095.495	867.565
421.613	146.164	1403.406	1795.762
422.628	135.358	1448.239	1795.861
