DTS Sentinel unit serial number:	SN413079Multiplexer serial number:	ORYXHardware model number:	OX4-SRSoftware version number:	ORYX F/W v4.00 Oryx Data Collector v3.7.2.0data status	okinstallation	princeton_trtdifferential loss correction	single-endedforward channel	channel 2reverse channel	N/Adate	2019/09/12time	06:13:11forward acquisition time	60.00reverse acquisition time	0.00gamma	496.2192k internal	0.2325k external	0.2325temperature offset calibration	1.0061default loss term (dB/km)	0.3790temperature slope calibration	1.0000multiplexer offset coefficient	1.0000multiplexer slope coefficient	1.0000fibre end	0.00T internal ref (°C)	32.12T ext. ref 1 (°C)	1.56T ext. ref 2 (°C)	27.39length (m)	temperature (°C)	Stokes	anti-Stokes-747.200	-107.801	0.221	0.049
-746.185	81.700	-0.068	0.074
-745.171	1.343	0.160	-0.116
-744.156	584.208	-0.024	-0.059
-743.142	-116.102	-0.147	-0.028
-742.127	-5.471	-0.269	0.187
-741.112	274.567	-0.183	0.326
-740.098	94.019	0.249	0.285
-739.083	-46.044	-0.210	-0.104
-738.069	210.507	-0.345	0.547
-737.054	78.543	-0.190	0.204
-736.039	-50.963	-0.082	0.039
-735.025	-73.082	-0.171	0.063
-734.010	800.000	-0.080	-0.270
-732.996	196.509	0.081	0.124
-731.981	800.000	0.090	-0.382
-730.966	-44.961	-0.042	-0.021
-729.952	241.361	0.137	-0.231
-728.937	315.482	-0.187	0.355
-727.923	-42.640	0.112	-0.057
-726.908	745.344	-0.060	-0.164
-725.894	-144.342	0.191	0.018
-724.879	153.751	0.357	-0.494
-723.864	-110.290	-0.308	0.065
-722.850	-70.430	0.014	-0.005
-721.835	-122.540	-0.249	0.041
-720.821	90.635	-0.156	-0.177
-719.806	-64.490	-0.118	0.049
-718.791	800.000	0.142	-0.403
-717.777	186.167	0.224	-0.336
-716.762	75.634	0.046	-0.049
-715.748	300.977	0.037	-0.070
-714.733	-21.799	-0.254	0.156
-713.718	42.626	-0.264	0.242
-712.704	-17.930	-0.126	-0.080
-711.689	800.000	0.053	-0.174
-710.675	-200.000	-0.048	-0.219
-709.660	143.786	0.047	-0.064
-708.645	-13.481	0.135	-0.088
-707.631	391.653	0.148	-0.310
-706.616	-91.900	0.057	-0.016
-705.602	16.428	-0.202	-0.161
-704.587	800.000	0.065	-0.239
-703.572	-200.000	0.007	0.118
-702.558	800.000	-0.072	0.203
-701.543	321.174	-0.146	0.279
-700.529	343.755	-0.042	0.083
-699.514	145.647	-0.126	-0.170
-698.499	68.185	-0.203	-0.210
-697.485	19.243	0.093	-0.076
-696.470	14.850	0.308	0.243
-695.456	-200.000	-0.036	-0.211
-694.441	-5.894	0.132	-0.091
-693.426	366.577	-0.042	0.085
-692.412	41.390	0.117	-0.106
-691.397	-68.921	-0.150	0.058
-690.383	192.925	0.094	-0.143
-689.368	92.044	0.100	0.113
-688.354	800.000	-0.078	-0.221
-687.339	179.684	-0.074	-0.109
-686.324	20.076	-0.289	-0.234
-685.310	150.603	0.087	-0.119
-684.295	-200.000	0.018	-0.102
-683.281	50.106	0.231	-0.220
-682.266	800.000	0.033	0.136
-681.251	-87.054	0.236	-0.072
-680.237	506.789	0.057	-0.133
-679.222	169.357	-0.161	0.232
-678.208	33.805	0.269	0.236
-677.193	771.305	0.113	0.311
-676.178	-33.897	0.084	-0.047
-675.164	-162.638	0.193	-0.010
-674.149	800.000	0.095	-0.371
-673.135	-56.312	-0.172	0.077
-672.120	-80.964	0.209	0.070
-671.105	-200.000	0.010	0.124
-670.091	295.557	0.038	0.070
-669.076	-87.133	-0.302	-0.092
-668.062	-115.397	0.366	-0.070
-667.047	800.000	0.030	-0.112
-666.032	-121.296	0.198	0.033
-665.018	-190.056	-0.071	-0.001
-664.003	-67.454	0.087	0.034
-662.989	-122.739	-0.325	0.053
-661.974	30.004	0.235	-0.201
-660.959	-37.852	0.347	0.186
-659.945	6.969	0.158	0.118
-658.930	89.815	-0.138	0.155
-657.916	53.060	0.119	-0.115
-656.901	-63.245	-0.242	-0.100
-655.886	-122.345	0.057	0.009
-654.872	-70.878	-0.195	-0.074
-653.857	205.023	0.170	0.266
-652.843	800.000	0.039	-0.151
-651.828	-24.648	-0.133	-0.079
-650.814	596.982	-0.133	0.332
-649.799	189.725	0.076	-0.115
-648.784	-200.000	0.020	-0.185
-647.770	-121.752	-0.144	0.024
-646.755	-102.688	-0.429	-0.103
-645.741	102.364	-0.027	0.032
-644.726	-200.000	0.009	0.223
-643.711	-117.098	0.042	0.008
-642.697	49.038	-0.178	-0.168
-641.682	-138.166	0.229	0.026
-640.668	-200.000	-0.007	0.130
-639.653	187.723	0.047	-0.070
-638.638	-86.213	-0.128	-0.040
-637.624	800.000	-0.023	-0.068
-636.609	-7.683	-0.262	0.178
-635.595	-55.323	-0.142	0.064
-634.580	62.196	0.332	-0.333
-633.565	-20.169	-0.172	0.106
-632.551	6.246	0.044	-0.033
-631.536	-56.749	-0.484	-0.215
-630.522	41.326	-0.143	-0.130
-629.507	-18.954	-0.172	0.107
-628.492	307.262	0.111	-0.209
-627.478	129.704	0.107	-0.137
-626.463	-28.486	0.289	-0.167
-625.449	-46.859	-0.217	-0.106
-624.434	781.207	-0.040	0.111
-623.419	-67.615	-0.321	-0.126
-622.405	107.747	0.204	-0.244
-621.390	8.229	0.462	0.349
-620.376	-52.061	0.138	0.064
-619.361	-156.085	0.033	-0.002
-618.346	800.000	0.016	-0.065
-617.332	13.324	-0.153	-0.119
-616.317	-200.000	-0.041	0.385
-615.303	-104.364	0.044	-0.010
-614.288	-94.216	0.265	0.073
-613.273	21.047	-0.427	-0.348
-612.259	-11.362	-0.119	0.079
-611.244	-23.246	0.119	-0.072
-610.230	-78.704	-0.233	0.080
-609.215	79.195	0.165	-0.178
-608.201	-34.245	0.263	-0.145
-607.186	-89.967	0.179	-0.052
-606.171	-200.000	-0.047	0.349
-605.157	351.565	0.284	0.564
-604.142	-38.457	-0.343	-0.182
-603.128	-15.727	0.183	-0.117
-602.113	39.102	-0.188	-0.169
-601.098	113.208	-0.131	0.160
-600.084	-200.000	-0.006	-0.044
-599.069	-13.736	-0.311	0.202
-598.055	-200.000	0.012	0.123
-597.040	800.000	0.100	0.311
-596.025	-4.523	-0.242	-0.168
-595.011	-200.000	0.014	0.277
-593.996	800.000	0.064	0.245
-592.982	-98.031	-0.068	-0.018
-591.967	339.494	-0.051	-0.099
-590.952	-200.000	0.013	0.204
-589.938	800.000	0.048	-0.168
-588.923	2.891	0.207	-0.151
-587.909	18.538	0.237	0.190
-586.894	46.114	0.080	0.074
-585.879	4.115	0.170	-0.125
-584.865	-200.000	0.049	-0.230
-583.850	-200.000	0.007	-0.052
-582.836	-200.000	-0.041	-0.243
-581.821	-200.000	0.022	-0.213
-580.806	-121.893	-0.119	0.020
-579.792	-83.260	-0.338	-0.109
-578.777	2.160	-0.071	0.051
-577.763	-15.611	0.127	-0.081
-576.748	-19.837	-0.168	0.104
-575.733	-200.000	-0.006	0.073
-574.719	-200.000	0.001	-0.341
-573.704	262.877	-0.054	0.094
-572.690	-36.157	0.217	-0.117
-571.675	71.022	-0.020	0.021
-570.661	-200.000	-0.063	0.283
-569.646	303.446	0.113	-0.211
-568.631	22.952	0.152	-0.125
-567.617	-30.807	0.087	0.050
-566.602	270.489	-0.071	0.126
-565.588	-81.772	0.127	-0.042
-564.573	-68.487	-0.214	0.083
-563.558	-200.000	-0.008	0.056
-562.544	36.571	-0.271	-0.240
-561.529	370.823	0.038	-0.077
-560.515	87.575	-0.302	-0.335
-559.500	-103.355	-0.298	-0.070
-558.485	800.000	0.019	0.057
-557.471	-106.548	-0.442	-0.099
-556.456	-70.827	0.134	-0.051
-555.442	-200.000	-0.015	0.394
-554.427	-200.000	-0.009	-0.045
-553.412	800.000	-0.021	-0.082
-552.398	245.179	0.121	-0.203
-551.383	800.000	0.095	-0.291
-550.369	19.839	0.202	0.163
-549.354	800.000	-0.016	-0.060
-548.339	40.803	0.069	-0.062
-547.325	208.357	-0.243	0.381
-546.310	-200.000	0.006	-0.068
-545.296	-200.000	-0.007	-0.038
-544.281	-200.000	0.052	0.237
-543.266	-160.167	0.056	-0.003
-542.252	-26.997	-0.231	0.135
-541.237	-41.803	0.177	0.091
-540.223	774.471	0.017	-0.047
-539.208	800.000	-0.085	-0.243
-538.193	61.185	0.179	-0.178
-537.179	800.000	-0.105	0.343
-536.164	-163.629	-0.299	-0.014
-535.150	216.690	0.094	0.150
-534.135	800.000	0.098	-0.331
-533.121	134.118	-0.079	0.103
-532.106	800.000	0.116	0.384
-531.091	15.215	0.115	0.090
-530.077	-91.681	-0.083	-0.024
-529.062	100.278	0.297	-0.344
-528.048	44.672	0.141	-0.130
-527.033	229.960	0.169	0.277
-526.018	-2.383	0.253	-0.177
-525.004	542.494	0.132	0.314
-523.989	-86.745	-0.041	-0.012
-522.975	753.450	-0.049	0.132
-521.960	312.383	0.120	0.225
-520.945	-98.418	-0.335	-0.086
-519.931	86.331	0.093	0.102
-518.916	-200.000	-0.012	-0.252
-517.902	100.205	-0.200	-0.232
-516.887	-124.012	-0.098	-0.015
-515.872	83.927	-0.180	-0.196
-514.858	51.753	0.166	-0.158
-513.843	-200.000	-0.032	-0.235
-512.829	-57.148	0.174	0.077
-511.814	55.568	-0.151	0.146
-510.799	-105.005	-0.275	-0.063
-509.785	-52.038	-0.070	0.032
-508.770	-164.828	0.355	-0.016
-507.756	60.408	0.142	-0.141
-506.741	23.190	-0.118	0.097
-505.726	123.453	0.077	-0.097
-504.712	-104.549	-0.030	-0.007
-503.697	-200.000	-0.033	0.477
-502.683	406.925	0.111	0.234
-501.668	-77.392	-0.219	-0.076
-500.653	298.414	0.139	0.256
-499.639	800.000	-0.133	0.379
-498.624	-20.551	0.220	0.135
-497.610	-157.220	0.105	0.006
-496.595	204.133	0.023	0.036
-495.581	66.253	0.068	0.069
-494.566	385.869	0.094	0.193
-493.551	-200.000	-0.008	-0.133
-492.537	-135.451	-0.349	-0.042
-491.522	369.006	0.033	0.067
-490.508	-200.000	-0.063	0.405
-489.493	800.000	0.047	0.155
-488.478	-200.000	-0.042	0.000
-487.464	146.219	0.043	-0.057
-486.449	-19.389	-0.185	0.115
-485.435	-200.000	-0.046	0.492
-484.420	-137.921	0.211	-0.024
-483.405	319.337	0.035	0.067
-482.391	-19.857	0.160	-0.099
-481.376	-141.438	-0.446	0.045
-480.362	800.000	-0.053	-0.220
-479.347	31.663	-0.226	0.194
-478.332	743.728	-0.071	0.191
-477.318	-108.892	0.350	0.075
-476.303	-14.107	-0.224	0.144
-475.289	749.708	-0.093	0.250
-474.274	189.600	-0.214	0.321
-473.259	-134.219	-0.259	0.032
-472.245	31.280	-0.427	0.366
-471.230	800.000	0.049	-0.209
-470.216	-200.000	-0.015	-0.406
-469.201	800.000	0.062	0.239
-468.186	199.644	0.135	0.207
-467.172	339.370	-0.112	0.219
-466.157	-107.856	0.121	-0.026
-465.143	280.393	-0.164	0.292
-464.128	-13.058	0.301	-0.195
-463.113	354.134	-0.042	-0.083
-462.099	-35.446	0.293	0.159
-461.084	-85.824	0.129	-0.040
-460.070	144.368	-0.155	-0.207
-459.055	210.084	-0.046	-0.073
-458.040	356.768	-0.097	-0.194
-457.026	-12.844	0.181	-0.118
-456.011	-44.010	-0.129	-0.065
-454.997	-7.364	-0.207	0.140
-453.982	-83.985	-0.304	0.096
-452.968	161.618	-0.046	0.064
-451.953	-20.321	0.170	0.105
-450.938	-133.272	0.143	0.018
-449.924	-13.556	0.149	-0.096
-448.909	100.864	-0.159	0.184
-447.895	142.009	0.103	0.136
-446.880	62.327	0.136	-0.135
-445.865	800.000	-0.028	-0.100
-444.851	-116.156	0.549	-0.102
-443.836	27.634	0.338	0.284
-442.822	134.301	-0.135	0.175
-441.807	-130.855	0.303	0.040
-440.792	-114.038	0.311	-0.060
-439.778	129.782	-0.253	-0.323
-438.763	-200.000	0.003	-0.141
-437.749	102.272	-0.088	0.103
-436.734	573.240	-0.055	0.134
-435.719	-200.000	0.002	-0.288
-434.705	23.375	-0.253	-0.208
-433.690	-44.499	0.083	0.042
-432.676	800.000	-0.020	-0.065
-431.661	-92.926	0.305	-0.085
-430.646	800.000	-0.056	0.171
-429.632	169.335	-0.046	0.066
-428.617	-200.000	0.023	0.204
-427.603	589.037	-0.101	-0.249
-426.588	-200.000	-0.018	-0.098
-425.573	-77.088	-0.104	-0.036
-424.559	-200.000	-0.018	0.180
-423.544	-4.355	-0.200	-0.138
-422.530	266.289	0.049	0.085
-421.515	800.000	-0.134	0.410
-420.500	-200.000	-0.020	0.170
-419.486	59.503	0.269	0.265
-418.471	38.058	-0.047	0.042
-417.457	-75.919	0.315	0.111
-416.442	-100.992	-0.265	-0.065
-415.428	-200.000	-0.176	0.000
-414.413	800.000	0.052	0.179
-413.398	-161.278	0.045	0.002
-412.384	12.800	0.097	0.075
-411.369	-30.057	-0.200	-0.113
-410.355	-200.000	0.026	-0.254
-409.340	-200.000	0.003	0.066
-408.325	-0.105	0.176	0.125
-407.311	282.969	0.156	0.279
-406.296	-68.827	0.117	-0.045
-405.282	-33.229	-0.354	0.195
-404.267	-168.724	0.110	0.004
-403.252	800.000	-0.043	-0.170
-402.238	-38.349	0.167	-0.088
-401.223	-109.154	0.194	0.041
-400.209	-98.198	0.193	0.049
-399.194	-91.005	0.266	-0.076
-398.179	346.472	-0.094	0.183
-397.165	800.000	0.157	-0.450
-396.150	-200.000	-0.020	-0.145
-395.136	-153.228	0.025	0.002
-394.121	-200.000	-0.002	-0.230
-393.106	-10.182	-0.252	-0.167
-392.092	-200.000	0.001	-0.009
-391.077	275.405	-0.112	0.197
-390.063	57.545	0.080	-0.078
-389.048	14.266	-0.099	-0.077
-388.033	-7.801	0.179	-0.120
-387.019	-125.585	-0.219	-0.033
-386.004	167.767	0.178	-0.252
-384.990	-200.000	-0.047	0.359
-383.975	-96.664	-0.128	-0.034
-382.960	342.502	-0.077	-0.149
-381.946	-200.000	0.026	-0.195
-380.931	170.531	0.106	0.151
-379.917	-200.000	0.221	-0.001
-378.902	800.000	-0.123	-0.346
-377.888	14.563	-0.061	0.048
-376.873	-4.131	0.372	0.256
-375.858	-128.939	-0.355	0.050
-374.844	-112.714	-0.161	0.032
-373.829	-179.384	0.157	-0.003
-372.815	11.124	0.131	-0.099
-371.800	-86.419	-0.038	-0.012
-370.785	130.505	0.193	-0.247
-369.771	-44.173	0.339	-0.169
-368.756	-200.000	-0.011	0.302
-367.742	261.695	0.134	0.231
-366.727	156.050	-0.075	0.103
-365.712	100.663	0.132	0.152
-364.698	-43.374	0.368	-0.185
-363.683	592.489	0.081	0.199
-362.669	-101.798	-0.262	-0.063
-361.654	-119.428	0.327	0.056
-360.639	266.183	-0.062	0.108
-359.625	-200.000	-0.021	0.110
-358.610	-95.136	0.255	-0.068
-357.596	-23.584	0.133	-0.079
-356.581	800.000	0.126	-0.370
-355.566	-124.950	-0.187	-0.029
-354.552	800.000	0.089	0.348
-353.537	27.309	-0.304	0.254
-352.523	11.164	0.182	0.139
-351.508	221.019	-0.177	-0.283
-350.493	-200.000	-0.077	-0.361
-349.479	-102.936	-0.152	0.036
-348.464	-24.921	0.114	0.067
-347.450	800.000	-0.073	0.267
-346.435	166.215	0.257	-0.362
-345.420	-200.000	-0.056	-0.249
-344.406	-162.510	0.210	-0.010
-343.391	749.281	-0.104	-0.279
-342.377	140.260	0.010	-0.013
-341.362	242.932	0.241	0.400
-340.348	52.585	0.052	0.050
-339.333	252.046	0.069	-0.117
-338.318	-118.738	-0.336	-0.059
-337.304	-200.000	-0.042	-0.194
-336.289	-68.055	0.351	-0.136
-335.275	467.442	-0.087	0.194
-334.260	-79.902	-0.496	0.165
-333.245	-46.270	-0.200	0.098
-332.231	10.596	0.161	0.122
-331.216	13.319	-0.182	-0.140
-330.202	-157.958	-0.182	0.011
-329.187	-86.491	-0.209	-0.064
-328.172	-200.000	-0.015	-0.487
-327.158	-19.574	0.326	0.200
-326.143	-115.505	-0.524	0.098
-325.129	-106.722	0.158	-0.035
-324.114	45.140	-0.206	-0.188
-323.099	102.343	0.202	-0.235
-322.085	-50.464	-0.500	0.234
-321.070	-78.680	0.265	0.090
-320.056	28.718	-0.049	0.041
-319.041	-200.000	-0.018	0.228
-318.026	411.805	0.068	0.144
-317.012	800.000	0.024	-0.099
-315.997	-181.902	-0.137	-0.003
-314.983	-200.000	-0.026	0.179
-313.968	-134.643	0.067	0.008
-312.953	-81.532	0.165	0.054
-311.939	537.822	-0.086	0.203
-310.924	-200.000	0.024	-0.109
-309.910	-200.000	0.051	-0.378
-308.895	800.000	0.050	-0.187
-307.880	-127.291	-0.193	-0.028
-306.866	-200.000	0.029	0.292
-305.851	33.797	0.116	-0.100
-304.837	-200.000	-0.000	0.054
-303.822	800.000	0.037	0.122
-302.807	-17.945	-0.089	0.055
-301.793	-148.400	0.041	0.003
-300.778	167.173	0.187	0.263
-299.764	10.296	-0.069	-0.052
-298.749	800.000	-0.071	-0.263
-297.735	-99.840	0.063	0.016
-296.720	-200.000	-0.002	0.142
-295.705	47.298	0.092	-0.085
-294.691	-88.224	-0.347	0.103
-293.676	34.598	-0.091	0.079
-292.662	-45.188	0.149	-0.074
-291.647	800.000	0.061	0.170
-290.632	593.737	-0.120	0.293
-289.618	-77.588	0.183	-0.063
-288.603	-17.162	-0.128	-0.080
-287.589	-23.968	-0.063	-0.037
-286.574	-98.970	-0.284	-0.071
-285.559	738.609	-0.068	0.180
-284.545	236.993	0.135	-0.222
-283.530	-10.732	-0.152	-0.100
-282.516	220.128	0.102	0.162
-281.501	800.000	0.049	0.204
-280.486	-200.000	-0.002	-0.079
-279.472	188.316	0.176	0.261
-278.457	-74.716	0.042	-0.015
-277.443	-200.000	0.002	-0.214
-276.428	248.972	0.061	0.102
-275.413	-200.000	-0.045	-0.335
-274.399	800.000	0.108	0.343
-273.384	329.568	0.055	-0.105
-272.370	88.280	-0.217	-0.239
-271.355	-125.146	-0.115	0.017
-270.340	-122.508	-0.419	0.067
-269.326	-200.000	0.053	-0.378
-268.311	-50.544	-0.166	-0.078
-267.297	-200.000	-0.054	-0.268
-266.282	800.000	0.113	0.355
-265.267	16.899	0.126	0.099
-264.253	341.152	-0.073	0.142
-263.238	-1.640	0.164	-0.114
-262.224	54.203	0.107	-0.102
-261.209	-18.577	0.288	0.178
-260.195	-86.174	0.190	0.058
-259.180	192.017	-0.265	0.395
-258.165	-32.284	0.121	-0.067
-257.151	800.000	-0.013	0.051
-256.136	-11.611	-0.085	0.055
-255.122	-178.019	-0.527	0.012
-254.107	800.000	0.065	-0.231
-253.092	-200.000	0.018	-0.111
-252.078	2.151	0.292	0.209
-251.063	91.710	-0.192	0.214
-250.049	-200.000	-0.014	-0.105
-249.034	-148.322	-0.335	-0.027
-248.019	-200.000	-0.000	-0.020
-247.005	202.786	-0.064	-0.098
-245.990	-11.203	-0.342	0.223
-244.976	102.599	-0.227	0.263
-243.961	145.394	0.199	-0.264
-242.946	-141.209	0.315	0.032
-241.932	-95.063	-0.093	0.025
-240.917	71.970	0.120	-0.123
-239.903	-168.462	-0.090	0.003
-238.888	-13.396	-0.051	-0.032
-237.873	252.340	0.080	-0.135
-236.859	-135.833	0.103	-0.012
-235.844	91.620	-0.258	-0.287
-234.830	-30.745	0.182	-0.102
-233.815	-87.576	-0.021	-0.006
-232.800	67.025	0.093	0.094
-231.786	-200.000	0.012	0.152
-230.771	-200.000	0.043	0.376
-229.757	-45.649	0.060	-0.030
-228.742	518.486	0.011	0.025
-227.727	-200.000	-0.014	-0.067
-226.713	313.613	0.096	0.179
-225.698	259.566	-0.197	-0.336
-224.684	-81.468	0.254	-0.083
-223.669	5.077	-0.169	0.123
-222.655	-2.157	0.375	0.260
-221.640	496.199	-0.033	-0.076
-220.625	5.257	-0.297	-0.217
-219.611	800.000	-0.031	0.121
-218.596	1.705	-0.248	0.177
-217.582	174.686	0.130	0.187
-216.567	-78.795	0.028	0.009
-215.552	-162.074	0.204	-0.010
-214.538	800.000	0.117	0.348
-213.523	16.497	0.245	-0.191
-212.509	-56.973	-0.316	0.138
-211.494	8.176	-0.035	-0.026
-210.479	-200.000	0.054	0.268
-209.465	-106.494	0.367	0.081
-208.450	-192.262	-0.279	0.003
-207.436	-13.764	-0.167	0.107
-206.421	39.197	0.314	-0.278
-205.406	84.524	-0.203	-0.220
-204.392	-200.000	0.004	0.271
-203.377	445.731	0.129	-0.280
-202.363	800.000	0.048	0.160
-201.348	-145.147	0.204	-0.018
-200.333	-29.144	0.151	0.086
-199.319	-5.439	0.247	-0.167
-198.304	79.956	-0.181	-0.192
-197.290	-56.601	-0.210	-0.092
-196.275	-200.000	-0.018	0.141
-195.260	-200.000	0.058	-0.368
-194.246	-200.000	0.023	-0.106
-193.231	94.529	-0.126	0.142
-192.217	-55.812	0.304	0.134
-191.202	-123.831	-0.312	-0.049
-190.187	-23.522	-0.148	-0.088
-189.173	-82.587	0.294	-0.094
-188.158	-164.392	0.120	0.005
-187.144	731.238	0.108	-0.285
-186.129	-200.000	-0.035	-0.182
-185.114	-103.200	0.298	0.070
-184.100	-45.130	0.040	-0.020
-183.085	-105.387	0.214	-0.048
-182.071	800.000	-0.020	0.081
-181.056	-98.605	-0.087	-0.022
-180.042	-200.000	0.001	-0.172
-179.027	-105.000	0.104	0.023
-178.012	-90.729	-0.060	0.017
-176.998	191.674	-0.153	-0.228
-175.983	539.078	0.099	-0.232
-174.969	317.955	-0.158	-0.296
-173.954	-88.169	0.275	0.081
-172.939	-98.286	-0.247	0.063
-171.925	-131.484	0.065	0.008
-170.910	800.000	-0.040	-0.116
-169.896	-133.363	0.092	0.011
-168.881	5.061	-0.256	-0.186
-167.866	-200.000	-0.022	-0.253
-166.852	82.624	0.145	-0.156
-165.837	-96.688	-0.242	-0.063
-164.823	-61.838	-0.201	-0.083
-163.808	293.338	-0.183	-0.329
-162.793	-200.000	0.013	0.413
-161.779	-55.446	0.138	-0.061
-160.764	-17.527	0.198	-0.123
-159.750	-38.695	0.332	-0.173
-158.735	133.428	0.077	-0.098
-157.720	-200.000	-0.031	-0.303
-156.706	-49.430	-0.016	0.007
-155.691	-52.407	-0.184	0.084
-154.677	15.032	0.071	-0.055
-153.662	80.848	0.235	-0.250
-152.647	800.000	-0.018	0.056
-151.633	609.583	0.077	-0.189
-150.618	-86.025	0.433	-0.132
-149.604	-4.028	0.229	-0.157
-148.589	-49.850	-0.109	-0.051
-147.574	-32.920	-0.135	-0.074
-146.560	-147.170	0.228	0.019
-145.545	81.085	0.113	-0.120
-144.531	-200.000	-0.010	-0.269
-143.516	-68.783	-0.031	0.012
-142.502	163.401	-0.100	0.139
-141.487	237.545	-0.186	0.304
-140.472	77.763	0.094	0.099
-139.458	-164.289	-0.484	0.022
-138.443	-71.496	0.168	0.062
-137.429	85.575	0.202	-0.219
-136.414	-86.385	0.128	-0.039
-135.399	332.730	-0.179	-0.341
-134.385	-200.000	-0.005	-0.322
-133.370	-62.566	0.250	0.102
-132.356	106.002	-0.218	-0.254
-131.341	-200.000	-0.040	-0.285
-130.326	800.000	-0.116	0.340
-129.312	-200.000	-0.004	-0.295
-128.297	-62.751	0.238	-0.097
-127.283	-74.963	-0.300	-0.106
-126.268	-28.918	0.180	0.102
-125.253	800.000	-0.061	-0.201
-124.239	-6.721	-0.105	-0.070
-123.224	-74.019	-0.093	0.033
-122.210	70.380	-0.090	0.092
-121.195	29.190	0.119	-0.099
-120.180	-200.000	0.028	-0.159
-119.166	800.000	0.125	0.390
-118.151	173.728	-0.068	-0.096
-117.137	8.640	0.356	-0.264
-116.122	308.017	0.106	-0.196
-115.107	-0.564	0.092	0.064
-114.093	-200.000	0.019	-0.243
-113.078	108.334	-0.053	0.062
-112.064	-81.020	-0.353	0.115
-111.049	-83.277	-0.374	-0.118
-110.034	-200.000	-0.000	-0.104
-109.020	245.971	-0.097	-0.162
-108.005	41.071	0.181	-0.161
-106.991	-62.187	-0.075	-0.031
-105.976	124.769	0.186	0.231
-104.962	-106.324	0.242	-0.053
-103.947	136.897	-0.054	-0.069
-102.932	51.432	-0.207	-0.194
-101.918	1.418	-0.054	-0.038
-100.903	-45.437	-0.129	0.063
-99.889	-71.533	-0.112	-0.041
-98.874	-200.000	0.032	0.171
-97.859	509.079	0.078	0.179
-96.845	-74.040	0.221	0.079
-95.830	-77.025	-0.298	-0.102
-94.816	506.959	0.110	-0.250
-93.801	-41.705	0.062	-0.031
-92.786	47.764	0.293	-0.269
-91.772	28.357	0.147	-0.122
-90.757	800.000	0.067	-0.270
-89.743	-131.856	-0.267	0.034
-88.728	-78.929	-0.112	0.038
-87.713	-30.200	-0.131	-0.073
-86.699	-110.029	-0.527	-0.108
-85.684	480.041	-0.012	-0.026
-84.670	-21.586	-0.255	-0.153
-83.655	-56.561	0.073	-0.032
-82.640	-148.595	0.353	0.028
-81.626	109.642	-0.193	-0.228
-80.611	800.000	-0.036	0.121
-79.597	800.000	-0.065	-0.236
-78.582	-200.000	0.098	-0.558
-77.567	332.118	-0.247	-0.468
-76.553	385.100	-0.066	0.133
-75.538	134.343	-0.059	0.076
-74.524	-200.000	-0.014	0.383
-73.509	-21.745	-0.033	0.020
-72.494	13.870	0.073	-0.056
-71.480	10.927	0.157	-0.118
-70.465	-168.939	-0.252	-0.009
-69.451	800.000	-0.022	-0.092
-68.436	-77.748	-0.401	0.136
-67.422	-21.667	0.300	0.180
-66.407	-21.691	0.179	0.107
-65.392	-200.000	-0.014	-0.070
-64.378	-141.436	-0.256	-0.025
-63.363	-200.000	0.051	0.295
-62.349	-157.224	-0.338	0.020
-61.334	58.379	-0.946	-0.912
-60.319	-47.605	0.395	0.188
-59.305	800.000	-0.360	-1.156
-58.290	229.319	0.798	1.280
-57.276	579.928	0.573	1.380
-56.261	-200.000	95.398	592.351
-55.246	569.401	1371.112	3274.841
-54.232	160.671	2558.144	3507.857
-53.217	106.754	2270.832	2647.170
-52.203	41.489	1897.535	1686.956
-51.188	35.359	1686.944	1453.410
-50.173	32.763	1642.321	1395.729
-49.159	50.196	1688.536	1566.092
-48.144	51.827	1705.310	1593.813
-47.130	35.099	1665.566	1432.817
-46.115	32.321	1651.579	1400.084
-45.100	32.110	1646.587	1394.230
-44.086	32.133	1643.874	1392.049
-43.071	31.999	1641.490	1388.981
-42.057	32.100	1638.804	1387.399
-41.042	32.066	1637.532	1386.016
-40.027	31.990	1635.614	1383.780
-39.013	31.996	1633.215	1381.735
-37.998	32.036	1631.773	1380.756
-36.984	32.026	1630.388	1379.454
-35.969	32.079	1629.179	1378.766
-34.954	32.107	1627.844	1377.785
-33.940	32.236	1625.461	1376.660
-32.925	32.078	1623.909	1374.137
-31.911	32.089	1622.287	1372.794
-30.896	32.111	1620.280	1371.199
-29.881	32.103	1618.757	1369.795
-28.867	32.119	1616.833	1368.230
-27.852	32.116	1615.721	1367.213
-26.838	31.983	1614.143	1364.858
-25.823	32.055	1612.709	1364.111
-24.809	32.122	1611.454	1363.480
-23.794	32.199	1609.562	1362.389
-22.779	32.219	1608.038	1361.186
-21.765	32.127	1607.066	1359.647
-20.750	32.169	1605.157	1358.283
-19.736	32.192	1603.760	1357.213
-18.721	32.126	1602.675	1355.762
-17.706	32.199	1600.921	1354.751
-16.692	32.113	1599.370	1352.761
-15.677	32.166	1598.439	1352.308
-14.663	32.189	1596.856	1351.079
-13.648	32.204	1595.024	1349.579
-12.633	32.137	1594.011	1348.187
-11.619	32.135	1592.214	1346.603
-10.604	32.163	1590.598	1345.384
-9.590	32.210	1589.533	1344.767
-8.575	32.148	1588.400	1343.310
-7.560	32.215	1587.060	1342.602
-6.546	32.180	1585.938	1341.347
-5.531	32.160	1584.522	1339.954
-4.517	32.158	1583.328	1338.878
-3.502	32.165	1582.450	1338.130
-2.487	32.211	1581.120	1337.283
-1.473	31.953	1569.364	1325.463
-0.458	29.277	1550.735	1290.967
0.556	25.776	1551.569	1261.253
1.571	23.534	1575.230	1264.414
2.586	23.128	1588.114	1271.729
3.600	20.250	1533.975	1208.247
4.615	10.910	1422.538	1059.773
5.629	2.970	1357.407	961.621
6.644	1.677	1349.573	947.941
7.659	1.570	1347.803	945.948
8.673	1.528	1346.658	944.801
9.688	1.475	1344.987	943.212
10.702	1.134	1342.367	939.182
11.717	4.621	1349.347	965.663
12.731	14.787	1368.205	1042.815
13.746	23.353	1382.932	1107.751
14.761	25.806	1385.990	1125.448
15.775	26.149	1386.237	1127.695
16.790	26.241	1385.194	1127.318
17.804	26.406	1384.789	1127.921
18.819	26.505	1384.750	1128.406
19.834	26.651	1383.785	1128.427
20.848	26.663	1383.522	1128.190
21.863	26.768	1382.092	1127.578
22.877	26.826	1380.915	1126.877
23.892	26.666	1381.000	1125.850
24.907	26.746	1379.783	1125.256
25.921	26.649	1378.850	1123.793
26.936	26.675	1377.658	1122.885
27.950	26.688	1376.959	1122.299
28.965	26.828	1375.402	1121.792
29.980	26.707	1374.334	1120.074
30.994	26.613	1373.422	1118.655
32.009	26.730	1371.655	1117.837
33.023	26.694	1371.016	1116.998
34.038	26.701	1370.004	1116.113
35.053	26.706	1368.967	1115.200
36.067	26.583	1368.526	1113.987
37.082	26.775	1367.029	1113.849
38.096	26.708	1366.433	1112.852
39.111	26.773	1365.428	1112.338
40.126	26.721	1364.841	1111.439
41.140	26.773	1364.090	1111.050
42.155	26.695	1364.153	1110.525
43.169	26.683	1364.144	1110.344
44.184	26.638	1363.936	1109.802
45.199	26.585	1363.607	1109.112
46.213	26.699	1362.939	1109.170
47.228	26.722	1361.571	1108.097
48.242	26.758	1360.392	1107.261
49.257	26.772	1358.449	1105.667
50.271	26.666	1357.832	1104.417
51.286	26.690	1356.093	1103.052
52.301	26.721	1354.834	1102.120
53.315	26.680	1354.550	1101.544
54.330	26.680	1353.654	1100.713
55.344	26.652	1352.473	1099.488
56.359	26.679	1351.487	1098.752
57.374	26.722	1350.551	1098.156
58.388	26.722	1350.069	1097.668
59.403	26.699	1349.920	1097.308
60.417	26.696	1348.662	1096.170
61.432	26.653	1347.955	1095.241
62.447	26.722	1346.981	1094.768
63.461	26.592	1346.531	1093.522
64.476	26.637	1345.510	1092.868
65.490	26.689	1343.663	1091.580
66.505	26.631	1342.792	1090.427
67.520	26.754	1341.119	1089.715
68.534	26.684	1340.403	1088.615
69.549	26.670	1339.526	1087.721
70.563	26.680	1338.677	1086.999
71.578	26.796	1337.671	1086.779
72.593	26.809	1336.577	1085.872
73.607	26.753	1335.972	1084.947
74.622	26.723	1335.569	1084.348
75.636	26.667	1335.008	1083.459
76.651	26.585	1334.458	1082.430
77.666	26.646	1333.784	1082.150
78.680	26.711	1333.044	1081.840
79.695	26.787	1332.607	1081.845
80.709	26.748	1331.704	1080.783
81.724	26.669	1330.485	1079.226
82.739	26.642	1329.993	1078.571
83.753	26.632	1329.079	1077.679
84.768	26.668	1328.112	1077.012
85.782	26.807	1326.564	1076.487
86.797	26.768	1325.408	1075.224
87.812	26.776	1324.674	1074.579
88.826	26.710	1323.634	1073.250
89.841	26.772	1322.348	1072.478
90.855	26.643	1321.717	1071.110
91.870	26.640	1320.612	1070.098
92.884	26.806	1319.584	1070.151
93.899	26.875	1318.633	1069.693
94.914	26.713	1318.376	1068.435
95.928	26.846	1317.110	1068.097
96.943	26.720	1317.212	1067.344
97.957	26.718	1316.417	1066.595
98.972	26.663	1315.111	1065.120
99.987	26.726	1314.373	1064.793
101.001	26.797	1313.175	1064.147
102.016	26.736	1312.427	1063.089
103.030	26.805	1311.266	1062.458
104.045	26.818	1310.949	1062.188
105.060	26.932	1309.746	1061.781
106.074	26.737	1309.225	1060.128
107.089	26.754	1307.852	1059.020
108.103	26.847	1306.668	1058.512
109.118	26.847	1305.772	1057.691
110.133	26.765	1304.970	1056.469
111.147	26.853	1303.530	1055.720
112.162	26.763	1302.859	1054.564
113.176	26.865	1301.533	1053.986
114.191	26.795	1301.026	1053.076
115.206	26.743	1300.034	1051.882
116.220	26.779	1298.919	1051.096
117.235	26.896	1297.716	1050.704
118.249	26.851	1296.977	1049.756
119.264	26.858	1296.186	1049.062
120.279	26.778	1295.621	1048.046
121.293	26.906	1294.506	1047.791
122.308	26.782	1293.992	1046.569
123.322	26.843	1293.127	1046.130
124.337	26.863	1292.525	1045.664
125.352	26.857	1291.448	1044.668
126.366	26.897	1290.310	1043.882
127.381	26.938	1289.458	1043.336
128.395	26.876	1288.919	1042.451
129.410	26.892	1287.895	1041.621
130.424	26.868	1287.148	1040.792
131.439	26.897	1286.443	1040.292
132.454	26.829	1285.388	1038.960
133.468	26.889	1284.653	1038.616
134.483	26.957	1284.219	1038.561
135.497	26.742	1283.746	1036.856
136.512	26.883	1282.375	1036.462
137.527	27.005	1281.169	1036.094
138.541	26.956	1279.454	1034.336
139.556	26.879	1278.991	1033.432
140.570	26.835	1278.170	1032.429
141.585	26.966	1276.923	1032.074
142.600	26.850	1275.647	1030.290
143.614	26.920	1275.202	1030.238
144.629	26.848	1274.263	1028.983
145.643	26.761	1273.242	1027.573
146.658	26.773	1272.244	1026.745
147.673	26.781	1271.462	1026.069
148.687	26.711	1270.583	1024.868
149.702	26.777	1269.256	1024.082
150.716	26.790	1267.815	1022.905
151.731	26.825	1267.278	1022.576
152.746	26.783	1266.052	1021.257
153.760	26.965	1264.814	1021.193
154.775	26.925	1264.343	1020.499
155.789	26.842	1263.514	1019.273
156.804	26.817	1262.630	1018.331
157.819	26.927	1261.627	1018.045
158.833	26.909	1260.806	1017.196
159.848	26.953	1260.223	1016.881
160.862	27.010	1259.555	1016.570
161.877	26.972	1258.559	1015.463
162.892	26.850	1258.113	1014.331
163.906	26.986	1256.830	1013.967
164.921	27.045	1255.890	1013.447
165.935	27.051	1255.412	1013.008
166.950	27.002	1254.858	1012.197
167.964	26.999	1254.590	1011.874
168.979	27.049	1253.651	1011.308
169.994	26.950	1253.613	1010.637
171.008	27.028	1252.961	1010.454
172.023	27.081	1251.657	1009.605
173.037	26.991	1251.156	1008.616
174.052	26.949	1250.494	1007.759
175.067	26.963	1249.683	1007.095
176.081	27.059	1248.434	1006.531
177.096	27.010	1248.180	1005.964
178.110	26.991	1246.821	1004.673
179.125	27.052	1245.980	1004.245
180.140	27.060	1245.300	1003.651
181.154	27.088	1244.197	1002.828
182.169	27.011	1243.342	1001.626
183.183	27.045	1241.972	1000.624
184.198	27.025	1241.071	999.696
185.213	27.079	1240.139	999.153
186.227	27.063	1239.389	998.373
187.242	27.087	1238.375	997.603
188.256	27.100	1237.742	997.074
189.271	27.092	1236.969	996.317
190.286	27.080	1236.117	995.479
191.300	27.143	1235.482	995.227
192.315	27.087	1235.281	994.667
193.329	27.253	1234.649	994.982
194.344	27.222	1234.132	994.308
195.359	27.094	1233.770	993.224
196.373	27.084	1233.411	992.796
197.388	27.012	1233.163	992.113
198.402	26.990	1232.912	991.701
199.417	27.103	1231.780	991.321
200.432	27.132	1231.250	990.965
201.446	27.181	1230.590	990.614
202.461	27.115	1230.061	989.743
203.475	27.158	1229.024	989.054
204.490	27.121	1227.903	987.862
205.504	27.152	1227.083	987.281
206.519	27.225	1226.504	987.126
207.534	27.165	1225.692	986.058
208.548	27.160	1224.762	985.197
209.563	27.250	1223.776	984.804
210.577	27.121	1223.350	983.679
211.592	27.227	1222.614	983.573
212.607	27.280	1221.789	983.109
213.621	27.253	1220.682	981.984
214.636	27.254	1219.943	981.310
215.650	27.256	1219.078	980.537
216.665	27.276	1218.394	980.008
217.680	27.178	1217.451	978.636
218.694	27.327	1216.247	978.380
219.709	27.184	1215.827	977.188
220.723	27.208	1215.675	977.109
221.738	27.169	1214.411	975.794
222.753	27.237	1213.585	975.411
223.767	27.174	1213.318	974.770
224.782	27.373	1212.977	975.479
225.796	27.314	1211.929	974.233
226.811	27.420	1211.338	974.238
227.826	27.283	1211.393	973.463
228.840	27.297	1210.486	972.725
229.855	27.327	1209.945	972.364
230.869	27.432	1208.712	971.849
231.884	27.252	1208.283	970.456
232.899	27.298	1207.677	970.129
233.913	27.324	1207.045	969.675
234.928	27.376	1206.763	969.639
235.942	27.330	1205.908	968.620
236.957	27.307	1205.392	968.001
237.972	27.436	1204.272	967.698
238.986	27.210	1204.203	966.354
240.001	27.383	1203.384	966.531
241.015	27.497	1202.636	966.449
242.030	27.501	1201.228	965.253
243.045	27.555	1200.758	965.077
244.059	27.462	1200.401	964.211
245.074	27.532	1199.494	963.769
246.088	27.510	1198.611	962.856
247.103	27.561	1197.723	962.330
248.117	27.511	1196.817	961.253
249.132	27.545	1196.688	961.241
250.147	27.616	1195.655	960.705
251.161	27.513	1195.210	959.716
252.176	27.565	1194.298	959.175
253.190	27.451	1193.881	958.156
254.205	27.505	1193.187	957.794
255.220	27.681	1192.545	958.121
256.234	27.723	1191.768	957.631
257.249	27.690	1190.976	956.740
258.263	27.613	1190.424	955.809
259.278	27.690	1190.290	956.020
260.293	27.664	1189.905	955.490
261.307	27.740	1188.944	955.030
262.322	27.638	1188.728	954.236
263.336	27.671	1187.892	953.652
264.351	27.481	1187.718	952.437
265.366	27.702	1186.709	952.698
266.380	27.587	1186.414	951.779
267.395	27.527	1185.704	950.809
268.409	27.523	1184.793	949.974
269.424	27.597	1184.050	949.682
270.439	27.694	1183.789	949.891
271.453	27.667	1183.158	949.162
272.468	27.639	1181.866	947.894
273.482	27.541	1181.786	947.237
274.497	27.652	1181.275	947.321
275.512	27.707	1180.458	946.865
276.526	27.708	1179.865	946.313
277.541	27.879	1178.935	946.368
278.555	27.722	1178.591	945.194
279.570	27.751	1177.558	944.437
280.585	27.775	1177.127	944.131
281.599	27.718	1176.340	943.121
282.614	27.658	1175.456	942.017
283.628	27.824	1174.306	941.871
284.643	27.903	1173.730	941.731
285.657	27.769	1173.286	940.603
286.672	27.798	1171.736	939.423
287.687	27.870	1170.944	939.079
288.701	27.948	1170.447	938.996
289.716	27.882	1170.090	938.286
290.730	27.927	1169.504	937.964
291.745	27.984	1168.130	937.074
292.760	27.704	1168.526	935.872
293.774	27.923	1167.538	936.117
294.789	27.905	1166.812	935.364
295.803	27.943	1166.194	934.979
296.818	27.865	1165.820	934.197
297.833	27.902	1165.218	933.821
298.847	27.930	1164.605	933.392
299.862	27.955	1163.398	932.469
300.876	28.011	1162.992	932.344
301.891	28.003	1162.494	931.822
302.906	27.964	1162.059	931.192
303.920	28.035	1160.978	930.605
304.935	28.135	1160.396	930.564
305.949	28.064	1159.945	929.761
306.964	28.086	1159.239	929.226
307.979	27.946	1158.924	928.178
308.993	28.147	1158.115	928.470
310.008	28.097	1157.225	927.419
311.022	28.144	1156.734	927.185
312.037	28.103	1155.412	925.835
313.052	28.189	1154.821	925.712
314.066	28.115	1154.053	924.640
315.081	28.102	1153.404	923.972
316.095	28.113	1152.599	923.300
317.110	28.164	1152.479	923.382
318.125	28.118	1151.870	922.581
319.139	28.139	1151.246	922.105
320.154	28.171	1150.412	921.518
321.168	28.134	1149.846	920.794
322.183	28.157	1149.278	920.377
323.197	28.033	1149.212	919.614
324.212	28.042	1148.405	918.933
325.227	28.117	1148.080	918.972
326.241	28.302	1146.837	918.820
327.256	28.205	1146.399	917.905
328.270	28.177	1145.487	916.954
329.285	28.276	1144.395	916.493
330.300	28.242	1144.431	916.270
331.314	28.157	1143.322	914.875
332.329	28.292	1142.351	914.693
333.343	28.307	1141.825	914.265
334.358	28.267	1141.085	913.394
335.373	28.374	1140.587	913.448
336.387	28.402	1139.734	912.822
337.402	28.432	1138.840	912.174
338.416	28.338	1138.767	911.565
339.431	28.354	1137.772	910.772
340.446	28.288	1137.456	910.107
341.460	28.406	1136.607	909.932
342.475	28.472	1135.483	909.283
343.489	28.426	1134.874	908.484
344.504	28.459	1133.989	907.859
345.519	28.438	1133.318	907.137
346.533	28.529	1132.292	906.686
347.548	28.493	1131.731	905.981
348.562	28.446	1131.161	905.211
349.577	28.489	1130.468	904.789
350.592	28.452	1129.604	903.836
351.606	28.486	1129.168	903.575
352.621	28.431	1128.601	902.768
353.635	28.570	1127.922	902.831
354.650	28.563	1127.108	902.065
355.665	28.651	1126.277	901.753
356.679	28.601	1126.126	901.305
357.694	28.620	1125.626	900.917
358.708	28.563	1125.132	900.165
359.723	28.505	1124.210	899.059
360.738	28.497	1123.555	898.420
361.752	28.674	1122.849	898.642
362.767	28.697	1122.205	898.157
363.781	28.580	1122.091	897.417
364.796	28.721	1121.019	897.167
365.810	28.682	1120.601	896.563
366.825	28.720	1120.220	896.365
367.840	28.742	1119.641	895.929
368.854	28.803	1118.945	895.592
369.869	28.759	1118.472	894.918
370.883	28.736	1117.674	894.091
371.898	28.801	1116.954	893.751
372.913	28.823	1115.999	893.014
373.927	28.744	1115.976	892.531
374.942	28.722	1115.691	892.119
375.956	28.889	1114.422	891.834
376.971	28.811	1114.206	891.206
377.986	28.896	1113.580	891.035
379.000	28.847	1113.324	890.514
380.015	28.904	1112.797	890.291
381.029	28.886	1111.738	889.279
382.044	28.855	1111.353	888.741
383.059	28.957	1110.882	888.780
384.073	28.775	1110.437	887.469
385.088	28.836	1109.300	886.771
386.102	28.913	1108.277	886.250
387.117	28.901	1107.211	885.259
388.132	28.884	1106.376	884.432
389.146	28.916	1106.208	884.373
390.161	28.861	1106.049	883.906
391.175	29.066	1104.840	883.843
392.190	29.025	1104.119	882.990
393.205	28.963	1103.550	882.160
394.219	29.092	1102.686	882.009
395.234	29.037	1102.538	881.552
396.248	29.149	1101.556	881.223
397.263	29.082	1100.283	879.808
398.278	29.143	1099.786	879.625
399.292	28.982	1099.630	878.651
400.307	29.172	1098.600	878.658
401.321	29.116	1098.254	878.035
402.336	29.069	1097.768	877.347
403.350	29.196	1097.025	877.280
404.365	29.141	1096.136	876.230
405.380	29.126	1095.238	875.360
406.394	29.139	1095.080	875.220
407.409	29.235	1094.247	874.935
408.423	29.214	1093.271	873.976
409.438	29.248	1092.868	873.737
410.453	29.478	1091.659	873.780
411.467	29.225	1091.553	872.422
412.482	29.179	1090.744	871.479
413.496	29.301	1090.313	871.636
414.511	29.476	1088.919	871.271
415.526	29.302	1088.907	870.362
416.540	29.338	1088.335	869.998
417.555	29.364	1087.968	869.750
418.569	29.393	1087.987	869.826
419.584	29.350	1087.484	869.145
420.599	29.307	1087.103	868.561
421.613	103.590	1322.291	1459.842
422.628	96.467	1356.513	1459.962
