DTS Sentinel unit serial number:	SN413079Multiplexer serial number:	ORYXHardware model number:	OX4-SRSoftware version number:	ORYX F/W v4.00 Oryx Data Collector v3.7.2.0data status	okinstallation	princeton_trtdifferential loss correction	single-endedforward channel	channel 2reverse channel	N/Adate	2019/09/11time	16:17:11forward acquisition time	60.00reverse acquisition time	0.00gamma	496.2192k internal	0.2286k external	0.2286temperature offset calibration	1.0013default loss term (dB/km)	0.3790temperature slope calibration	1.0000multiplexer offset coefficient	1.0000multiplexer slope coefficient	1.0000fibre end	0.00T internal ref (°C)	43.42T ext. ref 1 (°C)	1.05T ext. ref 2 (°C)	38.84length (m)	temperature (°C)	Stokes	anti-Stokes-747.200	-200.000	0.022	-0.434
-746.185	103.608	0.283	0.341
-745.171	41.227	0.179	0.166
-744.156	800.000	0.103	0.407
-743.142	396.257	-0.061	0.131
-742.127	572.954	0.144	0.361
-741.112	54.889	-0.149	0.148
-740.098	285.018	0.173	0.319
-739.083	0.399	-0.097	0.071
-738.069	236.838	0.233	0.396
-737.054	661.005	0.053	0.141
-736.039	-107.035	0.060	0.014
-735.025	-63.962	-0.193	0.081
-734.010	-172.475	-0.184	0.006
-732.996	52.166	0.271	-0.265
-731.981	175.304	-0.070	0.104
-730.966	130.259	-0.259	-0.340
-729.952	-200.000	-0.041	-0.308
-728.937	-143.845	-0.282	0.027
-727.923	532.094	-0.046	-0.111
-726.908	-58.867	-0.171	-0.076
-725.894	156.950	0.158	-0.223
-724.879	800.000	0.039	0.128
-723.864	364.726	-0.039	-0.080
-722.850	-54.067	-0.273	0.127
-721.835	79.356	0.024	-0.027
-720.821	-200.000	0.007	-0.452
-719.806	-62.224	0.253	0.108
-718.791	585.821	-0.156	-0.393
-717.777	-200.000	-0.048	0.255
-716.762	-200.000	0.021	0.167
-715.748	-88.678	0.139	-0.042
-714.733	-200.000	-0.036	0.402
-713.718	137.812	0.116	-0.156
-712.704	800.000	0.088	-0.269
-711.689	-106.550	-0.243	-0.055
-710.675	-200.000	0.036	-0.250
-709.660	-44.050	-0.111	0.057
-708.645	-62.922	0.251	0.106
-707.631	-113.124	-0.160	0.032
-706.616	-3.861	-0.108	0.077
-705.602	-200.000	0.023	0.219
-704.587	10.746	0.247	-0.193
-703.572	520.549	0.105	0.252
-702.558	-152.981	0.213	-0.015
-701.543	-200.000	-0.072	0.323
-700.529	49.987	0.320	0.309
-699.514	-200.000	-0.008	0.185
-698.499	-12.131	0.226	0.151
-697.485	45.333	0.141	0.133
-696.470	53.436	-0.104	0.102
-695.456	90.575	-0.202	0.232
-694.441	-121.792	0.314	-0.053
-693.426	800.000	0.035	0.157
-692.412	-99.650	0.152	0.039
-691.397	-141.733	0.193	-0.020
-690.383	-10.718	-0.116	-0.079
-689.368	-200.000	0.001	0.356
-688.354	-77.939	0.118	0.042
-687.339	79.241	-0.247	0.271
-686.324	413.699	-0.069	-0.149
-685.310	82.332	-0.053	0.059
-684.295	-69.292	-0.267	0.105
-683.281	273.458	-0.149	-0.270
-682.266	-21.371	-0.189	0.118
-681.251	-168.519	-0.127	0.005
-680.237	180.351	-0.190	-0.285
-679.222	54.299	-0.237	0.233
-678.208	-34.408	0.366	-0.205
-677.193	91.012	0.116	-0.134
-676.178	-200.000	-0.066	-0.546
-675.164	-14.126	0.223	0.147
-674.149	-107.003	-0.158	0.036
-673.135	13.708	0.164	0.130
-672.120	-78.262	-0.212	-0.074
-671.105	-21.192	-0.187	-0.117
-670.091	-69.360	0.361	-0.142
-669.076	-125.099	-0.132	0.021
-668.062	-111.662	-0.179	0.037
-667.047	-31.212	0.264	0.152
-666.032	-1.882	0.343	-0.247
-665.018	23.038	0.141	-0.119
-664.003	-63.112	-0.377	-0.159
-662.989	-138.760	0.214	-0.024
-661.974	105.340	0.067	0.081
-660.959	49.413	-0.068	0.065
-659.945	-33.681	0.390	-0.220
-658.930	-72.857	0.436	-0.164
-657.916	-56.016	-0.182	-0.083
-656.901	-150.128	0.228	-0.018
-655.886	-200.000	-0.007	-0.056
-654.872	-46.488	0.229	-0.115
-653.857	-200.000	0.009	0.245
-652.843	102.066	-0.075	0.089
-651.828	-97.324	-0.208	-0.055
-650.814	152.408	0.099	-0.138
-649.799	-15.446	0.155	-0.101
-648.784	800.000	0.008	0.028
-647.770	175.164	-0.107	-0.159
-646.755	800.000	-0.176	-0.517
-645.741	-200.000	-0.148	-0.001
-644.726	800.000	-0.105	-0.299
-643.711	-36.169	-0.064	-0.035
-642.697	-200.000	0.009	-0.113
-641.682	229.375	-0.053	-0.088
-640.668	-48.809	-0.198	0.097
-639.653	-200.000	0.008	0.164
-638.638	-122.506	0.062	0.010
-637.624	-200.000	-0.029	0.297
-636.609	27.180	0.110	-0.094
-635.595	-200.000	0.051	-0.335
-634.580	-72.960	0.067	0.025
-633.565	-129.255	-0.255	0.036
-632.551	-200.000	-0.005	0.281
-631.536	17.699	-0.134	-0.109
-630.522	-23.041	-0.229	0.141
-629.507	259.280	0.061	-0.108
-628.492	645.318	0.049	-0.127
-627.478	-200.000	-0.039	0.212
-626.463	-75.122	-0.114	-0.042
-625.449	-43.648	-0.206	0.106
-624.434	214.057	0.009	0.015
-623.419	292.828	-0.164	-0.305
-622.405	-85.066	-0.220	-0.070
-621.390	105.492	0.174	-0.210
-620.376	-200.000	-0.018	0.331
-619.361	800.000	-0.102	-0.397
-618.346	597.656	-0.077	0.196
-617.332	-79.023	0.071	-0.025
-616.317	800.000	0.036	0.140
-615.303	83.195	-0.186	-0.207
-614.288	-33.168	-0.040	-0.023
-613.273	171.232	0.133	0.195
-612.259	-73.537	0.205	0.076
-611.244	-200.000	0.039	0.217
-610.230	-28.639	-0.298	-0.175
-609.215	94.304	-0.255	-0.295
-608.201	-97.868	0.228	-0.060
-607.186	704.819	-0.068	-0.183
-606.171	800.000	0.047	0.145
-605.157	252.789	0.107	0.186
-604.142	393.938	0.117	-0.248
-603.128	-200.000	-0.006	0.129
-602.113	266.697	0.092	-0.164
-601.098	-138.831	0.156	-0.017
-600.084	125.608	-0.040	-0.051
-599.069	-28.575	0.146	0.086
-598.055	19.745	0.216	0.178
-597.040	43.657	-0.252	-0.236
-596.025	-74.443	-0.083	-0.031
-595.011	-103.197	-0.251	0.061
-593.996	-200.000	-0.044	0.216
-592.982	73.408	0.106	-0.113
-591.967	-5.437	0.339	-0.238
-590.952	-155.503	0.284	-0.019
-589.938	130.726	-0.054	-0.070
-588.923	-102.216	-0.176	0.043
-587.909	22.272	0.033	0.028
-586.894	-173.138	0.343	0.011
-585.879	-200.000	0.005	-0.100
-584.865	72.407	-0.066	-0.070
-583.850	-113.938	-0.151	-0.030
-582.836	4.527	-0.364	0.272
-581.821	223.092	-0.043	-0.070
-580.806	-200.000	0.014	-0.111
-579.792	-93.729	-0.288	-0.081
-578.777	76.871	-0.233	-0.252
-577.763	-136.119	-0.201	-0.024
-576.748	35.921	0.181	-0.162
-575.733	177.240	-0.213	0.316
-574.719	84.129	0.018	0.020
-573.704	136.031	-0.091	-0.121
-572.690	175.254	0.114	0.169
-571.675	-67.762	0.185	-0.074
-570.661	-200.000	-0.054	0.311
-569.646	-200.000	-0.018	-0.336
-568.631	-108.384	0.159	-0.035
-567.617	87.396	0.083	-0.093
-566.602	-110.674	0.097	0.021
-565.588	-110.642	0.233	0.049
-564.573	-159.546	0.075	-0.004
-563.558	-200.000	0.001	-0.078
-562.544	-200.000	0.027	0.379
-561.529	218.753	0.065	0.105
-560.515	-66.832	-0.177	-0.071
-559.500	280.628	0.092	-0.168
-558.485	-45.729	0.046	-0.023
-557.471	-38.111	-0.348	0.188
-556.456	-103.143	-0.168	-0.040
-555.442	-111.209	0.059	-0.012
-554.427	79.481	-0.183	0.200
-553.412	523.819	-0.118	0.283
-552.398	44.495	-0.107	0.101
-551.383	123.002	0.164	0.210
-550.369	22.362	0.050	-0.042
-549.354	117.456	-0.162	0.203
-548.339	-67.483	-0.312	0.125
-547.325	65.426	0.093	-0.096
-546.310	-48.816	0.128	0.063
-545.296	260.597	-0.074	-0.131
-544.281	530.768	0.076	-0.184
-543.266	-97.914	-0.252	-0.066
-542.252	-83.168	-0.179	-0.059
-541.237	800.000	0.058	0.247
-540.223	475.864	0.078	0.178
-539.208	-200.000	0.047	-0.219
-538.193	-200.000	0.044	0.216
-537.179	-155.919	-0.194	-0.013
-536.164	-185.078	-0.361	-0.006
-535.150	1.264	-0.083	-0.061
-534.135	-57.564	-0.312	0.139
-533.121	-200.000	-0.013	0.259
-532.106	800.000	0.093	0.328
-531.091	17.129	0.180	-0.145
-530.077	218.229	0.227	0.368
-529.062	-136.906	0.121	0.014
-528.048	137.833	-0.194	0.258
-527.033	276.307	-0.084	0.153
-526.018	-173.886	-0.295	-0.009
-525.004	-101.287	-0.049	0.012
-523.989	-113.968	0.184	0.036
-522.975	84.012	0.227	0.252
-521.960	173.006	0.131	-0.192
-520.945	118.378	0.249	0.313
-519.931	123.279	-0.234	-0.298
-518.916	-160.182	0.230	0.013
-517.902	-98.582	-0.230	-0.060
-516.887	-159.032	-0.372	0.021
-515.872	121.980	-0.192	-0.244
-514.858	16.723	-0.103	0.083
-513.843	202.855	-0.103	0.161
-512.829	-135.519	-0.112	0.014
-511.814	-200.000	-0.003	-0.175
-510.799	95.338	0.117	0.135
-509.785	800.000	-0.027	-0.111
-508.770	260.923	0.087	-0.153
-507.756	-200.000	0.009	0.052
-506.741	-126.986	-0.290	0.043
-505.726	-200.000	0.025	0.246
-504.712	-67.936	0.325	0.129
-503.697	-63.035	-0.265	0.111
-502.683	-200.000	-0.000	-0.053
-501.668	64.017	-0.136	0.139
-500.653	164.433	-0.239	0.343
-499.639	72.397	0.231	-0.245
-498.624	800.000	0.042	0.120
-497.610	-200.000	0.036	-0.224
-496.595	36.623	-0.103	0.092
-495.581	-109.712	0.407	-0.087
-494.566	-165.166	-0.117	0.005
-493.551	-200.000	-0.041	0.202
-492.537	-126.912	0.242	-0.036
-491.522	168.351	-0.116	0.167
-490.508	-31.218	-0.067	0.038
-489.493	472.974	0.078	-0.178
-488.478	37.800	0.089	0.080
-487.464	-156.035	-0.111	0.007
-486.449	-108.774	0.249	-0.054
-485.435	15.914	-0.206	0.165
-484.420	-85.786	-0.087	0.028
-483.405	128.708	-0.078	0.101
-482.391	156.477	0.103	-0.144
-481.376	-81.577	0.315	-0.105
-480.362	17.642	0.119	-0.096
-479.347	271.534	0.076	-0.136
-478.332	800.000	-0.087	0.278
-477.318	114.978	0.104	0.129
-476.303	800.000	0.048	0.177
-475.289	-200.000	0.047	0.215
-474.274	-200.000	-0.018	-0.219
-473.259	800.000	-0.029	0.092
-472.245	-18.723	-0.276	0.174
-471.230	675.285	-0.039	0.103
-470.216	101.647	0.207	-0.245
-469.201	375.923	0.030	-0.061
-468.186	-200.000	-0.014	-0.169
-467.172	-200.000	0.013	-0.212
-466.157	800.000	0.103	-0.365
-465.143	0.553	0.148	-0.107
-464.128	-200.000	0.012	-0.152
-463.113	-200.000	0.004	-0.033
-462.099	-21.733	0.087	-0.054
-461.084	124.648	-0.158	-0.202
-460.070	54.599	0.150	-0.147
-459.055	402.030	-0.147	-0.314
-458.040	-62.178	0.154	-0.065
-457.026	107.180	0.070	0.084
-456.011	-200.000	-0.027	-0.146
-454.997	-74.601	-0.412	-0.151
-453.982	79.653	0.278	0.302
-452.968	-1.546	0.335	-0.239
-451.953	-130.896	-0.097	-0.013
-450.938	99.025	-0.060	0.070
-449.924	-40.039	-0.157	0.083
-448.909	316.345	-0.113	0.216
-447.895	301.125	-0.029	-0.054
-446.880	-58.167	0.384	-0.170
-445.865	190.475	-0.123	-0.187
-444.851	-200.000	0.048	-0.264
-443.836	-121.202	-0.139	0.024
-442.822	-44.107	0.156	-0.079
-441.807	-112.042	0.413	-0.084
-440.792	-47.894	-0.288	-0.141
-439.778	69.449	-0.122	-0.127
-438.763	-160.417	-0.170	0.009
-437.749	-164.724	-0.245	0.011
-436.734	430.148	0.156	-0.343
-435.719	414.879	0.234	-0.505
-434.705	602.764	0.081	-0.204
-433.690	-137.936	0.073	-0.008
-432.676	-200.000	0.016	0.149
-431.661	800.000	-0.107	-0.426
-430.646	138.275	-0.102	-0.135
-429.632	-200.000	0.014	-0.073
-428.617	800.000	0.041	-0.120
-427.603	16.201	0.120	-0.096
-426.588	291.894	0.142	-0.262
-425.573	447.171	-0.108	-0.240
-424.559	-158.426	-0.210	0.012
-423.544	318.623	-0.188	0.362
-422.530	589.089	-0.057	0.142
-421.515	66.408	-0.200	-0.206
-420.500	-163.268	0.213	-0.010
-419.486	-138.782	0.120	0.013
-418.471	-43.884	-0.112	0.057
-417.457	-191.602	-0.255	0.003
-416.442	-81.452	-0.162	-0.054
-415.428	-200.000	-0.008	-0.113
-414.413	-200.000	-0.007	-0.059
-413.398	53.671	0.053	-0.052
-412.384	135.695	-0.120	-0.158
-411.369	-60.281	0.197	-0.085
-410.355	-4.651	0.079	-0.055
-409.340	-200.000	-0.002	0.026
-408.325	-31.355	0.104	-0.059
-407.311	800.000	-0.066	-0.236
-406.296	-113.802	-0.060	-0.012
-405.282	800.000	-0.081	0.310
-404.267	-140.239	0.290	0.031
-403.252	126.233	-0.036	-0.046
-402.238	-28.743	-0.267	0.155
-401.223	-61.670	0.135	-0.057
-400.209	474.464	-0.076	0.174
-399.194	191.193	-0.180	-0.275
-398.179	158.008	-0.055	0.077
-397.165	-19.285	0.050	-0.032
-396.150	62.994	0.289	-0.293
-395.136	-118.858	-0.146	-0.026
-394.121	-200.000	0.007	-0.050
-393.106	-200.000	-0.027	-0.232
-392.092	181.525	0.159	-0.237
-391.077	-179.384	0.250	-0.006
-390.063	378.015	0.088	-0.181
-389.048	183.182	0.132	-0.197
-388.033	-200.000	-0.020	0.197
-387.019	-200.000	0.004	-0.199
-386.004	177.329	0.125	-0.185
-384.990	-200.000	0.003	-0.316
-383.975	-74.739	-0.078	0.029
-382.960	21.733	-0.110	0.090
-381.946	-59.669	0.289	0.125
-380.931	-132.273	0.218	0.029
-379.917	-95.351	0.183	0.050
-378.902	-144.833	0.012	0.001
-377.888	378.746	-0.069	0.143
-376.873	-58.340	0.263	0.116
-375.858	-102.874	-0.088	0.021
-374.844	456.840	-0.074	-0.166
-373.829	66.679	0.189	0.194
-372.815	-108.998	0.295	0.064
-371.800	394.502	-0.075	-0.158
-370.785	-200.000	-0.013	-0.086
-369.771	-200.000	-0.002	0.131
-368.756	-57.948	-0.157	-0.069
-367.742	75.337	0.123	-0.132
-366.727	-200.000	-0.063	0.303
-365.712	35.553	-0.304	-0.270
-364.698	-125.814	0.206	0.031
-363.683	-182.894	-0.149	0.003
-362.669	-200.000	0.110	0.552
-361.654	230.404	-0.188	0.310
-360.639	-200.000	0.010	0.117
-359.625	-200.000	-0.068	0.464
-358.610	84.577	0.232	0.256
-357.596	800.000	0.022	-0.086
-356.581	-15.877	-0.101	0.065
-355.566	36.551	0.201	0.179
-354.552	800.000	0.075	-0.252
-353.537	-93.260	0.420	0.118
-352.523	82.857	0.123	0.135
-351.508	324.228	0.166	-0.321
-350.493	33.836	-0.178	-0.157
-349.479	-23.380	0.062	0.038
-348.464	-200.000	0.045	-0.339
-347.450	348.526	0.092	0.183
-346.435	-83.116	-0.300	-0.098
-345.420	-13.598	-0.228	0.149
-344.406	-60.356	-0.275	0.118
-343.391	244.729	0.134	0.228
-342.377	-191.407	0.194	0.002
-341.362	-62.956	0.291	0.121
-340.348	-91.046	0.410	-0.119
-339.333	-141.447	-0.532	-0.054
-338.318	800.000	-0.047	-0.188
-337.304	-113.066	0.125	-0.025
-336.289	260.511	-0.123	0.215
-335.275	-61.607	0.303	-0.128
-334.260	319.868	-0.046	0.087
-333.245	60.824	0.095	0.095
-332.231	800.000	-0.132	0.370
-331.216	355.630	-0.074	0.149
-330.202	800.000	-0.052	-0.150
-329.187	695.388	0.065	-0.171
-328.172	-200.000	0.035	0.237
-327.158	780.869	-0.030	0.083
-326.143	117.121	0.043	0.053
-325.129	10.234	-0.228	0.175
-324.114	-80.233	0.617	0.208
-323.099	161.679	0.064	0.091
-322.085	-37.261	0.312	-0.168
-321.070	243.354	0.085	-0.144
-320.056	-200.000	-0.051	0.263
-319.041	-90.560	0.061	0.018
-318.026	-165.593	-0.171	-0.008
-317.012	136.458	0.055	0.073
-315.997	-54.630	-0.151	0.069
-314.983	-46.359	0.158	0.079
-313.968	95.388	0.150	0.173
-312.953	-69.306	-0.087	-0.034
-311.939	319.094	0.059	0.113
-310.924	12.608	-0.308	0.239
-309.910	281.385	-0.175	-0.317
-308.895	-10.524	-0.255	-0.171
-307.880	-200.000	0.021	-0.137
-306.866	-200.000	-0.051	-0.283
-305.851	-31.465	-0.160	-0.091
-304.837	-170.547	0.166	0.006
-303.822	-187.333	-0.377	-0.005
-302.807	368.454	0.085	0.174
-301.793	-172.000	0.197	0.006
-300.778	-200.000	0.003	0.271
-299.764	188.072	-0.120	0.181
-298.749	38.988	-0.099	0.089
-297.735	800.000	0.132	-0.409
-296.720	-156.383	-0.112	-0.007
-295.705	142.544	0.188	0.251
-294.691	88.921	0.187	0.210
-293.676	131.719	0.194	-0.251
-292.662	42.617	0.293	-0.269
-291.647	-3.251	-0.235	-0.165
-290.632	772.347	-0.115	-0.316
-289.618	800.000	0.061	0.190
-288.603	-107.793	-0.267	-0.059
-287.589	38.874	0.100	-0.090
-286.574	5.049	0.056	-0.041
-285.559	400.852	-0.068	-0.143
-284.545	-200.000	0.020	-0.094
-283.530	-92.706	-0.192	-0.054
-282.516	-168.992	-0.279	-0.011
-281.501	-121.716	0.253	-0.042
-280.486	800.000	-0.054	-0.165
-279.472	800.000	-0.032	-0.102
-278.457	800.000	0.042	0.167
-277.443	43.316	0.216	-0.199
-276.428	424.283	0.057	-0.123
-275.413	198.631	-0.097	0.150
-274.399	-200.000	-0.014	0.225
-273.384	800.000	0.134	0.466
-272.370	606.488	0.100	-0.251
-271.355	-200.000	0.007	-0.076
-270.340	-40.014	0.079	0.042
-269.326	66.567	0.190	-0.195
-268.311	-21.840	0.131	0.080
-267.297	61.109	-0.128	-0.128
-266.282	-3.384	-0.073	0.051
-265.267	335.796	-0.072	-0.140
-264.253	107.690	0.267	-0.320
-263.238	157.692	-0.079	0.110
-262.224	196.844	0.018	0.028
-261.209	200.094	-0.145	0.223
-260.195	629.320	0.022	0.057
-259.180	143.957	0.091	0.122
-258.165	61.833	0.222	-0.223
-257.151	-30.220	0.164	-0.094
-256.136	-200.000	-0.016	-0.203
-255.122	216.232	-0.353	-0.564
-254.107	-27.612	0.333	0.195
-253.092	134.471	0.279	0.365
-252.078	-200.000	0.044	0.410
-251.063	-94.285	0.063	0.017
-250.049	532.050	-0.020	-0.048
-249.034	-73.137	0.214	-0.079
-248.019	407.232	0.065	-0.137
-247.005	-200.000	0.002	0.318
-245.990	-45.848	0.214	-0.106
-244.976	-71.993	0.190	0.071
-243.961	9.768	0.124	-0.095
-242.946	321.527	-0.179	-0.342
-241.932	-71.192	-0.225	-0.085
-240.917	-200.000	0.032	0.202
-239.903	-200.000	-0.038	-0.216
-238.888	105.463	-0.138	0.164
-237.873	212.047	0.015	-0.024
-236.859	-49.873	0.225	0.107
-235.844	-17.085	-0.385	0.244
-234.830	-159.462	0.211	-0.012
-233.815	800.000	0.030	0.125
-232.800	-160.361	-0.371	0.020
-231.786	-23.951	0.265	0.159
-230.771	272.208	-0.021	-0.038
-229.757	800.000	0.079	0.254
-228.742	-59.436	-0.114	-0.049
-227.727	-36.077	0.284	0.155
-226.713	138.980	-0.138	0.182
-225.698	-128.660	0.522	0.074
-224.684	17.727	-0.144	0.115
-223.669	-14.666	0.095	-0.061
-222.655	42.277	-0.084	-0.077
-221.640	-200.000	0.025	0.244
-220.625	89.280	-0.047	-0.053
-219.611	-6.025	-0.287	0.197
-218.596	-200.000	-0.021	0.122
-217.582	-200.000	0.030	-0.158
-216.567	77.895	0.119	-0.127
-215.552	-200.000	-0.043	0.226
-214.538	-23.779	-0.116	0.070
-213.523	292.320	0.118	-0.216
-212.509	-21.002	-0.009	-0.005
-211.494	-2.610	-0.078	0.055
-210.479	-177.602	-0.209	0.005
-209.465	16.743	0.134	-0.107
-208.450	-200.000	0.012	0.200
-207.436	23.578	-0.308	0.254
-206.421	-94.643	-0.125	-0.034
-205.406	182.561	0.166	-0.246
-204.392	-117.961	-0.396	0.071
-203.377	-5.371	0.277	0.191
-202.363	-200.000	-0.010	0.168
-201.348	76.140	-0.161	0.171
-200.333	-200.000	-0.083	-0.384
-199.319	209.014	0.051	0.079
-198.304	-200.000	-0.060	0.323
-197.290	800.000	0.041	0.147
-196.275	443.884	0.087	-0.191
-195.260	52.059	-0.150	0.143
-194.246	6.957	-0.147	0.110
-193.231	-27.000	0.092	-0.054
-192.217	-65.227	0.297	-0.120
-191.202	-91.315	0.189	0.054
-190.187	-76.730	0.128	0.045
-189.173	-200.000	-0.028	-0.148
-188.158	-200.000	-0.006	0.206
-187.144	-24.218	-0.187	0.112
-186.129	77.315	-0.387	0.414
-185.114	506.790	-0.077	-0.179
-184.100	488.135	-0.090	0.206
-183.085	800.000	-0.117	-0.361
-182.071	46.784	0.249	0.233
-181.056	-105.683	0.083	-0.019
-180.042	36.501	-0.045	-0.040
-179.027	40.508	-0.114	-0.103
-178.012	748.549	0.068	0.185
-176.998	219.177	-0.101	0.162
-175.983	-200.000	0.032	0.161
-174.969	-173.425	-0.339	0.010
-173.954	479.261	-0.080	0.183
-172.939	-200.000	-0.050	-0.284
-171.925	800.000	-0.056	0.209
-170.910	-146.015	0.333	-0.030
-169.896	800.000	-0.024	-0.084
-168.881	752.334	-0.071	0.193
-167.866	46.683	-0.189	-0.176
-166.852	800.000	-0.088	-0.343
-165.837	-69.761	0.303	-0.116
-164.823	-147.190	0.278	0.024
-163.808	25.901	0.228	0.191
-162.793	-200.000	0.061	0.430
-161.779	-69.627	-0.104	-0.040
-160.764	-77.002	-0.328	-0.115
-159.750	800.000	0.045	-0.149
-158.735	-28.163	-0.245	0.142
-157.720	-76.211	-0.212	-0.075
-156.706	-73.223	0.246	-0.091
-155.691	-39.205	0.299	0.158
-154.677	9.867	0.222	0.169
-153.662	-178.423	-0.314	0.007
-152.647	59.134	-0.039	0.039
-151.633	136.865	0.145	-0.190
-150.618	-11.633	-0.236	0.156
-149.604	674.738	-0.067	0.173
-148.589	800.000	-0.017	-0.067
-147.574	-76.100	-0.288	0.102
-146.560	412.365	0.044	0.094
-145.545	-80.090	-0.298	0.100
-144.531	800.000	-0.032	0.101
-143.516	-78.095	0.125	-0.043
-142.502	200.533	0.125	-0.193
-141.487	242.968	0.098	0.164
-140.472	5.120	-0.091	-0.067
-139.458	-123.075	0.182	0.029
-138.443	-63.191	-0.139	0.057
-137.429	19.114	0.123	-0.099
-136.414	-54.435	0.337	0.153
-135.399	-200.000	-0.045	0.208
-134.385	-63.104	-0.255	-0.106
-133.370	553.279	-0.081	-0.194
-132.356	-200.000	-0.071	-0.456
-131.341	800.000	-0.094	0.281
-130.326	-23.832	0.210	0.126
-129.312	-110.784	0.371	-0.077
-128.297	-200.000	0.001	0.314
-127.283	156.836	-0.135	0.187
-126.268	157.907	-0.173	-0.240
-125.253	-200.000	0.001	0.127
-124.239	31.713	0.096	-0.083
-123.224	-6.702	-0.285	0.195
-122.210	-105.177	-0.293	0.067
-121.195	338.879	0.112	-0.219
-120.180	455.551	-0.115	0.256
-119.166	-83.207	0.144	0.046
-118.151	157.600	-0.108	0.149
-117.137	159.133	-0.151	0.211
-116.122	42.016	0.307	-0.279
-115.107	10.264	-0.126	-0.096
-114.093	-200.000	-0.017	-0.470
-113.078	29.650	0.130	-0.111
-112.064	800.000	0.084	0.326
-111.049	800.000	-0.106	0.332
-110.034	-120.764	0.297	0.050
-109.020	-101.144	0.380	-0.093
-108.005	255.388	0.127	0.219
-106.991	627.599	-0.098	0.248
-105.976	-2.991	-0.270	-0.188
-104.962	408.620	-0.153	-0.324
-103.947	170.486	0.065	-0.093
-102.932	-109.530	-0.296	-0.063
-101.918	-200.000	0.004	0.116
-100.903	-84.461	0.251	0.079
-99.889	-99.256	0.174	-0.044
-98.874	-142.317	0.071	0.007
-97.859	-200.000	-0.030	0.239
-96.845	82.014	-0.039	0.042
-95.830	-132.196	0.197	-0.026
-94.816	-98.963	0.316	-0.080
-93.801	800.000	-0.070	0.243
-92.786	269.620	0.027	0.048
-91.772	-200.000	-0.025	-0.139
-90.757	399.571	-0.248	-0.520
-89.743	544.624	-0.116	-0.277
-88.728	73.233	0.149	-0.155
-87.713	137.852	0.111	0.145
-86.699	-18.342	0.275	0.172
-85.684	174.830	-0.111	-0.161
-84.670	349.791	-0.021	-0.041
-83.655	96.132	-0.171	-0.196
-82.640	-44.605	-0.185	0.093
-81.626	-200.000	0.014	0.239
-80.611	-173.663	0.250	0.007
-79.597	733.656	-0.065	-0.175
-78.582	53.572	0.277	-0.266
-77.567	-40.132	0.346	-0.180
-76.553	-195.540	0.337	-0.002
-75.538	-134.761	-0.215	-0.026
-74.524	-137.724	0.104	-0.012
-73.509	-77.434	0.222	0.077
-72.494	24.906	-0.021	-0.017
-71.480	800.000	0.055	0.175
-70.465	548.514	-0.119	0.285
-69.451	142.684	-0.211	0.280
-68.436	800.000	0.077	0.276
-67.422	-200.000	-0.100	0.480
-66.407	204.697	0.129	0.200
-65.392	-13.485	0.160	-0.104
-64.378	-96.472	-0.127	-0.034
-63.363	402.806	0.103	-0.216
-62.349	-200.000	0.006	-0.199
-61.334	-14.976	-0.851	-0.545
-60.319	-55.388	0.221	0.099
-59.305	522.781	-0.316	-0.743
-58.290	22.028	0.522	0.425
-57.276	530.607	0.671	1.584
-56.261	-200.000	72.133	527.143
-55.246	593.424	1280.869	3162.231
-54.232	146.644	2504.745	3361.725
-53.217	115.134	2341.973	2855.638
-52.203	53.380	1959.307	1876.030
-51.188	47.043	1747.271	1623.377
-50.173	44.067	1699.603	1556.230
-49.159	57.958	1731.059	1692.477
-48.144	64.490	1750.060	1761.323
-47.130	46.842	1714.323	1590.963
-46.115	43.483	1700.714	1552.512
-45.100	43.334	1696.393	1547.369
-44.086	43.277	1693.538	1544.267
-43.071	43.275	1690.737	1541.639
-42.057	43.237	1688.750	1539.477
-41.042	43.294	1686.641	1537.926
-40.027	43.233	1684.801	1535.717
-39.013	43.244	1682.694	1533.822
-37.998	43.223	1680.943	1532.003
-36.984	43.215	1679.898	1530.933
-35.969	43.472	1678.044	1531.129
-34.954	43.473	1676.467	1529.638
-33.940	43.440	1674.721	1527.733
-32.925	43.425	1672.546	1525.580
-31.911	43.422	1671.108	1524.179
-30.896	43.421	1669.525	1522.670
-29.881	43.394	1667.334	1520.405
-28.867	43.434	1665.272	1518.765
-27.852	43.428	1664.435	1517.897
-26.838	43.392	1662.920	1516.184
-25.823	43.472	1661.503	1515.431
-24.809	43.514	1660.017	1514.337
-23.794	43.415	1658.665	1512.302
-22.779	43.446	1656.722	1510.697
-21.765	43.406	1655.266	1509.014
-20.750	43.479	1653.147	1507.567
-19.736	43.530	1651.876	1506.729
-18.721	43.506	1650.509	1505.240
-17.706	43.464	1648.478	1503.019
-16.692	43.395	1647.804	1501.829
-15.677	43.464	1646.439	1501.040
-14.663	43.439	1644.884	1499.375
-13.648	43.497	1643.520	1498.501
-12.633	43.368	1641.914	1496.026
-11.619	43.479	1640.217	1495.241
-10.604	43.522	1638.130	1493.598
-9.590	43.465	1637.378	1492.433
-8.575	43.422	1636.483	1491.238
-7.560	43.562	1634.428	1490.342
-6.546	43.394	1633.361	1488.067
-5.531	43.383	1632.640	1487.271
-4.517	43.499	1630.749	1486.344
-3.502	43.486	1629.918	1485.428
-2.487	43.541	1628.141	1484.156
-1.473	43.556	1617.786	1474.767
-0.458	41.216	1598.563	1440.290
0.556	36.358	1596.723	1403.765
1.571	33.409	1620.124	1402.413
2.586	32.465	1634.058	1407.298
3.600	28.413	1580.615	1331.775
4.615	15.470	1459.288	1141.984
5.629	3.535	1381.768	1003.937
6.644	1.223	1370.755	980.911
7.659	1.044	1369.619	978.854
8.673	1.004	1368.142	977.457
9.688	0.930	1366.811	975.941
10.702	0.630	1364.152	972.024
11.717	4.639	1372.941	1004.125
12.731	16.085	1394.926	1094.838
13.746	23.883	1407.787	1155.735
14.761	24.653	1407.637	1160.514
15.775	24.773	1407.196	1160.826
16.790	24.738	1407.157	1160.461
17.804	24.829	1406.033	1160.021
18.819	25.144	1405.437	1161.472
19.834	25.068	1405.386	1160.830
20.848	25.189	1403.864	1160.252
21.863	25.187	1402.997	1159.423
22.877	25.156	1402.439	1158.657
23.892	25.132	1401.840	1157.908
24.907	25.135	1400.722	1156.902
25.921	25.074	1400.236	1156.001
26.936	25.160	1398.566	1155.073
27.950	25.072	1397.691	1153.687
28.965	25.067	1396.371	1152.460
29.980	25.158	1394.887	1151.720
30.994	25.101	1393.849	1150.393
32.009	25.192	1392.684	1149.915
33.023	25.076	1391.717	1148.272
34.038	25.042	1390.226	1146.721
35.053	25.086	1389.359	1146.182
36.067	25.104	1388.236	1145.270
37.082	25.105	1387.247	1144.365
38.096	25.061	1386.510	1143.370
39.111	25.063	1385.784	1142.681
40.126	25.097	1384.978	1142.136
41.140	25.141	1384.483	1141.909
42.155	25.099	1384.229	1141.328
43.169	25.136	1384.002	1141.278
44.184	25.081	1383.636	1140.525
45.199	25.055	1383.940	1140.506
46.213	25.118	1382.582	1139.686
47.228	25.145	1382.121	1139.376
48.242	25.175	1380.810	1138.385
49.257	25.203	1379.139	1137.087
50.271	25.090	1378.150	1135.456
51.286	25.223	1376.203	1134.589
52.301	25.014	1375.291	1132.416
53.315	25.099	1374.105	1131.876
54.330	25.150	1373.196	1131.351
55.344	25.135	1371.982	1130.156
56.359	24.987	1371.719	1128.905
57.374	25.098	1370.805	1128.756
58.388	25.106	1369.863	1127.926
59.403	25.020	1369.489	1126.977
60.417	25.077	1368.954	1126.795
61.432	25.213	1367.707	1126.524
62.447	25.066	1367.191	1125.080
63.461	25.128	1365.669	1124.114
64.476	25.087	1365.142	1123.324
65.490	25.188	1363.860	1122.806
66.505	25.164	1362.213	1121.200
67.520	25.106	1361.276	1119.965
68.534	25.111	1360.135	1118.958
69.549	25.019	1359.263	1117.567
70.563	25.177	1358.197	1117.581
71.578	25.163	1357.139	1116.523
72.593	25.234	1356.368	1116.230
73.607	25.117	1355.650	1114.810
74.622	25.214	1354.845	1114.655
75.636	25.098	1354.220	1113.324
76.651	25.175	1353.512	1113.119
77.666	25.163	1352.721	1112.297
78.680	25.051	1352.788	1111.558
79.695	25.151	1351.835	1111.298
80.709	25.067	1351.119	1110.089
81.724	25.127	1349.803	1109.279
82.739	25.126	1348.934	1108.459
83.753	25.145	1347.782	1107.535
84.768	25.057	1347.040	1106.283
85.782	25.096	1345.906	1105.496
86.797	24.991	1344.947	1103.964
87.812	25.166	1343.767	1103.973
88.826	25.285	1342.095	1103.232
89.841	25.132	1341.531	1101.729
90.855	25.223	1340.383	1101.249
91.870	25.179	1339.519	1100.172
92.884	25.185	1338.703	1099.441
93.899	25.157	1338.394	1098.920
94.914	25.189	1337.092	1097.951
95.928	25.260	1336.101	1097.475
96.943	25.069	1336.008	1096.133
97.957	25.101	1335.117	1095.500
98.972	25.153	1334.175	1094.947
99.987	25.104	1333.291	1093.828
101.001	25.145	1332.188	1093.072
102.016	25.152	1331.086	1092.117
103.030	25.143	1330.300	1091.319
104.045	25.120	1329.877	1090.737
105.060	25.199	1328.478	1089.973
106.074	25.195	1327.424	1088.988
107.089	25.276	1326.255	1088.424
108.103	25.172	1325.659	1087.206
109.118	25.256	1324.278	1086.485
110.133	25.335	1323.290	1086.058
111.147	25.242	1322.018	1084.352
112.162	25.153	1321.310	1083.142
113.176	25.175	1319.894	1082.019
114.191	25.213	1318.792	1081.246
115.206	25.149	1318.500	1080.526
116.220	25.304	1316.758	1079.935
117.235	25.207	1315.768	1078.445
118.249	25.197	1314.897	1077.578
119.264	25.253	1314.039	1077.114
120.279	25.288	1313.246	1076.576
121.293	25.257	1312.699	1075.848
122.308	25.225	1311.988	1074.982
123.322	25.264	1310.591	1073.975
124.337	25.243	1310.196	1073.426
125.352	25.309	1308.765	1072.556
126.366	25.410	1308.168	1072.575
127.381	25.384	1307.284	1071.598
128.395	25.350	1306.482	1070.642
129.410	25.314	1305.758	1069.744
130.424	25.396	1304.938	1069.466
131.439	25.312	1304.044	1068.137
132.454	25.269	1303.436	1067.290
133.468	25.301	1302.916	1066.957
134.483	25.360	1302.058	1066.513
135.497	25.290	1301.770	1065.768
136.512	25.263	1300.822	1064.738
137.527	25.343	1298.921	1063.557
138.541	25.309	1297.888	1062.419
139.556	25.347	1296.171	1061.143
140.570	25.279	1295.991	1060.501
141.585	25.300	1294.760	1059.524
142.600	25.388	1293.331	1058.780
143.614	25.205	1292.895	1057.252
144.629	25.289	1291.452	1056.473
145.643	25.215	1290.736	1055.355
146.658	25.131	1289.761	1053.969
147.673	25.210	1288.379	1053.210
148.687	25.208	1287.528	1052.413
149.702	25.200	1286.800	1051.675
150.716	25.204	1285.197	1050.298
151.731	25.252	1284.425	1049.855
152.746	25.306	1283.012	1048.923
153.760	25.257	1282.154	1047.842
154.775	25.370	1281.103	1047.552
155.789	25.367	1279.956	1046.504
156.804	25.294	1278.988	1045.193
157.819	25.272	1278.709	1044.744
158.833	25.258	1277.867	1043.882
159.848	25.360	1276.762	1043.480
160.862	25.271	1276.450	1042.614
161.877	25.122	1275.981	1041.274
162.892	25.262	1275.195	1041.353
163.906	25.323	1273.849	1040.518
164.921	25.292	1273.496	1039.957
165.935	25.430	1272.189	1039.593
166.950	25.321	1271.633	1038.421
167.964	25.412	1271.061	1038.388
168.979	25.306	1270.949	1037.586
169.994	25.466	1270.251	1037.853
171.008	25.385	1269.364	1036.569
172.023	25.488	1268.357	1036.247
173.037	25.433	1267.829	1035.409
174.052	25.397	1266.802	1034.271
175.067	25.334	1266.224	1033.343
176.081	25.453	1265.224	1033.119
177.096	25.329	1264.975	1032.113
178.110	25.495	1263.477	1031.750
179.125	25.395	1262.547	1030.328
180.140	25.409	1261.744	1029.659
181.154	25.377	1260.661	1028.507
182.169	25.313	1259.912	1027.433
183.183	25.374	1258.927	1026.889
184.198	25.402	1257.482	1025.780
185.213	25.365	1256.812	1024.934
186.227	25.538	1255.636	1024.867
187.242	25.460	1254.760	1023.617
188.256	25.427	1254.251	1022.923
189.271	25.349	1253.606	1021.867
190.286	25.526	1252.522	1021.897
191.300	25.400	1251.962	1020.635
192.315	25.491	1251.621	1020.780
193.329	25.442	1251.257	1020.116
194.344	25.413	1250.734	1019.435
195.359	25.621	1250.133	1020.036
196.373	25.501	1249.722	1018.928
197.388	25.411	1249.184	1017.893
198.402	25.367	1249.190	1017.558
199.417	25.420	1248.756	1017.415
200.432	25.533	1247.605	1017.025
201.446	25.446	1247.229	1016.134
202.461	25.416	1246.449	1015.242
203.475	25.517	1245.412	1014.874
204.490	25.459	1244.423	1013.653
205.504	25.535	1243.040	1012.863
206.519	25.597	1242.349	1012.562
207.534	25.486	1242.000	1011.562
208.548	25.515	1240.927	1010.764
209.563	25.514	1239.882	1009.816
210.577	25.534	1239.105	1009.207
211.592	25.541	1238.245	1008.454
212.607	25.533	1237.692	1007.871
213.621	25.478	1237.074	1006.972
214.636	25.510	1236.566	1006.651
215.650	25.565	1235.309	1005.841
216.665	25.573	1234.249	1004.933
217.680	25.559	1233.569	1004.216
218.694	25.627	1232.511	1003.645
219.709	25.587	1232.121	1003.014
220.723	25.608	1231.269	1002.352
221.738	25.594	1230.464	1001.527
222.753	25.483	1229.579	1000.099
223.767	25.616	1229.329	1000.548
224.782	25.731	1228.426	1000.364
225.796	25.697	1228.063	999.790
226.811	25.635	1227.990	999.297
227.826	25.665	1227.067	998.626
228.840	25.735	1226.101	998.138
229.855	25.655	1225.355	997.003
230.869	25.750	1224.591	996.816
231.884	25.742	1223.997	996.198
232.899	25.656	1223.516	995.244
233.913	25.709	1222.891	994.941
234.928	25.748	1222.408	994.676
235.942	25.827	1221.512	994.297
236.957	25.742	1220.955	993.286
237.972	25.762	1220.073	992.589
238.986	25.700	1220.080	992.168
240.001	25.793	1219.093	991.785
241.015	25.885	1218.160	991.448
242.030	25.879	1217.605	990.875
243.045	25.943	1216.559	990.286
244.059	25.818	1215.917	988.992
245.074	25.909	1215.271	988.877
246.088	25.858	1214.512	987.893
247.103	25.933	1213.399	987.312
248.117	25.847	1212.902	986.348
249.132	25.929	1212.121	986.072
250.147	25.930	1211.388	985.398
251.161	25.957	1210.832	985.004
252.176	25.904	1210.014	983.960
253.190	25.848	1209.583	983.218
254.205	25.843	1209.122	982.731
255.220	25.990	1208.239	982.724
256.234	26.038	1207.067	981.947
257.249	25.973	1207.002	981.456
258.263	26.019	1206.132	980.908
259.278	25.876	1206.103	980.023
260.293	25.845	1205.467	979.247
261.307	26.012	1204.567	979.337
262.322	26.075	1203.967	979.105
263.336	26.008	1203.349	978.155
264.351	25.991	1202.685	977.435
265.366	25.975	1202.094	976.780
266.380	25.931	1201.783	976.204
267.395	25.988	1200.794	975.625
268.409	25.968	1200.280	975.010
269.424	26.016	1199.552	974.593
270.439	26.074	1199.373	974.675
271.453	26.005	1198.692	973.662
272.468	26.020	1197.556	972.735
273.482	26.086	1196.879	972.455
274.497	26.100	1196.549	972.173
275.512	26.092	1195.807	971.443
276.526	26.140	1195.051	971.001
277.541	26.088	1194.429	970.130
278.555	26.063	1194.170	969.701
279.570	26.083	1193.267	968.986
280.585	26.077	1192.610	968.334
281.599	26.115	1191.267	967.367
282.614	26.108	1190.801	966.864
283.628	26.204	1189.498	966.236
284.643	26.159	1189.004	965.505
285.657	26.082	1188.296	964.432
286.672	26.142	1187.246	963.817
287.687	26.204	1186.397	963.370
288.701	26.207	1185.763	962.787
289.716	26.305	1184.795	962.437
290.730	26.325	1184.643	962.336
291.745	26.233	1183.894	961.156
292.760	26.180	1183.521	960.485
293.774	26.241	1182.727	960.078
294.789	26.284	1182.107	959.719
295.803	26.466	1181.069	959.759
296.818	26.397	1180.616	958.939
297.833	26.340	1180.225	958.234
298.847	26.267	1179.428	957.115
299.862	26.336	1178.510	956.650
300.876	26.279	1178.097	955.929
301.891	26.294	1177.672	955.579
302.906	26.418	1176.614	955.289
303.920	26.444	1176.079	954.911
304.935	26.429	1175.393	954.189
305.949	26.400	1174.601	953.311
306.964	26.337	1174.497	952.810
307.979	26.383	1173.770	952.376
308.993	26.404	1172.987	951.766
310.008	26.411	1172.002	950.919
311.022	26.597	1171.159	951.130
312.037	26.458	1170.551	949.823
313.052	26.406	1169.680	948.757
314.066	26.297	1169.371	947.853
315.081	26.363	1168.523	947.429
316.095	26.431	1167.819	947.127
317.110	26.449	1167.167	946.609
318.125	26.514	1166.018	945.934
319.139	26.452	1166.052	945.556
320.154	26.413	1165.581	944.885
321.168	26.531	1164.713	944.714
322.183	26.499	1164.136	943.991
323.197	26.539	1163.496	943.600
324.212	26.557	1162.742	942.997
325.227	26.499	1162.467	942.393
326.241	26.589	1161.578	942.056
327.256	26.662	1160.717	941.655
328.270	26.448	1160.114	939.970
329.285	26.649	1159.049	940.066
330.300	26.675	1158.401	939.590
331.314	26.601	1158.083	938.866
332.329	26.547	1157.362	937.919
333.343	26.689	1156.013	937.477
334.358	26.700	1155.448	936.996
335.373	26.772	1154.669	936.652
336.387	26.775	1154.300	936.286
337.402	26.706	1153.570	935.252
338.416	26.619	1153.223	934.441
339.431	26.792	1152.084	934.328
340.446	26.859	1151.182	933.857
341.460	26.734	1151.580	933.453
342.475	26.687	1150.729	932.438
343.489	26.678	1149.485	931.303
344.504	26.688	1148.948	930.839
345.519	26.770	1147.790	930.235
346.533	26.916	1146.793	930.094
347.548	26.683	1146.598	928.663
348.562	26.888	1145.499	928.738
349.577	26.808	1144.899	927.759
350.592	26.655	1144.175	926.311
351.606	26.763	1143.479	926.214
352.621	26.849	1142.772	925.999
353.635	26.858	1142.366	925.636
354.650	26.961	1141.492	925.371
355.665	26.986	1140.746	924.808
356.679	26.823	1140.841	923.975
357.694	26.907	1139.774	923.455
358.708	26.940	1138.860	922.804
359.723	26.891	1138.109	921.862
360.738	26.869	1137.999	921.579
361.752	26.834	1137.553	920.960
362.767	26.846	1137.011	920.503
363.781	26.976	1136.351	920.544
364.796	27.065	1135.640	920.336
365.810	27.022	1134.929	919.462
366.825	27.040	1134.342	918.997
367.840	27.054	1133.840	918.578
368.854	27.218	1133.466	919.023
369.869	27.167	1132.322	917.757
370.883	27.194	1131.500	917.147
371.898	27.099	1131.132	916.286
372.913	27.039	1130.688	915.545
373.927	27.125	1129.770	915.156
374.942	27.213	1129.366	915.189
375.956	27.059	1129.589	914.511
376.971	27.084	1128.834	913.946
377.986	27.122	1127.842	913.253
379.000	27.154	1127.272	912.873
380.015	27.167	1126.836	912.502
381.029	27.258	1125.957	912.166
382.044	27.198	1125.503	911.420
383.059	27.081	1125.063	910.393
384.073	27.081	1124.566	909.910
385.088	27.196	1123.652	909.664
386.102	27.232	1122.647	908.955
387.117	27.284	1121.300	908.042
388.132	27.252	1120.346	907.028
389.146	27.245	1120.090	906.709
390.161	27.225	1119.580	906.112
391.175	27.317	1118.724	905.800
392.190	27.376	1117.823	905.281
393.205	27.313	1117.056	904.267
394.219	27.447	1116.251	904.204
395.234	27.492	1115.531	903.763
396.248	27.432	1114.567	902.603
397.263	27.375	1113.976	901.762
398.278	27.411	1113.855	901.764
399.292	27.342	1113.347	900.932
400.307	27.377	1112.597	900.415
401.321	27.425	1111.824	899.948
402.336	27.537	1111.110	899.843
403.350	27.464	1110.540	898.943
404.365	27.421	1109.879	898.119
405.380	27.453	1109.216	897.659
406.394	27.648	1108.278	897.779
407.409	27.558	1107.657	896.756
408.423	27.603	1106.936	896.315
409.438	27.663	1105.949	895.731
410.453	27.534	1105.685	894.800
411.467	27.561	1104.963	894.273
412.482	27.520	1104.226	893.393
413.496	27.585	1103.709	893.217
414.511	27.615	1102.935	892.658
415.526	27.690	1102.321	892.448
416.540	27.678	1102.416	892.389
417.555	27.602	1101.753	891.399
418.569	27.616	1101.179	890.927
419.584	27.664	1100.771	890.752
420.599	27.653	1100.128	890.097
421.613	77.991	1281.757	1313.609
422.628	73.030	1308.249	1313.765
