DTS Sentinel unit serial number:	SN413079Multiplexer serial number:	ORYXHardware model number:	OX4-SRSoftware version number:	ORYX F/W v4.00 Oryx Data Collector v3.7.2.0data status	okinstallation	princeton_trtdifferential loss correction	single-endedforward channel	channel 2reverse channel	N/Adate	2019/09/11time	22:21:11forward acquisition time	60.00reverse acquisition time	0.00gamma	496.2192k internal	0.2325k external	0.2325temperature offset calibration	1.0075default loss term (dB/km)	0.3790temperature slope calibration	1.0000multiplexer offset coefficient	1.0000multiplexer slope coefficient	1.0000fibre end	0.00T internal ref (°C)	35.19T ext. ref 1 (°C)	1.79T ext. ref 2 (°C)	29.02length (m)	temperature (°C)	Stokes	anti-Stokes-747.200	-81.614	-0.169	0.056
-746.185	238.851	0.035	0.059
-745.171	768.157	-0.103	-0.284
-744.156	-24.297	-0.049	-0.030
-743.142	47.357	-0.082	0.077
-742.127	150.626	-0.197	0.270
-741.112	-200.000	-0.042	0.294
-740.098	281.341	0.131	0.236
-739.083	215.703	0.030	0.047
-738.069	-48.648	-0.192	-0.093
-737.054	-41.627	-0.074	0.038
-736.039	137.222	0.197	0.260
-735.025	-6.181	0.258	-0.178
-734.010	-55.221	-0.149	-0.067
-732.996	176.790	-0.142	-0.208
-731.981	-200.000	0.025	-0.210
-730.966	547.065	-0.095	-0.230
-729.952	-11.366	0.049	0.033
-728.937	-0.583	-0.098	0.070
-727.923	70.037	0.275	-0.286
-726.908	388.057	0.094	0.196
-725.894	121.602	-0.070	0.088
-724.879	152.642	0.132	-0.182
-723.864	-76.658	0.193	-0.068
-722.850	-64.145	0.096	-0.040
-721.835	345.992	0.004	-0.008
-720.821	483.489	0.090	-0.206
-719.806	-54.069	-0.139	0.064
-718.791	800.000	-0.052	0.159
-717.777	-26.369	0.046	0.027
-716.762	-200.000	-0.004	-0.054
-715.748	419.187	-0.044	0.095
-714.733	630.971	0.043	0.110
-713.718	179.098	-0.047	0.069
-712.704	38.742	0.368	0.331
-711.689	-120.386	-0.113	0.019
-710.675	800.000	-0.048	0.187
-709.660	86.682	0.133	-0.148
-708.645	-176.403	0.162	-0.004
-707.631	-62.088	-0.269	-0.113
-706.616	75.480	-0.344	-0.366
-705.602	-68.191	-0.121	0.047
-704.587	-13.505	-0.184	0.120
-703.572	5.029	-0.227	0.168
-702.558	-48.727	0.121	0.058
-701.543	4.893	-0.172	0.128
-700.529	-69.720	0.274	-0.106
-699.514	-28.809	-0.203	0.117
-698.499	800.000	-0.120	-0.341
-697.485	-200.000	0.012	-0.149
-696.470	-200.000	0.012	-0.085
-695.456	75.839	0.158	0.168
-694.441	-135.145	0.313	0.038
-693.426	516.969	-0.117	-0.274
-692.412	800.000	-0.082	0.331
-691.397	8.595	0.258	-0.196
-690.383	-84.566	-0.212	0.067
-689.368	-200.000	-0.064	-0.299
-688.354	311.086	0.137	-0.259
-687.339	-152.603	0.210	-0.015
-686.324	-119.615	0.285	-0.050
-685.310	687.589	-0.144	0.378
-684.295	-163.232	0.302	-0.015
-683.281	-88.909	-0.093	0.028
-682.266	-27.243	-0.197	-0.115
-681.251	-200.000	0.040	0.248
-680.237	781.438	-0.133	0.366
-679.222	475.792	0.043	0.097
-678.208	-0.812	0.239	0.170
-677.193	-21.249	-0.252	-0.155
-676.178	45.413	0.179	-0.166
-675.164	601.246	-0.073	-0.182
-674.149	-200.000	0.022	-0.174
-673.135	58.655	0.132	-0.130
-672.120	449.957	0.100	0.222
-671.105	-126.359	-0.058	0.009
-670.091	-200.000	-0.038	0.289
-669.076	-200.000	0.032	-0.172
-668.062	-61.084	0.214	0.091
-667.047	360.145	-0.054	-0.110
-666.032	-6.449	0.364	-0.250
-665.018	-173.429	0.457	-0.014
-664.003	-200.000	0.012	-0.178
-662.989	5.982	-0.086	-0.064
-661.974	14.412	-0.349	-0.274
-660.959	-200.000	-0.003	0.096
-659.945	-60.096	0.206	-0.088
-658.930	-121.325	-0.375	-0.063
-657.916	-200.000	-0.032	-0.159
-656.901	-2.940	0.252	-0.177
-655.886	-23.531	-0.281	0.170
-654.872	623.259	-0.091	0.231
-653.857	-200.000	0.003	0.033
-652.843	79.162	0.178	0.192
-651.828	-200.000	0.007	0.310
-650.814	-200.000	-0.037	0.279
-649.799	-42.320	0.286	0.147
-648.784	-200.000	0.054	-0.328
-647.770	88.162	-0.070	0.079
-646.755	327.236	-0.118	0.227
-645.741	-153.838	-0.182	0.013
-644.726	-127.402	-0.187	0.027
-643.711	-42.597	0.079	-0.040
-642.697	-150.331	0.272	0.021
-641.682	175.279	-0.141	-0.205
-640.668	-58.150	-0.183	-0.080
-639.653	800.000	-0.066	0.185
-638.638	-89.695	0.232	-0.068
-637.624	-81.010	-0.301	0.100
-636.609	367.717	-0.165	0.334
-635.595	-200.000	-0.022	-0.188
-634.580	-200.000	-0.021	-0.269
-633.565	-32.231	0.345	0.194
-632.551	-120.802	-0.148	-0.025
-631.536	-175.516	0.089	0.002
-630.522	212.084	0.043	-0.068
-629.507	800.000	0.100	0.344
-628.492	189.355	-0.024	0.036
-627.478	-76.652	-0.140	0.049
-626.463	434.933	-0.048	-0.104
-625.449	606.711	0.035	-0.087
-624.434	375.071	0.080	-0.165
-623.419	-200.000	-0.028	-0.192
-622.405	-66.710	0.164	-0.065
-621.390	331.842	-0.085	0.165
-620.376	216.958	-0.101	0.162
-619.361	180.499	-0.104	-0.154
-618.346	-122.738	-0.215	0.035
-617.332	111.479	0.019	-0.023
-616.317	-109.659	0.131	0.028
-615.303	-24.953	0.019	-0.011
-614.288	151.020	-0.159	0.217
-613.273	-50.175	-0.322	-0.153
-612.259	-96.523	0.183	-0.048
-611.244	32.182	-0.125	0.108
-610.230	800.000	-0.123	-0.429
-609.215	434.775	0.052	-0.113
-608.201	127.447	-0.057	-0.073
-607.186	169.886	-0.064	0.091
-606.171	800.000	-0.139	0.528
-605.157	513.027	0.083	0.195
-604.142	405.360	-0.148	-0.313
-603.128	-59.404	-0.172	-0.074
-602.113	247.359	-0.053	0.089
-601.098	-54.972	-0.161	0.073
-600.084	-200.000	-0.012	0.142
-599.069	-176.478	-0.277	-0.007
-598.055	-200.000	-0.001	0.302
-597.040	-90.876	-0.101	-0.029
-596.025	-156.381	-0.229	-0.014
-595.011	-200.000	-0.024	-0.299
-593.996	143.331	0.071	0.095
-592.982	-84.414	0.396	-0.126
-591.967	-66.870	0.097	0.039
-590.952	-200.000	-0.002	-0.028
-589.938	234.726	0.167	0.277
-588.923	265.199	-0.181	-0.316
-587.909	-200.000	-0.023	0.349
-586.894	452.460	-0.078	-0.173
-585.879	87.506	0.165	-0.183
-584.865	800.000	-0.067	-0.254
-583.850	91.826	-0.216	0.244
-582.836	-20.805	-0.411	-0.253
-581.821	-193.792	-0.214	0.002
-580.806	-200.000	0.033	-0.147
-579.792	800.000	0.130	-0.472
-578.777	-96.554	-0.045	-0.012
-577.763	415.941	0.054	0.115
-576.748	-200.000	-0.045	-0.257
-575.733	-173.165	-0.665	-0.020
-574.719	-2.308	-0.084	-0.059
-573.704	-62.333	0.145	-0.060
-572.690	-71.935	0.013	0.005
-571.675	69.529	0.175	0.180
-570.661	547.741	0.132	0.316
-569.646	800.000	-0.074	-0.229
-568.631	-38.604	0.135	0.071
-567.617	-200.000	-0.036	-0.176
-566.602	-200.000	-0.024	0.393
-565.588	-6.154	-0.228	0.156
-564.573	-78.921	-0.075	-0.026
-563.558	-188.688	-0.046	-0.001
-562.544	-200.000	0.018	0.118
-561.529	-53.364	-0.184	-0.084
-560.515	270.795	0.120	0.212
-559.500	170.089	0.154	0.221
-558.485	-51.253	-0.162	0.076
-557.471	106.963	0.207	-0.247
-556.456	-200.000	0.010	-0.062
-555.442	-9.775	0.163	0.109
-554.427	32.231	0.143	0.124
-553.412	-200.000	0.048	-0.236
-552.398	800.000	-0.037	0.139
-551.383	800.000	0.025	0.096
-550.369	283.161	0.091	-0.163
-549.354	-118.510	-0.354	0.063
-548.339	-200.000	-0.029	0.200
-547.325	800.000	-0.022	-0.075
-546.310	3.096	0.152	-0.111
-545.296	800.000	-0.095	0.305
-544.281	-77.016	-0.058	-0.020
-543.266	22.802	0.250	-0.206
-542.252	800.000	0.042	0.138
-541.237	226.973	-0.076	0.124
-540.223	-9.237	-0.103	-0.069
-539.208	273.693	0.204	0.361
-538.193	800.000	-0.066	0.244
-537.179	-174.300	-0.117	-0.003
-536.164	-111.787	-0.023	-0.005
-535.150	485.875	0.128	0.292
-534.135	-128.501	-0.149	0.021
-533.121	203.410	0.257	-0.398
-532.106	14.552	-0.189	-0.148
-531.091	14.749	0.320	0.251
-530.077	-78.495	-0.132	-0.045
-529.062	150.675	0.224	0.304
-528.048	214.843	0.111	0.176
-527.033	-150.112	-0.273	-0.021
-526.018	800.000	-0.064	0.240
-525.004	-41.371	-0.239	0.123
-523.989	-85.369	-0.279	0.087
-522.975	637.553	-0.053	-0.135
-521.960	-87.350	0.105	-0.032
-520.945	-59.534	0.204	-0.087
-519.931	169.939	0.042	-0.060
-518.916	-48.473	0.231	-0.111
-517.902	-43.156	0.216	0.109
-516.887	347.319	0.020	0.039
-515.872	601.031	0.057	0.143
-514.858	-9.402	-0.161	-0.108
-513.843	800.000	0.149	0.523
-512.829	-200.000	-0.034	-0.213
-511.814	25.392	0.051	-0.042
-510.799	378.739	0.158	0.324
-509.785	-103.920	-0.357	-0.083
-508.770	88.390	0.130	-0.144
-507.756	228.866	-0.092	-0.150
-506.741	163.710	-0.140	-0.197
-505.726	-107.645	0.348	0.076
-504.712	708.914	0.207	0.546
-503.697	37.703	0.096	0.085
-502.683	210.187	-0.054	-0.084
-501.668	371.799	-0.103	-0.208
-500.653	760.596	0.032	-0.087
-499.639	-111.819	-0.165	-0.033
-498.624	800.000	0.026	-0.092
-497.610	14.149	0.074	-0.057
-496.595	-56.560	-0.111	0.049
-495.581	19.026	0.222	-0.178
-494.566	800.000	-0.107	-0.438
-493.551	744.444	-0.037	-0.100
-492.537	-200.000	0.018	-0.169
-491.522	103.164	0.102	0.120
-490.508	-51.609	-0.187	-0.087
-489.493	800.000	-0.069	-0.272
-488.478	-64.441	0.147	-0.060
-487.464	-62.932	-0.105	-0.043
-486.449	-102.482	-0.231	0.055
-485.435	-110.822	-0.170	0.035
-484.420	283.520	-0.059	-0.105
-483.405	717.707	-0.065	-0.171
-482.391	89.395	0.191	0.212
-481.376	-7.479	-0.138	0.093
-480.362	-139.772	0.246	-0.026
-479.347	-200.000	0.046	-0.242
-478.332	-21.164	0.004	-0.003
-477.318	240.111	0.173	-0.288
-476.303	800.000	-0.077	0.292
-475.289	-63.795	0.118	-0.048
-474.274	-123.703	0.211	0.033
-473.259	800.000	-0.057	0.180
-472.245	-200.000	-0.016	-0.152
-471.230	-200.000	-0.004	-0.129
-470.216	-152.632	-0.410	-0.029
-469.201	-146.366	0.143	0.013
-468.186	-77.669	-0.153	0.053
-467.172	6.468	-0.061	-0.045
-466.157	-3.551	-0.135	-0.094
-465.143	-7.766	-0.087	-0.059
-464.128	738.672	-0.044	-0.118
-463.113	83.412	0.139	0.151
-462.099	-200.000	0.031	0.404
-461.084	47.209	0.174	0.161
-460.070	54.369	-0.270	0.259
-459.055	-200.000	0.025	-0.190
-458.040	-161.107	0.154	0.008
-457.026	-65.546	0.288	0.115
-456.011	78.657	0.086	0.092
-454.997	800.000	0.035	-0.143
-453.982	800.000	0.107	-0.300
-452.968	-200.000	0.040	-0.184
-451.953	24.836	-0.071	-0.059
-450.938	-200.000	0.007	0.155
-449.924	-88.479	-0.277	-0.083
-448.909	77.143	-0.303	-0.321
-447.895	-96.144	-0.114	0.030
-446.880	-88.798	-0.217	-0.064
-445.865	-200.000	0.048	0.254
-444.851	-98.703	0.112	-0.028
-443.836	800.000	0.032	0.132
-442.822	522.627	-0.136	0.318
-441.807	-113.670	-0.054	0.011
-440.792	188.213	0.065	-0.096
-439.778	160.313	-0.117	-0.162
-438.763	65.267	-0.228	0.230
-437.749	-69.319	-0.114	0.044
-436.734	-21.004	0.235	-0.143
-435.719	85.156	-0.306	0.334
-434.705	-33.802	0.157	-0.086
-433.690	-147.465	0.255	-0.021
-432.676	800.000	0.013	0.045
-431.661	-200.000	0.004	0.155
-430.646	-29.949	-0.203	0.115
-429.632	-200.000	0.019	-0.185
-428.617	70.842	0.217	-0.224
-427.603	14.537	-0.099	-0.077
-426.588	-14.621	0.158	-0.102
-425.573	-200.000	-0.046	0.203
-424.559	-9.787	-0.220	-0.146
-423.544	-29.093	0.162	-0.093
-422.530	-200.000	-0.021	0.221
-421.515	296.117	-0.159	0.291
-420.500	-200.000	-0.046	-0.315
-419.486	-82.728	-0.281	0.091
-418.471	-117.570	0.291	0.052
-417.457	-14.643	0.131	-0.084
-416.442	109.314	0.154	0.184
-415.428	70.542	-0.136	-0.140
-414.413	800.000	-0.137	-0.379
-413.398	-200.000	0.013	-0.240
-412.384	602.264	-0.072	0.178
-411.369	97.974	0.195	0.223
-410.355	-140.746	0.262	-0.027
-409.340	-49.831	0.360	0.170
-408.325	318.771	0.099	0.187
-407.311	-62.518	-0.128	0.053
-406.296	547.360	-0.108	-0.256
-405.282	-2.163	-0.057	-0.040
-404.267	8.893	0.114	0.085
-403.252	2.922	0.244	0.176
-402.238	-51.637	-0.164	0.076
-401.223	-200.000	0.039	0.189
-400.209	800.000	0.036	0.108
-399.194	-200.000	0.004	0.290
-398.179	57.216	0.181	0.176
-397.165	-200.000	0.013	0.214
-396.150	-28.591	0.143	0.082
-395.136	216.799	-0.155	-0.245
-394.121	-200.000	-0.017	-0.097
-393.106	-82.124	0.210	0.068
-392.092	800.000	0.032	0.106
-391.077	63.732	-0.051	-0.051
-390.063	-200.000	-0.046	-0.263
-389.048	-16.212	0.170	0.108
-388.033	-200.000	0.035	-0.231
-387.019	210.539	-0.167	-0.261
-386.004	787.237	0.116	0.316
-384.990	277.145	-0.132	-0.234
-383.975	-73.528	-0.103	-0.037
-382.960	800.000	0.062	-0.258
-381.946	260.048	-0.206	-0.354
-380.931	-111.514	-0.350	-0.071
-379.917	588.047	0.073	0.179
-378.902	53.197	0.064	-0.061
-377.888	153.710	0.156	0.212
-376.873	-43.080	0.264	0.133
-375.858	190.849	0.060	0.089
-374.844	272.785	0.193	0.339
-373.829	-45.755	-0.173	-0.085
-372.815	457.590	-0.143	-0.317
-371.800	141.314	-0.182	0.239
-370.785	-83.365	0.226	0.072
-369.771	410.491	-0.133	0.280
-368.756	-36.358	-0.195	-0.105
-367.742	-54.540	0.185	-0.083
-366.727	107.232	-0.072	-0.085
-365.712	-50.581	-0.125	0.058
-364.698	51.180	0.063	0.059
-363.683	107.474	-0.083	-0.099
-362.669	561.955	0.156	-0.375
-361.654	383.208	0.087	-0.178
-360.639	-200.000	-0.053	-0.260
-359.625	-89.094	-0.223	-0.066
-358.610	-200.000	-0.029	0.368
-357.596	158.858	0.167	0.230
-356.581	-16.417	-0.322	-0.203
-355.566	55.100	-0.109	0.105
-354.552	31.863	-0.137	-0.117
-353.537	800.000	-0.040	0.121
-352.523	448.205	-0.100	-0.218
-351.508	-139.403	-0.152	-0.016
-350.493	7.659	0.044	-0.032
-349.479	164.223	0.106	-0.149
-348.464	-16.802	-0.137	-0.086
-347.450	-119.949	0.317	0.054
-346.435	47.888	0.166	-0.154
-345.420	-70.387	-0.264	-0.100
-344.406	279.491	0.101	-0.178
-343.391	592.017	-0.126	-0.310
-342.377	-89.841	0.218	-0.063
-341.362	-48.940	0.394	0.187
-340.348	800.000	0.100	0.390
-339.333	88.848	-0.220	0.243
-338.318	-145.973	0.079	-0.007
-337.304	-60.533	0.122	0.051
-336.289	172.301	-0.142	-0.203
-335.275	-85.819	0.066	0.020
-334.260	-124.726	0.305	0.047
-333.245	8.334	-0.200	0.149
-332.231	800.000	-0.043	0.131
-331.216	-200.000	-0.020	0.171
-330.202	288.665	-0.098	0.177
-329.187	800.000	-0.090	0.351
-328.172	167.545	-0.234	0.330
-327.158	266.697	-0.173	0.300
-326.143	644.440	0.163	0.412
-325.129	48.949	-0.092	0.086
-324.114	-200.000	0.010	-0.074
-323.099	116.768	-0.158	0.193
-322.085	-193.901	-0.086	-0.001
-321.070	-196.064	0.181	0.001
-320.056	-71.669	-0.332	-0.123
-319.041	33.658	-0.146	-0.126
-318.026	234.364	-0.064	0.104
-317.012	2.524	-0.236	-0.170
-315.997	319.302	-0.058	-0.109
-314.983	-51.334	-0.200	-0.093
-313.968	-6.995	0.016	0.011
-312.953	-200.000	0.015	-0.072
-311.939	302.908	0.121	-0.222
-310.924	-143.423	-0.492	0.047
-309.910	705.788	-0.074	-0.193
-308.895	13.377	0.186	0.143
-307.880	519.130	0.106	0.246
-306.866	-62.563	-0.180	-0.074
-305.851	611.708	0.133	-0.330
-304.837	-24.818	-0.153	-0.090
-303.822	-111.518	0.166	-0.033
-302.807	-174.855	0.199	-0.006
-301.793	273.171	-0.027	0.048
-300.778	-200.000	-0.044	-0.200
-299.764	55.876	0.234	-0.225
-298.749	-200.000	-0.029	-0.238
-297.735	160.061	-0.208	0.288
-296.720	-200.000	0.035	-0.256
-295.705	15.027	-0.121	-0.094
-294.691	-83.120	0.298	-0.095
-293.676	800.000	0.035	0.119
-292.662	143.636	0.184	-0.243
-291.647	188.878	0.094	0.140
-290.632	-94.954	-0.236	0.063
-289.618	-200.000	0.002	-0.095
-288.603	40.837	0.018	0.016
-287.589	-200.000	0.075	-0.355
-286.574	131.822	-0.179	-0.228
-285.559	-200.000	0.033	-0.282
-284.545	59.767	-0.096	-0.094
-283.530	136.617	-0.216	-0.280
-282.516	13.999	0.159	0.123
-281.501	19.440	0.022	-0.018
-280.486	10.101	0.077	0.058
-279.472	-0.528	0.112	-0.079
-278.457	-51.822	-0.214	-0.099
-277.443	134.244	-0.054	0.070
-276.428	150.679	0.089	0.120
-275.413	-200.000	-0.044	-0.324
-274.399	-160.378	0.210	0.011
-273.384	-24.075	0.291	0.172
-272.370	-94.972	0.125	0.033
-271.355	29.198	-0.240	0.202
-270.340	39.869	-0.192	-0.171
-269.326	328.846	-0.040	-0.076
-268.311	-93.542	-0.039	0.011
-267.297	52.470	0.303	-0.287
-266.282	50.877	0.284	0.267
-265.267	-35.204	0.110	0.059
-264.253	86.150	0.107	-0.116
-263.238	-101.243	-0.333	-0.080
-262.224	15.599	0.057	0.045
-261.209	-39.005	0.267	-0.139
-260.195	595.568	0.035	-0.085
-259.180	23.461	0.218	-0.177
-258.165	-200.000	0.011	-0.055
-257.151	1.626	0.253	-0.181
-256.136	-95.861	-0.316	0.084
-255.122	-77.557	0.112	-0.038
-254.107	-107.514	0.065	-0.014
-253.092	-30.831	0.377	0.211
-252.078	-94.614	0.366	0.099
-251.063	800.000	0.024	-0.086
-250.049	498.455	-0.133	0.303
-249.034	-200.000	0.006	0.054
-248.019	759.935	-0.054	0.146
-247.005	800.000	-0.067	0.192
-245.990	-6.401	0.213	0.144
-244.976	325.816	0.088	0.167
-243.961	-178.491	0.178	0.004
-242.946	112.958	-0.103	0.123
-241.932	-69.987	0.278	-0.105
-240.917	34.381	-0.146	-0.126
-239.903	235.062	0.032	-0.052
-238.888	484.685	-0.090	0.202
-237.873	800.000	0.082	0.348
-236.859	-200.000	0.138	0.001
-235.844	7.063	-0.172	0.127
-234.830	-200.000	-0.033	-0.338
-233.815	-88.956	0.123	0.036
-232.800	-117.035	0.212	-0.038
-231.786	160.072	-0.013	-0.018
-230.771	-169.777	0.174	-0.006
-229.757	30.973	0.137	-0.116
-228.742	76.637	0.320	-0.336
-227.727	-10.289	0.185	-0.121
-226.713	131.411	-0.192	0.244
-225.698	-40.388	0.189	0.097
-224.684	392.459	-0.033	0.068
-223.669	40.969	0.221	-0.197
-222.655	276.688	-0.156	-0.274
-221.640	29.140	-0.153	0.128
-220.625	-55.874	-0.294	0.130
-219.611	-118.228	0.220	-0.039
-218.596	800.000	0.037	0.150
-217.582	75.474	-0.153	-0.160
-216.567	-179.439	0.115	-0.002
-215.552	-104.740	0.386	-0.088
-214.538	377.413	-0.188	0.381
-213.523	-200.000	-0.006	-0.430
-212.509	-185.914	-0.392	-0.006
-211.494	199.359	-0.074	-0.112
-210.479	59.837	0.233	0.227
-209.465	-81.462	0.178	-0.058
-208.450	-200.000	-0.068	0.357
-207.436	708.787	-0.093	0.243
-206.421	72.430	0.089	0.092
-205.406	-200.000	-0.010	-0.121
-204.392	-38.562	-0.220	-0.115
-203.377	-200.000	0.000	0.144
-202.363	-80.125	0.233	0.077
-201.348	-16.180	0.274	-0.172
-200.333	800.000	-0.034	0.127
-199.319	-200.000	-0.032	-0.289
-198.304	309.988	-0.062	0.115
-197.290	18.302	0.392	0.309
-196.275	87.868	0.144	0.158
-195.260	71.774	0.144	0.148
-194.246	-200.000	0.027	-0.318
-193.231	800.000	0.076	-0.283
-192.217	-110.791	0.226	0.046
-191.202	55.256	-0.320	0.306
-190.187	284.893	0.177	0.315
-189.173	-200.000	-0.017	0.199
-188.158	-111.573	0.180	0.036
-187.144	-49.364	0.217	0.102
-186.129	224.983	0.108	-0.172
-185.114	-79.138	0.315	0.106
-184.100	99.927	-0.080	-0.092
-183.085	-200.000	-0.025	0.309
-182.071	40.489	0.078	-0.069
-181.056	-90.074	-0.316	-0.091
-180.042	396.308	-0.027	-0.055
-179.027	-200.000	0.004	-0.044
-178.012	239.101	-0.071	-0.117
-176.998	127.049	-0.178	0.223
-175.983	138.598	-0.266	-0.344
-174.969	117.086	0.106	0.129
-173.954	150.999	-0.062	0.083
-172.939	215.825	0.047	-0.074
-171.925	800.000	0.024	-0.092
-170.910	-200.000	-0.010	0.263
-169.896	85.040	-0.105	-0.113
-168.881	113.409	0.063	-0.076
-167.866	203.388	0.054	0.082
-166.852	51.665	0.146	0.137
-165.837	26.203	-0.141	-0.116
-164.823	103.468	-0.145	-0.168
-163.808	800.000	0.082	-0.269
-162.793	-124.440	-0.410	-0.063
-161.779	-36.325	-0.142	-0.075
-160.764	-6.411	0.080	0.054
-159.750	-85.269	0.299	0.092
-158.735	800.000	-0.010	-0.035
-157.720	-100.991	0.109	0.026
-156.706	800.000	-0.043	-0.156
-155.691	-89.996	-0.240	-0.069
-154.677	-200.000	0.086	-0.378
-153.662	-9.572	0.151	0.099
-152.647	155.360	-0.263	-0.357
-151.633	-200.000	0.003	0.083
-150.618	-95.594	0.217	-0.057
-149.604	-147.293	-0.284	0.024
-148.589	645.505	0.142	0.358
-147.574	800.000	0.010	0.045
-146.560	-200.000	0.019	-0.101
-145.545	89.736	0.106	-0.116
-144.531	-134.923	-0.175	-0.021
-143.516	414.873	-0.120	-0.253
-142.502	50.590	-0.132	0.123
-141.487	177.635	0.237	0.341
-140.472	135.305	0.223	0.286
-139.458	-200.000	-0.006	-0.066
-138.443	-22.819	0.115	0.069
-137.429	54.333	-0.258	0.244
-136.414	-200.000	0.034	0.217
-135.399	33.280	0.045	0.038
-134.385	-200.000	0.002	-0.246
-133.370	-200.000	0.001	-0.180
-132.356	5.853	-0.108	-0.079
-131.341	395.985	-0.118	-0.243
-130.326	272.391	0.089	-0.155
-129.312	-53.345	-0.109	0.049
-128.297	-6.348	-0.030	0.020
-127.283	13.589	0.323	0.247
-126.268	-105.303	0.108	-0.024
-125.253	84.019	0.179	-0.193
-124.239	-51.138	0.047	0.022
-123.224	267.041	0.130	0.225
-122.210	-88.064	0.293	-0.087
-121.195	-30.119	0.436	0.244
-120.180	443.856	-0.076	-0.165
-119.166	-200.000	0.008	0.180
-118.151	-109.121	0.206	0.043
-117.137	264.821	0.090	-0.154
-116.122	-39.183	-0.083	-0.043
-115.107	330.084	-0.052	0.098
-114.093	-13.746	0.227	-0.145
-113.078	-121.149	-0.042	-0.007
-112.064	190.954	-0.162	0.241
-111.049	101.044	0.163	0.187
-110.034	-4.123	0.121	0.083
-109.020	7.819	0.105	-0.078
-108.005	-31.739	-0.107	0.059
-106.991	-200.000	-0.005	0.053
-105.976	-200.000	0.027	-0.225
-104.962	-161.778	-0.088	-0.004
-103.947	7.262	0.317	-0.233
-102.932	800.000	0.037	0.123
-101.918	-79.765	0.123	-0.041
-100.903	-126.121	-0.102	0.015
-99.889	137.704	0.291	0.375
-98.874	-185.295	0.281	-0.004
-97.859	-156.224	0.279	0.017
-96.845	76.357	-0.152	0.158
-95.830	178.450	-0.071	-0.102
-94.816	-200.000	-0.011	-0.120
-93.801	321.340	-0.136	-0.255
-92.786	-200.000	-0.027	0.138
-91.772	-115.496	0.492	0.091
-90.757	184.007	-0.114	-0.166
-89.743	-53.070	0.250	-0.113
-88.728	-129.615	-0.107	-0.015
-87.713	306.527	0.123	-0.225
-86.699	-200.000	0.021	-0.141
-85.684	451.026	-0.054	-0.117
-84.670	800.000	0.015	0.042
-83.655	-72.030	-0.255	0.093
-82.640	231.725	-0.146	0.236
-81.626	-192.696	0.139	0.001
-80.611	1.800	-0.361	-0.256
-79.597	319.736	0.018	-0.034
-78.582	-200.000	0.012	-0.087
-77.567	1.311	0.078	0.055
-76.553	-172.532	0.206	0.006
-75.538	-176.003	0.253	-0.007
-74.524	800.000	0.081	-0.295
-73.509	-78.372	0.130	0.044
-72.494	-100.532	-0.081	0.020
-71.480	102.879	-0.210	-0.242
-70.465	-33.458	-0.272	-0.148
-69.451	800.000	-0.027	-0.097
-68.436	544.166	0.117	0.274
-67.422	-200.000	0.018	0.198
-66.407	-19.887	0.151	-0.091
-65.392	4.668	0.343	-0.247
-64.378	748.824	0.057	0.151
-63.363	404.750	0.096	0.198
-62.349	122.020	-0.044	-0.055
-61.334	85.849	-0.694	-0.750
-60.319	80.260	0.375	0.397
-59.305	795.661	-0.379	-1.026
-58.290	-200.000	0.273	1.301
-57.276	524.852	0.703	1.624
-56.261	-200.000	95.866	581.822
-55.246	577.745	1371.782	3295.566
-54.232	154.605	2587.117	3490.655
-53.217	111.186	2283.175	2702.075
-52.203	45.005	1900.148	1719.054
-51.188	38.552	1687.788	1478.361
-50.173	35.723	1642.688	1417.973
-49.159	53.815	1692.017	1596.272
-48.144	57.564	1710.463	1641.609
-47.130	38.296	1665.484	1456.686
-46.115	35.232	1650.657	1420.984
-45.100	35.051	1646.034	1415.613
-44.086	34.999	1643.190	1412.727
-43.071	35.071	1640.150	1410.590
-42.057	35.003	1637.808	1408.017
-41.042	35.108	1635.679	1406.901
-40.027	35.019	1633.992	1404.737
-39.013	35.072	1631.926	1403.299
-37.998	35.048	1630.635	1401.959
-36.984	35.099	1629.100	1400.957
-35.969	35.264	1627.201	1400.469
-34.954	35.285	1625.617	1399.205
-33.940	35.243	1623.556	1397.070
-32.925	35.147	1622.295	1395.233
-31.911	35.167	1620.475	1393.753
-30.896	35.194	1618.631	1392.308
-29.881	35.122	1617.925	1391.126
-28.867	35.240	1615.681	1389.998
-27.852	35.145	1614.439	1388.182
-26.838	35.182	1612.437	1386.677
-25.823	35.238	1611.220	1385.975
-24.809	35.214	1610.191	1384.864
-23.794	35.269	1608.295	1383.574
-22.779	35.204	1606.955	1381.903
-21.765	35.229	1605.070	1380.402
-20.750	35.121	1603.835	1378.508
-19.736	35.195	1602.241	1377.616
-18.721	35.243	1600.917	1376.770
-17.706	35.121	1599.602	1374.707
-16.692	35.164	1597.155	1372.859
-15.677	35.126	1596.364	1371.855
-14.663	35.168	1595.165	1371.068
-13.648	35.177	1593.454	1369.604
-12.633	35.185	1592.094	1368.443
-11.619	35.276	1590.168	1367.377
-10.604	35.290	1588.790	1366.241
-9.590	35.245	1587.593	1364.836
-8.575	35.256	1586.271	1363.723
-7.560	35.232	1585.009	1362.417
-6.546	35.182	1584.252	1361.352
-5.531	35.271	1583.128	1360.969
-4.517	35.221	1581.860	1359.467
-3.502	35.223	1580.728	1358.452
-2.487	35.309	1578.945	1357.477
-1.473	35.034	1567.954	1346.044
-0.458	32.129	1548.867	1309.384
0.556	28.579	1548.899	1276.930
1.571	26.312	1572.802	1280.480
2.586	25.784	1586.309	1287.592
3.600	22.885	1533.570	1224.601
4.615	12.973	1422.053	1071.396
5.629	3.715	1353.597	962.276
6.644	1.938	1345.086	945.137
7.659	1.852	1343.552	943.440
8.673	1.727	1342.637	941.940
9.688	1.644	1340.811	940.062
10.702	1.495	1337.155	936.500
11.717	5.220	1344.815	964.828
12.731	15.635	1364.746	1044.048
13.746	23.936	1379.108	1106.832
14.761	25.823	1381.174	1120.134
15.775	26.075	1380.746	1121.257
16.790	26.124	1380.330	1121.120
17.804	26.250	1379.280	1120.956
18.819	26.281	1379.546	1121.264
19.834	26.491	1378.410	1121.541
20.848	26.445	1377.892	1120.737
21.863	26.491	1377.074	1120.256
22.877	26.512	1376.163	1119.544
23.892	26.516	1375.649	1119.052
24.907	26.549	1374.670	1118.365
25.921	26.515	1373.761	1117.315
26.936	26.440	1372.601	1115.811
27.950	26.456	1371.757	1115.121
28.965	26.583	1370.061	1114.430
29.980	26.607	1368.800	1113.452
30.994	26.532	1368.072	1112.296
32.009	26.437	1366.872	1110.644
33.023	26.485	1365.819	1109.981
34.038	26.497	1364.929	1109.232
35.053	26.539	1363.482	1108.217
36.067	26.590	1362.315	1107.481
37.082	26.461	1361.825	1106.195
38.096	26.523	1361.100	1105.891
39.111	26.455	1360.521	1104.905
40.126	26.547	1359.537	1104.572
41.140	26.511	1359.007	1103.821
42.155	26.485	1358.555	1103.202
43.169	26.481	1358.946	1103.395
44.184	26.404	1358.459	1102.429
45.199	26.433	1358.209	1102.309
46.213	26.425	1357.360	1101.473
47.228	26.550	1356.532	1101.466
48.242	26.555	1354.967	1100.129
49.257	26.662	1353.485	1099.477
50.271	26.473	1352.497	1097.427
51.286	26.548	1350.984	1096.560
52.301	26.416	1349.998	1094.861
53.315	26.542	1348.990	1094.713
54.330	26.504	1348.438	1093.936
55.344	26.533	1346.911	1092.775
56.359	26.527	1345.964	1091.877
57.374	26.473	1345.229	1090.858
58.388	26.494	1344.861	1090.588
59.403	26.624	1344.156	1090.705
60.417	26.545	1343.755	1089.805
61.432	26.427	1343.206	1088.555
62.447	26.446	1342.296	1087.833
63.461	26.543	1340.837	1087.135
64.476	26.550	1339.545	1086.035
65.490	26.590	1338.540	1085.365
66.505	26.519	1337.315	1083.850
67.520	26.565	1335.774	1082.779
68.534	26.607	1334.877	1082.211
69.549	26.460	1334.491	1080.921
70.563	26.590	1333.240	1080.588
71.578	26.607	1332.158	1079.716
72.593	26.478	1331.759	1078.526
73.607	26.553	1330.550	1077.904
74.622	26.543	1330.165	1077.432
75.636	26.496	1329.396	1076.438
76.651	26.441	1329.017	1075.710
77.666	26.397	1328.693	1075.087
78.680	26.546	1328.094	1075.393
79.695	26.518	1326.954	1074.207
80.709	26.482	1326.554	1073.575
81.724	26.378	1325.463	1071.983
82.739	26.557	1324.313	1072.016
83.753	26.516	1323.551	1071.066
84.768	26.525	1322.156	1069.895
85.782	26.553	1321.093	1069.104
86.797	26.491	1320.060	1067.810
87.812	26.552	1318.949	1067.171
88.826	26.608	1317.724	1066.420
89.841	26.626	1316.448	1065.395
90.855	26.558	1315.779	1064.363
91.870	26.610	1314.896	1063.861
92.884	26.663	1314.489	1063.748
93.899	26.499	1313.816	1062.142
94.914	26.599	1312.838	1061.849
95.928	26.600	1311.654	1060.800
96.943	26.546	1311.208	1060.029
97.957	26.566	1310.414	1059.414
98.972	26.549	1309.639	1058.593
99.987	26.574	1308.860	1058.015
101.001	26.547	1307.655	1056.787
102.016	26.621	1306.615	1056.284
103.030	26.577	1305.990	1055.431
104.045	26.608	1305.381	1055.027
105.060	26.619	1304.529	1054.310
106.074	26.645	1303.360	1053.425
107.089	26.715	1302.109	1052.726
108.103	26.641	1301.250	1051.508
109.118	26.693	1300.454	1051.075
110.133	26.653	1299.516	1049.989
111.147	26.590	1298.066	1048.362
112.162	26.685	1296.698	1047.715
113.176	26.644	1296.072	1046.877
114.191	26.652	1295.468	1046.342
115.206	26.703	1294.118	1045.454
116.220	26.650	1292.825	1044.009
117.235	26.650	1292.264	1043.466
118.249	26.642	1291.218	1042.485
119.264	26.533	1290.462	1041.153
120.279	26.605	1289.988	1041.095
121.293	26.701	1289.074	1040.813
122.308	26.715	1287.955	1039.901
123.322	26.675	1287.354	1039.093
124.337	26.787	1286.318	1038.805
125.352	26.699	1285.880	1037.859
126.366	26.738	1284.503	1036.875
127.381	26.770	1283.795	1036.396
128.395	26.759	1282.789	1035.428
129.410	26.651	1282.359	1034.375
130.424	26.733	1281.326	1033.920
131.439	26.703	1280.727	1033.173
132.454	26.659	1280.174	1032.382
133.468	26.631	1279.442	1031.543
134.483	26.755	1278.636	1031.508
135.497	26.634	1277.953	1030.179
136.512	26.688	1277.189	1029.776
137.527	26.609	1275.745	1028.074
138.541	26.721	1274.243	1027.406
139.556	26.742	1272.675	1026.172
140.570	26.707	1272.300	1025.579
141.585	26.683	1271.102	1024.388
142.600	26.692	1270.002	1023.457
143.614	26.643	1269.759	1022.896
144.629	26.594	1268.831	1021.781
145.643	26.504	1267.693	1020.265
146.658	26.606	1266.322	1019.651
147.673	26.632	1265.258	1018.846
148.687	26.622	1264.205	1017.853
149.702	26.432	1263.383	1016.037
150.716	26.635	1262.022	1015.987
151.731	26.638	1261.166	1015.229
152.746	26.632	1260.248	1014.366
153.760	26.620	1259.257	1013.411
154.775	26.781	1258.225	1013.387
155.789	26.710	1257.236	1012.106
156.804	26.684	1256.404	1011.200
157.819	26.642	1255.768	1010.364
158.833	26.816	1254.553	1010.268
159.848	26.778	1254.353	1009.809
160.862	26.738	1253.664	1008.940
161.877	26.803	1252.695	1008.435
162.892	26.748	1251.924	1007.415
163.906	26.770	1251.242	1006.902
164.921	26.841	1250.314	1006.461
165.935	26.736	1249.949	1005.497
166.950	26.838	1249.028	1005.232
167.964	26.879	1248.615	1005.036
168.979	26.832	1248.094	1004.268
169.994	26.776	1247.681	1003.537
171.008	26.842	1247.002	1003.266
172.023	26.783	1245.993	1002.037
173.037	26.810	1245.316	1001.554
174.052	26.709	1244.844	1000.533
175.067	26.745	1243.986	999.953
176.081	26.788	1243.155	999.432
177.096	26.808	1242.180	998.668
178.110	26.808	1241.206	997.799
179.125	26.819	1240.665	997.333
180.140	26.828	1239.067	996.012
181.154	26.825	1238.472	995.426
182.169	26.847	1237.366	994.569
183.183	26.803	1236.244	993.344
184.198	26.834	1235.108	992.511
185.213	27.044	1233.871	992.578
186.227	26.778	1233.210	990.505
187.242	26.896	1232.704	990.652
188.256	26.872	1232.020	989.886
189.271	26.881	1230.989	989.017
190.286	26.842	1230.437	988.275
191.300	26.954	1229.826	988.307
192.315	26.897	1229.711	987.819
193.329	26.896	1228.816	987.004
194.344	26.815	1228.784	986.449
195.359	27.016	1227.728	986.610
196.373	26.879	1227.431	985.538
197.388	26.830	1226.961	984.805
198.402	26.830	1226.721	984.529
199.417	26.814	1226.246	983.971
200.432	26.896	1225.429	983.677
201.446	26.829	1224.919	982.817
202.461	26.818	1224.564	982.382
203.475	26.896	1223.234	981.654
204.490	26.908	1222.443	980.994
205.504	26.817	1221.561	979.707
206.519	26.919	1220.855	979.606
207.534	26.943	1219.480	978.544
208.548	26.926	1218.791	977.814
209.563	26.836	1218.218	976.785
210.577	26.868	1217.425	976.231
211.592	26.918	1216.303	975.519
212.607	26.986	1215.641	975.267
213.621	26.996	1214.918	974.650
214.636	26.975	1214.075	973.774
215.650	27.114	1213.121	973.673
216.665	27.021	1212.348	972.464
217.680	26.913	1211.885	971.429
218.694	27.044	1210.709	971.101
219.709	27.055	1210.079	970.570
220.723	27.054	1209.399	969.933
221.738	27.133	1208.582	969.616
222.753	26.932	1207.829	967.851
223.767	26.985	1207.415	967.715
224.782	27.055	1207.043	967.708
225.796	27.102	1206.093	967.111
226.811	27.179	1205.828	967.220
227.826	27.123	1205.140	966.286
228.840	27.039	1205.164	965.772
229.855	26.927	1204.414	964.493
230.869	27.080	1203.137	964.197
231.884	27.117	1202.152	963.515
232.899	27.114	1201.776	963.115
233.913	27.086	1201.464	962.631
234.928	27.180	1201.038	962.702
235.942	27.115	1200.202	961.604
236.957	27.153	1199.359	961.042
237.972	27.191	1198.609	960.560
238.986	27.212	1198.010	960.102
240.001	27.198	1197.467	959.509
241.015	27.245	1196.796	959.135
242.030	27.405	1195.526	958.875
243.045	27.326	1195.043	957.984
244.059	27.374	1194.334	957.588
245.074	27.280	1193.850	956.617
246.088	27.275	1193.060	955.877
247.103	27.238	1192.715	955.322
248.117	27.286	1191.572	954.570
249.132	27.374	1190.454	954.053
250.147	27.402	1189.517	953.366
251.161	27.435	1189.119	953.136
252.176	27.357	1188.520	952.159
253.190	27.328	1188.312	951.758
254.205	27.452	1187.034	951.297
255.220	27.334	1186.885	950.478
256.234	27.360	1186.298	950.059
257.249	27.359	1185.819	949.589
258.263	27.418	1184.859	949.042
259.278	27.473	1184.473	948.935
260.293	27.425	1183.922	948.161
261.307	27.459	1183.410	947.844
262.322	27.515	1182.705	947.485
263.336	27.432	1181.920	946.342
264.351	27.361	1181.787	945.781
265.366	27.292	1181.206	944.876
266.380	27.419	1180.081	944.553
267.395	27.376	1179.453	943.740
268.409	27.465	1178.664	943.490
269.424	27.426	1178.584	943.138
270.439	27.489	1178.154	943.036
271.453	27.431	1177.678	942.274
272.468	27.355	1176.436	940.804
273.482	27.446	1175.786	940.669
274.497	27.508	1175.645	940.792
275.512	27.561	1174.795	940.305
276.526	27.519	1173.899	939.287
277.541	27.473	1173.108	938.334
278.555	27.604	1172.596	938.517
279.570	27.612	1171.759	937.805
280.585	27.492	1171.178	936.641
281.599	27.606	1170.144	936.313
282.614	27.564	1169.471	935.477
283.628	27.580	1168.803	934.941
284.643	27.621	1167.871	934.323
285.657	27.621	1166.819	933.403
286.672	27.624	1165.946	932.636
287.687	27.606	1165.375	932.005
288.701	27.728	1164.927	932.184
289.716	27.710	1164.238	931.459
290.730	27.724	1163.289	930.689
291.745	27.657	1162.773	929.853
292.760	27.705	1161.885	929.305
293.774	27.739	1161.714	929.260
294.789	27.678	1161.334	928.563
295.803	27.682	1160.603	927.915
296.818	27.628	1160.279	927.300
297.833	27.730	1159.506	927.117
298.847	27.854	1158.642	926.974
299.862	27.643	1157.689	925.061
300.876	27.681	1157.283	924.849
301.891	27.737	1156.962	924.793
302.906	27.821	1156.101	924.448
303.920	27.747	1155.602	923.595
304.935	27.685	1154.935	922.666
305.949	27.792	1154.500	922.779
306.964	27.804	1154.033	922.381
307.979	27.892	1152.716	921.693
308.993	27.989	1152.002	921.532
310.008	27.868	1151.525	920.457
311.022	27.895	1150.870	919.986
312.037	28.006	1150.024	919.787
313.052	27.833	1149.184	918.163
314.066	27.979	1148.266	918.086
315.081	27.853	1147.368	916.653
316.095	27.898	1147.091	916.576
317.110	27.827	1146.678	915.809
318.125	27.851	1145.822	915.163
319.139	27.938	1144.968	914.836
320.154	28.002	1144.528	914.723
321.168	28.000	1143.754	914.015
322.183	27.969	1143.306	913.423
323.197	27.851	1143.176	912.647
324.212	27.886	1142.643	912.312
325.227	27.845	1142.389	911.828
326.241	28.044	1141.321	911.886
327.256	28.027	1140.559	911.111
328.270	27.993	1139.677	910.155
329.285	28.094	1138.870	909.933
330.300	28.057	1138.214	909.146
331.314	28.049	1137.818	908.709
332.329	28.044	1137.000	907.949
333.343	28.132	1136.265	907.721
334.358	28.013	1135.382	906.344
335.373	28.169	1134.613	906.422
336.387	28.189	1133.946	905.909
337.402	28.069	1133.456	904.841
338.416	28.125	1132.569	904.331
339.431	28.292	1131.960	904.592
340.446	28.313	1131.044	903.883
341.460	28.304	1130.703	903.484
342.475	28.248	1129.771	902.383
343.489	28.288	1129.080	901.952
344.504	28.155	1128.246	900.550
345.519	28.267	1127.283	900.252
346.533	28.301	1126.761	899.925
347.548	28.183	1126.169	898.791
348.562	28.301	1125.486	898.745
349.577	28.323	1124.801	898.224
350.592	28.134	1124.095	896.658
351.606	28.221	1123.419	896.463
352.621	28.305	1122.641	896.174
353.635	28.335	1122.180	895.877
354.650	28.365	1121.287	895.232
355.665	28.359	1121.073	894.950
356.679	28.363	1120.284	894.261
357.694	28.479	1119.464	894.092
358.708	28.385	1119.043	893.221
359.723	28.231	1118.558	892.004
360.738	28.408	1117.558	891.990
361.752	28.384	1117.160	891.473
362.767	28.478	1116.889	891.638
363.781	28.411	1116.305	890.763
364.796	28.459	1116.055	890.718
365.810	28.414	1115.216	889.756
366.825	28.588	1114.058	889.597
367.840	28.599	1113.619	889.221
368.854	28.556	1113.187	888.585
369.869	28.560	1112.279	887.804
370.883	28.486	1111.439	886.696
371.898	28.562	1111.178	886.778
372.913	28.549	1110.769	886.311
373.927	28.550	1109.865	885.513
374.942	28.653	1109.527	885.661
375.956	28.587	1109.316	885.098
376.971	28.632	1108.283	884.413
377.986	28.646	1107.819	884.031
379.000	28.646	1107.846	883.974
380.015	28.643	1107.230	883.390
381.029	28.614	1106.418	882.524
382.044	28.673	1105.445	881.956
383.059	28.743	1104.824	881.717
384.073	28.680	1104.452	881.039
385.088	28.780	1103.107	880.366
386.102	28.727	1102.709	879.719
387.117	28.628	1101.880	878.508
388.132	28.591	1101.098	877.629
389.146	28.672	1100.774	877.679
390.161	28.751	1099.745	877.159
391.175	28.719	1099.540	876.766
392.190	28.808	1098.220	876.056
393.205	28.855	1097.632	875.734
394.219	28.831	1096.871	874.934
395.234	28.853	1096.111	874.356
396.248	28.757	1095.664	873.468
397.263	28.923	1094.556	873.293
398.278	28.853	1094.329	872.703
399.292	28.818	1093.596	871.877
400.307	28.943	1092.879	871.820
401.321	28.912	1092.325	871.156
402.336	28.952	1091.424	870.549
403.350	28.871	1091.324	870.008
404.365	29.033	1090.299	869.877
405.380	28.916	1089.572	868.671
406.394	29.048	1088.684	868.510
407.409	29.095	1088.181	868.253
408.423	28.994	1087.601	867.235
409.438	28.981	1087.048	866.658
410.453	29.056	1086.248	866.295
411.467	29.178	1085.028	865.817
412.482	28.983	1085.076	864.865
413.496	29.013	1084.169	864.208
414.511	29.071	1083.504	863.870
415.526	28.985	1083.366	863.281
416.540	29.047	1082.774	863.023
417.555	29.148	1082.179	862.947
418.569	29.156	1082.173	862.901
419.584	29.136	1081.727	862.377
420.599	29.131	1081.297	861.934
421.613	101.844	1316.483	1442.601
422.628	94.753	1350.723	1442.720
