DTS Sentinel unit serial number:	SN413079Multiplexer serial number:	ORYXHardware model number:	OX4-SRSoftware version number:	ORYX F/W v4.00 Oryx Data Collector v3.7.2.0data status	okinstallation	princeton_trtdifferential loss correction	single-endedforward channel	channel 2reverse channel	N/Adate	2019/09/11time	18:21:11forward acquisition time	60.00reverse acquisition time	0.00gamma	496.2192k internal	0.2285k external	0.2285temperature offset calibration	1.0023default loss term (dB/km)	0.3790temperature slope calibration	1.0000multiplexer offset coefficient	1.0000multiplexer slope coefficient	1.0000fibre end	0.00T internal ref (°C)	43.98T ext. ref 1 (°C)	1.13T ext. ref 2 (°C)	38.70length (m)	temperature (°C)	Stokes	anti-Stokes-747.200	-124.430	-0.104	0.017
-746.185	-58.078	-0.321	0.144
-745.171	330.188	-0.197	0.389
-744.156	147.264	0.079	0.109
-743.142	-200.000	-0.016	0.367
-742.127	82.507	0.044	-0.049
-741.112	800.000	0.018	0.055
-740.098	-124.497	0.354	-0.057
-739.083	183.321	-0.102	-0.155
-738.069	-123.025	-0.038	-0.006
-737.054	378.249	-0.072	-0.152
-736.039	500.240	-0.032	0.076
-735.025	800.000	-0.045	-0.169
-734.010	-111.287	-0.408	-0.086
-732.996	156.767	0.119	0.168
-731.981	-43.854	-0.195	0.101
-730.966	-115.212	-0.392	0.076
-729.952	-181.453	-0.065	-0.001
-728.937	-200.000	-0.004	0.020
-727.923	-54.608	-0.324	-0.150
-726.908	-78.902	-0.236	0.082
-725.894	-99.875	-0.313	0.080
-724.879	791.623	0.020	0.056
-723.864	94.633	-0.199	0.232
-722.850	-10.826	-0.347	0.235
-721.835	-84.758	-0.106	-0.034
-720.821	800.000	0.046	0.167
-719.806	331.271	-0.175	-0.346
-718.791	552.987	-0.121	-0.298
-717.777	-121.554	-0.378	-0.064
-716.762	-200.000	0.048	0.218
-715.748	-28.323	-0.226	-0.134
-714.733	-109.939	0.152	0.033
-713.718	-113.196	-0.044	0.009
-712.704	-85.763	-0.169	0.054
-711.689	-96.090	-0.194	0.053
-710.675	-200.000	0.040	-0.188
-709.660	-72.670	-0.254	-0.096
-708.645	137.844	0.078	-0.105
-707.631	-62.403	-0.379	0.162
-706.616	253.758	0.055	-0.097
-705.602	-104.674	-0.253	0.060
-704.587	-117.284	-0.122	-0.023
-703.572	-13.067	-0.021	-0.014
-702.558	477.513	-0.066	0.153
-701.543	-200.000	0.002	0.015
-700.529	-167.578	-0.486	-0.020
-699.514	87.350	0.050	0.057
-698.499	-200.000	0.000	-0.265
-697.485	-200.000	0.016	0.157
-696.470	-7.016	0.160	-0.111
-695.456	800.000	0.113	-0.446
-694.441	-124.234	0.117	0.019
-693.426	800.000	0.089	-0.280
-692.412	219.938	-0.089	0.146
-691.397	-97.869	0.210	0.056
-690.383	-63.572	-0.506	0.213
-689.368	-158.206	0.149	0.009
-688.354	-123.316	-0.511	-0.084
-687.339	-200.000	0.062	0.373
-686.324	16.685	0.038	0.031
-685.310	800.000	-0.052	-0.184
-684.295	-108.359	-0.150	0.033
-683.281	241.946	-0.184	-0.316
-682.266	-115.700	-0.208	-0.040
-681.251	390.538	-0.066	-0.140
-680.237	800.000	-0.122	-0.465
-679.222	443.264	-0.067	-0.152
-678.208	181.319	-0.028	0.043
-677.193	-200.000	0.021	0.202
-676.178	188.913	0.085	-0.131
-675.164	800.000	0.129	-0.436
-674.149	75.854	-0.229	-0.248
-673.135	-71.695	-0.071	0.027
-672.120	106.149	0.185	-0.224
-671.105	420.506	-0.115	0.252
-670.091	-47.871	-0.356	-0.176
-669.076	800.000	0.074	0.258
-668.062	-200.000	0.012	-0.430
-667.047	-16.225	-0.289	-0.188
-666.032	211.553	0.058	0.094
-665.018	-200.000	-0.040	-0.213
-664.003	174.672	0.134	0.198
-662.989	-180.361	-0.377	0.008
-661.974	-200.000	-0.016	0.160
-660.959	-22.004	-0.282	-0.176
-659.945	-59.717	-0.360	0.158
-658.930	800.000	0.028	-0.116
-657.916	97.254	-0.200	-0.235
-656.901	-43.169	0.243	-0.126
-655.886	-9.931	-0.209	-0.142
-654.872	-109.711	0.146	-0.031
-653.857	-200.000	-0.002	0.035
-652.843	41.260	0.366	0.339
-651.828	-14.100	0.108	0.071
-650.814	800.000	0.095	-0.272
-649.799	-200.000	-0.013	0.110
-648.784	524.172	0.122	-0.294
-647.770	-25.100	0.289	-0.175
-646.755	-131.081	-0.290	0.039
-645.741	800.000	0.071	0.270
-644.726	-116.927	0.212	-0.040
-643.711	800.000	0.052	0.167
-642.697	-130.985	-0.178	0.024
-641.682	800.000	-0.049	0.189
-640.668	-200.000	-0.004	0.309
-639.653	563.897	-0.076	0.188
-638.638	334.042	0.144	-0.284
-637.624	185.453	0.142	-0.215
-636.609	86.099	-0.226	-0.255
-635.595	198.138	0.151	-0.235
-634.580	-57.347	-0.128	0.058
-633.565	800.000	0.049	-0.207
-632.551	13.621	-0.169	0.134
-631.536	164.492	0.269	-0.387
-630.522	-0.933	0.262	-0.190
-629.507	6.848	-0.310	-0.236
-628.492	-176.197	-0.120	-0.003
-627.478	-149.724	0.151	-0.012
-626.463	384.869	0.071	0.149
-625.449	800.000	0.028	0.094
-624.434	84.492	0.160	0.179
-623.419	800.000	0.019	0.073
-622.405	-91.721	0.321	-0.093
-621.390	-200.000	0.002	-0.111
-620.376	70.979	0.221	0.234
-619.361	-62.981	-0.302	0.127
-618.346	-200.000	-0.078	-0.400
-617.332	-71.537	0.182	-0.070
-616.317	-200.000	0.022	-0.417
-615.303	-68.119	-0.069	0.028
-614.288	-68.877	0.061	-0.024
-613.273	-200.000	0.007	0.042
-612.259	-200.000	-0.016	-0.227
-611.244	43.030	0.102	0.095
-610.230	141.965	-0.066	-0.089
-609.215	112.475	0.093	-0.115
-608.201	186.060	-0.171	-0.259
-607.186	184.990	0.076	0.116
-606.171	-1.870	0.192	-0.138
-605.157	6.450	0.156	-0.118
-604.142	-172.082	0.296	-0.010
-603.128	-34.601	0.302	-0.169
-602.113	-74.717	-0.129	0.047
-601.098	-68.396	0.395	-0.156
-600.084	-19.901	-0.401	0.253
-599.069	-76.865	0.437	-0.156
-598.055	-28.887	-0.219	0.129
-597.040	-197.085	0.115	0.001
-596.025	-69.195	-0.405	-0.159
-595.011	-99.474	-0.361	0.093
-593.996	23.312	0.194	-0.163
-592.982	-50.808	0.235	-0.113
-591.967	-140.138	0.228	-0.024
-590.952	261.679	-0.124	0.220
-589.938	174.629	-0.132	0.194
-588.923	-124.856	-0.084	-0.013
-587.909	105.006	-0.207	0.250
-586.894	1.362	0.177	-0.130
-585.879	-57.397	-0.348	0.156
-584.865	800.000	0.081	0.261
-583.850	-200.000	-0.008	0.472
-582.836	62.784	0.214	-0.219
-581.821	-41.022	-0.137	0.072
-580.806	150.280	0.175	0.243
-579.792	17.916	-0.222	0.181
-578.777	800.000	-0.094	-0.372
-577.763	-200.000	-0.009	-0.318
-576.748	-45.375	0.156	-0.079
-575.733	100.862	0.093	-0.111
-574.719	62.766	-0.136	0.139
-573.704	666.126	-0.130	-0.343
-572.690	800.000	0.031	0.099
-571.675	9.905	-0.338	-0.262
-570.661	-133.947	-0.190	0.024
-569.646	800.000	-0.040	0.122
-568.631	444.306	0.143	-0.319
-567.617	800.000	-0.057	-0.166
-566.602	111.060	0.121	0.148
-565.588	800.000	-0.044	0.193
-564.573	-200.000	0.036	0.211
-563.558	-200.000	-0.006	0.139
-562.544	401.750	0.136	-0.291
-561.529	8.654	0.108	0.083
-560.515	95.173	0.065	-0.075
-559.500	47.001	-0.081	-0.077
-558.485	-200.000	0.076	0.574
-557.471	-129.359	0.142	0.020
-556.456	10.848	-0.080	-0.062
-555.442	116.599	-0.112	-0.140
-554.427	-200.000	0.052	0.275
-553.412	55.804	0.183	-0.181
-552.398	-23.839	0.099	-0.060
-551.383	800.000	-0.093	-0.388
-550.369	-23.019	-0.164	-0.101
-549.354	110.960	-0.173	0.212
-548.339	674.259	-0.081	0.214
-547.325	-200.000	-0.018	0.200
-546.310	-11.617	-0.216	0.144
-545.296	800.000	-0.008	-0.028
-544.281	-12.598	-0.204	-0.135
-543.266	-131.720	0.095	0.013
-542.252	-200.000	0.064	0.287
-541.237	-60.178	-0.150	0.065
-540.223	39.986	-0.254	-0.232
-539.208	-15.546	-0.162	-0.105
-538.193	-200.000	-0.183	-0.001
-537.179	452.651	0.111	0.251
-536.164	-99.933	-0.060	-0.015
-535.150	-56.851	-0.245	-0.110
-534.135	-98.418	-0.225	-0.059
-533.121	464.408	-0.018	0.041
-532.106	-138.432	-0.248	-0.028
-531.091	-73.884	-0.390	0.144
-530.077	-4.654	-0.221	-0.156
-529.062	153.901	-0.166	-0.232
-528.048	354.311	-0.090	0.182
-527.033	-200.000	-0.016	0.295
-526.018	161.871	-0.021	0.030
-525.004	67.872	-0.151	-0.157
-523.989	129.462	-0.204	0.265
-522.975	139.052	0.151	0.202
-521.960	774.034	0.117	0.326
-520.945	88.781	0.200	-0.226
-519.931	-195.925	0.306	-0.002
-518.916	3.074	0.414	-0.306
-517.902	213.399	-0.227	0.364
-516.887	800.000	-0.079	0.231
-515.872	26.928	0.097	0.083
-514.858	800.000	-0.053	0.164
-513.843	-54.034	0.213	0.099
-512.829	19.600	0.072	0.059
-511.814	439.993	0.050	0.112
-510.799	18.338	-0.096	0.078
-509.785	257.128	0.144	-0.251
-508.770	-95.773	0.170	-0.046
-507.756	-124.543	-0.069	0.011
-506.741	-200.000	0.026	-0.339
-505.726	559.452	-0.156	0.383
-504.712	-9.151	-0.360	-0.245
-503.697	800.000	0.053	-0.182
-502.683	-52.490	-0.037	-0.017
-501.668	-63.523	0.306	-0.128
-500.653	123.444	0.118	0.151
-499.639	-181.124	0.052	0.001
-498.624	389.145	0.080	-0.168
-497.610	288.791	-0.080	-0.148
-496.595	-200.000	-0.020	-0.283
-495.581	-66.902	0.185	-0.074
-494.566	-136.285	0.274	0.033
-493.551	281.594	-0.088	0.160
-492.537	-49.010	-0.199	-0.097
-491.522	16.847	0.297	0.239
-490.508	-68.130	-0.273	-0.108
-489.493	-16.512	-0.404	0.261
-488.478	270.490	-0.109	-0.194
-487.464	104.332	0.135	-0.161
-486.449	50.792	-0.135	0.129
-485.435	-170.199	-0.322	0.012
-484.420	-200.000	-0.018	0.156
-483.405	206.471	0.030	-0.048
-482.391	355.890	-0.060	-0.122
-481.376	-153.039	0.060	-0.004
-480.362	-28.729	-0.113	-0.066
-479.347	-167.462	-0.193	0.008
-478.332	268.839	0.152	0.271
-477.318	50.484	-0.090	-0.086
-476.303	637.373	-0.071	-0.183
-475.289	-150.763	0.277	0.021
-474.274	-97.653	-0.258	-0.068
-473.259	-165.769	-0.085	0.004
-472.245	-200.000	0.011	0.290
-471.230	6.359	0.097	-0.073
-470.216	-106.014	0.157	0.036
-469.201	-61.126	0.215	-0.092
-468.186	58.112	0.059	-0.059
-467.172	307.920	-0.052	0.099
-466.157	-132.693	0.144	0.019
-465.143	800.000	-0.068	-0.201
-464.128	800.000	-0.004	-0.012
-463.113	66.926	-0.127	-0.131
-462.099	-104.680	0.082	-0.019
-461.084	91.583	-0.116	0.132
-460.070	-142.231	0.090	-0.009
-459.055	-23.155	0.203	0.124
-458.040	13.731	-0.266	-0.210
-457.026	71.751	-0.176	0.185
-456.011	69.230	0.165	-0.172
-454.997	84.166	-0.099	-0.110
-453.982	-160.312	0.249	-0.014
-452.968	800.000	0.058	-0.230
-451.953	47.809	-0.068	0.064
-450.938	-82.982	0.490	-0.160
-449.924	-19.103	-0.108	0.068
-448.909	19.153	-0.428	-0.348
-447.895	204.584	-0.058	0.092
-446.880	-187.297	-0.087	0.001
-445.865	156.559	0.176	0.247
-444.851	-200.000	-0.068	0.000
-443.836	11.258	-0.021	0.016
-442.822	-200.000	0.073	-0.399
-441.807	48.540	0.153	-0.146
-440.792	713.254	0.115	0.309
-439.778	52.009	0.126	0.121
-438.763	-200.000	0.003	0.161
-437.749	-200.000	0.041	-0.208
-436.734	707.298	-0.095	-0.255
-435.719	282.491	-0.160	0.290
-434.705	-118.703	-0.205	-0.037
-433.690	536.093	0.163	-0.392
-432.676	184.609	0.076	0.115
-431.661	-35.314	0.288	0.159
-430.646	-200.000	-0.023	-0.280
-429.632	71.225	-0.151	-0.158
-428.617	54.062	-0.201	0.196
-427.603	-138.483	0.757	0.084
-426.588	-135.502	0.352	-0.043
-425.573	-134.135	0.127	0.016
-424.559	271.939	0.087	-0.156
-423.544	-89.929	0.409	0.121
-422.530	235.276	0.251	0.420
-421.515	-200.000	0.028	0.132
-420.500	128.130	0.222	0.287
-419.486	-200.000	0.079	-0.373
-418.471	7.065	-0.408	-0.308
-417.457	636.189	-0.049	-0.126
-416.442	201.175	-0.080	-0.125
-415.428	-200.000	-0.015	-0.143
-414.413	187.683	0.137	-0.207
-413.398	795.370	0.086	-0.239
-412.384	-39.209	-0.266	-0.142
-411.369	-111.783	-0.092	-0.019
-410.355	-150.595	0.172	0.013
-409.340	800.000	-0.063	-0.243
-408.325	-200.000	0.008	-0.292
-407.311	103.696	-0.198	0.235
-406.296	71.194	0.029	0.030
-405.282	245.708	-0.073	-0.125
-404.267	25.245	0.174	-0.147
-403.252	-79.097	-0.019	-0.006
-402.238	350.781	-0.148	0.297
-401.223	-55.501	-0.119	0.054
-400.209	-140.401	-0.191	-0.020
-399.194	59.827	0.058	-0.058
-398.179	52.789	-0.264	0.256
-397.165	-200.000	-0.017	-0.279
-396.150	169.463	-0.024	-0.034
-395.136	368.246	0.191	0.391
-394.121	800.000	-0.082	-0.286
-393.106	-60.800	0.125	0.054
-392.092	-200.000	0.000	-0.150
-391.077	520.763	-0.111	-0.263
-390.063	-160.339	-0.131	0.007
-389.048	-23.574	-0.291	0.177
-388.033	800.000	-0.045	0.130
-387.019	800.000	-0.198	0.665
-386.004	39.224	-0.158	0.144
-384.990	205.673	0.139	0.219
-383.975	63.132	0.050	0.051
-382.960	-200.000	0.002	-0.170
-381.946	-200.000	-0.025	-0.164
-380.931	-200.000	-0.007	0.117
-379.917	61.629	-0.049	0.050
-378.902	-83.568	0.210	0.068
-377.888	800.000	0.031	-0.097
-376.873	-200.000	0.024	0.116
-375.858	-200.000	0.027	0.299
-374.844	-166.076	-0.192	-0.008
-373.829	38.884	-0.294	-0.266
-372.815	160.940	0.148	-0.209
-371.800	-15.744	-0.158	-0.102
-370.785	-86.823	-0.250	0.077
-369.771	-200.000	0.029	-0.168
-368.756	-0.743	0.028	0.020
-367.742	795.577	-0.109	-0.304
-366.727	-145.125	-0.179	0.016
-365.712	208.598	0.216	0.342
-364.698	-6.481	0.165	-0.114
-363.683	-132.152	-0.201	0.026
-362.669	-200.000	-0.092	0.485
-361.654	106.904	0.082	-0.098
-360.639	677.632	0.099	0.261
-359.625	-200.000	-0.007	0.208
-358.610	-200.000	-0.051	0.256
-357.596	11.400	0.110	0.085
-356.581	169.882	0.041	0.059
-355.566	28.003	-0.135	-0.115
-354.552	116.686	0.114	0.142
-353.537	-200.000	-0.030	0.213
-352.523	80.601	0.081	-0.088
-351.508	-200.000	-0.012	-0.341
-350.493	-58.942	-0.095	0.041
-349.479	-134.275	0.402	0.050
-348.464	-54.876	0.291	0.133
-347.450	368.316	-0.115	0.236
-346.435	543.138	-0.086	-0.207
-345.420	331.901	-0.085	-0.165
-344.406	-95.751	-0.101	-0.027
-343.391	-156.881	-0.289	-0.018
-342.377	-46.803	0.057	-0.028
-341.362	-129.608	-0.138	-0.019
-340.348	276.033	0.207	0.371
-339.333	222.413	-0.110	0.179
-338.318	184.689	-0.074	0.111
-337.304	-200.000	-0.001	-0.141
-336.289	157.617	0.077	0.108
-335.275	-115.618	0.149	-0.028
-334.260	-10.329	0.040	-0.027
-333.245	9.330	-0.275	-0.210
-332.231	-200.000	-0.007	-0.135
-331.216	112.503	-0.141	-0.172
-330.202	-200.000	0.006	-0.055
-329.187	45.690	-0.106	-0.099
-328.172	66.801	0.132	-0.135
-327.158	800.000	0.047	0.138
-326.143	-20.389	0.215	0.133
-325.129	-80.260	0.340	0.115
-324.114	-167.028	-0.321	0.013
-323.099	-29.059	0.093	0.054
-322.085	-200.000	0.009	0.163
-321.070	128.001	0.225	-0.289
-320.056	-106.462	-0.251	0.057
-319.041	304.963	0.174	-0.327
-318.026	62.301	0.179	0.180
-317.012	-50.834	0.101	-0.048
-315.997	-98.899	-0.229	-0.059
-314.983	453.905	0.058	0.129
-313.968	-75.643	0.189	0.068
-312.953	251.129	0.041	0.071
-311.939	800.000	0.042	0.130
-310.924	-200.000	-0.029	-0.177
-309.910	425.238	-0.034	-0.073
-308.895	589.936	-0.134	-0.333
-307.880	-200.000	-0.009	-0.278
-306.866	-200.000	-0.014	0.179
-305.851	-113.857	0.148	-0.029
-304.837	-121.806	0.264	0.044
-303.822	357.109	-0.176	-0.355
-302.807	-95.227	0.184	-0.050
-301.793	-36.072	-0.038	0.021
-300.778	-43.329	0.179	0.091
-299.764	-200.000	0.011	0.207
-298.749	678.233	0.034	-0.088
-297.735	72.440	0.106	-0.112
-296.720	800.000	0.049	0.163
-295.705	800.000	-0.042	0.125
-294.691	-200.000	0.007	0.169
-293.676	-14.364	0.162	0.105
-292.662	-58.024	0.182	-0.080
-291.647	17.329	-0.214	-0.171
-290.632	-48.561	0.315	-0.153
-289.618	-53.686	0.558	-0.257
-288.603	7.380	-0.014	0.011
-287.589	-200.000	-0.001	0.171
-286.574	317.984	0.056	-0.108
-285.559	-151.510	0.166	-0.012
-284.545	-68.905	-0.254	0.099
-283.530	-13.366	-0.206	-0.134
-282.516	106.800	-0.133	-0.159
-281.501	134.865	-0.093	-0.122
-280.486	7.241	-0.136	-0.102
-279.472	258.280	0.036	-0.063
-278.457	-200.000	-0.046	-0.572
-277.443	279.240	-0.102	-0.184
-276.428	-98.127	0.112	0.029
-275.413	-6.109	0.327	0.225
-274.399	111.500	-0.035	-0.043
-273.384	30.579	-0.114	0.098
-272.370	40.170	0.048	-0.044
-271.355	-92.944	-0.214	0.060
-270.340	-34.677	-0.288	-0.159
-269.326	-3.239	-0.207	0.145
-268.311	-117.945	-0.288	0.052
-267.297	63.431	0.225	0.228
-266.282	52.602	-0.256	-0.246
-265.267	72.379	0.289	0.303
-264.253	-177.750	0.293	0.007
-263.238	6.661	0.147	0.110
-262.224	-46.756	0.254	-0.125
-261.209	-200.000	0.008	-0.169
-260.195	-82.894	-0.142	0.046
-259.180	-11.205	-0.109	-0.072
-258.165	-65.622	0.311	0.126
-257.151	-6.312	-0.084	0.058
-256.136	-101.806	0.129	-0.032
-255.122	-200.000	-0.046	0.378
-254.107	268.154	0.050	-0.087
-253.092	113.697	0.188	-0.230
-252.078	-200.000	0.031	-0.242
-251.063	47.307	-0.151	0.141
-250.049	-149.591	-0.181	-0.014
-249.034	-114.039	-0.211	0.041
-248.019	-36.049	-0.154	0.084
-247.005	800.000	-0.025	-0.101
-245.990	-54.947	0.157	-0.071
-244.976	800.000	0.107	0.391
-243.961	-58.061	-0.127	0.056
-242.946	27.011	0.299	0.252
-241.932	199.461	0.063	-0.097
-240.917	335.900	-0.048	0.093
-239.903	-30.546	0.078	0.044
-238.888	139.057	0.236	-0.312
-237.873	-200.000	-0.088	0.443
-236.859	-157.678	0.305	0.018
-235.844	-159.048	-0.214	0.012
-234.830	800.000	0.026	-0.085
-233.815	76.526	-0.085	-0.091
-232.800	90.047	-0.134	-0.151
-231.786	800.000	-0.021	0.065
-230.771	800.000	-0.051	0.162
-229.757	-112.199	0.134	0.027
-228.742	-200.000	-0.016	0.192
-227.727	-70.939	-0.278	0.105
-226.713	-69.922	-0.109	-0.042
-225.698	74.320	-0.043	0.045
-224.684	96.020	-0.164	-0.189
-223.669	400.002	0.271	0.572
-222.655	800.000	0.030	-0.107
-221.640	-200.000	-0.110	0.486
-220.625	-9.739	0.123	0.082
-219.611	-200.000	0.004	0.048
-218.596	23.705	0.288	-0.239
-217.582	-55.527	-0.222	-0.100
-216.567	800.000	-0.055	-0.218
-215.552	296.093	0.111	-0.205
-214.538	371.645	0.051	-0.105
-213.523	-200.000	-0.010	-0.074
-212.509	-169.688	-0.423	-0.015
-211.494	277.145	0.021	0.038
-210.479	-200.000	0.031	-0.254
-209.465	88.334	0.154	-0.172
-208.450	47.939	-0.225	0.211
-207.436	-59.440	-0.046	0.020
-206.421	-200.000	0.001	-0.168
-205.406	-200.000	0.005	-0.164
-204.392	3.643	-0.131	0.096
-203.377	-52.318	-0.201	0.094
-202.363	800.000	-0.047	-0.169
-201.348	-36.234	-0.236	0.128
-200.333	216.403	0.085	-0.135
-199.319	-44.631	-0.296	-0.149
-198.304	-4.955	0.119	-0.083
-197.290	-161.609	-0.205	0.011
-196.275	-60.544	0.155	0.066
-195.260	-84.360	0.211	0.067
-194.246	153.314	0.348	-0.479
-193.231	-66.251	-0.092	0.037
-192.217	-200.000	0.012	0.341
-191.202	800.000	-0.053	-0.206
-190.187	-129.886	0.098	0.014
-189.173	9.223	-0.137	0.104
-188.158	-200.000	0.017	0.234
-187.144	-110.059	-0.352	0.074
-186.129	-111.105	-0.430	-0.089
-185.114	-200.000	0.005	0.097
-184.100	-46.335	0.107	-0.053
-183.085	158.698	-0.130	-0.181
-182.071	577.822	0.052	0.127
-181.056	145.078	0.088	0.118
-180.042	800.000	0.062	-0.244
-179.027	316.769	0.135	0.256
-178.012	-122.804	0.323	0.052
-176.998	-200.000	-0.019	0.184
-175.983	2.613	-0.142	0.103
-174.969	225.767	-0.060	0.098
-173.954	-200.000	-0.009	0.066
-172.939	36.093	0.117	-0.103
-171.925	38.880	-0.277	0.249
-170.910	-117.108	0.213	0.039
-169.896	800.000	-0.113	0.454
-168.881	-61.192	0.266	0.112
-167.866	-49.718	-0.243	-0.116
-166.852	-200.000	-0.014	0.197
-165.837	284.773	0.100	-0.182
-164.823	188.265	-0.061	0.091
-163.808	564.909	-0.060	0.146
-162.793	800.000	0.066	0.220
-161.779	-200.000	0.006	0.116
-160.764	110.060	-0.124	0.150
-159.750	-34.651	-0.055	-0.030
-158.735	64.143	-0.160	0.161
-157.720	-200.000	-0.015	-0.396
-156.706	800.000	0.097	0.331
-155.691	-32.961	0.024	0.014
-154.677	216.044	0.105	-0.168
-153.662	-200.000	0.043	0.204
-152.647	256.319	0.075	0.129
-151.633	-171.830	0.209	0.007
-150.618	-124.321	-0.287	0.045
-149.604	-79.961	0.148	-0.050
-148.589	216.330	0.117	-0.186
-147.574	-200.000	-0.030	-0.148
-146.560	-200.000	0.001	-0.208
-145.545	-200.000	-0.004	-0.241
-144.531	340.274	0.084	0.165
-143.516	-200.000	-0.012	-0.084
-142.502	-120.056	0.020	-0.003
-141.487	6.710	0.192	0.143
-140.472	800.000	-0.036	-0.149
-139.458	32.223	-0.059	0.051
-138.443	-36.587	0.262	0.141
-137.429	-26.648	-0.145	-0.085
-136.414	-113.595	0.136	-0.027
-135.399	-4.061	-0.200	-0.139
-134.385	63.892	-0.164	0.165
-133.370	-200.000	-0.040	-0.261
-132.356	40.284	-0.102	-0.092
-131.341	250.088	-0.125	0.213
-130.326	-200.000	-0.011	-0.285
-129.312	800.000	0.126	-0.471
-128.297	212.697	-0.139	-0.220
-127.283	-143.158	-0.099	0.010
-126.268	-200.000	0.022	0.215
-125.253	-74.620	0.310	0.112
-124.239	-59.040	-0.170	0.073
-123.224	-143.642	-0.397	-0.038
-122.210	109.870	0.091	-0.109
-121.195	252.555	0.104	-0.178
-120.180	163.890	-0.068	0.096
-119.166	-200.000	-0.024	0.145
-118.151	-84.172	-0.139	-0.044
-117.137	-200.000	0.025	0.273
-116.122	-49.146	0.270	-0.129
-115.107	-137.967	0.480	-0.054
-114.093	-119.853	0.117	0.020
-113.078	542.734	-0.025	0.060
-112.064	-96.345	-0.260	-0.069
-111.049	-55.710	-0.338	-0.152
-110.034	40.046	-0.121	-0.109
-109.020	282.134	-0.155	-0.278
-108.005	671.352	-0.067	0.175
-106.991	800.000	0.059	-0.236
-105.976	-200.000	0.036	0.189
-104.962	-34.650	-0.273	0.150
-103.947	422.805	0.088	-0.189
-102.932	800.000	0.125	0.367
-101.918	800.000	-0.100	0.342
-100.903	56.992	0.132	0.129
-99.889	-31.270	-0.142	0.080
-98.874	245.045	0.092	-0.155
-97.859	55.304	0.272	-0.263
-96.845	-27.759	0.066	0.038
-95.830	228.971	0.121	-0.198
-94.816	800.000	-0.027	-0.114
-93.801	-200.000	-0.002	0.134
-92.786	-142.745	-0.043	0.004
-91.772	-61.051	-0.104	0.044
-90.757	-10.870	0.142	0.094
-89.743	-0.858	-0.243	0.172
-88.728	9.112	-0.084	0.064
-87.713	-200.000	-0.038	-0.183
-86.699	800.000	0.045	-0.138
-85.684	800.000	-0.021	-0.084
-84.670	24.949	0.133	0.110
-83.655	800.000	0.038	0.121
-82.640	122.555	0.051	-0.064
-81.626	-200.000	0.060	0.269
-80.611	135.398	-0.266	0.347
-79.597	503.021	-0.056	0.129
-78.582	315.672	-0.071	0.134
-77.567	220.296	0.100	-0.161
-76.553	9.124	0.180	-0.136
-75.538	-101.800	0.566	-0.137
-74.524	-45.257	0.225	-0.112
-73.509	256.859	0.124	-0.213
-72.494	-92.992	0.075	0.021
-71.480	22.433	-0.252	0.206
-70.465	-200.000	0.001	0.017
-69.451	-124.832	-0.226	-0.035
-68.436	13.543	0.118	-0.091
-67.422	263.086	-0.047	0.082
-66.407	86.719	-0.179	0.198
-65.392	-200.000	-0.015	-0.099
-64.378	3.571	-0.132	0.096
-63.363	228.896	0.181	0.294
-62.349	55.262	0.189	0.183
-61.334	-25.781	-0.880	-0.518
-60.319	-63.962	0.516	0.211
-59.305	-200.000	0.161	-0.859
-58.290	-57.191	0.731	0.322
-57.276	366.428	0.711	1.433
-56.261	-200.000	70.839	529.755
-55.246	611.649	1268.549	3170.219
-54.232	146.419	2494.794	3347.562
-53.217	115.455	2340.631	2858.134
-52.203	54.026	1959.858	1882.938
-51.188	47.644	1748.081	1629.488
-50.173	44.576	1700.624	1561.688
-49.159	58.173	1731.518	1695.237
-48.144	65.001	1750.575	1766.448
-47.130	47.410	1714.798	1596.410
-46.115	43.984	1701.533	1557.730
-45.100	43.842	1697.116	1552.530
-44.086	43.839	1694.073	1549.662
-43.071	43.803	1691.708	1547.167
-42.057	43.750	1689.471	1544.652
-41.042	43.693	1687.540	1542.392
-40.027	43.863	1684.871	1541.187
-39.013	43.823	1683.430	1539.504
-37.998	43.816	1681.412	1537.544
-36.984	43.905	1679.614	1536.508
-35.969	44.066	1678.052	1536.242
-34.954	44.021	1676.748	1534.642
-33.940	43.971	1674.807	1532.431
-32.925	44.041	1672.861	1531.116
-31.911	44.042	1671.513	1529.832
-30.896	44.011	1669.569	1527.757
-29.881	43.945	1668.150	1525.904
-28.867	43.943	1666.495	1524.315
-27.852	43.992	1664.645	1522.929
-26.838	44.012	1663.240	1521.733
-25.823	43.983	1661.825	1520.160
-24.809	44.027	1660.387	1519.109
-23.794	43.932	1659.287	1517.333
-22.779	44.062	1657.114	1516.258
-21.765	44.071	1655.240	1514.552
-20.750	43.949	1654.430	1512.840
-19.736	43.998	1652.790	1511.648
-18.721	44.167	1650.596	1510.834
-17.706	44.006	1649.378	1508.466
-16.692	43.934	1647.666	1506.304
-15.677	43.928	1646.419	1505.060
-14.663	43.931	1645.490	1504.172
-13.648	44.055	1643.378	1503.103
-12.633	44.078	1641.670	1501.652
-11.619	43.999	1640.435	1499.873
-10.604	44.000	1638.884	1498.407
-9.590	44.014	1637.915	1497.563
-8.575	44.024	1636.314	1496.114
-7.560	43.950	1635.384	1494.659
-6.546	44.002	1634.002	1493.722
-5.531	44.037	1632.963	1492.971
-4.517	44.094	1630.992	1491.529
-3.502	44.060	1630.114	1490.412
-2.487	44.122	1628.443	1489.284
-1.473	43.943	1617.578	1477.984
-0.458	41.192	1597.371	1439.607
0.556	36.003	1593.410	1397.406
1.571	32.719	1615.690	1392.609
2.586	31.569	1629.908	1396.170
3.600	27.533	1576.829	1321.381
4.615	15.136	1456.076	1136.497
5.629	3.528	1379.658	1001.740
6.644	1.334	1368.998	979.762
7.659	1.152	1367.675	977.554
8.673	1.095	1366.088	975.967
9.688	0.960	1365.269	974.430
10.702	0.828	1362.229	971.323
11.717	4.601	1370.064	1001.155
12.731	15.556	1391.109	1087.743
13.746	23.602	1404.444	1150.451
14.761	24.770	1405.411	1158.713
15.775	24.975	1405.164	1159.737
16.790	24.965	1405.211	1159.609
17.804	25.158	1404.134	1159.861
18.819	25.319	1403.883	1160.597
19.834	25.400	1402.969	1160.258
20.848	25.369	1402.265	1159.376
21.863	25.347	1401.654	1158.624
22.877	25.333	1400.986	1157.878
23.892	25.419	1399.718	1157.282
24.907	25.368	1398.873	1156.153
25.921	25.358	1397.753	1155.063
26.936	25.283	1397.147	1153.978
27.950	25.278	1396.056	1152.944
28.965	25.364	1394.892	1152.428
29.980	25.288	1393.226	1150.465
30.994	25.382	1391.975	1149.933
32.009	25.390	1390.878	1148.977
33.023	25.379	1389.985	1148.068
34.038	25.354	1388.691	1146.736
35.053	25.361	1387.628	1145.800
36.067	25.362	1386.382	1144.679
37.082	25.387	1385.590	1144.083
38.096	25.391	1384.142	1142.813
39.111	25.337	1383.908	1142.171
40.126	25.371	1383.264	1141.758
41.140	25.357	1382.621	1141.037
42.155	25.341	1382.446	1140.690
43.169	25.418	1382.084	1140.774
44.184	25.389	1382.042	1140.460
45.199	25.281	1381.723	1139.407
46.213	25.247	1381.337	1138.774
47.228	25.374	1380.341	1138.654
48.242	25.396	1378.912	1137.514
49.257	25.397	1377.360	1136.142
50.271	25.363	1375.762	1134.510
51.286	25.297	1374.867	1133.253
52.301	25.289	1373.379	1131.876
53.315	25.322	1372.863	1131.561
54.330	25.337	1371.710	1130.603
55.344	25.364	1370.295	1129.505
56.359	25.387	1369.493	1128.889
57.374	25.407	1368.617	1128.196
58.388	25.274	1368.116	1126.848
59.403	25.397	1367.779	1127.239
60.417	25.390	1366.797	1126.290
61.432	25.448	1365.999	1125.895
62.447	25.414	1365.104	1124.846
63.461	25.412	1364.052	1123.865
64.476	25.397	1363.554	1123.260
65.490	25.382	1362.191	1121.943
66.505	25.364	1360.522	1120.362
67.520	25.342	1359.449	1119.239
68.534	25.265	1358.729	1118.068
69.549	25.403	1356.933	1117.351
70.563	25.415	1356.485	1116.957
71.578	25.418	1354.891	1115.562
72.593	25.415	1354.321	1114.976
73.607	25.266	1354.105	1113.773
74.622	25.468	1352.643	1113.729
75.636	25.405	1352.378	1113.017
76.651	25.368	1352.019	1112.394
77.666	25.385	1351.281	1111.795
78.680	25.312	1350.603	1110.685
79.695	25.318	1349.576	1109.781
80.709	25.439	1348.664	1109.680
81.724	25.377	1347.998	1108.654
82.739	25.346	1347.194	1107.700
83.753	25.369	1346.592	1107.248
84.768	25.325	1345.473	1105.960
85.782	25.312	1344.148	1104.695
86.797	25.449	1342.902	1104.416
87.812	25.459	1341.659	1103.356
88.826	25.440	1340.543	1102.221
89.841	25.296	1339.526	1100.407
90.855	25.378	1338.171	1099.697
91.870	25.418	1337.928	1099.646
92.884	25.459	1336.794	1098.867
93.899	25.405	1336.281	1098.021
94.914	25.358	1335.584	1097.060
95.928	25.463	1334.541	1096.749
96.943	25.313	1333.926	1095.234
97.957	25.465	1333.283	1095.535
98.972	25.472	1332.420	1094.770
99.987	25.442	1331.253	1093.533
101.001	25.408	1330.386	1092.519
102.016	25.349	1329.437	1091.280
103.030	25.413	1328.575	1090.867
104.045	25.441	1327.754	1090.267
105.060	25.398	1326.666	1089.014
106.074	25.375	1325.958	1088.198
107.089	25.384	1324.917	1087.303
108.103	25.498	1323.672	1086.873
109.118	25.471	1322.517	1085.668
110.133	25.525	1321.548	1085.103
111.147	25.470	1320.446	1083.767
112.162	25.540	1319.142	1083.024
113.176	25.421	1318.729	1081.872
114.191	25.541	1317.581	1081.556
115.206	25.519	1316.650	1080.562
116.220	25.419	1315.666	1079.060
117.235	25.455	1314.537	1078.257
118.249	25.454	1313.644	1077.422
119.264	25.514	1312.583	1076.815
120.279	25.454	1311.848	1075.760
121.293	25.570	1311.110	1075.752
122.308	25.472	1310.450	1074.529
123.322	25.537	1309.635	1074.154
124.337	25.510	1308.745	1073.169
125.352	25.594	1307.538	1072.581
126.366	25.599	1306.766	1071.885
127.381	25.601	1305.633	1070.872
128.395	25.539	1305.097	1069.972
129.410	25.625	1304.600	1069.977
130.424	25.546	1303.773	1068.739
131.439	25.613	1302.822	1068.261
132.454	25.672	1301.941	1067.795
133.468	25.531	1301.340	1066.367
134.483	25.502	1300.821	1065.680
135.497	25.682	1299.710	1065.738
136.512	25.579	1298.690	1064.199
137.527	25.637	1297.913	1063.812
138.541	25.589	1296.304	1062.114
139.556	25.538	1295.573	1061.122
140.570	25.516	1294.594	1060.094
141.585	25.580	1293.598	1059.565
142.600	25.642	1292.481	1058.921
143.614	25.499	1291.698	1057.341
144.629	25.656	1290.758	1057.402
145.643	25.551	1289.584	1055.732
146.658	25.507	1288.256	1054.290
147.673	25.456	1287.391	1053.195
148.687	25.581	1286.919	1053.446
149.702	25.439	1285.724	1051.542
150.716	25.459	1284.207	1050.326
151.731	25.577	1283.423	1050.283
152.746	25.503	1282.474	1048.979
153.760	25.523	1281.015	1047.809
154.775	25.566	1280.232	1047.325
155.789	25.578	1279.197	1046.459
156.804	25.587	1278.118	1045.537
157.819	25.436	1277.852	1044.346
158.833	25.503	1276.624	1043.643
159.848	25.493	1276.195	1043.140
160.862	25.623	1275.127	1042.927
161.877	25.606	1274.129	1041.923
162.892	25.499	1273.683	1040.847
163.906	25.617	1273.046	1040.918
164.921	25.693	1272.118	1040.507
165.935	25.673	1271.227	1039.569
166.950	25.588	1271.076	1038.862
167.964	25.605	1270.436	1038.346
168.979	25.523	1270.235	1037.613
169.994	25.666	1269.030	1037.364
171.008	25.594	1268.236	1036.207
172.023	25.551	1267.716	1035.445
173.037	25.667	1266.849	1035.310
174.052	25.714	1265.882	1034.701
175.067	25.723	1264.856	1033.820
176.081	25.701	1263.888	1032.809
177.096	25.547	1263.655	1031.647
178.110	25.564	1262.757	1030.922
179.125	25.751	1261.670	1031.011
180.140	25.646	1260.838	1029.641
181.154	25.736	1259.635	1029.078
182.169	25.653	1258.556	1027.635
183.183	25.650	1257.361	1026.547
184.198	25.613	1256.604	1025.631
185.213	25.647	1255.516	1024.846
186.227	25.850	1254.126	1024.775
187.242	25.781	1253.526	1023.803
188.256	25.739	1253.038	1023.077
189.271	25.689	1252.413	1022.191
190.286	25.745	1251.391	1021.581
191.300	25.657	1251.130	1020.781
192.315	25.748	1250.362	1020.580
193.329	25.707	1250.124	1020.060
194.344	25.735	1249.488	1019.612
195.359	25.679	1249.313	1019.062
196.373	25.735	1248.909	1018.961
197.388	25.741	1248.159	1018.292
198.402	25.747	1247.890	1018.012
199.417	25.695	1247.523	1017.332
200.432	25.745	1246.777	1016.917
201.446	25.810	1245.830	1016.419
202.461	25.808	1244.921	1015.578
203.475	25.759	1244.223	1014.639
204.490	25.786	1243.430	1014.055
205.504	25.727	1242.349	1012.753
206.519	25.766	1241.940	1012.551
207.534	25.808	1240.635	1011.634
208.548	25.797	1239.591	1010.627
209.563	25.828	1238.827	1010.092
210.577	25.713	1238.479	1009.076
211.592	25.857	1237.434	1008.940
212.607	25.843	1236.050	1007.640
213.621	25.812	1236.088	1007.413
214.636	25.805	1235.052	1006.438
215.650	25.858	1234.245	1005.989
216.665	25.975	1233.024	1005.557
217.680	25.827	1232.395	1004.129
218.694	25.892	1231.433	1003.620
219.709	25.880	1230.839	1002.981
220.723	25.849	1230.378	1002.342
221.738	25.850	1229.647	1001.663
222.753	25.734	1229.269	1000.624
223.767	25.930	1228.238	1000.782
224.782	25.901	1227.428	999.873
225.796	25.990	1227.196	1000.091
226.811	25.920	1226.800	999.290
227.826	25.972	1225.953	998.800
228.840	25.975	1225.065	998.006
229.855	25.920	1224.666	997.289
230.869	25.926	1224.110	996.780
231.884	25.918	1223.196	995.902
232.899	25.944	1222.707	995.557
233.913	26.010	1221.946	995.216
234.928	25.976	1221.389	994.485
235.942	26.066	1220.824	994.436
236.957	25.997	1220.057	993.344
237.972	26.018	1219.067	992.566
238.986	26.003	1218.925	992.277
240.001	26.038	1217.910	991.558
241.015	26.126	1217.106	991.297
242.030	26.052	1216.763	990.525
243.045	26.078	1215.735	989.742
244.059	26.111	1215.027	989.259
245.074	26.156	1214.181	988.726
246.088	26.095	1213.361	987.642
247.103	26.159	1212.465	987.173
248.117	26.107	1212.090	986.497
249.132	26.071	1211.382	985.634
250.147	26.199	1210.294	985.361
251.161	26.134	1209.508	984.280
252.176	26.140	1209.012	983.825
253.190	26.174	1208.470	983.482
254.205	26.241	1208.063	983.425
255.220	26.204	1207.379	982.582
256.234	26.239	1206.609	982.057
257.249	26.302	1205.887	981.726
258.263	26.331	1205.408	981.406
259.278	26.186	1204.846	980.076
260.293	26.276	1204.281	980.017
261.307	26.197	1203.841	979.147
262.322	26.245	1203.510	979.047
263.336	26.325	1202.567	978.628
264.351	26.289	1201.988	977.874
265.366	26.323	1201.603	977.659
266.380	26.332	1201.032	977.157
267.395	26.322	1199.851	976.058
268.409	26.156	1199.426	974.725
269.424	26.293	1198.716	974.801
270.439	26.321	1198.430	974.636
271.453	26.258	1198.206	974.027
272.468	26.308	1196.624	972.926
273.482	26.274	1196.484	972.540
274.497	26.345	1195.864	972.331
275.512	26.430	1195.131	972.110
276.526	26.335	1194.946	971.363
277.541	26.342	1193.878	970.443
278.555	26.455	1192.865	970.139
279.570	26.419	1192.518	969.578
280.585	26.277	1191.743	968.106
281.599	26.359	1190.829	967.716
282.614	26.345	1190.196	967.042
283.628	26.347	1188.956	965.957
284.643	26.403	1187.974	965.372
285.657	26.501	1187.211	965.188
286.672	26.487	1186.207	964.212
287.687	26.478	1185.672	963.648
288.701	26.471	1185.186	963.127
289.716	26.590	1184.220	962.893
290.730	26.516	1183.502	961.830
291.745	26.452	1183.419	961.335
292.760	26.544	1182.537	961.020
293.774	26.574	1181.793	960.492
294.789	26.567	1181.600	960.216
295.803	26.699	1180.246	959.727
296.818	26.565	1179.731	958.514
297.833	26.561	1179.203	957.982
298.847	26.592	1178.198	957.240
299.862	26.601	1177.745	956.834
300.876	26.578	1177.363	956.319
301.891	26.551	1177.094	955.876
302.906	26.671	1176.207	955.702
303.920	26.767	1174.783	954.967
304.935	26.657	1174.607	954.161
305.949	26.659	1174.205	953.760
306.964	26.657	1173.541	953.126
307.979	26.589	1172.777	952.061
308.993	26.674	1172.209	951.964
310.008	26.717	1171.044	951.160
311.022	26.716	1170.404	950.552
312.037	26.720	1169.508	949.761
313.052	26.757	1169.216	949.631
314.066	26.834	1168.187	949.116
315.081	26.660	1167.735	947.753
316.095	26.753	1166.769	947.373
317.110	26.784	1166.436	947.178
318.125	26.857	1165.293	946.551
319.139	26.775	1164.844	945.673
320.154	26.819	1164.050	945.172
321.168	26.727	1163.924	944.506
322.183	26.756	1163.233	944.014
323.197	26.833	1162.596	943.813
324.212	26.688	1162.043	942.531
325.227	26.812	1161.595	942.726
326.241	26.873	1161.122	942.577
327.256	26.878	1160.425	941.952
328.270	26.819	1159.613	940.904
329.285	26.760	1158.836	939.882
330.300	26.874	1158.038	939.743
331.314	26.822	1157.402	938.878
332.329	26.879	1156.417	938.286
333.343	26.887	1155.462	937.472
334.358	26.889	1155.013	937.038
335.373	26.968	1154.369	936.837
336.387	26.933	1153.740	936.066
337.402	26.994	1152.718	935.468
338.416	27.011	1151.912	934.815
339.431	27.104	1151.505	934.882
340.446	26.987	1151.250	933.990
341.460	27.038	1150.319	933.413
342.475	27.059	1149.429	932.719
343.489	27.098	1148.701	932.247
344.504	26.974	1148.115	931.049
345.519	27.115	1147.098	930.868
346.533	27.047	1146.523	929.971
347.548	27.085	1145.764	929.468
348.562	27.090	1144.739	928.577
349.577	27.118	1144.096	928.115
350.592	27.023	1143.683	927.215
351.606	27.010	1143.023	926.532
352.621	27.071	1142.530	926.361
353.635	27.028	1141.710	925.392
354.650	27.245	1140.554	925.482
355.665	27.139	1140.353	924.697
356.679	27.231	1139.674	924.530
357.694	27.092	1139.189	923.352
358.708	27.205	1138.583	923.351
359.723	27.249	1137.790	922.848
360.738	27.180	1137.017	921.789
361.752	27.227	1136.596	921.607
362.767	27.286	1135.985	921.330
363.781	27.249	1135.469	920.639
364.796	27.354	1134.570	920.363
365.810	27.342	1134.403	920.084
366.825	27.256	1134.167	919.374
367.840	27.382	1133.203	919.150
368.854	27.365	1132.747	918.613
369.869	27.388	1131.836	917.910
370.883	27.453	1130.990	917.468
371.898	27.499	1130.040	916.850
372.913	27.432	1129.737	916.187
373.927	27.333	1129.322	915.268
374.942	27.527	1128.729	915.682
375.956	27.439	1128.357	914.855
376.971	27.433	1128.063	914.507
377.986	27.496	1127.673	914.426
379.000	27.450	1126.999	913.569
380.015	27.456	1126.489	913.105
381.029	27.476	1125.717	912.498
382.044	27.582	1124.753	912.167
383.059	27.528	1124.065	911.257
384.073	27.602	1123.218	910.860
385.088	27.656	1122.105	910.148
386.102	27.506	1121.433	908.773
387.117	27.547	1120.906	908.472
388.132	27.499	1120.432	907.764
389.146	27.650	1119.280	907.501
390.161	27.579	1118.978	906.824
391.175	27.583	1118.340	906.250
392.190	27.593	1117.442	905.490
393.205	27.599	1116.683	904.826
394.219	27.590	1115.985	904.132
395.234	27.705	1115.280	904.053
396.248	27.644	1114.659	903.166
397.263	27.680	1113.480	902.311
398.278	27.711	1113.058	902.041
399.292	27.761	1112.618	901.854
400.307	27.813	1111.441	901.077
401.321	27.658	1111.309	900.123
402.336	27.759	1110.378	899.786
403.350	27.815	1109.565	899.324
404.365	27.795	1109.265	898.905
405.380	27.694	1108.697	897.866
406.394	27.836	1107.687	897.670
407.409	27.768	1107.263	896.913
408.423	27.913	1106.123	896.619
409.438	27.945	1105.807	896.443
410.453	27.850	1105.103	895.326
411.467	27.972	1104.184	895.101
412.482	27.976	1103.225	894.264
413.496	28.000	1102.654	893.836
414.511	27.831	1102.135	892.515
415.526	27.924	1101.940	892.728
416.540	27.916	1101.778	892.479
417.555	27.982	1100.849	891.970
418.569	27.904	1100.758	891.439
419.584	27.911	1100.363	891.075
420.599	28.001	1099.847	891.017
421.613	76.227	1277.797	1299.434
422.628	71.398	1303.753	1299.584
