DTS Sentinel unit serial number:	SN413079Multiplexer serial number:	ORYXHardware model number:	OX4-SRSoftware version number:	ORYX F/W v4.00 Oryx Data Collector v3.7.2.0data status	okinstallation	princeton_trtdifferential loss correction	single-endedforward channel	channel 2reverse channel	N/Adate	2019/09/11time	06:25:11forward acquisition time	60.00reverse acquisition time	0.00gamma	496.2192k internal	0.2329k external	0.2329temperature offset calibration	0.9940default loss term (dB/km)	0.3790temperature slope calibration	1.0000multiplexer offset coefficient	1.0000multiplexer slope coefficient	1.0000fibre end	0.00T internal ref (°C)	29.56T ext. ref 1 (°C)	-0.19T ext. ref 2 (°C)	24.07length (m)	temperature (°C)	Stokes	anti-Stokes-747.200	43.026	0.110	0.101
-746.185	-200.000	0.019	0.292
-745.171	-200.000	-0.011	-0.351
-744.156	237.163	0.062	0.104
-743.142	-173.407	0.304	-0.009
-742.127	110.334	-0.147	0.177
-741.112	-35.742	0.079	-0.043
-740.098	508.826	0.169	0.396
-739.083	-53.887	-0.259	0.119
-738.069	-60.633	-0.065	0.028
-737.054	374.314	0.139	0.286
-736.039	-133.915	-0.216	-0.027
-735.025	226.853	0.211	0.345
-734.010	31.258	-0.232	0.200
-732.996	53.662	0.160	-0.154
-731.981	800.000	0.092	-0.327
-730.966	-32.485	-0.383	-0.215
-729.952	800.000	-0.064	0.184
-728.937	-200.000	-0.051	-0.318
-727.923	-200.000	0.001	0.072
-726.908	-200.000	-0.005	0.088
-725.894	787.902	-0.106	0.293
-724.879	-29.214	0.097	-0.056
-723.864	113.981	0.120	0.147
-722.850	-60.620	-0.246	-0.105
-721.835	117.794	-0.046	0.057
-720.821	-200.000	0.020	0.179
-719.806	800.000	-0.054	-0.168
-718.791	-200.000	0.052	0.266
-717.777	26.103	0.204	-0.171
-716.762	74.299	-0.220	0.233
-715.748	16.528	0.167	-0.133
-714.733	-200.000	0.005	0.115
-713.718	-25.064	0.268	-0.160
-712.704	-172.403	-0.137	-0.004
-711.689	-134.471	0.112	-0.014
-710.675	-200.000	-0.067	-0.456
-709.660	-84.418	0.292	0.093
-708.645	-200.000	-0.016	-0.433
-707.631	-83.176	-0.381	-0.123
-706.616	-200.000	-0.015	0.448
-705.602	-61.815	0.306	-0.129
-704.587	250.454	0.160	-0.273
-703.572	98.155	0.257	0.298
-702.558	56.310	-0.172	0.168
-701.543	159.286	-0.043	0.060
-700.529	-200.000	-0.004	0.111
-699.514	-2.813	-0.142	0.100
-698.499	800.000	-0.020	0.087
-697.485	435.010	0.090	-0.198
-696.470	-61.941	0.095	-0.040
-695.456	-200.000	0.015	-0.176
-694.441	-128.346	0.064	0.009
-693.426	-200.000	-0.033	-0.278
-692.412	-3.446	-0.248	0.174
-691.397	77.714	-0.160	0.172
-690.383	-200.000	0.046	-0.218
-689.368	224.572	0.095	-0.155
-688.354	72.733	-0.192	0.202
-687.339	-200.000	0.064	-0.295
-686.324	-47.174	-0.184	0.090
-685.310	-183.404	0.168	0.003
-684.295	3.430	-0.343	-0.251
-683.281	800.000	0.028	-0.087
-682.266	-113.475	-0.211	0.042
-681.251	-200.000	-0.018	-0.087
-680.237	38.459	-0.160	-0.143
-679.222	-149.367	-0.329	-0.026
-678.208	-7.897	-0.053	0.036
-677.193	-120.275	0.319	-0.055
-676.178	-75.588	0.087	-0.031
-675.164	-200.000	-0.014	-0.121
-674.149	-200.000	-0.028	-0.125
-673.135	60.607	-0.194	-0.193
-672.120	800.000	0.067	-0.270
-671.105	-200.000	0.008	-0.077
-670.091	1.539	-0.402	-0.291
-669.076	163.025	0.031	0.044
-668.062	36.586	-0.257	0.228
-667.047	-157.580	0.228	-0.014
-666.032	800.000	-0.102	-0.300
-665.018	-66.438	0.320	0.128
-664.003	-23.763	-0.084	-0.051
-662.989	-46.917	-0.072	-0.035
-661.974	641.921	-0.112	-0.286
-660.959	-90.795	0.171	-0.049
-659.945	-122.061	0.099	-0.016
-658.930	-60.685	-0.048	-0.020
-657.916	140.812	0.147	0.195
-656.901	-200.000	0.017	-0.213
-655.886	-16.953	-0.374	-0.237
-654.872	-50.725	-0.254	-0.120
-653.857	-200.000	0.001	-0.356
-652.843	-191.599	-0.225	-0.002
-651.828	-66.878	-0.156	0.062
-650.814	-130.643	0.121	-0.016
-649.799	-106.339	-0.308	0.069
-648.784	-200.000	0.265	-0.000
-647.770	17.586	0.213	0.170
-646.755	245.028	-0.092	-0.155
-645.741	800.000	0.124	0.387
-644.726	-200.000	0.038	0.373
-643.711	-145.494	-0.152	0.014
-642.697	42.760	0.146	-0.134
-641.682	-200.000	-0.045	-0.357
-640.668	472.834	0.048	-0.108
-639.653	-125.332	-0.466	0.071
-638.638	800.000	0.072	-0.315
-637.624	672.949	-0.044	-0.114
-636.609	-200.000	0.029	0.150
-635.595	-101.371	0.238	0.058
-634.580	-150.634	-0.273	0.021
-633.565	-96.662	-0.074	0.020
-632.551	-43.840	-0.173	0.088
-631.536	800.000	-0.070	-0.241
-630.522	-200.000	-0.002	0.208
-629.507	-200.000	-0.008	0.361
-628.492	-152.271	0.131	0.009
-627.478	-135.202	0.215	-0.026
-626.463	188.242	-0.156	0.234
-625.449	5.374	-0.028	-0.021
-624.434	-67.901	-0.272	-0.106
-623.419	9.615	0.271	0.206
-622.405	-200.000	0.006	-0.180
-621.390	-71.370	-0.472	-0.177
-620.376	52.571	0.170	-0.163
-619.361	158.348	0.146	-0.203
-618.346	-74.177	-0.319	0.116
-617.332	-114.567	0.115	0.022
-616.317	298.932	0.014	-0.025
-615.303	225.116	0.067	-0.108
-614.288	21.153	0.083	0.067
-613.273	-31.426	0.128	-0.072
-612.259	84.103	-0.090	0.099
-611.244	-200.000	-0.014	-0.145
-610.230	-200.000	0.049	0.267
-609.215	-200.000	-0.007	-0.408
-608.201	-13.696	0.129	-0.083
-607.186	-62.120	-0.309	0.129
-606.171	687.274	0.123	0.321
-605.157	308.700	0.129	-0.242
-604.142	800.000	-0.046	-0.147
-603.128	800.000	-0.049	0.203
-602.113	118.119	0.088	0.109
-601.098	-200.000	-0.047	-0.223
-600.084	189.735	0.146	0.220
-599.069	-200.000	0.020	0.139
-598.055	-200.000	0.054	-0.260
-597.040	-67.042	-0.184	0.073
-596.025	-117.954	0.158	-0.028
-595.011	-49.702	-0.206	0.098
-593.996	-108.367	-0.229	0.050
-592.982	550.081	0.113	-0.270
-591.967	-108.921	-0.429	0.092
-590.952	81.242	-0.079	0.086
-589.938	14.410	-0.087	0.068
-588.923	-38.784	-0.083	-0.044
-587.909	-30.182	-0.044	-0.025
-586.894	209.869	-0.178	0.279
-585.879	110.794	-0.285	0.343
-584.865	-158.557	0.361	-0.021
-583.850	761.325	0.119	-0.323
-582.836	25.336	-0.062	0.052
-581.821	-186.709	-0.230	0.003
-580.806	-147.933	-0.211	-0.018
-579.792	17.873	-0.448	0.357
-578.777	548.056	0.139	0.333
-577.763	-200.000	-0.021	-0.112
-576.748	-72.698	-0.258	-0.095
-575.733	44.473	0.224	-0.206
-574.719	140.086	0.121	0.160
-573.704	23.852	-0.097	-0.080
-572.690	-41.658	-0.239	0.123
-571.675	-200.000	0.001	0.057
-570.661	-97.385	-0.266	-0.069
-569.646	58.069	0.072	-0.070
-568.631	-15.888	-0.209	-0.133
-567.617	50.060	-0.142	0.134
-566.602	800.000	-0.056	0.214
-565.588	345.310	0.122	0.241
-564.573	-200.000	-0.003	-0.111
-563.558	-123.385	0.162	-0.026
-562.544	-68.453	0.194	0.075
-561.529	-68.841	0.115	-0.044
-560.515	-67.482	-0.248	0.097
-559.500	108.384	-0.077	0.092
-558.485	-200.000	0.007	0.103
-557.471	-72.925	-0.420	0.154
-556.456	12.611	0.258	-0.199
-555.442	-28.910	0.164	-0.094
-554.427	-199.189	-0.237	-0.001
-553.412	-133.924	-0.284	-0.035
-552.398	-50.281	-0.195	-0.092
-551.383	110.935	-0.196	-0.236
-550.369	-128.533	0.262	0.037
-549.354	-145.555	0.235	0.021
-548.339	-56.953	-0.197	0.087
-547.325	800.000	-0.162	0.456
-546.310	-29.162	-0.282	0.162
-545.296	-166.714	-0.161	0.007
-544.281	-177.328	0.376	0.009
-543.266	-200.000	0.055	0.335
-542.252	-173.780	0.148	-0.004
-541.237	300.776	-0.168	-0.309
-540.223	-39.733	-0.107	-0.056
-539.208	-159.069	0.168	0.009
-538.193	-32.910	-0.311	-0.172
-537.179	373.358	-0.157	0.319
-536.164	16.284	-0.185	0.146
-535.150	-13.597	-0.089	0.058
-534.135	106.858	0.194	0.230
-533.121	401.351	-0.120	0.252
-532.106	39.765	0.027	-0.024
-531.091	800.000	-0.136	-0.387
-530.077	800.000	-0.066	0.234
-529.062	19.309	0.086	-0.069
-528.048	50.279	-0.286	-0.270
-527.033	-159.337	-0.206	0.012
-526.018	133.703	0.127	0.164
-525.004	-93.632	-0.405	-0.112
-523.989	-87.738	-0.106	-0.032
-522.975	94.484	-0.105	-0.119
-521.960	-28.654	-0.147	0.084
-520.945	800.000	0.035	0.143
-519.931	58.680	0.116	0.114
-518.916	-28.563	0.231	-0.133
-517.902	-92.681	-0.274	0.077
-516.887	-137.397	0.235	0.027
-515.872	-158.100	0.171	0.010
-514.858	-11.962	-0.114	0.074
-513.843	-98.702	0.212	0.054
-512.829	50.722	0.116	0.110
-511.814	-200.000	0.059	-0.264
-510.799	800.000	0.143	-0.463
-509.785	-2.894	0.255	-0.178
-508.770	800.000	0.063	-0.201
-507.756	203.522	-0.057	-0.088
-506.741	-200.000	0.015	0.162
-505.726	800.000	0.076	-0.298
-504.712	290.995	-0.088	-0.160
-503.697	-200.000	0.051	0.246
-502.683	38.600	-0.239	0.212
-501.668	-200.000	0.000	0.188
-500.653	751.640	0.051	-0.136
-499.639	272.195	-0.068	0.120
-498.624	-147.064	0.198	-0.017
-497.610	-14.935	-0.068	-0.043
-496.595	-61.099	0.168	-0.071
-495.581	-32.779	-0.017	0.009
-494.566	64.827	-0.170	-0.171
-493.551	-81.010	0.181	-0.060
-492.537	-35.469	-0.202	-0.110
-491.522	-47.550	0.362	-0.175
-490.508	-81.174	-0.237	0.078
-489.493	-37.632	-0.109	0.058
-488.478	76.935	-0.024	0.026
-487.464	800.000	-0.102	-0.428
-486.449	800.000	-0.169	-0.508
-485.435	800.000	-0.059	-0.222
-484.420	749.649	-0.179	0.480
-483.405	58.320	0.100	0.098
-482.391	-74.864	-0.331	0.118
-481.376	385.024	-0.118	-0.242
-480.362	-169.090	0.165	-0.006
-479.347	-200.000	-0.017	-0.129
-478.332	301.810	-0.244	-0.450
-477.318	-146.629	-0.257	-0.022
-476.303	-90.439	0.383	-0.111
-475.289	-53.169	-0.191	-0.087
-474.274	-200.000	0.053	-0.438
-473.259	-21.915	0.076	-0.046
-472.245	-3.313	0.335	0.233
-471.230	174.983	0.085	0.123
-470.216	126.271	0.196	-0.248
-469.201	-20.391	0.126	0.077
-468.186	81.205	-0.168	0.181
-467.172	99.674	0.115	-0.133
-466.157	800.000	-0.080	-0.325
-465.143	84.172	0.275	0.300
-464.128	102.537	0.154	0.180
-463.113	-48.906	0.187	0.089
-462.099	0.555	0.137	0.098
-461.084	-200.000	0.026	0.248
-460.070	-55.944	-0.160	-0.071
-459.055	-70.089	-0.253	0.096
-458.040	800.000	0.078	-0.219
-457.026	-56.304	0.163	0.072
-456.011	153.679	0.070	0.095
-454.997	384.979	-0.089	0.183
-453.982	366.885	0.111	-0.222
-452.968	369.925	0.133	0.268
-451.953	-200.000	0.053	-0.263
-450.938	92.616	0.022	-0.024
-449.924	-200.000	-0.003	-0.202
-448.909	39.901	-0.105	0.094
-447.895	-197.127	-0.306	-0.002
-446.880	-92.946	0.085	-0.024
-445.865	-95.380	-0.161	-0.043
-444.851	235.420	0.137	-0.226
-443.836	-110.598	0.152	-0.031
-442.822	11.553	0.310	-0.237
-441.807	-140.248	-0.494	-0.052
-440.792	-46.350	-0.025	0.012
-439.778	72.644	-0.103	-0.107
-438.763	108.083	-0.338	0.401
-437.749	-135.544	0.231	-0.027
-436.734	-200.000	0.000	-0.248
-435.719	-62.066	0.273	0.113
-434.705	703.963	-0.051	0.134
-433.690	-22.166	0.035	-0.021
-432.676	-108.755	0.204	-0.043
-431.661	-8.473	0.087	0.058
-430.646	-48.599	0.259	-0.124
-429.632	420.300	0.092	-0.196
-428.617	216.143	-0.132	-0.209
-427.603	-9.191	0.387	-0.258
-426.588	-200.000	0.001	-0.071
-425.573	109.417	0.152	0.181
-424.559	40.533	-0.096	-0.086
-423.544	444.877	0.030	-0.064
-422.530	355.521	0.201	-0.397
-421.515	-11.249	-0.119	-0.078
-420.500	358.230	0.101	-0.201
-419.486	-20.342	0.147	0.090
-418.471	-86.222	0.221	0.068
-417.457	-33.724	-0.236	0.129
-416.442	176.071	-0.070	0.101
-415.428	800.000	-0.013	-0.038
-414.413	800.000	0.039	0.159
-413.398	-200.000	0.001	-0.086
-412.384	-26.090	-0.248	0.145
-411.369	-200.000	0.030	0.248
-410.355	-26.691	0.276	0.161
-409.340	-127.505	-0.118	0.017
-408.325	128.317	0.155	-0.196
-407.311	800.000	-0.096	0.303
-406.296	688.449	0.039	-0.102
-405.282	270.787	-0.163	-0.284
-404.267	-200.000	0.010	-0.310
-403.252	-16.000	0.064	0.040
-402.238	258.028	0.139	0.237
-401.223	231.520	0.169	0.276
-400.209	185.896	0.031	0.045
-399.194	-115.906	0.242	-0.045
-398.179	347.290	-0.065	-0.127
-397.165	-25.508	0.096	-0.056
-396.150	266.367	-0.135	-0.234
-395.136	75.837	-0.107	0.113
-394.121	-61.868	0.113	0.047
-393.106	24.125	-0.145	-0.119
-392.092	759.974	-0.129	-0.347
-391.077	34.077	-0.138	0.119
-390.063	800.000	0.091	0.274
-389.048	-63.107	0.223	0.091
-388.033	214.074	0.163	-0.257
-387.019	-90.753	0.205	-0.059
-386.004	59.387	-0.261	-0.255
-384.990	786.870	-0.049	0.134
-383.975	-200.000	-0.048	0.254
-382.960	73.908	-0.222	0.231
-381.946	800.000	0.041	-0.115
-380.931	208.829	0.159	-0.248
-379.917	-200.000	0.047	0.215
-378.902	800.000	0.078	0.337
-377.888	-123.784	0.459	0.072
-376.873	-47.471	0.044	0.021
-375.858	-175.419	0.254	0.007
-374.844	-75.221	0.215	0.076
-373.829	-69.121	-0.333	0.127
-372.815	11.330	0.148	-0.112
-371.800	41.709	-0.275	-0.248
-370.785	800.000	-0.084	-0.363
-369.771	656.526	-0.090	0.230
-368.756	-137.496	-0.178	-0.020
-367.742	-196.312	-0.293	0.002
-366.727	-117.100	0.247	0.045
-365.712	-119.407	0.521	0.090
-364.698	-200.000	0.023	-0.115
-363.683	-200.000	-0.025	0.238
-362.669	92.582	0.128	0.143
-361.654	-120.201	0.283	0.048
-360.639	-200.000	-0.025	0.196
-359.625	800.000	-0.079	0.228
-358.610	-25.575	0.191	-0.112
-357.596	-174.626	-0.239	0.007
-356.581	-200.000	-0.025	-0.247
-355.566	-5.738	0.130	0.089
-354.552	29.768	-0.151	0.127
-353.537	-38.852	0.280	-0.147
-352.523	-121.273	0.148	0.024
-351.508	36.459	0.181	0.158
-350.493	2.350	0.300	0.215
-349.479	-57.731	-0.473	0.205
-348.464	800.000	-0.048	-0.148
-347.450	80.732	0.242	-0.258
-346.435	800.000	-0.096	0.269
-345.420	-5.325	-0.131	-0.090
-344.406	36.889	-0.130	0.114
-343.391	-31.874	0.178	0.099
-342.377	-200.000	0.027	0.192
-341.362	104.696	0.297	0.348
-340.348	-80.909	-0.195	-0.064
-339.333	-113.274	0.141	-0.028
-338.318	800.000	0.038	-0.160
-337.304	47.316	-0.121	0.112
-336.289	3.238	-0.236	-0.170
-335.275	172.614	-0.043	0.061
-334.260	-115.057	-0.079	0.015
-333.245	123.616	0.155	-0.192
-332.231	-200.000	-0.010	0.058
-331.216	-159.486	0.181	0.010
-330.202	-88.421	-0.296	0.088
-329.187	629.312	-0.094	-0.237
-328.172	800.000	-0.056	-0.157
-327.158	283.358	-0.069	0.123
-326.143	737.606	-0.100	-0.265
-325.129	800.000	-0.033	-0.120
-324.114	550.646	0.083	0.196
-323.099	399.114	-0.134	-0.278
-322.085	-35.657	0.266	0.143
-321.070	-200.000	0.027	-0.127
-320.056	-39.384	-0.275	-0.143
-319.041	55.412	0.267	0.256
-318.026	212.191	-0.009	-0.014
-317.012	103.536	0.217	-0.252
-315.997	251.670	-0.121	-0.204
-314.983	-75.401	-0.369	0.130
-313.968	-99.278	-0.166	-0.042
-312.953	-13.770	-0.225	-0.144
-311.939	107.706	0.117	0.138
-310.924	-15.236	0.426	-0.270
-309.910	-70.476	0.159	0.060
-308.895	-200.000	-0.039	0.187
-307.880	633.546	-0.085	-0.214
-306.866	549.494	0.142	-0.337
-305.851	49.517	0.109	0.102
-304.837	-200.000	0.003	0.069
-303.822	73.829	0.040	-0.042
-302.807	381.356	-0.083	-0.168
-301.793	800.000	-0.050	-0.152
-300.778	-71.074	-0.090	0.033
-299.764	-98.888	-0.167	0.042
-298.749	-118.191	0.067	0.012
-297.735	71.898	0.152	-0.156
-296.720	-176.938	-0.104	0.003
-295.705	-95.391	0.252	-0.067
-294.691	175.906	-0.098	0.141
-293.676	-134.402	0.103	0.012
-292.662	166.583	-0.111	0.156
-291.647	-200.000	0.007	0.253
-290.632	109.659	0.165	-0.196
-289.618	-200.000	0.022	-0.326
-288.603	499.843	-0.074	0.170
-287.589	71.924	0.172	0.177
-286.574	-74.028	-0.093	-0.033
-285.559	-166.041	0.193	0.008
-284.545	358.824	-0.011	-0.022
-283.530	277.110	0.101	-0.179
-282.516	-200.000	0.022	0.106
-281.501	-104.235	0.138	0.032
-280.486	-12.184	0.147	-0.095
-279.472	41.058	0.277	-0.247
-278.457	-52.980	-0.151	-0.069
-277.443	27.595	0.054	-0.045
-276.428	-88.028	-0.251	0.075
-275.413	-40.010	0.205	0.106
-274.399	-83.203	-0.071	-0.022
-273.384	-79.215	-0.215	-0.072
-272.370	800.000	-0.094	0.373
-271.355	-68.370	0.130	-0.050
-270.340	-200.000	0.009	-0.235
-269.326	366.334	0.046	0.092
-268.311	437.935	-0.067	-0.144
-267.297	-142.821	-0.300	-0.029
-266.282	-200.000	-0.006	0.060
-265.267	31.256	-0.197	0.167
-264.253	73.638	0.058	0.060
-263.238	800.000	0.059	0.247
-262.224	-144.688	-0.319	0.029
-261.209	-174.078	0.127	0.004
-260.195	800.000	-0.055	-0.235
-259.180	250.167	-0.088	-0.147
-258.165	9.215	0.043	0.032
-257.151	-29.439	0.264	0.149
-256.136	211.670	-0.214	-0.333
-255.122	-163.606	-0.042	-0.002
-254.107	305.139	-0.174	-0.320
-253.092	83.216	0.113	0.122
-252.078	-148.001	0.093	-0.008
-251.063	-46.598	-0.160	0.078
-250.049	-87.032	-0.187	0.056
-249.034	-200.000	-0.001	0.225
-248.019	-57.017	0.253	0.110
-247.005	-141.673	-0.326	-0.032
-245.990	-73.195	0.180	0.065
-244.976	-200.000	-0.025	-0.144
-243.961	461.370	0.075	-0.166
-242.946	800.000	0.078	-0.301
-241.932	-200.000	-0.009	0.271
-240.917	-135.124	0.113	-0.013
-239.903	3.430	-0.150	0.108
-238.888	-3.108	0.194	0.134
-237.873	-200.000	-0.027	-0.135
-236.859	-200.000	-0.017	0.253
-235.844	-187.986	-0.123	-0.002
-234.830	-30.223	-0.326	0.183
-233.815	-39.268	-0.470	0.243
-232.800	-200.000	0.021	0.138
-231.786	7.776	0.340	0.251
-230.771	18.542	0.227	-0.179
-229.757	-200.000	0.031	-0.268
-228.742	-75.899	0.133	0.046
-227.727	0.787	0.041	-0.029
-226.713	193.862	-0.089	0.133
-225.698	-38.215	-0.170	-0.089
-224.684	120.981	-0.022	0.027
-223.669	-6.416	0.251	-0.169
-222.655	210.905	-0.175	-0.271
-221.640	-200.000	-0.018	0.112
-220.625	-13.487	-0.245	0.157
-219.611	-18.877	0.058	0.036
-218.596	-200.000	-0.044	0.321
-217.582	-130.876	0.346	0.046
-216.567	255.792	-0.084	-0.141
-215.552	-83.884	0.205	0.064
-214.538	-86.827	0.145	-0.044
-213.523	327.535	-0.078	-0.148
-212.509	-87.621	0.198	0.059
-211.494	25.314	-0.172	-0.141
-210.479	-200.000	0.001	0.097
-209.465	800.000	-0.011	-0.029
-208.450	-200.000	-0.058	0.378
-207.436	800.000	0.102	0.296
-206.421	-130.563	-0.062	0.008
-205.406	-20.195	0.233	-0.142
-204.392	46.036	0.217	0.198
-203.377	-18.117	0.146	0.090
-202.363	-96.116	0.128	0.034
-201.348	-200.000	0.008	-0.081
-200.333	280.415	-0.063	0.111
-199.319	407.721	-0.083	-0.172
-198.304	-78.679	0.431	0.145
-197.290	-58.800	-0.243	0.104
-196.275	529.567	-0.075	0.175
-195.260	170.286	-0.048	0.068
-194.246	-30.661	0.304	0.170
-193.231	338.256	0.114	0.219
-192.217	-118.500	-0.221	0.039
-191.202	163.473	-0.160	0.222
-190.187	-98.299	0.108	0.027
-189.173	345.277	0.015	-0.028
-188.158	-200.000	-0.080	-0.552
-187.144	-200.000	-0.038	0.350
-186.129	-100.122	-0.137	0.034
-185.114	229.916	-0.091	0.146
-184.100	35.067	0.205	-0.177
-183.085	-52.042	0.133	0.061
-182.071	324.022	0.156	-0.293
-181.056	800.000	0.040	0.119
-180.042	-200.000	0.047	0.224
-179.027	-29.967	-0.516	-0.290
-178.012	81.951	-0.100	0.107
-176.998	-153.651	0.174	-0.012
-175.983	19.459	0.052	0.041
-174.969	128.032	0.219	-0.274
-173.954	155.036	-0.167	-0.226
-172.939	16.321	0.151	0.117
-171.925	-101.628	-0.079	0.019
-170.910	35.264	-0.278	0.240
-169.896	77.797	0.136	-0.142
-168.881	191.433	-0.119	-0.177
-167.866	137.261	-0.187	-0.241
-166.852	-200.000	-0.009	0.056
-165.837	148.824	0.098	-0.130
-164.823	-1.712	-0.067	-0.046
-163.808	-46.394	-0.086	-0.042
-162.793	800.000	0.085	0.347
-161.779	800.000	0.027	0.108
-160.764	-160.496	0.218	0.011
-159.750	-1.231	0.099	-0.069
-158.735	122.682	-0.115	-0.142
-157.720	800.000	-0.070	-0.223
-156.706	20.115	-0.265	-0.211
-155.691	-200.000	0.018	0.285
-154.677	83.389	0.023	-0.024
-153.662	-126.881	-0.063	0.009
-152.647	-95.104	0.577	0.153
-151.633	-126.165	0.436	-0.064
-150.618	147.055	0.131	0.173
-149.604	30.185	0.318	0.267
-148.589	119.141	0.204	0.248
-147.574	-159.618	0.164	-0.009
-146.560	170.828	0.173	0.244
-145.545	-200.000	0.012	-0.098
-144.531	-174.517	0.293	-0.008
-143.516	800.000	-0.057	-0.239
-142.502	-150.276	-0.290	0.022
-141.487	-68.366	0.201	-0.077
-140.472	1.108	-0.127	-0.090
-139.458	121.414	-0.037	-0.046
-138.443	-31.608	0.382	-0.211
-137.429	800.000	-0.030	-0.093
-136.414	-166.800	0.254	0.010
-135.399	131.376	-0.078	-0.098
-134.385	800.000	-0.124	0.356
-133.370	3.537	-0.155	-0.111
-132.356	84.008	-0.066	-0.071
-131.341	103.645	0.181	0.209
-130.326	-67.463	0.266	0.103
-129.312	-200.000	0.010	0.082
-128.297	-129.077	-0.259	0.036
-127.283	33.053	0.116	-0.099
-126.268	-47.182	-0.222	-0.106
-125.253	-45.152	-0.398	-0.194
-124.239	326.784	-0.096	0.181
-123.224	-200.000	-0.016	-0.150
-122.210	93.386	-0.157	-0.174
-121.195	-200.000	-0.023	-0.192
-120.180	-200.000	-0.027	0.270
-119.166	556.694	-0.058	0.138
-118.151	314.600	-0.233	-0.431
-117.137	-103.496	0.109	-0.025
-116.122	346.540	-0.040	0.077
-115.107	800.000	-0.048	-0.198
-114.093	-200.000	0.083	-0.393
-113.078	563.626	0.098	-0.234
-112.064	800.000	-0.019	0.062
-111.049	124.488	0.021	0.026
-110.034	366.095	0.098	-0.195
-109.020	306.744	0.057	0.105
-108.005	-53.245	-0.323	-0.146
-106.991	800.000	-0.101	-0.354
-105.976	284.924	-0.007	0.012
-104.962	74.294	-0.146	0.150
-103.947	543.021	-0.066	0.154
-102.932	648.450	0.063	0.157
-101.918	-31.055	0.226	-0.125
-100.903	148.292	0.101	-0.134
-99.889	17.944	0.255	0.199
-98.874	-137.463	0.120	-0.013
-97.859	15.695	0.026	0.020
-96.845	95.791	0.246	-0.276
-95.830	-15.370	-0.261	-0.164
-94.816	82.669	0.156	-0.166
-93.801	80.887	-0.109	-0.116
-92.786	-200.000	-0.057	-0.339
-91.772	-200.000	-0.002	0.142
-90.757	463.183	-0.091	0.199
-89.743	-200.000	-0.013	0.166
-88.728	145.855	0.099	-0.130
-87.713	-200.000	-0.023	0.104
-86.699	-105.907	0.257	0.057
-85.684	-30.259	-0.193	-0.108
-84.670	94.176	-0.158	-0.176
-83.655	-41.141	-0.049	-0.025
-82.640	-82.482	-0.188	-0.060
-81.626	46.357	0.149	0.135
-80.611	-158.627	-0.242	-0.014
-79.597	-86.601	0.225	-0.068
-78.582	800.000	0.038	0.113
-77.567	106.468	-0.063	0.074
-76.553	-99.429	0.356	-0.088
-75.538	-5.196	-0.199	0.134
-74.524	-21.908	-0.392	-0.234
-73.509	-52.486	0.311	-0.141
-72.494	30.611	0.033	-0.028
-71.480	-200.000	-0.025	0.218
-70.465	800.000	0.041	0.133
-69.451	275.179	0.094	0.164
-68.436	18.672	0.325	-0.255
-67.422	2.254	0.245	0.174
-66.407	-15.893	-0.210	0.131
-65.392	-39.290	0.122	-0.063
-64.378	340.728	-0.104	-0.199
-63.363	727.427	-0.041	0.107
-62.349	18.333	0.157	-0.123
-61.334	110.501	-0.931	-1.098
-60.319	-2.747	0.608	0.417
-59.305	800.000	-0.405	-1.131
-58.290	217.536	0.611	0.956
-57.276	767.749	0.556	1.483
-56.261	-200.000	105.731	608.000
-55.246	498.540	1506.185	3402.453
-54.232	174.840	2709.038	3845.271
-53.217	104.293	2302.395	2656.817
-52.203	38.715	1905.510	1667.697
-51.188	32.740	1691.302	1434.865
-50.173	30.089	1648.427	1378.747
-49.159	48.855	1701.897	1565.837
-48.144	49.381	1717.084	1583.727
-47.130	32.299	1674.314	1416.908
-46.115	29.774	1659.484	1385.412
-45.100	29.488	1654.779	1379.293
-44.086	29.546	1651.869	1377.241
-43.071	29.514	1649.297	1374.804
-42.057	29.432	1647.156	1372.358
-41.042	29.522	1645.231	1371.369
-40.027	29.438	1643.618	1369.349
-39.013	29.522	1641.080	1367.800
-37.998	29.431	1640.076	1366.232
-36.984	29.470	1638.724	1365.339
-35.969	29.569	1636.956	1364.548
-34.954	29.561	1635.205	1362.975
-33.940	29.614	1633.405	1361.812
-32.925	29.625	1631.460	1360.213
-31.911	29.568	1629.777	1358.340
-30.896	29.492	1628.393	1356.570
-29.881	29.557	1626.756	1355.634
-28.867	29.518	1624.994	1353.822
-27.852	29.494	1623.526	1352.375
-26.838	29.553	1621.970	1351.454
-25.823	29.619	1620.758	1350.872
-24.809	29.657	1619.500	1350.051
-23.794	29.616	1618.359	1348.745
-22.779	29.627	1617.029	1347.659
-21.765	29.540	1615.091	1345.361
-20.750	29.582	1613.449	1344.242
-19.736	29.601	1612.460	1343.507
-18.721	29.627	1610.407	1341.928
-17.706	29.521	1609.454	1340.314
-16.692	29.545	1608.098	1339.307
-15.677	29.597	1606.787	1338.535
-14.663	29.653	1605.024	1337.419
-13.648	29.537	1603.993	1335.668
-12.633	29.599	1602.289	1334.647
-11.619	29.516	1600.902	1332.836
-10.604	29.599	1599.069	1331.858
-9.590	29.514	1598.297	1330.550
-8.575	29.693	1596.719	1330.474
-7.560	29.582	1595.740	1328.803
-6.546	29.584	1594.451	1327.694
-5.531	29.575	1593.658	1326.915
-4.517	29.645	1591.814	1325.831
-3.502	29.603	1591.427	1325.151
-2.487	29.667	1589.621	1324.055
-1.473	29.419	1578.189	1312.716
-0.458	26.743	1559.254	1278.075
0.556	21.103	1561.555	1249.357
1.571	19.068	1586.180	1254.128
2.586	18.754	1599.956	1262.599
3.600	17.041	1546.751	1208.325
4.615	9.023	1436.917	1069.187
5.629	1.383	1373.289	972.950
6.644	-0.117	1365.216	957.593
7.659	-0.238	1363.728	955.693
8.673	-0.193	1362.772	955.222
9.688	-0.222	1360.768	953.546
10.702	-0.385	1358.115	950.574
11.717	3.309	1364.455	978.426
12.731	12.547	1383.149	1051.004
13.746	19.986	1394.812	1107.529
14.761	22.003	1397.594	1122.548
15.775	22.322	1397.768	1124.630
16.790	22.466	1396.516	1124.438
17.804	22.455	1396.557	1124.302
18.819	22.520	1397.103	1125.063
19.834	22.802	1395.187	1125.217
20.848	22.793	1394.388	1124.413
21.863	22.782	1393.960	1123.898
22.877	22.791	1393.156	1123.208
23.892	22.777	1392.377	1122.390
24.907	22.843	1391.182	1121.749
25.921	22.890	1390.089	1121.068
26.936	22.782	1389.645	1119.923
27.950	22.830	1388.420	1119.141
28.965	22.771	1387.343	1117.803
29.980	22.821	1386.007	1116.942
30.994	22.848	1384.944	1116.158
32.009	22.765	1383.827	1114.631
33.023	22.872	1382.489	1114.132
34.038	22.711	1381.503	1112.226
35.053	22.791	1380.562	1111.871
36.067	22.916	1379.736	1111.898
37.082	22.790	1378.724	1110.191
38.096	22.866	1377.650	1109.702
39.111	22.765	1377.583	1108.914
40.126	22.767	1376.664	1108.090
41.140	22.786	1375.970	1107.554
42.155	22.830	1375.361	1107.243
43.169	22.856	1375.686	1107.570
44.184	22.807	1375.118	1106.709
45.199	22.843	1374.770	1106.551
46.213	22.760	1374.216	1105.490
47.228	22.800	1373.295	1104.900
48.242	22.800	1371.619	1103.455
49.257	22.854	1370.727	1102.978
50.271	22.854	1368.997	1101.489
51.286	22.709	1368.189	1099.835
52.301	22.847	1366.399	1099.161
53.315	22.721	1365.748	1097.755
54.330	22.842	1365.015	1097.822
55.344	22.741	1363.962	1096.252
56.359	22.850	1362.781	1095.877
57.374	22.829	1361.731	1094.808
58.388	22.798	1361.556	1094.378
59.403	22.936	1360.781	1094.514
60.417	22.813	1360.029	1093.047
61.432	22.822	1359.347	1092.461
62.447	22.807	1358.467	1091.565
63.461	22.855	1357.433	1090.930
64.476	22.810	1356.707	1089.976
65.490	22.795	1355.485	1088.808
66.505	22.856	1353.689	1087.639
67.520	22.845	1352.287	1086.354
68.534	22.748	1351.813	1085.278
69.549	22.804	1350.766	1084.682
70.563	22.862	1349.864	1084.223
71.578	22.900	1348.525	1083.282
72.593	22.763	1348.243	1082.120
73.607	22.822	1347.298	1081.626
74.622	22.871	1346.260	1080.996
75.636	22.822	1345.614	1080.083
76.651	22.882	1344.959	1079.830
77.666	22.892	1344.455	1079.391
78.680	22.842	1344.344	1078.902
79.695	22.836	1343.313	1077.942
80.709	22.798	1342.689	1077.110
81.724	22.797	1341.829	1076.319
82.739	22.887	1340.467	1075.685
83.753	22.875	1339.740	1074.931
84.768	22.790	1338.418	1073.260
85.782	22.830	1337.588	1072.741
86.797	22.861	1336.107	1071.643
87.812	22.879	1335.040	1070.806
88.826	22.913	1333.931	1070.024
89.841	22.987	1332.743	1069.428
90.855	22.845	1332.331	1068.144
91.870	22.880	1331.158	1067.322
92.884	22.866	1330.386	1066.520
93.899	22.898	1329.760	1066.120
94.914	22.961	1328.676	1065.536
95.928	22.963	1328.061	1064.959
96.943	22.968	1327.327	1064.305
97.957	22.985	1326.649	1063.769
98.972	22.963	1325.871	1062.920
99.987	22.960	1324.869	1062.005
101.001	22.875	1323.891	1060.618
102.016	22.922	1322.671	1059.827
103.030	22.943	1322.204	1059.486
104.045	22.898	1321.084	1058.222
105.060	22.971	1320.305	1057.943
106.074	22.968	1318.906	1056.712
107.089	22.886	1318.392	1055.718
108.103	22.900	1317.323	1054.849
109.118	22.950	1316.080	1054.059
110.133	22.954	1314.751	1052.927
111.147	22.998	1313.595	1052.170
112.162	23.057	1312.449	1051.507
113.176	22.993	1311.469	1050.248
114.191	22.997	1310.643	1049.520
115.206	23.134	1309.618	1049.417
116.220	22.947	1308.752	1047.526
117.235	23.000	1307.432	1046.686
118.249	22.861	1306.431	1044.970
119.264	22.823	1306.307	1044.558
120.279	22.961	1304.775	1044.054
121.293	23.027	1304.159	1043.855
122.308	22.929	1303.214	1042.428
123.322	22.980	1302.468	1042.041
124.337	23.038	1301.147	1041.235
125.352	23.086	1300.768	1041.122
126.366	23.141	1299.625	1040.442
127.381	23.039	1298.472	1038.822
128.395	23.091	1297.328	1038.122
129.410	23.134	1296.500	1037.622
130.424	23.023	1296.399	1036.795
131.439	23.123	1294.998	1036.170
132.454	22.984	1294.822	1035.125
133.468	23.017	1293.917	1034.502
134.483	23.016	1293.548	1034.110
135.497	22.984	1292.605	1033.079
136.512	23.045	1291.518	1032.472
137.527	22.913	1290.564	1030.847
138.541	23.078	1288.863	1030.362
139.556	23.137	1287.382	1029.429
140.570	23.086	1286.903	1028.659
141.585	22.996	1286.065	1027.373
142.600	23.025	1284.573	1026.257
143.614	23.038	1284.045	1025.825
144.629	22.990	1282.969	1024.595
145.643	22.984	1282.063	1023.746
146.658	22.984	1280.582	1022.474
147.673	23.014	1279.690	1021.840
148.687	22.880	1279.172	1020.563
149.702	22.837	1278.034	1019.318
150.716	23.038	1276.671	1019.300
151.731	23.046	1275.888	1018.631
152.746	23.076	1274.583	1017.672
153.760	22.949	1273.906	1016.310
154.775	23.111	1272.163	1015.758
155.789	23.075	1271.899	1015.251
156.804	23.017	1271.046	1014.148
157.819	23.164	1269.878	1013.971
158.833	22.986	1269.305	1012.405
159.848	23.110	1268.403	1012.302
160.862	23.188	1267.671	1012.074
161.877	23.117	1267.091	1011.115
162.892	23.139	1265.807	1010.127
163.906	23.208	1265.119	1009.882
164.921	23.027	1264.831	1008.531
165.935	23.196	1263.259	1008.152
166.950	23.155	1262.831	1007.486
167.964	23.167	1262.361	1007.092
168.979	23.174	1262.034	1006.781
169.994	23.246	1260.970	1006.254
171.008	23.226	1260.331	1005.541
172.023	23.179	1260.110	1005.009
173.037	23.176	1259.114	1004.110
174.052	23.151	1258.476	1003.366
175.067	23.194	1257.648	1002.867
176.081	23.203	1256.994	1002.306
177.096	23.118	1256.109	1001.028
178.110	23.077	1255.272	1000.043
179.125	23.274	1253.633	999.760
180.140	23.161	1253.291	998.763
181.154	23.220	1252.037	998.006
182.169	23.196	1250.705	996.723
183.183	23.215	1249.761	995.984
184.198	23.223	1248.845	995.215
185.213	23.327	1247.185	994.387
186.227	23.292	1246.946	993.911
187.242	23.264	1246.030	992.936
188.256	23.283	1245.139	992.245
189.271	23.366	1244.160	991.841
190.286	23.307	1243.286	990.728
191.300	23.314	1242.844	990.324
192.315	23.234	1242.556	989.561
193.329	23.274	1242.273	989.473
194.344	23.283	1242.079	989.281
195.359	23.228	1241.760	988.630
196.373	23.312	1240.406	987.934
197.388	23.201	1239.936	986.854
198.402	23.141	1240.283	986.707
199.417	23.191	1239.865	986.566
200.432	23.248	1238.782	985.938
201.446	23.197	1237.847	984.821
202.461	23.274	1236.914	984.420
203.475	23.213	1236.506	983.668
204.490	23.186	1235.305	982.477
205.504	23.127	1234.720	981.596
206.519	23.434	1233.398	982.159
207.534	23.383	1232.298	980.918
208.548	23.326	1231.615	979.972
209.563	23.185	1231.161	978.744
210.577	23.374	1230.278	978.999
211.592	23.328	1229.618	978.133
212.607	23.341	1228.477	977.209
213.621	23.341	1227.975	976.723
214.636	23.508	1226.678	976.527
215.650	23.398	1226.235	975.478
216.665	23.463	1225.003	974.773
217.680	23.329	1224.513	973.558
218.694	23.299	1224.074	972.960
219.709	23.467	1222.679	972.687
220.723	23.465	1221.963	972.022
221.738	23.311	1221.776	970.938
222.753	23.235	1221.227	970.000
223.767	23.487	1220.237	970.508
224.782	23.392	1219.931	969.662
225.796	23.396	1219.423	969.195
226.811	23.467	1218.769	968.975
227.826	23.519	1217.918	968.497
228.840	23.470	1217.708	967.974
229.855	23.499	1216.602	967.171
230.869	23.539	1215.863	966.716
231.884	23.585	1214.930	966.138
232.899	23.498	1214.147	964.954
233.913	23.394	1214.192	964.340
234.928	23.512	1213.774	964.567
235.942	23.648	1212.719	964.381
236.957	23.552	1212.256	963.404
237.972	23.494	1211.579	962.467
238.986	23.400	1211.055	961.456
240.001	23.678	1210.040	962.072
241.015	23.632	1209.381	961.213
242.030	23.685	1208.748	960.910
243.045	23.683	1207.859	960.111
244.059	23.554	1207.059	958.691
245.074	23.613	1206.429	958.423
246.088	23.709	1205.519	958.133
247.103	23.620	1205.013	957.167
248.117	23.675	1203.918	956.510
249.132	23.650	1203.308	955.809
250.147	23.713	1202.813	955.670
251.161	23.689	1201.895	954.724
252.176	23.656	1201.386	954.060
253.190	23.688	1200.516	953.456
254.205	23.705	1200.010	953.059
255.220	23.739	1199.321	952.611
256.234	23.698	1198.940	952.006
257.249	23.684	1198.175	951.239
258.263	23.738	1197.382	950.814
259.278	23.782	1196.985	950.648
260.293	23.859	1196.458	950.559
261.307	23.818	1195.963	949.860
262.322	23.811	1195.440	949.323
263.336	23.732	1194.729	948.252
264.351	23.740	1194.264	947.844
265.366	23.709	1193.398	946.908
266.380	23.760	1192.757	946.585
267.395	23.817	1191.628	945.909
268.409	23.715	1191.345	945.061
269.424	23.677	1191.041	944.531
270.439	23.874	1190.077	944.731
271.453	23.836	1189.543	944.024
272.468	23.877	1188.529	943.352
273.482	23.762	1188.236	942.426
274.497	23.909	1187.653	942.657
275.512	24.031	1186.715	942.475
276.526	23.966	1186.417	941.813
277.541	23.876	1185.779	940.749
278.555	23.868	1185.462	940.372
279.570	23.982	1184.501	940.125
280.585	23.930	1183.539	939.008
281.599	23.949	1182.658	938.321
282.614	23.966	1181.640	937.522
283.628	23.962	1180.807	936.758
284.643	23.936	1180.159	936.024
285.657	23.876	1179.512	935.112
286.672	23.830	1178.946	934.339
287.687	23.968	1177.781	934.057
288.701	24.031	1177.386	933.993
289.716	24.092	1176.558	933.572
290.730	24.028	1175.454	932.279
291.745	24.097	1174.781	932.024
292.760	24.082	1174.483	931.627
293.774	24.125	1174.100	931.465
294.789	24.126	1173.573	930.967
295.803	24.020	1172.850	929.760
296.818	24.011	1172.168	929.090
297.833	24.046	1171.326	928.523
298.847	24.182	1170.665	928.627
299.862	24.106	1170.000	927.618
300.876	24.092	1169.580	927.132
301.891	24.200	1168.684	926.902
302.906	24.211	1168.118	926.429
303.920	24.189	1167.713	925.910
304.935	24.160	1167.044	925.147
305.949	24.063	1166.449	924.089
306.964	24.228	1165.433	924.058
307.979	24.197	1164.965	923.448
308.993	24.278	1164.082	923.083
310.008	24.232	1163.320	922.160
311.022	24.295	1162.686	921.901
312.037	24.204	1162.397	921.120
313.052	24.151	1161.343	919.931
314.066	24.193	1160.580	919.462
315.081	24.194	1160.089	918.996
316.095	24.214	1159.044	918.190
317.110	24.246	1158.574	917.899
318.125	24.267	1158.181	917.618
319.139	24.200	1157.208	916.421
320.154	24.221	1156.564	915.938
321.168	24.333	1156.046	916.022
322.183	24.304	1155.607	915.443
323.197	24.365	1154.540	914.830
324.212	24.392	1154.026	914.479
325.227	24.333	1154.133	914.181
326.241	24.505	1153.091	914.153
327.256	24.313	1152.551	912.665
328.270	24.396	1151.660	912.304
329.285	24.300	1151.072	911.265
330.300	24.302	1150.410	910.670
331.314	24.397	1149.186	910.103
332.329	24.354	1148.573	909.321
333.343	24.434	1147.963	909.165
334.358	24.548	1146.665	908.634
335.373	24.587	1146.119	908.321
336.387	24.531	1145.672	907.599
337.402	24.437	1144.902	906.434
338.416	24.508	1144.445	906.352
339.431	24.511	1143.459	905.506
340.446	24.449	1143.228	904.932
341.460	24.466	1142.873	904.652
342.475	24.560	1141.618	904.059
343.489	24.573	1140.385	903.067
344.504	24.609	1139.466	902.438
345.519	24.543	1139.034	901.686
346.533	24.600	1138.397	901.386
347.548	24.686	1137.338	900.905
348.562	24.599	1136.992	900.113
349.577	24.602	1136.068	899.314
350.592	24.662	1134.933	898.639
351.606	24.635	1134.943	898.432
352.621	24.597	1134.606	897.895
353.635	24.661	1133.657	897.385
354.650	24.679	1133.023	896.896
355.665	24.720	1132.186	896.360
356.679	24.650	1132.017	895.796
357.694	24.628	1131.721	895.371
358.708	24.696	1130.423	894.605
359.723	24.644	1129.792	893.768
360.738	24.686	1128.813	893.120
361.752	24.672	1128.909	893.049
362.767	24.757	1127.942	892.627
363.781	24.731	1127.552	892.111
364.796	24.757	1127.062	891.774
365.810	24.878	1126.389	891.764
366.825	24.864	1125.598	890.991
367.840	24.861	1125.556	890.865
368.854	24.799	1124.809	889.887
369.869	24.886	1123.894	889.516
370.883	24.809	1123.512	888.755
371.898	24.884	1122.214	888.017
372.913	24.839	1121.607	887.236
373.927	24.831	1121.550	887.074
374.942	24.949	1121.034	887.170
375.956	24.813	1120.938	886.342
376.971	25.050	1119.642	886.413
377.986	24.949	1119.664	885.854
379.000	24.916	1118.930	885.028
380.015	25.018	1118.453	885.078
381.029	24.929	1117.851	884.082
382.044	24.950	1116.885	883.347
383.059	24.969	1116.349	882.936
384.073	24.971	1115.331	882.065
385.088	25.007	1114.439	881.455
386.102	25.013	1113.591	880.738
387.117	25.121	1112.761	880.534
388.132	25.065	1111.854	879.465
389.146	25.064	1111.255	878.908
390.161	25.049	1110.913	878.484
391.175	25.057	1110.079	877.789
392.190	25.135	1109.430	877.580
393.205	25.095	1108.834	876.834
394.219	25.086	1108.563	876.498
395.234	25.113	1107.471	875.691
396.248	25.192	1106.572	875.289
397.263	25.121	1105.587	874.081
398.278	25.149	1105.294	873.909
399.292	25.259	1104.772	873.955
400.307	25.241	1103.964	873.151
401.321	25.270	1103.201	872.613
402.336	25.237	1102.596	871.896
403.350	25.218	1101.774	871.079
404.365	25.322	1101.208	871.056
405.380	25.239	1100.551	870.056
406.394	25.195	1100.217	869.503
407.409	25.294	1099.141	869.057
408.423	25.429	1098.268	868.940
409.438	25.452	1097.430	868.310
410.453	25.328	1097.075	867.356
411.467	25.389	1096.257	866.927
412.482	25.275	1095.848	865.975
413.496	25.480	1094.845	866.098
414.511	25.311	1094.454	864.897
415.526	25.354	1093.874	864.570
416.540	25.480	1093.420	864.740
417.555	25.438	1092.949	864.088
418.569	25.577	1092.189	864.076
419.584	25.386	1092.212	863.103
420.599	25.524	1091.546	863.160
421.613	147.720	1404.350	1798.788
422.628	136.667	1449.921	1798.873
