DTS Sentinel unit serial number:	SN413079Multiplexer serial number:	ORYXHardware model number:	OX4-SRSoftware version number:	ORYX F/W v4.00 Oryx Data Collector v3.7.2.0data status	okinstallation	princeton_trtdifferential loss correction	single-endedforward channel	channel 2reverse channel	N/Adate	2019/09/11time	22:05:10forward acquisition time	60.00reverse acquisition time	0.00gamma	496.2192k internal	0.2324k external	0.2324temperature offset calibration	1.0069default loss term (dB/km)	0.3790temperature slope calibration	1.0000multiplexer offset coefficient	1.0000multiplexer slope coefficient	1.0000fibre end	0.00T internal ref (°C)	35.44T ext. ref 1 (°C)	1.74T ext. ref 2 (°C)	29.42length (m)	temperature (°C)	Stokes	anti-Stokes-747.200	-127.337	0.176	-0.026
-746.185	800.000	-0.081	0.248
-745.171	-169.854	0.298	-0.011
-744.156	0.109	-0.110	0.079
-743.142	-114.454	-0.073	0.014
-742.127	215.967	-0.142	0.228
-741.112	40.696	0.376	-0.342
-740.098	-53.658	-0.350	-0.161
-739.083	-40.604	-0.046	-0.024
-738.069	-127.057	0.100	-0.015
-737.054	-132.616	-0.049	-0.006
-736.039	-192.580	-0.297	-0.003
-735.025	-19.257	0.147	-0.092
-734.010	-105.689	-0.225	-0.051
-732.996	-157.802	-0.225	-0.013
-731.981	-156.975	0.357	-0.022
-730.966	-200.000	0.016	-0.207
-729.952	76.330	0.068	-0.072
-728.937	-103.210	-0.347	-0.083
-727.923	173.801	-0.253	0.369
-726.908	25.348	-0.263	0.221
-725.894	-42.954	0.137	-0.070
-724.879	102.186	0.101	0.119
-723.864	-11.673	-0.147	-0.098
-722.850	653.341	-0.120	0.312
-721.835	270.159	-0.168	-0.298
-720.821	-96.290	-0.251	0.067
-719.806	-200.000	-0.010	0.115
-718.791	-200.000	-0.011	-0.215
-717.777	-168.509	-0.259	0.010
-716.762	-24.086	0.155	0.093
-715.748	13.785	0.095	0.075
-714.733	-200.000	-0.015	0.206
-713.718	-200.000	0.025	0.137
-712.704	-152.931	0.333	0.024
-711.689	50.238	0.315	-0.300
-710.675	-78.222	-0.195	-0.067
-709.660	-36.936	-0.154	0.083
-708.645	93.139	-0.301	0.343
-707.631	40.169	0.255	0.231
-706.616	460.979	0.067	-0.150
-705.602	127.441	0.381	-0.487
-704.587	277.528	-0.140	0.250
-703.572	-167.374	0.261	0.011
-702.558	800.000	0.046	-0.178
-701.543	349.668	0.187	-0.373
-700.529	-43.288	-0.227	0.116
-699.514	42.828	-0.240	-0.220
-698.499	-131.702	0.256	-0.034
-697.485	-141.245	0.197	0.020
-696.470	77.531	-0.032	-0.034
-695.456	800.000	0.067	-0.226
-694.441	-98.526	-0.190	-0.049
-693.426	-200.000	0.059	-0.000
-692.412	-118.339	-0.229	-0.041
-691.397	45.051	0.165	0.153
-690.383	-200.000	-0.058	-0.350
-689.368	66.789	-0.173	-0.177
-688.354	-120.150	-0.218	0.038
-687.339	-17.270	0.391	0.248
-686.324	-139.503	-0.339	-0.036
-685.310	137.984	-0.080	0.105
-684.295	276.247	-0.252	0.451
-683.281	-200.000	-0.016	-0.101
-682.266	800.000	-0.037	0.139
-681.251	800.000	0.027	0.086
-680.237	-78.672	0.155	-0.053
-679.222	130.503	0.281	-0.362
-678.208	-121.770	-0.348	-0.058
-677.193	800.000	-0.052	0.165
-676.178	800.000	-0.031	0.126
-675.164	-132.949	-0.215	-0.028
-674.149	-200.000	0.009	0.306
-673.135	-98.775	-0.320	-0.082
-672.120	800.000	0.130	0.467
-671.105	-10.610	0.112	0.075
-670.091	-200.000	-0.026	0.229
-669.076	-114.002	-0.315	0.061
-668.062	-115.894	-0.287	0.054
-667.047	438.097	-0.112	0.245
-666.032	193.311	-0.177	-0.269
-665.018	16.976	0.170	0.135
-664.003	-200.000	-0.015	0.246
-662.989	424.418	-0.071	-0.154
-661.974	-142.839	0.215	0.021
-660.959	800.000	0.033	0.096
-659.945	-45.038	0.152	-0.076
-658.930	-73.147	-0.165	0.061
-657.916	-200.000	0.031	0.147
-656.901	-200.000	0.004	0.107
-655.886	-89.318	0.073	0.022
-654.872	-149.659	-0.230	-0.018
-653.857	-200.000	0.039	0.200
-652.843	-67.155	-0.096	-0.038
-651.828	-44.418	-0.272	-0.137
-650.814	-157.567	0.113	-0.007
-649.799	-16.352	-0.230	0.147
-648.784	-81.532	0.301	-0.099
-647.770	-139.296	-0.169	-0.018
-646.755	-64.747	-0.271	-0.110
-645.741	2.427	-0.237	-0.173
-644.726	800.000	0.053	0.223
-643.711	-200.000	0.243	0.001
-642.697	-123.117	-0.334	-0.054
-641.682	-144.876	-0.213	-0.020
-640.668	-130.584	0.340	0.046
-639.653	-69.466	-0.219	-0.084
-638.638	-14.166	-0.065	0.042
-637.624	-55.607	-0.263	0.118
-636.609	-78.521	-0.226	-0.078
-635.595	-102.742	0.183	0.044
-634.580	-73.019	0.084	0.031
-633.565	54.157	0.230	0.222
-632.551	35.088	-0.126	-0.111
-631.536	73.673	-0.232	0.244
-630.522	358.343	-0.189	0.380
-629.507	-175.515	-0.065	-0.002
-628.492	800.000	-0.035	-0.128
-627.478	100.660	0.066	0.077
-626.463	-5.033	0.186	0.128
-625.449	118.116	0.021	0.026
-624.434	-200.000	0.012	-0.459
-623.419	157.524	-0.140	0.194
-622.405	-13.961	-0.349	0.226
-621.390	-200.000	0.018	-0.105
-620.376	-17.776	0.194	-0.122
-619.361	-176.810	-0.036	0.001
-618.346	-114.165	0.205	-0.040
-617.332	45.741	-0.307	-0.285
-616.317	-11.144	0.374	0.247
-615.303	800.000	0.055	0.157
-614.288	24.039	0.041	0.034
-613.273	-200.000	0.030	0.193
-612.259	0.428	-0.098	-0.070
-611.244	6.134	-0.323	-0.240
-610.230	618.775	0.171	0.432
-609.215	7.722	0.249	-0.187
-608.201	95.592	0.157	0.180
-607.186	589.742	-0.118	0.292
-606.171	286.531	-0.066	-0.119
-605.157	273.876	-0.097	-0.172
-604.142	500.611	-0.040	-0.093
-603.128	339.428	0.083	-0.161
-602.113	-200.000	0.090	-0.424
-601.098	241.764	-0.112	-0.187
-600.084	13.262	0.327	-0.254
-599.069	-7.201	0.091	-0.062
-598.055	-200.000	-0.041	0.199
-597.040	800.000	0.069	0.225
-596.025	96.995	-0.053	0.061
-595.011	151.089	0.049	-0.067
-593.996	319.375	0.224	0.426
-592.982	-100.139	0.023	0.006
-591.967	-52.297	0.228	-0.106
-590.952	-16.055	-0.070	0.045
-589.938	-184.129	-0.438	0.007
-588.923	-31.697	-0.263	-0.148
-587.909	-135.243	-0.185	-0.022
-586.894	-62.319	0.175	-0.073
-585.879	74.704	0.184	0.194
-584.865	-89.862	-0.221	0.065
-583.850	342.124	0.110	-0.216
-582.836	-99.037	0.309	-0.079
-581.821	649.976	0.085	-0.218
-580.806	433.845	0.063	0.138
-579.792	800.000	0.047	0.160
-578.777	-176.713	0.312	-0.008
-577.763	-12.222	0.268	-0.176
-576.748	43.947	0.065	0.059
-575.733	517.474	0.055	-0.130
-574.719	40.730	0.139	-0.125
-573.704	-196.728	0.430	0.003
-572.690	-200.000	-0.013	0.332
-571.675	-125.333	-0.313	0.048
-570.661	47.128	0.086	-0.080
-569.646	800.000	-0.108	0.335
-568.631	219.046	-0.027	0.043
-567.617	-123.244	0.102	-0.016
-566.602	800.000	0.030	-0.112
-565.588	-113.781	-0.256	-0.050
-564.573	-145.282	0.082	-0.007
-563.558	116.940	-0.154	-0.189
-562.544	102.084	0.137	-0.160
-561.529	75.459	-0.183	-0.194
-560.515	-57.450	0.230	-0.101
-559.500	-139.197	0.076	0.008
-558.485	-200.000	-0.026	0.128
-557.471	-73.396	0.244	-0.089
-556.456	-200.000	-0.033	-0.269
-555.442	12.580	-0.131	0.102
-554.427	-165.360	0.196	0.009
-553.412	-200.000	0.001	0.123
-552.398	10.539	0.149	0.114
-551.383	-8.087	0.189	-0.128
-550.369	94.178	0.111	0.126
-549.354	108.563	0.012	-0.015
-548.339	97.595	-0.137	-0.158
-547.325	-59.901	-0.235	-0.101
-546.310	-76.624	0.094	-0.033
-545.296	-200.000	0.005	0.046
-544.281	-118.444	-0.454	0.081
-543.266	-139.612	0.034	-0.004
-542.252	-200.000	-0.007	0.085
-541.237	-200.000	0.006	-0.443
-540.223	-26.092	0.035	0.020
-539.208	10.257	0.231	0.176
-538.193	800.000	-0.076	-0.275
-537.179	159.210	-0.059	-0.082
-536.164	104.484	-0.067	0.079
-535.150	14.005	0.095	-0.074
-534.135	-200.000	0.001	-0.140
-533.121	-200.000	0.002	0.123
-532.106	-0.736	-0.262	0.186
-531.091	-83.405	0.433	0.139
-530.077	-31.429	0.241	0.136
-529.062	713.844	0.077	-0.204
-528.048	-53.002	0.093	-0.043
-527.033	-42.821	0.121	-0.062
-526.018	-129.081	-0.108	0.015
-525.004	-109.282	0.235	0.050
-523.989	-56.888	0.156	0.069
-522.975	-200.000	-0.009	0.068
-521.960	583.668	-0.116	0.285
-520.945	215.475	-0.156	-0.248
-519.931	800.000	0.065	-0.246
-518.916	-200.000	0.010	-0.367
-517.902	118.072	-0.179	-0.221
-516.887	800.000	0.048	-0.159
-515.872	-200.000	-0.002	0.029
-514.858	-200.000	0.007	0.275
-513.843	-200.000	0.017	-0.093
-512.829	-60.147	-0.109	0.046
-511.814	-200.000	-0.066	0.359
-510.799	123.989	0.316	-0.397
-509.785	656.754	-0.040	-0.103
-508.770	-200.000	-0.017	-0.094
-507.756	285.840	0.097	0.174
-506.741	-200.000	-0.012	-0.055
-505.726	-128.813	0.273	0.038
-504.712	-56.404	0.235	0.104
-503.697	-200.000	-0.058	-0.408
-502.683	-200.000	0.033	-0.382
-501.668	56.305	-0.158	-0.154
-500.653	-200.000	-0.016	0.348
-499.639	304.074	-0.116	0.214
-498.624	-61.189	0.046	-0.020
-497.610	-37.526	-0.129	0.069
-496.595	-200.000	0.025	0.267
-495.581	11.598	0.291	-0.223
-494.566	-200.000	0.024	-0.250
-493.551	-200.000	0.076	0.449
-492.537	775.087	0.036	-0.099
-491.522	800.000	-0.025	0.070
-490.508	-23.830	0.072	-0.043
-489.493	-98.182	0.168	0.043
-488.478	-200.000	0.038	0.450
-487.464	800.000	-0.056	-0.161
-486.449	-149.863	-0.258	0.020
-485.435	-123.634	-0.053	0.008
-484.420	84.487	-0.184	-0.201
-483.405	4.835	-0.140	-0.103
-482.391	-200.000	0.057	-0.249
-481.376	-111.329	0.409	-0.083
-480.362	282.681	-0.113	0.202
-479.347	-166.628	0.078	-0.003
-478.332	-112.386	0.146	-0.029
-477.318	-147.337	0.187	0.016
-476.303	54.896	0.303	0.292
-475.289	44.070	0.140	-0.128
-474.274	523.226	-0.052	-0.121
-473.259	-200.000	-0.007	-0.046
-472.245	-95.915	-0.203	-0.054
-471.230	-200.000	0.075	0.399
-470.216	-109.752	0.143	0.030
-469.201	-163.279	-0.161	-0.008
-468.186	491.791	-0.092	-0.211
-467.172	-27.019	0.331	0.193
-466.157	-57.580	-0.205	-0.090
-465.143	800.000	0.043	-0.149
-464.128	-37.770	0.149	0.079
-463.113	-200.000	-0.019	0.104
-462.099	-19.227	0.258	0.160
-461.084	-200.000	-0.026	-0.593
-460.070	237.151	-0.155	-0.257
-459.055	118.159	-0.103	-0.127
-458.040	-70.037	0.266	0.101
-457.026	800.000	0.088	0.288
-456.011	25.193	0.128	0.106
-454.997	323.477	0.109	0.208
-453.982	-200.000	-0.081	-0.408
-452.968	611.516	-0.019	-0.046
-451.953	-111.071	0.108	-0.022
-450.938	-200.000	0.019	0.175
-449.924	800.000	-0.043	0.164
-448.909	356.619	0.091	-0.180
-447.895	-55.463	0.048	0.021
-446.880	306.671	-0.110	0.204
-445.865	-104.477	-0.087	-0.020
-444.851	-200.000	0.011	-0.198
-443.836	800.000	0.066	0.264
-442.822	91.994	-0.238	-0.268
-441.807	90.452	-0.065	-0.073
-440.792	-200.000	0.037	-0.197
-439.778	-200.000	-0.042	0.388
-438.763	800.000	-0.056	0.221
-437.749	436.792	-0.067	0.145
-436.734	4.047	0.164	-0.120
-435.719	-200.000	0.034	-0.366
-434.705	37.455	-0.057	-0.050
-433.690	-61.523	0.217	-0.091
-432.676	-200.000	0.060	0.484
-431.661	-200.000	-0.013	0.179
-430.646	-175.409	0.093	0.003
-429.632	-41.990	-0.275	0.141
-428.617	1.008	-0.084	-0.060
-427.603	161.466	-0.321	0.448
-426.588	-200.000	-0.006	-0.098
-425.573	-200.000	0.025	-0.258
-424.559	295.588	-0.202	-0.368
-423.544	136.740	-0.110	0.143
-422.530	20.629	-0.122	-0.099
-421.515	55.141	-0.206	0.199
-420.500	148.428	-0.076	-0.102
-419.486	-42.234	-0.501	-0.255
-418.471	71.778	0.233	0.242
-417.457	-172.916	-0.088	0.003
-416.442	-172.462	-0.107	-0.003
-415.428	228.996	-0.034	0.055
-414.413	69.254	0.139	-0.143
-413.398	-200.000	0.028	0.243
-412.384	353.735	-0.060	-0.119
-411.369	-198.543	-0.124	-0.001
-410.355	-40.314	-0.133	-0.069
-409.340	27.156	-0.198	0.166
-408.325	800.000	0.027	0.085
-407.311	800.000	-0.082	-0.263
-406.296	-144.918	0.114	-0.010
-405.282	-200.000	0.061	0.403
-404.267	43.437	-0.199	-0.181
-403.252	-84.384	0.103	-0.032
-402.238	63.638	-0.348	0.348
-401.223	-60.344	0.263	-0.111
-400.209	-61.213	0.262	-0.110
-399.194	-200.000	-0.046	-0.229
-398.179	800.000	0.030	0.113
-397.165	190.452	-0.105	0.156
-396.150	800.000	0.113	0.339
-395.136	-42.893	-0.175	0.088
-394.121	435.390	0.081	0.175
-393.106	331.199	-0.057	-0.110
-392.092	-200.000	-0.050	-0.376
-391.077	-18.235	0.224	0.139
-390.063	-187.498	0.166	-0.002
-389.048	638.855	0.014	0.035
-388.033	-28.210	0.424	-0.244
-387.019	-125.322	-0.452	0.069
-386.004	334.407	0.035	0.067
-384.990	-100.578	-0.364	0.090
-383.975	-4.153	0.189	-0.130
-382.960	-43.147	0.232	-0.117
-381.946	-103.004	-0.283	-0.067
-380.931	-9.113	-0.106	0.070
-379.917	-200.000	0.002	-0.057
-378.902	77.626	-0.109	0.116
-377.888	-37.246	-0.113	0.060
-376.873	641.342	-0.053	0.135
-375.858	-100.977	-0.057	0.014
-374.844	21.631	-0.131	-0.106
-373.829	-200.000	-0.019	-0.246
-372.815	252.048	-0.085	-0.145
-371.800	127.990	0.162	0.205
-370.785	-200.000	0.069	0.418
-369.771	-111.522	0.181	-0.037
-368.756	14.449	-0.178	-0.138
-367.742	138.636	-0.103	0.135
-366.727	800.000	0.020	-0.066
-365.712	-73.418	-0.203	0.074
-364.698	-77.624	0.016	-0.006
-363.683	-80.499	0.274	-0.091
-362.669	-86.452	-0.181	-0.055
-361.654	-81.089	0.137	0.045
-360.639	189.359	0.075	-0.112
-359.625	147.765	-0.035	0.047
-358.610	167.751	0.041	-0.058
-357.596	34.573	0.032	0.028
-356.581	70.561	-0.131	0.134
-355.566	369.558	0.094	0.189
-354.552	-200.000	-0.032	0.159
-353.537	-119.823	-0.488	0.084
-352.523	17.958	-0.112	0.089
-351.508	225.470	-0.177	0.285
-350.493	-50.667	-0.267	0.125
-349.479	-4.499	0.215	0.148
-348.464	294.934	0.034	-0.063
-347.450	-19.195	-0.203	0.125
-346.435	-47.017	0.225	-0.109
-345.420	-152.426	0.063	0.004
-344.406	-181.658	-0.114	-0.002
-343.391	-74.944	0.204	-0.073
-342.377	-53.922	-0.269	0.122
-341.362	-79.987	0.278	-0.093
-340.348	5.370	0.216	-0.158
-339.333	-81.810	0.212	-0.069
-338.318	4.470	-0.229	0.167
-337.304	-21.092	-0.219	0.133
-336.289	197.304	0.178	-0.270
-335.275	-112.248	-0.110	0.022
-334.260	-75.631	0.170	0.060
-333.245	-41.805	-0.116	0.059
-332.231	262.734	0.095	-0.163
-331.216	-74.705	0.234	-0.084
-330.202	461.589	0.113	-0.250
-329.187	-117.793	-0.233	-0.042
-328.172	81.797	0.267	-0.287
-327.158	-47.691	-0.200	-0.096
-326.143	9.012	-0.317	0.238
-325.129	-200.000	-0.038	-0.224
-324.114	-31.571	-0.251	0.140
-323.099	150.665	0.086	-0.117
-322.085	-200.000	-0.006	0.335
-321.070	-154.055	0.115	0.008
-320.056	-200.000	-0.018	0.334
-319.041	576.600	0.052	0.125
-318.026	-31.356	-0.162	0.091
-317.012	185.097	-0.115	-0.169
-315.997	-124.224	-0.104	0.016
-314.983	173.921	0.058	0.084
-313.968	426.265	-0.054	-0.116
-312.953	403.689	0.211	-0.442
-311.939	-126.811	0.198	-0.029
-310.924	-90.318	0.062	-0.018
-309.910	-200.000	-0.017	-0.167
-308.895	-165.379	0.171	0.007
-307.880	173.516	-0.071	-0.102
-306.866	212.265	0.137	0.214
-305.851	186.176	-0.186	0.275
-304.837	-146.934	-0.256	0.022
-303.822	-117.383	0.182	0.033
-302.807	153.846	0.051	0.069
-301.793	-99.847	0.265	-0.066
-300.778	-40.199	-0.192	-0.099
-299.764	372.735	0.308	-0.621
-298.749	-107.295	-0.301	0.066
-297.735	-37.695	0.223	-0.118
-296.720	-64.402	-0.246	-0.099
-295.705	-81.407	-0.091	-0.030
-294.691	-17.225	0.255	-0.159
-293.676	-53.567	-0.421	-0.191
-292.662	781.530	-0.063	-0.171
-291.647	-98.571	0.179	0.045
-290.632	507.257	0.061	0.141
-289.618	42.256	-0.081	0.073
-288.603	302.406	-0.057	0.105
-287.589	-100.668	-0.345	0.084
-286.574	-8.150	-0.199	0.133
-285.559	70.432	0.244	0.250
-284.545	-47.420	0.155	0.075
-283.530	800.000	0.137	0.394
-282.516	665.341	-0.069	0.176
-281.501	3.251	-0.172	0.124
-280.486	-83.337	0.154	-0.049
-279.472	-82.794	-0.123	-0.039
-278.457	-162.824	0.021	-0.001
-277.443	240.793	0.026	0.042
-276.428	-66.213	-0.193	-0.076
-275.413	700.241	-0.039	0.103
-274.399	-109.415	0.021	-0.004
-273.384	15.533	-0.178	-0.138
-272.370	8.115	-0.104	-0.078
-271.355	768.695	-0.270	0.727
-270.340	403.142	-0.048	0.100
-269.326	214.590	0.041	0.064
-268.311	-52.574	-0.274	0.125
-267.297	-200.000	0.040	0.325
-266.282	181.805	0.117	-0.171
-265.267	-23.675	-0.120	0.071
-264.253	800.000	0.042	0.116
-263.238	187.503	-0.298	-0.441
-262.224	-200.000	-0.012	-0.198
-261.209	-161.249	0.156	0.008
-260.195	756.528	0.028	0.075
-259.180	256.359	0.084	-0.143
-258.165	-136.806	0.320	-0.036
-257.151	-200.000	0.005	-0.153
-256.136	476.938	0.117	-0.261
-255.122	-200.000	0.029	-0.280
-254.107	-130.268	0.292	0.039
-253.092	492.455	-0.058	-0.132
-252.078	-20.869	-0.202	-0.122
-251.063	-126.710	0.133	-0.020
-250.049	800.000	0.065	-0.196
-249.034	-124.216	-0.099	0.015
-248.019	45.884	-0.298	0.272
-247.005	145.310	0.184	0.244
-245.990	800.000	-0.093	0.313
-244.976	-17.839	0.158	0.098
-243.961	-186.960	0.077	0.001
-242.946	-33.964	-0.199	0.109
-241.932	8.349	-0.151	-0.112
-240.917	-80.673	-0.147	-0.048
-239.903	87.380	0.121	-0.132
-238.888	-200.000	0.033	0.175
-237.873	624.632	0.120	0.298
-236.859	-92.218	-0.280	-0.078
-235.844	318.534	0.079	0.148
-234.830	-39.497	-0.044	-0.023
-233.815	239.134	0.165	0.271
-232.800	-155.342	0.102	0.007
-231.786	81.924	-0.161	0.173
-230.771	176.984	-0.076	-0.109
-229.757	-200.000	0.053	0.432
-228.742	-145.446	0.375	0.033
-227.727	-163.990	-0.180	-0.008
-226.713	-42.015	-0.118	0.060
-225.698	784.856	0.040	-0.108
-224.684	412.289	0.195	-0.410
-223.669	269.339	0.345	-0.599
-222.655	696.439	-0.015	-0.040
-221.640	-200.000	-0.059	-0.286
-220.625	-200.000	0.018	-0.186
-219.611	-126.422	-0.426	-0.063
-218.596	55.936	0.151	-0.145
-217.582	-92.112	0.375	-0.105
-216.567	511.534	0.059	0.136
-215.552	252.190	-0.160	0.270
-214.538	796.412	0.033	0.091
-213.523	-12.865	-0.259	0.167
-212.509	240.766	-0.195	-0.322
-211.494	20.523	-0.153	-0.122
-210.479	111.882	-0.044	0.052
-209.465	-105.311	0.209	0.047
-208.450	263.100	0.061	0.104
-207.436	131.140	0.042	-0.053
-206.421	-200.000	0.015	-0.094
-205.406	237.387	-0.034	-0.055
-204.392	-57.867	0.166	-0.072
-203.377	-200.000	-0.036	-0.179
-202.363	449.271	-0.109	-0.237
-201.348	-37.427	0.028	-0.015
-200.333	-47.581	0.289	0.139
-199.319	-111.975	0.262	0.052
-198.304	-136.581	-0.343	0.039
-197.290	-10.056	0.197	-0.129
-196.275	-200.000	0.059	-0.358
-195.260	-111.588	0.366	0.073
-194.246	-8.529	0.132	0.088
-193.231	651.254	0.013	0.032
-192.217	-200.000	-0.001	-0.107
-191.202	84.939	0.161	-0.174
-190.187	-106.235	-0.587	0.130
-189.173	97.350	0.126	-0.142
-188.158	148.131	0.180	0.239
-187.144	-46.883	-0.323	0.156
-186.129	63.841	-0.081	0.080
-185.114	-118.595	0.212	0.037
-184.100	-83.064	0.326	-0.104
-183.085	-200.000	0.002	0.013
-182.071	-200.000	-0.034	0.276
-181.056	337.441	-0.060	-0.116
-180.042	39.387	0.114	-0.101
-179.027	-200.000	-0.005	-0.049
-178.012	280.967	-0.137	-0.241
-176.998	-71.251	-0.304	0.113
-175.983	-61.787	0.129	-0.053
-174.969	-34.285	-0.375	0.203
-173.954	-22.522	0.355	-0.212
-172.939	36.917	-0.147	-0.129
-171.925	-82.926	0.277	-0.088
-170.910	800.000	-0.041	0.112
-169.896	-200.000	-0.032	-0.245
-168.881	-79.592	-0.172	0.057
-167.866	-200.000	0.007	-0.181
-166.852	36.019	-0.029	0.025
-165.837	-66.844	-0.136	-0.053
-164.823	800.000	0.024	0.091
-163.808	-178.449	0.086	0.002
-162.793	-102.576	-0.244	0.057
-161.779	77.770	-0.223	0.234
-160.764	24.149	-0.203	-0.166
-159.750	99.787	0.018	0.021
-158.735	-200.000	-0.002	0.097
-157.720	-75.863	0.152	0.053
-156.706	-170.556	0.065	0.002
-155.691	251.027	0.030	0.050
-154.677	800.000	-0.044	-0.119
-153.662	-140.432	-0.099	0.010
-152.647	187.486	0.121	0.178
-151.633	800.000	0.188	0.532
-150.618	48.516	-0.120	-0.111
-149.604	-30.335	0.266	0.149
-148.589	75.874	0.096	0.100
-147.574	-54.346	0.252	-0.113
-146.560	-200.000	0.026	0.147
-145.545	-65.130	0.044	-0.017
-144.531	-54.922	-0.201	0.089
-143.516	-200.000	0.031	0.215
-142.502	-99.942	0.166	0.041
-141.487	-33.719	0.331	0.180
-140.472	-0.072	0.223	0.156
-139.458	65.381	0.119	0.118
-138.443	-56.498	0.078	-0.034
-137.429	369.210	0.118	-0.235
-136.414	31.759	0.102	0.087
-135.399	-200.000	0.011	0.082
-134.385	-200.000	0.058	0.252
-133.370	68.336	0.180	0.182
-132.356	800.000	-0.054	0.165
-131.341	32.395	0.241	-0.205
-130.326	-67.914	-0.123	0.047
-129.312	7.274	0.224	0.165
-128.297	-118.894	-0.234	0.041
-127.283	-200.000	-0.015	0.329
-126.268	502.171	0.040	-0.091
-125.253	800.000	0.056	0.165
-124.239	800.000	-0.077	-0.274
-123.224	83.721	0.185	-0.199
-122.210	-54.857	-0.254	0.113
-121.195	-1.605	-0.033	-0.023
-120.180	-200.000	-0.025	-0.119
-119.166	-146.057	0.200	0.017
-118.151	-92.926	-0.201	0.055
-117.137	-36.692	-0.087	0.046
-116.122	-43.743	-0.088	-0.043
-115.107	2.502	-0.006	0.004
-114.093	-45.663	0.246	-0.120
-113.078	-200.000	0.039	0.316
-112.064	240.138	-0.080	0.131
-111.049	-54.904	0.157	-0.070
-110.034	-200.000	0.005	0.068
-109.020	-200.000	0.002	-0.175
-108.005	-200.000	0.008	-0.081
-106.991	763.103	-0.050	-0.134
-105.976	156.512	-0.169	0.229
-104.962	800.000	-0.095	0.286
-103.947	800.000	-0.120	-0.425
-102.932	-94.225	0.261	-0.070
-101.918	-200.000	-0.015	0.199
-100.903	-92.893	0.159	0.044
-99.889	-200.000	0.010	-0.129
-98.874	209.930	-0.031	-0.047
-97.859	45.154	-0.174	0.158
-96.845	-81.786	-0.261	-0.084
-95.830	-62.868	0.158	0.065
-94.816	144.419	0.092	0.120
-93.801	211.210	0.075	0.117
-92.786	-200.000	-0.011	0.064
-91.772	-101.721	-0.209	0.050
-90.757	-200.000	-0.054	0.341
-89.743	-181.241	-0.235	-0.005
-88.728	-200.000	0.000	0.088
-87.713	72.251	0.142	0.145
-86.699	509.537	-0.102	-0.233
-85.684	200.368	-0.112	0.170
-84.670	-70.159	-0.097	-0.036
-83.655	749.454	0.030	0.079
-82.640	382.586	0.137	0.277
-81.626	-81.441	0.119	-0.038
-80.611	-170.149	0.223	0.008
-79.597	-161.414	0.158	0.008
-78.582	69.012	0.011	0.011
-77.567	-200.000	0.006	0.200
-76.553	-156.431	-0.155	0.010
-75.538	-200.000	-0.023	-0.149
-74.524	800.000	0.083	0.274
-73.509	-41.436	-0.267	0.135
-72.494	-73.253	0.168	0.061
-71.480	800.000	0.145	0.422
-70.465	-68.501	-0.272	0.104
-69.451	53.509	-0.134	-0.126
-68.436	-44.294	-0.141	-0.069
-67.422	-140.527	-0.177	-0.018
-66.407	800.000	0.071	-0.193
-65.392	-138.074	0.125	0.014
-64.378	-160.026	-0.056	0.003
-63.363	113.222	0.165	0.197
-62.349	-200.000	0.063	0.387
-61.334	25.029	-0.867	-0.706
-60.319	78.992	0.230	0.242
-59.305	800.000	-0.332	-0.993
-58.290	160.875	0.641	0.880
-57.276	374.359	0.824	1.649
-56.261	-200.000	95.277	577.250
-55.246	574.801	1369.704	3284.047
-54.232	154.347	2586.005	3486.853
-53.217	111.500	2284.071	2706.094
-52.203	45.391	1901.447	1723.556
-51.188	38.845	1689.801	1482.400
-50.173	35.906	1644.975	1421.354
-49.159	53.617	1692.704	1595.518
-48.144	57.318	1710.623	1639.994
-47.130	38.476	1666.677	1459.127
-46.115	35.509	1651.574	1423.886
-45.100	35.416	1646.764	1418.996
-44.086	35.278	1644.200	1415.714
-43.071	35.377	1641.110	1413.727
-42.057	35.241	1639.418	1411.207
-41.042	35.277	1637.320	1409.609
-40.027	35.309	1635.538	1408.258
-39.013	35.253	1633.416	1405.966
-37.998	35.318	1631.464	1404.702
-36.984	35.314	1630.486	1403.776
-35.969	35.347	1629.274	1402.922
-34.954	35.412	1627.630	1401.922
-33.940	35.473	1625.698	1400.644
-32.925	35.449	1623.771	1398.754
-31.911	35.443	1622.512	1397.570
-30.896	35.476	1620.599	1396.110
-29.881	35.352	1619.278	1394.014
-28.867	35.481	1617.085	1393.011
-27.852	35.377	1616.259	1391.488
-26.838	35.429	1614.110	1389.956
-25.823	35.471	1612.835	1389.111
-24.809	35.477	1611.524	1387.970
-23.794	35.435	1610.338	1386.591
-22.779	35.432	1608.857	1385.233
-21.765	35.451	1607.203	1383.896
-20.750	35.467	1605.192	1382.226
-19.736	35.458	1603.813	1380.913
-18.721	35.478	1602.476	1379.856
-17.706	35.438	1601.133	1378.356
-16.692	35.477	1598.980	1376.728
-15.677	35.483	1597.766	1375.667
-14.663	35.484	1596.089	1374.175
-13.648	35.487	1595.134	1373.322
-12.633	35.508	1593.328	1371.864
-11.619	35.565	1591.986	1371.063
-10.604	35.501	1590.293	1369.088
-9.590	35.467	1589.793	1368.361
-8.575	35.510	1588.320	1367.352
-7.560	35.437	1587.411	1365.993
-6.546	35.516	1585.915	1365.211
-5.531	35.454	1584.825	1363.777
-4.517	35.420	1583.924	1362.708
-3.502	35.525	1582.482	1362.162
-2.487	35.588	1581.030	1361.304
-1.473	35.191	1569.678	1348.680
-0.458	32.594	1550.154	1313.767
0.556	29.092	1550.590	1282.778
1.571	26.745	1574.587	1285.884
2.586	26.368	1589.433	1295.191
3.600	23.565	1536.822	1232.764
4.615	13.414	1423.728	1076.263
5.629	3.667	1355.207	963.776
6.644	1.940	1346.114	946.514
7.659	1.759	1344.464	944.153
8.673	1.703	1343.296	942.896
9.688	1.539	1341.840	940.779
10.702	1.418	1337.960	937.228
11.717	5.039	1345.496	964.858
12.731	15.474	1365.479	1044.323
13.746	23.811	1379.158	1106.850
14.761	25.681	1381.855	1120.569
15.775	25.944	1381.719	1121.998
16.790	25.958	1381.319	1121.658
17.804	26.087	1380.650	1121.820
18.819	26.334	1380.100	1122.806
19.834	26.300	1379.931	1122.360
20.848	26.437	1378.815	1122.206
21.863	26.454	1378.005	1121.552
22.877	26.435	1377.214	1120.691
23.892	26.426	1376.073	1119.605
24.907	26.305	1375.791	1118.531
25.921	26.414	1374.241	1117.844
26.936	26.386	1373.556	1117.016
27.950	26.423	1372.242	1116.074
28.965	26.484	1370.990	1115.333
29.980	26.407	1369.799	1113.792
30.994	26.358	1369.002	1112.746
32.009	26.347	1368.197	1111.925
33.023	26.393	1366.724	1110.913
34.038	26.414	1365.783	1110.175
35.053	26.354	1364.404	1108.588
36.067	26.445	1363.284	1108.143
37.082	26.403	1362.227	1106.924
38.096	26.296	1362.320	1106.247
39.111	26.395	1360.589	1105.349
40.126	26.371	1360.184	1104.776
41.140	26.444	1359.188	1104.314
42.155	26.415	1359.550	1104.331
43.169	26.280	1359.909	1103.706
44.184	26.500	1358.507	1103.808
45.199	26.382	1358.762	1103.198
46.213	26.445	1357.688	1102.614
47.228	26.434	1356.719	1101.662
48.242	26.415	1355.584	1100.527
49.257	26.411	1354.170	1099.261
50.271	26.396	1352.962	1098.087
51.286	26.364	1352.228	1097.199
52.301	26.373	1350.971	1096.138
53.315	26.271	1349.810	1094.484
54.330	26.451	1348.751	1094.615
55.344	26.473	1347.561	1093.688
56.359	26.465	1346.299	1092.521
57.374	26.370	1346.360	1091.897
58.388	26.351	1345.883	1091.301
59.403	26.443	1345.364	1091.338
60.417	26.449	1344.318	1090.427
61.432	26.415	1343.622	1089.561
62.447	26.398	1342.951	1088.820
63.461	26.403	1341.625	1087.680
64.476	26.370	1340.865	1086.767
65.490	26.292	1339.745	1085.293
66.505	26.378	1338.257	1084.510
67.520	26.433	1337.092	1083.801
68.534	26.353	1336.101	1082.423
69.549	26.392	1335.166	1081.798
70.563	26.441	1333.870	1080.948
71.578	26.342	1333.385	1079.869
72.593	26.335	1332.533	1079.043
73.607	26.359	1332.060	1078.704
74.622	26.451	1330.856	1078.185
75.636	26.446	1330.342	1077.643
76.651	26.354	1329.809	1076.564
77.666	26.330	1329.540	1076.108
78.680	26.415	1328.356	1075.560
79.695	26.416	1327.641	1074.893
80.709	26.489	1326.533	1074.338
81.724	26.396	1326.215	1073.431
82.739	26.412	1325.034	1072.475
83.753	26.449	1324.139	1071.875
84.768	26.419	1323.164	1070.811
85.782	26.496	1321.647	1069.944
86.797	26.390	1320.898	1068.618
87.812	26.406	1320.088	1067.962
88.826	26.504	1318.410	1067.091
89.841	26.477	1317.409	1066.028
90.855	26.459	1316.711	1065.261
91.870	26.373	1316.127	1064.185
92.884	26.583	1315.496	1064.818
93.899	26.479	1314.470	1063.280
94.914	26.627	1313.211	1063.041
95.928	26.635	1312.592	1062.487
96.943	26.458	1312.216	1061.054
97.957	26.412	1311.836	1060.382
98.972	26.475	1310.710	1059.746
99.987	26.440	1309.811	1058.723
101.001	26.486	1308.679	1057.984
102.016	26.461	1307.808	1057.038
103.030	26.441	1307.306	1056.422
104.045	26.483	1306.281	1055.745
105.060	26.395	1305.420	1054.441
106.074	26.399	1304.299	1053.471
107.089	26.568	1302.796	1053.141
108.103	26.578	1301.946	1052.421
109.118	26.464	1301.195	1051.058
110.133	26.427	1300.085	1049.854
111.147	26.547	1298.557	1049.223
112.162	26.484	1297.767	1048.125
113.176	26.527	1296.890	1047.574
114.191	26.557	1295.910	1046.863
115.206	26.468	1295.382	1045.831
116.220	26.544	1294.077	1045.123
117.235	26.481	1293.097	1043.879
118.249	26.527	1292.396	1043.483
119.264	26.438	1291.458	1042.123
120.279	26.487	1290.764	1041.754
121.293	26.568	1289.806	1041.353
122.308	26.559	1289.158	1040.685
123.322	26.704	1287.986	1040.482
124.337	26.495	1287.637	1038.908
125.352	26.618	1286.665	1038.734
126.366	26.586	1285.384	1037.427
127.381	26.571	1284.583	1036.600
128.395	26.626	1283.653	1036.071
129.410	26.600	1283.030	1035.333
130.424	26.615	1282.516	1034.911
131.439	26.739	1281.445	1034.660
132.454	26.554	1280.729	1032.936
133.468	26.660	1279.906	1032.789
134.483	26.526	1279.883	1031.911
135.497	26.517	1279.447	1031.417
136.512	26.544	1277.786	1030.139
137.527	26.554	1277.085	1029.540
138.541	26.571	1275.467	1028.243
139.556	26.660	1274.129	1027.579
140.570	26.524	1273.615	1026.299
141.585	26.452	1272.445	1024.861
142.600	26.512	1271.063	1023.995
143.614	26.505	1270.451	1023.372
144.629	26.536	1269.461	1022.658
145.643	26.479	1268.100	1021.154
146.658	26.510	1267.078	1020.415
147.673	26.589	1266.056	1019.944
148.687	26.543	1265.325	1019.005
149.702	26.440	1264.149	1017.390
150.716	26.413	1263.427	1016.569
151.731	26.435	1262.422	1015.792
152.746	26.530	1261.057	1015.136
153.760	26.552	1260.087	1014.392
154.775	26.613	1259.050	1013.804
155.789	26.578	1258.432	1013.025
156.804	26.484	1258.134	1012.166
157.819	26.441	1256.983	1010.914
158.833	26.596	1256.148	1011.018
159.848	26.522	1255.056	1009.633
160.862	26.550	1254.580	1009.319
161.877	26.647	1253.791	1009.138
162.892	26.670	1252.648	1008.252
163.906	26.698	1252.195	1007.957
164.921	26.710	1251.348	1007.253
165.935	26.748	1250.496	1006.689
166.950	26.601	1250.432	1005.733
167.964	26.718	1249.568	1005.599
168.979	26.719	1249.065	1005.106
169.994	26.801	1248.193	1004.771
171.008	26.670	1247.940	1003.751
172.023	26.727	1246.825	1003.085
173.037	26.596	1246.463	1001.977
174.052	26.741	1245.372	1001.815
175.067	26.839	1244.316	1001.419
176.081	26.793	1243.486	1000.409
177.096	26.680	1242.881	999.210
178.110	26.788	1242.394	999.324
179.125	26.751	1241.236	998.103
180.140	26.673	1240.300	996.831
181.154	26.686	1239.295	996.009
182.169	26.736	1237.715	994.922
183.183	26.724	1237.096	994.272
184.198	26.760	1236.134	993.611
185.213	26.844	1235.125	993.171
186.227	26.785	1234.099	991.933
187.242	26.722	1233.706	991.185
188.256	26.767	1232.484	990.363
189.271	26.874	1231.437	990.016
190.286	26.766	1231.223	989.165
191.300	26.727	1230.693	988.439
192.315	26.667	1230.290	987.706
193.329	26.814	1229.665	987.913
194.344	26.746	1229.541	987.357
195.359	26.843	1228.733	987.147
196.373	26.800	1228.319	986.495
197.388	26.780	1227.825	985.900
198.402	26.778	1227.818	985.797
199.417	26.773	1226.752	984.826
200.432	26.752	1226.767	984.638
201.446	26.893	1225.828	984.562
202.461	26.788	1224.918	983.174
203.475	26.787	1224.430	982.692
204.490	26.807	1222.938	981.514
205.504	26.840	1222.368	981.152
206.519	26.971	1221.634	981.185
207.534	26.811	1220.780	979.543
208.548	26.823	1220.056	978.941
209.563	26.908	1219.057	978.512
210.577	26.957	1217.963	977.810
211.592	26.911	1217.372	977.003
212.607	26.976	1216.563	976.619
213.621	26.923	1216.006	975.796
214.636	26.983	1214.938	975.179
215.650	27.072	1213.545	974.449
216.665	26.942	1212.976	973.211
217.680	26.930	1212.457	972.642
218.694	26.901	1211.635	971.742
219.709	27.053	1210.758	971.766
220.723	26.891	1210.286	970.437
221.738	26.994	1209.441	970.224
222.753	26.887	1208.962	969.181
223.767	26.909	1208.442	968.797
224.782	27.000	1207.856	968.727
225.796	27.111	1207.224	968.723
226.811	26.957	1206.844	967.511
227.826	27.005	1206.090	967.081
228.840	26.991	1205.434	966.393
229.855	26.916	1204.533	965.186
230.869	27.020	1204.146	965.346
231.884	26.997	1202.989	964.207
232.899	26.978	1202.757	963.837
233.913	27.008	1202.145	963.422
234.928	27.147	1201.530	963.579
235.942	27.061	1200.983	962.600
236.957	27.066	1199.943	961.706
237.972	27.003	1199.613	961.025
238.986	27.148	1198.652	960.936
240.001	27.076	1198.615	960.442
241.015	27.164	1197.468	959.904
242.030	27.181	1196.263	958.942
243.045	27.214	1195.943	958.773
244.059	27.198	1194.820	957.704
245.074	27.178	1194.583	957.324
246.088	27.232	1193.423	956.595
247.103	27.104	1193.034	955.524
248.117	27.236	1192.411	955.635
249.132	27.270	1191.541	955.032
250.147	27.322	1190.843	954.660
251.161	27.253	1190.308	953.787
252.176	27.135	1189.779	952.657
253.190	27.313	1188.647	952.601
254.205	27.218	1188.475	951.877
255.220	27.225	1187.740	951.243
256.234	27.322	1186.779	950.897
257.249	27.314	1186.459	950.515
258.263	27.301	1185.598	949.673
259.278	27.371	1185.152	949.594
260.293	27.397	1184.724	949.304
261.307	27.435	1183.803	948.679
262.322	27.346	1183.457	947.855
263.336	27.218	1183.031	946.766
264.351	27.327	1182.168	946.556
265.366	27.366	1181.318	945.996
266.380	27.373	1181.132	945.800
267.395	27.312	1180.573	944.952
268.409	27.257	1179.759	943.929
269.424	27.332	1179.335	943.896
270.439	27.230	1179.137	943.124
271.453	27.370	1178.039	942.888
272.468	27.201	1177.340	941.373
273.482	27.276	1176.868	941.299
274.497	27.284	1176.199	940.724
275.512	27.382	1175.665	940.719
276.526	27.362	1175.362	940.288
277.541	27.415	1174.015	939.403
278.555	27.410	1173.391	938.794
279.570	27.504	1172.797	938.720
280.585	27.514	1172.254	938.253
281.599	27.497	1171.192	937.231
282.614	27.468	1170.155	936.168
283.628	27.510	1169.402	935.700
284.643	27.509	1168.641	935.004
285.657	27.519	1167.920	934.398
286.672	27.504	1167.143	933.616
287.687	27.515	1166.389	932.986
288.701	27.664	1165.504	932.958
289.716	27.674	1164.911	932.449
290.730	27.651	1164.079	931.585
291.745	27.548	1163.688	930.663
292.760	27.539	1163.483	930.373
293.774	27.591	1162.894	930.086
294.789	27.720	1161.676	929.683
295.803	27.632	1161.372	928.912
296.818	27.520	1161.230	928.145
297.833	27.703	1159.835	927.881
298.847	27.636	1159.699	927.345
299.862	27.570	1158.746	926.170
300.876	27.650	1158.084	925.962
301.891	27.696	1157.587	925.717
302.906	27.657	1157.140	925.080
303.920	27.727	1156.530	924.864
304.935	27.677	1155.787	923.936
305.949	27.741	1155.002	923.551
306.964	27.666	1154.484	922.675
307.979	27.799	1153.733	922.667
308.993	27.784	1153.029	921.943
310.008	27.730	1152.502	921.171
311.022	27.669	1151.660	920.106
312.037	27.805	1150.881	920.090
313.052	27.787	1149.872	919.110
314.066	27.593	1149.442	917.710
315.081	27.749	1148.252	917.460
316.095	27.754	1147.603	916.886
317.110	27.772	1147.681	916.959
318.125	27.889	1146.724	916.700
319.139	27.913	1145.763	915.969
320.154	27.869	1145.427	915.400
321.168	27.882	1145.127	915.148
322.183	27.706	1144.700	913.842
323.197	27.787	1143.898	913.524
324.212	27.823	1143.733	913.492
325.227	27.847	1142.901	912.867
326.241	27.898	1142.078	912.386
327.256	27.850	1141.636	911.713
328.270	27.916	1140.499	911.054
329.285	27.858	1139.911	910.211
330.300	27.923	1139.120	909.823
331.314	27.904	1138.422	909.092
332.329	28.006	1136.981	908.369
333.343	28.074	1136.635	908.347
334.358	27.973	1136.060	907.305
335.373	27.981	1135.724	906.997
336.387	28.085	1134.732	906.639
337.402	27.871	1134.518	905.330
338.416	28.021	1133.768	905.391
339.431	27.933	1133.440	904.617
340.446	28.054	1132.347	904.262
341.460	28.085	1131.807	903.904
342.475	28.167	1130.999	903.585
343.489	28.175	1129.609	902.430
344.504	28.218	1128.690	901.833
345.519	28.143	1128.466	901.201
346.533	28.190	1127.682	900.725
347.548	28.196	1126.731	899.918
348.562	28.132	1126.498	899.337
349.577	28.126	1125.672	898.568
350.592	28.081	1124.470	897.309
351.606	28.127	1124.083	897.146
352.621	28.160	1123.566	896.816
353.635	28.159	1122.754	896.082
354.650	28.169	1121.972	895.430
355.665	28.247	1121.629	895.461
356.679	28.261	1121.213	895.116
357.694	28.221	1120.598	894.349
358.708	28.367	1119.683	894.252
359.723	28.221	1119.110	893.006
360.738	28.245	1118.144	892.268
361.752	28.330	1118.080	892.553
362.767	28.323	1117.315	891.831
363.781	28.252	1116.700	890.918
364.796	28.473	1116.013	891.363
365.810	28.310	1115.666	890.216
366.825	28.283	1115.316	889.725
367.840	28.450	1114.493	889.800
368.854	28.551	1113.866	889.710
369.869	28.399	1113.339	888.476
370.883	28.410	1112.649	887.899
371.898	28.424	1112.019	887.388
372.913	28.472	1111.232	886.910
373.927	28.581	1110.561	886.827
374.942	28.539	1110.305	886.337
375.956	28.473	1109.891	885.609
376.971	28.443	1109.722	885.252
377.986	28.448	1109.062	884.671
379.000	28.518	1108.803	884.724
380.015	28.594	1107.792	884.205
381.029	28.569	1106.967	883.350
382.044	28.475	1106.601	882.525
383.059	28.563	1105.715	882.166
384.073	28.677	1104.884	881.973
385.088	28.671	1104.188	881.308
386.102	28.666	1103.332	880.524
387.117	28.618	1102.779	879.776
388.132	28.558	1101.857	878.676
389.146	28.619	1101.352	878.485
390.161	28.647	1100.606	877.946
391.175	28.571	1099.702	876.786
392.190	28.589	1099.385	876.539
393.205	28.710	1098.433	876.284
394.219	28.763	1097.571	875.769
395.234	28.765	1096.889	875.156
396.248	28.720	1096.048	874.193
397.263	28.807	1095.222	873.871
398.278	28.818	1095.143	873.785
399.292	28.858	1094.259	873.191
400.307	28.846	1093.509	872.457
401.321	28.833	1093.205	872.078
402.336	28.790	1092.933	871.579
403.350	28.738	1092.015	870.522
404.365	28.776	1091.462	870.183
405.380	28.844	1090.161	869.393
406.394	28.940	1089.537	869.272
407.409	28.970	1089.027	868.931
408.423	29.019	1088.098	868.344
409.438	28.957	1087.479	867.480
410.453	28.806	1087.051	866.350
411.467	28.865	1086.695	866.268
412.482	28.919	1085.894	865.806
413.496	28.864	1084.899	864.680
414.511	28.912	1084.430	864.452
415.526	28.973	1084.139	864.433
416.540	28.926	1083.830	863.890
417.555	28.927	1083.435	863.503
418.569	28.961	1082.954	863.202
419.584	29.106	1082.046	863.079
420.599	29.171	1081.608	862.959
421.613	101.109	1315.535	1438.806
422.628	94.068	1349.628	1438.913
