DTS Sentinel unit serial number:	SN413079Multiplexer serial number:	ORYXHardware model number:	OX4-SRSoftware version number:	ORYX F/W v4.00 Oryx Data Collector v3.7.2.0data status	okinstallation	princeton_trtdifferential loss correction	single-endedforward channel	channel 2reverse channel	N/Adate	2019/09/11time	08:49:11forward acquisition time	60.00reverse acquisition time	0.00gamma	496.2192k internal	0.2319k external	0.2319temperature offset calibration	0.9965default loss term (dB/km)	0.3790temperature slope calibration	1.0000multiplexer offset coefficient	1.0000multiplexer slope coefficient	1.0000fibre end	0.00T internal ref (°C)	33.78T ext. ref 1 (°C)	0.12T ext. ref 2 (°C)	31.11length (m)	temperature (°C)	Stokes	anti-Stokes-747.200	-200.000	-0.035	0.190
-746.185	-200.000	-0.001	-0.106
-745.171	-67.750	0.194	0.077
-744.156	-139.009	0.211	-0.023
-743.142	-200.000	0.018	-0.227
-742.127	-117.947	-0.235	0.043
-741.112	-106.367	-0.215	0.049
-740.098	73.512	0.115	0.122
-739.083	14.370	0.119	-0.094
-738.069	-26.339	-0.239	0.142
-737.054	-45.474	0.247	0.124
-736.039	-162.733	-0.312	-0.015
-735.025	-176.736	0.590	0.015
-734.010	107.600	-0.083	-0.100
-732.996	195.217	-0.013	-0.021
-731.981	-130.564	0.254	0.035
-730.966	12.412	-0.097	-0.076
-729.952	311.958	-0.164	-0.311
-728.937	40.524	0.222	0.202
-727.923	-177.681	-0.282	0.007
-726.908	193.000	-0.198	0.302
-725.894	7.523	0.137	-0.104
-724.879	-200.000	0.021	-0.242
-723.864	6.938	-0.320	-0.241
-722.850	-121.562	0.073	0.012
-721.835	-91.898	-0.267	-0.077
-720.821	319.804	0.078	-0.150
-719.806	162.915	-0.073	0.103
-718.791	-79.336	-0.333	-0.114
-717.777	154.980	0.216	-0.301
-716.762	-91.427	-0.109	-0.032
-715.748	103.187	0.104	-0.123
-714.733	401.023	-0.080	-0.169
-713.718	-148.348	-0.274	-0.023
-712.704	58.227	-0.323	-0.320
-711.689	166.258	-0.129	0.185
-710.675	13.964	-0.257	-0.202
-709.660	-92.671	-0.129	0.036
-708.645	146.477	-0.033	0.045
-707.631	211.951	0.135	0.214
-706.616	-200.000	0.049	0.460
-705.602	-200.000	0.002	0.102
-704.587	-167.669	-0.205	-0.008
-703.572	-200.000	0.005	-0.128
-702.558	-200.000	-0.013	-0.140
-701.543	-113.921	0.136	-0.027
-700.529	228.520	0.154	-0.254
-699.514	-200.000	0.017	0.174
-698.499	5.627	-0.194	0.145
-697.485	-200.000	0.043	-0.278
-696.470	-32.047	0.294	0.166
-695.456	800.000	0.072	0.215
-694.441	-175.093	0.040	0.001
-693.426	66.723	-0.129	-0.133
-692.412	-179.977	0.224	0.005
-691.397	-112.062	0.158	-0.032
-690.383	208.623	0.067	-0.105
-689.368	-31.100	-0.063	-0.036
-688.354	-200.000	-0.041	-0.220
-687.339	800.000	-0.167	-0.631
-686.324	-200.000	0.022	0.262
-685.310	-200.000	-0.039	0.259
-684.295	-166.140	-0.244	0.010
-683.281	-0.526	-0.063	0.045
-682.266	-77.923	0.039	0.014
-681.251	474.237	0.093	0.212
-680.237	681.152	-0.108	0.283
-679.222	-65.116	0.125	0.051
-678.208	117.239	-0.127	-0.158
-677.193	-46.830	-0.083	0.041
-676.178	144.254	0.171	-0.230
-675.164	92.119	-0.104	-0.119
-674.149	570.771	0.054	-0.132
-673.135	-72.082	0.193	-0.072
-672.120	-38.094	-0.113	0.060
-671.105	432.759	0.063	-0.138
-670.091	-79.938	0.147	-0.050
-669.076	-42.977	0.250	-0.128
-668.062	162.039	0.126	-0.178
-667.047	-36.316	0.088	-0.048
-666.032	472.410	-0.128	0.290
-665.018	-88.100	-0.518	0.157
-664.003	-134.364	0.368	0.046
-662.989	-200.000	-0.007	0.046
-661.974	64.677	-0.219	0.222
-660.959	-70.269	-0.126	-0.048
-659.945	502.237	-0.069	-0.160
-658.930	800.000	-0.046	-0.172
-657.916	50.530	-0.108	0.103
-656.901	268.685	0.021	0.037
-655.886	-154.757	0.176	0.012
-654.872	-39.105	-0.071	0.038
-653.857	-34.135	-0.212	-0.118
-652.843	-91.304	-0.299	0.086
-651.828	40.693	0.222	-0.202
-650.814	536.590	-0.024	0.058
-649.799	-37.727	-0.159	-0.085
-648.784	-200.000	-0.004	-0.303
-647.770	93.154	-0.424	-0.483
-646.755	302.710	0.128	0.238
-645.741	800.000	0.073	0.277
-644.726	-7.260	-0.240	0.164
-643.711	31.697	-0.271	0.235
-642.697	-200.000	0.006	-0.128
-641.682	-71.263	-0.206	0.078
-640.668	-113.322	0.256	0.051
-639.653	587.712	-0.162	-0.403
-638.638	800.000	0.097	-0.342
-637.624	-117.694	0.321	0.058
-636.609	81.866	-0.165	0.180
-635.595	664.808	0.020	0.053
-634.580	-200.000	-0.028	0.318
-633.565	-67.259	-0.262	0.104
-632.551	24.333	-0.096	0.080
-631.536	122.782	-0.104	0.132
-630.522	6.645	0.231	0.173
-629.507	-145.301	-0.255	-0.023
-628.492	-135.084	0.259	0.031
-627.478	194.403	-0.043	0.065
-626.463	165.230	-0.161	-0.229
-625.449	-144.565	0.206	0.019
-624.434	800.000	-0.099	-0.300
-623.419	-150.919	0.161	0.012
-622.405	800.000	-0.052	-0.210
-621.390	679.475	0.071	0.186
-620.376	-57.831	0.270	0.119
-619.361	268.496	0.146	-0.259
-618.346	800.000	-0.045	-0.191
-617.332	185.934	-0.123	0.184
-616.317	26.149	0.204	0.171
-615.303	-200.000	-0.031	-0.219
-614.288	473.987	0.159	-0.361
-613.273	-50.303	-0.203	0.096
-612.259	19.045	-0.077	0.063
-611.244	452.216	-0.163	-0.364
-610.230	-60.940	0.147	-0.063
-609.215	40.906	0.217	0.197
-608.201	-12.550	0.337	-0.221
-607.186	394.189	-0.110	0.230
-606.171	-115.560	0.062	0.012
-605.157	610.194	0.046	0.116
-604.142	-157.436	-0.194	-0.012
-603.128	49.617	-0.058	0.055
-602.113	-200.000	-0.061	0.309
-601.098	800.000	0.046	-0.147
-600.084	25.631	0.090	-0.075
-599.069	68.760	0.203	-0.209
-598.055	-85.580	-0.143	0.045
-597.040	385.892	-0.090	0.187
-596.025	-172.712	-0.323	0.010
-595.011	-55.285	0.206	-0.093
-593.996	82.768	0.166	0.181
-592.982	175.149	-0.204	-0.297
-591.967	131.938	0.067	-0.087
-590.952	273.935	-0.048	-0.086
-589.938	80.034	0.398	0.430
-588.923	96.113	-0.228	0.262
-587.909	800.000	0.050	0.186
-586.894	-7.418	0.285	0.194
-585.879	-124.074	-0.264	0.042
-584.865	-97.879	0.127	0.033
-583.850	-200.000	0.030	-0.341
-582.836	800.000	0.039	0.130
-581.821	-90.094	-0.285	0.084
-580.806	-200.000	0.002	0.108
-579.792	46.254	0.052	0.048
-578.777	81.234	0.118	-0.129
-577.763	36.939	-0.156	-0.139
-576.748	468.195	-0.069	0.156
-575.733	-200.000	-0.031	0.257
-574.719	194.005	0.064	-0.098
-573.704	-124.391	-0.315	0.049
-572.690	-136.039	-0.141	0.017
-571.675	221.029	0.186	0.300
-570.661	123.855	0.110	-0.139
-569.646	8.615	-0.157	-0.119
-568.631	-138.486	-0.069	0.008
-567.617	-73.244	-0.081	0.030
-566.602	-130.371	0.129	0.018
-565.588	-130.164	0.058	0.008
-564.573	-191.708	0.276	-0.003
-563.558	-90.873	0.197	-0.057
-562.544	-101.320	-0.055	-0.014
-561.529	16.776	-0.124	0.099
-560.515	787.171	-0.184	-0.509
-559.500	-200.000	0.002	-0.226
-558.485	148.481	0.256	0.347
-557.471	-88.792	0.257	-0.077
-556.456	-118.297	-0.203	0.036
-555.442	-181.347	0.147	0.003
-554.427	56.300	-0.127	-0.124
-553.412	-18.164	0.274	0.172
-552.398	758.765	0.047	-0.127
-551.383	800.000	0.034	0.107
-550.369	-200.000	0.007	0.065
-549.354	-200.000	-0.003	0.029
-548.339	-16.123	0.155	0.099
-547.325	132.376	0.036	-0.046
-546.310	76.760	-0.128	0.136
-545.296	-55.938	0.289	-0.129
-544.281	205.847	-0.052	-0.081
-543.266	123.795	0.053	0.067
-542.252	-116.419	0.072	-0.013
-541.237	162.575	0.185	-0.261
-540.223	-183.424	0.251	0.004
-539.208	-7.270	-0.102	0.069
-538.193	-127.223	-0.244	-0.036
-537.179	-103.837	0.246	0.058
-536.164	3.014	-0.206	-0.150
-535.150	-200.000	-0.010	-0.122
-534.135	-200.000	-0.029	0.309
-533.121	-200.000	0.002	0.036
-532.106	25.207	0.196	0.163
-531.091	-122.806	-0.207	0.034
-530.077	-124.868	0.310	-0.048
-529.062	800.000	-0.087	0.350
-528.048	430.513	-0.070	0.152
-527.033	-103.264	-0.062	0.015
-526.018	446.972	0.102	0.226
-525.004	-8.474	0.169	0.114
-523.989	-48.851	-0.114	0.055
-522.975	-44.187	-0.252	0.127
-521.960	83.102	0.119	-0.130
-520.945	36.631	-0.044	-0.039
-519.931	-200.000	-0.002	0.165
-518.916	-64.329	-0.185	-0.075
-517.902	-100.441	0.266	0.066
-516.887	66.335	-0.089	0.091
-515.872	-122.646	-0.289	-0.047
-514.858	557.715	-0.052	-0.125
-513.843	-49.666	-0.226	-0.108
-512.829	13.963	0.206	-0.161
-511.814	30.749	-0.100	-0.086
-510.799	800.000	-0.094	0.283
-509.785	-118.557	-0.343	-0.061
-508.770	-116.373	0.398	-0.074
-507.756	62.045	-0.194	-0.194
-506.741	800.000	0.028	0.110
-505.726	118.446	0.043	0.053
-504.712	-123.954	0.257	0.041
-503.697	82.625	-0.067	0.073
-502.683	-200.000	-0.007	-0.039
-501.668	-12.590	0.121	-0.079
-500.653	114.164	-0.129	0.158
-499.639	-200.000	0.033	0.341
-498.624	-100.220	-0.198	0.049
-497.610	-9.047	-0.136	-0.091
-496.595	-115.506	-0.042	0.008
-495.581	-88.408	-0.369	-0.110
-494.566	31.326	0.037	0.032
-493.551	-158.668	-0.164	-0.009
-492.537	10.512	-0.143	0.109
-491.522	-70.878	-0.161	-0.061
-490.508	76.680	-0.109	0.116
-489.493	-71.661	-0.261	-0.097
-488.478	-131.661	-0.167	0.022
-487.464	-187.575	-0.173	0.002
-486.449	-200.000	0.006	0.150
-485.435	43.407	0.239	0.218
-484.420	504.188	0.220	-0.510
-483.405	247.309	0.101	0.171
-482.391	-200.000	-0.019	-0.230
-481.376	-176.101	-0.098	-0.003
-480.362	-109.461	-0.225	0.048
-479.347	-200.000	-0.022	-0.315
-478.332	-85.938	-0.154	-0.048
-477.318	17.903	0.229	-0.182
-476.303	-200.000	0.056	0.000
-475.289	530.870	-0.020	-0.047
-474.274	-200.000	0.049	-0.238
-473.259	800.000	0.055	0.156
-472.245	-132.846	0.321	0.041
-471.230	96.127	-0.230	0.263
-470.216	-54.920	-0.080	-0.036
-469.201	-133.225	0.206	-0.026
-468.186	-82.560	0.213	0.069
-467.172	800.000	0.099	-0.352
-466.157	27.282	0.105	0.088
-465.143	257.758	0.036	-0.062
-464.128	-200.000	0.033	-0.230
-463.113	-83.432	0.068	-0.022
-462.099	-123.909	0.225	-0.035
-461.084	567.703	0.032	0.078
-460.070	800.000	0.076	0.300
-459.055	800.000	0.048	0.180
-458.040	-65.989	-0.260	-0.104
-457.026	-125.478	0.232	0.035
-456.011	-22.217	-0.040	0.024
-454.997	-28.776	0.092	-0.053
-453.982	-9.003	0.204	-0.137
-452.968	76.668	0.091	-0.097
-451.953	-128.582	-0.266	-0.038
-450.938	398.328	0.024	-0.049
-449.924	80.707	0.235	0.254
-448.909	242.619	0.218	0.365
-447.895	279.062	0.165	0.295
-446.880	-10.616	-0.164	0.108
-445.865	121.350	-0.315	0.392
-444.851	-189.720	0.395	-0.005
-443.836	314.990	0.105	0.197
-442.822	800.000	0.064	0.208
-441.807	-85.016	-0.187	-0.058
-440.792	208.878	-0.186	-0.291
-439.778	-62.875	0.206	0.085
-438.763	-200.000	0.031	0.250
-437.749	14.643	0.225	-0.176
-436.734	246.295	0.151	0.255
-435.719	366.101	0.091	0.182
-434.705	77.054	-0.125	-0.133
-433.690	-122.349	0.082	0.013
-432.676	153.130	-0.183	0.250
-431.661	800.000	-0.063	-0.195
-430.646	5.858	0.273	-0.202
-429.632	800.000	-0.033	-0.109
-428.617	321.998	0.147	-0.280
-427.603	49.751	-0.094	-0.089
-426.588	-132.709	0.085	0.011
-425.573	800.000	0.082	0.268
-424.559	102.791	-0.092	0.108
-423.544	97.532	-0.137	-0.158
-422.530	14.807	-0.277	0.217
-421.515	-71.088	0.290	-0.109
-420.500	100.029	-0.124	-0.144
-419.486	-167.033	-0.245	-0.010
-418.471	-35.212	0.178	0.097
-417.457	-21.703	0.302	0.184
-416.442	-35.703	0.154	-0.083
-415.428	-200.000	0.029	0.208
-414.413	-75.159	0.448	-0.160
-413.398	92.183	0.174	-0.196
-412.384	323.739	-0.217	-0.413
-411.369	-200.000	0.002	0.130
-410.355	-157.390	0.598	-0.036
-409.340	-101.869	-0.455	0.110
-408.325	-80.185	-0.402	-0.135
-407.311	36.735	-0.070	-0.062
-406.296	541.982	0.068	-0.162
-405.282	-121.637	0.386	-0.064
-404.267	-8.779	-0.157	-0.105
-403.252	5.489	0.150	0.111
-402.238	106.587	0.156	0.185
-401.223	732.353	-0.041	-0.110
-400.209	-10.564	0.183	0.121
-399.194	501.081	0.043	0.099
-398.179	-200.000	0.021	0.240
-397.165	452.474	0.097	0.214
-396.150	191.952	0.117	-0.176
-395.136	-200.000	0.021	-0.107
-394.121	231.718	0.142	0.232
-393.106	-103.745	-0.250	-0.058
-392.092	-17.470	0.219	0.138
-391.077	317.619	-0.098	-0.185
-390.063	800.000	-0.115	-0.468
-389.048	-106.342	0.072	0.016
-388.033	54.197	0.176	-0.169
-387.019	106.918	-0.133	-0.158
-386.004	332.704	-0.240	0.462
-384.990	-50.949	-0.306	-0.143
-383.975	-200.000	0.031	0.204
-382.960	177.091	0.143	0.207
-381.946	250.036	-0.232	-0.393
-380.931	-120.057	-0.083	0.014
-379.917	800.000	0.065	-0.191
-378.902	-9.882	-0.288	-0.191
-377.888	363.735	0.142	0.285
-376.873	96.559	0.049	0.056
-375.858	-42.444	0.088	-0.045
-374.844	-200.000	-0.009	0.055
-373.829	-200.000	-0.003	-0.033
-372.815	-6.588	-0.080	0.054
-371.800	156.619	-0.165	-0.227
-370.785	29.718	-0.173	-0.147
-369.771	-102.706	0.240	0.057
-368.756	-61.997	-0.086	0.036
-367.742	-97.148	0.292	-0.076
-366.727	31.429	-0.311	-0.267
-365.712	-169.239	0.050	-0.002
-364.698	-200.000	0.062	0.279
-363.683	556.375	0.096	0.230
-362.669	-200.000	0.047	-0.375
-361.654	154.977	0.086	0.117
-360.639	-86.110	0.051	0.016
-359.625	800.000	-0.056	-0.166
-358.610	-72.723	0.486	-0.179
-357.596	474.933	-0.030	-0.067
-356.581	679.687	0.040	-0.104
-355.566	85.197	-0.174	-0.190
-354.552	706.978	0.036	-0.096
-353.537	45.695	0.270	-0.249
-352.523	-178.147	-0.306	0.007
-351.508	800.000	0.066	-0.201
-350.493	139.393	-0.095	0.125
-349.479	-72.371	0.198	0.073
-348.464	257.856	-0.081	-0.138
-347.450	-200.000	-0.006	-0.063
-346.435	6.065	-0.214	0.158
-345.420	183.110	0.203	0.299
-344.406	-70.659	-0.038	-0.014
-343.391	546.569	0.043	0.102
-342.377	-200.000	-0.029	-0.297
-341.362	653.650	0.124	-0.317
-340.348	-12.379	-0.192	-0.125
-339.333	-13.845	-0.032	0.021
-338.318	-143.492	-0.048	0.005
-337.304	-97.138	-0.184	0.048
-336.289	73.682	-0.206	0.215
-335.275	-64.919	-0.188	0.076
-334.260	-200.000	0.003	0.152
-333.245	49.343	0.066	0.062
-332.231	149.708	0.105	-0.141
-331.216	260.332	-0.108	-0.186
-330.202	1.044	-0.289	-0.207
-329.187	-114.644	-0.159	0.030
-328.172	800.000	-0.085	-0.237
-327.158	93.870	-0.194	-0.219
-326.143	235.942	0.028	-0.046
-325.129	-69.422	0.187	-0.072
-324.114	48.997	-0.097	-0.091
-323.099	-200.000	0.009	-0.102
-322.085	385.374	-0.151	-0.311
-321.070	-200.000	-0.007	-0.031
-320.056	23.131	-0.209	0.170
-319.041	81.841	0.221	-0.238
-318.026	-10.573	-0.173	-0.114
-317.012	785.436	0.046	0.127
-315.997	800.000	0.057	-0.172
-314.983	-30.290	-0.261	0.147
-313.968	-47.514	-0.358	0.173
-312.953	-6.499	-0.150	0.102
-311.939	-181.030	-0.412	-0.008
-310.924	800.000	-0.062	-0.231
-309.910	-26.792	0.438	-0.255
-308.895	-112.504	-0.723	-0.143
-307.880	-38.749	0.113	0.059
-306.866	-25.965	0.103	0.061
-305.851	-200.000	0.041	-0.222
-304.837	-169.183	-0.533	0.020
-303.822	246.342	0.039	0.066
-302.807	-99.042	-0.307	-0.077
-301.793	346.780	-0.148	0.291
-300.778	638.099	0.123	-0.312
-299.764	-200.000	-0.025	-0.139
-298.749	-40.418	-0.191	0.099
-297.735	-200.000	0.052	0.271
-296.720	289.665	0.038	0.068
-295.705	800.000	0.052	0.209
-294.691	-200.000	0.014	0.318
-293.676	-200.000	-0.026	0.348
-292.662	-45.210	0.263	0.130
-291.647	85.819	0.154	-0.168
-290.632	-28.766	0.221	-0.127
-289.618	800.000	-0.081	0.265
-288.603	-113.072	0.260	0.051
-287.589	35.776	0.220	-0.192
-286.574	-46.099	0.424	0.208
-285.559	-91.273	-0.155	-0.044
-284.545	64.646	0.251	-0.251
-283.530	-78.051	-0.175	0.060
-282.516	-118.395	0.346	0.061
-281.501	183.021	0.051	0.075
-280.486	0.409	-0.213	-0.151
-279.472	800.000	-0.084	0.305
-278.457	-100.130	0.204	0.050
-277.443	-9.961	0.067	-0.044
-276.428	-200.000	-0.003	-0.096
-275.413	170.415	-0.182	0.259
-274.399	587.476	-0.122	0.297
-273.384	-82.520	0.230	-0.074
-272.370	-93.844	-0.420	0.115
-271.355	-200.000	0.007	-0.129
-270.340	-200.000	-0.018	-0.251
-269.326	-9.651	-0.123	0.082
-268.311	-200.000	0.023	-0.161
-267.297	-55.541	0.247	0.110
-266.282	-72.773	0.114	0.042
-265.267	719.926	-0.153	-0.403
-264.253	595.351	-0.091	0.224
-263.238	800.000	-0.112	0.315
-262.224	-200.000	-0.025	-0.139
-261.209	-200.000	-0.040	-0.214
-260.195	-100.205	0.245	-0.060
-259.180	-160.858	-0.251	0.013
-258.165	616.444	-0.081	-0.201
-257.151	-17.914	-0.218	-0.135
-256.136	-200.000	0.047	-0.212
-255.122	50.539	-0.126	0.118
-254.107	-100.833	0.063	-0.015
-253.092	260.267	0.156	-0.268
-252.078	23.524	-0.120	-0.098
-251.063	9.889	-0.186	-0.140
-250.049	48.932	-0.251	0.233
-249.034	72.942	0.126	0.130
-248.019	480.774	0.036	-0.082
-247.005	-200.000	0.055	0.307
-245.990	485.544	0.055	0.123
-244.976	85.348	0.278	0.302
-243.961	-109.157	0.271	0.057
-242.946	-200.000	-0.053	-0.469
-241.932	-101.016	0.328	-0.080
-240.917	3.001	-0.140	-0.101
-239.903	-200.000	-0.005	0.092
-238.888	-105.880	-0.405	-0.091
-237.873	696.960	-0.067	-0.174
-236.859	200.724	0.256	-0.390
-235.844	-200.000	-0.030	0.160
-234.830	-51.529	0.055	0.025
-233.815	800.000	0.029	-0.092
-232.800	-193.410	0.144	-0.001
-231.786	4.214	0.086	0.063
-230.771	-85.742	0.207	-0.064
-229.757	81.342	-0.121	-0.129
-228.742	16.763	0.212	-0.166
-227.727	-89.928	0.268	-0.078
-226.713	-70.496	0.231	0.087
-225.698	-62.434	-0.288	0.119
-224.684	48.524	-0.129	-0.120
-223.669	-135.905	-0.221	-0.026
-222.655	138.547	0.013	0.017
-221.640	-148.090	-0.115	0.009
-220.625	-77.103	0.151	-0.052
-219.611	223.146	0.094	-0.150
-218.596	136.209	-0.045	0.059
-217.582	800.000	-0.123	0.432
-216.567	65.526	-0.134	-0.134
-215.552	90.598	0.109	-0.121
-214.538	56.553	-0.250	0.241
-213.523	-84.051	0.500	0.157
-212.509	800.000	-0.039	-0.143
-211.494	800.000	0.035	-0.134
-210.479	135.734	-0.059	0.076
-209.465	-200.000	0.051	-0.351
-208.450	-39.408	0.287	0.149
-207.436	68.122	0.122	-0.123
-206.421	88.258	-0.107	0.118
-205.406	10.652	-0.384	0.290
-204.392	800.000	-0.007	-0.025
-203.377	25.250	-0.351	-0.289
-202.363	-41.456	0.134	0.068
-201.348	39.685	-0.090	0.080
-200.333	-43.348	0.281	-0.140
-199.319	-139.606	-0.100	0.011
-198.304	59.386	0.204	-0.199
-197.290	385.704	0.109	0.223
-196.275	-173.933	0.333	0.010
-195.260	-200.000	0.010	-0.245
-194.246	2.749	-0.382	0.275
-193.231	800.000	0.037	0.108
-192.217	-183.383	0.106	-0.002
-191.202	81.996	-0.151	-0.162
-190.187	265.931	0.064	-0.110
-189.173	32.489	-0.178	0.152
-188.158	71.170	0.099	-0.102
-187.144	800.000	-0.072	0.233
-186.129	-119.348	0.253	-0.044
-185.114	79.667	0.018	-0.019
-184.100	526.162	-0.042	0.099
-183.085	-70.682	-0.179	0.067
-182.071	-200.000	-0.012	0.084
-181.056	208.864	0.117	-0.181
-180.042	-43.185	0.163	0.082
-179.027	254.870	-0.161	0.273
-178.012	43.721	0.104	-0.094
-176.998	-200.000	-0.024	-0.261
-175.983	-96.517	-0.192	0.050
-174.969	-63.575	-0.159	0.065
-173.954	-114.563	-0.128	-0.024
-172.939	16.355	0.342	0.267
-171.925	5.669	0.088	0.064
-170.910	-200.000	-0.014	0.284
-169.896	114.132	-0.120	0.145
-168.881	262.870	0.221	0.380
-167.866	-121.766	-0.235	0.038
-166.852	-74.682	0.083	-0.030
-165.837	-151.455	-0.104	-0.008
-164.823	6.676	0.400	-0.294
-163.808	800.000	0.106	-0.321
-162.793	62.410	-0.236	0.233
-161.779	-146.538	0.218	0.019
-160.764	296.157	-0.198	0.359
-159.750	-72.001	-0.194	-0.071
-158.735	23.925	0.025	-0.021
-157.720	-15.569	0.054	-0.034
-156.706	-90.227	-0.159	0.046
-155.691	-200.000	-0.041	0.318
-154.677	-26.695	-0.008	-0.005
-153.662	666.737	0.049	0.125
-152.647	-104.379	-0.316	-0.072
-151.633	4.940	-0.099	-0.072
-150.618	800.000	0.034	0.112
-149.604	-200.000	0.001	0.222
-148.589	-200.000	-0.014	0.111
-147.574	-22.216	0.223	-0.134
-146.560	-200.000	0.004	-0.215
-145.545	341.673	-0.108	-0.208
-144.531	-156.962	-0.303	-0.018
-143.516	-93.922	0.222	-0.060
-142.502	-124.038	0.108	0.017
-141.487	660.288	0.188	-0.478
-140.472	-126.076	0.220	0.033
-139.458	27.865	-0.155	-0.129
-138.443	-107.928	0.250	0.054
-137.429	136.519	0.087	0.112
-136.414	83.972	-0.204	0.220
-135.399	-160.866	0.428	-0.022
-134.385	58.538	0.016	0.016
-133.370	-200.000	-0.053	-0.275
-132.356	646.157	-0.062	-0.157
-131.341	-200.000	-0.031	-0.390
-130.326	76.423	-0.090	-0.094
-129.312	-60.292	0.141	-0.059
-128.297	800.000	0.055	0.152
-127.283	800.000	0.051	-0.154
-126.268	372.504	-0.096	0.193
-125.253	-200.000	-0.002	0.020
-124.239	312.383	-0.025	-0.047
-123.224	145.471	0.170	0.225
-122.210	11.794	0.105	-0.079
-121.195	11.918	-0.178	0.135
-120.180	-95.003	-0.223	0.060
-119.166	117.845	0.167	-0.204
-118.151	-115.706	0.141	0.026
-117.137	800.000	-0.050	-0.150
-116.122	-138.913	-0.385	-0.041
-115.107	181.472	0.154	0.224
-114.093	-23.260	0.280	0.166
-113.078	-179.145	-0.070	-0.002
-112.064	364.587	-0.139	-0.277
-111.049	800.000	-0.061	0.169
-110.034	-70.847	0.313	-0.116
-109.020	-200.000	0.054	0.243
-108.005	-200.000	-0.070	-0.341
-106.991	45.704	-0.248	-0.226
-105.976	269.590	0.039	0.068
-104.962	-121.220	-0.308	-0.051
-103.947	-54.808	0.126	-0.056
-102.932	-108.775	-0.183	-0.039
-101.918	69.564	0.281	0.285
-100.903	-147.084	-0.222	-0.019
-99.889	-200.000	-0.015	-0.142
-98.874	-108.368	-0.161	-0.034
-97.859	-22.395	0.340	-0.203
-96.845	55.739	0.166	-0.159
-95.830	28.726	-0.172	0.144
-94.816	-87.609	0.261	0.078
-93.801	-115.049	0.216	0.040
-92.786	-110.380	0.189	0.039
-91.772	82.796	0.308	-0.330
-90.757	-3.290	0.166	0.114
-89.743	-155.285	0.295	0.019
-88.728	-200.000	0.005	0.184
-87.713	-93.772	0.108	0.029
-86.699	108.798	-0.112	-0.132
-85.684	1.684	0.395	0.280
-84.670	668.883	0.086	-0.220
-83.655	-30.994	-0.170	0.095
-82.640	-187.519	-0.162	-0.002
-81.626	-8.347	0.088	-0.058
-80.611	60.154	-0.192	0.187
-79.597	92.408	-0.095	0.106
-78.582	27.067	0.165	0.136
-77.567	800.000	-0.055	0.172
-76.553	-94.742	-0.557	0.149
-75.538	-49.387	0.169	0.079
-74.524	-200.000	-0.048	-0.241
-73.509	-25.715	0.188	0.109
-72.494	-200.000	-0.048	-0.323
-71.480	-200.000	-0.002	0.125
-70.465	-200.000	0.080	-0.420
-69.451	374.019	-0.110	-0.220
-68.436	156.187	0.092	0.126
-67.422	42.896	0.217	0.195
-66.407	-112.836	-0.145	-0.028
-65.392	54.912	0.101	-0.096
-64.378	325.663	-0.061	0.114
-63.363	-136.882	-0.268	-0.030
-62.349	452.516	-0.050	0.108
-61.334	23.019	-0.807	-0.652
-60.319	108.084	0.360	0.422
-59.305	-200.000	-0.016	-0.812
-58.290	169.514	0.673	0.947
-57.276	800.000	0.467	1.572
-56.261	-200.000	98.271	565.443
-55.246	598.681	1408.806	3440.919
-54.232	181.561	2650.813	3840.904
-53.217	112.585	2328.604	2775.774
-52.203	43.258	1937.188	1741.935
-51.188	37.140	1721.760	1501.015
-50.173	34.300	1676.499	1440.067
-49.159	51.347	1726.667	1614.336
-48.144	54.250	1743.328	1652.098
-47.130	36.696	1699.002	1477.551
-46.115	33.806	1683.729	1442.300
-45.100	33.660	1679.017	1437.097
-44.086	33.695	1675.975	1434.702
-43.071	33.614	1673.612	1432.013
-42.057	33.513	1671.972	1429.789
-41.042	33.622	1669.275	1428.244
-40.027	33.580	1667.799	1426.610
-39.013	33.626	1665.342	1424.795
-37.998	33.597	1663.912	1423.301
-36.984	33.625	1662.683	1422.404
-35.969	33.797	1660.769	1421.996
-34.954	33.780	1659.388	1420.629
-33.940	33.744	1657.643	1418.811
-32.925	33.822	1655.277	1417.313
-31.911	33.768	1653.562	1415.383
-30.896	33.684	1652.218	1413.551
-29.881	33.728	1650.575	1412.423
-28.867	33.749	1648.801	1411.001
-27.852	33.815	1647.143	1410.014
-26.838	33.819	1645.969	1408.985
-25.823	33.735	1645.262	1407.701
-24.809	33.867	1643.037	1406.716
-23.794	33.835	1641.861	1405.419
-22.779	33.870	1640.145	1404.154
-21.765	33.725	1638.885	1401.950
-20.750	33.740	1636.671	1400.110
-19.736	33.884	1634.793	1399.506
-18.721	33.859	1633.552	1398.203
-17.706	33.868	1631.851	1396.760
-16.692	33.840	1630.346	1395.211
-15.677	33.829	1629.055	1393.970
-14.663	33.895	1627.828	1393.347
-13.648	33.778	1626.846	1391.594
-12.633	33.835	1624.592	1390.033
-11.619	33.811	1623.351	1388.741
-10.604	33.811	1621.863	1387.413
-9.590	33.861	1620.768	1386.780
-8.575	33.745	1619.582	1384.865
-7.560	33.866	1618.257	1384.559
-6.546	33.851	1616.787	1383.143
-5.531	33.757	1615.765	1381.528
-4.517	33.966	1613.966	1381.450
-3.502	33.791	1613.402	1379.644
-2.487	33.856	1611.938	1378.809
-1.473	33.916	1600.487	1369.392
-0.458	31.426	1581.752	1335.546
0.556	26.446	1582.874	1307.343
1.571	24.308	1608.830	1312.938
2.586	23.852	1622.645	1320.708
3.600	20.605	1567.931	1252.712
4.615	10.476	1452.102	1092.153
5.629	1.711	1384.490	984.708
6.644	0.298	1375.625	969.234
7.659	0.085	1374.367	966.894
8.673	0.098	1373.195	966.064
9.688	-0.001	1371.419	964.097
10.702	-0.177	1368.251	960.655
11.717	3.117	1375.150	986.571
12.731	13.031	1395.016	1064.980
13.746	21.196	1408.708	1128.321
14.761	22.917	1410.862	1141.076
15.775	23.185	1410.425	1142.354
16.790	23.253	1409.779	1142.164
17.804	23.240	1409.307	1141.599
18.819	23.509	1408.940	1142.932
19.834	23.612	1408.313	1142.989
20.848	23.566	1407.809	1142.184
21.863	23.652	1406.479	1141.554
22.877	23.540	1406.439	1140.703
23.892	23.638	1404.580	1139.724
24.907	23.625	1403.913	1138.995
25.921	23.516	1403.635	1137.969
26.936	23.582	1401.973	1136.946
27.950	23.509	1401.485	1135.981
28.965	23.635	1399.618	1135.177
29.980	23.476	1398.485	1133.141
30.994	23.538	1397.453	1132.600
32.009	23.594	1396.087	1131.747
33.023	23.613	1394.869	1130.780
34.038	23.669	1393.487	1129.917
35.053	23.585	1392.779	1128.711
36.067	23.550	1392.264	1127.966
37.082	23.594	1390.921	1127.063
38.096	23.513	1390.496	1126.100
39.111	23.488	1389.557	1125.081
40.126	23.541	1388.507	1124.468
41.140	23.539	1387.829	1123.808
42.155	23.502	1388.060	1123.662
43.169	23.578	1387.740	1123.784
44.184	23.524	1387.402	1123.069
45.199	23.450	1387.061	1122.225
46.213	23.604	1386.393	1122.562
47.228	23.566	1385.399	1121.416
48.242	23.550	1384.213	1120.258
49.257	23.612	1382.860	1119.455
50.271	23.561	1381.187	1117.676
51.286	23.560	1379.592	1116.282
52.301	23.520	1378.849	1115.331
53.315	23.546	1378.001	1114.709
54.330	23.544	1377.380	1114.094
55.344	23.607	1375.840	1113.145
56.359	23.488	1375.051	1111.666
57.374	23.596	1373.813	1111.239
58.388	23.521	1373.295	1110.254
59.403	23.533	1373.096	1110.069
60.417	23.546	1372.505	1109.575
61.432	23.565	1371.780	1109.009
62.447	23.566	1370.163	1107.608
63.461	23.514	1369.413	1106.582
64.476	23.524	1368.826	1106.073
65.490	23.579	1367.445	1105.200
66.505	23.534	1365.908	1103.579
67.520	23.521	1364.996	1102.667
68.534	23.621	1363.697	1102.141
69.549	23.596	1362.634	1101.027
70.563	23.568	1361.143	1099.552
71.578	23.624	1360.215	1099.055
72.593	23.640	1359.701	1098.641
73.607	23.624	1358.802	1097.713
74.622	23.689	1357.999	1097.372
75.636	23.648	1357.663	1096.749
76.651	23.665	1357.011	1096.232
77.666	23.630	1356.555	1095.550
78.680	23.513	1356.170	1094.422
79.695	23.584	1355.161	1093.948
80.709	23.595	1354.169	1093.116
81.724	23.541	1353.392	1092.061
82.739	23.563	1352.032	1091.002
83.753	23.473	1351.341	1089.795
84.768	23.566	1350.534	1089.617
85.782	23.619	1349.221	1088.788
86.797	23.620	1347.595	1087.385
87.812	23.607	1346.871	1086.626
88.826	23.691	1345.405	1085.862
89.841	23.627	1344.958	1085.015
90.855	23.622	1343.870	1084.007
91.870	23.662	1342.857	1083.339
92.884	23.737	1341.892	1082.924
93.899	23.613	1341.348	1081.633
94.914	23.607	1340.873	1081.114
95.928	23.524	1340.421	1080.151
96.943	23.623	1339.178	1079.654
97.957	23.604	1338.639	1079.011
98.972	23.630	1337.652	1078.278
99.987	23.643	1336.532	1077.357
101.001	23.628	1335.494	1076.337
102.016	23.649	1334.923	1075.904
103.030	23.609	1333.902	1074.746
104.045	23.582	1332.650	1073.481
105.060	23.652	1332.088	1073.355
106.074	23.667	1330.458	1072.036
107.089	23.729	1329.709	1071.710
108.103	23.667	1328.781	1070.497
109.118	23.744	1327.226	1069.612
110.133	23.761	1326.109	1068.721
111.147	23.698	1325.103	1067.439
112.162	23.752	1323.910	1066.703
113.176	23.748	1323.100	1065.935
114.191	23.694	1322.315	1064.885
115.206	23.733	1321.132	1064.071
116.220	23.700	1320.275	1063.090
117.235	23.625	1319.309	1061.768
118.249	23.626	1318.627	1061.133
119.264	23.733	1317.418	1060.704
120.279	23.682	1316.639	1059.680
121.293	23.752	1315.964	1059.458
122.308	23.755	1314.881	1058.509
123.322	23.765	1313.660	1057.493
124.337	23.810	1312.863	1057.024
125.352	23.770	1312.289	1056.235
126.366	23.822	1311.076	1055.472
127.381	23.800	1310.364	1054.676
128.395	23.688	1309.485	1053.207
129.410	23.837	1308.176	1052.945
130.424	23.846	1307.873	1052.663
131.439	23.797	1307.026	1051.596
132.454	23.803	1306.171	1050.854
133.468	23.829	1305.430	1050.316
134.483	23.796	1304.989	1049.676
135.497	23.734	1304.034	1048.448
136.512	23.808	1302.867	1047.854
137.527	23.792	1301.760	1046.774
138.541	23.775	1300.420	1045.507
139.556	23.660	1299.474	1043.973
140.570	23.674	1298.402	1043.105
141.585	23.793	1296.908	1042.511
142.600	23.706	1296.280	1041.405
143.614	23.738	1295.835	1041.142
144.629	23.699	1294.892	1040.061
145.643	23.651	1293.304	1038.412
146.658	23.656	1292.204	1037.467
147.673	23.585	1291.376	1036.294
148.687	23.582	1290.873	1035.783
149.702	23.608	1289.597	1034.820
150.716	23.631	1288.493	1033.979
151.731	23.708	1286.772	1032.953
152.746	23.731	1286.020	1032.389
153.760	23.865	1284.629	1031.963
154.775	23.731	1284.254	1030.792
155.789	23.786	1283.038	1030.044
156.804	23.631	1282.511	1028.632
157.819	23.738	1281.206	1028.109
158.833	23.706	1280.881	1027.572
159.848	23.816	1280.245	1027.608
160.862	23.747	1279.089	1026.191
161.877	23.735	1278.467	1025.530
162.892	23.744	1277.794	1024.956
163.906	23.817	1276.944	1024.603
164.921	23.893	1276.002	1024.195
165.935	23.858	1275.167	1023.231
166.950	23.818	1275.291	1023.008
167.964	23.850	1274.308	1022.315
168.979	23.789	1273.755	1021.430
169.994	23.849	1273.077	1021.142
171.008	23.862	1271.676	1019.999
172.023	23.906	1271.523	1020.043
173.037	23.840	1270.568	1018.804
174.052	23.865	1270.015	1018.415
175.067	23.889	1269.104	1017.731
176.081	23.917	1268.349	1017.194
177.096	23.831	1267.812	1016.187
178.110	23.849	1266.849	1015.424
179.125	23.916	1265.531	1014.662
180.140	23.891	1264.380	1013.508
181.154	23.906	1263.332	1012.663
182.169	23.810	1262.518	1011.373
183.183	23.860	1261.169	1010.487
184.198	23.906	1260.564	1010.174
185.213	23.846	1259.853	1009.177
186.227	23.936	1258.532	1008.537
187.242	23.931	1257.758	1007.800
188.256	23.926	1256.872	1006.976
189.271	23.903	1256.072	1006.114
190.286	23.962	1255.074	1005.561
191.300	23.911	1254.516	1004.734
192.315	23.991	1253.962	1004.651
193.329	23.963	1253.982	1004.423
194.344	23.946	1253.750	1004.049
195.359	23.965	1253.089	1003.544
196.373	23.960	1252.159	1002.680
197.388	23.945	1251.718	1002.151
198.402	23.928	1251.781	1002.016
199.417	23.853	1251.266	1001.097
200.432	23.939	1250.272	1000.693
201.446	23.901	1249.805	1000.017
202.461	24.016	1248.466	999.505
203.475	23.957	1248.502	999.117
204.490	23.984	1247.218	998.150
205.504	23.962	1246.131	997.070
206.519	24.099	1245.205	997.008
207.534	24.073	1244.249	996.006
208.548	23.991	1243.534	994.891
209.563	23.948	1242.900	994.052
210.577	23.908	1241.825	992.882
211.592	24.032	1240.966	992.799
212.607	24.136	1240.123	992.617
213.621	24.146	1239.044	991.719
214.636	24.134	1238.746	991.327
215.650	24.031	1237.782	989.893
216.665	24.050	1236.866	989.183
217.680	24.096	1236.088	988.726
218.694	24.120	1235.285	988.127
219.709	24.031	1234.751	987.121
220.723	24.117	1233.613	986.602
221.738	24.092	1233.188	986.034
222.753	24.152	1231.606	985.013
223.767	24.087	1231.995	984.880
224.782	24.072	1231.716	984.486
225.796	24.215	1230.663	984.347
226.811	24.180	1230.267	983.751
227.826	24.229	1229.507	983.324
228.840	24.192	1228.651	982.351
229.855	24.209	1228.420	982.172
230.869	24.155	1227.602	981.134
231.884	24.272	1226.194	980.566
232.899	24.161	1226.069	979.766
233.913	24.245	1225.397	979.605
234.928	24.233	1225.039	979.167
235.942	24.346	1224.346	979.148
236.957	24.317	1223.514	978.237
237.972	24.287	1222.536	977.205
238.986	24.244	1222.478	976.836
240.001	24.227	1221.900	976.194
241.015	24.319	1221.140	976.004
242.030	24.219	1220.320	974.714
243.045	24.414	1219.550	975.080
244.059	24.456	1218.047	974.020
245.074	24.539	1217.433	973.897
246.088	24.385	1217.062	972.674
247.103	24.501	1215.807	972.217
248.117	24.395	1215.456	971.272
249.132	24.442	1214.391	970.589
250.147	24.404	1213.979	969.969
251.161	24.533	1213.071	969.858
252.176	24.369	1212.806	968.673
253.190	24.428	1211.930	968.206
254.205	24.444	1211.282	967.690
255.220	24.338	1211.156	966.925
256.234	24.495	1210.121	966.865
257.249	24.480	1209.629	966.308
258.263	24.508	1208.411	965.399
259.278	24.478	1208.226	965.001
260.293	24.518	1207.720	964.732
261.307	24.602	1206.814	964.373
262.322	24.552	1206.622	963.868
263.336	24.456	1206.195	962.924
264.351	24.511	1205.451	962.536
265.366	24.457	1204.647	961.522
266.380	24.488	1204.029	961.108
267.395	24.430	1203.340	960.163
268.409	24.425	1203.019	959.797
269.424	24.489	1202.017	959.253
270.439	24.556	1201.632	959.221
271.453	24.479	1201.065	958.271
272.468	24.543	1200.075	957.742
273.482	24.450	1199.503	956.700
274.497	24.611	1198.746	956.874
275.512	24.553	1198.301	956.124
276.526	24.610	1197.892	956.018
277.541	24.644	1196.709	955.169
278.555	24.566	1196.352	954.385
279.570	24.602	1195.946	954.167
280.585	24.597	1194.727	953.083
281.599	24.756	1193.445	952.825
282.614	24.568	1193.110	951.470
283.628	24.706	1191.975	951.214
284.643	24.608	1191.687	950.380
285.657	24.660	1190.645	949.742
286.672	24.665	1189.861	949.057
287.687	24.640	1189.161	948.285
288.701	24.650	1188.415	947.657
289.716	24.714	1187.388	947.095
290.730	24.738	1186.730	946.612
291.745	24.684	1186.345	945.937
292.760	24.862	1185.358	946.009
293.774	24.727	1185.184	945.071
294.789	24.876	1184.544	945.264
295.803	24.705	1184.279	944.063
296.818	24.744	1183.308	943.416
297.833	24.828	1182.763	943.336
298.847	24.770	1181.755	942.145
299.862	24.939	1181.059	942.400
300.876	24.702	1180.925	940.959
301.891	24.815	1180.138	940.845
302.906	24.930	1179.402	940.779
303.920	24.801	1178.897	939.615
304.935	24.811	1178.314	939.118
305.949	24.769	1177.402	938.087
306.964	24.882	1177.247	938.476
307.979	24.865	1176.031	937.331
308.993	24.873	1175.502	936.868
310.008	24.995	1174.693	936.783
311.022	24.938	1173.898	935.767
312.037	24.967	1172.845	934.996
313.052	24.945	1172.158	934.249
314.066	24.971	1171.025	933.398
315.081	24.840	1170.614	932.308
316.095	24.972	1169.970	932.398
317.110	24.951	1169.456	931.796
318.125	24.961	1168.944	931.359
319.139	25.094	1168.174	931.353
320.154	25.023	1167.575	930.426
321.168	25.079	1166.919	930.111
322.183	25.066	1166.135	929.335
323.197	24.994	1166.013	928.782
324.212	24.936	1165.178	927.735
325.227	24.953	1165.223	927.780
326.241	25.014	1164.425	927.374
327.256	25.188	1163.324	927.315
328.270	24.967	1162.832	925.702
329.285	24.947	1162.108	924.939
330.300	25.175	1160.721	924.927
331.314	25.135	1159.885	923.976
332.329	25.241	1159.139	923.844
333.343	25.232	1158.581	923.271
334.358	25.140	1158.163	922.386
335.373	25.157	1157.290	921.697
336.387	25.179	1156.722	921.276
337.402	25.201	1155.900	920.652
338.416	25.253	1155.316	920.369
339.431	25.261	1154.660	919.807
340.446	25.290	1153.923	919.286
341.460	25.184	1153.526	918.346
342.475	25.231	1152.670	917.825
343.489	25.187	1151.621	916.682
344.504	25.144	1150.885	915.797
345.519	25.187	1150.062	915.283
346.533	25.249	1149.481	915.053
347.548	25.368	1148.407	914.724
348.562	25.297	1148.033	913.983
349.577	25.272	1147.554	913.394
350.592	25.145	1146.586	911.895
351.606	25.189	1145.890	911.485
352.621	25.250	1145.254	911.210
353.635	25.231	1145.146	910.947
354.650	25.397	1143.655	910.522
355.665	25.424	1143.102	910.138
356.679	25.413	1142.757	909.726
357.694	25.292	1142.434	908.774
358.708	25.398	1141.254	908.293
359.723	25.290	1140.642	907.179
360.738	25.346	1139.957	906.838
361.752	25.405	1139.232	906.477
362.767	25.587	1138.662	906.862
363.781	25.519	1138.303	906.153
364.796	25.513	1137.739	905.591
365.810	25.504	1137.294	905.114
366.825	25.628	1136.502	905.028
367.840	25.650	1135.744	904.453
368.854	25.566	1135.647	903.875
369.869	25.676	1134.555	903.476
370.883	25.649	1133.710	902.588
371.898	25.639	1133.229	902.079
372.913	25.589	1132.677	901.305
373.927	25.576	1132.786	901.249
374.942	25.786	1131.639	901.309
375.956	25.637	1131.215	900.145
376.971	25.541	1131.096	899.490
377.986	25.750	1129.973	899.561
379.000	25.756	1129.535	899.164
380.015	25.708	1129.023	898.438
381.029	25.745	1128.391	898.039
382.044	25.679	1127.663	897.051
383.059	25.816	1126.925	897.066
384.073	25.789	1126.233	896.302
385.088	25.720	1125.455	895.261
386.102	25.825	1124.439	894.894
387.117	25.685	1123.590	893.446
388.132	25.680	1123.021	892.892
389.146	25.842	1122.326	893.060
390.161	25.735	1121.939	892.143
391.175	25.839	1120.980	891.817
392.190	25.836	1120.036	890.972
393.205	25.781	1119.398	890.114
394.219	25.901	1118.967	890.286
395.234	25.850	1118.171	889.322
396.248	25.885	1117.102	888.565
397.263	25.938	1116.201	888.031
398.278	25.979	1115.552	887.637
399.292	26.008	1115.163	887.392
400.307	25.942	1114.204	886.227
401.321	25.906	1113.963	885.778
402.336	25.831	1113.236	884.756
403.350	25.914	1112.553	884.543
404.365	25.905	1111.783	883.805
405.380	26.156	1110.916	884.270
406.394	26.009	1110.382	883.047
407.409	26.095	1109.511	882.697
408.423	25.991	1109.257	881.905
409.438	26.101	1108.023	881.385
410.453	26.075	1107.408	880.688
411.467	26.078	1107.025	880.323
412.482	26.107	1106.140	879.682
413.496	26.081	1105.370	878.864
414.511	26.170	1104.909	878.853
415.526	26.041	1104.690	877.974
416.540	26.087	1104.316	877.825
417.555	26.138	1103.886	877.652
418.569	26.064	1103.217	876.683
419.584	26.054	1102.823	876.242
420.599	26.180	1102.442	876.478
421.613	146.549	1402.528	1793.659
422.628	135.981	1446.232	1793.761
