DTS Sentinel unit serial number:	SN413079Multiplexer serial number:	ORYXHardware model number:	OX4-SRSoftware version number:	ORYX F/W v4.00 Oryx Data Collector v3.7.2.0data status	okinstallation	princeton_trtdifferential loss correction	single-endedforward channel	channel 2reverse channel	N/Adate	2019/09/11time	09:45:11forward acquisition time	60.00reverse acquisition time	0.00gamma	496.2192k internal	0.2316k external	0.2316temperature offset calibration	0.9968default loss term (dB/km)	0.3790temperature slope calibration	1.0000multiplexer offset coefficient	1.0000multiplexer slope coefficient	1.0000fibre end	0.00T internal ref (°C)	34.94T ext. ref 1 (°C)	0.13T ext. ref 2 (°C)	31.43length (m)	temperature (°C)	Stokes	anti-Stokes-747.200	251.184	0.028	-0.049
-746.185	329.959	0.205	0.400
-745.171	-200.000	-0.076	0.375
-744.156	-43.314	0.120	-0.061
-743.142	330.348	-0.050	-0.097
-742.127	567.911	-0.075	0.184
-741.112	80.041	-0.123	-0.134
-740.098	-200.000	0.010	-0.190
-739.083	800.000	0.026	-0.078
-738.069	-181.069	-0.201	0.004
-737.054	800.000	0.044	0.124
-736.039	-14.224	0.202	-0.132
-735.025	-22.875	0.192	-0.117
-734.010	800.000	-0.044	-0.157
-732.996	-173.944	-0.327	0.010
-731.981	-89.846	0.198	-0.059
-730.966	-145.989	-0.420	0.038
-729.952	-97.677	-0.642	0.169
-728.937	438.054	-0.049	0.107
-727.923	111.793	0.099	0.121
-726.908	-21.852	-0.220	-0.135
-725.894	-200.000	-0.001	-0.088
-724.879	146.482	-0.066	0.090
-723.864	-102.911	-0.251	-0.060
-722.850	-200.000	-0.006	-0.191
-721.835	89.450	0.134	-0.152
-720.821	-200.000	-0.058	0.276
-719.806	-102.806	-0.104	-0.025
-718.791	90.145	-0.160	0.181
-717.777	800.000	0.047	-0.196
-716.762	48.443	0.133	0.126
-715.748	-70.831	0.645	-0.246
-714.733	8.188	0.318	-0.241
-713.718	273.877	-0.062	0.110
-712.704	-119.842	0.199	0.035
-711.689	112.282	0.229	-0.280
-710.675	-44.631	-0.287	-0.145
-709.660	219.421	0.078	0.126
-708.645	-137.709	-0.094	0.011
-707.631	22.159	-0.130	-0.107
-706.616	130.691	0.079	-0.103
-705.602	-144.978	0.028	-0.003
-704.587	-200.000	-0.032	0.199
-703.572	-75.582	-0.165	0.059
-702.558	122.763	-0.105	0.133
-701.543	-52.959	0.338	-0.157
-700.529	-200.000	-0.003	-0.351
-699.514	800.000	0.084	-0.311
-698.499	-200.000	0.027	0.139
-697.485	-59.110	-0.176	-0.077
-696.470	-56.032	-0.187	-0.084
-695.456	-200.000	-0.025	-0.164
-694.441	-23.444	0.126	-0.077
-693.426	-136.176	-0.185	-0.022
-692.412	-45.448	-0.258	-0.129
-691.397	212.639	0.157	0.250
-690.383	649.554	-0.060	-0.155
-689.368	-18.957	-0.187	-0.118
-688.354	-49.063	0.024	-0.012
-687.339	-69.724	0.218	0.084
-686.324	112.169	0.217	-0.265
-685.310	68.178	0.283	0.293
-684.295	800.000	-0.178	-0.517
-683.281	36.277	0.059	-0.053
-682.266	-180.001	-0.109	0.002
-681.251	323.124	0.041	-0.080
-680.237	82.211	-0.281	-0.308
-679.222	800.000	-0.066	-0.268
-678.208	-65.190	-0.245	-0.100
-677.193	247.685	-0.123	-0.211
-676.178	-100.441	-0.187	0.047
-675.164	-200.000	0.016	-0.142
-674.149	800.000	0.061	-0.173
-673.135	785.525	0.072	-0.199
-672.120	86.594	0.178	0.199
-671.105	-57.538	-0.206	0.091
-670.091	800.000	0.041	-0.162
-669.076	-200.000	0.081	-0.373
-668.062	-171.017	-0.281	-0.010
-667.047	167.761	0.166	-0.238
-666.032	-120.080	-0.193	-0.033
-665.018	-13.725	-0.092	0.060
-664.003	157.177	0.353	-0.493
-662.989	346.196	0.078	-0.155
-661.974	338.295	-0.072	0.142
-660.959	-56.009	-0.184	-0.083
-659.945	-200.000	0.032	0.274
-658.930	190.170	0.117	-0.177
-657.916	23.767	-0.258	0.214
-656.901	800.000	-0.101	-0.384
-655.886	-200.000	0.054	-0.339
-654.872	-200.000	0.042	-0.219
-653.857	-200.000	-0.004	-0.161
-652.843	-82.412	-0.271	-0.089
-651.828	27.212	0.012	0.011
-650.814	3.941	-0.118	0.087
-649.799	-200.000	0.016	-0.218
-648.784	-98.586	0.153	0.040
-647.770	-15.506	0.031	-0.020
-646.755	441.391	-0.188	0.415
-645.741	-200.000	0.007	0.037
-644.726	-123.784	-0.123	-0.020
-643.711	250.244	-0.015	-0.026
-642.697	-83.696	-0.041	-0.013
-641.682	-200.000	0.042	0.277
-640.668	-62.404	-0.130	0.055
-639.653	-89.484	-0.305	0.090
-638.638	723.247	-0.070	-0.187
-637.624	-56.761	-0.025	-0.011
-636.609	561.992	0.108	0.263
-635.595	800.000	-0.042	0.152
-634.580	445.053	-0.076	-0.169
-633.565	171.387	0.181	-0.262
-632.551	387.856	0.058	-0.120
-631.536	-173.450	0.218	0.007
-630.522	-200.000	0.039	-0.326
-629.507	-200.000	-0.005	-0.128
-628.492	220.662	0.238	0.384
-627.478	-200.000	0.028	-0.172
-626.463	-61.960	-0.175	-0.074
-625.449	-200.000	0.051	-0.228
-624.434	-165.808	0.238	-0.010
-623.419	9.634	0.319	-0.244
-622.405	82.885	0.210	-0.231
-621.390	-68.310	-0.249	0.097
-620.376	-78.444	-0.165	0.057
-619.361	-200.000	-0.002	0.253
-618.346	-138.794	-0.277	0.030
-617.332	-62.872	0.249	-0.104
-616.317	57.058	0.099	-0.097
-615.303	51.227	-0.145	0.139
-614.288	-88.980	0.395	-0.118
-613.273	-23.898	0.250	0.151
-612.259	-200.000	-0.005	-0.453
-611.244	-200.000	0.003	0.262
-610.230	-200.000	-0.059	0.394
-609.215	-106.279	-0.140	-0.032
-608.201	-124.851	0.445	-0.069
-607.186	-49.664	0.148	-0.071
-606.171	-190.138	-0.112	0.001
-605.157	148.856	-0.058	-0.079
-604.142	-78.385	-0.296	-0.102
-603.128	-6.069	0.208	-0.143
-602.113	-21.009	0.153	-0.094
-601.098	71.797	0.231	-0.241
-600.084	-200.000	0.028	-0.221
-599.069	2.244	0.053	0.039
-598.055	-159.629	-0.259	-0.014
-597.040	72.173	0.169	-0.177
-596.025	-72.430	-0.216	-0.080
-595.011	-70.464	-0.039	0.015
-593.996	-64.623	-0.315	-0.129
-592.982	-138.841	0.246	-0.027
-591.967	126.702	-0.159	-0.202
-590.952	-200.000	0.021	0.428
-589.938	-81.003	-0.141	0.047
-588.923	-200.000	0.450	0.001
-587.909	-195.581	-0.313	-0.002
-586.894	218.078	-0.202	0.325
-585.879	-0.692	-0.142	-0.102
-584.865	8.772	-0.119	0.090
-583.850	-58.002	-0.281	-0.124
-582.836	-200.000	0.064	0.333
-581.821	-31.541	-0.233	0.132
-580.806	-49.462	-0.474	-0.227
-579.792	542.013	0.089	0.212
-578.777	662.216	-0.056	-0.145
-577.763	-47.300	-0.103	-0.051
-576.748	171.420	0.119	0.171
-575.733	-200.000	-0.011	0.371
-574.719	329.282	0.108	0.208
-573.704	181.365	-0.084	-0.124
-572.690	-172.798	0.193	0.006
-571.675	7.231	-0.309	-0.232
-570.661	-84.141	-0.301	0.096
-569.646	800.000	0.032	-0.108
-568.631	-92.607	0.245	0.069
-567.617	-55.148	-0.494	0.224
-566.602	-102.809	0.301	-0.072
-565.588	399.432	0.147	-0.309
-564.573	-200.000	0.096	0.444
-563.558	-85.408	-0.131	-0.041
-562.544	164.571	0.055	0.078
-561.529	-25.406	0.127	0.075
-560.515	59.375	0.155	-0.153
-559.500	800.000	0.068	0.258
-558.485	-105.385	-0.026	-0.006
-557.471	-200.000	-0.034	0.396
-556.456	800.000	-0.095	-0.348
-555.442	-33.759	0.185	0.103
-554.427	-200.000	-0.238	-0.001
-553.412	-30.622	-0.075	-0.043
-552.398	26.473	0.166	-0.140
-551.383	-46.987	0.158	0.077
-550.369	231.245	-0.192	0.317
-549.354	-200.000	-0.017	0.304
-548.339	800.000	-0.054	0.176
-547.325	14.205	-0.169	-0.133
-546.310	121.239	-0.107	-0.133
-545.296	65.642	0.127	-0.130
-544.281	69.981	-0.323	-0.335
-543.266	87.805	0.314	-0.349
-542.252	7.770	-0.175	0.132
-541.237	297.450	0.067	-0.123
-540.223	216.275	-0.170	0.271
-539.208	30.704	0.193	-0.166
-538.193	491.386	0.068	-0.156
-537.179	-8.497	-0.124	0.084
-536.164	146.434	-0.015	0.021
-535.150	200.873	-0.160	0.247
-534.135	512.593	-0.113	-0.264
-533.121	38.558	-0.112	-0.100
-532.106	36.689	0.235	-0.209
-531.091	-164.792	0.166	-0.007
-530.077	-3.573	-0.238	-0.166
-529.062	-23.093	0.098	-0.059
-528.048	-190.495	0.084	-0.001
-527.033	366.627	0.109	0.221
-526.018	-200.000	-0.070	0.328
-525.004	191.813	-0.125	0.189
-523.989	800.000	-0.045	0.141
-522.975	-24.690	0.206	-0.123
-521.960	282.276	-0.061	0.110
-520.945	-200.000	0.041	0.187
-519.931	-91.302	0.394	-0.113
-518.916	-116.764	-0.089	-0.016
-517.902	-200.000	-0.017	0.306
-516.887	37.462	-0.256	0.228
-515.872	800.000	-0.119	0.370
-514.858	-44.269	-0.112	0.057
-513.843	90.953	-0.359	0.404
-512.829	46.197	0.156	-0.145
-511.814	-143.491	0.186	0.018
-510.799	-149.705	0.166	-0.013
-509.785	-77.369	-0.344	0.120
-508.770	-200.000	-0.001	-0.047
-507.756	-53.561	-0.152	-0.070
-506.741	112.767	0.048	0.058
-505.726	800.000	-0.043	-0.135
-504.712	596.304	-0.132	-0.328
-503.697	93.792	0.030	-0.034
-502.683	-5.840	-0.199	-0.137
-501.668	-18.975	0.209	-0.130
-500.653	158.201	-0.102	-0.143
-499.639	9.958	-0.066	0.051
-498.624	612.056	-0.145	0.365
-497.610	13.872	0.278	0.217
-496.595	17.772	0.115	0.092
-495.581	91.930	0.052	0.059
-494.566	11.412	-0.118	0.090
-493.551	800.000	0.048	0.200
-492.537	4.441	0.293	-0.216
-491.522	-74.635	-0.260	0.094
-490.508	28.064	-0.225	-0.190
-489.493	501.659	-0.067	0.155
-488.478	-123.799	0.318	0.050
-487.464	800.000	-0.074	-0.313
-486.449	343.199	-0.027	0.053
-485.435	386.986	0.043	-0.089
-484.420	-54.470	0.177	0.080
-483.405	101.144	-0.089	-0.103
-482.391	-67.006	0.297	0.117
-481.376	148.572	-0.173	0.234
-480.362	-63.751	-0.177	0.073
-479.347	-169.036	-0.241	0.009
-478.332	-77.856	-0.199	-0.069
-477.318	-200.000	-0.048	-0.227
-476.303	336.418	0.087	0.169
-475.289	-83.855	-0.179	0.057
-474.274	-200.000	-0.004	-0.267
-473.259	-44.967	0.364	-0.182
-472.245	-132.353	-0.309	0.040
-471.230	800.000	-0.110	0.365
-470.216	-71.720	0.220	0.082
-469.201	-60.584	-0.080	0.034
-468.186	94.849	-0.043	0.049
-467.172	-42.652	-0.288	-0.147
-466.157	184.090	0.120	0.178
-465.143	50.236	-0.040	-0.037
-464.128	800.000	-0.089	-0.320
-463.113	-37.495	-0.171	-0.092
-462.099	41.559	-0.172	0.156
-461.084	-86.513	0.145	0.045
-460.070	-107.916	-0.422	0.092
-459.055	95.690	0.133	0.152
-458.040	-6.678	-0.208	-0.142
-457.026	800.000	0.056	-0.247
-456.011	-109.746	0.172	-0.036
-454.997	-200.000	-0.014	0.116
-453.982	-133.166	0.072	0.009
-452.968	600.606	-0.157	-0.390
-451.953	198.944	0.057	0.087
-450.938	149.026	0.047	0.064
-449.924	426.246	0.089	-0.193
-448.909	-200.000	-0.054	-0.254
-447.895	-98.639	0.176	0.045
-446.880	-200.000	0.012	-0.086
-445.865	-5.674	-0.370	-0.254
-444.851	-6.850	0.231	-0.157
-443.836	-181.840	0.159	-0.003
-442.822	61.418	-0.050	0.049
-441.807	-46.717	-0.076	0.037
-440.792	272.819	-0.078	-0.137
-439.778	-90.449	0.345	0.100
-438.763	33.804	0.070	0.061
-437.749	177.164	0.164	0.239
-436.734	-8.346	-0.350	0.235
-435.719	-0.539	0.338	-0.240
-434.705	-200.000	-0.011	-0.178
-433.690	212.428	0.111	-0.175
-432.676	800.000	-0.049	-0.194
-431.661	58.899	0.151	-0.149
-430.646	174.654	-0.239	-0.347
-429.632	595.564	-0.082	0.202
-428.617	-166.236	-0.192	0.008
-427.603	-200.000	0.014	0.619
-426.588	-54.490	0.244	0.110
-425.573	43.280	-0.021	-0.020
-424.559	-79.141	-0.221	0.075
-423.544	112.265	-0.104	-0.126
-422.530	-200.000	-0.028	0.433
-421.515	-64.431	0.090	0.037
-420.500	-16.709	-0.239	0.152
-419.486	-200.000	0.001	-0.072
-418.471	-116.871	-0.163	-0.030
-417.457	-148.419	-0.353	0.029
-416.442	-165.661	-0.068	0.003
-415.428	74.178	0.215	0.225
-414.413	-36.686	0.120	-0.065
-413.398	169.760	0.100	-0.143
-412.384	166.140	-0.089	0.125
-411.369	800.000	-0.074	-0.227
-410.355	1.913	0.064	0.046
-409.340	714.895	-0.101	0.267
-408.325	10.138	0.229	-0.174
-407.311	597.760	0.115	0.284
-406.296	-200.000	-0.040	0.354
-405.282	-200.000	-0.021	0.232
-404.267	6.397	0.294	0.219
-403.252	-163.998	-0.321	-0.015
-402.238	-200.000	-0.041	0.185
-401.223	-42.039	-0.261	0.134
-400.209	-70.954	-0.082	-0.031
-399.194	-200.000	0.006	-0.278
-398.179	-200.000	-0.016	-0.206
-397.165	-151.815	-0.333	0.024
-396.150	534.835	0.059	-0.141
-395.136	-86.005	0.260	0.080
-394.121	467.303	0.104	-0.232
-393.106	800.000	0.104	0.290
-392.092	-133.723	-0.075	0.009
-391.077	-145.480	-0.049	-0.004
-390.063	538.159	0.032	0.075
-389.048	174.764	-0.132	-0.191
-388.033	54.762	0.069	0.066
-387.019	476.181	-0.011	0.024
-386.004	-192.970	0.047	0.000
-384.990	546.894	-0.073	0.175
-383.975	173.826	-0.083	-0.120
-382.960	69.267	-0.176	-0.181
-381.946	73.588	0.294	0.307
-380.931	-98.747	-0.144	0.037
-379.917	451.389	-0.167	-0.369
-378.902	-137.629	0.177	0.020
-377.888	800.000	-0.137	-0.411
-376.873	-100.908	-0.113	0.028
-375.858	221.393	0.057	-0.092
-374.844	-1.453	0.178	-0.125
-373.829	43.549	-0.067	-0.061
-372.815	-63.535	-0.199	0.081
-371.800	-103.602	-0.270	-0.063
-370.785	-70.772	0.443	0.167
-369.771	-120.676	-0.247	0.042
-368.756	800.000	0.036	-0.146
-367.742	-200.000	0.019	-0.246
-366.727	176.837	-0.112	0.163
-365.712	-42.217	0.160	-0.081
-364.698	103.934	0.164	-0.193
-363.683	550.056	0.007	-0.016
-362.669	124.618	-0.136	0.171
-361.654	88.479	-0.157	-0.174
-360.639	131.498	0.141	-0.181
-359.625	-72.893	0.226	-0.083
-358.610	-126.183	0.090	-0.013
-357.596	-156.051	0.139	-0.009
-356.581	-152.838	-0.125	0.009
-355.566	-82.429	-0.413	-0.134
-354.552	264.714	-0.153	0.266
-353.537	-113.307	0.153	0.030
-352.523	-78.720	-0.208	0.071
-351.508	-200.000	0.020	0.182
-350.493	-89.586	0.203	-0.059
-349.479	-46.034	-0.277	-0.136
-348.464	127.463	0.119	0.150
-347.450	-200.000	0.004	0.131
-346.435	-145.770	0.039	0.003
-345.420	-156.026	-0.428	-0.027
-344.406	300.733	0.205	0.377
-343.391	800.000	0.039	-0.156
-342.377	439.975	0.043	0.095
-341.362	91.270	-0.046	0.052
-340.348	800.000	0.029	0.084
-339.333	-25.879	0.201	0.118
-338.318	24.842	-0.175	-0.145
-337.304	-200.000	-0.003	-0.078
-336.289	26.538	-0.286	0.238
-335.275	64.878	0.105	-0.106
-334.260	-159.659	0.297	-0.016
-333.245	297.875	0.106	-0.194
-332.231	0.094	0.348	-0.247
-331.216	-183.490	0.302	-0.005
-330.202	514.154	-0.044	-0.103
-329.187	-61.031	0.113	0.048
-328.172	-53.629	0.083	-0.038
-327.158	-151.377	0.128	0.009
-326.143	34.806	-0.214	-0.187
-325.129	17.761	0.149	-0.119
-324.114	324.798	-0.061	0.116
-323.099	130.069	-0.210	0.268
-322.085	57.123	-0.108	0.105
-321.070	120.816	0.089	0.110
-320.056	-163.284	-0.235	0.011
-319.041	77.302	0.280	0.297
-318.026	366.528	0.037	0.075
-317.012	108.264	0.107	-0.128
-315.997	-4.259	0.142	0.098
-314.983	-58.763	0.293	0.126
-313.968	65.712	0.234	-0.236
-312.953	-30.942	0.128	-0.072
-311.939	-69.862	0.226	-0.086
-310.924	-1.768	0.190	-0.133
-309.910	-200.000	-0.010	-0.102
-308.895	-93.432	-0.219	0.060
-307.880	479.489	0.135	-0.304
-306.866	-200.000	0.051	-0.401
-305.851	29.337	-0.042	-0.035
-304.837	-200.000	0.035	0.481
-303.822	258.472	-0.010	0.017
-302.807	221.977	0.053	0.085
-301.793	261.073	0.101	-0.174
-300.778	-141.362	0.413	-0.042
-299.764	-79.752	0.163	0.054
-298.749	98.954	-0.196	0.225
-297.735	188.603	0.069	-0.102
-296.720	561.128	-0.108	0.259
-295.705	6.381	0.157	0.116
-294.691	530.345	-0.064	0.150
-293.676	390.215	0.133	-0.275
-292.662	-200.000	0.081	-0.379
-291.647	-200.000	0.004	0.106
-290.632	303.762	-0.120	0.222
-289.618	188.101	-0.295	-0.439
-288.603	-200.000	-0.017	0.147
-287.589	-200.000	-0.018	-0.169
-286.574	374.748	0.125	0.252
-285.559	-130.622	-0.399	0.053
-284.545	800.000	0.071	-0.224
-283.530	800.000	0.030	-0.086
-282.516	501.255	0.079	0.182
-281.501	-109.540	0.384	0.081
-280.486	52.224	0.293	0.278
-279.472	-83.760	-0.316	0.100
-278.457	800.000	-0.084	0.246
-277.443	-2.625	0.157	-0.109
-276.428	-40.453	-0.193	0.100
-275.413	-200.000	-0.040	-0.222
-274.399	116.049	-0.210	-0.255
-273.384	-72.891	0.353	0.129
-272.370	-200.000	-0.051	-0.388
-271.355	-200.000	-0.008	0.247
-270.340	11.824	0.265	0.203
-269.326	43.037	0.285	0.258
-268.311	85.864	0.191	-0.209
-267.297	105.369	0.178	0.209
-266.282	54.631	-0.274	-0.262
-265.267	-5.545	0.475	-0.324
-264.253	230.461	-0.165	0.269
-263.238	-200.000	0.027	-0.176
-262.224	800.000	0.113	-0.416
-261.209	800.000	0.064	-0.231
-260.195	249.005	-0.131	-0.220
-259.180	291.258	-0.125	0.227
-258.165	25.010	-0.289	0.238
-257.151	168.594	-0.052	0.074
-256.136	-155.293	0.046	-0.003
-255.122	-121.393	0.386	-0.064
-254.107	618.235	-0.111	-0.276
-253.092	-133.467	-0.180	0.022
-252.078	-104.887	-0.081	0.019
-251.063	218.599	-0.225	-0.357
-250.049	-200.000	-0.008	0.184
-249.034	251.556	0.168	0.284
-248.019	-6.788	0.297	-0.201
-247.005	-77.018	-0.363	-0.126
-245.990	-200.000	0.047	0.215
-244.976	-109.960	0.295	0.061
-243.961	148.419	-0.190	0.255
-242.946	454.252	-0.085	0.187
-241.932	231.077	0.065	0.106
-240.917	209.863	-0.226	0.351
-239.903	-200.000	0.048	0.254
-238.888	-125.310	0.143	-0.022
-237.873	-11.871	-0.140	0.091
-236.859	-156.566	0.444	-0.027
-235.844	6.336	0.208	-0.153
-234.830	800.000	0.107	-0.315
-233.815	17.165	-0.338	0.266
-232.800	520.867	0.151	-0.351
-231.786	92.908	-0.203	0.228
-230.771	-86.942	-0.192	-0.058
-229.757	-200.000	0.326	0.001
-228.742	305.264	0.103	-0.189
-227.727	800.000	-0.026	0.080
-226.713	-53.003	0.248	-0.113
-225.698	800.000	0.075	-0.266
-224.684	-39.507	0.115	-0.060
-223.669	505.014	-0.154	0.354
-222.655	284.591	0.066	0.117
-221.640	-83.595	0.170	0.054
-220.625	-38.895	-0.107	-0.056
-219.611	-149.292	-0.153	0.012
-218.596	1.101	-0.102	0.072
-217.582	-200.000	-0.040	0.176
-216.567	44.811	0.137	-0.125
-215.552	-200.000	0.012	-0.221
-214.538	348.468	-0.067	-0.131
-213.523	-200.000	0.014	-0.318
-212.509	-200.000	-0.015	0.121
-211.494	-100.025	-0.071	0.017
-210.479	106.654	0.073	0.086
-209.465	-2.721	0.062	-0.043
-208.450	152.792	-0.182	0.246
-207.436	461.538	0.032	-0.071
-206.421	-24.676	-0.161	0.095
-205.406	285.856	-0.218	-0.390
-204.392	-200.000	-0.065	-0.455
-203.377	126.877	0.119	0.150
-202.363	48.639	-0.199	0.185
-201.348	-200.000	0.029	-0.140
-200.333	-153.789	-0.088	0.006
-199.319	-48.725	-0.123	0.059
-198.304	-62.124	0.287	0.119
-197.290	-122.327	-0.254	-0.041
-196.275	-130.741	0.134	0.018
-195.260	217.252	0.092	-0.145
-194.246	35.032	-0.194	0.169
-193.231	326.824	-0.069	-0.131
-192.217	-23.728	-0.162	-0.096
-191.202	800.000	0.067	0.280
-190.187	-200.000	-0.028	-0.338
-189.173	-33.566	0.143	-0.078
-188.158	800.000	0.027	0.108
-187.144	-14.431	0.077	-0.049
-186.129	-165.302	-0.277	-0.012
-185.114	-33.565	0.214	-0.117
-184.100	-136.333	0.386	-0.045
-183.085	414.993	-0.068	-0.144
-182.071	50.670	-0.094	0.089
-181.056	108.758	-0.049	0.058
-180.042	800.000	-0.035	0.132
-179.027	-46.054	0.268	-0.131
-178.012	-24.857	0.193	-0.114
-176.998	315.273	0.153	0.286
-175.983	154.230	-0.113	-0.154
-174.969	343.147	-0.208	-0.404
-173.954	94.877	0.368	-0.415
-172.939	800.000	-0.131	-0.371
-171.925	361.730	0.127	0.252
-170.910	538.675	-0.227	0.534
-169.896	-157.511	0.233	0.014
-168.881	-10.639	0.237	-0.155
-167.866	-104.155	-0.457	0.105
-166.852	800.000	0.114	-0.455
-165.837	177.844	-0.070	-0.101
-164.823	417.438	0.113	-0.240
-163.808	220.260	-0.065	-0.103
-162.793	666.019	-0.027	-0.070
-161.779	-200.000	0.036	0.185
-160.764	-57.692	-0.129	0.056
-159.750	78.936	-0.202	0.214
-158.735	-61.217	0.366	-0.153
-157.720	-121.612	-0.240	-0.039
-156.706	-183.773	0.177	-0.003
-155.691	-33.622	-0.319	0.174
-154.677	-148.327	-0.207	0.017
-153.662	-200.000	0.012	0.372
-152.647	533.890	0.106	0.250
-151.633	-130.395	0.243	0.033
-150.618	184.093	-0.126	0.185
-149.604	800.000	0.020	-0.071
-148.589	-127.071	0.150	-0.022
-147.574	-200.000	0.031	0.201
-146.560	800.000	0.096	-0.307
-145.545	800.000	-0.134	-0.404
-144.531	-169.943	-0.188	0.007
-143.516	800.000	0.061	0.184
-142.502	-71.593	0.069	0.026
-141.487	299.120	0.120	0.219
-140.472	-200.000	-0.000	-0.125
-139.458	-1.108	-0.037	0.026
-138.443	98.647	0.094	0.107
-137.429	134.757	0.109	0.140
-136.414	-73.637	0.526	-0.190
-135.399	800.000	-0.033	0.136
-134.385	-200.000	0.052	0.307
-133.370	100.952	0.207	-0.238
-132.356	-24.927	0.222	-0.130
-131.341	-31.744	0.193	0.107
-130.326	-46.553	-0.204	-0.099
-129.312	-200.000	0.017	-0.192
-128.297	157.453	0.076	0.104
-127.283	35.948	-0.241	0.210
-126.268	-145.582	0.397	-0.035
-125.253	-200.000	-0.027	0.195
-124.239	-92.542	-0.478	-0.133
-123.224	118.158	-0.092	0.112
-122.210	-72.975	0.137	-0.050
-121.195	221.447	-0.301	0.479
-120.180	644.188	-0.040	0.100
-119.166	-60.944	0.034	0.014
-118.151	38.076	-0.247	0.217
-117.137	14.522	-0.437	-0.338
-116.122	800.000	0.036	0.127
-115.107	-103.297	-0.190	0.044
-114.093	-200.000	-0.002	-0.343
-113.078	293.836	-0.178	-0.321
-112.064	68.940	-0.144	-0.146
-111.049	-59.752	-0.218	0.092
-110.034	-37.519	-0.236	0.125
-109.020	-104.079	-0.124	-0.029
-108.005	48.673	-0.166	0.154
-106.991	290.055	0.120	0.215
-105.976	800.000	-0.021	-0.057
-104.962	107.774	0.084	-0.099
-103.947	93.945	-0.252	0.282
-102.932	800.000	0.039	0.117
-101.918	-82.901	0.110	-0.035
-100.903	493.771	-0.051	-0.116
-99.889	246.744	0.082	0.136
-98.874	454.876	-0.210	-0.459
-97.859	417.916	0.100	0.211
-96.845	800.000	0.098	-0.313
-95.830	-20.621	-0.244	-0.148
-94.816	273.571	0.074	-0.129
-93.801	209.957	0.119	0.184
-92.786	321.977	0.070	0.131
-91.772	43.759	0.140	0.127
-90.757	-121.024	0.035	0.006
-89.743	-59.108	0.203	0.086
-88.728	270.598	-0.024	-0.042
-87.713	21.386	0.023	0.019
-86.699	-182.825	0.188	-0.003
-85.684	580.238	-0.041	0.099
-84.670	-109.084	0.170	0.036
-83.655	66.048	-0.231	0.232
-82.640	-200.000	0.001	-0.275
-81.626	-55.789	-0.034	0.015
-80.611	-200.000	0.023	-0.129
-79.597	-0.500	-0.326	0.229
-78.582	119.968	-0.024	0.030
-77.567	258.582	-0.246	0.419
-76.553	-93.233	0.188	-0.052
-75.538	-200.000	-0.011	0.282
-74.524	-92.942	-0.191	0.053
-73.509	-186.554	-0.263	0.004
-72.494	-120.214	0.213	-0.036
-71.480	5.041	-0.098	-0.071
-70.465	-126.168	-0.357	-0.053
-69.451	240.780	-0.167	0.274
-68.436	41.114	0.246	0.220
-67.422	785.198	0.098	0.266
-66.407	-136.932	0.289	-0.033
-65.392	-182.146	-0.185	-0.003
-64.378	-187.374	0.061	0.001
-63.363	141.358	-0.101	0.132
-62.349	-200.000	-0.012	0.182
-61.334	102.819	-0.721	-0.832
-60.319	63.607	0.593	0.587
-59.305	394.849	-0.407	-0.837
-58.290	389.332	0.455	0.930
-57.276	800.000	0.543	1.640
-56.261	-200.000	92.649	518.375
-55.246	572.587	1369.425	3290.526
-54.232	185.891	2619.189	3839.035
-53.217	112.210	2331.692	2779.368
-52.203	44.375	1941.547	1757.653
-51.188	38.240	1724.478	1513.753
-50.173	35.465	1678.998	1452.803
-49.159	51.148	1726.506	1614.646
-48.144	54.389	1743.998	1655.818
-47.130	37.871	1701.005	1490.090
-46.115	35.107	1685.393	1455.386
-45.100	34.827	1681.022	1449.426
-44.086	34.715	1678.550	1446.393
-43.071	34.742	1676.073	1444.405
-42.057	34.719	1673.307	1441.789
-41.042	34.768	1671.102	1440.201
-40.027	34.846	1668.812	1438.759
-39.013	34.743	1667.848	1437.097
-37.998	34.693	1665.935	1435.015
-36.984	34.803	1663.983	1434.099
-35.969	34.915	1663.066	1434.092
-34.954	34.897	1661.383	1432.449
-33.940	34.857	1659.029	1430.068
-32.925	34.893	1657.963	1429.360
-31.911	34.947	1656.107	1428.105
-30.896	34.876	1654.274	1425.937
-29.881	34.914	1652.481	1424.618
-28.867	34.920	1651.298	1423.591
-27.852	34.997	1649.494	1422.547
-26.838	34.955	1647.783	1420.703
-25.823	34.995	1646.519	1419.857
-24.809	34.907	1645.487	1418.253
-23.794	35.067	1644.033	1418.135
-22.779	35.064	1642.372	1416.617
-21.765	35.027	1640.188	1414.405
-20.750	34.989	1638.723	1412.808
-19.736	34.951	1637.426	1411.356
-18.721	34.977	1635.672	1409.979
-17.706	34.904	1634.652	1408.502
-16.692	34.991	1632.827	1407.515
-15.677	34.898	1631.799	1405.893
-14.663	34.974	1630.291	1405.094
-13.648	35.032	1628.431	1403.860
-12.633	34.982	1627.081	1402.275
-11.619	35.002	1625.279	1400.808
-10.604	35.021	1623.639	1399.483
-9.590	35.042	1622.213	1398.353
-8.575	34.961	1621.675	1397.243
-7.560	34.955	1620.087	1395.770
-6.546	34.972	1619.281	1395.147
-5.531	35.000	1617.743	1393.973
-4.517	34.942	1616.863	1392.734
-3.502	34.934	1615.686	1391.605
-2.487	34.984	1613.805	1390.293
-1.473	34.922	1602.893	1380.391
-0.458	32.525	1583.220	1346.281
0.556	27.374	1584.077	1316.168
1.571	25.148	1609.600	1320.875
2.586	24.687	1624.037	1329.176
3.600	21.559	1568.681	1261.257
4.615	10.942	1452.265	1096.351
5.629	1.807	1383.015	985.120
6.644	0.264	1373.853	968.594
7.659	0.206	1372.214	966.976
8.673	0.078	1371.375	965.477
9.688	-0.027	1369.878	963.665
10.702	-0.291	1366.900	959.797
11.717	3.141	1373.986	986.731
12.731	13.427	1394.363	1067.948
13.746	21.518	1407.415	1130.328
14.761	23.127	1408.753	1141.701
15.775	23.321	1408.805	1142.893
16.790	23.274	1408.594	1142.318
17.804	23.345	1407.704	1141.948
18.819	23.555	1407.734	1143.225
19.834	23.585	1407.404	1143.048
20.848	23.663	1406.223	1142.495
21.863	23.690	1405.204	1141.735
22.877	23.717	1404.513	1141.247
23.892	23.798	1403.149	1140.558
24.907	23.678	1402.599	1139.242
25.921	23.682	1401.332	1138.136
26.936	23.692	1400.356	1137.308
27.950	23.718	1399.522	1136.696
28.965	23.692	1398.359	1135.485
29.980	23.624	1396.763	1133.652
30.994	23.591	1395.875	1132.624
32.009	23.638	1395.098	1132.190
33.023	23.634	1393.592	1130.844
34.038	23.639	1392.349	1129.766
35.053	23.658	1391.149	1128.815
36.067	23.679	1390.419	1128.256
37.082	23.608	1389.316	1126.811
38.096	23.671	1388.409	1126.377
39.111	23.595	1387.450	1125.016
40.126	23.735	1386.465	1125.000
41.140	23.723	1386.067	1124.504
42.155	23.641	1386.099	1123.913
43.169	23.606	1386.283	1123.738
44.184	23.747	1385.782	1124.124
45.199	23.616	1385.347	1122.845
46.213	23.600	1384.807	1122.205
47.228	23.670	1383.762	1121.701
48.242	23.655	1382.611	1120.574
49.257	23.631	1381.422	1119.360
50.271	23.640	1379.333	1117.627
51.286	23.583	1378.416	1116.426
52.301	23.673	1376.891	1115.661
53.315	23.568	1376.485	1114.569
54.330	23.670	1375.207	1114.080
55.344	23.701	1374.332	1113.467
56.359	23.559	1373.312	1111.652
57.374	23.613	1372.253	1111.033
58.388	23.603	1371.600	1110.341
59.403	23.633	1371.379	1110.253
60.417	23.627	1370.921	1109.747
61.432	23.635	1370.073	1109.013
62.447	23.677	1369.201	1108.468
63.461	23.694	1367.628	1107.207
64.476	23.719	1366.908	1106.679
65.490	23.648	1365.785	1105.229
66.505	23.702	1364.107	1104.113
67.520	23.626	1363.026	1102.667
68.534	23.652	1361.828	1101.760
69.549	23.736	1360.844	1101.390
70.563	23.773	1359.835	1100.704
71.578	23.748	1359.041	1099.807
72.593	23.766	1358.013	1098.989
73.607	23.733	1357.316	1098.128
74.622	23.783	1356.458	1097.645
75.636	23.686	1355.705	1096.337
76.651	23.684	1355.025	1095.677
77.666	23.604	1355.029	1095.092
78.680	23.743	1354.335	1095.289
79.695	23.637	1353.768	1094.081
80.709	23.762	1352.037	1093.353
81.724	23.701	1351.572	1092.508
82.739	23.701	1350.416	1091.475
83.753	23.605	1350.243	1090.650
84.768	23.684	1348.428	1089.569
85.782	23.656	1347.418	1088.488
86.797	23.716	1346.325	1087.874
87.812	23.581	1345.386	1086.192
88.826	23.645	1344.374	1085.670
89.841	23.767	1343.056	1085.258
90.855	23.696	1342.251	1084.076
91.870	23.753	1341.446	1083.681
92.884	23.671	1340.441	1082.272
93.899	23.720	1339.815	1081.971
94.914	23.809	1338.830	1081.619
95.928	23.699	1338.145	1080.298
96.943	23.750	1337.417	1079.926
97.957	23.744	1336.674	1079.195
98.972	23.777	1335.645	1078.469
99.987	23.667	1335.085	1077.256
101.001	23.734	1333.500	1076.286
102.016	23.778	1332.710	1075.819
103.030	23.688	1332.155	1074.731
104.045	23.696	1330.975	1073.733
105.060	23.686	1330.172	1072.932
106.074	23.765	1329.060	1072.414
107.089	23.796	1327.974	1071.634
108.103	23.763	1327.079	1070.617
109.118	23.838	1325.373	1069.595
110.133	23.828	1324.809	1068.989
111.147	23.830	1323.242	1067.636
112.162	23.762	1322.358	1066.426
113.176	23.715	1321.401	1065.274
114.191	23.689	1320.712	1064.467
115.206	23.801	1319.396	1063.986
116.220	23.676	1318.582	1062.484
117.235	23.828	1317.242	1062.220
118.249	23.787	1316.302	1061.124
119.264	23.784	1315.295	1060.200
120.279	23.884	1314.496	1060.059
121.293	23.813	1313.909	1059.071
122.308	23.841	1313.153	1058.531
123.322	23.913	1311.847	1057.813
124.337	23.893	1311.170	1057.058
125.352	23.950	1309.968	1056.333
126.366	23.838	1309.552	1055.237
127.381	23.942	1308.425	1054.856
128.395	23.882	1307.434	1053.606
129.410	23.847	1306.474	1052.531
130.424	23.871	1306.060	1052.249
131.439	23.972	1305.051	1051.940
132.454	23.883	1304.227	1050.657
133.468	23.880	1303.703	1050.121
134.483	23.881	1303.089	1049.538
135.497	23.886	1302.014	1048.610
136.512	23.861	1300.947	1047.510
137.527	23.884	1300.082	1046.859
138.541	23.877	1298.384	1045.358
139.556	23.837	1297.543	1044.351
140.570	23.864	1296.426	1043.519
141.585	23.861	1295.432	1042.609
142.600	23.868	1294.740	1042.003
143.614	23.945	1293.257	1041.166
144.629	23.820	1292.712	1039.906
145.643	23.734	1291.124	1038.031
146.658	23.759	1290.508	1037.593
147.673	23.747	1289.076	1036.280
148.687	23.713	1288.179	1035.268
149.702	23.737	1286.996	1034.366
150.716	23.839	1285.875	1033.968
151.731	23.833	1284.871	1033.032
152.746	23.810	1283.816	1031.961
153.760	23.781	1283.129	1031.145
154.775	23.847	1281.816	1030.385
155.789	23.873	1281.260	1029.998
156.804	23.769	1280.380	1028.596
157.819	23.827	1279.284	1027.958
158.833	23.789	1278.608	1027.103
159.848	24.008	1277.418	1027.324
160.862	23.873	1276.678	1025.861
161.877	23.899	1276.290	1025.604
162.892	23.889	1275.154	1024.544
163.906	23.944	1274.578	1024.305
164.921	24.013	1273.730	1023.932
165.935	23.927	1272.921	1022.697
166.950	23.844	1272.691	1021.945
167.964	23.853	1271.511	1020.957
168.979	23.944	1271.190	1021.134
169.994	23.976	1270.471	1020.646
171.008	24.000	1269.759	1020.123
172.023	23.961	1269.165	1019.332
173.037	23.999	1268.510	1018.933
174.052	23.975	1268.178	1018.442
175.067	23.949	1267.177	1017.396
176.081	23.913	1266.329	1016.420
177.096	23.951	1264.939	1015.430
178.110	23.932	1264.778	1015.103
179.125	23.906	1263.558	1013.887
180.140	23.966	1262.513	1013.302
181.154	24.033	1260.966	1012.353
182.169	23.955	1260.355	1011.329
183.183	23.960	1259.072	1010.237
184.198	24.081	1258.014	1009.986
185.213	24.031	1256.868	1008.690
186.227	24.022	1256.219	1008.031
187.242	24.115	1255.310	1007.737
188.256	24.060	1254.708	1006.853
189.271	24.033	1253.692	1005.795
190.286	24.116	1252.914	1005.556
191.300	24.068	1252.422	1004.798
192.315	24.066	1251.788	1004.191
193.329	23.978	1251.664	1003.508
194.344	23.984	1251.445	1003.274
195.359	24.079	1250.574	1003.026
196.373	23.966	1250.296	1002.072
197.388	23.939	1249.814	1001.450
198.402	23.989	1249.705	1001.556
199.417	24.012	1249.096	1001.107
200.432	24.038	1248.285	1000.512
201.446	23.999	1247.441	999.531
202.461	24.049	1246.811	999.219
203.475	24.099	1246.010	998.765
204.490	24.094	1245.094	997.916
205.504	24.047	1244.137	996.800
206.519	24.097	1243.419	996.415
207.534	24.061	1242.125	995.091
208.548	24.035	1241.287	994.186
209.563	23.992	1240.676	993.365
210.577	24.116	1239.789	993.259
211.592	24.020	1239.084	992.069
212.607	24.228	1237.840	992.146
213.621	24.126	1237.566	991.268
214.636	24.169	1236.233	990.356
215.650	24.180	1235.650	989.859
216.665	24.094	1235.068	988.832
217.680	24.158	1233.728	988.023
218.694	24.196	1232.935	987.510
219.709	24.072	1232.613	986.478
220.723	24.194	1231.488	986.165
221.738	24.143	1230.921	985.344
222.753	24.134	1230.376	984.774
223.767	24.161	1229.702	984.291
224.782	24.222	1229.329	984.244
225.796	24.225	1228.789	983.743
226.811	24.232	1228.162	983.190
227.826	24.220	1227.411	982.439
228.840	24.198	1226.866	981.791
229.855	24.314	1226.062	981.699
230.869	24.153	1225.869	980.574
231.884	24.234	1224.909	980.163
232.899	24.214	1224.256	979.447
233.913	24.238	1223.959	979.251
234.928	24.331	1223.193	979.062
235.942	24.285	1222.379	978.073
236.957	24.351	1221.548	977.685
237.972	24.211	1221.246	976.589
238.986	24.279	1220.556	976.321
240.001	24.272	1220.040	975.787
241.015	24.522	1218.984	976.223
242.030	24.341	1218.306	974.604
243.045	24.475	1217.170	974.337
244.059	24.373	1216.440	973.109
245.074	24.397	1215.532	972.431
246.088	24.436	1215.176	972.273
247.103	24.465	1213.878	971.307
248.117	24.444	1213.082	970.470
249.132	24.489	1212.270	969.977
250.147	24.521	1211.767	969.662
251.161	24.447	1211.408	968.887
252.176	24.545	1210.468	968.581
253.190	24.607	1209.729	968.238
254.205	24.426	1209.645	967.105
255.220	24.456	1208.737	966.456
256.234	24.587	1207.909	966.419
257.249	24.534	1207.243	965.515
258.263	24.488	1207.009	964.994
259.278	24.523	1206.214	964.460
260.293	24.619	1205.776	964.545
261.307	24.508	1205.764	963.851
262.322	24.523	1204.846	963.111
263.336	24.636	1203.727	962.740
264.351	24.559	1203.526	962.080
265.366	24.638	1202.471	961.578
266.380	24.650	1201.923	961.119
267.395	24.604	1201.390	960.358
268.409	24.496	1201.067	959.438
269.424	24.476	1200.516	958.806
270.439	24.615	1199.784	958.880
271.453	24.618	1198.798	958.022
272.468	24.585	1198.000	957.126
273.482	24.560	1197.396	956.422
274.497	24.672	1196.941	956.572
275.512	24.685	1196.444	956.163
276.526	24.576	1195.683	954.889
277.541	24.681	1195.085	954.885
278.555	24.656	1194.688	954.349
279.570	24.734	1193.968	954.109
280.585	24.599	1192.920	952.465
281.599	24.787	1191.660	952.378
282.614	24.662	1191.010	951.107
283.628	24.817	1190.435	951.387
284.643	24.744	1189.424	950.108
285.657	24.667	1188.975	949.254
286.672	24.753	1187.737	948.642
287.687	24.802	1186.818	948.084
288.701	24.865	1186.444	948.033
289.716	24.876	1185.463	947.226
290.730	24.883	1184.586	946.473
291.745	24.799	1184.313	945.728
292.760	24.790	1183.970	945.326
293.774	24.766	1183.190	944.489
294.789	24.822	1182.644	944.265
295.803	24.840	1181.607	943.449
296.818	24.877	1181.339	943.346
297.833	24.849	1181.020	942.865
298.847	24.830	1180.091	941.938
299.862	24.908	1178.885	941.300
300.876	24.790	1178.752	940.492
301.891	24.887	1178.168	940.454
302.906	25.063	1177.234	940.546
303.920	24.940	1176.566	939.285
304.935	24.977	1176.032	938.968
305.949	24.923	1175.475	938.158
306.964	24.924	1174.805	937.544
307.979	24.986	1174.328	937.408
308.993	24.917	1173.721	936.480
310.008	25.042	1172.847	936.354
311.022	25.090	1172.035	935.873
312.037	25.081	1171.091	934.986
313.052	24.958	1170.828	934.053
314.066	25.053	1169.456	933.374
315.081	24.977	1168.455	932.093
316.095	24.949	1168.355	931.784
317.110	25.032	1167.744	931.648
318.125	25.139	1166.896	931.445
319.139	25.101	1166.002	930.452
320.154	24.969	1165.729	929.465
321.168	25.069	1164.799	929.162
322.183	25.135	1164.368	929.079
323.197	25.186	1163.592	928.639
324.212	24.995	1163.756	927.702
325.227	25.078	1162.986	927.432
326.241	25.230	1162.068	927.403
327.256	25.179	1161.494	926.601
328.270	25.191	1160.752	925.987
329.285	25.129	1159.947	924.944
330.300	25.244	1158.881	924.604
331.314	25.153	1158.507	923.759
332.329	25.169	1157.545	922.991
333.343	25.211	1156.919	922.628
334.358	25.277	1155.569	921.805
335.373	25.209	1155.139	921.036
336.387	25.253	1154.753	920.868
337.402	25.221	1154.128	920.125
338.416	25.236	1153.272	919.441
339.431	25.230	1153.220	919.286
340.446	25.324	1152.095	918.789
341.460	25.356	1151.429	918.341
342.475	25.328	1150.960	917.740
343.489	25.285	1149.988	916.663
344.504	25.321	1149.008	915.984
345.519	25.353	1148.108	915.349
346.533	25.331	1147.387	914.585
347.548	25.349	1146.242	913.683
348.562	25.410	1145.733	913.507
349.577	25.327	1145.389	912.728
350.592	25.391	1144.218	912.039
351.606	25.386	1143.773	911.576
352.621	25.469	1143.037	911.332
353.635	25.409	1143.061	910.966
354.650	25.378	1142.281	910.104
355.665	25.523	1141.315	909.988
356.679	25.524	1140.838	909.533
357.694	25.432	1140.530	908.744
358.708	25.396	1139.686	907.806
359.723	25.437	1138.930	907.333
360.738	25.451	1137.874	906.482
361.752	25.473	1137.438	906.167
362.767	25.510	1136.890	905.835
363.781	25.486	1136.492	905.318
364.796	25.617	1135.931	905.448
365.810	25.743	1134.788	905.090
366.825	25.717	1134.414	904.584
367.840	25.623	1134.383	904.004
368.854	25.762	1133.491	903.912
369.869	25.682	1132.647	902.756
370.883	25.755	1131.730	902.315
371.898	25.619	1131.306	901.215
372.913	25.569	1130.950	900.602
373.927	25.623	1130.357	900.319
374.942	25.759	1129.612	900.327
375.956	25.745	1129.172	899.824
376.971	25.674	1128.772	899.075
377.986	25.802	1128.071	899.072
379.000	25.790	1127.809	898.725
380.015	25.740	1127.317	898.006
381.029	25.864	1126.108	897.580
382.044	25.774	1125.834	896.834
383.059	25.876	1125.078	896.660
384.073	25.770	1124.464	895.565
385.088	25.910	1123.705	895.576
386.102	25.883	1122.279	894.226
387.117	25.821	1121.910	893.546
388.132	25.859	1121.185	893.079
389.146	25.880	1119.788	891.988
390.161	25.841	1119.524	891.507
391.175	25.810	1119.330	891.119
392.190	25.821	1118.457	890.400
393.205	25.833	1117.812	889.870
394.219	25.922	1116.842	889.457
395.234	25.953	1116.010	888.869
396.248	25.872	1115.507	887.987
397.263	25.988	1114.364	887.571
398.278	26.118	1114.044	887.876
399.292	25.985	1113.546	886.750
400.307	26.032	1112.755	886.269
401.321	25.942	1112.315	885.398
402.336	26.001	1111.516	884.975
403.350	26.022	1110.406	884.118
404.365	26.022	1110.095	883.791
405.380	26.200	1109.349	883.987
406.394	26.108	1108.648	882.902
407.409	26.163	1107.746	882.374
408.423	26.100	1107.131	881.497
409.438	26.146	1106.372	881.040
410.453	26.093	1106.092	880.481
411.467	26.192	1105.029	880.042
412.482	26.154	1104.440	879.311
413.496	26.198	1103.976	879.075
414.511	26.138	1103.192	878.083
415.526	26.117	1102.760	877.557
416.540	26.186	1102.387	877.517
417.555	26.210	1101.802	877.093
418.569	26.239	1101.301	876.754
419.584	26.208	1101.264	876.498
420.599	26.310	1100.462	876.276
421.613	145.840	1402.783	1791.924
422.628	135.221	1446.857	1792.018
