DTS Sentinel unit serial number:	SN413079Multiplexer serial number:	ORYXHardware model number:	OX4-SRSoftware version number:	ORYX F/W v4.00 Oryx Data Collector v3.7.2.0data status	okinstallation	princeton_trtdifferential loss correction	single-endedforward channel	channel 2reverse channel	N/Adate	2019/09/12time	02:57:11forward acquisition time	60.00reverse acquisition time	0.00gamma	496.2192k internal	0.2326k external	0.2326temperature offset calibration	1.0096default loss term (dB/km)	0.3790temperature slope calibration	1.0000multiplexer offset coefficient	1.0000multiplexer slope coefficient	1.0000fibre end	0.00T internal ref (°C)	32.31T ext. ref 1 (°C)	2.10T ext. ref 2 (°C)	27.16length (m)	temperature (°C)	Stokes	anti-Stokes-747.200	-101.249	0.104	-0.026
-746.185	484.685	-0.067	0.155
-745.171	33.702	0.109	0.096
-744.156	800.000	-0.114	0.395
-743.142	-200.000	0.009	0.389
-742.127	-56.834	-0.283	-0.126
-741.112	167.639	-0.128	0.183
-740.098	722.637	0.021	0.057
-739.083	-200.000	0.001	0.061
-738.069	-200.000	-0.072	0.345
-737.054	98.715	-0.251	0.292
-736.039	-124.064	-0.420	0.066
-735.025	800.000	-0.060	-0.211
-734.010	-200.000	0.008	-0.326
-732.996	131.258	0.027	-0.035
-731.981	-43.670	0.258	-0.131
-730.966	61.436	0.256	-0.257
-729.952	86.925	-0.195	-0.217
-728.937	-98.217	0.358	-0.093
-727.923	9.593	0.121	0.092
-726.908	-58.276	0.142	-0.062
-725.894	-200.000	-0.066	-0.354
-724.879	-119.796	-0.139	-0.024
-723.864	-138.673	0.192	-0.021
-722.850	20.505	-0.375	0.306
-721.835	792.432	-0.143	0.397
-720.821	800.000	0.017	0.053
-719.806	106.751	0.104	-0.124
-718.791	398.513	-0.102	-0.215
-717.777	102.849	-0.252	0.297
-716.762	103.514	0.101	0.120
-715.748	-150.054	-0.013	-0.001
-714.733	-200.000	0.015	0.179
-713.718	78.429	-0.082	0.089
-712.704	-62.238	-0.168	0.070
-711.689	231.688	0.181	-0.299
-710.675	19.536	0.194	0.157
-709.660	148.454	0.136	-0.185
-708.645	-200.000	-0.022	-0.183
-707.631	-67.795	-0.148	0.058
-706.616	172.001	-0.087	0.126
-705.602	-89.710	0.162	-0.048
-704.587	155.202	-0.112	-0.155
-703.572	167.761	0.093	0.134
-702.558	-53.128	0.199	-0.092
-701.543	800.000	-0.095	-0.342
-700.529	66.585	-0.035	-0.036
-699.514	-200.000	0.026	-0.123
-698.499	800.000	-0.106	-0.338
-697.485	-24.440	-0.135	-0.081
-696.470	142.497	0.158	0.211
-695.456	130.128	-0.085	-0.110
-694.441	149.831	-0.111	-0.151
-693.426	4.101	0.194	0.143
-692.412	97.788	0.123	-0.142
-691.397	256.970	0.186	-0.321
-690.383	-107.330	0.105	-0.023
-689.368	-141.315	-0.105	0.011
-688.354	309.493	-0.075	0.141
-687.339	-16.643	0.183	0.117
-686.324	800.000	0.062	-0.222
-685.310	-142.925	-0.302	-0.029
-684.295	-200.000	0.020	0.181
-683.281	217.584	-0.131	0.210
-682.266	404.443	0.066	0.140
-681.251	-116.237	-0.429	0.080
-680.237	800.000	0.032	0.122
-679.222	-90.755	-0.236	-0.068
-678.208	800.000	-0.101	0.442
-677.193	-88.969	0.205	0.061
-676.178	220.708	0.029	-0.047
-675.164	0.163	-0.078	0.056
-674.149	13.160	-0.232	-0.180
-673.135	73.966	-0.213	-0.224
-672.120	-174.453	0.327	0.009
-671.105	685.393	-0.042	-0.110
-670.091	2.104	-0.177	-0.128
-669.076	-200.000	-0.045	0.270
-668.062	-200.000	0.006	-0.070
-667.047	-100.004	-0.283	-0.071
-666.032	98.973	0.282	0.327
-665.018	-15.801	0.210	-0.135
-664.003	-52.047	0.100	-0.047
-662.989	223.553	-0.039	-0.063
-661.974	165.244	0.018	0.026
-660.959	123.847	-0.148	0.187
-659.945	2.901	-0.062	-0.045
-658.930	215.535	0.053	0.084
-657.916	-8.587	-0.063	0.042
-656.901	800.000	-0.158	-0.446
-655.886	-95.743	-0.330	-0.089
-654.872	43.797	-0.028	-0.026
-653.857	800.000	-0.042	-0.146
-652.843	-108.408	-0.201	-0.043
-651.828	302.692	0.022	0.041
-650.814	-57.966	-0.078	0.034
-649.799	800.000	0.026	-0.104
-648.784	425.610	0.130	-0.281
-647.770	-149.703	0.423	0.033
-646.755	224.404	0.099	0.161
-645.741	30.184	-0.138	-0.118
-644.726	732.950	0.086	-0.232
-643.711	-78.350	0.187	0.064
-642.697	-200.000	0.006	-0.076
-641.682	-99.705	-0.262	0.066
-640.668	-200.000	0.010	-0.247
-639.653	-136.282	-0.065	0.008
-638.638	-189.079	-0.175	0.002
-637.624	269.368	-0.057	-0.101
-636.609	65.375	-0.280	0.285
-635.595	40.393	-0.260	0.235
-634.580	2.549	0.085	0.062
-633.565	-124.634	-0.144	-0.022
-632.551	-70.613	-0.233	-0.089
-631.536	208.558	-0.062	-0.097
-630.522	-92.729	0.251	0.070
-629.507	43.315	0.404	-0.371
-628.492	439.989	0.082	0.180
-627.478	-200.000	0.022	0.157
-626.463	227.903	-0.116	-0.190
-625.449	474.360	-0.123	-0.278
-624.434	22.428	0.480	0.394
-623.419	-200.000	-0.041	-0.282
-622.405	-51.934	0.380	-0.178
-621.390	-164.143	0.126	-0.006
-620.376	-131.855	0.043	-0.006
-619.361	-137.889	-0.202	0.023
-618.346	-200.000	-0.014	0.104
-617.332	-197.957	-0.182	-0.001
-616.317	452.442	0.185	-0.411
-615.303	-200.000	-0.066	-0.343
-614.288	-62.163	0.451	0.189
-613.273	-200.000	0.021	0.306
-612.259	220.220	-0.029	-0.047
-611.244	-55.312	-0.300	-0.135
-610.230	153.897	-0.186	-0.255
-609.215	-94.859	-0.205	-0.056
-608.201	-193.873	-0.286	0.002
-607.186	-19.043	-0.246	0.154
-606.171	41.993	-0.141	-0.128
-605.157	-139.340	0.247	-0.027
-604.142	622.006	0.060	-0.152
-603.128	-120.714	0.041	0.007
-602.113	-20.645	0.067	-0.041
-601.098	-200.000	-0.013	0.143
-600.084	-5.227	0.096	-0.066
-599.069	198.089	-0.091	-0.139
-598.055	-200.000	-0.011	0.116
-597.040	64.746	-0.025	0.025
-596.025	-200.000	-0.001	-0.063
-595.011	19.720	-0.103	-0.083
-593.996	-190.836	0.213	0.002
-592.982	-65.737	-0.194	-0.078
-591.967	26.184	-0.199	0.167
-590.952	-200.000	0.013	0.208
-589.938	800.000	-0.048	-0.170
-588.923	-200.000	-0.001	-0.144
-587.909	-37.864	0.367	0.195
-586.894	-43.659	-0.124	-0.062
-585.879	-30.873	0.217	0.123
-584.865	88.948	0.080	-0.089
-583.850	82.771	0.142	-0.155
-582.836	-51.604	-0.279	-0.131
-581.821	96.360	-0.160	0.184
-580.806	389.248	-0.059	0.122
-579.792	-200.000	0.003	-0.268
-578.777	-200.000	0.023	0.232
-577.763	336.842	-0.116	-0.226
-576.748	254.714	0.108	-0.186
-575.733	-200.000	-0.018	0.087
-574.719	-197.950	0.207	-0.001
-573.704	614.471	-0.137	-0.343
-572.690	-200.000	0.006	-0.133
-571.675	-153.775	-0.369	0.025
-570.661	-44.538	0.034	-0.017
-569.646	-200.000	0.053	0.410
-568.631	-21.573	0.125	0.076
-567.617	302.570	0.186	0.346
-566.602	800.000	0.082	-0.279
-565.588	-54.336	-0.386	-0.175
-564.573	13.713	-0.045	0.035
-563.558	-200.000	0.031	0.316
-562.544	-200.000	0.035	-0.218
-561.529	-77.083	0.082	-0.029
-560.515	-72.382	-0.314	0.116
-559.500	-67.772	-0.166	-0.065
-558.485	769.620	-0.081	-0.221
-557.471	127.268	-0.289	0.367
-556.456	100.735	0.177	-0.206
-555.442	-74.207	0.122	-0.044
-554.427	800.000	0.029	-0.096
-553.412	29.683	-0.098	-0.084
-552.398	-42.679	0.114	-0.058
-551.383	-7.060	-0.158	0.107
-550.369	659.712	0.131	-0.338
-549.354	183.855	0.218	-0.323
-548.339	42.855	0.103	-0.094
-547.325	194.315	0.118	0.179
-546.310	-49.599	0.320	0.153
-545.296	413.712	0.096	-0.204
-544.281	192.151	-0.152	0.229
-543.266	800.000	-0.097	0.307
-542.252	-104.117	-0.278	0.065
-541.237	-153.161	0.311	0.022
-540.223	49.929	-0.116	0.110
-539.208	-41.093	-0.427	-0.221
-538.193	-200.000	-0.026	-0.236
-537.179	128.554	-0.140	-0.179
-536.164	-37.264	0.098	0.052
-535.150	-98.561	-0.147	0.038
-534.135	-16.797	0.275	-0.174
-533.121	-200.000	-0.043	0.238
-532.106	-200.000	0.023	0.146
-531.091	586.660	-0.027	0.065
-530.077	-200.000	-0.025	0.168
-529.062	19.302	-0.117	0.094
-528.048	-31.382	0.250	-0.141
-527.033	63.826	-0.161	0.162
-526.018	463.332	-0.097	0.217
-525.004	-155.014	-0.100	0.007
-523.989	-54.754	0.184	0.083
-522.975	44.264	-0.145	0.133
-521.960	658.311	-0.088	0.226
-520.945	-52.906	0.227	-0.105
-519.931	91.738	0.086	-0.097
-518.916	-18.738	0.135	-0.084
-517.902	-133.557	-0.248	-0.031
-516.887	644.571	-0.079	0.202
-515.872	46.039	0.163	-0.151
-514.858	-94.257	-0.233	0.064
-513.843	-200.000	-0.012	0.124
-512.829	211.591	-0.149	0.235
-511.814	-120.323	-0.130	0.022
-510.799	-200.000	0.010	-0.106
-509.785	553.049	0.106	0.254
-508.770	-152.511	0.268	0.019
-507.756	800.000	0.088	0.281
-506.741	-61.274	0.380	-0.160
-505.726	4.290	-0.059	-0.044
-504.712	22.948	0.093	-0.076
-503.697	-200.000	0.049	0.265
-502.683	-102.682	0.063	-0.015
-501.668	403.173	-0.038	0.080
-500.653	91.191	0.221	-0.248
-499.639	-65.859	0.079	0.032
-498.624	-200.000	0.057	0.421
-497.610	30.635	0.068	-0.058
-496.595	-28.813	-0.208	-0.120
-495.581	-60.523	0.090	-0.038
-494.566	-37.427	-0.418	-0.223
-493.551	-58.331	0.258	0.112
-492.537	-33.625	0.259	0.143
-491.522	-110.499	0.177	0.037
-490.508	59.194	0.043	0.042
-489.493	-120.045	-0.161	-0.027
-488.478	124.515	-0.115	0.145
-487.464	192.818	0.219	0.330
-486.449	-200.000	-0.007	0.270
-485.435	186.063	0.093	-0.138
-484.420	-151.874	-0.186	-0.014
-483.405	329.743	0.150	-0.288
-482.391	-65.345	-0.385	-0.155
-481.376	-81.981	0.317	0.103
-480.362	326.217	-0.080	-0.153
-479.347	-19.089	-0.293	0.181
-478.332	19.058	0.250	0.200
-477.318	800.000	0.033	-0.093
-476.303	-123.578	0.294	-0.047
-475.289	605.818	0.022	0.055
-474.274	7.966	-0.057	-0.042
-473.259	-200.000	-0.008	-0.115
-472.245	212.367	0.085	0.134
-471.230	78.696	0.201	-0.215
-470.216	69.201	-0.187	-0.192
-469.201	-200.000	-0.049	-0.323
-468.186	-42.254	0.096	-0.049
-467.172	108.538	0.140	-0.166
-466.157	-10.821	-0.110	-0.073
-465.143	-130.061	0.152	-0.021
-464.128	-200.000	0.029	0.347
-463.113	-200.000	0.028	-0.204
-462.099	120.159	0.037	-0.046
-461.084	800.000	-0.043	0.171
-460.070	41.942	0.082	0.075
-459.055	-8.891	0.103	-0.069
-458.040	-37.957	0.095	0.050
-457.026	-18.171	-0.112	0.070
-456.011	53.682	0.243	0.233
-454.997	143.834	-0.083	-0.111
-453.982	800.000	0.054	-0.182
-452.968	83.667	-0.130	-0.141
-451.953	337.489	0.072	0.140
-450.938	-23.478	-0.237	-0.142
-449.924	599.387	0.181	-0.447
-448.909	363.647	0.066	-0.132
-447.895	-136.550	0.193	0.022
-446.880	28.304	0.267	0.225
-445.865	-76.597	0.208	0.073
-444.851	49.868	-0.255	-0.240
-443.836	800.000	0.010	-0.030
-442.822	-190.155	-0.183	0.002
-441.807	-149.893	0.362	0.028
-440.792	69.883	-0.260	0.268
-439.778	-200.000	0.006	0.100
-438.763	800.000	0.085	0.351
-437.749	428.134	0.053	0.113
-436.734	-36.712	0.131	-0.070
-435.719	418.697	0.047	-0.100
-434.705	695.132	-0.087	0.228
-433.690	800.000	-0.057	-0.174
-432.676	-200.000	-0.013	-0.258
-431.661	-200.000	0.069	-0.326
-430.646	-90.086	0.344	-0.100
-429.632	-37.312	0.225	0.120
-428.617	87.291	0.147	-0.162
-427.603	366.150	0.098	-0.196
-426.588	23.303	0.139	0.113
-425.573	-136.381	-0.210	-0.024
-424.559	-27.116	0.301	-0.175
-423.544	800.000	0.109	-0.317
-422.530	341.720	0.101	-0.198
-421.515	352.533	-0.092	-0.182
-420.500	225.077	0.067	-0.108
-419.486	32.160	-0.169	-0.145
-418.471	-91.163	0.302	0.086
-417.457	-64.827	-0.229	0.092
-416.442	-98.855	-0.209	-0.053
-415.428	-151.337	-0.218	0.016
-414.413	-200.000	0.031	0.346
-413.398	-200.000	-0.003	0.039
-412.384	-2.227	0.101	0.071
-411.369	510.601	0.106	-0.245
-410.355	230.753	-0.182	0.296
-409.340	-65.976	-0.330	0.131
-408.325	800.000	0.005	-0.020
-407.311	-200.000	0.013	-0.229
-406.296	246.156	0.073	-0.122
-405.282	800.000	0.030	-0.109
-404.267	-200.000	-0.005	-0.298
-403.252	-135.365	0.236	0.028
-402.238	-200.000	0.009	0.106
-401.223	260.078	-0.045	0.078
-400.209	-119.377	-0.075	0.013
-399.194	308.217	0.075	-0.139
-398.179	-19.021	-0.150	0.093
-397.165	-80.471	-0.248	0.082
-396.150	76.090	0.209	0.220
-395.136	29.102	0.134	0.113
-394.121	-86.451	0.132	-0.040
-393.106	229.969	-0.165	-0.269
-392.092	-26.956	-0.391	-0.227
-391.077	549.497	-0.126	0.301
-390.063	-50.589	0.087	-0.041
-389.048	-200.000	-0.006	-0.110
-388.033	800.000	0.060	0.247
-387.019	800.000	0.103	0.326
-386.004	-36.531	-0.223	-0.120
-384.990	43.056	0.116	-0.105
-383.975	175.443	-0.042	0.060
-382.960	26.461	-0.222	-0.185
-381.946	-58.793	0.316	-0.136
-380.931	-200.000	0.015	-0.269
-379.917	-200.000	0.030	0.202
-378.902	668.789	0.140	-0.361
-377.888	-200.000	-0.005	0.153
-376.873	-200.000	0.007	-0.070
-375.858	-124.474	0.320	-0.049
-374.844	96.595	0.175	0.199
-373.829	-200.000	0.021	0.127
-372.815	-148.445	0.437	-0.036
-371.800	25.918	-0.143	-0.119
-370.785	46.166	-0.113	0.104
-369.771	280.691	-0.191	0.339
-368.756	800.000	-0.078	0.223
-367.742	-1.423	-0.164	-0.115
-366.727	-50.448	-0.171	0.080
-365.712	230.813	-0.038	-0.061
-364.698	-200.000	-0.040	0.177
-363.683	137.271	0.167	-0.217
-362.669	-1.209	-0.064	-0.045
-361.654	27.833	0.253	-0.212
-360.639	-17.196	0.131	-0.082
-359.625	-69.513	0.215	0.082
-358.610	800.000	-0.026	0.092
-357.596	800.000	-0.104	0.332
-356.581	18.717	-0.123	0.098
-355.566	-54.725	0.265	0.119
-354.552	-49.082	-0.438	-0.208
-353.537	-11.377	-0.071	-0.046
-352.523	-118.454	-0.207	0.036
-351.508	23.116	0.114	0.093
-350.493	-181.416	-0.227	-0.004
-349.479	236.846	-0.066	-0.109
-348.464	-200.000	-0.039	0.435
-347.450	24.280	0.194	-0.159
-346.435	213.808	-0.044	-0.069
-345.420	-60.598	-0.185	-0.078
-344.406	63.933	0.159	0.159
-343.391	800.000	-0.092	0.281
-342.377	-106.404	-0.189	0.042
-341.362	-200.000	-0.004	-0.110
-340.348	100.657	-0.131	-0.151
-339.333	-164.261	-0.284	-0.013
-338.318	-200.000	0.050	0.350
-337.304	229.457	-0.139	-0.225
-336.289	-104.638	0.230	0.053
-335.275	-200.000	0.014	-0.115
-334.260	412.493	0.034	0.072
-333.245	-77.717	-0.136	0.047
-332.231	-56.108	-0.268	0.118
-331.216	-200.000	-0.062	0.341
-330.202	-20.834	0.228	0.139
-329.187	104.880	0.218	0.256
-328.172	106.251	0.090	0.105
-327.158	-6.600	-0.260	-0.176
-326.143	-146.547	0.577	-0.050
-325.129	-9.017	0.215	0.142
-324.114	-111.711	0.109	0.022
-323.099	-35.404	-0.197	-0.106
-322.085	-26.164	0.454	0.265
-321.070	800.000	0.051	-0.160
-320.056	396.190	-0.143	0.296
-319.041	-90.741	0.166	-0.048
-318.026	-46.772	0.232	-0.112
-317.012	-103.796	-0.498	0.115
-315.997	172.870	-0.211	0.301
-314.983	502.032	-0.059	-0.134
-313.968	-200.000	0.015	0.261
-312.953	65.039	-0.078	0.078
-311.939	-161.410	-0.118	-0.006
-310.924	-73.773	0.146	-0.053
-309.910	209.900	0.142	0.221
-308.895	36.533	-0.051	0.045
-307.880	-200.000	-0.192	-0.000
-306.866	-26.908	-0.241	0.139
-305.851	4.875	-0.295	-0.215
-304.837	-37.210	-0.044	-0.023
-303.822	-19.098	-0.082	0.051
-302.807	86.208	0.325	-0.355
-301.793	-34.793	0.118	0.064
-300.778	-44.299	0.135	0.067
-299.764	125.503	0.206	-0.257
-298.749	603.146	0.046	-0.114
-297.735	-151.995	-0.323	0.023
-296.720	-23.305	0.197	-0.117
-295.705	11.624	-0.035	-0.026
-294.691	100.105	-0.072	0.082
-293.676	-200.000	0.014	0.299
-292.662	-134.956	0.076	-0.009
-291.647	-83.309	-0.253	0.080
-290.632	-171.833	0.140	0.005
-289.618	800.000	0.106	0.360
-288.603	107.745	-0.145	-0.171
-287.589	45.289	0.315	-0.288
-286.574	347.095	0.122	0.238
-285.559	-127.301	0.185	-0.027
-284.545	-138.737	0.154	0.017
-283.530	-46.049	0.105	0.051
-282.516	87.289	-0.175	-0.192
-281.501	-200.000	-0.009	-0.194
-280.486	-26.334	-0.075	0.044
-279.472	52.551	-0.237	0.224
-278.457	-132.895	0.081	0.010
-277.443	472.506	0.136	-0.304
-276.428	317.873	-0.073	-0.137
-275.413	-173.693	-0.147	0.004
-274.399	-118.765	-0.184	-0.032
-273.384	-200.000	-0.015	-0.102
-272.370	112.118	-0.167	0.199
-271.355	800.000	0.123	-0.351
-270.340	631.562	-0.053	0.133
-269.326	-200.000	0.005	-0.065
-268.311	-200.000	-0.024	0.180
-267.297	10.642	-0.246	0.186
-266.282	210.087	-0.183	-0.284
-265.267	-200.000	-0.004	0.105
-264.253	800.000	0.025	0.085
-263.238	-113.342	-0.062	-0.012
-262.224	-164.729	-0.338	0.015
-261.209	477.318	0.022	-0.050
-260.195	50.128	0.196	-0.183
-259.180	-200.000	0.018	0.081
-258.165	212.518	-0.150	0.234
-257.151	-64.916	-0.078	0.031
-256.136	-179.927	-0.040	0.001
-255.122	-56.658	-0.118	-0.052
-254.107	800.000	0.042	0.159
-253.092	-2.766	-0.303	-0.209
-252.078	729.558	-0.080	-0.212
-251.063	-156.321	-0.070	0.004
-250.049	-65.458	0.085	0.034
-249.034	-171.465	-0.130	-0.004
-248.019	-200.000	0.015	0.341
-247.005	-200.000	-0.048	0.359
-245.990	-150.858	0.228	-0.017
-244.976	-45.770	0.110	0.054
-243.961	184.605	0.105	0.154
-242.946	-80.589	-0.093	-0.031
-241.932	-200.000	0.004	0.070
-240.917	-104.378	0.241	0.055
-239.903	-137.438	-0.280	-0.031
-238.888	-200.000	-0.010	0.154
-237.873	-53.879	0.328	0.148
-236.859	-22.407	-0.038	-0.023
-235.844	63.418	-0.133	-0.131
-234.830	800.000	-0.087	0.275
-233.815	455.389	0.014	0.031
-232.800	-200.000	0.033	0.259
-231.786	152.583	-0.190	0.256
-230.771	-23.367	-0.158	-0.094
-229.757	-117.585	0.171	-0.030
-228.742	-200.000	-0.065	-0.295
-227.727	146.458	0.157	0.208
-226.713	63.953	0.172	-0.171
-225.698	-200.000	0.037	-0.190
-224.684	-200.000	-0.025	0.142
-223.669	-200.000	0.020	0.274
-222.655	25.908	0.040	0.033
-221.640	74.125	-0.042	-0.044
-220.625	-200.000	0.021	0.162
-219.611	-115.929	-0.215	0.040
-218.596	93.450	0.223	-0.249
-217.582	-200.000	-0.059	-0.261
-216.567	-68.050	-0.319	-0.123
-215.552	-20.416	-0.179	0.109
-214.538	436.335	0.102	-0.219
-213.523	-132.947	-0.406	0.051
-212.509	-138.733	0.167	0.018
-211.494	800.000	0.040	-0.156
-210.479	-200.000	0.013	-0.095
-209.465	-200.000	0.013	-0.091
-208.450	-100.616	-0.291	0.071
-207.436	-93.276	-0.099	0.027
-206.421	-58.432	-0.366	0.157
-205.406	800.000	0.088	-0.263
-204.392	800.000	0.026	-0.112
-203.377	-67.821	0.404	-0.156
-202.363	248.615	0.101	-0.169
-201.348	-139.944	0.114	-0.012
-200.333	-56.071	-0.131	-0.058
-199.319	457.009	0.144	0.316
-198.304	-200.000	0.020	0.359
-197.290	-172.081	-0.243	-0.008
-196.275	-137.977	-0.090	-0.010
-195.260	800.000	0.066	0.235
-194.246	-200.000	0.126	-0.001
-193.231	-55.789	-0.146	-0.064
-192.217	-200.000	-0.017	0.140
-191.202	95.454	-0.096	0.108
-190.187	-69.332	0.381	-0.144
-189.173	-40.757	-0.212	-0.108
-188.158	14.133	-0.188	-0.144
-187.144	-56.275	-0.164	0.072
-186.129	140.085	-0.082	-0.106
-185.114	211.897	0.064	-0.099
-184.100	-24.246	-0.414	-0.244
-183.085	61.698	0.164	0.161
-182.071	-200.000	0.012	-0.255
-181.056	47.275	-0.083	-0.076
-180.042	447.969	0.024	-0.052
-179.027	235.759	-0.134	-0.219
-178.012	-168.973	0.121	0.004
-176.998	267.394	0.167	0.288
-175.983	-200.000	-0.007	0.139
-174.969	95.886	0.261	0.294
-173.954	800.000	-0.051	-0.155
-172.939	800.000	0.058	-0.194
-171.925	-6.387	0.127	-0.085
-170.910	-9.827	-0.205	0.135
-169.896	168.389	-0.033	-0.046
-168.881	-64.906	-0.089	-0.035
-167.866	64.055	0.188	-0.186
-166.852	800.000	-0.044	-0.180
-165.837	-200.000	-0.022	-0.201
-164.823	-112.247	-0.350	0.069
-163.808	54.484	0.121	0.115
-162.793	800.000	0.124	0.493
-161.779	800.000	-0.077	-0.229
-160.764	-124.292	0.044	-0.007
-159.750	293.912	-0.085	-0.152
-158.735	35.222	-0.190	-0.164
-157.720	-177.456	0.183	-0.004
-156.706	-200.000	-0.024	-0.154
-155.691	-2.514	-0.077	-0.053
-154.677	2.428	0.313	0.223
-153.662	-68.614	0.081	0.031
-152.647	33.354	-0.070	0.060
-151.633	-200.000	0.010	0.235
-150.618	800.000	0.057	0.201
-149.604	-151.704	-0.268	0.019
-148.589	-40.529	0.519	0.265
-147.574	-48.806	-0.237	-0.112
-146.560	-62.739	-0.236	0.096
-145.545	-200.000	0.017	-0.082
-144.531	-4.811	-0.198	0.135
-143.516	-48.809	-0.114	-0.054
-142.502	800.000	0.026	-0.077
-141.487	-200.000	0.047	0.218
-140.472	-200.000	-0.041	0.224
-139.458	381.956	0.031	0.063
-138.443	-106.312	-0.014	0.003
-137.429	-136.859	0.302	-0.034
-136.414	800.000	0.008	-0.033
-135.399	532.224	-0.074	0.173
-134.385	800.000	0.037	0.123
-133.370	165.531	0.113	0.158
-132.356	74.323	-0.129	0.133
-131.341	-186.515	0.178	-0.002
-130.326	-42.292	0.159	0.080
-129.312	-100.373	-0.385	0.094
-128.297	-200.000	0.000	0.292
-127.283	767.289	0.144	-0.386
-126.268	-28.620	0.304	0.172
-125.253	121.886	0.070	0.085
-124.239	101.067	-0.205	-0.235
-123.224	-57.444	-0.238	-0.103
-122.210	18.239	-0.129	0.101
-121.195	53.076	0.231	0.217
-120.180	22.644	0.159	-0.128
-119.166	-97.703	0.050	0.013
-118.151	340.823	0.174	0.335
-117.137	407.343	-0.086	0.180
-116.122	659.586	0.032	-0.082
-115.107	140.977	-0.116	0.151
-114.093	479.141	-0.081	-0.180
-113.078	73.374	-0.136	0.140
-112.064	-54.287	-0.183	0.082
-111.049	29.729	-0.200	0.167
-110.034	-55.587	-0.234	0.103
-109.020	-188.449	-0.171	0.002
-108.005	-66.161	0.196	0.077
-106.991	280.785	0.058	-0.103
-105.976	298.510	-0.195	-0.353
-104.962	-96.804	0.165	0.043
-103.947	-200.000	0.008	-0.075
-102.932	-200.000	0.014	0.143
-101.918	-100.575	-0.075	0.018
-100.903	414.015	0.076	0.160
-99.889	155.229	0.108	-0.146
-98.874	-100.838	-0.196	-0.047
-97.859	-110.360	0.175	0.036
-96.845	15.108	-0.142	0.109
-95.830	156.115	-0.070	-0.095
-94.816	203.882	0.209	-0.318
-93.801	133.328	0.192	-0.244
-92.786	333.556	0.140	0.266
-91.772	-38.936	0.347	0.180
-90.757	491.186	0.124	0.280
-89.743	-37.969	-0.349	0.182
-88.728	-144.705	0.211	-0.019
-87.713	-200.000	0.029	-0.242
-86.699	-114.034	0.115	-0.022
-85.684	95.688	0.088	-0.099
-84.670	-72.304	-0.149	-0.054
-83.655	23.790	-0.226	0.183
-82.640	-72.306	0.175	0.064
-81.626	34.578	0.196	0.168
-80.611	800.000	-0.074	-0.210
-79.597	-152.373	-0.156	-0.011
-78.582	-17.477	0.180	-0.112
-77.567	-19.492	0.107	0.065
-76.553	768.456	0.061	-0.162
-75.538	-126.995	0.183	-0.026
-74.524	-104.056	0.472	-0.108
-73.509	-50.277	-0.074	0.034
-72.494	-55.091	-0.102	0.045
-71.480	186.388	-0.118	-0.173
-70.465	800.000	-0.084	-0.300
-69.451	129.768	0.210	0.264
-68.436	75.492	0.169	0.175
-67.422	800.000	0.041	-0.169
-66.407	223.605	-0.061	0.097
-65.392	411.846	-0.071	-0.148
-64.378	-144.341	0.237	-0.022
-63.363	-200.000	0.001	0.311
-62.349	-83.594	-0.491	-0.154
-61.334	115.129	-0.916	-1.098
-60.319	-2.642	0.419	0.288
-59.305	-200.000	-0.025	-1.187
-58.290	323.259	0.666	1.247
-57.276	214.719	1.036	1.612
-56.261	-200.000	95.381	590.308
-55.246	574.441	1363.893	3267.022
-54.232	162.452	2547.211	3507.081
-53.217	107.588	2262.055	2642.873
-52.203	41.764	1890.700	1682.164
-51.188	35.579	1681.092	1449.139
-50.173	32.890	1637.351	1391.588
-49.159	50.140	1683.652	1560.184
-48.144	51.924	1699.724	1588.341
-47.130	35.149	1660.796	1428.208
-46.115	32.511	1646.245	1396.116
-45.100	32.247	1641.697	1390.246
-44.086	32.226	1638.154	1387.034
-43.071	32.179	1636.002	1384.812
-42.057	32.171	1634.073	1383.067
-41.042	32.168	1632.216	1381.420
-40.027	32.179	1630.223	1379.756
-39.013	32.140	1628.375	1377.855
-37.998	32.153	1626.353	1376.186
-36.984	32.231	1625.121	1375.655
-35.969	32.268	1623.704	1374.672
-34.954	32.345	1622.136	1373.850
-33.940	32.206	1620.575	1371.465
-32.925	32.320	1618.368	1370.372
-31.911	32.275	1617.227	1369.025
-30.896	32.229	1615.218	1366.934
-29.881	32.325	1613.830	1366.404
-28.867	32.299	1611.932	1364.550
-27.852	32.258	1610.989	1363.406
-26.838	32.338	1609.074	1362.306
-25.823	32.395	1607.253	1361.124
-24.809	32.395	1606.422	1360.366
-23.794	32.360	1604.817	1358.698
-22.779	32.353	1603.069	1357.119
-21.765	32.290	1602.103	1355.790
-20.750	32.364	1600.076	1354.553
-19.736	32.376	1599.017	1353.691
-18.721	32.438	1597.456	1352.762
-17.706	32.355	1595.975	1350.859
-16.692	32.283	1594.541	1349.076
-15.677	32.338	1592.946	1348.067
-14.663	32.335	1592.081	1347.260
-13.648	32.462	1589.932	1346.290
-12.633	32.304	1589.081	1344.391
-11.619	32.279	1587.264	1342.619
-10.604	32.335	1586.073	1341.961
-9.590	32.358	1584.414	1340.666
-8.575	32.410	1583.060	1339.837
-7.560	32.425	1581.932	1338.935
-6.546	32.342	1580.907	1337.426
-5.531	32.278	1580.103	1336.239
-4.517	32.349	1578.722	1335.518
-3.502	32.378	1577.340	1334.508
-2.487	32.350	1576.092	1333.195
-1.473	32.127	1564.548	1321.813
-0.458	29.473	1545.546	1287.226
0.556	26.690	1545.822	1257.815
1.571	24.267	1569.898	1260.184
2.586	23.967	1583.013	1268.462
3.600	21.587	1530.573	1209.905
4.615	12.454	1421.044	1064.353
5.629	3.890	1354.700	961.515
6.644	2.233	1346.138	945.116
7.659	2.126	1345.164	943.688
8.673	2.059	1344.015	942.382
9.688	1.982	1342.226	940.571
10.702	1.813	1338.824	937.067
11.717	5.295	1346.362	963.765
12.731	15.593	1365.152	1041.246
13.746	23.944	1379.395	1104.083
14.761	26.265	1382.215	1120.659
15.775	26.583	1382.284	1122.591
16.790	26.725	1381.989	1123.128
17.804	26.863	1380.889	1122.995
18.819	27.035	1381.001	1124.051
19.834	27.095	1380.091	1123.580
20.848	27.156	1379.321	1123.228
21.863	27.225	1378.371	1122.784
22.877	27.128	1377.873	1121.682
23.892	27.127	1377.061	1120.915
24.907	27.134	1376.262	1120.208
25.921	27.202	1375.478	1119.892
26.936	27.118	1374.578	1118.541
27.950	27.212	1373.117	1117.832
28.965	27.182	1372.253	1116.843
29.980	27.193	1370.769	1115.607
30.994	27.108	1369.756	1114.160
32.009	27.080	1369.108	1113.360
33.023	27.130	1367.648	1112.383
34.038	27.175	1365.873	1111.118
35.053	27.215	1364.968	1110.524
36.067	27.098	1364.570	1109.388
37.082	27.095	1363.343	1108.273
38.096	27.135	1362.559	1107.786
39.111	27.010	1362.537	1106.908
40.126	27.145	1361.311	1106.632
41.140	27.105	1360.964	1106.008
42.155	27.156	1360.274	1105.663
43.169	27.107	1360.297	1105.286
44.184	27.186	1360.013	1105.438
45.199	27.123	1359.739	1104.734
46.213	27.148	1358.649	1103.899
47.228	27.188	1357.768	1103.330
48.242	27.114	1356.980	1102.144
49.257	27.218	1355.246	1101.267
50.271	27.253	1353.917	1100.304
51.286	27.191	1352.434	1098.623
52.301	27.177	1351.566	1097.737
53.315	27.188	1350.680	1096.986
54.330	27.271	1349.404	1096.355
55.344	27.025	1348.735	1094.232
56.359	27.197	1347.642	1094.286
57.374	27.096	1346.752	1092.857
58.388	27.068	1346.802	1092.635
59.403	27.159	1345.983	1092.415
60.417	27.188	1345.329	1091.963
61.432	27.141	1344.577	1090.977
62.447	27.148	1343.569	1090.103
63.461	27.116	1342.752	1089.150
64.476	27.093	1341.467	1087.877
65.490	27.139	1340.351	1087.149
66.505	27.169	1338.833	1086.004
67.520	27.127	1338.035	1085.010
68.534	27.117	1337.072	1084.071
69.549	27.135	1335.986	1083.204
70.563	27.192	1335.021	1082.661
71.578	27.225	1333.881	1081.838
72.593	27.134	1333.496	1080.891
73.607	27.160	1332.573	1080.202
74.622	27.127	1331.921	1079.381
75.636	27.109	1331.244	1078.629
76.651	27.166	1330.380	1078.172
77.666	27.212	1329.658	1077.763
78.680	27.158	1330.015	1077.637
79.695	27.234	1328.819	1077.024
80.709	27.198	1327.886	1075.958
81.724	27.116	1327.368	1074.958
82.739	27.232	1326.068	1074.494
83.753	27.132	1325.404	1073.274
84.768	27.123	1323.904	1071.912
85.782	27.177	1322.959	1071.370
86.797	27.133	1321.734	1070.022
87.812	27.109	1320.998	1069.188
88.826	27.192	1319.842	1068.648
89.841	27.195	1318.678	1067.629
90.855	27.225	1317.791	1066.990
91.870	27.167	1316.957	1065.886
92.884	27.222	1316.033	1065.365
93.899	27.190	1315.347	1064.526
94.914	27.282	1314.676	1064.426
95.928	27.183	1314.295	1063.447
96.943	27.278	1313.056	1062.903
97.957	27.327	1312.231	1062.427
98.972	27.291	1311.422	1061.472
99.987	27.198	1310.613	1060.176
101.001	27.132	1309.913	1059.134
102.016	27.168	1308.756	1058.312
103.030	27.149	1308.326	1057.764
104.045	27.149	1307.603	1057.084
105.060	27.223	1306.129	1056.232
106.074	27.222	1305.188	1055.369
107.089	27.278	1304.235	1054.827
108.103	27.237	1303.797	1054.141
109.118	27.291	1301.993	1052.908
110.133	27.302	1301.017	1052.084
111.147	27.333	1300.092	1051.421
112.162	27.314	1298.587	1050.004
113.176	27.378	1297.678	1049.547
114.191	27.299	1297.319	1048.709
115.206	27.247	1296.102	1047.330
116.220	27.408	1294.540	1046.902
117.235	27.312	1293.940	1045.772
118.249	27.262	1293.306	1044.879
119.264	27.250	1292.384	1043.976
120.279	27.326	1291.880	1043.910
121.293	27.448	1290.756	1043.608
122.308	27.397	1290.080	1042.679
123.322	27.327	1289.690	1041.870
124.337	27.283	1288.782	1040.793
125.352	27.448	1287.655	1040.735
126.366	27.472	1286.336	1039.712
127.381	27.482	1285.550	1039.040
128.395	27.400	1284.688	1037.785
129.410	27.392	1284.288	1037.324
130.424	27.344	1283.794	1036.563
131.439	27.435	1282.713	1036.112
132.454	27.253	1282.223	1034.593
133.468	27.323	1281.868	1034.609
134.483	27.445	1280.514	1034.119
135.497	27.289	1280.193	1032.886
136.512	27.355	1278.612	1031.893
137.527	27.395	1277.438	1031.080
138.541	27.296	1276.871	1029.971
139.556	27.339	1275.308	1028.862
140.570	27.259	1274.472	1027.645
141.585	27.268	1273.368	1026.712
142.600	27.278	1272.458	1025.945
143.614	27.222	1271.532	1024.794
144.629	27.352	1270.450	1024.559
145.643	27.382	1269.609	1023.964
146.658	27.326	1268.417	1022.592
147.673	27.335	1267.536	1021.847
148.687	27.250	1266.762	1020.651
149.702	27.204	1265.962	1019.661
150.716	27.308	1264.301	1018.812
151.731	27.234	1263.712	1017.837
152.746	27.401	1262.349	1017.580
153.760	27.395	1261.498	1016.770
154.775	27.320	1260.788	1015.691
155.789	27.333	1260.151	1015.159
156.804	27.285	1259.124	1013.975
157.819	27.240	1258.293	1012.964
158.833	27.326	1257.704	1012.878
159.848	27.389	1256.367	1012.062
160.862	27.347	1256.085	1011.512
161.877	27.484	1254.884	1011.219
162.892	27.437	1254.539	1010.590
163.906	27.409	1253.536	1009.537
164.921	27.530	1252.853	1009.570
165.935	27.458	1252.029	1008.414
166.950	27.514	1251.472	1008.189
167.964	27.489	1251.061	1007.628
168.979	27.514	1250.283	1007.055
169.994	27.498	1249.780	1006.471
171.008	27.518	1249.041	1005.894
172.023	27.546	1248.181	1005.268
173.037	27.459	1247.604	1004.234
174.052	27.549	1246.592	1003.827
175.067	27.478	1246.141	1002.983
176.081	27.435	1245.529	1002.169
177.096	27.449	1244.787	1001.558
178.110	27.476	1243.577	1000.643
179.125	27.494	1242.498	999.788
180.140	27.528	1241.643	999.197
181.154	27.576	1240.649	998.572
182.169	27.451	1239.652	996.998
183.183	27.474	1238.443	996.062
184.198	27.614	1237.316	995.830
185.213	27.545	1236.555	994.755
186.227	27.579	1236.208	994.574
187.242	27.461	1235.075	992.928
188.256	27.544	1233.841	992.302
189.271	27.568	1233.260	991.880
190.286	27.443	1233.053	990.943
191.300	27.548	1231.898	990.496
192.315	27.420	1231.820	989.650
193.329	27.585	1231.100	989.883
194.344	27.552	1230.926	989.477
195.359	27.659	1229.953	989.189
196.373	27.563	1229.415	988.145
197.388	27.503	1229.354	987.686
198.402	27.523	1229.086	987.489
199.417	27.576	1228.675	987.358
200.432	27.607	1227.704	986.662
201.446	27.572	1227.152	985.941
202.461	27.569	1226.770	985.529
203.475	27.537	1225.913	984.581
204.490	27.595	1224.567	983.723
205.504	27.679	1223.679	983.375
206.519	27.548	1222.936	981.985
207.534	27.633	1221.609	981.291
208.548	27.586	1221.220	980.642
209.563	27.613	1220.563	980.170
210.577	27.703	1219.245	979.512
211.592	27.610	1218.749	978.525
212.607	27.803	1217.746	978.669
213.621	27.712	1217.099	977.573
214.636	27.805	1216.024	977.122
215.650	27.634	1215.805	975.946
216.665	27.709	1214.534	975.237
217.680	27.643	1214.012	974.381
218.694	27.741	1213.239	974.197
219.709	27.650	1212.863	973.322
220.723	27.795	1211.612	973.004
221.738	27.712	1210.648	971.705
222.753	27.621	1210.648	971.132
223.767	27.720	1210.057	971.100
224.782	27.713	1209.563	970.581
225.796	27.784	1208.834	970.288
226.811	27.843	1208.272	970.063
227.826	27.801	1207.786	969.362
228.840	27.828	1207.224	968.969
229.855	27.702	1206.500	967.633
230.869	27.740	1205.969	967.328
231.884	27.808	1204.975	966.802
232.899	27.787	1204.258	966.030
233.913	27.842	1203.365	965.518
234.928	27.931	1203.105	965.697
235.942	27.798	1202.506	964.426
236.957	27.840	1202.195	964.313
237.972	27.877	1201.294	963.704
238.986	27.846	1200.446	962.773
240.001	27.938	1199.820	962.672
241.015	28.008	1199.331	962.562
242.030	28.015	1198.638	961.954
243.045	28.019	1197.815	961.234
244.059	27.944	1197.129	960.204
245.074	28.016	1196.199	959.748
246.088	27.939	1195.452	958.662
247.103	27.976	1194.776	958.230
248.117	28.039	1193.814	957.701
249.132	27.981	1193.103	956.743
250.147	28.025	1192.324	956.266
251.161	28.098	1191.510	955.910
252.176	28.118	1191.003	955.523
253.190	28.034	1190.444	954.552
254.205	28.059	1190.084	954.309
255.220	28.092	1189.148	953.645
256.234	28.092	1188.677	953.181
257.249	28.031	1188.227	952.418
258.263	28.067	1187.677	952.082
259.278	28.145	1187.170	951.999
260.293	28.042	1186.591	950.914
261.307	28.063	1186.011	950.475
262.322	28.129	1185.462	950.292
263.336	28.198	1184.484	949.781
264.351	28.025	1184.012	948.424
265.366	28.131	1183.465	948.447
266.380	28.258	1182.532	948.277
267.395	28.185	1182.245	947.584
268.409	28.068	1181.669	946.433
269.424	28.174	1180.909	946.289
270.439	28.138	1180.651	945.813
271.453	28.179	1179.930	945.363
272.468	28.126	1178.955	944.223
273.482	28.147	1178.100	943.565
274.497	28.251	1177.831	943.802
275.512	28.167	1177.574	943.076
276.526	28.253	1176.420	942.513
277.541	28.247	1176.144	942.180
278.555	28.224	1175.448	941.418
279.570	28.111	1174.633	940.100
280.585	28.229	1173.773	939.936
281.599	28.270	1172.778	939.270
282.614	28.260	1172.052	938.552
283.628	28.228	1170.980	937.446
284.643	28.308	1170.371	937.286
285.657	28.222	1169.271	935.879
286.672	28.258	1168.699	935.526
287.687	28.310	1167.897	935.068
288.701	28.344	1167.395	934.754
289.716	28.279	1166.994	934.019
290.730	28.273	1166.199	933.269
291.745	28.452	1165.319	933.392
292.760	28.444	1164.562	932.662
293.774	28.487	1164.249	932.549
294.789	28.384	1163.858	931.633
295.803	28.374	1163.435	931.160
296.818	28.420	1162.746	930.757
297.833	28.353	1162.074	929.796
298.847	28.483	1161.344	929.792
299.862	28.464	1160.407	928.864
300.876	28.453	1159.933	928.346
301.891	28.466	1159.625	928.084
302.906	28.398	1158.823	927.015
303.920	28.513	1158.573	927.314
304.935	28.417	1157.921	926.222
305.949	28.549	1156.518	925.689
306.964	28.524	1156.240	925.257
307.979	28.554	1155.634	924.841
308.993	28.480	1154.562	923.528
310.008	28.577	1153.868	923.379
311.022	28.489	1153.642	922.675
312.037	28.600	1152.614	922.326
313.052	28.495	1151.881	921.134
314.066	28.540	1151.244	920.768
315.081	28.452	1150.462	919.617
316.095	28.586	1149.800	919.678
317.110	28.701	1148.671	919.274
318.125	28.664	1148.084	918.534
319.139	28.539	1148.271	917.980
320.154	28.550	1147.480	917.317
321.168	28.590	1146.722	916.834
322.183	28.597	1146.061	916.259
323.197	28.636	1145.423	915.861
324.212	28.661	1144.977	915.547
325.227	28.706	1144.439	915.259
326.241	28.766	1143.659	914.853
327.256	28.687	1142.787	913.685
328.270	28.662	1142.479	913.234
329.285	28.665	1141.837	912.651
330.300	28.743	1141.010	912.301
331.314	28.799	1139.849	911.565
332.329	28.821	1138.973	910.894
333.343	28.815	1138.358	910.292
334.358	28.837	1137.532	909.660
335.373	28.795	1137.076	909.009
336.387	28.797	1136.385	908.386
337.402	28.775	1135.896	907.805
338.416	28.793	1135.197	907.253
339.431	28.903	1134.496	907.160
340.446	28.995	1133.590	906.808
341.460	28.908	1133.143	905.942
342.475	28.927	1132.057	905.086
343.489	28.885	1131.680	904.495
344.504	28.929	1130.506	903.697
345.519	28.896	1129.848	902.928
346.533	29.029	1129.113	902.910
347.548	28.907	1128.540	901.777
348.562	28.999	1127.624	901.417
349.577	28.907	1127.159	900.511
350.592	28.860	1126.481	899.663
351.606	28.938	1125.413	899.109
352.621	28.972	1125.358	899.155
353.635	28.983	1124.691	898.591
354.650	28.985	1123.853	897.857
355.665	29.024	1123.100	897.362
356.679	29.093	1122.568	897.197
357.694	29.049	1121.931	896.394
358.708	29.110	1121.579	896.330
359.723	29.043	1120.558	895.108
360.738	28.923	1120.149	894.117
361.752	29.062	1119.555	894.243
362.767	29.057	1119.291	893.926
363.781	29.182	1118.621	893.916
364.796	29.207	1118.002	893.467
365.810	29.115	1117.486	892.528
366.825	29.131	1116.897	892.055
367.840	29.197	1116.302	891.822
368.854	29.252	1115.502	891.368
369.869	29.140	1115.261	890.557
370.883	29.315	1114.201	890.478
371.898	29.402	1113.140	889.973
372.913	29.256	1113.109	889.165
373.927	29.292	1112.954	889.133
374.942	29.365	1112.049	888.685
375.956	29.310	1111.582	887.966
376.971	29.285	1111.251	887.505
377.986	29.331	1110.588	887.115
379.000	29.323	1109.931	886.474
380.015	29.419	1109.336	886.385
381.029	29.366	1108.618	885.474
382.044	29.390	1107.818	884.875
383.059	29.462	1107.406	884.811
384.073	29.393	1106.812	883.928
385.088	29.399	1105.915	883.162
386.102	29.404	1104.888	882.290
387.117	29.493	1104.103	882.007
388.132	29.259	1103.590	880.401
389.146	29.394	1103.021	880.516
390.161	29.421	1102.249	879.952
391.175	29.469	1101.681	879.648
392.190	29.429	1101.124	878.934
393.205	29.557	1100.118	878.663
394.219	29.454	1099.342	877.475
395.234	29.545	1098.779	877.379
396.248	29.556	1098.079	876.798
397.263	29.550	1097.130	875.931
398.278	29.670	1096.462	875.892
399.292	29.572	1096.189	875.130
400.307	29.676	1095.357	874.883
401.321	29.528	1094.922	873.759
402.336	29.586	1094.009	873.226
403.350	29.609	1093.542	872.883
404.365	29.617	1092.793	872.244
405.380	29.692	1092.324	872.147
406.394	29.614	1091.796	871.282
407.409	29.717	1090.481	870.641
408.423	29.699	1090.414	870.427
409.438	29.752	1089.769	870.081
410.453	29.743	1088.884	869.259
411.467	29.662	1088.315	868.346
412.482	29.618	1087.745	867.609
413.496	29.739	1086.732	867.292
414.511	29.708	1086.276	866.706
415.526	29.701	1086.069	866.428
416.540	29.741	1085.484	866.071
417.555	29.745	1084.555	865.273
418.569	29.921	1084.241	865.770
419.584	29.862	1083.838	865.095
420.599	29.877	1083.808	865.065
421.613	104.750	1321.666	1459.097
422.628	97.499	1356.271	1459.202
