DTS Sentinel unit serial number:	SN413079Multiplexer serial number:	ORYXHardware model number:	OX4-SRSoftware version number:	ORYX F/W v4.00 Oryx Data Collector v3.7.2.0data status	okinstallation	princeton_trtdifferential loss correction	single-endedforward channel	channel 2reverse channel	N/Adate	2019/09/11time	20:33:11forward acquisition time	60.00reverse acquisition time	0.00gamma	496.2192k internal	0.2320k external	0.2320temperature offset calibration	1.0060default loss term (dB/km)	0.3790temperature slope calibration	1.0000multiplexer offset coefficient	1.0000multiplexer slope coefficient	1.0000fibre end	0.00T internal ref (°C)	37.52T ext. ref 1 (°C)	1.52T ext. ref 2 (°C)	30.81length (m)	temperature (°C)	Stokes	anti-Stokes-747.200	-116.718	-0.131	0.024
-746.185	61.913	-0.063	-0.063
-745.171	-68.057	0.331	0.130
-744.156	-200.000	0.003	-0.056
-743.142	-50.461	-0.130	-0.062
-742.127	393.714	0.185	0.389
-741.112	-200.000	0.006	0.060
-740.098	90.886	0.073	0.083
-739.083	200.566	-0.088	0.136
-738.069	466.559	0.051	-0.115
-737.054	-138.942	0.325	0.036
-736.039	122.375	-0.125	0.159
-735.025	1.147	0.292	0.212
-734.010	-200.000	0.058	-0.435
-732.996	-113.716	-0.326	0.064
-731.981	438.069	0.049	-0.108
-730.966	25.608	0.143	-0.120
-729.952	-200.000	-0.014	-0.194
-728.937	-34.364	-0.097	-0.054
-727.923	-114.154	0.214	-0.042
-726.908	227.621	0.053	-0.086
-725.894	54.649	0.132	-0.129
-724.879	-138.697	-0.446	-0.049
-723.864	800.000	-0.031	0.103
-722.850	-65.074	-0.130	0.053
-721.835	-16.507	0.186	-0.119
-720.821	0.554	-0.178	-0.128
-719.806	78.400	-0.072	0.078
-718.791	-200.000	0.036	-0.182
-717.777	131.378	0.171	-0.222
-716.762	-200.000	-0.033	-0.424
-715.748	800.000	0.062	-0.236
-714.733	-54.078	0.289	-0.133
-713.718	64.152	0.168	0.171
-712.704	30.163	-0.141	-0.122
-711.689	800.000	0.080	0.288
-710.675	138.095	0.159	0.211
-709.660	-188.574	-0.358	0.004
-708.645	-1.247	0.129	-0.092
-707.631	-0.115	-0.182	0.131
-706.616	800.000	0.042	0.155
-705.602	103.913	0.123	-0.146
-704.587	-133.126	-0.010	0.001
-703.572	-84.152	-0.049	0.016
-702.558	-43.328	0.159	0.081
-701.543	-99.112	-0.254	0.065
-700.529	33.737	0.148	0.130
-699.514	-177.973	0.400	-0.010
-698.499	-200.000	0.014	0.089
-697.485	89.470	0.149	-0.168
-696.470	25.569	-0.180	0.151
-695.456	-86.919	-0.515	-0.159
-694.441	-122.997	0.272	-0.044
-693.426	-200.000	0.025	-0.230
-692.412	521.509	0.043	-0.101
-691.397	157.289	0.044	-0.061
-690.383	-113.771	-0.363	-0.071
-689.368	141.922	0.017	0.023
-688.354	800.000	-0.078	-0.316
-687.339	99.337	0.052	-0.061
-686.324	690.334	0.071	0.187
-685.310	-200.000	0.040	0.253
-684.295	197.632	-0.098	-0.151
-683.281	-9.193	-0.252	-0.170
-682.266	145.494	0.109	0.147
-681.251	800.000	-0.031	0.102
-680.237	607.595	0.015	-0.039
-679.222	-7.750	0.189	-0.129
-678.208	503.934	0.106	-0.247
-677.193	-8.343	-0.273	-0.185
-676.178	251.644	0.121	-0.208
-675.164	97.640	-0.227	-0.263
-674.149	-82.042	0.333	0.110
-673.135	45.180	0.122	-0.113
-672.120	-133.724	0.280	0.035
-671.105	54.558	-0.097	0.094
-670.091	-169.004	0.112	0.004
-669.076	478.899	-0.090	-0.206
-668.062	-79.836	-0.159	0.054
-667.047	199.573	-0.075	0.116
-666.032	163.558	-0.205	-0.291
-665.018	-24.559	-0.410	0.246
-664.003	-41.232	0.137	0.071
-662.989	382.399	-0.156	-0.323
-661.974	174.350	0.214	-0.312
-660.959	30.866	0.021	0.018
-659.945	-86.896	0.025	-0.008
-658.930	62.128	0.120	-0.120
-657.916	800.000	-0.096	0.282
-656.901	-60.731	-0.126	-0.054
-655.886	332.732	-0.176	0.342
-654.872	-114.141	-0.315	0.061
-653.857	155.263	-0.205	0.284
-652.843	-200.000	-0.004	0.077
-651.828	800.000	-0.044	0.150
-650.814	800.000	0.052	-0.174
-649.799	-96.817	0.078	0.021
-648.784	163.043	-0.139	0.196
-647.770	-10.887	-0.256	0.170
-646.755	314.602	0.060	-0.113
-645.741	-93.130	-0.352	0.099
-644.726	-16.602	0.267	-0.170
-643.711	-64.932	-0.124	0.051
-642.697	220.066	-0.143	0.231
-641.682	48.742	-0.218	0.206
-640.668	-120.649	-0.191	-0.033
-639.653	-12.907	0.064	-0.042
-638.638	-200.000	-0.060	-0.390
-637.624	2.483	-0.315	-0.229
-636.609	5.980	0.127	-0.095
-635.595	374.587	0.096	0.196
-634.580	-174.314	-0.284	-0.008
-633.565	10.510	0.211	0.162
-632.551	-80.243	0.194	-0.065
-631.536	270.351	0.155	0.275
-630.522	-143.464	-0.324	0.031
-629.507	-43.039	-0.114	-0.058
-628.492	176.657	0.151	-0.221
-627.478	115.914	0.045	-0.055
-626.463	71.499	-0.058	0.061
-625.449	41.604	-0.017	-0.016
-624.434	35.467	0.155	-0.137
-623.419	13.454	-0.251	-0.196
-622.405	111.929	0.104	-0.127
-621.390	800.000	0.022	0.066
-620.376	206.031	0.208	-0.326
-619.361	-77.721	0.185	-0.064
-618.346	-109.066	0.117	0.025
-617.332	7.728	-0.206	-0.155
-616.317	-83.690	-0.225	0.072
-615.303	270.533	-0.110	0.195
-614.288	749.316	0.043	0.116
-613.273	-200.000	0.025	-0.222
-612.259	34.009	0.259	-0.227
-611.244	258.052	-0.066	0.114
-610.230	800.000	-0.019	0.067
-609.215	-94.588	0.409	0.112
-608.201	-10.503	0.072	0.048
-607.186	346.164	-0.100	0.198
-606.171	-200.000	0.061	-0.270
-605.157	41.682	0.184	-0.167
-604.142	253.928	-0.240	-0.412
-603.128	53.349	0.222	-0.214
-602.113	-21.023	-0.058	-0.036
-601.098	-75.889	0.252	-0.090
-600.084	161.665	0.124	-0.175
-599.069	-80.580	0.250	-0.084
-598.055	187.393	0.119	-0.179
-597.040	-101.403	0.166	0.041
-596.025	800.000	-0.084	0.278
-595.011	-39.639	-0.179	-0.094
-593.996	-200.000	-0.009	-0.088
-592.982	-61.085	0.154	-0.066
-591.967	202.749	0.004	-0.007
-590.952	33.278	0.212	-0.185
-589.938	659.826	-0.110	-0.285
-588.923	241.359	0.136	-0.229
-587.909	-200.000	0.012	-0.091
-586.894	-124.879	0.199	-0.031
-585.879	-200.000	-0.002	0.079
-584.865	-48.327	-0.343	-0.166
-583.850	-200.000	-0.005	0.134
-582.836	70.005	-0.168	0.174
-581.821	112.142	0.211	-0.256
-580.806	-104.379	-0.244	0.057
-579.792	-200.000	0.010	-0.142
-578.777	359.926	-0.044	0.089
-577.763	335.423	-0.163	-0.318
-576.748	-200.000	0.022	0.241
-575.733	-200.000	-0.026	0.165
-574.719	-124.202	0.248	-0.039
-573.704	-32.772	0.101	-0.057
-572.690	-200.000	0.020	0.290
-571.675	-200.000	-0.002	-0.209
-570.661	-200.000	-0.035	0.189
-569.646	-73.454	-0.133	-0.049
-568.631	-200.000	-0.039	0.310
-567.617	-200.000	0.008	-0.100
-566.602	-103.735	-0.295	0.069
-565.588	3.851	-0.272	0.200
-564.573	142.196	0.186	0.248
-563.558	-116.573	0.171	-0.032
-562.544	1.834	-0.229	-0.166
-561.529	274.244	-0.017	-0.031
-560.515	36.870	-0.230	-0.204
-559.500	394.515	-0.114	-0.238
-558.485	12.799	-0.340	-0.263
-557.471	-35.137	-0.138	-0.075
-556.456	-52.678	-0.194	-0.090
-555.442	184.953	0.262	-0.391
-554.427	-101.265	0.220	-0.054
-553.412	-200.000	-0.008	-0.124
-552.398	652.209	-0.066	-0.169
-551.383	117.694	-0.103	-0.128
-550.369	-200.000	-0.068	-0.400
-549.354	-7.924	0.115	-0.078
-548.339	40.676	-0.105	0.095
-547.325	1.291	-0.174	-0.126
-546.310	-200.000	-0.080	-0.424
-545.296	800.000	-0.042	-0.135
-544.281	-142.591	-0.099	0.010
-543.266	-200.000	-0.050	-0.220
-542.252	12.581	0.198	0.153
-541.237	-135.762	0.162	-0.019
-540.223	14.979	-0.080	-0.063
-539.208	789.589	-0.027	0.074
-538.193	800.000	-0.084	0.346
-537.179	55.829	-0.020	-0.019
-536.164	-200.000	0.023	-0.163
-535.150	89.802	0.108	-0.121
-534.135	-200.000	0.044	-0.379
-533.121	16.424	0.197	0.156
-532.106	-89.788	0.152	0.045
-531.091	-81.729	0.100	0.033
-530.077	81.609	0.386	-0.419
-529.062	9.288	-0.344	0.261
-528.048	-116.316	0.175	0.033
-527.033	-200.000	-0.052	0.252
-526.018	267.099	-0.190	0.332
-525.004	-24.324	-0.126	-0.076
-523.989	40.974	0.070	0.063
-522.975	42.015	-0.051	-0.046
-521.960	-200.000	-0.077	0.401
-520.945	-200.000	0.009	-0.072
-519.931	-190.499	-0.294	0.003
-518.916	47.976	-0.065	-0.061
-517.902	-200.000	0.020	-0.199
-516.887	-102.326	-0.249	0.060
-515.872	-37.696	0.201	0.108
-514.858	-143.791	-0.120	-0.011
-513.843	59.183	0.087	-0.086
-512.829	-135.757	-0.130	0.015
-511.814	43.654	-0.050	-0.046
-510.799	-200.000	0.004	-0.126
-509.785	93.300	-0.082	0.093
-508.770	-200.000	0.019	0.100
-507.756	-28.285	-0.148	-0.086
-506.741	229.351	-0.029	-0.047
-505.726	-200.000	-0.007	0.155
-504.712	-37.412	-0.151	-0.081
-503.697	-163.572	0.302	-0.014
-502.683	167.855	0.207	0.295
-501.668	-200.000	-0.019	0.142
-500.653	-200.000	0.006	0.292
-499.639	306.217	0.121	-0.226
-498.624	51.979	0.120	0.115
-497.610	-60.537	-0.134	0.057
-496.595	55.732	0.089	-0.087
-495.581	369.889	-0.074	0.150
-494.566	-142.112	-0.185	0.018
-493.551	-200.000	0.039	-0.372
-492.537	408.704	0.144	-0.305
-491.522	-127.432	0.117	0.017
-490.508	-173.999	0.288	0.008
-489.493	-200.000	-0.022	-0.128
-488.478	-80.065	-0.120	-0.040
-487.464	-200.000	0.009	0.218
-486.449	800.000	0.069	0.211
-485.435	105.939	-0.269	0.319
-484.420	-200.000	-0.031	-0.140
-483.405	800.000	-0.075	0.298
-482.391	22.087	0.157	0.128
-481.376	295.652	0.064	-0.118
-480.362	800.000	0.059	-0.258
-479.347	800.000	-0.055	-0.190
-478.332	-43.586	0.387	0.196
-477.318	196.553	0.111	-0.170
-476.303	646.685	0.145	-0.371
-475.289	478.893	-0.077	-0.174
-474.274	-31.888	-0.164	-0.092
-473.259	50.593	-0.282	-0.267
-472.245	-76.748	-0.349	-0.122
-471.230	800.000	-0.100	0.349
-470.216	586.613	-0.091	0.224
-469.201	23.303	0.104	0.086
-468.186	94.244	0.199	-0.226
-467.172	-100.442	-0.109	0.027
-466.157	388.721	0.105	0.217
-465.143	-32.173	-0.373	0.209
-464.128	800.000	-0.072	-0.244
-463.113	-104.483	0.297	-0.069
-462.099	-57.699	0.099	-0.043
-461.084	-200.000	-0.013	0.346
-460.070	-53.808	-0.012	-0.005
-459.055	-30.227	0.218	0.124
-458.040	-200.000	-0.009	0.245
-457.026	238.588	-0.176	-0.293
-456.011	800.000	-0.039	0.149
-454.997	-80.291	-0.133	-0.045
-453.982	-62.163	-0.090	0.038
-452.968	-74.789	0.106	-0.038
-451.953	288.874	-0.132	-0.239
-450.938	-8.780	0.026	0.017
-449.924	-200.000	-0.008	0.151
-448.909	-162.891	0.261	-0.013
-447.895	-200.000	0.021	0.158
-446.880	-36.448	0.369	-0.199
-445.865	-105.723	-0.313	0.071
-444.851	-63.349	-0.159	-0.065
-443.836	-200.000	0.027	-0.169
-442.822	5.246	-0.204	0.150
-441.807	-85.634	0.126	-0.039
-440.792	61.824	0.126	-0.125
-439.778	-200.000	-0.004	0.092
-438.763	-200.000	0.040	-0.363
-437.749	-72.271	0.102	0.038
-436.734	-200.000	0.030	-0.380
-435.719	74.856	-0.072	-0.076
-434.705	-161.658	-0.115	0.006
-433.690	204.828	-0.110	-0.170
-432.676	-200.000	0.115	-0.579
-431.661	-51.235	0.162	0.076
-430.646	-200.000	-0.008	-0.065
-429.632	25.349	-0.132	0.110
-428.617	-10.974	0.144	0.095
-427.603	-156.294	0.149	-0.009
-426.588	9.404	0.254	-0.192
-425.573	800.000	-0.055	-0.168
-424.559	-200.000	0.036	0.329
-423.544	-157.071	0.124	-0.008
-422.530	-10.625	-0.164	-0.109
-421.515	-200.000	0.012	0.096
-420.500	-63.121	-0.217	-0.089
-419.486	-42.314	-0.173	0.088
-418.471	-116.596	-0.252	-0.046
-417.457	-200.000	0.047	0.218
-416.442	-200.000	-0.016	-0.110
-415.428	-42.649	-0.208	0.106
-414.413	-200.000	-0.080	0.469
-413.398	254.059	-0.146	0.249
-412.384	800.000	0.074	-0.241
-411.369	62.927	0.234	0.233
-410.355	-106.879	0.433	-0.096
-409.340	271.978	-0.153	0.270
-408.325	57.213	-0.262	0.255
-407.311	136.089	0.030	-0.039
-406.296	-122.026	0.041	-0.007
-405.282	800.000	0.052	-0.192
-404.267	-10.915	-0.202	-0.133
-403.252	800.000	-0.049	0.140
-402.238	-200.000	-0.002	0.087
-401.223	-200.000	0.034	0.201
-400.209	404.776	0.121	0.255
-399.194	131.837	-0.258	-0.331
-398.179	366.691	0.090	0.182
-397.165	-41.113	0.124	-0.064
-396.150	79.651	0.092	-0.099
-395.136	42.444	0.217	0.196
-394.121	-135.111	-0.075	-0.009
-393.106	800.000	0.007	0.021
-392.092	-200.000	-0.013	-0.122
-391.077	173.809	0.034	-0.050
-390.063	197.139	0.128	0.195
-389.048	800.000	0.066	0.267
-388.033	800.000	0.096	0.335
-387.019	-65.555	-0.102	0.041
-386.004	362.417	0.081	-0.163
-384.990	-1.314	-0.085	-0.060
-383.975	-37.139	0.257	0.137
-382.960	-200.000	0.019	0.303
-381.946	-6.144	0.296	-0.202
-380.931	-14.421	0.102	0.066
-379.917	108.643	0.210	0.250
-378.902	539.014	-0.108	-0.257
-377.888	424.014	-0.130	-0.279
-376.873	-117.191	-0.196	-0.036
-375.858	132.416	-0.252	0.324
-374.844	800.000	0.133	0.500
-373.829	-200.000	-0.056	-0.347
-372.815	107.851	0.045	-0.053
-371.800	-127.486	-0.424	-0.061
-370.785	134.108	-0.096	-0.124
-369.771	800.000	-0.079	-0.235
-368.756	-177.637	-0.042	-0.001
-367.742	-200.000	0.003	0.486
-366.727	288.781	-0.163	0.295
-365.712	-91.033	0.157	0.045
-364.698	-115.541	0.293	-0.055
-363.683	800.000	-0.083	0.260
-362.669	-49.064	-0.163	-0.078
-361.654	-109.774	0.118	0.025
-360.639	276.629	-0.127	0.225
-359.625	-115.883	-0.173	0.032
-358.610	-69.270	-0.062	-0.024
-357.596	-97.039	-0.094	-0.024
-356.581	-113.942	0.217	0.042
-355.566	800.000	-0.074	-0.302
-354.552	-43.601	-0.178	0.090
-353.537	-165.233	-0.130	0.006
-352.523	-95.470	0.312	0.083
-351.508	-108.088	0.075	0.016
-350.493	-20.404	0.220	-0.135
-349.479	-91.418	0.230	0.066
-348.464	-200.000	0.001	-0.030
-347.450	132.155	0.232	-0.297
-346.435	41.072	0.108	0.097
-345.420	-179.668	0.162	0.003
-344.406	53.112	0.186	-0.178
-343.391	-93.075	-0.264	0.073
-342.377	-107.521	0.573	-0.125
-341.362	-77.954	-0.267	-0.092
-340.348	194.116	-0.107	0.162
-339.333	77.370	0.159	-0.169
-338.318	-6.559	0.371	-0.252
-337.304	-55.418	0.052	0.023
-336.289	332.848	-0.118	-0.227
-335.275	-200.000	0.007	0.200
-334.260	67.670	-0.170	-0.173
-333.245	185.365	-0.248	-0.367
-332.231	108.715	-0.078	-0.093
-331.216	192.825	0.140	0.211
-330.202	-116.932	-0.193	0.035
-329.187	-174.997	-0.099	-0.003
-328.172	-20.725	0.223	0.136
-327.158	-200.000	0.044	0.202
-326.143	-44.339	-0.284	0.142
-325.129	49.779	0.042	-0.040
-324.114	-19.982	-0.256	-0.157
-323.099	-89.746	-0.178	-0.052
-322.085	-166.145	-0.298	-0.013
-321.070	-49.866	0.207	-0.098
-320.056	-124.386	-0.361	0.056
-319.041	-200.000	0.015	0.350
-318.026	-200.000	-0.014	0.222
-317.012	-57.680	0.191	-0.083
-315.997	-155.512	-0.347	0.022
-314.983	800.000	-0.038	0.127
-313.968	286.547	0.056	0.101
-312.953	183.018	-0.268	-0.394
-311.939	800.000	-0.035	0.109
-310.924	210.160	-0.103	0.161
-309.910	203.680	-0.015	0.023
-308.895	-58.399	0.100	0.043
-307.880	-64.818	0.146	0.059
-306.866	-40.491	-0.258	0.133
-305.851	303.091	0.086	-0.159
-304.837	21.571	0.341	-0.275
-303.822	115.615	0.056	-0.068
-302.807	-200.000	0.070	-0.341
-301.793	611.252	-0.030	0.075
-300.778	-200.000	-0.039	0.458
-299.764	150.631	0.117	-0.159
-298.749	56.232	-0.296	0.286
-297.735	-49.415	-0.214	0.101
-296.720	-200.000	-0.046	0.245
-295.705	-51.432	0.194	0.090
-294.691	119.238	0.186	0.228
-293.676	-97.505	0.146	0.038
-292.662	229.419	-0.140	0.228
-291.647	-140.483	0.226	0.023
-290.632	-18.604	-0.180	0.112
-289.618	-31.916	0.277	-0.154
-288.603	-174.336	0.339	-0.010
-287.589	800.000	-0.107	0.464
-286.574	-141.871	-0.434	-0.043
-285.559	800.000	0.005	-0.019
-284.545	-200.000	-0.033	0.193
-283.530	31.315	0.341	0.291
-282.516	-94.778	-0.202	-0.055
-281.501	-191.557	-0.451	0.004
-280.486	-200.000	-0.056	0.267
-279.472	-33.301	0.235	-0.129
-278.457	-105.963	0.178	-0.040
-277.443	20.028	-0.221	-0.177
-276.428	-200.000	0.018	-0.151
-275.413	-96.228	-0.198	0.052
-274.399	16.110	0.482	-0.377
-273.384	382.574	0.112	0.229
-272.370	-109.146	0.188	0.040
-271.355	76.499	0.189	0.199
-270.340	-151.354	-0.091	-0.007
-269.326	-200.000	0.089	0.396
-268.311	-173.948	-0.175	-0.005
-267.297	-29.012	0.171	-0.098
-266.282	-100.316	0.275	0.068
-265.267	-57.344	0.228	-0.100
-264.253	-142.150	-0.343	0.034
-263.238	215.316	-0.200	0.315
-262.224	399.893	-0.096	0.200
-261.209	-139.714	-0.244	0.026
-260.195	800.000	-0.071	0.286
-259.180	10.151	-0.074	-0.056
-258.165	-145.733	0.118	-0.010
-257.151	168.899	0.017	0.024
-256.136	-200.000	0.025	0.302
-255.122	800.000	0.074	0.202
-254.107	-200.000	0.019	-0.205
-253.092	-200.000	0.019	0.193
-252.078	-122.052	-0.233	0.038
-251.063	-123.760	0.069	0.011
-250.049	-20.875	0.076	-0.046
-249.034	-200.000	-0.009	-0.446
-248.019	514.135	-0.086	-0.198
-247.005	120.562	0.191	-0.236
-245.990	-185.667	0.283	-0.004
-244.976	88.813	-0.176	0.195
-243.961	-181.099	-0.048	-0.001
-242.946	-170.872	-0.167	0.006
-241.932	-69.576	0.199	-0.075
-240.917	-132.522	-0.126	0.016
-239.903	34.635	-0.199	-0.173
-238.888	-192.643	0.127	-0.001
-237.873	800.000	-0.018	0.061
-236.859	-66.091	0.125	0.049
-235.844	-131.642	-0.201	0.026
-234.830	-200.000	0.030	0.355
-233.815	17.883	-0.210	0.166
-232.800	-125.713	-0.384	0.058
-231.786	54.763	0.152	-0.146
-230.771	-81.013	-0.253	-0.083
-229.757	-200.000	0.045	0.527
-228.742	800.000	0.008	0.024
-227.727	800.000	-0.190	-0.572
-226.713	119.285	-0.164	0.201
-225.698	34.594	-0.318	0.275
-224.684	-41.960	0.244	-0.124
-223.669	800.000	-0.049	-0.165
-222.655	4.793	-0.251	0.183
-221.640	47.799	-0.050	-0.046
-220.625	10.391	0.202	-0.152
-219.611	101.586	0.149	0.172
-218.596	-139.811	-0.164	-0.017
-217.582	-98.463	-0.248	-0.063
-216.567	166.954	-0.216	0.303
-215.552	-117.678	-0.054	0.010
-214.538	-58.740	-0.152	0.065
-213.523	592.782	-0.073	0.180
-212.509	-77.618	-0.219	-0.075
-211.494	-190.449	-0.089	-0.001
-210.479	375.664	0.211	0.427
-209.465	163.240	0.145	0.201
-208.450	-200.000	-0.003	0.175
-207.436	-200.000	0.008	0.385
-206.421	-137.693	0.300	0.033
-205.406	-49.088	-0.177	0.084
-204.392	800.000	0.097	0.348
-203.377	-200.000	0.029	0.309
-202.363	139.232	0.058	0.076
-201.348	-200.000	0.001	-0.307
-200.333	-27.908	-0.262	-0.150
-199.319	-69.248	-0.293	0.112
-198.304	-73.144	0.268	-0.097
-197.290	237.070	0.013	-0.022
-196.275	-200.000	0.220	0.001
-195.260	133.146	0.062	-0.080
-194.246	800.000	0.009	0.037
-193.231	32.382	0.197	-0.168
-192.217	-141.143	0.563	-0.057
-191.202	-12.159	0.045	-0.029
-190.187	800.000	0.123	-0.341
-189.173	-90.661	0.486	-0.139
-188.158	45.557	-0.121	0.111
-187.144	-200.000	-0.017	-0.303
-186.129	800.000	0.045	-0.142
-185.114	459.871	0.028	-0.063
-184.100	-14.514	0.205	0.131
-183.085	-178.849	0.181	-0.004
-182.071	800.000	-0.110	-0.419
-181.056	-150.295	0.403	-0.031
-180.042	67.264	-0.237	-0.239
-179.027	31.557	-0.130	-0.111
-178.012	-200.000	0.007	-0.036
-176.998	-46.271	0.368	-0.179
-175.983	800.000	-0.047	0.194
-174.969	26.038	-0.101	0.083
-173.954	-157.343	0.183	-0.011
-172.939	96.361	-0.089	-0.101
-171.925	-45.056	0.194	-0.096
-170.910	-200.000	-0.042	0.240
-169.896	211.623	0.214	0.333
-168.881	-158.794	0.104	0.006
-167.866	-104.008	-0.197	0.045
-166.852	-156.359	0.351	-0.022
-165.837	462.492	-0.143	-0.316
-164.823	-153.615	0.184	0.013
-163.808	-200.000	-0.059	-0.332
-162.793	129.712	0.142	-0.180
-161.779	378.219	-0.163	0.330
-160.764	-0.019	0.145	-0.102
-159.750	-200.000	-0.047	-0.242
-158.735	152.479	0.088	0.119
-157.720	-200.000	-0.014	0.109
-156.706	398.870	0.138	-0.287
-155.691	-200.000	0.019	-0.135
-154.677	-147.175	-0.077	-0.006
-153.662	-200.000	0.053	0.297
-152.647	82.095	-0.129	-0.138
-151.633	-200.000	0.003	0.046
-150.618	128.023	-0.134	-0.168
-149.604	426.476	0.091	-0.194
-148.589	-36.375	-0.058	-0.031
-147.574	-70.169	-0.131	-0.049
-146.560	-31.339	0.170	-0.095
-145.545	30.146	-0.050	-0.042
-144.531	15.162	0.150	0.116
-143.516	-200.000	-0.024	0.367
-142.502	-141.302	0.070	0.007
-141.487	-200.000	0.006	0.232
-140.472	34.211	0.209	-0.180
-139.458	-66.504	-0.214	0.084
-138.443	290.813	-0.110	-0.198
-137.429	-34.220	0.443	0.240
-136.414	-200.000	0.005	0.131
-135.399	-110.199	-0.033	-0.007
-134.385	606.741	-0.055	-0.136
-133.370	690.898	0.052	0.134
-132.356	-84.166	-0.204	0.064
-131.341	51.684	0.069	0.065
-130.326	-73.293	-0.310	0.112
-129.312	-200.000	-0.034	-0.237
-128.297	-19.856	0.161	0.098
-127.283	136.883	0.055	-0.071
-126.268	479.727	0.155	0.346
-125.253	-98.342	-0.113	0.029
-124.239	-4.934	-0.216	0.147
-123.224	-200.000	0.012	-0.080
-122.210	154.024	0.145	0.197
-121.195	-98.130	0.179	-0.046
-120.180	-172.251	0.106	0.003
-119.166	225.232	0.040	0.064
-118.151	-200.000	-0.049	0.242
-117.137	-180.849	-0.436	-0.009
-116.122	-132.697	-0.476	-0.060
-115.107	-17.006	0.131	0.081
-114.093	547.839	-0.037	-0.087
-113.078	-200.000	0.073	-0.445
-112.064	-200.000	-0.007	-0.100
-111.049	800.000	-0.053	0.153
-110.034	133.150	-0.130	0.165
-109.020	190.659	-0.017	-0.025
-108.005	1.166	-0.100	-0.071
-106.991	24.872	-0.067	-0.055
-105.976	-122.344	0.434	-0.070
-104.962	613.603	-0.120	0.297
-103.947	-104.168	0.190	0.044
-102.932	-200.000	0.008	0.198
-101.918	-200.000	-0.040	-0.180
-100.903	24.161	0.237	0.193
-99.889	-200.000	-0.002	-0.055
-98.874	673.518	0.189	0.483
-97.859	800.000	0.127	0.367
-96.845	274.725	-0.153	-0.267
-95.830	-200.000	-0.060	0.317
-94.816	-32.557	-0.175	0.096
-93.801	-108.635	0.330	-0.070
-92.786	350.020	-0.057	0.111
-91.772	-0.304	-0.136	0.096
-90.757	68.839	-0.106	0.107
-89.743	78.373	0.222	-0.234
-88.728	-21.918	0.056	-0.034
-87.713	-200.000	0.037	0.291
-86.699	-38.043	-0.150	-0.079
-85.684	-91.344	-0.184	0.052
-84.670	-187.732	0.346	0.004
-83.655	53.743	0.096	-0.091
-82.640	158.228	0.116	-0.158
-81.626	-111.463	-0.137	0.028
-80.611	-200.000	0.083	0.367
-79.597	-89.341	0.280	0.081
-78.582	800.000	0.030	-0.085
-77.567	-154.306	-0.401	0.027
-76.553	131.017	0.033	0.042
-75.538	162.785	-0.081	0.111
-74.524	14.911	-0.096	0.074
-73.509	-74.432	0.019	0.007
-72.494	358.960	0.122	0.241
-71.480	288.779	0.084	0.150
-70.465	-180.658	0.160	-0.003
-69.451	114.735	-0.129	0.155
-68.436	-108.949	0.033	0.007
-67.422	698.708	0.060	0.155
-66.407	175.242	-0.223	0.319
-65.392	-47.616	-0.272	0.130
-64.378	-106.789	0.037	0.008
-63.363	102.519	-0.165	0.190
-62.349	95.254	0.334	0.375
-61.334	37.213	-1.026	-0.895
-60.319	81.100	0.359	0.382
-59.305	-200.000	-0.105	-0.624
-58.290	800.000	0.265	0.732
-57.276	325.786	0.833	1.569
-56.261	-200.000	87.844	492.655
-55.246	483.695	1364.283	3054.809
-54.232	152.354	2582.342	3470.136
-53.217	108.422	2303.231	2706.083
-52.203	46.631	1923.233	1757.461
-51.188	40.710	1715.267	1522.140
-50.173	38.061	1670.979	1462.959
-49.159	52.979	1716.321	1616.284
-48.144	56.451	1734.758	1659.976
-47.130	40.515	1692.599	1500.309
-46.115	37.506	1677.957	1464.656
-45.100	37.492	1672.496	1459.729
-44.086	37.394	1670.562	1457.248
-43.071	37.459	1667.508	1455.014
-42.057	37.332	1665.252	1452.037
-41.042	37.470	1663.113	1451.142
-40.027	37.389	1661.717	1449.266
-39.013	37.377	1659.521	1447.204
-37.998	37.414	1656.867	1445.107
-36.984	37.476	1656.037	1444.785
-35.969	37.555	1654.578	1444.041
-34.954	37.531	1653.141	1442.550
-33.940	37.604	1651.144	1441.294
-32.925	37.594	1649.381	1439.621
-31.911	37.472	1648.012	1437.469
-30.896	37.487	1646.071	1435.828
-29.881	37.484	1644.523	1434.401
-28.867	37.461	1642.945	1432.798
-27.852	37.523	1641.563	1431.994
-26.838	37.506	1639.874	1430.337
-25.823	37.524	1638.433	1429.153
-24.809	37.566	1637.311	1428.426
-23.794	37.518	1635.791	1426.694
-22.779	37.655	1633.950	1426.036
-21.765	37.502	1632.697	1423.766
-20.750	37.449	1631.196	1422.015
-19.736	37.507	1630.299	1421.601
-18.721	37.552	1628.488	1420.289
-17.706	37.444	1627.556	1418.636
-16.692	37.576	1625.239	1417.519
-15.677	37.571	1623.783	1416.159
-14.663	37.586	1622.655	1415.226
-13.648	37.529	1621.736	1413.953
-12.633	37.619	1620.147	1413.166
-11.619	37.594	1618.476	1411.471
-10.604	37.532	1616.379	1409.139
-9.590	37.521	1615.748	1408.450
-8.575	37.637	1613.735	1407.477
-7.560	37.536	1612.870	1405.939
-6.546	37.439	1611.898	1404.332
-5.531	37.445	1610.958	1403.500
-4.517	37.485	1609.618	1402.568
-3.502	37.430	1608.526	1401.166
-2.487	37.638	1606.540	1400.879
-1.473	37.185	1594.755	1387.311
-0.458	34.014	1574.343	1347.075
0.556	29.866	1572.981	1310.560
1.571	27.210	1597.260	1311.540
2.586	26.610	1611.585	1318.820
3.600	23.579	1558.211	1253.650
4.615	13.105	1443.801	1092.562
5.629	3.551	1373.720	979.047
6.644	1.695	1364.285	960.531
7.659	1.498	1363.185	958.428
8.673	1.455	1361.690	957.023
9.688	1.423	1360.115	955.635
10.702	1.216	1357.368	952.320
11.717	4.861	1364.636	980.304
12.731	15.369	1384.439	1061.236
13.746	23.660	1398.479	1124.659
14.761	25.351	1401.022	1137.323
15.775	25.731	1399.816	1138.649
16.790	25.706	1400.251	1138.744
17.804	25.755	1399.584	1138.406
18.819	25.963	1399.132	1139.257
19.834	26.128	1398.531	1139.708
20.848	26.161	1397.542	1139.010
21.863	26.235	1396.858	1138.813
22.877	26.086	1395.866	1136.970
23.892	26.199	1394.727	1136.653
24.907	26.101	1394.097	1135.421
25.921	26.140	1393.349	1134.957
26.936	26.105	1392.326	1133.801
27.950	26.086	1391.147	1132.624
28.965	26.163	1389.740	1131.862
29.980	26.104	1388.491	1130.371
30.994	26.144	1387.400	1129.634
32.009	26.097	1386.230	1128.287
33.023	26.152	1384.806	1127.375
34.038	26.131	1384.295	1126.727
35.053	26.125	1382.971	1125.511
36.067	26.092	1382.571	1124.880
37.082	26.133	1381.160	1123.889
38.096	26.033	1380.432	1122.572
39.111	26.167	1379.493	1122.543
40.126	26.095	1378.769	1121.407
41.140	26.051	1378.395	1120.729
42.155	26.070	1377.701	1120.186
43.169	26.068	1377.900	1120.234
44.184	26.083	1377.976	1120.290
45.199	26.050	1377.278	1119.420
46.213	26.066	1376.764	1119.003
47.228	26.035	1375.839	1117.958
48.242	26.124	1374.600	1117.406
49.257	26.128	1372.831	1115.894
50.271	26.069	1372.057	1114.802
51.286	26.118	1370.175	1113.475
52.301	26.073	1368.973	1112.123
53.315	25.957	1368.373	1110.823
54.330	26.002	1367.712	1110.465
55.344	26.041	1366.469	1109.597
56.359	26.030	1365.698	1108.808
57.374	26.037	1364.262	1107.585
58.388	26.051	1364.253	1107.566
59.403	26.096	1363.279	1106.952
60.417	26.000	1362.996	1106.038
61.432	26.162	1362.030	1106.147
62.447	26.037	1361.621	1104.950
63.461	26.022	1360.316	1103.700
64.476	26.038	1359.307	1102.886
65.490	26.095	1357.965	1102.049
66.505	26.206	1355.993	1101.024
67.520	26.120	1354.767	1099.407
68.534	26.065	1354.098	1098.435
69.549	26.064	1353.488	1097.833
70.563	26.094	1352.099	1096.791
71.578	26.029	1351.186	1095.559
72.593	26.195	1350.290	1095.746
73.607	26.116	1349.769	1094.749
74.622	26.182	1348.986	1094.413
75.636	26.129	1347.998	1093.193
76.651	26.131	1347.349	1092.584
77.666	26.087	1347.046	1091.972
78.680	26.141	1346.311	1091.608
79.695	26.059	1345.778	1090.585
80.709	26.050	1344.848	1089.681
81.724	26.044	1344.139	1088.972
82.739	26.107	1343.154	1088.459
83.753	26.008	1342.255	1087.037
84.768	26.067	1341.042	1086.313
85.782	25.975	1340.118	1084.918
86.797	26.131	1338.785	1084.678
87.812	26.237	1337.662	1084.308
88.826	26.139	1336.834	1082.954
89.841	26.117	1335.533	1081.673
90.855	26.112	1334.893	1081.027
91.870	26.142	1333.626	1080.089
92.884	26.095	1333.420	1079.545
93.899	26.124	1332.232	1078.657
94.914	26.161	1331.662	1078.324
95.928	26.159	1330.977	1077.663
96.943	26.158	1329.964	1076.740
97.957	26.285	1328.965	1076.589
98.972	26.239	1328.402	1075.768
99.987	26.223	1327.336	1074.712
101.001	26.087	1326.439	1073.086
102.016	26.104	1325.575	1072.389
103.030	26.239	1324.370	1072.121
104.045	26.184	1323.525	1071.014
105.060	26.184	1323.019	1070.510
106.074	26.224	1321.442	1069.376
107.089	26.201	1320.827	1068.652
108.103	26.201	1319.896	1067.802
109.118	26.156	1318.765	1066.524
110.133	26.252	1317.825	1066.236
111.147	26.105	1316.938	1064.560
112.162	26.202	1315.521	1063.892
113.176	26.138	1314.643	1062.713
114.191	26.180	1314.057	1062.390
115.206	26.209	1312.684	1061.354
116.220	26.232	1311.426	1060.378
117.235	26.283	1310.537	1059.869
118.249	26.164	1309.700	1058.396
119.264	26.169	1308.975	1057.748
120.279	26.225	1308.569	1057.655
121.293	26.318	1307.479	1057.226
122.308	26.241	1306.594	1055.965
123.322	26.207	1305.704	1054.956
124.337	26.351	1304.804	1054.972
125.352	26.277	1304.133	1053.905
126.366	26.373	1303.033	1053.484
127.381	26.295	1302.317	1052.358
128.395	26.350	1301.134	1051.628
129.410	26.327	1300.176	1050.624
130.424	26.351	1299.565	1050.183
131.439	26.290	1299.452	1049.641
132.454	26.366	1298.315	1049.072
133.468	26.214	1297.529	1047.463
134.483	26.170	1296.901	1046.609
135.497	26.254	1296.155	1046.396
136.512	26.232	1295.095	1045.322
137.527	26.227	1294.309	1044.564
138.541	26.262	1292.823	1043.479
139.556	26.284	1292.106	1042.931
140.570	26.283	1290.679	1041.685
141.585	26.289	1289.864	1040.966
142.600	26.207	1288.888	1039.617
143.614	26.235	1288.383	1039.277
144.629	26.272	1286.731	1038.066
145.643	26.158	1285.800	1036.567
146.658	26.149	1284.891	1035.691
147.673	26.174	1283.592	1034.700
148.687	26.120	1283.165	1033.950
149.702	26.152	1281.793	1032.941
150.716	26.225	1280.093	1031.895
151.731	26.224	1279.368	1031.215
152.746	26.174	1278.217	1029.909
153.760	26.303	1277.443	1029.927
154.775	26.294	1276.473	1029.004
155.789	26.264	1275.375	1027.857
156.804	26.231	1274.648	1026.992
157.819	26.260	1273.772	1026.365
158.833	26.348	1273.081	1026.214
159.848	26.317	1272.195	1025.234
160.862	26.429	1271.238	1025.005
161.877	26.354	1270.677	1024.041
162.892	26.230	1270.293	1022.933
163.906	26.277	1269.474	1022.452
164.921	26.226	1268.808	1021.534
165.935	26.440	1267.840	1021.875
166.950	26.261	1267.454	1020.464
167.964	26.364	1266.815	1020.439
168.979	26.417	1265.934	1019.941
169.994	26.444	1265.328	1019.512
171.008	26.401	1264.668	1018.651
172.023	26.389	1263.981	1017.936
173.037	26.413	1263.193	1017.346
174.052	26.479	1262.186	1016.820
175.067	26.368	1261.659	1015.678
176.081	26.455	1260.449	1015.103
177.096	26.308	1260.069	1013.882
178.110	26.334	1259.476	1013.461
179.125	26.427	1257.982	1012.693
180.140	26.432	1257.294	1012.077
181.154	26.382	1255.948	1010.624
182.169	26.377	1255.181	1009.889
183.183	26.462	1254.215	1009.493
184.198	26.391	1253.101	1008.114
185.213	26.496	1252.400	1008.045
186.227	26.335	1251.810	1006.586
187.242	26.464	1250.256	1005.962
188.256	26.382	1249.724	1004.992
189.271	26.433	1248.551	1004.245
190.286	26.530	1247.851	1004.128
191.300	26.434	1247.446	1003.183
192.315	26.337	1247.506	1002.602
193.329	26.444	1246.714	1002.472
194.344	26.434	1246.187	1001.902
195.359	26.529	1245.368	1001.679
196.373	26.408	1244.947	1000.586
197.388	26.414	1244.355	1000.053
198.402	26.388	1244.376	999.840
199.417	26.341	1244.136	999.300
200.432	26.461	1243.082	999.027
201.446	26.528	1242.499	998.837
202.461	26.486	1241.428	997.655
203.475	26.395	1240.959	996.688
204.490	26.460	1240.089	996.259
205.504	26.488	1238.750	995.251
206.519	26.494	1238.322	994.850
207.534	26.529	1236.921	993.830
208.548	26.580	1236.115	993.375
209.563	26.461	1235.673	992.280
210.577	26.588	1234.292	991.776
211.592	26.479	1233.540	990.490
212.607	26.534	1233.332	990.536
213.621	26.587	1232.234	989.858
214.636	26.609	1231.332	989.163
215.650	26.623	1230.507	988.492
216.665	26.586	1229.569	987.450
217.680	26.550	1228.736	986.493
218.694	26.653	1227.965	986.352
219.709	26.577	1227.367	985.366
220.723	26.631	1226.991	985.274
221.738	26.727	1225.572	984.571
222.753	26.566	1224.976	983.127
223.767	26.547	1225.099	983.034
224.782	26.764	1224.026	983.267
225.796	26.650	1223.821	982.397
226.811	26.726	1222.680	981.804
227.826	26.719	1222.353	981.418
228.840	26.738	1221.615	980.840
229.855	26.775	1220.873	980.359
230.869	26.744	1220.199	979.565
231.884	26.668	1219.790	978.737
232.899	26.660	1218.652	977.697
233.913	26.809	1218.416	978.225
234.928	26.778	1217.820	977.489
235.942	26.689	1217.656	976.792
236.957	26.762	1216.519	976.189
237.972	26.734	1215.466	975.106
238.986	26.697	1215.186	974.593
240.001	26.786	1214.665	974.567
241.015	26.843	1213.430	973.798
242.030	26.775	1213.245	973.200
243.045	26.797	1212.397	972.553
244.059	26.803	1211.395	971.694
245.074	26.949	1210.671	971.809
246.088	26.937	1209.848	970.996
247.103	26.859	1209.152	969.933
248.117	26.847	1208.297	969.099
249.132	26.906	1207.595	968.764
250.147	26.841	1207.084	967.925
251.161	27.012	1206.282	968.107
252.176	26.881	1205.387	966.605
253.190	26.829	1204.904	965.856
254.205	26.912	1204.386	965.798
255.220	26.834	1203.932	964.931
256.234	26.883	1203.499	964.758
257.249	26.923	1202.524	964.103
258.263	26.953	1201.722	963.538
259.278	26.934	1201.884	963.478
260.293	26.959	1201.069	962.872
261.307	26.925	1200.237	961.941
262.322	26.907	1199.654	961.295
263.336	26.922	1199.152	960.887
264.351	27.066	1198.433	960.984
265.366	27.068	1197.868	960.458
266.380	27.019	1197.143	959.532
267.395	27.086	1196.262	959.096
268.409	26.977	1195.771	958.045
269.424	26.907	1195.752	957.574
270.439	26.995	1194.965	957.323
271.453	27.052	1194.099	956.844
272.468	27.054	1192.933	955.835
273.482	26.973	1192.401	954.900
274.497	27.123	1191.924	955.221
275.512	27.177	1191.500	955.081
276.526	27.023	1190.743	953.582
277.541	27.020	1190.384	953.195
278.555	27.088	1189.661	952.886
279.570	27.137	1188.843	952.406
280.585	27.040	1188.438	951.486
281.599	27.029	1187.277	950.413
282.614	27.130	1186.051	949.879
283.628	27.131	1185.225	949.136
284.643	27.193	1184.427	948.740
285.657	27.224	1183.705	948.240
286.672	27.146	1182.892	947.095
287.687	27.113	1182.407	946.450
288.701	27.238	1181.477	946.277
289.716	27.107	1180.914	945.057
290.730	27.108	1180.303	944.492
291.745	27.204	1179.654	944.385
292.760	27.304	1178.836	944.167
293.774	27.138	1178.787	943.182
294.789	27.294	1177.958	943.244
295.803	27.327	1177.362	942.854
296.818	27.167	1176.897	941.570
297.833	27.313	1176.080	941.590
298.847	27.306	1175.112	940.693
299.862	27.329	1174.322	940.098
300.876	27.264	1173.759	939.230
301.891	27.299	1173.103	938.802
302.906	27.413	1172.710	938.991
303.920	27.438	1171.884	938.374
304.935	27.375	1171.299	937.498
305.949	27.387	1170.836	937.106
306.964	27.419	1170.134	936.629
307.979	27.418	1169.800	936.274
308.993	27.435	1168.875	935.537
310.008	27.413	1167.887	934.551
311.022	27.347	1167.337	933.691
312.037	27.597	1166.387	934.129
313.052	27.496	1165.500	932.818
314.066	27.348	1165.222	931.754
315.081	27.415	1164.385	931.346
316.095	27.426	1163.767	930.828
317.110	27.397	1163.196	930.136
318.125	27.491	1162.650	930.100
319.139	27.407	1162.013	929.080
320.154	27.519	1160.879	928.659
321.168	27.436	1161.097	928.328
322.183	27.593	1160.051	928.210
323.197	27.504	1159.702	927.397
324.212	27.587	1158.874	927.072
325.227	27.490	1158.806	926.445
326.241	27.501	1158.151	925.893
327.256	27.535	1157.251	925.268
328.270	27.572	1156.249	924.569
329.285	27.591	1155.690	924.136
330.300	27.559	1154.610	923.031
331.314	27.583	1154.049	922.621
332.329	27.657	1153.081	922.141
333.343	27.647	1152.281	921.368
334.358	27.735	1151.370	921.005
335.373	27.724	1150.814	920.420
336.387	27.618	1150.248	919.352
337.402	27.706	1149.465	919.089
338.416	27.711	1148.881	918.568
339.431	27.635	1148.304	917.642
340.446	27.728	1148.054	917.828
341.460	27.685	1147.625	917.187
342.475	27.703	1146.457	916.265
343.489	27.859	1145.230	915.985
344.504	27.831	1144.060	914.826
345.519	27.867	1143.341	914.351
346.533	28.014	1142.312	914.184
347.548	27.901	1142.013	913.299
348.562	27.780	1141.877	912.505
349.577	27.868	1140.787	911.990
350.592	27.724	1139.883	910.471
351.606	27.759	1139.432	910.203
352.621	27.709	1139.182	909.673
353.635	27.750	1138.895	909.567
354.650	27.785	1137.945	908.900
355.665	27.839	1137.345	908.610
356.679	27.990	1136.324	908.464
357.694	27.868	1135.721	907.298
358.708	27.940	1135.009	907.004
359.723	27.943	1134.439	906.483
360.738	27.890	1133.668	905.527
361.752	27.952	1133.042	905.251
362.767	28.028	1132.593	905.191
363.781	27.963	1132.185	904.464
364.796	28.016	1131.507	904.102
365.810	28.028	1130.863	903.571
366.825	27.947	1130.464	902.770
367.840	27.964	1130.191	902.554
368.854	28.058	1129.346	902.262
369.869	28.087	1128.397	901.568
370.883	28.054	1127.902	900.931
371.898	28.140	1127.111	900.642
372.913	28.055	1126.708	899.823
373.927	28.142	1126.213	899.778
374.942	28.187	1125.493	899.343
375.956	28.129	1125.176	898.725
376.971	28.156	1124.727	898.420
377.986	28.261	1123.840	898.149
379.000	28.263	1123.295	897.642
380.015	28.205	1122.731	896.828
381.029	28.222	1122.326	896.506
382.044	28.263	1121.561	896.018
383.059	28.166	1121.073	895.075
384.073	28.284	1120.406	895.042
385.088	28.294	1119.327	894.148
386.102	28.273	1118.930	893.646
387.117	28.179	1117.808	892.215
388.132	28.285	1116.651	891.727
389.146	28.220	1116.465	891.185
390.161	28.313	1115.477	890.771
391.175	28.238	1114.857	889.830
392.190	28.327	1114.209	889.669
393.205	28.424	1113.294	889.329
394.219	28.436	1112.340	888.547
395.234	28.326	1112.162	887.792
396.248	28.424	1110.938	887.212
397.263	28.370	1110.321	886.381
398.278	28.532	1109.588	886.496
399.292	28.599	1109.024	886.291
400.307	28.359	1108.969	885.011
401.321	28.472	1108.065	884.757
402.336	28.479	1107.235	884.051
403.350	28.449	1106.600	883.318
404.365	28.370	1106.154	882.502
405.380	28.477	1105.272	882.239
406.394	28.554	1104.499	881.912
407.409	28.542	1103.967	881.352
408.423	28.511	1103.371	880.649
409.438	28.549	1102.425	879.997
410.453	28.601	1101.989	879.824
411.467	28.644	1101.159	879.288
412.482	28.609	1100.701	878.676
413.496	28.572	1099.996	877.857
414.511	28.651	1099.007	877.371
415.526	28.614	1098.556	876.757
416.540	28.724	1098.117	876.852
417.555	28.687	1097.790	876.338
418.569	28.630	1097.281	875.584
419.584	28.617	1097.251	875.421
420.599	28.679	1096.907	875.362
421.613	97.746	1312.254	1422.182
422.628	91.353	1343.618	1422.277
