DTS Sentinel unit serial number:	SN413079Multiplexer serial number:	ORYXHardware model number:	OX4-SRSoftware version number:	ORYX F/W v4.00 Oryx Data Collector v3.7.2.0data status	okinstallation	princeton_trtdifferential loss correction	single-endedforward channel	channel 2reverse channel	N/Adate	2019/09/12time	01:33:11forward acquisition time	60.00reverse acquisition time	0.00gamma	496.2192k internal	0.2326k external	0.2326temperature offset calibration	1.0090default loss term (dB/km)	0.3790temperature slope calibration	1.0000multiplexer offset coefficient	1.0000multiplexer slope coefficient	1.0000fibre end	0.00T internal ref (°C)	32.94T ext. ref 1 (°C)	2.08T ext. ref 2 (°C)	27.34length (m)	temperature (°C)	Stokes	anti-Stokes-747.200	-3.246	-0.068	-0.048
-746.185	-18.913	-0.385	0.241
-745.171	436.793	-0.106	0.233
-744.156	-159.376	-0.333	0.019
-743.142	-200.000	-0.038	-0.199
-742.127	-123.794	-0.165	0.026
-741.112	200.826	-0.207	0.321
-740.098	-45.897	-0.218	-0.109
-739.083	-109.119	0.010	0.002
-738.069	-200.000	0.033	0.203
-737.054	-14.243	0.041	0.027
-736.039	8.904	-0.105	0.080
-735.025	-44.133	0.395	-0.200
-734.010	-26.963	-0.313	-0.185
-732.996	2.088	-0.192	-0.139
-731.981	676.123	0.032	-0.085
-730.966	-44.364	-0.148	0.075
-729.952	-200.000	0.071	-0.350
-728.937	800.000	0.086	-0.342
-727.923	-36.187	-0.114	0.062
-726.908	-116.148	0.052	-0.010
-725.894	-200.000	-0.017	-0.151
-724.879	384.813	0.190	-0.396
-723.864	23.305	0.080	0.066
-722.850	139.223	0.226	0.300
-721.835	-125.735	0.219	0.033
-720.821	-55.607	-0.199	-0.090
-719.806	211.000	-0.091	0.145
-718.791	800.000	0.038	-0.143
-717.777	386.379	0.143	-0.297
-716.762	43.028	0.180	0.165
-715.748	-200.000	0.013	-0.134
-714.733	309.993	0.109	0.205
-713.718	99.517	-0.156	0.182
-712.704	-91.574	-0.096	0.028
-711.689	43.828	-0.098	-0.090
-710.675	575.656	-0.078	-0.191
-709.660	800.000	-0.073	0.214
-708.645	643.549	0.040	-0.103
-707.631	800.000	0.037	-0.163
-706.616	-82.839	0.266	-0.086
-705.602	-122.526	-0.257	-0.042
-704.587	-200.000	0.004	-0.113
-703.572	800.000	0.009	0.040
-702.558	105.752	-0.277	-0.330
-701.543	669.075	-0.084	-0.219
-700.529	-127.832	0.031	0.004
-699.514	800.000	-0.232	-0.652
-698.499	297.226	0.172	-0.318
-697.485	84.321	0.237	-0.261
-696.470	-200.000	-0.026	0.222
-695.456	-200.000	0.043	0.342
-694.441	-200.000	0.078	0.348
-693.426	-200.000	0.031	0.180
-692.412	2.030	0.110	0.080
-691.397	-121.009	-0.228	-0.038
-690.383	-93.565	-0.113	-0.032
-689.368	71.505	0.185	0.193
-688.354	76.389	0.161	0.172
-687.339	-75.744	0.295	0.105
-686.324	-125.847	0.229	-0.035
-685.310	-200.000	-0.009	-0.237
-684.295	-13.954	0.261	0.170
-683.281	1.419	-0.117	0.085
-682.266	-26.871	0.059	-0.034
-681.251	111.282	-0.265	-0.321
-680.237	-139.083	-0.195	-0.021
-679.222	107.205	0.095	-0.114
-678.208	-200.000	0.021	-0.113
-677.193	800.000	-0.053	-0.220
-676.178	-96.411	0.275	0.073
-675.164	582.584	-0.091	0.224
-674.149	449.603	-0.108	-0.239
-673.135	227.389	-0.110	0.179
-672.120	-164.641	0.069	0.003
-671.105	-200.000	-0.019	0.342
-670.091	-200.000	0.017	0.187
-669.076	43.558	0.183	0.168
-668.062	-173.183	-0.146	0.004
-667.047	800.000	0.033	-0.107
-666.032	-200.000	0.004	-0.080
-665.018	-25.460	-0.223	0.132
-664.003	458.406	0.240	-0.537
-662.989	141.168	-0.201	-0.267
-661.974	5.135	-0.103	0.076
-660.959	82.240	0.103	-0.113
-659.945	-143.044	-0.176	0.017
-658.930	492.733	-0.128	0.295
-657.916	800.000	0.099	-0.276
-656.901	101.452	-0.132	0.155
-655.886	-200.000	0.041	0.227
-654.872	83.937	0.096	-0.105
-653.857	122.121	-0.153	0.192
-652.843	-132.336	0.224	-0.029
-651.828	152.583	-0.084	0.115
-650.814	-33.351	0.067	0.037
-649.799	171.759	0.103	-0.148
-648.784	-43.348	-0.186	-0.094
-647.770	20.069	-0.260	0.211
-646.755	800.000	0.102	0.327
-645.741	-65.141	-0.123	-0.050
-644.726	-9.700	-0.109	0.073
-643.711	800.000	0.097	-0.352
-642.697	-41.228	0.128	-0.066
-641.682	648.266	0.013	0.033
-640.668	716.331	0.026	0.070
-639.653	-114.517	-0.044	-0.009
-638.638	-112.669	0.323	-0.065
-637.624	-87.058	0.316	0.097
-636.609	-38.609	-0.068	0.036
-635.595	17.302	0.275	-0.220
-634.580	450.279	-0.250	0.553
-633.565	-93.677	-0.322	-0.089
-632.551	176.469	0.024	-0.034
-631.536	-117.860	0.280	0.050
-630.522	-56.097	0.183	-0.082
-629.507	-56.847	0.183	-0.081
-628.492	-200.000	-0.039	-0.324
-627.478	-200.000	0.012	-0.155
-626.463	26.845	-0.388	0.327
-625.449	138.962	-0.113	-0.149
-624.434	100.667	0.277	-0.323
-623.419	-200.000	0.018	0.182
-622.405	85.085	-0.274	0.302
-621.390	800.000	0.048	0.199
-620.376	-200.000	-0.089	-0.459
-619.361	-200.000	0.117	-0.521
-618.346	79.162	-0.244	-0.263
-617.332	-61.627	0.168	0.071
-616.317	-145.129	-0.246	-0.022
-615.303	244.082	0.017	0.029
-614.288	-162.315	0.322	-0.016
-613.273	-116.610	0.230	-0.042
-612.259	-56.111	-0.106	-0.047
-611.244	-146.712	-0.223	0.019
-610.230	83.637	-0.123	0.135
-609.215	-30.460	0.314	0.179
-608.201	72.833	-0.097	-0.101
-607.186	74.802	0.113	-0.119
-606.171	771.483	-0.048	0.132
-605.157	-1.030	0.132	0.094
-604.142	-133.604	0.276	-0.035
-603.128	788.666	-0.063	-0.174
-602.113	-109.325	0.486	0.103
-601.098	131.821	-0.031	-0.040
-600.084	734.150	-0.001	-0.004
-599.069	-131.396	0.263	-0.035
-598.055	-199.250	0.101	0.001
-597.040	332.118	0.191	-0.369
-596.025	-200.000	0.024	-0.276
-595.011	-131.978	0.223	0.029
-593.996	294.558	-0.037	0.067
-592.982	800.000	-0.127	-0.392
-591.967	-200.000	0.032	-0.242
-590.952	72.369	-0.056	-0.059
-589.938	175.154	0.032	-0.047
-588.923	-113.901	0.108	0.021
-587.909	55.725	0.303	-0.294
-586.894	-10.215	-0.378	0.252
-585.879	-200.000	0.037	0.268
-584.865	393.515	-0.050	-0.105
-583.850	2.653	0.116	-0.084
-582.836	-200.000	0.021	0.239
-581.821	-3.686	-0.198	-0.138
-580.806	-200.000	0.037	0.243
-579.792	-0.390	-0.092	0.065
-578.777	-91.111	0.162	0.046
-577.763	-200.000	0.027	0.272
-576.748	-200.000	0.003	-0.035
-575.733	-200.000	0.031	0.299
-574.719	61.515	-0.174	-0.173
-573.704	-28.905	-0.033	0.019
-572.690	-171.943	0.438	0.014
-571.675	800.000	0.073	-0.279
-570.661	266.607	0.155	0.272
-569.646	-125.550	0.389	0.059
-568.631	-114.121	0.244	-0.047
-567.617	-130.255	-0.166	0.023
-566.602	800.000	-0.050	0.184
-565.588	-103.130	0.183	0.043
-564.573	-200.000	-0.041	0.288
-563.558	-200.000	-0.059	0.369
-562.544	-113.042	0.071	0.014
-561.529	-5.140	0.137	0.095
-560.515	800.000	-0.024	-0.094
-559.500	800.000	0.046	0.160
-558.485	800.000	0.053	0.205
-557.471	49.283	-0.310	-0.292
-556.456	-167.862	0.163	0.006
-555.442	800.000	-0.078	-0.230
-554.427	-71.714	0.125	0.047
-553.412	-125.442	-0.261	-0.040
-552.398	-16.265	0.277	0.176
-551.383	-195.889	-0.383	-0.003
-550.369	-200.000	-0.004	0.258
-549.354	191.248	0.204	-0.307
-548.339	-47.825	0.308	0.149
-547.325	-200.000	0.003	-0.186
-546.310	126.877	-0.112	-0.142
-545.296	800.000	-0.023	-0.068
-544.281	-118.124	0.175	-0.031
-543.266	348.211	0.059	-0.116
-542.252	473.053	0.072	-0.163
-541.237	-9.860	0.207	0.138
-540.223	242.662	-0.084	-0.141
-539.208	-200.000	0.049	-0.333
-538.193	-110.286	-0.094	-0.020
-537.179	32.266	-0.111	-0.096
-536.164	-200.000	-0.017	0.339
-535.150	31.367	-0.232	-0.199
-534.135	-139.343	0.448	0.048
-533.121	-27.987	0.173	-0.100
-532.106	-98.667	0.275	0.070
-531.091	-200.000	-0.353	0.000
-530.077	103.335	-0.075	0.088
-529.062	-200.000	-0.003	0.176
-528.048	651.769	0.171	0.437
-527.033	-38.527	-0.342	0.181
-526.018	-58.032	0.119	0.052
-525.004	-48.535	0.179	-0.086
-523.989	-200.000	0.015	-0.261
-522.975	-10.629	0.073	0.048
-521.960	-38.795	-0.098	-0.051
-520.945	-39.643	0.116	-0.061
-519.931	3.627	-0.155	0.113
-518.916	-10.506	0.114	0.076
-517.902	-9.640	0.181	-0.120
-516.887	28.774	-0.294	-0.249
-515.872	39.978	-0.048	-0.043
-514.858	2.244	0.078	0.056
-513.843	618.919	0.208	-0.521
-512.829	-91.540	-0.298	0.085
-511.814	-97.839	0.324	0.084
-510.799	-22.603	-0.129	0.078
-509.785	-28.580	-0.141	-0.081
-508.770	94.250	-0.270	-0.307
-507.756	-18.266	-0.281	0.175
-506.741	-31.210	-0.106	0.059
-505.726	-200.000	-0.011	-0.061
-504.712	-200.000	-0.006	0.033
-503.697	-103.716	0.197	0.046
-502.683	134.391	-0.153	0.198
-501.668	240.180	-0.068	-0.113
-500.653	230.819	-0.214	0.350
-499.639	-122.244	-0.224	-0.037
-498.624	-178.585	0.210	0.005
-497.610	325.179	-0.081	0.155
-496.595	522.804	-0.059	0.139
-495.581	-112.837	-0.246	-0.049
-494.566	350.829	-0.137	0.270
-493.551	-39.316	0.268	-0.140
-492.537	42.664	0.110	-0.100
-491.522	4.491	-0.250	0.183
-490.508	-200.000	0.038	0.268
-489.493	-200.000	-0.057	0.260
-488.478	-94.765	0.111	-0.030
-487.464	-200.000	-0.009	-0.162
-486.449	-89.976	0.107	-0.031
-485.435	432.843	0.127	-0.275
-484.420	-153.268	0.178	0.012
-483.405	-200.000	0.028	-0.143
-482.391	-200.000	-0.003	0.014
-481.376	46.942	0.265	0.246
-480.362	196.678	0.067	-0.102
-479.347	85.966	-0.146	0.160
-478.332	-200.000	-0.052	-0.361
-477.318	-53.280	-0.380	0.174
-476.303	1.043	0.206	0.147
-475.289	800.000	0.045	0.174
-474.274	274.695	-0.202	0.357
-473.259	-58.597	-0.245	-0.106
-472.245	-166.981	0.165	-0.007
-471.230	87.262	-0.118	-0.130
-470.216	136.368	0.077	0.100
-469.201	207.709	0.232	-0.361
-468.186	-200.000	-0.017	-0.104
-467.172	54.917	0.160	-0.154
-466.157	93.210	-0.280	-0.316
-465.143	-200.000	0.065	-0.365
-464.128	-200.000	0.008	-0.137
-463.113	-200.000	0.015	-0.181
-462.099	-146.417	-0.072	-0.006
-461.084	556.037	0.018	-0.044
-460.070	800.000	0.061	0.259
-459.055	-200.000	-0.007	0.128
-458.040	-90.466	0.132	0.038
-457.026	-23.054	-0.093	-0.056
-456.011	-25.172	0.391	0.231
-454.997	-83.995	-0.097	0.031
-453.982	800.000	-0.108	-0.338
-452.968	766.136	0.101	0.273
-451.953	391.010	-0.163	-0.337
-450.938	800.000	-0.028	0.102
-449.924	-21.978	0.155	0.094
-448.909	33.557	-0.216	-0.188
-447.895	112.763	-0.107	-0.129
-446.880	-14.604	-0.147	0.094
-445.865	-11.592	0.241	-0.158
-444.851	-48.683	-0.078	-0.037
-443.836	429.494	0.189	0.408
-442.822	800.000	0.024	0.089
-441.807	-133.836	-0.117	0.014
-440.792	181.093	0.125	-0.183
-439.778	-112.938	0.148	-0.029
-438.763	4.974	0.058	0.042
-437.749	-123.903	-0.095	0.015
-436.734	31.125	0.102	0.087
-435.719	-26.810	0.182	0.106
-434.705	192.980	0.199	0.299
-433.690	30.203	-0.100	0.085
-432.676	-200.000	-0.000	-0.106
-431.661	-110.937	-0.585	-0.120
-430.646	-200.000	0.030	-0.250
-429.632	-50.123	0.177	0.083
-428.617	408.559	-0.083	-0.175
-427.603	-110.947	-0.164	0.034
-426.588	800.000	-0.053	-0.174
-425.573	-168.407	0.196	-0.007
-424.559	541.368	-0.117	0.278
-423.544	-90.405	-0.270	-0.078
-422.530	-200.000	0.022	-0.312
-421.515	-144.123	0.100	0.009
-420.500	-130.742	-0.195	0.026
-419.486	311.162	-0.071	0.133
-418.471	-123.458	0.040	0.006
-417.457	343.893	0.067	0.131
-416.442	28.301	0.127	-0.107
-415.428	-35.133	-0.080	0.043
-414.413	-89.778	-0.246	0.072
-413.398	800.000	-0.040	0.164
-412.384	486.381	-0.071	-0.160
-411.369	36.581	0.145	-0.127
-410.355	-87.367	-0.603	-0.182
-409.340	-125.549	-0.213	0.032
-408.325	800.000	0.059	-0.250
-407.311	-200.000	0.020	-0.099
-406.296	750.467	0.119	-0.319
-405.282	-12.429	-0.161	-0.105
-404.267	106.721	0.166	0.195
-403.252	102.161	-0.133	-0.155
-402.238	32.753	0.106	0.091
-401.223	-84.580	0.184	-0.058
-400.209	153.266	-0.206	0.281
-399.194	-200.000	-0.035	-0.320
-398.179	119.707	-0.166	-0.204
-397.165	800.000	0.053	-0.201
-396.150	-107.505	-0.177	0.039
-395.136	800.000	0.086	-0.312
-394.121	251.354	-0.120	-0.203
-393.106	-39.546	-0.250	0.130
-392.092	-59.290	-0.039	0.017
-391.077	-121.282	-0.073	0.012
-390.063	-200.000	0.012	-0.321
-389.048	200.841	0.196	-0.300
-388.033	-73.397	-0.095	-0.034
-387.019	305.285	-0.200	-0.369
-386.004	-200.000	0.002	0.072
-384.990	-6.395	-0.239	0.162
-383.975	-200.000	0.054	0.309
-382.960	-93.941	-0.153	-0.042
-381.946	90.584	0.114	-0.127
-380.931	-81.027	-0.187	0.062
-379.917	-134.863	-0.232	0.028
-378.902	70.447	0.038	0.039
-377.888	96.162	-0.126	-0.143
-376.873	-5.956	0.139	0.095
-375.858	-200.000	0.074	0.321
-374.844	362.240	-0.275	-0.550
-373.829	241.486	-0.078	-0.129
-372.815	-83.744	0.124	0.039
-371.800	-92.803	0.218	0.061
-370.785	-33.952	-0.124	0.068
-369.771	-147.766	0.101	-0.008
-368.756	-64.422	0.517	-0.209
-367.742	54.528	0.127	0.122
-366.727	-152.536	0.033	0.002
-365.712	27.063	-0.179	0.149
-364.698	-200.000	-0.023	-0.150
-363.683	325.899	-0.168	0.319
-362.669	-121.483	0.464	0.077
-361.654	-200.000	0.003	-0.042
-360.639	-120.564	0.217	-0.037
-359.625	157.337	0.061	-0.084
-358.610	181.244	-0.109	-0.159
-357.596	-90.902	-0.095	0.027
-356.581	-186.924	0.047	-0.001
-355.566	800.000	-0.020	-0.069
-354.552	399.120	0.143	0.297
-353.537	2.047	-0.205	0.147
-352.523	102.481	-0.110	0.128
-351.508	-6.103	0.151	-0.102
-350.493	69.592	0.097	0.099
-349.479	-113.289	-0.305	-0.059
-348.464	-200.000	0.048	0.262
-347.450	-38.962	0.117	0.061
-346.435	-62.879	-0.194	-0.080
-345.420	-54.665	0.458	0.206
-344.406	22.649	0.228	0.186
-343.391	696.060	-0.128	0.335
-342.377	-57.383	0.141	-0.061
-341.362	-200.000	0.066	-0.321
-340.348	214.318	0.084	-0.132
-339.333	94.189	-0.187	0.210
-338.318	191.354	-0.049	-0.074
-337.304	108.040	0.214	0.254
-336.289	7.130	0.169	-0.125
-335.275	144.519	0.044	-0.058
-334.260	-7.365	-0.087	0.059
-333.245	508.802	0.079	0.182
-332.231	-84.980	-0.149	0.046
-331.216	-200.000	-0.038	-0.370
-330.202	-109.299	-0.139	0.029
-329.187	-200.000	-0.031	-0.164
-328.172	-200.000	-0.002	-0.028
-327.158	14.183	0.149	0.115
-326.143	15.732	-0.167	0.130
-325.129	-200.000	0.006	-0.159
-324.114	174.131	-0.149	0.213
-323.099	-169.748	-0.183	0.007
-322.085	130.924	0.159	0.202
-321.070	-115.967	0.090	-0.017
-320.056	567.916	0.157	-0.379
-319.041	800.000	0.119	0.378
-318.026	-8.322	0.287	-0.191
-317.012	-37.798	-0.216	-0.114
-315.997	-118.704	-0.093	-0.016
-314.983	-80.882	0.270	0.089
-313.968	-98.610	-0.285	0.072
-312.953	-200.000	-0.078	-0.447
-311.939	151.268	0.063	-0.085
-310.924	-200.000	-0.013	0.137
-309.910	204.278	-0.059	-0.091
-308.895	800.000	0.070	-0.230
-307.880	58.711	0.338	-0.329
-306.866	10.810	0.060	0.045
-305.851	27.978	0.117	0.098
-304.837	-154.905	-0.251	-0.016
-303.822	-50.454	0.268	-0.125
-302.807	-111.611	0.061	-0.012
-301.793	-147.559	-0.299	-0.025
-300.778	-200.000	0.012	-0.189
-299.764	122.648	0.098	-0.122
-298.749	37.376	-0.048	-0.042
-297.735	-57.035	0.166	0.072
-296.720	800.000	0.058	0.163
-295.705	147.517	-0.265	-0.354
-294.691	38.551	-0.337	-0.298
-293.676	-174.490	-0.144	0.004
-292.662	42.086	0.245	0.221
-291.647	293.359	0.144	0.261
-290.632	93.992	-0.092	-0.104
-289.618	507.567	0.129	-0.297
-288.603	56.200	-0.104	0.100
-287.589	139.552	0.099	-0.130
-286.574	163.425	-0.204	0.284
-285.559	391.715	0.076	0.156
-284.545	371.551	-0.048	-0.096
-283.530	105.024	0.163	0.190
-282.516	-165.861	-0.053	0.002
-281.501	514.191	-0.034	0.078
-280.486	-60.494	0.269	-0.113
-279.472	-77.992	0.230	0.079
-278.457	-9.522	-0.289	-0.191
-277.443	71.036	-0.073	-0.075
-276.428	-100.734	-0.316	-0.077
-275.413	0.793	0.243	0.173
-274.399	-200.000	0.022	-0.210
-273.384	50.375	0.079	0.074
-272.370	-200.000	0.002	-0.146
-271.355	-200.000	-0.042	0.354
-270.340	800.000	-0.066	-0.269
-269.326	-200.000	-0.007	0.440
-268.311	-131.772	-0.363	0.047
-267.297	22.613	0.045	-0.037
-266.282	800.000	-0.020	0.067
-265.267	-200.000	0.057	-0.251
-264.253	188.601	0.106	0.157
-263.238	-37.397	-0.223	0.118
-262.224	-69.513	-0.181	-0.069
-261.209	47.009	0.101	-0.093
-260.195	-200.000	0.013	0.061
-259.180	129.186	0.067	0.084
-258.165	-10.476	-0.264	0.173
-257.151	-166.419	0.227	-0.009
-256.136	728.921	-0.115	0.303
-255.122	429.233	-0.018	-0.038
-254.107	-78.393	-0.067	0.023
-253.092	410.484	0.072	0.151
-252.078	438.577	-0.169	0.365
-251.063	-70.454	0.143	-0.053
-250.049	-103.445	-0.192	-0.045
-249.034	510.406	-0.159	-0.366
-248.019	-28.854	-0.092	-0.052
-247.005	-144.350	0.178	0.016
-245.990	312.958	-0.071	-0.132
-244.976	315.690	-0.200	-0.373
-243.961	-200.000	-0.011	0.299
-242.946	-140.524	0.036	0.004
-241.932	800.000	0.136	0.466
-240.917	-179.535	0.188	-0.004
-239.903	-42.775	-0.267	-0.134
-238.888	-75.293	-0.095	0.033
-237.873	713.042	0.038	0.101
-236.859	-51.334	-0.079	-0.036
-235.844	-108.105	-0.192	0.041
-234.830	305.950	0.193	0.355
-233.815	30.866	-0.281	0.238
-232.800	-150.873	0.092	-0.007
-231.786	79.075	0.304	-0.322
-230.771	93.399	0.111	0.125
-229.757	600.351	-0.097	-0.238
-228.742	-200.000	-0.016	-0.095
-227.727	-142.639	0.358	0.035
-226.713	-41.303	-0.409	0.208
-225.698	11.431	0.093	-0.070
-224.684	579.230	0.198	0.480
-223.669	-91.483	-0.319	0.090
-222.655	800.000	-0.043	-0.171
-221.640	-163.978	-0.198	0.009
-220.625	800.000	0.042	0.178
-219.611	399.581	0.057	-0.118
-218.596	35.749	0.071	0.062
-217.582	-200.000	0.016	-0.110
-216.567	-200.000	0.005	0.078
-215.552	-200.000	-0.014	-0.155
-214.538	-200.000	-0.044	0.192
-213.523	-79.332	-0.162	0.054
-212.509	-40.948	0.184	0.094
-211.494	79.087	0.063	-0.066
-210.479	-200.000	0.050	0.350
-209.465	-200.000	0.007	0.081
-208.450	-118.428	0.133	-0.023
-207.436	634.733	-0.165	0.413
-206.421	-66.460	-0.234	-0.092
-205.406	135.343	0.301	-0.387
-204.392	-200.000	0.049	-0.282
-203.377	-12.137	0.191	-0.124
-202.363	800.000	0.038	0.108
-201.348	800.000	-0.085	0.265
-200.333	800.000	-0.085	0.234
-199.319	-200.000	0.026	-0.378
-198.304	36.460	-0.094	0.082
-197.290	345.082	0.135	-0.261
-196.275	266.597	0.172	0.297
-195.260	-32.126	0.130	-0.072
-194.246	800.000	-0.100	0.316
-193.231	-200.000	-0.022	0.133
-192.217	-89.452	-0.351	-0.102
-191.202	-148.988	0.359	0.029
-190.187	-200.000	-0.054	-0.299
-189.173	800.000	0.061	-0.179
-188.158	-119.642	-0.224	-0.038
-187.144	-146.838	-0.169	-0.014
-186.129	-200.000	0.088	0.507
-185.114	800.000	-0.070	0.296
-184.100	-200.000	-0.036	-0.170
-183.085	211.782	0.070	0.108
-182.071	800.000	-0.122	-0.519
-181.056	-125.960	-0.267	0.040
-180.042	-33.235	0.069	-0.038
-179.027	-45.275	0.166	-0.081
-178.012	77.765	-0.087	-0.091
-176.998	800.000	-0.064	0.267
-175.983	-27.240	0.163	0.094
-174.969	-31.043	0.272	-0.151
-173.954	-58.648	-0.230	0.098
-172.939	-110.620	-0.172	0.035
-171.925	-200.000	-0.009	-0.206
-170.910	800.000	-0.119	-0.345
-169.896	-48.921	-0.410	0.194
-168.881	147.783	0.083	-0.110
-167.866	143.860	-0.102	-0.134
-166.852	800.000	-0.112	0.332
-165.837	213.336	-0.189	0.295
-164.823	-61.924	0.194	0.080
-163.808	35.598	0.166	0.144
-162.793	151.679	-0.142	0.190
-161.779	677.559	-0.151	-0.387
-160.764	-200.000	-0.025	-0.112
-159.750	548.376	-0.130	0.306
-158.735	-200.000	0.115	0.517
-157.720	-200.000	-0.005	0.290
-156.706	-70.235	-0.181	-0.068
-155.691	-5.288	0.184	0.125
-154.677	-200.000	-0.005	0.576
-153.662	-75.254	0.189	-0.066
-152.647	-28.529	0.041	0.023
-151.633	-200.000	0.015	-0.222
-150.618	-19.734	0.165	-0.101
-149.604	800.000	-0.038	0.135
-148.589	-19.830	0.205	0.125
-147.574	68.651	-0.203	-0.205
-146.560	-82.306	-0.316	-0.101
-145.545	169.392	-0.202	0.284
-144.531	-200.000	0.002	0.168
-143.516	-159.929	0.062	0.003
-142.502	50.187	-0.114	0.106
-141.487	74.321	0.169	-0.175
-140.472	-200.000	0.003	0.108
-139.458	508.068	0.051	0.117
-138.443	-16.273	-0.276	0.173
-137.429	-67.223	0.151	-0.058
-136.414	7.934	0.138	-0.102
-135.399	-81.097	0.068	-0.022
-134.385	126.322	-0.137	0.170
-133.370	-132.911	0.254	0.032
-132.356	1.205	-0.115	-0.081
-131.341	136.264	-0.158	0.203
-130.326	-140.364	-0.404	-0.042
-129.312	-51.368	0.218	0.101
-128.297	3.631	-0.362	-0.260
-127.283	-105.497	0.127	0.028
-126.268	-25.742	0.255	0.148
-125.253	-200.000	-0.023	0.353
-124.239	0.151	0.160	-0.112
-123.224	800.000	-0.087	0.345
-122.210	-200.000	-0.022	-0.208
-121.195	-112.421	0.372	0.073
-120.180	253.962	0.133	0.224
-119.166	-61.951	0.222	0.092
-118.151	-37.513	0.146	0.077
-117.137	-200.000	-0.027	-0.342
-116.122	-170.942	-0.191	0.006
-115.107	33.432	-0.148	-0.126
-114.093	210.226	0.214	0.330
-113.078	-120.169	-0.209	0.035
-112.064	3.060	0.077	0.055
-111.049	525.010	-0.058	0.135
-110.034	800.000	0.060	0.190
-109.020	-25.799	0.331	-0.192
-108.005	-22.850	0.033	-0.019
-106.991	122.766	-0.104	0.128
-105.976	-200.000	-0.000	0.043
-104.962	-66.958	-0.259	0.101
-103.947	800.000	-0.131	-0.377
-102.932	181.973	-0.152	-0.221
-101.918	368.618	0.065	-0.129
-100.903	-200.000	-0.080	-0.347
-99.889	36.748	0.093	0.081
-98.874	205.010	0.012	-0.018
-97.859	21.514	-0.168	0.134
-96.845	800.000	0.054	-0.178
-95.830	-21.438	0.031	-0.019
-94.816	-0.901	0.055	-0.038
-93.801	-138.539	-0.315	0.034
-92.786	-200.000	-0.011	-0.134
-91.772	-24.482	-0.234	0.137
-90.757	-200.000	-0.021	-0.102
-89.743	23.734	0.283	0.229
-88.728	-118.809	0.658	0.114
-87.713	610.759	0.107	-0.262
-86.699	-58.971	-0.075	0.032
-85.684	-108.050	-0.417	-0.089
-84.670	-166.330	-0.178	0.007
-83.655	-75.254	0.215	0.076
-82.640	-116.964	0.286	-0.051
-81.626	800.000	0.028	-0.105
-80.611	771.529	-0.098	0.262
-79.597	-173.175	0.354	-0.011
-78.582	-64.212	0.058	0.023
-77.567	-118.234	-0.137	-0.024
-76.553	20.052	-0.134	0.106
-75.538	-85.664	0.272	-0.083
-74.524	-200.000	0.017	0.111
-73.509	-10.311	-0.201	0.131
-72.494	-99.602	-0.146	-0.036
-71.480	644.898	0.093	0.234
-70.465	-29.215	0.238	-0.134
-69.451	-174.208	-0.201	-0.006
-68.436	50.601	-0.259	-0.241
-67.422	-40.613	-0.202	0.103
-66.407	119.090	-0.117	0.142
-65.392	-73.553	0.247	-0.088
-64.378	664.674	-0.101	0.256
-63.363	-200.000	0.488	0.002
-62.349	-80.057	0.284	0.094
-61.334	40.152	-1.243	-1.097
-60.319	184.516	0.461	0.670
-59.305	125.664	-0.457	-0.566
-58.290	-3.236	1.023	0.700
-57.276	380.455	0.718	1.445
-56.261	-200.000	96.288	580.136
-55.246	563.959	1376.867	3274.189
-54.232	160.272	2559.994	3504.738
-53.217	106.453	2268.294	2639.999
-52.203	42.193	1892.887	1687.814
-51.188	36.189	1683.016	1455.483
-50.173	33.499	1638.386	1397.032
-49.159	50.931	1684.695	1567.098
-48.144	52.555	1701.429	1594.730
-47.130	35.752	1661.598	1433.476
-46.115	33.086	1647.481	1401.501
-45.100	32.837	1642.380	1395.265
-44.086	32.919	1639.362	1393.256
-43.071	32.798	1637.119	1390.397
-42.057	32.724	1635.098	1388.081
-41.042	32.770	1632.984	1386.573
-40.027	32.803	1630.655	1384.779
-39.013	32.808	1628.803	1383.187
-37.998	32.764	1627.331	1381.565
-36.984	32.759	1626.371	1380.657
-35.969	32.989	1624.395	1380.608
-34.954	33.010	1622.407	1379.015
-33.940	32.907	1621.220	1377.199
-32.925	32.890	1619.486	1375.548
-31.911	32.962	1617.502	1374.334
-30.896	32.898	1615.383	1372.014
-29.881	32.910	1614.277	1371.107
-28.867	32.965	1612.687	1370.100
-27.852	32.852	1611.242	1368.000
-26.838	32.911	1609.611	1366.989
-25.823	32.988	1607.896	1366.032
-24.809	32.968	1606.743	1364.852
-23.794	32.937	1605.383	1363.420
-22.779	33.006	1603.839	1362.555
-21.765	32.968	1602.043	1360.699
-20.750	32.903	1600.694	1359.033
-19.736	32.973	1599.329	1358.326
-18.721	32.931	1598.353	1357.135
-17.706	32.934	1596.559	1355.580
-16.692	32.979	1594.887	1354.434
-15.677	32.983	1593.331	1353.087
-14.663	33.006	1591.896	1351.980
-13.648	32.989	1590.609	1350.711
-12.633	33.047	1589.014	1349.715
-11.619	33.010	1587.385	1348.011
-10.604	32.896	1586.418	1346.330
-9.590	33.031	1584.571	1345.666
-8.575	32.894	1583.947	1344.107
-7.560	33.008	1582.397	1343.550
-6.546	33.001	1581.144	1342.386
-5.531	33.038	1579.617	1341.297
-4.517	33.043	1578.593	1340.413
-3.502	33.011	1577.771	1339.434
-2.487	33.025	1576.139	1338.089
-1.473	32.678	1564.105	1325.382
-0.458	30.016	1545.139	1290.738
0.556	27.080	1546.165	1261.668
1.571	24.963	1569.830	1265.918
2.586	24.626	1583.115	1274.116
3.600	21.852	1529.502	1211.719
4.615	12.417	1418.285	1062.776
5.629	3.819	1352.478	960.156
6.644	2.230	1344.771	944.788
7.659	2.029	1343.351	942.461
8.673	2.088	1341.645	941.548
9.688	1.953	1339.851	939.370
10.702	1.773	1336.850	936.081
11.717	5.397	1344.660	963.834
12.731	15.703	1363.474	1041.364
13.746	24.034	1377.800	1104.126
14.761	26.195	1380.523	1119.627
15.775	26.470	1380.233	1120.995
16.790	26.430	1380.336	1120.730
17.804	26.574	1379.469	1120.816
18.819	26.869	1378.835	1122.030
19.834	27.036	1378.199	1122.447
20.848	26.940	1378.046	1121.625
21.863	26.991	1376.687	1120.739
22.877	26.924	1375.862	1119.555
23.892	26.989	1375.081	1119.218
24.907	27.081	1373.866	1118.698
25.921	26.968	1373.138	1117.311
26.936	27.068	1371.802	1116.740
27.950	26.980	1371.036	1115.478
28.965	26.988	1369.869	1114.479
29.980	26.987	1368.515	1113.268
30.994	26.966	1367.249	1112.017
32.009	27.014	1366.265	1111.412
33.023	26.954	1365.557	1110.366
34.038	27.030	1363.872	1109.362
35.053	26.876	1363.497	1108.020
36.067	27.080	1361.772	1107.764
37.082	26.996	1361.023	1106.545
38.096	26.938	1360.410	1105.594
39.111	26.950	1359.391	1104.743
40.126	26.989	1358.910	1104.489
41.140	27.003	1358.115	1103.830
42.155	27.046	1357.754	1103.702
43.169	27.025	1357.875	1103.576
44.184	26.901	1357.914	1102.756
45.199	27.053	1357.018	1102.852
46.213	26.948	1356.896	1102.020
47.228	26.941	1355.634	1100.857
48.242	26.901	1354.520	1099.611
49.257	26.969	1353.301	1098.938
50.271	27.027	1351.323	1097.585
51.286	26.924	1350.481	1096.181
52.301	26.976	1349.205	1095.360
53.315	26.949	1348.230	1094.310
54.330	27.054	1347.352	1094.131
55.344	26.912	1346.981	1092.882
56.359	26.997	1345.068	1091.742
57.374	26.998	1344.148	1090.902
58.388	26.864	1344.047	1089.921
59.403	26.923	1343.624	1089.834
60.417	26.986	1342.751	1089.411
61.432	26.921	1342.271	1088.532
62.447	26.957	1341.084	1087.690
63.461	27.017	1340.266	1087.286
64.476	26.882	1339.596	1085.842
65.490	26.938	1338.218	1084.961
66.505	27.061	1336.650	1084.330
67.520	26.961	1335.581	1082.774
68.534	27.021	1334.331	1082.022
69.549	27.064	1333.941	1081.865
70.563	27.016	1332.982	1080.705
71.578	27.073	1332.038	1080.183
72.593	27.046	1331.128	1079.185
73.607	27.001	1330.351	1078.198
74.622	27.024	1329.787	1077.778
75.636	27.063	1328.912	1077.209
76.651	26.993	1328.312	1076.207
77.666	27.082	1327.531	1076.010
78.680	26.928	1327.738	1075.172
79.695	27.022	1326.610	1074.715
80.709	27.029	1325.387	1073.670
81.724	27.024	1324.673	1072.969
82.739	26.924	1323.787	1071.567
83.753	27.032	1322.920	1071.408
84.768	27.077	1321.477	1070.410
85.782	26.997	1320.914	1069.387
86.797	26.972	1319.699	1068.162
87.812	27.071	1318.411	1067.604
88.826	27.022	1317.436	1066.433
89.841	27.070	1316.094	1065.536
90.855	27.039	1315.194	1064.532
91.870	27.008	1314.776	1063.916
92.884	27.061	1313.473	1063.077
93.899	27.034	1312.927	1062.382
94.914	27.007	1312.394	1061.703
95.928	26.989	1311.729	1060.966
96.943	27.081	1310.745	1060.614
97.957	27.129	1310.068	1060.249
98.972	27.002	1309.281	1058.777
99.987	27.101	1308.150	1058.347
101.001	27.062	1307.178	1057.239
102.016	26.940	1306.366	1055.783
103.030	27.062	1305.547	1055.731
104.045	27.117	1304.446	1055.070
105.060	27.056	1303.695	1054.016
106.074	27.046	1302.797	1053.138
107.089	27.037	1301.454	1051.905
108.103	27.114	1300.309	1051.335
109.118	27.173	1299.933	1051.275
110.133	27.141	1298.589	1049.911
111.147	27.165	1297.266	1048.887
112.162	27.094	1296.424	1047.704
113.176	27.100	1295.208	1046.663
114.191	27.114	1294.761	1046.291
115.206	27.127	1293.684	1045.406
116.220	27.200	1292.367	1044.665
117.235	27.155	1291.630	1043.723
118.249	27.114	1290.531	1042.508
119.264	27.035	1289.816	1041.379
120.279	27.182	1289.206	1041.642
121.293	27.139	1288.451	1040.690
122.308	27.138	1288.216	1040.401
123.322	27.185	1286.802	1039.437
124.337	27.244	1285.901	1038.954
125.352	27.303	1284.758	1038.275
126.366	27.211	1284.010	1037.053
127.381	27.160	1283.607	1036.350
128.395	27.181	1282.664	1035.616
129.410	27.078	1282.207	1034.568
130.424	27.181	1281.254	1034.295
131.439	27.188	1280.192	1033.383
132.454	27.106	1279.524	1032.288
133.468	27.160	1278.551	1031.716
134.483	27.200	1278.353	1031.694
135.497	27.082	1277.311	1030.092
136.512	27.232	1275.959	1029.759
137.527	27.116	1275.254	1028.444
138.541	27.192	1273.966	1027.745
139.556	27.218	1272.697	1026.775
140.570	27.174	1271.764	1025.686
141.585	27.145	1270.980	1024.798
142.600	27.058	1269.974	1023.407
143.614	27.063	1269.497	1022.956
144.629	27.186	1267.864	1022.245
145.643	27.114	1267.204	1021.218
146.658	27.114	1265.978	1020.137
147.673	27.248	1264.697	1019.767
148.687	27.092	1263.922	1018.180
149.702	27.022	1263.103	1017.038
150.716	27.076	1261.869	1016.257
151.731	27.165	1261.002	1015.963
152.746	27.099	1260.358	1014.988
153.760	27.080	1258.980	1013.680
154.775	27.093	1258.295	1013.114
155.789	27.147	1257.412	1012.613
156.804	27.139	1256.819	1011.999
157.819	27.203	1255.372	1011.101
158.833	27.218	1254.932	1010.742
159.848	27.163	1254.304	1009.842
160.862	27.263	1253.561	1009.710
161.877	27.232	1252.827	1008.857
162.892	27.296	1251.490	1008.044
163.906	27.237	1251.067	1007.288
164.921	27.209	1250.486	1006.578
165.935	27.288	1249.449	1006.087
166.950	27.270	1249.028	1005.562
167.964	27.247	1248.332	1004.787
168.979	27.385	1247.429	1004.730
169.994	27.377	1247.209	1004.420
171.008	27.316	1246.606	1003.510
172.023	27.250	1245.950	1002.530
173.037	27.333	1244.731	1001.915
174.052	27.326	1244.093	1001.275
175.067	27.383	1243.567	1001.075
176.081	27.315	1242.674	999.896
177.096	27.351	1242.122	999.559
178.110	27.367	1241.024	998.677
179.125	27.268	1240.458	997.591
180.140	27.414	1238.682	996.873
181.154	27.317	1237.777	995.525
182.169	27.328	1237.135	994.982
183.183	27.313	1236.197	994.060
184.198	27.361	1235.112	993.362
185.213	27.414	1234.201	992.830
186.227	27.426	1233.281	992.065
187.242	27.423	1231.995	990.925
188.256	27.399	1231.583	990.376
189.271	27.375	1230.754	989.492
190.286	27.409	1230.083	989.049
191.300	27.314	1229.869	988.276
192.315	27.338	1229.162	987.751
193.329	27.362	1228.799	987.501
194.344	27.448	1228.053	987.279
195.359	27.480	1227.417	986.856
196.373	27.351	1227.198	985.895
197.388	27.257	1226.891	985.048
198.402	27.406	1226.352	985.338
199.417	27.379	1225.903	984.742
200.432	27.438	1225.343	984.522
201.446	27.438	1224.793	983.995
202.461	27.405	1224.412	983.422
203.475	27.363	1223.098	982.053
204.490	27.363	1222.393	981.402
205.504	27.407	1221.548	980.874
206.519	27.428	1220.539	980.089
207.534	27.391	1219.669	979.103
208.548	27.491	1218.270	978.432
209.563	27.493	1217.767	977.951
210.577	27.496	1217.063	977.318
211.592	27.425	1216.340	976.267
212.607	27.453	1215.522	975.678
213.621	27.426	1214.911	974.954
214.636	27.494	1213.834	974.366
215.650	27.470	1213.330	973.749
216.665	27.435	1212.512	972.819
217.680	27.562	1211.079	972.260
218.694	27.460	1210.570	971.220
219.709	27.560	1209.919	971.147
220.723	27.524	1209.221	970.307
221.738	27.485	1208.691	969.590
222.753	27.428	1207.872	968.543
223.767	27.486	1207.515	968.479
224.782	27.633	1206.766	968.573
225.796	27.630	1206.274	968.079
226.811	27.695	1205.371	967.613
227.826	27.707	1205.002	967.294
228.840	27.621	1204.805	966.594
229.855	27.540	1203.834	965.303
230.869	27.546	1203.640	965.093
231.884	27.620	1202.231	964.271
232.899	27.604	1201.464	963.483
233.913	27.588	1201.467	963.316
234.928	27.740	1200.353	963.139
235.942	27.750	1199.659	962.551
236.957	27.665	1199.260	961.699
237.972	27.670	1198.509	961.034
238.986	27.636	1197.884	960.269
240.001	27.628	1197.393	959.752
241.015	27.787	1196.761	959.997
242.030	27.866	1195.561	959.361
243.045	27.812	1195.142	958.660
244.059	27.778	1194.293	957.713
245.074	27.929	1193.313	957.637
246.088	27.845	1192.653	956.579
247.103	27.869	1191.717	955.874
248.117	27.697	1191.414	954.645
249.132	27.781	1190.587	954.335
250.147	27.925	1189.735	954.321
251.161	27.871	1189.197	953.523
252.176	27.825	1188.521	952.653
253.190	27.856	1187.596	951.994
254.205	27.965	1186.993	951.993
255.220	27.832	1186.737	951.010
256.234	27.886	1186.380	950.922
257.249	27.895	1185.687	950.327
258.263	27.807	1185.056	949.283
259.278	27.936	1184.431	949.368
260.293	27.998	1183.716	949.033
261.307	27.976	1182.964	948.229
262.322	27.849	1182.818	947.370
263.336	28.044	1181.947	947.598
264.351	27.923	1181.132	946.237
265.366	27.895	1181.096	945.980
266.380	27.900	1180.069	945.100
267.395	27.942	1179.214	944.549
268.409	27.854	1178.933	943.784
269.424	27.955	1178.460	943.844
270.439	28.028	1177.502	943.369
271.453	27.979	1177.427	942.970
272.468	27.928	1176.080	941.549
273.482	28.005	1175.132	941.102
274.497	27.958	1175.191	940.823
275.512	28.061	1175.111	941.204
276.526	28.005	1174.290	940.180
277.541	28.001	1173.334	939.310
278.555	28.052	1172.714	938.988
279.570	28.017	1172.070	938.210
280.585	27.993	1171.404	937.472
281.599	27.986	1170.977	937.015
282.614	28.064	1169.550	936.186
283.628	27.983	1168.778	935.073
284.643	28.191	1167.846	935.305
285.657	28.126	1166.869	934.111
286.672	28.135	1166.136	933.483
287.687	28.101	1165.502	932.723
288.701	28.167	1164.447	932.134
289.716	28.186	1163.768	931.601
290.730	28.156	1163.446	931.108
291.745	28.217	1162.866	930.874
292.760	28.200	1162.394	930.327
293.774	28.261	1161.958	930.207
294.789	28.238	1161.382	929.543
295.803	28.216	1160.869	928.941
296.818	28.248	1160.109	928.412
297.833	28.230	1159.408	927.678
298.847	28.266	1158.851	927.333
299.862	28.317	1157.930	926.771
300.876	28.274	1157.018	925.742
301.891	28.275	1156.911	925.579
302.906	28.391	1156.045	925.391
303.920	28.429	1155.506	925.071
304.935	28.284	1154.958	923.815
305.949	28.269	1154.278	923.114
306.964	28.357	1153.523	922.872
307.979	28.381	1152.902	922.416
308.993	28.299	1152.453	921.566
310.008	28.315	1151.798	921.040
311.022	28.300	1150.896	920.160
312.037	28.354	1149.982	919.621
313.052	28.376	1148.785	918.690
314.066	28.410	1148.447	918.510
315.081	28.423	1147.482	917.723
316.095	28.425	1147.335	917.530
317.110	28.513	1146.741	917.415
318.125	28.408	1145.943	916.170
319.139	28.427	1145.252	915.634
320.154	28.495	1144.506	915.295
321.168	28.491	1144.251	914.990
322.183	28.370	1143.733	913.893
323.197	28.430	1142.925	913.466
324.212	28.465	1142.345	913.092
325.227	28.570	1142.299	913.499
326.241	28.463	1142.083	912.714
327.256	28.461	1140.641	911.468
328.270	28.460	1140.075	910.935
329.285	28.517	1138.937	910.223
330.300	28.579	1138.034	909.731
331.314	28.623	1137.356	909.327
332.329	28.627	1136.648	908.701
333.343	28.485	1136.094	907.471
334.358	28.529	1135.627	907.237
335.373	28.670	1135.009	907.363
336.387	28.649	1134.046	906.407
337.402	28.650	1133.297	905.734
338.416	28.615	1132.740	905.035
339.431	28.600	1132.244	904.484
340.446	28.696	1131.812	904.533
341.460	28.673	1131.014	903.704
342.475	28.701	1129.969	902.924
343.489	28.748	1129.015	902.312
344.504	28.713	1128.157	901.377
345.519	28.725	1127.741	901.021
346.533	28.752	1126.905	900.407
347.548	28.679	1126.447	899.604
348.562	28.656	1125.824	898.912
349.577	28.801	1124.913	898.816
350.592	28.589	1124.470	897.345
351.606	28.823	1123.248	897.434
352.621	28.767	1122.896	896.801
353.635	28.787	1122.425	896.441
354.650	28.812	1121.709	895.915
355.665	28.865	1120.696	895.285
356.679	29.018	1119.879	895.293
357.694	28.919	1119.545	894.471
358.708	28.807	1119.478	893.791
359.723	28.737	1118.789	892.823
360.738	28.899	1118.140	893.012
361.752	28.847	1117.667	892.303
362.767	28.986	1116.792	892.200
363.781	28.972	1115.988	891.409
364.796	28.959	1115.717	891.054
365.810	28.966	1115.236	890.620
366.825	28.997	1114.421	890.044
367.840	29.052	1114.274	890.112
368.854	28.998	1113.921	889.490
369.869	28.980	1112.945	888.545
370.883	29.111	1112.262	888.555
371.898	29.108	1111.332	887.720
372.913	28.995	1111.095	886.904
373.927	29.002	1110.814	886.638
374.942	29.129	1109.613	886.209
375.956	29.059	1109.097	885.383
376.971	29.130	1108.771	885.385
377.986	29.182	1108.337	885.210
379.000	29.253	1107.841	885.077
380.015	29.274	1107.088	884.497
381.029	29.301	1106.261	883.889
382.044	29.104	1105.808	882.505
383.059	29.252	1105.195	882.644
384.073	29.290	1104.344	882.072
385.088	29.212	1104.030	881.366
386.102	29.168	1103.004	880.260
387.117	29.084	1102.348	879.256
388.132	29.224	1101.301	879.014
389.146	29.152	1100.628	878.053
390.161	29.240	1100.071	877.954
391.175	29.346	1099.426	877.864
392.190	29.217	1098.984	876.818
393.205	29.254	1097.948	876.093
394.219	29.267	1097.140	875.433
395.234	29.370	1096.364	875.223
396.248	29.306	1095.647	874.269
397.263	29.303	1094.780	873.485
398.278	29.290	1094.293	872.960
399.292	29.477	1093.668	873.270
400.307	29.318	1093.299	872.145
401.321	29.380	1092.467	871.695
402.336	29.367	1091.801	871.028
403.350	29.438	1091.110	870.733
404.365	29.468	1090.746	870.505
405.380	29.508	1089.816	869.879
406.394	29.474	1089.149	869.108
407.409	29.575	1088.203	868.752
408.423	29.528	1087.941	868.245
409.438	29.548	1086.994	867.506
410.453	29.545	1086.173	866.761
411.467	29.559	1085.640	866.322
412.482	29.585	1084.941	865.808
413.496	29.603	1084.410	865.392
414.511	29.570	1083.667	864.571
415.526	29.556	1083.471	864.272
416.540	29.709	1082.847	864.413
417.555	29.667	1082.334	863.732
418.569	29.605	1081.676	862.841
419.584	29.774	1081.546	863.447
420.599	29.900	1080.930	863.466
421.613	104.589	1319.382	1456.763
422.628	97.314	1354.094	1456.883
