DTS Sentinel unit serial number:	SN413079Multiplexer serial number:	ORYXHardware model number:	OX4-SRSoftware version number:	ORYX F/W v4.00 Oryx Data Collector v3.7.2.0data status	okinstallation	princeton_trtdifferential loss correction	single-endedforward channel	channel 2reverse channel	N/Adate	2019/09/12time	01:17:11forward acquisition time	60.00reverse acquisition time	0.00gamma	496.2192k internal	0.2326k external	0.2326temperature offset calibration	1.0090default loss term (dB/km)	0.3790temperature slope calibration	1.0000multiplexer offset coefficient	1.0000multiplexer slope coefficient	1.0000fibre end	0.00T internal ref (°C)	33.00T ext. ref 1 (°C)	2.07T ext. ref 2 (°C)	27.92length (m)	temperature (°C)	Stokes	anti-Stokes-747.200	-80.471	0.256	-0.086
-746.185	-200.000	0.084	0.508
-745.171	-110.005	0.243	-0.051
-744.156	389.340	-0.108	0.226
-743.142	-125.289	0.365	0.056
-742.127	48.313	-0.063	0.059
-741.112	-118.888	0.184	0.033
-740.098	-200.000	-0.039	-0.213
-739.083	-48.323	-0.217	-0.106
-738.069	-200.000	-0.026	0.300
-737.054	-8.554	0.363	0.246
-736.039	-132.590	-0.342	0.044
-735.025	800.000	-0.029	-0.119
-734.010	-87.764	-0.259	0.079
-732.996	45.636	-0.128	-0.120
-731.981	-200.000	-0.017	0.165
-730.966	-40.439	0.171	-0.089
-729.952	13.016	0.084	-0.066
-728.937	202.981	-0.093	-0.144
-727.923	149.010	0.080	-0.108
-726.908	221.904	-0.346	-0.561
-725.894	-200.000	0.117	0.000
-724.879	19.799	-0.148	-0.120
-723.864	-200.000	-0.018	0.272
-722.850	-74.280	-0.224	-0.082
-721.835	55.193	-0.145	-0.141
-720.821	319.556	0.055	-0.106
-719.806	46.120	-0.150	0.140
-718.791	-200.000	-0.023	-0.439
-717.777	-200.000	0.007	-0.145
-716.762	-200.000	-0.041	0.221
-715.748	46.858	0.210	-0.197
-714.733	204.401	-0.135	-0.211
-713.718	67.977	0.054	0.056
-712.704	443.616	0.166	-0.367
-711.689	450.556	-0.047	-0.105
-710.675	162.525	0.055	0.077
-709.660	84.488	0.135	-0.149
-708.645	63.438	0.205	0.207
-707.631	-148.489	-0.235	-0.019
-706.616	142.455	0.233	0.311
-705.602	800.000	-0.042	0.127
-704.587	170.594	-0.194	-0.279
-703.572	800.000	-0.031	-0.133
-702.558	-200.000	0.036	-0.316
-701.543	-200.000	-0.013	0.061
-700.529	-114.650	0.390	0.075
-699.514	-71.824	0.085	0.032
-698.499	100.240	-0.133	0.155
-697.485	-1.300	0.207	-0.147
-696.470	-78.860	0.052	-0.018
-695.456	414.653	-0.093	0.199
-694.441	-23.444	0.229	0.138
-693.426	-57.918	-0.158	-0.070
-692.412	219.362	-0.108	0.173
-691.397	4.900	0.241	-0.178
-690.383	142.778	0.297	-0.397
-689.368	-50.480	-0.249	-0.118
-688.354	-200.000	0.032	-0.244
-687.339	-200.000	0.041	0.204
-686.324	800.000	0.058	0.249
-685.310	-19.900	-0.090	0.056
-684.295	-24.334	0.260	-0.156
-683.281	800.000	-0.050	0.147
-682.266	86.753	-0.153	0.170
-681.251	0.486	0.248	0.178
-680.237	-115.279	0.113	-0.021
-679.222	-200.000	0.004	-0.242
-678.208	388.561	0.085	0.178
-677.193	500.537	0.111	0.258
-676.178	-142.751	-0.310	0.030
-675.164	800.000	-0.067	0.277
-674.149	32.813	0.204	0.177
-673.135	-14.711	-0.047	-0.030
-672.120	-88.739	0.148	0.044
-671.105	-46.295	-0.180	-0.089
-670.091	176.906	-0.138	-0.202
-669.076	487.796	0.059	-0.134
-668.062	144.418	-0.321	-0.431
-667.047	-89.397	0.307	-0.091
-666.032	-68.086	-0.371	0.145
-665.018	-200.000	-0.039	0.465
-664.003	655.937	-0.058	0.149
-662.989	223.785	0.155	0.251
-661.974	-200.000	-0.018	-0.303
-660.959	-104.990	0.077	-0.018
-659.945	-39.643	-0.226	0.119
-658.930	-80.827	-0.212	0.071
-657.916	281.234	0.039	-0.069
-656.901	-58.621	0.173	0.075
-655.886	800.000	0.042	0.173
-654.872	-55.822	-0.110	-0.049
-653.857	-93.096	0.061	0.017
-652.843	-200.000	0.023	0.578
-651.828	377.891	0.136	0.280
-650.814	102.351	-0.077	0.090
-649.799	-200.000	-0.034	0.240
-648.784	-67.268	-0.051	0.020
-647.770	-131.932	0.146	0.019
-646.755	21.186	-0.172	0.140
-645.741	-200.000	0.006	-0.243
-644.726	-154.640	-0.154	0.010
-643.711	-59.875	-0.412	0.177
-642.697	-127.522	0.226	-0.033
-641.682	-200.000	0.042	-0.275
-640.668	93.756	-0.172	-0.196
-639.653	430.439	0.095	0.206
-638.638	148.834	-0.192	0.261
-637.624	-58.466	-0.231	0.101
-636.609	-200.000	-0.024	-0.313
-635.595	112.815	0.146	-0.178
-634.580	-30.869	0.317	0.180
-633.565	800.000	0.128	0.409
-632.551	170.601	0.112	0.162
-631.536	155.413	0.127	-0.175
-630.522	-33.498	-0.121	0.067
-629.507	-92.007	0.144	0.041
-628.492	96.598	0.154	-0.178
-627.478	-131.546	-0.172	-0.023
-626.463	-69.511	-0.333	0.128
-625.449	248.992	-0.117	0.199
-624.434	553.190	-0.120	0.291
-623.419	-200.000	0.032	0.178
-622.405	-200.000	0.014	-0.089
-621.390	-61.648	-0.221	0.093
-620.376	-200.000	-0.058	0.513
-619.361	-34.399	0.201	-0.111
-618.346	-23.692	-0.218	-0.131
-617.332	-167.463	-0.279	-0.011
-616.317	88.986	-0.034	-0.038
-615.303	109.931	-0.028	0.034
-614.288	38.089	0.142	0.127
-613.273	76.196	-0.111	-0.118
-612.259	-69.069	-0.057	-0.022
-611.244	800.000	-0.061	-0.179
-610.230	800.000	0.011	0.041
-609.215	161.734	-0.203	-0.286
-608.201	292.863	0.111	-0.202
-607.186	800.000	0.065	-0.208
-606.171	-200.000	-0.046	0.222
-605.157	-6.761	-0.008	0.006
-604.142	-200.000	0.031	-0.176
-603.128	-100.398	-0.190	-0.047
-602.113	-75.212	-0.201	-0.072
-601.098	53.358	0.120	-0.115
-600.084	800.000	0.048	-0.164
-599.069	-102.910	-0.234	-0.056
-598.055	84.845	-0.068	0.075
-597.040	-125.468	-0.173	0.026
-596.025	-119.860	-0.256	0.044
-595.011	348.453	0.173	-0.342
-593.996	-84.390	0.111	-0.035
-592.982	-200.000	0.014	-0.203
-591.967	556.400	0.082	0.198
-590.952	-32.936	-0.072	-0.040
-589.938	-91.213	-0.175	-0.050
-588.923	99.517	-0.190	-0.220
-587.909	-1.179	-0.144	-0.102
-586.894	46.435	-0.233	-0.217
-585.879	-200.000	0.009	0.185
-584.865	79.576	-0.192	0.207
-583.850	-197.857	0.069	-0.000
-582.836	800.000	0.032	0.092
-581.821	-11.432	-0.155	-0.102
-580.806	-93.944	-0.341	0.094
-579.792	-170.407	-0.249	-0.009
-578.777	458.505	0.164	0.365
-577.763	126.688	-0.256	0.325
-576.748	621.546	-0.024	0.062
-575.733	-17.311	-0.370	-0.234
-574.719	-200.000	-0.001	-0.102
-573.704	350.502	0.101	0.200
-572.690	-173.402	-0.106	-0.003
-571.675	35.271	-0.292	0.257
-570.661	-7.709	0.064	-0.044
-569.646	800.000	-0.122	-0.339
-568.631	-145.612	0.282	0.025
-567.617	800.000	-0.029	-0.091
-566.602	800.000	0.098	-0.408
-565.588	100.222	-0.231	-0.268
-564.573	-200.000	0.002	-0.106
-563.558	800.000	-0.030	-0.109
-562.544	63.755	0.216	-0.218
-561.529	-200.000	0.018	-0.094
-560.515	800.000	-0.041	-0.119
-559.500	-26.643	-0.167	0.098
-558.485	800.000	0.074	-0.287
-557.471	-55.750	0.336	0.151
-556.456	429.988	-0.026	0.056
-555.442	70.674	0.180	-0.187
-554.427	-76.584	-0.058	-0.020
-553.412	227.895	-0.127	-0.206
-552.398	89.641	0.263	-0.294
-551.383	-2.056	-0.319	-0.224
-550.369	-133.135	0.152	0.019
-549.354	79.278	0.124	0.134
-548.339	-91.032	0.188	-0.054
-547.325	68.497	0.120	0.123
-546.310	-200.000	-0.061	-0.286
-545.296	800.000	0.036	0.122
-544.281	-170.132	0.143	0.005
-543.266	78.352	0.148	-0.159
-542.252	669.405	0.069	0.179
-541.237	-200.000	0.012	-0.088
-540.223	-31.149	-0.077	0.043
-539.208	-27.564	0.093	0.054
-538.193	-41.709	-0.089	0.046
-537.179	-72.187	-0.330	-0.123
-536.164	-30.993	-0.136	0.077
-535.150	-200.000	-0.009	-0.231
-534.135	-94.138	-0.307	-0.084
-533.121	-200.000	0.013	-0.154
-532.106	762.636	0.122	0.332
-531.091	-200.000	-0.008	0.385
-530.077	800.000	-0.063	0.244
-529.062	-100.371	0.053	-0.013
-528.048	800.000	-0.043	-0.134
-527.033	74.219	0.011	-0.012
-526.018	-200.000	0.075	0.473
-525.004	-39.811	-0.187	-0.098
-523.989	-200.000	0.002	-0.043
-522.975	-92.968	0.121	0.034
-521.960	59.598	-0.122	-0.120
-520.945	26.818	-0.079	0.066
-519.931	-21.830	-0.283	-0.172
-518.916	169.113	0.097	-0.139
-517.902	-104.102	-0.111	0.026
-516.887	271.130	0.163	0.286
-515.872	-171.042	0.038	-0.001
-514.858	642.595	0.035	0.088
-513.843	-200.000	0.014	0.149
-512.829	4.809	-0.224	0.164
-511.814	-47.592	0.123	0.060
-510.799	-165.035	0.141	0.006
-509.785	255.054	-0.117	0.201
-508.770	37.571	0.131	-0.116
-507.756	-200.000	0.016	-0.439
-506.741	112.195	0.077	0.093
-505.726	800.000	-0.046	0.176
-504.712	-200.000	0.003	-0.550
-503.697	468.622	0.097	-0.217
-502.683	-136.848	0.049	-0.006
-501.668	-11.499	0.288	0.189
-500.653	-99.580	-0.084	-0.021
-499.639	-39.965	-0.225	0.117
-498.624	-140.997	0.066	-0.007
-497.610	-200.000	-0.018	0.113
-496.595	36.426	-0.267	0.235
-495.581	-105.720	-0.094	-0.021
-494.566	-200.000	-0.041	-0.264
-493.551	-173.577	-0.249	0.007
-492.537	-66.935	-0.237	0.093
-491.522	87.322	0.226	-0.250
-490.508	-13.496	-0.075	0.048
-489.493	-174.845	-0.199	-0.006
-488.478	-122.933	0.114	0.018
-487.464	-200.000	0.021	-0.151
-486.449	-132.724	-0.072	0.009
-485.435	-200.000	-0.024	-0.391
-484.420	-200.000	0.034	-0.211
-483.405	-200.000	0.090	-0.499
-482.391	-55.381	-0.165	0.074
-481.376	-134.659	0.300	0.037
-480.362	-102.758	0.240	0.057
-479.347	800.000	-0.052	-0.217
-478.332	61.661	-0.073	-0.073
-477.318	-97.327	0.093	0.024
-476.303	38.299	0.330	-0.293
-475.289	296.876	-0.155	0.283
-474.274	-51.302	0.397	-0.186
-473.259	326.757	0.117	0.225
-472.245	62.606	-0.127	-0.127
-471.230	431.602	-0.116	-0.250
-470.216	4.695	-0.261	-0.191
-469.201	-200.000	0.010	0.098
-468.186	-112.284	-0.071	-0.014
-467.172	800.000	0.029	-0.121
-466.157	-200.000	-0.031	-0.308
-465.143	-200.000	-0.032	0.372
-464.128	383.924	-0.119	0.243
-463.113	-200.000	0.023	0.375
-462.099	643.978	-0.054	0.138
-461.084	-40.381	0.340	0.176
-460.070	339.241	0.068	0.132
-459.055	-200.000	0.067	-0.322
-458.040	800.000	-0.072	0.267
-457.026	-48.413	0.167	0.080
-456.011	-182.923	0.209	0.004
-454.997	-197.185	-0.193	0.001
-453.982	-200.000	-0.022	0.099
-452.968	800.000	-0.084	-0.297
-451.953	64.013	0.145	-0.145
-450.938	164.433	-0.161	-0.226
-449.924	139.741	-0.342	-0.450
-448.909	41.171	-0.043	0.039
-447.895	-200.000	0.089	0.000
-446.880	75.597	-0.097	-0.102
-445.865	-21.317	0.260	0.158
-444.851	57.985	-0.228	0.223
-443.836	318.974	-0.084	0.159
-442.822	800.000	0.090	-0.307
-441.807	141.623	0.146	-0.193
-440.792	-113.703	-0.419	-0.081
-439.778	-93.142	-0.158	-0.044
-438.763	800.000	0.052	0.161
-437.749	261.391	-0.158	-0.272
-436.734	-200.000	0.006	0.159
-435.719	-177.041	0.189	-0.005
-434.705	52.559	-0.165	0.157
-433.690	800.000	0.011	-0.034
-432.676	282.244	-0.092	0.165
-431.661	-153.650	0.198	-0.014
-430.646	-57.952	-0.070	-0.031
-429.632	-200.000	0.011	-0.066
-428.617	-28.525	0.166	-0.095
-427.603	147.322	0.093	0.124
-426.588	34.594	0.092	0.080
-425.573	-128.130	0.297	0.042
-424.559	800.000	0.051	0.166
-423.544	49.242	0.157	-0.147
-422.530	-96.750	-0.269	-0.071
-421.515	292.109	0.142	0.257
-420.500	-61.905	-0.167	0.069
-419.486	800.000	0.086	0.246
-418.471	-97.604	-0.332	-0.086
-417.457	-59.206	0.239	-0.102
-416.442	-200.000	0.251	-0.001
-415.428	-149.665	0.237	0.019
-414.413	-146.413	-0.359	-0.031
-413.398	-76.225	-0.090	-0.032
-412.384	4.403	0.136	0.099
-411.369	239.205	-0.049	-0.082
-410.355	47.402	0.118	0.110
-409.340	-200.000	0.015	-0.236
-408.325	-103.517	0.315	-0.074
-407.311	-200.000	0.006	-0.038
-406.296	93.723	0.209	0.236
-405.282	-200.000	0.021	-0.200
-404.267	-65.360	-0.116	-0.046
-403.252	-200.000	0.027	-0.165
-402.238	-57.900	-0.301	0.131
-401.223	35.886	0.126	0.110
-400.209	-35.790	0.256	0.138
-399.194	-54.116	0.391	-0.177
-398.179	-11.608	0.097	0.063
-397.165	-200.000	-0.011	0.198
-396.150	377.514	0.194	-0.395
-395.136	-71.751	-0.082	-0.030
-394.121	9.396	-0.324	-0.244
-393.106	216.655	0.154	0.243
-392.092	-200.000	-0.006	-0.228
-391.077	800.000	-0.094	0.293
-390.063	202.426	-0.038	-0.059
-389.048	-184.134	0.011	0.000
-388.033	52.361	-0.075	0.071
-387.019	-200.000	0.036	0.233
-386.004	130.116	0.009	-0.011
-384.990	800.000	-0.063	0.233
-383.975	-110.373	-0.233	-0.048
-382.960	45.017	0.290	-0.266
-381.946	-200.000	-0.008	-0.203
-380.931	-200.000	0.003	-0.188
-379.917	147.506	0.221	-0.296
-378.902	184.942	0.178	0.263
-377.888	-13.596	0.310	-0.200
-376.873	-32.756	-0.161	-0.089
-375.858	800.000	-0.103	0.412
-374.844	1.889	-0.135	0.097
-373.829	-166.294	0.243	-0.010
-372.815	426.241	0.169	-0.363
-371.800	27.640	0.170	0.142
-370.785	-96.244	-0.340	-0.090
-369.771	-200.000	-0.005	-0.309
-368.756	-200.000	0.000	-0.384
-367.742	-22.383	0.010	0.006
-366.727	42.375	0.226	0.204
-365.712	-200.000	-0.017	-0.088
-364.698	-80.080	0.157	0.052
-363.683	-55.084	0.164	0.073
-362.669	-126.828	-0.396	0.058
-361.654	-0.861	-0.132	0.093
-360.639	-145.360	-0.144	0.013
-359.625	800.000	0.022	0.086
-358.610	-43.057	0.245	0.124
-357.596	-55.313	-0.183	-0.082
-356.581	-155.401	0.342	0.022
-355.566	-28.647	-0.144	0.082
-354.552	-83.181	-0.233	-0.074
-353.537	219.792	-0.114	0.181
-352.523	221.359	0.062	-0.098
-351.508	-62.767	0.183	-0.075
-350.493	404.174	0.069	-0.145
-349.479	-109.916	0.246	-0.051
-348.464	-25.698	-0.154	0.090
-347.450	-96.119	0.158	-0.042
-346.435	-79.085	0.322	-0.109
-345.420	-40.443	-0.114	-0.059
-344.406	122.398	-0.012	0.015
-343.391	-200.000	-0.045	0.244
-342.377	-79.773	0.084	0.028
-341.362	83.564	-0.116	0.125
-340.348	330.853	-0.187	0.358
-339.333	-114.130	-0.191	-0.037
-338.318	59.595	-0.253	0.248
-337.304	-160.959	-0.208	0.011
-336.289	-49.634	-0.087	0.041
-335.275	-85.243	0.075	0.023
-334.260	7.836	-0.076	-0.056
-333.245	44.308	-0.271	-0.247
-332.231	-81.686	-0.211	-0.069
-331.216	-200.000	0.035	0.375
-330.202	-79.351	-0.329	0.110
-329.187	84.279	0.031	-0.034
-328.172	270.992	-0.058	0.102
-327.158	800.000	0.016	0.045
-326.143	-200.000	-0.017	-0.277
-325.129	152.215	-0.129	-0.175
-324.114	800.000	-0.078	-0.271
-323.099	-32.655	0.218	0.120
-322.085	92.292	-0.114	-0.128
-321.070	-27.327	0.224	-0.129
-320.056	-122.405	0.166	0.027
-319.041	-200.000	0.005	-0.231
-318.026	31.718	0.242	0.206
-317.012	-183.787	-0.059	-0.001
-315.997	187.477	0.265	0.392
-314.983	-37.062	0.265	-0.141
-313.968	190.390	-0.090	-0.134
-312.953	65.075	0.134	-0.134
-311.939	-44.838	-0.128	0.063
-310.924	11.576	0.142	0.108
-309.910	274.148	-0.142	-0.250
-308.895	141.661	-0.049	0.064
-307.880	120.291	0.181	0.222
-306.866	452.268	-0.104	0.227
-305.851	-199.011	0.254	0.001
-304.837	-200.000	-0.038	-0.300
-303.822	-70.882	0.240	-0.090
-302.807	38.821	-0.092	-0.082
-301.793	-200.000	-0.066	0.387
-300.778	-187.409	-0.209	-0.003
-299.764	-200.000	-0.015	-0.088
-298.749	120.465	-0.066	-0.081
-297.735	-200.000	-0.511	0.002
-296.720	-59.502	0.137	0.058
-295.705	-185.521	0.366	0.006
-294.691	566.517	0.092	-0.221
-293.676	-200.000	0.042	-0.187
-292.662	-174.007	0.090	-0.003
-291.647	800.000	0.097	0.307
-290.632	311.124	-0.024	-0.045
-289.618	-200.000	-0.010	-0.213
-288.603	719.571	0.120	0.316
-287.589	-116.048	0.166	0.031
-286.574	800.000	0.016	0.058
-285.559	800.000	-0.060	0.196
-284.545	-200.000	-0.006	0.107
-283.530	-200.000	0.071	-0.407
-282.516	-5.005	-0.308	-0.210
-281.501	14.106	-0.097	-0.075
-280.486	-133.408	-0.077	0.010
-279.472	228.010	0.132	-0.212
-278.457	-133.068	0.483	-0.061
-277.443	-69.411	-0.096	-0.036
-276.428	800.000	-0.026	0.080
-275.413	122.596	0.211	0.261
-274.399	246.838	0.051	0.085
-273.384	-87.221	-0.165	-0.050
-272.370	178.768	0.075	-0.108
-271.355	-8.970	0.162	-0.107
-270.340	196.990	-0.244	0.368
-269.326	547.322	0.055	0.131
-268.311	-200.000	0.007	0.201
-267.297	296.889	0.141	-0.256
-266.282	247.714	0.091	-0.152
-265.267	-139.415	-0.192	0.020
-264.253	-200.000	0.024	0.145
-263.238	-67.625	0.385	-0.149
-262.224	-200.000	0.009	-0.116
-261.209	-96.548	0.147	-0.038
-260.195	87.824	-0.057	0.062
-259.180	-200.000	0.007	0.279
-258.165	-200.000	-0.003	0.111
-257.151	-96.061	0.262	0.069
-256.136	25.435	0.165	0.135
-255.122	-200.000	0.005	-0.119
-254.107	91.472	-0.334	-0.371
-253.092	-32.536	-0.192	-0.106
-252.078	-121.333	-0.423	0.070
-251.063	128.842	-0.320	-0.403
-250.049	-183.937	0.185	-0.003
-249.034	-69.154	0.281	0.107
-248.019	-14.159	0.151	-0.097
-247.005	800.000	0.098	-0.347
-245.990	-180.571	0.126	0.003
-244.976	31.046	-0.106	0.090
-243.961	141.693	0.088	0.115
-242.946	170.626	0.193	0.274
-241.932	-148.598	0.424	-0.034
-240.917	5.748	-0.195	0.142
-239.903	-200.000	0.014	0.307
-238.888	-106.892	0.166	-0.036
-237.873	-67.493	0.110	0.043
-236.859	-124.881	-0.205	0.031
-235.844	-95.406	0.148	0.039
-234.830	-93.688	0.098	-0.027
-233.815	-200.000	0.007	0.289
-232.800	13.851	-0.288	0.222
-231.786	41.004	0.116	0.103
-230.771	-104.852	0.116	-0.026
-229.757	546.637	0.082	-0.194
-228.742	153.013	-0.108	-0.146
-227.727	47.188	-0.037	0.034
-226.713	-105.092	0.352	-0.079
-225.698	272.220	0.103	0.179
-224.684	-200.000	0.032	0.271
-223.669	800.000	0.017	-0.049
-222.655	-91.375	0.263	-0.074
-221.640	-159.150	-0.184	0.010
-220.625	-200.000	-0.007	0.324
-219.611	-1.760	0.225	0.157
-218.596	-98.464	0.197	0.050
-217.582	125.464	0.281	-0.351
-216.567	-43.857	-0.227	0.113
-215.552	24.651	0.064	0.052
-214.538	-200.000	-0.011	0.100
-213.523	-125.544	-0.105	0.016
-212.509	-101.365	0.370	-0.089
-211.494	-126.272	-0.308	0.045
-210.479	-200.000	0.001	0.213
-209.465	237.447	0.180	0.295
-208.450	-200.000	0.054	0.247
-207.436	800.000	-0.074	0.234
-206.421	-185.838	0.230	-0.003
-205.406	156.154	0.087	-0.118
-204.392	-90.482	-0.170	-0.049
-203.377	469.189	0.164	-0.363
-202.363	-129.440	-0.167	0.023
-201.348	800.000	-0.035	0.147
-200.333	-66.874	-0.339	-0.132
-199.319	800.000	-0.091	0.329
-198.304	-0.754	-0.170	-0.119
-197.290	-92.650	0.343	-0.095
-196.275	800.000	0.076	0.227
-195.260	-200.000	0.100	0.508
-194.246	-22.551	-0.339	-0.202
-193.231	229.112	0.095	-0.153
-192.217	-51.732	0.088	0.041
-191.202	538.880	0.084	-0.197
-190.187	296.886	-0.058	0.105
-189.173	-112.988	0.107	0.021
-188.158	-37.841	0.117	0.062
-187.144	40.508	-0.107	0.095
-186.129	-62.368	-0.214	-0.088
-185.114	-74.609	0.115	0.041
-184.100	222.262	0.072	0.114
-183.085	-61.964	-0.215	0.089
-182.071	31.325	-0.129	-0.110
-181.056	400.463	0.152	0.316
-180.042	-60.759	0.091	0.038
-179.027	-200.000	-0.031	-0.191
-178.012	27.175	0.229	0.189
-176.998	800.000	0.022	0.080
-175.983	-9.091	-0.249	0.165
-174.969	-45.063	0.044	-0.021
-173.954	-15.527	0.209	0.132
-172.939	-70.050	-0.313	0.118
-171.925	800.000	0.023	0.076
-170.910	-200.000	-0.015	0.090
-169.896	-136.488	-0.089	-0.010
-168.881	800.000	-0.043	-0.178
-167.866	-80.287	0.198	0.065
-166.852	-86.012	0.293	0.089
-165.837	25.876	-0.150	-0.123
-164.823	-57.394	-0.209	0.091
-163.808	173.734	0.180	0.256
-162.793	-200.000	-0.020	-0.262
-161.779	800.000	0.038	0.134
-160.764	243.334	0.051	-0.084
-159.750	322.812	-0.160	-0.301
-158.735	-89.619	0.092	0.027
-157.720	-54.509	-0.142	0.063
-156.706	32.833	-0.052	0.045
-155.691	83.388	0.088	-0.094
-154.677	-200.000	-0.056	0.334
-153.662	524.324	0.067	-0.154
-152.647	72.068	0.152	0.156
-151.633	-124.075	-0.439	-0.068
-150.618	800.000	0.121	-0.363
-149.604	-200.000	0.046	-0.383
-148.589	4.687	0.120	0.087
-147.574	158.738	0.162	-0.222
-146.560	-200.000	0.031	-0.233
-145.545	-116.904	0.125	-0.023
-144.531	288.876	-0.078	0.139
-143.516	34.401	-0.198	-0.170
-142.502	146.988	-0.078	-0.103
-141.487	-73.958	-0.202	0.072
-140.472	32.289	-0.235	-0.200
-139.458	-200.000	0.026	0.125
-138.443	-133.876	0.225	0.027
-137.429	23.501	-0.178	-0.144
-136.414	-120.036	0.076	0.013
-135.399	-165.953	-0.342	0.014
-134.385	-189.609	-0.166	-0.002
-133.370	-67.218	0.246	0.095
-132.356	800.000	-0.125	0.525
-131.341	254.259	-0.113	0.191
-130.326	95.264	-0.010	0.011
-129.312	64.069	0.097	-0.096
-128.297	-74.556	0.214	-0.076
-127.283	582.378	0.050	0.120
-126.268	-130.767	0.133	-0.018
-125.253	-200.000	0.005	-0.197
-124.239	-114.608	-0.145	0.027
-123.224	-110.124	-0.113	0.023
-122.210	-67.056	-0.325	-0.126
-121.195	800.000	0.153	0.437
-120.180	204.158	0.115	0.176
-119.166	-152.428	-0.229	0.016
-118.151	-200.000	-0.037	-0.162
-117.137	-36.573	-0.102	0.054
-116.122	-184.045	0.174	0.003
-115.107	81.938	-0.119	-0.126
-114.093	-200.000	0.040	0.531
-113.078	800.000	0.037	0.125
-112.064	353.663	-0.146	0.286
-111.049	-200.000	-0.040	0.404
-110.034	-91.728	-0.270	0.075
-109.020	-109.979	-0.094	0.019
-108.005	-37.377	0.095	0.050
-106.991	143.498	-0.120	0.157
-105.976	-140.257	-0.213	-0.022
-104.962	-89.425	0.237	0.069
-103.947	800.000	-0.066	0.260
-102.932	-140.662	0.089	-0.009
-101.918	-111.978	0.132	0.026
-100.903	-35.032	-0.144	-0.077
-99.889	-39.366	0.054	-0.028
-98.874	41.710	0.216	0.193
-97.859	-200.000	-0.022	0.104
-96.845	-19.625	-0.252	0.154
-95.830	282.809	0.098	-0.174
-94.816	685.979	0.134	0.344
-93.801	-200.000	0.022	-0.096
-92.786	-27.102	0.102	0.059
-91.772	689.690	-0.094	-0.243
-90.757	138.527	-0.230	0.297
-89.743	113.372	0.107	-0.128
-88.728	287.183	0.183	0.324
-87.713	800.000	0.106	0.317
-86.699	271.177	0.117	0.203
-85.684	4.177	-0.114	-0.082
-84.670	-200.000	0.257	0.000
-83.655	23.289	0.043	-0.035
-82.640	277.207	-0.056	0.099
-81.626	-60.392	0.301	0.126
-80.611	800.000	-0.071	0.217
-79.597	-83.864	-0.241	-0.075
-78.582	489.394	0.081	0.182
-77.567	-69.391	0.255	-0.096
-76.553	102.358	0.100	-0.114
-75.538	107.644	0.058	-0.067
-74.524	-97.229	0.301	-0.077
-73.509	-47.999	0.287	0.136
-72.494	418.869	-0.084	0.176
-71.480	-79.548	0.374	0.124
-70.465	-75.286	-0.107	-0.038
-69.451	3.239	0.064	-0.046
-68.436	-133.213	0.120	-0.015
-67.422	127.319	-0.212	0.264
-66.407	-57.674	-0.236	0.101
-65.392	-118.299	-0.404	-0.071
-64.378	-19.761	-0.281	0.171
-63.363	-59.444	0.302	0.127
-62.349	-200.000	-0.016	-0.106
-61.334	20.429	-1.228	-0.975
-60.319	-55.894	0.515	0.226
-59.305	800.000	-0.298	-1.022
-58.290	260.738	0.581	0.986
-57.276	800.000	0.597	1.663
-56.261	-200.000	95.807	571.360
-55.246	554.100	1375.830	3248.723
-54.232	159.827	2561.461	3502.655
-53.217	106.034	2268.809	2636.814
-52.203	42.285	1892.813	1688.541
-51.188	36.383	1683.121	1457.055
-50.173	33.630	1638.733	1398.306
-49.159	50.969	1684.732	1567.430
-48.144	52.763	1701.020	1595.915
-47.130	35.794	1661.925	1434.085
-46.115	33.140	1647.425	1401.868
-45.100	32.937	1642.585	1396.196
-44.086	32.893	1639.609	1393.285
-43.071	32.884	1636.981	1390.931
-42.057	32.928	1634.378	1388.989
-41.042	32.872	1632.579	1386.993
-40.027	32.892	1630.642	1385.438
-39.013	32.808	1628.966	1383.341
-37.998	32.851	1626.828	1381.785
-36.984	32.926	1625.647	1381.279
-35.969	33.045	1624.391	1381.027
-34.954	32.979	1622.984	1379.292
-33.940	32.953	1621.171	1377.508
-32.925	32.982	1619.642	1376.362
-31.911	32.947	1618.415	1375.013
-30.896	33.058	1615.710	1373.466
-29.881	33.051	1613.979	1371.892
-28.867	33.003	1612.132	1369.916
-27.852	33.062	1611.132	1369.444
-26.838	32.966	1609.716	1367.489
-25.823	32.982	1608.172	1366.236
-24.809	33.006	1606.501	1364.938
-23.794	32.949	1605.791	1363.867
-22.779	32.910	1603.906	1361.936
-21.765	33.087	1602.056	1361.586
-20.750	33.002	1600.467	1359.567
-19.736	32.999	1598.904	1358.162
-18.721	33.030	1597.922	1357.501
-17.706	33.011	1596.489	1356.090
-16.692	33.035	1594.769	1354.749
-15.677	33.065	1593.544	1353.865
-14.663	33.007	1591.826	1351.941
-13.648	33.036	1590.873	1351.284
-12.633	32.989	1589.418	1349.656
-11.619	33.018	1587.545	1348.220
-10.604	33.051	1586.386	1347.421
-9.590	33.174	1584.267	1346.441
-8.575	33.122	1583.695	1345.534
-7.560	33.126	1582.034	1344.093
-6.546	33.010	1581.490	1342.755
-5.531	33.018	1580.065	1341.548
-4.517	33.043	1578.388	1340.251
-3.502	32.948	1577.984	1339.181
-2.487	33.010	1576.162	1338.018
-1.473	32.775	1564.263	1326.213
-0.458	30.208	1545.266	1292.197
0.556	27.313	1546.341	1263.421
1.571	25.027	1570.375	1266.807
2.586	24.831	1583.955	1276.253
3.600	22.216	1530.916	1215.356
4.615	12.701	1419.607	1065.601
5.629	3.850	1353.036	960.744
6.644	2.197	1345.165	944.853
7.659	2.090	1343.624	943.029
8.673	2.043	1342.138	941.612
9.688	1.960	1340.283	939.714
10.702	1.798	1337.365	936.587
11.717	5.344	1344.855	963.645
12.731	15.603	1364.158	1041.265
13.746	23.979	1378.618	1104.436
14.761	26.160	1381.136	1119.898
15.775	26.530	1380.914	1121.911
16.790	26.575	1380.345	1121.634
17.804	26.602	1379.712	1121.186
18.819	26.712	1379.644	1121.711
19.834	27.022	1378.663	1122.730
20.848	26.973	1378.188	1121.943
21.863	27.009	1377.203	1121.262
22.877	27.064	1376.039	1120.558
23.892	26.929	1375.773	1119.410
24.907	26.938	1374.699	1118.492
25.921	26.873	1374.261	1117.634
26.936	26.959	1373.052	1117.084
27.950	27.042	1371.642	1116.344
28.965	26.999	1370.538	1115.082
29.980	26.954	1369.310	1113.708
30.994	26.928	1367.800	1112.223
32.009	26.875	1367.014	1111.162
33.023	26.972	1365.712	1110.600
34.038	26.934	1364.716	1109.460
35.053	26.930	1363.627	1108.452
36.067	27.042	1362.536	1108.151
37.082	26.891	1361.872	1106.589
38.096	26.914	1360.978	1105.904
39.111	26.920	1359.988	1105.040
40.126	26.972	1359.233	1104.645
41.140	26.913	1359.319	1104.262
42.155	26.963	1358.695	1103.958
43.169	26.957	1358.355	1103.551
44.184	26.895	1358.314	1103.041
45.199	26.992	1357.980	1103.262
46.213	26.962	1357.296	1102.425
47.228	27.035	1356.325	1101.985
48.242	26.898	1355.673	1100.526
49.257	26.975	1353.711	1099.301
50.271	26.997	1352.523	1098.369
51.286	27.014	1350.835	1097.008
52.301	26.932	1350.083	1095.804
53.315	26.840	1349.075	1094.331
54.330	26.937	1348.457	1094.322
55.344	26.961	1347.246	1093.384
56.359	26.844	1346.498	1091.977
57.374	26.837	1345.706	1091.194
58.388	27.013	1344.774	1091.401
59.403	27.079	1344.144	1091.193
60.417	27.031	1343.637	1090.391
61.432	26.940	1343.036	1089.264
62.447	27.033	1341.863	1088.772
63.461	26.996	1341.437	1088.111
64.476	26.997	1340.164	1086.984
65.490	27.027	1338.352	1085.598
66.505	26.907	1337.749	1084.300
67.520	27.004	1336.157	1083.487
68.534	26.955	1335.244	1082.360
69.549	27.064	1334.569	1082.370
70.563	26.975	1333.907	1081.206
71.578	26.967	1332.882	1080.234
72.593	26.981	1331.788	1079.335
73.607	26.921	1331.199	1078.405
74.622	27.071	1330.353	1078.513
75.636	26.946	1329.837	1077.257
76.651	26.904	1329.233	1076.422
77.666	26.915	1328.485	1075.788
78.680	27.042	1327.998	1076.049
79.695	26.962	1327.330	1074.938
80.709	26.934	1326.598	1074.089
81.724	27.002	1325.662	1073.635
82.739	26.989	1324.347	1072.400
83.753	27.013	1323.614	1071.852
84.768	26.970	1322.437	1070.551
85.782	26.899	1321.746	1069.478
86.797	26.982	1320.602	1068.946
87.812	27.192	1318.992	1068.787
88.826	26.899	1318.824	1066.830
89.841	26.994	1317.478	1066.204
90.855	27.006	1316.316	1065.240
91.870	27.122	1315.124	1064.860
92.884	27.023	1314.507	1063.689
93.899	27.039	1313.828	1063.141
94.914	27.162	1312.902	1063.014
95.928	27.097	1312.003	1061.813
96.943	27.007	1311.771	1061.006
97.957	26.981	1311.085	1060.205
98.972	26.973	1310.056	1059.232
99.987	27.059	1309.078	1058.851
101.001	26.978	1308.396	1057.729
102.016	27.009	1307.008	1056.697
103.030	27.011	1306.581	1056.269
104.045	26.982	1305.738	1055.325
105.060	27.026	1304.372	1054.387
106.074	27.029	1303.704	1053.766
107.089	26.929	1303.024	1052.544
108.103	27.057	1302.071	1052.425
109.118	27.175	1300.332	1051.609
110.133	27.069	1299.387	1050.138
111.147	27.177	1297.930	1049.489
112.162	27.024	1297.199	1047.925
113.176	27.128	1296.299	1047.705
114.191	27.184	1295.214	1047.055
115.206	27.122	1294.567	1046.084
116.220	27.086	1293.440	1044.877
117.235	27.209	1291.914	1044.253
118.249	27.149	1291.377	1043.384
119.264	27.058	1290.574	1042.123
120.279	27.046	1289.852	1041.377
121.293	27.018	1289.573	1040.901
122.308	27.119	1288.311	1040.367
123.322	27.140	1287.732	1039.925
124.337	27.227	1286.875	1039.642
125.352	27.253	1285.777	1038.814
126.366	27.208	1285.196	1037.995
127.381	27.284	1283.767	1037.181
128.395	27.142	1283.311	1035.908
129.410	27.232	1282.620	1035.776
130.424	27.189	1282.011	1034.943
131.439	27.167	1281.059	1033.963
132.454	27.100	1280.583	1033.103
133.468	27.133	1279.797	1032.567
134.483	27.282	1278.872	1032.575
135.497	27.159	1278.600	1031.562
136.512	27.125	1277.381	1030.296
137.527	27.166	1276.045	1029.358
138.541	27.226	1274.605	1028.449
139.556	27.206	1273.521	1027.369
140.570	27.040	1273.246	1026.117
141.585	27.138	1271.831	1025.440
142.600	27.125	1270.913	1024.534
143.614	27.057	1270.097	1023.407
144.629	27.049	1269.257	1022.590
145.643	27.066	1268.261	1021.793
146.658	27.097	1266.925	1020.804
147.673	27.103	1266.104	1020.083
148.687	26.967	1265.610	1018.835
149.702	27.077	1263.983	1018.048
150.716	27.156	1262.799	1017.448
151.731	27.059	1261.899	1016.090
152.746	27.092	1261.114	1015.555
153.760	27.130	1260.136	1014.885
154.775	27.213	1258.659	1014.070
155.789	27.220	1257.833	1013.355
156.804	27.164	1257.743	1012.878
157.819	27.106	1256.914	1011.798
158.833	27.225	1255.618	1011.329
159.848	27.215	1255.054	1010.730
160.862	27.171	1254.436	1009.901
161.877	27.167	1253.797	1009.272
162.892	27.252	1252.547	1008.649
163.906	27.251	1251.963	1008.085
164.921	27.260	1251.044	1007.306
165.935	27.181	1250.555	1006.384
166.950	27.229	1249.902	1006.033
167.964	27.280	1249.251	1005.702
168.979	27.325	1248.523	1005.274
169.994	27.229	1248.271	1004.456
171.008	27.240	1247.369	1003.700
172.023	27.262	1246.796	1003.272
173.037	27.283	1246.418	1002.998
174.052	27.384	1245.124	1002.421
175.067	27.304	1244.323	1001.246
176.081	27.222	1243.887	1000.356
177.096	27.270	1242.799	999.657
178.110	27.236	1242.182	998.884
179.125	27.294	1241.371	998.465
180.140	27.334	1240.154	997.613
181.154	27.343	1238.737	996.438
182.169	27.199	1238.270	995.183
183.183	27.328	1236.832	994.645
184.198	27.356	1236.158	994.169
185.213	27.372	1235.087	993.307
186.227	27.416	1234.073	992.643
187.242	27.442	1232.872	991.735
188.256	27.457	1232.319	991.282
189.271	27.292	1231.612	989.727
190.286	27.363	1230.966	989.507
191.300	27.329	1230.269	988.673
192.315	27.237	1230.091	987.944
193.329	27.312	1229.698	987.948
194.344	27.484	1228.993	988.229
195.359	27.470	1228.316	987.520
196.373	27.235	1228.517	986.319
197.388	27.172	1227.654	985.195
198.402	27.256	1227.682	985.588
199.417	27.337	1227.235	985.579
200.432	27.347	1226.708	985.123
201.446	27.398	1225.707	984.507
202.461	27.370	1224.908	983.630
203.475	27.336	1224.426	982.970
204.490	27.342	1223.163	981.900
205.504	27.405	1222.470	981.597
206.519	27.398	1221.420	980.631
207.534	27.430	1220.412	979.906
208.548	27.461	1219.281	979.077
209.563	27.604	1218.443	979.088
210.577	27.536	1217.879	978.180
211.592	27.411	1217.177	976.863
212.607	27.489	1216.321	976.508
213.621	27.446	1215.635	975.637
214.636	27.569	1214.602	975.382
215.650	27.470	1214.369	974.581
216.665	27.506	1213.110	973.676
217.680	27.519	1212.344	973.045
218.694	27.585	1211.469	972.608
219.709	27.482	1211.077	971.658
220.723	27.545	1210.624	971.545
221.738	27.436	1209.922	970.312
222.753	27.451	1208.602	969.249
223.767	27.414	1208.522	968.902
224.782	27.457	1208.209	968.795
225.796	27.682	1206.767	968.746
226.811	27.587	1206.774	968.164
227.826	27.587	1206.093	967.532
228.840	27.593	1205.275	966.820
229.855	27.598	1204.780	966.365
230.869	27.607	1204.010	965.708
231.884	27.522	1203.288	964.597
232.899	27.491	1202.228	963.498
233.913	27.596	1202.000	963.781
234.928	27.647	1201.578	963.627
235.942	27.739	1200.486	963.152
236.957	27.608	1200.417	962.320
237.972	27.665	1199.456	961.766
238.986	27.503	1199.305	960.707
240.001	27.608	1198.512	960.539
241.015	27.746	1197.502	960.370
242.030	27.690	1196.897	959.506
243.045	27.783	1195.731	958.975
244.059	27.749	1195.038	958.156
245.074	27.797	1194.230	957.677
246.088	27.740	1193.832	956.970
247.103	27.818	1192.640	956.339
248.117	27.709	1192.162	955.304
249.132	27.906	1191.183	955.463
250.147	27.949	1190.432	955.004
251.161	27.927	1189.882	954.363
252.176	27.835	1189.550	953.528
253.190	27.762	1188.695	952.379
254.205	27.927	1187.652	952.321
255.220	27.828	1187.620	951.692
256.234	27.850	1187.221	951.406
257.249	27.866	1186.558	950.872
258.263	27.868	1185.877	950.254
259.278	27.887	1185.177	949.706
260.293	27.907	1184.681	949.330
261.307	27.905	1184.352	948.972
262.322	27.911	1183.525	948.257
263.336	27.858	1183.208	947.640
264.351	27.923	1182.177	947.071
265.366	27.914	1181.636	946.504
266.380	27.874	1181.154	945.826
267.395	27.891	1180.091	944.982
268.409	28.008	1179.376	944.931
269.424	27.907	1179.090	944.092
270.439	27.959	1179.203	944.374
271.453	27.851	1178.249	942.963
272.468	28.008	1176.717	942.467
273.482	27.801	1176.793	941.376
274.497	27.980	1175.914	941.513
275.512	28.053	1175.419	941.408
276.526	28.067	1174.610	940.751
277.541	27.975	1173.959	939.672
278.555	28.020	1173.395	939.369
279.570	28.026	1172.870	938.892
280.585	28.026	1171.938	938.068
281.599	28.141	1171.150	937.943
282.614	27.986	1170.203	936.308
283.628	28.070	1169.258	935.896
284.643	28.119	1168.698	935.616
285.657	27.946	1167.848	933.972
286.672	28.048	1167.175	933.871
287.687	27.969	1166.575	932.904
288.701	28.151	1165.635	933.000
289.716	28.112	1165.078	932.268
290.730	28.099	1164.055	931.305
291.745	28.095	1163.773	930.977
292.760	28.135	1163.307	930.724
293.774	28.169	1162.752	930.368
294.789	28.259	1162.043	930.175
295.803	28.170	1161.595	929.286
296.818	28.235	1160.733	928.844
297.833	28.279	1160.068	928.450
298.847	28.231	1159.546	927.708
299.862	28.315	1158.359	927.103
300.876	28.345	1158.072	926.941
301.891	28.347	1157.508	926.420
302.906	28.320	1156.840	925.666
303.920	28.271	1156.657	925.191
304.935	28.261	1155.676	924.273
305.949	28.314	1155.006	923.921
306.964	28.439	1154.472	924.041
307.979	28.291	1154.297	923.076
308.993	28.383	1153.162	922.551
310.008	28.302	1152.576	921.589
311.022	28.314	1151.817	920.966
312.037	28.354	1150.729	920.210
313.052	28.376	1149.733	919.444
314.066	28.400	1148.852	918.777
315.081	28.453	1148.502	918.682
316.095	28.289	1148.092	917.453
317.110	28.414	1147.554	917.566
318.125	28.356	1147.096	916.828
319.139	28.322	1146.549	916.142
320.154	28.361	1145.801	915.658
321.168	28.411	1145.343	915.461
322.183	28.359	1144.863	914.735
323.197	28.464	1144.319	914.745
324.212	28.469	1143.078	913.696
325.227	28.504	1142.787	913.556
326.241	28.460	1142.372	912.923
327.256	28.507	1141.470	912.358
328.270	28.472	1140.967	911.702
329.285	28.466	1140.310	911.067
330.300	28.566	1139.349	910.714
331.314	28.419	1138.479	909.208
332.329	28.582	1137.747	909.350
333.343	28.490	1137.144	908.331
334.358	28.492	1136.461	907.720
335.373	28.534	1135.530	907.103
336.387	28.706	1134.891	907.360
337.402	28.642	1134.210	906.421
338.416	28.630	1133.706	905.876
339.431	28.724	1132.810	905.546
340.446	28.720	1132.416	905.131
341.460	28.676	1131.871	904.398
342.475	28.637	1130.692	903.183
343.489	28.641	1130.203	902.734
344.504	28.652	1129.466	902.116
345.519	28.751	1128.651	901.874
346.533	28.798	1127.591	901.175
347.548	28.777	1126.948	900.481
348.562	28.672	1126.654	899.651
349.577	28.827	1125.849	899.689
350.592	28.669	1125.182	898.305
351.606	28.668	1124.365	897.566
352.621	28.832	1123.897	897.914
353.635	28.723	1123.362	896.874
354.650	28.742	1122.803	896.443
355.665	28.791	1121.846	895.838
356.679	28.871	1121.431	895.818
357.694	28.903	1120.747	895.346
358.708	28.890	1119.536	894.236
359.723	28.755	1119.363	893.364
360.738	28.802	1118.851	893.104
361.752	28.965	1117.760	892.944
362.767	28.955	1117.464	892.580
363.781	28.921	1117.423	892.306
364.796	28.994	1116.880	892.145
365.810	29.005	1115.909	891.347
366.825	28.937	1115.432	890.558
367.840	28.923	1114.832	889.931
368.854	28.998	1114.517	889.964
369.869	29.034	1113.829	889.509
370.883	28.988	1113.207	888.712
371.898	29.062	1111.951	887.988
372.913	28.943	1111.781	887.200
373.927	29.264	1110.826	887.904
374.942	28.967	1110.853	886.414
375.956	28.950	1110.349	885.855
376.971	29.054	1109.746	885.793
377.986	29.182	1109.092	885.809
379.000	29.035	1108.682	884.696
380.015	29.218	1107.849	884.834
381.029	29.166	1107.407	884.155
382.044	29.148	1106.600	883.344
383.059	29.210	1106.033	883.111
384.073	29.181	1105.410	882.396
385.088	29.204	1104.418	881.634
386.102	29.177	1104.048	881.132
387.117	29.189	1102.899	880.194
388.132	29.217	1102.051	879.576
389.146	29.259	1101.689	879.409
390.161	29.185	1100.813	878.281
391.175	29.150	1100.348	877.662
392.190	29.240	1099.545	877.372
393.205	29.224	1098.926	876.725
394.219	29.222	1098.100	875.978
395.234	29.277	1097.584	875.753
396.248	29.306	1096.651	875.066
397.263	29.332	1095.407	874.123
398.278	29.294	1095.295	873.776
399.292	29.485	1094.566	874.018
400.307	29.353	1094.030	872.890
401.321	29.393	1093.095	872.255
402.336	29.315	1092.797	871.571
403.350	29.404	1092.025	871.299
404.365	29.482	1091.338	871.043
405.380	29.495	1090.901	870.679
406.394	29.469	1090.206	869.923
407.409	29.497	1089.165	869.148
408.423	29.471	1088.553	868.462
409.438	29.403	1088.197	867.778
410.453	29.688	1087.027	868.108
411.467	29.707	1086.229	867.482
412.482	29.545	1085.886	866.374
413.496	29.487	1085.444	865.670
414.511	29.550	1084.530	865.161
415.526	29.497	1084.445	864.767
416.540	29.618	1084.145	865.019
417.555	29.592	1083.478	864.288
418.569	29.674	1082.885	864.124
419.584	29.707	1082.609	863.982
420.599	29.632	1082.339	863.337
421.613	103.930	1320.543	1454.695
422.628	96.697	1355.211	1454.822
