DTS Sentinel unit serial number:	SN413079Multiplexer serial number:	ORYXHardware model number:	OX4-SRSoftware version number:	ORYX F/W v4.00 Oryx Data Collector v3.7.2.0data status	okinstallation	princeton_trtdifferential loss correction	single-endedforward channel	channel 2reverse channel	N/Adate	2019/09/11time	04:01:10forward acquisition time	60.00reverse acquisition time	0.00gamma	496.2192k internal	0.2329k external	0.2329temperature offset calibration	0.9937default loss term (dB/km)	0.3790temperature slope calibration	1.0000multiplexer offset coefficient	1.0000multiplexer slope coefficient	1.0000fibre end	0.00T internal ref (°C)	29.56T ext. ref 1 (°C)	-0.28T ext. ref 2 (°C)	23.81length (m)	temperature (°C)	Stokes	anti-Stokes-747.200	217.976	-0.048	-0.078
-746.185	-7.432	0.195	-0.133
-745.171	94.713	0.068	-0.078
-744.156	-200.000	-0.029	-0.202
-743.142	-77.497	-0.202	-0.071
-742.127	-47.161	-0.155	0.076
-741.112	800.000	-0.022	-0.090
-740.098	-36.907	-0.294	-0.159
-739.083	-58.432	0.108	-0.047
-738.069	598.057	0.095	0.237
-737.054	-70.281	-0.339	0.130
-736.039	252.341	0.140	-0.240
-735.025	-84.192	0.376	0.120
-734.010	620.356	0.099	-0.250
-732.996	800.000	-0.049	-0.144
-731.981	-38.343	0.143	-0.076
-730.966	33.059	-0.096	-0.084
-729.952	86.365	0.230	0.256
-728.937	-89.923	-0.157	-0.046
-727.923	134.548	0.108	-0.141
-726.908	-139.383	-0.199	0.021
-725.894	220.458	-0.196	-0.316
-724.879	549.212	-0.245	-0.592
-723.864	56.378	0.060	-0.059
-722.850	-80.155	-0.205	-0.069
-721.835	-98.411	0.172	0.044
-720.821	-200.000	0.011	-0.092
-719.806	-82.656	0.439	-0.143
-718.791	-164.824	-0.243	0.011
-717.777	420.635	0.143	-0.308
-716.762	14.629	-0.362	0.285
-715.748	-96.318	-0.237	-0.063
-714.733	-57.410	0.128	-0.057
-713.718	-99.163	-0.265	-0.068
-712.704	-200.000	-0.025	-0.110
-711.689	156.509	0.023	-0.032
-710.675	-71.028	-0.191	0.072
-709.660	56.987	-0.176	0.173
-708.645	281.447	-0.124	-0.223
-707.631	-102.706	0.091	0.022
-706.616	-200.000	0.045	0.310
-705.602	-80.486	0.149	0.050
-704.587	166.384	-0.140	-0.199
-703.572	800.000	0.097	-0.336
-702.558	-128.127	-0.276	0.040
-701.543	-200.000	0.017	0.141
-700.529	163.055	0.072	-0.102
-699.514	217.914	0.327	-0.524
-698.499	709.098	-0.061	0.163
-697.485	-200.000	0.043	0.334
-696.470	43.589	-0.137	-0.126
-695.456	800.000	0.045	-0.192
-694.441	-200.000	-0.037	-0.236
-693.426	6.317	0.221	-0.165
-692.412	-67.804	0.212	-0.083
-691.397	800.000	-0.049	-0.177
-690.383	8.156	0.023	0.018
-689.368	-200.000	0.002	0.046
-688.354	0.017	-0.170	-0.122
-687.339	-200.000	0.034	0.363
-686.324	20.350	0.201	-0.163
-685.310	65.453	0.175	-0.178
-684.295	-186.989	0.127	0.002
-683.281	303.044	0.067	-0.125
-682.266	-200.000	0.006	-0.271
-681.251	224.476	0.115	-0.186
-680.237	525.790	0.088	-0.207
-679.222	-24.290	-0.149	-0.089
-678.208	800.000	0.068	-0.265
-677.193	-82.352	-0.279	-0.091
-676.178	-10.470	0.281	-0.187
-675.164	190.811	0.063	-0.096
-674.149	-98.941	-0.125	-0.032
-673.135	800.000	0.026	0.107
-672.120	-69.062	-0.094	0.036
-671.105	-79.937	0.281	0.095
-670.091	192.028	-0.121	-0.184
-669.076	-200.000	-0.018	-0.134
-668.062	-200.000	-0.016	-0.196
-667.047	589.899	0.058	-0.143
-666.032	35.131	-0.192	0.169
-665.018	276.431	0.025	0.045
-664.003	800.000	-0.057	0.178
-662.989	-34.876	-0.185	0.101
-661.974	-200.000	-0.156	-0.000
-660.959	-116.173	0.066	-0.012
-659.945	-151.522	-0.243	0.018
-658.930	403.743	-0.037	0.078
-657.916	39.550	-0.131	-0.118
-656.901	4.467	0.086	0.063
-655.886	-200.000	0.018	0.180
-654.872	-200.000	-0.044	-0.238
-653.857	269.703	0.205	-0.361
-652.843	-115.370	0.076	-0.014
-651.828	494.614	-0.057	0.132
-650.814	-200.000	-0.078	-0.367
-649.799	-111.786	-0.134	0.027
-648.784	252.159	-0.277	-0.474
-647.770	-200.000	0.001	-0.279
-646.755	-108.693	-0.150	-0.032
-645.741	-140.802	0.105	-0.011
-644.726	-31.705	0.111	-0.063
-643.711	61.050	0.210	0.209
-642.697	-135.344	-0.119	-0.014
-641.682	-183.409	0.171	-0.003
-640.668	-65.556	-0.221	-0.089
-639.653	-200.000	-0.008	-0.194
-638.638	-49.923	-0.172	-0.082
-637.624	6.342	-0.194	-0.144
-636.609	-49.098	0.399	0.191
-635.595	197.206	0.069	0.105
-634.580	177.177	-0.071	-0.104
-633.565	-200.000	-0.048	0.585
-632.551	-28.978	-0.458	0.264
-631.536	168.363	0.121	0.172
-630.522	40.300	-0.072	-0.065
-629.507	-125.928	0.242	-0.036
-628.492	180.811	0.052	-0.076
-627.478	-68.699	0.476	-0.185
-626.463	55.593	-0.268	0.260
-625.449	-200.000	-0.019	-0.278
-624.434	-36.867	0.295	0.159
-623.419	172.284	0.165	0.237
-622.405	-109.519	0.330	-0.070
-621.390	-85.365	-0.095	0.030
-620.376	-200.000	-0.014	-0.258
-619.361	-71.973	0.147	0.055
-618.346	-200.000	0.021	-0.171
-617.332	4.464	-0.250	0.183
-616.317	-200.000	-0.037	0.295
-615.303	-5.205	-0.050	0.034
-614.288	11.680	-0.242	0.186
-613.273	597.654	0.036	0.089
-612.259	-118.223	0.074	-0.013
-611.244	8.556	0.102	-0.077
-610.230	51.517	-0.150	0.143
-609.215	34.924	0.280	-0.246
-608.201	-164.303	0.108	0.005
-607.186	272.582	-0.109	0.193
-606.171	-34.441	-0.164	0.090
-605.157	800.000	0.020	-0.060
-604.142	-158.977	-0.098	-0.006
-603.128	-16.869	-0.348	-0.220
-602.113	269.171	0.052	0.091
-601.098	-105.104	0.120	0.028
-600.084	-28.284	-0.272	-0.158
-599.069	-200.000	0.058	-0.406
-598.055	800.000	-0.043	-0.144
-597.040	-43.181	0.156	0.079
-596.025	523.672	0.108	-0.253
-595.011	-104.712	0.079	-0.018
-593.996	-75.203	-0.159	-0.057
-592.982	800.000	0.065	0.231
-591.967	-112.318	-0.133	-0.027
-590.952	352.201	0.094	-0.186
-589.938	-200.000	-0.103	0.000
-588.923	-200.000	-0.009	-0.075
-587.909	205.934	-0.070	0.109
-586.894	800.000	-0.152	0.514
-585.879	21.209	0.153	-0.124
-584.865	13.597	-0.135	-0.105
-583.850	190.277	-0.174	0.262
-582.836	800.000	0.058	0.213
-581.821	-24.432	-0.113	0.068
-580.806	-200.000	-0.027	-0.192
-579.792	-200.000	0.009	-0.168
-578.777	-200.000	-0.031	0.172
-577.763	-197.404	0.297	0.002
-576.748	-38.603	-0.192	0.102
-575.733	-73.306	-0.282	-0.103
-574.719	77.172	0.211	-0.225
-573.704	-116.615	0.193	-0.036
-572.690	13.541	0.264	-0.205
-571.675	-86.066	-0.149	-0.046
-570.661	225.240	-0.107	0.174
-569.646	114.120	-0.073	0.089
-568.631	-127.691	-0.122	-0.018
-567.617	166.614	0.210	-0.297
-566.602	134.056	-0.048	0.062
-565.588	160.947	0.108	0.151
-564.573	-52.407	0.087	0.040
-563.558	-200.000	-0.034	0.321
-562.544	402.553	0.101	0.212
-561.529	-200.000	-0.011	0.114
-560.515	-78.619	0.190	-0.065
-559.500	196.129	0.077	-0.118
-558.485	-200.000	0.004	-0.283
-557.471	266.268	0.140	0.245
-556.456	-200.000	0.035	0.247
-555.442	-200.000	0.003	0.044
-554.427	-63.744	-0.060	0.024
-553.412	610.994	0.041	0.102
-552.398	800.000	-0.092	0.378
-551.383	-200.000	-0.015	0.197
-550.369	-46.961	-0.189	0.093
-549.354	-187.911	-0.257	-0.003
-548.339	-51.623	-0.212	-0.099
-547.325	32.746	-0.102	0.088
-546.310	29.931	-0.261	-0.222
-545.296	-200.000	0.005	0.203
-544.281	232.826	0.127	0.208
-543.266	-17.804	-0.283	-0.178
-542.252	59.929	-0.304	-0.300
-541.237	127.119	0.028	-0.036
-540.223	-16.631	0.230	-0.145
-539.208	2.692	-0.068	0.050
-538.193	-138.732	-0.164	0.018
-537.179	-133.619	-0.238	0.030
-536.164	273.129	0.173	-0.305
-535.150	-85.094	0.171	-0.053
-534.135	-200.000	-0.006	-0.053
-533.121	89.391	0.086	0.096
-532.106	37.972	0.030	0.027
-531.091	-68.677	0.102	-0.040
-530.077	155.843	-0.040	-0.056
-529.062	-60.965	-0.174	0.073
-528.048	-200.000	-0.003	-0.326
-527.033	-145.886	0.177	0.016
-526.018	-38.187	0.139	0.073
-525.004	158.938	-0.185	-0.256
-523.989	-108.740	-0.304	0.065
-522.975	800.000	0.054	0.177
-521.960	800.000	-0.040	0.114
-520.945	-121.300	0.183	0.030
-519.931	800.000	0.043	0.179
-518.916	-200.000	-0.012	0.097
-517.902	800.000	-0.118	0.333
-516.887	-200.000	-0.074	-0.337
-515.872	-124.665	-0.292	0.045
-514.858	-12.368	-0.187	0.122
-513.843	-112.013	0.312	-0.063
-512.829	81.128	-0.102	-0.110
-511.814	367.107	-0.049	0.098
-510.799	-10.371	0.114	-0.076
-509.785	800.000	-0.206	0.601
-508.770	117.285	-0.193	-0.237
-507.756	-131.088	-0.154	-0.020
-506.741	-200.000	0.017	0.339
-505.726	800.000	-0.057	-0.195
-504.712	-160.332	-0.385	-0.021
-503.697	-14.373	0.177	0.114
-502.683	-200.000	-0.244	0.000
-501.668	800.000	0.021	-0.088
-500.653	179.631	-0.059	0.087
-499.639	-200.000	-0.043	-0.264
-498.624	-200.000	0.016	0.119
-497.610	121.647	0.182	-0.226
-496.595	-200.000	-0.043	0.216
-495.581	-200.000	-0.019	0.117
-494.566	702.865	0.140	0.367
-493.551	-200.000	-0.112	-0.000
-492.537	-130.455	0.302	-0.041
-491.522	-73.675	0.230	0.084
-490.508	-118.958	-0.079	0.014
-489.493	-147.949	-0.209	-0.017
-488.478	-99.782	0.264	0.066
-487.464	-71.460	-0.234	-0.087
-486.449	-34.489	-0.209	0.114
-485.435	758.981	-0.076	-0.205
-484.420	800.000	-0.057	-0.207
-483.405	-130.476	0.099	0.013
-482.391	119.749	0.196	0.242
-481.376	-25.036	0.183	-0.108
-480.362	259.260	0.154	0.264
-479.347	-175.882	-0.235	-0.006
-478.332	-200.000	-0.005	-0.046
-477.318	-134.905	0.247	0.030
-476.303	70.982	-0.094	-0.097
-475.289	181.448	0.127	0.186
-474.274	-71.793	0.197	-0.073
-473.259	-200.000	-0.057	-0.251
-472.245	177.364	-0.080	0.116
-471.230	800.000	0.044	0.138
-470.216	-200.000	0.031	-0.311
-469.201	22.709	-0.200	-0.163
-468.186	-33.428	-0.320	0.177
-467.172	-200.000	0.022	-0.114
-466.157	291.282	0.089	-0.162
-465.143	-24.886	0.388	-0.230
-464.128	-128.306	-0.311	0.044
-463.113	800.000	0.085	-0.245
-462.099	-82.001	-0.091	-0.030
-461.084	-200.000	-0.002	0.041
-460.070	156.751	0.180	0.248
-459.055	11.842	-0.334	0.255
-458.040	-200.000	0.008	0.316
-457.026	-114.134	0.048	0.009
-456.011	62.566	0.251	-0.250
-454.997	-118.914	-0.584	-0.102
-453.982	-25.640	0.390	0.229
-452.968	128.760	0.181	-0.230
-451.953	96.956	0.115	-0.132
-450.938	-200.000	-0.060	-0.315
-449.924	-50.924	0.236	-0.110
-448.909	-21.839	-0.332	0.201
-447.895	-200.000	0.003	-0.124
-446.880	30.911	0.183	0.156
-445.865	165.827	-0.175	-0.246
-444.851	-17.607	-0.257	-0.161
-443.836	244.609	-0.032	0.053
-442.822	-88.034	0.250	-0.075
-441.807	-27.327	-0.180	0.104
-440.792	-200.000	-0.038	0.310
-439.778	586.818	0.040	-0.099
-438.763	-48.472	0.095	0.046
-437.749	800.000	-0.052	-0.210
-436.734	-4.384	-0.186	-0.128
-435.719	542.020	-0.103	-0.244
-434.705	-4.656	-0.080	0.055
-433.690	-60.217	0.168	-0.071
-432.676	75.401	0.199	0.209
-431.661	800.000	-0.041	-0.142
-430.646	23.305	-0.121	-0.099
-429.632	173.858	-0.090	0.130
-428.617	127.575	-0.059	-0.075
-427.603	0.199	0.355	0.252
-426.588	-53.829	-0.179	0.081
-425.573	-62.450	0.053	0.022
-424.559	-200.000	0.089	0.523
-423.544	-18.075	0.113	0.071
-422.530	204.698	-0.184	-0.284
-421.515	-68.983	-0.142	-0.055
-420.500	-35.440	-0.235	0.127
-419.486	-182.446	-0.287	0.005
-418.471	-43.944	0.196	0.098
-417.457	800.000	-0.085	0.333
-416.442	800.000	-0.071	-0.231
-415.428	-94.290	-0.406	-0.110
-414.413	155.802	-0.116	-0.158
-413.398	99.353	0.099	-0.114
-412.384	-14.774	0.089	-0.057
-411.369	236.987	0.078	0.128
-410.355	-136.944	-0.117	0.013
-409.340	-100.733	-0.185	-0.045
-408.325	-200.000	-0.006	0.110
-407.311	800.000	-0.092	-0.257
-406.296	-140.841	0.022	-0.002
-405.282	-55.079	0.159	0.071
-404.267	54.867	0.098	0.094
-403.252	-3.766	0.088	0.061
-402.238	800.000	0.024	-0.077
-401.223	-200.000	-0.012	-0.345
-400.209	301.916	0.184	-0.339
-399.194	-21.582	-0.255	0.154
-398.179	-80.353	0.270	-0.090
-397.165	-29.263	0.361	0.205
-396.150	-61.571	0.108	-0.045
-395.136	-200.000	0.014	0.068
-394.121	-9.914	-0.092	-0.061
-393.106	166.392	0.122	-0.172
-392.092	351.706	0.165	-0.324
-391.077	-200.000	-0.002	-0.011
-390.063	162.525	0.085	-0.118
-389.048	-89.756	-0.114	-0.033
-388.033	800.000	0.086	-0.268
-387.019	-64.520	-0.266	-0.107
-386.004	-71.500	0.031	-0.011
-384.990	800.000	-0.060	0.196
-383.975	156.279	-0.065	0.089
-382.960	30.018	0.121	-0.102
-381.946	113.014	-0.141	0.170
-380.931	-200.000	0.031	0.193
-379.917	800.000	-0.046	-0.133
-378.902	-27.672	-0.143	-0.082
-377.888	69.928	0.211	-0.216
-376.873	-85.225	-0.200	-0.062
-375.858	60.973	0.024	-0.024
-374.844	718.455	-0.113	-0.298
-373.829	-16.825	-0.316	-0.198
-372.815	470.620	-0.024	0.053
-371.800	-8.275	0.121	0.081
-370.785	-33.570	0.275	-0.151
-369.771	800.000	0.093	0.317
-368.756	-58.005	0.065	-0.028
-367.742	41.341	0.031	-0.028
-366.727	453.072	-0.065	-0.143
-365.712	-98.690	-0.199	0.050
-364.698	-168.779	0.172	-0.006
-363.683	-139.420	-0.259	-0.028
-362.669	-153.836	0.230	-0.016
-361.654	-139.425	-0.365	0.039
-360.639	9.408	-0.317	0.238
-359.625	441.841	0.141	-0.307
-358.610	389.729	0.044	-0.091
-357.596	89.343	-0.079	0.087
-356.581	-26.781	0.312	0.181
-355.566	800.000	-0.078	-0.278
-354.552	161.485	0.100	-0.139
-353.537	-200.000	0.021	0.147
-352.523	88.280	-0.155	0.171
-351.508	800.000	-0.120	-0.348
-350.493	-146.264	-0.229	0.020
-349.479	-177.461	-0.042	0.001
-348.464	-172.572	-0.125	-0.004
-347.450	465.470	0.117	0.259
-346.435	-121.481	0.319	0.053
-345.420	141.840	0.127	0.166
-344.406	68.203	-0.074	-0.075
-343.391	-200.000	0.024	0.145
-342.377	-76.235	0.062	0.022
-341.362	57.897	-0.047	-0.046
-340.348	-0.337	0.174	0.123
-339.333	-163.436	0.075	0.004
-338.318	-80.835	0.195	0.064
-337.304	-43.972	0.014	-0.007
-336.289	518.593	-0.086	0.201
-335.275	-11.174	-0.175	-0.114
-334.260	323.968	0.110	-0.208
-333.245	-200.000	0.008	0.169
-332.231	16.060	-0.224	-0.175
-331.216	82.803	0.103	-0.111
-330.202	800.000	-0.082	-0.254
-329.187	71.103	-0.089	0.091
-328.172	462.728	0.081	-0.179
-327.158	-78.304	0.143	-0.049
-326.143	-130.083	0.141	-0.019
-325.129	-18.496	-0.016	-0.010
-324.114	-154.347	0.072	0.005
-323.099	-200.000	-0.007	0.062
-322.085	326.044	0.181	0.343
-321.070	381.374	0.156	0.317
-320.056	41.824	-0.095	0.085
-319.041	-39.164	-0.117	-0.061
-318.026	65.111	-0.101	-0.101
-317.012	-45.421	-0.157	0.077
-315.997	212.562	-0.136	-0.212
-314.983	-200.000	-0.001	-0.245
-313.968	262.747	-0.066	-0.113
-312.953	-200.000	-0.013	0.135
-311.939	-99.821	-0.282	0.070
-310.924	153.164	-0.172	-0.233
-309.910	-200.000	-0.004	0.062
-308.895	-200.000	0.014	-0.501
-307.880	800.000	0.125	-0.465
-306.866	-200.000	-0.003	0.165
-305.851	800.000	0.020	0.085
-304.837	140.628	0.090	-0.118
-303.822	144.376	0.068	-0.090
-302.807	216.192	-0.165	-0.259
-301.793	73.605	-0.283	0.294
-300.778	208.974	0.200	-0.310
-299.764	-114.231	-0.141	-0.027
-298.749	650.424	0.170	0.430
-297.735	147.091	0.361	-0.481
-296.720	-169.342	-0.134	0.005
-295.705	139.751	-0.101	0.132
-294.691	-12.689	0.261	-0.168
-293.676	800.000	0.095	-0.273
-292.662	11.714	-0.100	0.076
-291.647	-56.871	0.452	-0.197
-290.632	-163.084	-0.224	-0.011
-289.618	-200.000	0.004	0.170
-288.603	32.359	0.194	0.166
-287.589	800.000	-0.049	0.136
-286.574	33.150	-0.049	-0.042
-285.559	-110.717	-0.213	0.044
-284.545	773.241	0.024	-0.064
-283.530	800.000	-0.039	-0.114
-282.516	800.000	-0.086	0.299
-281.501	71.951	-0.090	-0.093
-280.486	-109.234	0.249	-0.052
-279.472	70.056	0.242	-0.247
-278.457	478.837	0.101	-0.227
-277.443	-37.995	-0.027	-0.014
-276.428	-200.000	-0.006	-0.083
-275.413	107.020	0.220	-0.258
-274.399	408.431	-0.137	-0.286
-273.384	-197.652	0.356	0.002
-272.370	188.899	0.244	-0.361
-271.355	-81.343	0.308	0.100
-270.340	-200.000	-0.043	0.193
-269.326	-200.000	-0.032	0.344
-268.311	-78.186	0.224	-0.076
-267.297	57.852	-0.233	0.226
-266.282	-46.716	-0.349	0.169
-265.267	-35.122	0.454	-0.245
-264.253	432.654	0.102	-0.218
-263.238	469.322	0.093	-0.206
-262.224	-121.448	0.099	-0.016
-261.209	124.870	0.172	0.214
-260.195	38.529	0.147	0.130
-259.180	192.081	-0.071	0.106
-258.165	211.929	0.180	0.280
-257.151	7.369	0.085	0.063
-256.136	447.235	0.096	0.208
-255.122	-200.000	-0.002	0.075
-254.107	522.161	0.009	-0.020
-253.092	-200.000	0.038	-0.234
-252.078	-22.204	-0.272	0.163
-251.063	-97.682	-0.107	0.028
-250.049	-81.046	0.014	0.005
-249.034	-27.566	0.248	0.143
-248.019	427.530	0.086	0.184
-247.005	57.733	0.118	-0.114
-245.990	41.573	0.078	-0.070
-244.976	335.904	-0.103	-0.197
-243.961	-49.539	-0.212	-0.100
-242.946	214.885	-0.131	0.205
-241.932	-200.000	-0.039	0.207
-240.917	457.267	0.174	-0.382
-239.903	20.127	-0.353	0.281
-238.888	-27.656	0.227	-0.130
-237.873	66.197	-0.135	0.135
-236.859	-57.837	0.469	0.203
-235.844	237.475	0.104	0.171
-234.830	-10.064	-0.231	-0.151
-233.815	-130.150	0.465	-0.063
-232.800	207.988	0.149	0.229
-231.786	800.000	0.011	0.046
-230.771	-198.662	-0.148	0.001
-229.757	-42.241	0.230	-0.116
-228.742	-46.041	0.190	-0.092
-227.727	-200.000	0.015	0.120
-226.713	-200.000	-0.008	0.138
-225.698	-114.134	-0.267	-0.051
-224.684	-200.000	0.031	0.362
-223.669	240.316	0.107	-0.177
-222.655	800.000	-0.073	-0.245
-221.640	201.965	-0.173	-0.263
-220.625	136.367	-0.092	-0.118
-219.611	-106.342	0.230	-0.051
-218.596	800.000	0.053	0.201
-217.582	31.625	0.234	0.199
-216.567	-169.348	0.071	-0.003
-215.552	800.000	-0.055	-0.162
-214.538	-51.727	-0.150	0.069
-213.523	800.000	0.094	-0.389
-212.509	716.059	-0.096	0.251
-211.494	-175.026	0.361	0.010
-210.479	-200.000	-0.003	0.082
-209.465	-200.000	0.000	0.087
-208.450	-136.718	0.046	0.005
-207.436	-184.471	0.156	0.003
-206.421	1.337	-0.151	0.107
-205.406	-13.408	-0.113	-0.072
-204.392	-89.108	-0.178	-0.052
-203.377	245.415	-0.069	0.115
-202.363	84.841	-0.073	0.079
-201.348	-185.115	-0.317	0.005
-200.333	45.574	0.079	0.072
-199.319	326.986	-0.148	0.280
-198.304	29.538	-0.066	-0.056
-197.290	177.649	-0.154	0.221
-196.275	12.000	0.111	0.084
-195.260	-121.569	0.227	0.037
-194.246	800.000	-0.048	-0.184
-193.231	64.489	0.106	0.105
-192.217	-37.999	-0.095	-0.050
-191.202	35.436	0.083	0.072
-190.187	339.550	0.072	0.138
-189.173	-1.298	0.252	0.175
-188.158	-132.377	0.282	-0.036
-187.144	-121.733	-0.221	0.036
-186.129	-22.567	0.186	-0.111
-185.114	-200.000	-0.006	-0.035
-184.100	-3.597	0.299	-0.205
-183.085	-200.000	0.055	0.254
-182.071	-124.923	-0.428	-0.065
-181.056	800.000	0.056	0.172
-180.042	-131.036	-0.066	-0.009
-179.027	53.144	0.159	-0.150
-178.012	74.572	0.337	0.349
-176.998	548.835	-0.092	0.216
-175.983	-200.000	0.002	0.101
-174.969	-104.293	-0.291	-0.067
-173.954	112.067	0.062	0.073
-172.939	800.000	-0.054	-0.150
-171.925	34.147	0.210	-0.180
-170.910	-162.540	0.158	0.008
-169.896	-108.981	-0.491	-0.103
-168.881	49.399	-0.025	0.024
-167.866	-69.840	0.231	-0.087
-166.852	14.489	0.085	0.065
-165.837	114.207	0.225	-0.270
-164.823	163.087	-0.173	0.240
-163.808	17.182	-0.303	-0.237
-162.793	90.393	-0.084	0.092
-161.779	800.000	-0.007	-0.030
-160.764	159.968	0.265	-0.364
-159.750	800.000	0.024	-0.077
-158.735	23.114	-0.369	0.298
-157.720	-163.893	-0.153	-0.007
-156.706	800.000	-0.008	0.023
-155.691	-200.000	-0.026	0.352
-154.677	170.832	0.100	0.141
-153.662	293.362	-0.149	0.268
-152.647	-30.224	-0.170	0.095
-151.633	233.555	0.145	0.235
-150.618	800.000	0.027	0.101
-149.604	-100.041	0.187	-0.046
-148.589	221.176	-0.127	0.200
-147.574	-168.434	0.446	0.017
-146.560	-89.073	0.452	0.132
-145.545	234.816	0.171	-0.277
-144.531	47.560	-0.118	-0.108
-143.516	-147.594	0.264	-0.022
-142.502	-174.122	-0.206	0.006
-141.487	-171.257	0.280	-0.009
-140.472	-200.000	-0.078	-0.439
-139.458	-181.147	0.231	0.005
-138.443	-97.152	0.299	0.077
-137.429	-200.000	-0.005	-0.227
-136.414	395.240	-0.176	0.360
-135.399	-109.304	0.290	0.060
-134.385	-112.104	0.438	0.087
-133.370	104.886	0.243	0.281
-132.356	9.640	-0.221	0.165
-131.341	223.170	0.039	-0.062
-130.326	473.817	0.027	-0.059
-129.312	379.598	0.100	-0.201
-128.297	82.971	-0.359	0.384
-127.283	-22.755	-0.317	-0.188
-126.268	-161.990	0.496	0.025
-125.253	-68.806	0.493	0.187
-124.239	-13.847	-0.132	0.084
-123.224	552.880	0.179	-0.422
-122.210	13.955	0.218	-0.167
-121.195	743.409	-0.033	-0.088
-120.180	800.000	0.081	-0.240
-119.166	710.141	0.094	0.245
-118.151	-90.042	0.287	-0.082
-117.137	-153.840	-0.118	0.008
-116.122	617.382	-0.093	0.230
-115.107	-200.000	0.016	-0.111
-114.093	80.930	-0.092	0.097
-113.078	-34.542	0.382	0.206
-112.064	-128.203	-0.138	0.019
-111.049	800.000	0.084	0.264
-110.034	14.908	0.196	0.150
-109.020	-138.962	0.176	0.019
-108.005	-200.000	0.057	-0.326
-106.991	568.682	0.004	0.010
-105.976	13.910	0.039	-0.030
-104.962	56.678	0.281	-0.268
-103.947	-16.145	0.294	-0.183
-102.932	194.226	-0.048	-0.071
-101.918	181.831	0.093	-0.134
-100.903	-95.550	0.130	-0.034
-99.889	-200.000	0.044	0.338
-98.874	745.532	0.094	-0.250
-97.859	233.784	-0.123	0.199
-96.845	-97.137	-0.163	0.042
-95.830	-200.000	0.011	0.086
-94.816	-49.953	-0.121	-0.056
-93.801	-45.080	-0.320	0.156
-92.786	118.445	-0.049	0.059
-91.772	-26.824	-0.263	-0.151
-90.757	22.713	0.218	-0.175
-89.743	792.253	-0.141	0.380
-88.728	48.365	0.121	-0.111
-87.713	800.000	0.042	0.125
-86.699	123.938	0.185	0.228
-85.684	-161.008	0.213	0.011
-84.670	-200.000	0.005	0.307
-83.655	-105.163	0.073	0.016
-82.640	800.000	0.052	-0.163
-81.626	215.888	0.137	0.214
-80.611	-72.022	0.206	0.075
-79.597	142.341	0.177	0.230
-78.582	-159.518	-0.126	0.007
-77.567	-96.985	0.160	-0.041
-76.553	800.000	-0.016	-0.050
-75.538	39.190	-0.128	-0.112
-74.524	-200.000	-0.018	0.130
-73.509	-20.319	0.206	0.125
-72.494	-31.831	0.176	-0.097
-71.480	-98.126	0.341	0.086
-70.465	-200.000	0.023	0.240
-69.451	-200.000	-0.025	-0.110
-68.436	167.837	-0.126	0.176
-67.422	-76.893	-0.160	0.055
-66.407	77.239	0.098	0.102
-65.392	-147.841	-0.170	-0.014
-64.378	116.744	0.182	0.219
-63.363	-200.000	-0.006	0.229
-62.349	-200.000	-0.004	0.320
-61.334	228.023	-0.709	-1.132
-60.319	-12.109	0.592	0.380
-59.305	800.000	-0.285	-1.060
-58.290	297.709	0.652	1.175
-57.276	292.811	0.825	1.475
-56.261	-200.000	105.909	612.234
-55.246	501.486	1508.054	3414.449
-54.232	174.768	2709.952	3845.239
-53.217	104.793	2300.701	2659.041
-52.203	38.678	1905.235	1666.861
-51.188	32.627	1690.907	1433.430
-50.173	30.083	1647.785	1377.936
-49.159	48.951	1702.001	1566.395
-48.144	49.352	1716.852	1583.026
-47.130	32.394	1674.318	1417.387
-46.115	29.660	1659.414	1384.271
-45.100	29.526	1654.582	1379.184
-44.086	29.519	1651.987	1376.914
-43.071	29.461	1649.349	1374.230
-42.057	29.410	1647.022	1371.857
-41.042	29.498	1644.782	1370.586
-40.027	29.393	1643.449	1368.645
-39.013	29.423	1640.815	1366.619
-37.998	29.395	1639.982	1365.661
-36.984	29.532	1638.239	1365.171
-35.969	29.604	1636.782	1364.430
-34.954	29.572	1635.279	1362.891
-33.940	29.619	1633.012	1361.293
-32.925	29.546	1631.568	1359.496
-31.911	29.606	1629.527	1358.187
-30.896	29.488	1628.153	1356.117
-29.881	29.500	1626.710	1354.953
-28.867	29.455	1625.027	1353.163
-27.852	29.567	1623.756	1352.873
-26.838	29.525	1621.965	1351.018
-25.823	29.600	1621.061	1350.761
-24.809	29.588	1619.507	1349.330
-23.794	29.540	1618.477	1348.065
-22.779	29.564	1616.739	1346.737
-21.765	29.539	1615.118	1345.149
-20.750	29.576	1613.654	1344.149
-19.736	29.554	1611.987	1342.547
-18.721	29.582	1610.839	1341.739
-17.706	29.625	1608.974	1340.450
-16.692	29.647	1607.647	1339.450
-15.677	29.569	1606.188	1337.615
-14.663	29.594	1605.025	1336.770
-13.648	29.654	1603.336	1335.747
-12.633	29.684	1601.602	1334.467
-11.619	29.639	1600.380	1333.070
-10.604	29.574	1599.055	1331.444
-9.590	29.567	1597.995	1330.459
-8.575	29.633	1596.406	1329.560
-7.560	29.595	1595.321	1328.328
-6.546	29.674	1594.826	1328.431
-5.531	29.529	1593.444	1326.189
-4.517	29.554	1592.387	1325.432
-3.502	29.625	1591.232	1324.926
-2.487	29.641	1589.157	1323.266
-1.473	29.309	1577.962	1311.525
-0.458	26.702	1558.466	1276.925
0.556	20.877	1560.375	1246.998
1.571	18.687	1585.619	1251.111
2.586	18.447	1599.211	1259.964
3.600	16.743	1546.698	1206.356
4.615	8.915	1436.784	1068.544
5.629	1.278	1372.098	971.592
6.644	-0.202	1364.403	956.631
7.659	-0.282	1362.789	954.907
8.673	-0.370	1361.867	953.620
9.688	-0.286	1360.115	952.842
10.702	-0.458	1356.922	949.432
11.717	3.066	1364.263	976.901
12.731	12.339	1381.853	1048.857
13.746	19.612	1394.281	1104.891
14.761	21.595	1396.876	1119.544
15.775	21.983	1396.217	1121.395
16.790	21.919	1396.025	1120.734
17.804	22.001	1395.617	1120.832
18.819	22.181	1395.150	1121.508
19.834	22.371	1393.981	1121.680
20.848	22.393	1393.356	1121.213
21.863	22.289	1393.198	1120.329
22.877	22.353	1391.968	1119.648
23.892	22.313	1391.257	1118.720
24.907	22.320	1390.344	1117.934
25.921	22.323	1389.273	1116.994
26.936	22.361	1388.401	1116.432
27.950	22.336	1387.255	1115.254
28.965	22.402	1386.036	1114.590
29.980	22.288	1384.780	1112.762
30.994	22.330	1383.772	1112.122
32.009	22.302	1382.731	1111.007
33.023	22.282	1381.549	1109.834
34.038	22.383	1380.354	1109.411
35.053	22.408	1379.381	1108.690
36.067	22.409	1378.293	1107.723
37.082	22.303	1377.846	1106.598
38.096	22.323	1376.695	1105.706
39.111	22.351	1375.984	1105.211
40.126	22.306	1375.590	1104.511
41.140	22.351	1374.681	1103.968
42.155	22.292	1374.381	1103.262
43.169	22.268	1374.704	1103.272
44.184	22.316	1374.334	1103.176
45.199	22.320	1373.717	1102.608
46.213	22.359	1373.037	1102.212
47.228	22.389	1371.862	1101.358
48.242	22.403	1371.069	1100.712
49.257	22.400	1369.341	1099.205
50.271	22.452	1367.761	1098.164
51.286	22.290	1367.022	1096.466
52.301	22.391	1364.792	1095.205
53.315	22.307	1364.323	1094.213
54.330	22.289	1364.425	1094.088
55.344	22.439	1362.399	1093.295
56.359	22.395	1361.322	1092.062
57.374	22.260	1361.137	1090.977
58.388	22.419	1360.265	1091.168
59.403	22.348	1359.601	1090.102
60.417	22.447	1358.606	1089.822
61.432	22.379	1358.484	1089.202
62.447	22.458	1357.094	1088.481
63.461	22.391	1355.830	1086.956
64.476	22.403	1355.113	1086.363
65.490	22.445	1353.958	1085.595
66.505	22.497	1352.156	1084.379
67.520	22.482	1351.047	1083.300
68.534	22.400	1350.282	1082.085
69.549	22.343	1349.487	1081.004
70.563	22.480	1348.190	1080.712
71.578	22.463	1347.607	1080.040
72.593	22.424	1346.509	1078.828
73.607	22.343	1346.327	1078.088
74.622	22.307	1345.493	1077.105
75.636	22.360	1344.804	1076.781
76.651	22.410	1343.811	1076.199
77.666	22.374	1343.019	1075.250
78.680	22.367	1342.782	1074.922
79.695	22.413	1341.885	1074.387
80.709	22.413	1340.933	1073.534
81.724	22.363	1340.032	1072.408
82.739	22.327	1339.416	1071.605
83.753	22.392	1338.565	1071.221
84.768	22.442	1336.671	1069.918
85.782	22.361	1336.302	1069.035
86.797	22.472	1334.624	1068.269
87.812	22.393	1333.817	1067.050
88.826	22.530	1332.509	1066.739
89.841	22.427	1331.612	1065.302
90.855	22.404	1330.727	1064.365
91.870	22.423	1329.972	1063.779
92.884	22.453	1329.473	1063.470
93.899	22.435	1328.756	1062.690
94.914	22.451	1327.661	1061.817
95.928	22.571	1326.388	1061.430
96.943	22.422	1326.185	1060.276
97.957	22.429	1325.155	1059.400
98.972	22.441	1324.292	1058.690
99.987	22.451	1323.361	1057.913
101.001	22.423	1322.188	1056.711
102.016	22.512	1321.355	1056.484
103.030	22.384	1320.360	1054.833
104.045	22.505	1319.327	1054.635
105.060	22.595	1318.530	1054.446
106.074	22.458	1317.727	1052.892
107.089	22.519	1316.081	1051.845
108.103	22.460	1315.495	1050.931
109.118	22.426	1314.203	1049.602
110.133	22.506	1312.956	1048.992
111.147	22.645	1311.384	1048.470
112.162	22.587	1310.358	1047.211
113.176	22.567	1309.671	1046.451
114.191	22.448	1309.100	1045.198
115.206	22.522	1307.670	1044.399
116.220	22.628	1306.511	1044.013
117.235	22.497	1305.856	1042.621
118.249	22.411	1304.902	1041.256
119.264	22.577	1304.115	1041.518
120.279	22.503	1302.981	1040.082
121.293	22.584	1302.565	1040.139
122.308	22.530	1301.201	1038.638
123.322	22.605	1300.374	1038.328
124.337	22.609	1299.714	1037.731
125.352	22.599	1298.955	1036.974
126.366	22.556	1298.219	1036.043
127.381	22.565	1296.989	1035.025
128.395	22.609	1296.289	1034.630
129.410	22.630	1295.135	1033.740
130.424	22.648	1294.441	1033.204
131.439	22.423	1293.972	1031.421
132.454	22.519	1292.653	1030.840
133.468	22.567	1291.972	1030.485
134.483	22.526	1291.547	1029.812
135.497	22.559	1290.460	1029.051
136.512	22.411	1289.879	1027.633
137.527	22.539	1288.435	1027.132
138.541	22.539	1287.200	1026.061
139.556	22.465	1285.762	1024.390
140.570	22.354	1285.350	1023.330
141.585	22.433	1283.881	1022.528
142.600	22.543	1282.249	1021.773
143.614	22.506	1281.894	1021.187
144.629	22.512	1280.573	1020.077
145.643	22.479	1279.397	1018.864
146.658	22.336	1279.146	1017.746
147.673	22.523	1277.751	1017.625
148.687	22.475	1276.664	1016.391
149.702	22.464	1275.818	1015.566
150.716	22.491	1274.593	1014.653
151.731	22.612	1272.996	1013.992
152.746	22.589	1272.061	1013.026
153.760	22.619	1271.108	1012.347
154.775	22.672	1270.469	1012.052
155.789	22.596	1269.435	1010.705
156.804	22.535	1268.607	1009.605
157.819	22.544	1267.520	1008.700
158.833	22.678	1266.478	1008.551
159.848	22.672	1266.054	1008.091
160.862	22.661	1265.330	1007.359
161.877	22.733	1264.296	1006.858
162.892	22.576	1263.853	1005.524
163.906	22.723	1262.794	1005.426
164.921	22.800	1261.792	1004.981
165.935	22.641	1261.641	1003.864
166.950	22.580	1260.858	1002.804
167.964	22.582	1260.280	1002.269
168.979	22.647	1259.433	1001.876
169.994	22.645	1259.140	1001.542
171.008	22.803	1257.810	1001.292
172.023	22.787	1257.126	1000.572
173.037	22.658	1256.763	999.464
174.052	22.737	1255.914	999.142
175.067	22.709	1255.312	998.418
176.081	22.602	1254.514	997.092
177.096	22.760	1253.500	997.089
178.110	22.595	1253.214	995.844
179.125	22.673	1251.699	994.988
180.140	22.817	1250.505	994.767
181.154	22.708	1249.630	993.367
182.169	22.690	1248.138	991.991
183.183	22.752	1247.127	991.446
184.198	22.759	1246.198	990.659
185.213	22.853	1245.255	990.352
186.227	22.739	1244.962	989.393
187.242	22.781	1244.239	988.963
188.256	22.893	1242.709	988.290
189.271	22.819	1242.063	987.273
190.286	22.768	1241.514	986.465
191.300	22.764	1240.739	985.740
192.315	22.737	1240.498	985.311
193.329	22.845	1240.142	985.540
194.344	22.856	1239.510	985.015
195.359	22.822	1238.627	984.036
196.373	22.813	1238.110	983.489
197.388	22.738	1238.131	982.997
198.402	22.778	1237.562	982.684
199.417	22.764	1236.942	982.027
200.432	22.858	1236.011	981.721
201.446	22.775	1235.828	981.029
202.461	22.805	1234.844	980.329
203.475	22.738	1234.058	979.244
204.490	22.920	1232.841	979.200
205.504	22.800	1232.159	977.907
206.519	22.789	1231.519	977.252
207.534	22.789	1230.267	976.175
208.548	22.829	1229.439	975.652
209.563	22.824	1228.563	974.840
210.577	22.808	1228.030	974.247
211.592	22.978	1226.721	974.055
212.607	22.849	1226.148	972.803
213.621	22.851	1225.425	972.158
214.636	22.988	1224.268	971.908
215.650	22.963	1224.157	971.595
216.665	22.889	1222.726	969.965
217.680	22.885	1222.200	969.441
218.694	22.912	1221.331	968.814
219.709	23.044	1220.166	968.527
220.723	22.895	1220.321	967.747
221.738	22.892	1219.399	966.914
222.753	22.798	1218.994	965.995
223.767	22.892	1218.212	965.802
224.782	22.979	1217.643	965.739
225.796	22.995	1217.319	965.485
226.811	23.025	1216.323	964.778
227.826	23.022	1215.665	964.153
228.840	22.898	1215.474	963.236
229.855	22.965	1214.543	962.781
230.869	23.030	1213.976	962.600
231.884	22.987	1213.126	961.606
232.899	23.094	1212.030	961.235
233.913	23.030	1211.959	960.744
234.928	23.071	1210.953	960.084
235.942	22.995	1210.786	959.458
236.957	23.112	1209.716	959.157
237.972	23.002	1209.273	958.123
238.986	23.018	1208.416	957.449
240.001	23.084	1208.047	957.426
241.015	23.166	1207.099	957.038
242.030	23.097	1206.575	956.164
243.045	23.258	1205.469	956.068
244.059	23.154	1204.821	954.909
245.074	23.255	1203.907	954.649
246.088	23.163	1203.647	953.858
247.103	23.203	1202.416	953.013
248.117	23.191	1201.647	952.259
249.132	23.181	1200.862	951.499
250.147	23.228	1200.419	951.314
251.161	23.218	1199.663	950.577
252.176	23.271	1198.764	950.067
253.190	23.187	1198.593	949.394
254.205	23.238	1197.635	948.824
255.220	23.199	1197.288	948.256
256.234	23.300	1196.409	948.021
257.249	23.266	1196.527	947.847
258.263	23.161	1195.697	946.542
259.278	23.309	1194.638	946.413
260.293	23.307	1194.703	946.368
261.307	23.395	1193.976	946.178
262.322	23.248	1193.097	944.612
263.336	23.430	1191.719	944.410
264.351	23.380	1191.956	944.246
265.366	23.327	1191.205	943.284
266.380	23.288	1190.552	942.480
267.395	23.297	1189.970	941.984
268.409	23.241	1189.448	941.185
269.424	23.418	1188.243	941.089
270.439	23.356	1188.275	940.702
271.453	23.407	1187.485	940.269
272.468	23.304	1186.928	939.194
273.482	23.373	1185.690	938.500
274.497	23.421	1185.777	938.740
275.512	23.308	1185.353	937.721
276.526	23.238	1184.673	936.728
277.541	23.259	1183.856	936.111
278.555	23.255	1183.291	935.563
279.570	23.420	1182.148	935.446
280.585	23.401	1181.489	934.742
281.599	23.398	1180.651	933.979
282.614	23.469	1179.545	933.395
283.628	23.349	1179.162	932.377
284.643	23.487	1177.489	931.697
285.657	23.319	1177.697	930.900
286.672	23.407	1176.321	930.192
287.687	23.571	1175.690	930.468
288.701	23.582	1175.503	930.296
289.716	23.494	1175.050	929.396
290.730	23.517	1173.917	928.537
291.745	23.536	1173.084	927.894
292.760	23.530	1172.630	927.419
293.774	23.557	1171.856	926.869
294.789	23.629	1171.486	926.868
295.803	23.570	1170.814	925.947
296.818	23.548	1170.010	925.117
297.833	23.644	1169.355	925.017
298.847	23.605	1168.568	924.109
299.862	23.609	1168.100	923.680
300.876	23.651	1167.443	923.296
301.891	23.683	1166.539	922.667
302.906	23.704	1166.265	922.476
303.920	23.739	1165.545	922.006
304.935	23.670	1164.634	920.848
305.949	23.718	1164.334	920.777
306.964	23.646	1163.644	919.775
307.979	23.746	1162.806	919.550
308.993	23.780	1162.422	919.339
310.008	23.673	1162.052	918.413
311.022	23.662	1161.080	917.508
312.037	23.860	1159.927	917.537
313.052	23.794	1159.153	916.504
314.066	23.816	1157.786	915.454
315.081	23.674	1157.511	914.427
316.095	23.811	1156.698	914.404
317.110	23.906	1156.329	914.521
318.125	23.868	1155.672	913.727
319.139	23.753	1155.083	912.591
320.154	23.813	1154.809	912.598
321.168	23.738	1154.285	911.722
322.183	23.720	1153.800	911.163
323.197	23.767	1152.750	910.495
324.212	23.905	1151.872	910.426
325.227	23.858	1151.601	909.891
326.241	23.936	1151.255	909.937
327.256	23.889	1150.561	909.070
328.270	23.824	1149.896	908.128
329.285	23.779	1148.942	907.068
330.300	23.905	1147.990	906.875
331.314	23.952	1147.270	906.469
332.329	23.982	1146.426	905.872
333.343	23.930	1145.793	905.026
334.358	23.982	1144.890	904.499
335.373	23.959	1144.498	903.993
336.387	23.943	1143.766	903.254
337.402	23.965	1142.892	902.593
338.416	24.064	1142.039	902.343
339.431	23.851	1142.041	901.187
340.446	24.098	1141.310	901.779
341.460	24.021	1140.217	900.448
342.475	23.989	1139.989	900.028
343.489	24.070	1138.890	899.486
344.504	24.199	1137.493	898.956
345.519	23.939	1137.267	897.385
346.533	24.163	1136.263	897.644
347.548	24.111	1135.782	896.923
348.562	24.069	1135.155	896.137
349.577	24.187	1134.019	895.753
350.592	24.040	1133.343	894.403
351.606	24.048	1133.158	894.216
352.621	24.204	1132.161	894.131
353.635	24.230	1131.839	893.931
354.650	24.212	1131.070	893.155
355.665	24.283	1130.440	892.932
356.679	24.197	1129.718	891.853
357.694	24.184	1129.037	891.173
358.708	24.237	1128.180	890.679
359.723	24.238	1127.578	890.134
360.738	24.258	1126.801	889.539
361.752	24.262	1126.627	889.346
362.767	24.296	1126.182	889.082
363.781	24.250	1125.459	888.203
364.796	24.292	1125.017	887.985
365.810	24.406	1124.088	887.740
366.825	24.362	1123.328	886.844
367.840	24.392	1122.992	886.651
368.854	24.384	1122.243	885.940
369.869	24.439	1121.824	885.802
370.883	24.362	1121.166	884.825
371.898	24.376	1120.399	884.211
372.913	24.408	1119.616	883.671
373.927	24.403	1119.298	883.317
374.942	24.475	1118.705	883.125
375.956	24.504	1118.138	882.743
376.971	24.452	1117.548	881.946
377.986	24.441	1116.915	881.311
379.000	24.510	1116.806	881.491
380.015	24.436	1116.434	880.753
381.029	24.569	1115.259	880.403
382.044	24.510	1114.769	879.647
383.059	24.470	1113.993	878.759
384.073	24.602	1113.909	879.267
385.088	24.508	1112.685	877.760
386.102	24.556	1111.791	877.213
387.117	24.501	1110.840	876.115
388.132	24.528	1110.052	875.551
389.146	24.514	1109.517	874.981
390.161	24.468	1109.071	874.324
391.175	24.691	1107.769	874.314
392.190	24.690	1107.096	873.700
393.205	24.530	1106.907	872.690
394.219	24.610	1106.315	872.540
395.234	24.682	1105.036	871.805
396.248	24.742	1104.156	871.323
397.263	24.705	1103.477	870.530
398.278	24.665	1103.186	870.029
399.292	24.803	1102.251	869.887
400.307	24.813	1102.122	869.757
401.321	24.868	1100.852	868.945
402.336	24.725	1100.654	868.015
403.350	24.824	1099.757	867.713
404.365	24.811	1099.455	867.334
405.380	24.691	1098.814	866.169
406.394	24.733	1097.911	865.586
407.409	24.885	1096.608	865.215
408.423	24.838	1096.144	864.548
409.438	24.841	1095.372	863.875
410.453	24.793	1095.232	863.460
411.467	24.963	1094.157	863.351
412.482	24.990	1093.142	862.607
413.496	24.982	1092.491	861.977
414.511	24.819	1092.698	861.281
415.526	25.003	1091.760	861.349
416.540	24.894	1091.752	860.742
417.555	25.006	1090.546	860.254
418.569	25.007	1090.519	860.159
419.584	25.005	1089.909	859.595
420.599	24.894	1089.667	858.797
421.613	147.896	1403.298	1798.620
422.628	136.800	1448.979	1798.704
