DTS Sentinel unit serial number:	SN413079Multiplexer serial number:	ORYXHardware model number:	OX4-SRSoftware version number:	ORYX F/W v4.00 Oryx Data Collector v3.7.2.0data status	okinstallation	princeton_trtdifferential loss correction	single-endedforward channel	channel 2reverse channel	N/Adate	2019/09/11time	10:13:11forward acquisition time	60.00reverse acquisition time	0.00gamma	496.2192k internal	0.2312k external	0.2312temperature offset calibration	0.9968default loss term (dB/km)	0.3790temperature slope calibration	1.0000multiplexer offset coefficient	1.0000multiplexer slope coefficient	1.0000fibre end	0.00T internal ref (°C)	35.81T ext. ref 1 (°C)	0.14T ext. ref 2 (°C)	33.70length (m)	temperature (°C)	Stokes	anti-Stokes-747.200	203.861	0.087	0.137
-746.185	-200.000	-0.045	0.355
-745.171	769.652	0.015	-0.041
-744.156	-21.759	0.153	0.094
-743.142	-200.000	0.010	0.289
-742.127	126.036	0.176	0.226
-741.112	210.664	0.075	-0.120
-740.098	-106.030	-0.168	0.038
-739.083	42.006	-0.155	0.143
-738.069	138.465	0.075	0.100
-737.054	-37.008	0.028	-0.015
-736.039	39.733	-0.216	0.197
-735.025	-200.000	0.037	0.270
-734.010	-115.068	0.163	0.031
-732.996	10.644	-0.238	0.184
-731.981	-47.604	0.274	-0.135
-730.966	272.832	-0.263	0.471
-729.952	800.000	-0.038	-0.140
-728.937	309.031	0.140	-0.265
-727.923	71.268	-0.194	-0.205
-726.908	-0.107	-0.160	-0.115
-725.894	-200.000	-0.008	-0.222
-724.879	800.000	-0.060	0.242
-723.864	-59.472	0.219	0.096
-722.850	-87.572	0.129	0.040
-721.835	-200.000	0.009	-0.093
-720.821	-161.408	-0.250	-0.013
-719.806	35.489	-0.032	-0.029
-718.791	800.000	0.054	-0.201
-717.777	-200.000	0.061	-0.586
-716.762	800.000	0.052	-0.210
-715.748	-21.481	0.181	0.112
-714.733	5.285	-0.295	0.220
-713.718	-53.011	-0.146	-0.068
-712.704	-70.893	-0.245	-0.094
-711.689	182.340	-0.045	-0.067
-710.675	800.000	-0.068	-0.297
-709.660	-86.684	-0.330	0.102
-708.645	75.957	0.262	0.281
-707.631	121.840	0.112	0.142
-706.616	210.378	-0.188	-0.299
-705.602	-200.000	0.025	-0.234
-704.587	-23.199	-0.427	0.260
-703.572	23.434	0.068	0.057
-702.558	-107.717	0.427	0.094
-701.543	-200.000	-0.011	-0.174
-700.529	-40.692	-0.077	-0.041
-699.514	-200.000	0.100	-0.521
-698.499	-31.394	0.323	-0.184
-697.485	-39.381	-0.163	0.086
-696.470	682.124	-0.044	-0.116
-695.456	48.027	-0.145	0.137
-694.441	-67.345	0.035	-0.014
-693.426	-105.155	-0.413	-0.096
-692.412	315.181	0.150	0.286
-691.397	-139.798	-0.355	-0.038
-690.383	-200.000	-0.049	-0.366
-689.368	-105.903	-0.205	0.047
-688.354	311.697	-0.065	0.124
-687.339	111.818	0.132	-0.162
-686.324	-200.000	-0.011	-0.208
-685.310	-55.561	0.233	-0.106
-684.295	-200.000	-0.049	0.222
-683.281	155.592	0.168	-0.234
-682.266	-168.830	0.151	0.006
-681.251	-200.000	0.018	0.247
-680.237	-88.158	0.245	-0.074
-679.222	191.769	-0.175	-0.267
-678.208	-200.000	-0.028	0.128
-677.193	-200.000	-0.016	-0.376
-676.178	-200.000	-0.020	-0.089
-675.164	-148.349	-0.142	0.012
-674.149	193.868	0.019	0.029
-673.135	109.650	0.143	-0.174
-672.120	-200.000	-0.075	-0.364
-671.105	-38.702	-0.259	-0.138
-670.091	46.587	-0.178	0.167
-669.076	-200.000	0.051	-0.250
-668.062	-37.838	-0.230	-0.124
-667.047	-103.431	-0.374	-0.089
-666.032	-42.786	0.016	0.008
-665.018	158.778	0.198	-0.279
-664.003	361.569	0.067	-0.135
-662.989	-200.000	0.048	0.323
-661.974	71.021	0.194	-0.204
-660.959	-131.445	0.043	-0.006
-659.945	8.301	-0.365	-0.278
-658.930	157.794	-0.139	-0.195
-657.916	-200.000	-0.010	-0.097
-656.901	800.000	-0.041	-0.172
-655.886	117.518	0.201	-0.250
-654.872	-63.015	0.508	-0.212
-653.857	-65.220	0.104	-0.042
-652.843	-73.418	0.347	-0.128
-651.828	-63.983	-0.155	-0.064
-650.814	531.510	0.077	0.185
-649.799	-40.653	-0.326	-0.171
-648.784	-112.096	-0.240	-0.049
-647.770	-62.731	-0.409	0.171
-646.755	54.819	0.126	0.123
-645.741	57.945	-0.069	0.068
-644.726	-11.163	0.161	-0.107
-643.711	242.429	-0.108	-0.182
-642.697	94.767	0.200	-0.230
-641.682	-95.809	0.278	-0.075
-640.668	-78.005	-0.252	0.088
-639.653	-130.453	0.196	0.027
-638.638	-23.652	-0.190	0.115
-637.624	-200.000	0.064	0.506
-636.609	-200.000	-0.179	-0.000
-635.595	800.000	0.073	-0.221
-634.580	-69.170	-0.133	0.052
-633.565	800.000	0.103	0.353
-632.551	-29.223	0.095	-0.055
-631.536	63.170	0.224	0.226
-630.522	37.616	0.285	0.256
-629.507	249.009	-0.187	-0.320
-628.492	67.670	0.052	0.053
-627.478	211.854	-0.131	-0.208
-626.463	251.239	0.023	0.039
-625.449	140.853	0.087	-0.116
-624.434	-100.787	-0.236	-0.059
-623.419	149.703	-0.157	0.215
-622.405	-11.194	0.239	0.159
-621.390	-1.072	-0.136	-0.097
-620.376	-0.326	-0.340	0.244
-619.361	516.067	-0.089	-0.211
-618.346	800.000	-0.116	0.397
-617.332	44.239	0.153	-0.142
-616.317	604.254	0.053	-0.134
-615.303	-120.819	-0.178	0.030
-614.288	800.000	0.012	-0.048
-613.273	-122.172	-0.217	-0.036
-612.259	643.213	-0.065	0.166
-611.244	-23.434	0.266	-0.161
-610.230	800.000	-0.012	0.038
-609.215	27.149	0.104	0.088
-608.201	800.000	0.032	0.105
-607.186	-103.125	-0.294	-0.070
-606.171	295.176	-0.163	-0.302
-605.157	267.010	-0.115	-0.203
-604.142	-91.985	-0.184	-0.053
-603.128	-4.048	0.182	-0.127
-602.113	-200.000	0.068	0.384
-601.098	-173.312	-0.074	-0.002
-600.084	7.415	0.202	0.152
-599.069	127.203	-0.171	0.219
-598.055	-23.480	0.281	-0.170
-597.040	-200.000	-0.013	0.111
-596.025	160.284	-0.111	-0.157
-595.011	-200.000	0.013	0.222
-593.996	-82.495	-0.334	0.109
-592.982	-73.093	-0.252	-0.093
-591.967	-14.240	-0.146	-0.095
-590.952	50.663	0.154	-0.147
-589.938	-130.255	-0.153	0.021
-588.923	5.713	0.197	0.147
-587.909	800.000	-0.042	-0.124
-586.894	800.000	0.083	0.325
-585.879	-26.588	-0.497	-0.293
-584.865	-53.904	0.148	-0.068
-583.850	-5.952	0.109	-0.075
-582.836	-200.000	-0.036	0.312
-581.821	54.700	-0.135	-0.131
-580.806	-81.555	-0.296	0.098
-579.792	-50.076	0.300	-0.143
-578.777	800.000	0.105	0.356
-577.763	605.774	0.118	0.295
-576.748	-152.574	-0.216	0.016
-575.733	570.921	-0.094	0.231
-574.719	91.043	-0.161	0.183
-573.704	-108.951	0.328	-0.070
-572.690	84.605	-0.099	0.110
-571.675	-96.872	-0.154	0.041
-570.661	48.110	-0.216	0.203
-569.646	800.000	0.081	-0.270
-568.631	-200.000	-0.064	0.391
-567.617	479.122	0.114	0.260
-566.602	800.000	-0.027	-0.104
-565.588	162.052	-0.236	-0.333
-564.573	-200.000	0.050	-0.275
-563.558	800.000	0.051	0.176
-562.544	-21.438	0.194	0.119
-561.529	-200.000	0.003	-0.129
-560.515	-111.977	0.308	0.062
-559.500	-112.025	-0.429	-0.087
-558.485	51.983	0.291	0.279
-557.471	-77.055	-0.093	0.033
-556.456	800.000	0.111	0.343
-555.442	800.000	0.075	0.276
-554.427	26.527	-0.062	0.052
-553.412	-33.880	0.258	-0.143
-552.398	235.087	0.140	-0.233
-551.383	-137.903	0.257	0.029
-550.369	-200.000	0.041	-0.229
-549.354	-200.000	0.037	-0.266
-548.339	-33.527	-0.112	-0.062
-547.325	-0.686	-0.153	0.109
-546.310	223.638	-0.040	-0.066
-545.296	-78.964	0.198	0.068
-544.281	800.000	-0.056	0.179
-543.266	22.477	0.258	-0.212
-542.252	-57.817	0.358	-0.157
-541.237	64.770	-0.112	0.114
-540.223	352.086	0.080	0.159
-539.208	124.878	-0.086	-0.109
-538.193	800.000	-0.118	-0.333
-537.179	800.000	0.096	0.300
-536.164	-200.000	0.005	-0.250
-535.150	274.085	0.041	0.074
-534.135	-200.000	-0.010	-0.362
-533.121	-200.000	-0.039	-0.274
-532.106	-63.814	0.106	-0.044
-531.091	-3.035	0.050	-0.035
-530.077	42.956	0.112	-0.102
-529.062	-14.127	-0.314	-0.204
-528.048	-200.000	-0.041	-0.223
-527.033	8.416	-0.270	0.205
-526.018	190.596	0.240	-0.363
-525.004	-200.000	0.049	0.269
-523.989	-166.213	0.330	0.014
-522.975	-136.492	-0.193	0.022
-521.960	800.000	-0.151	-0.432
-520.945	135.756	-0.204	0.267
-519.931	800.000	-0.029	0.093
-518.916	-200.000	-0.025	0.221
-517.902	68.790	0.174	-0.179
-516.887	-113.594	0.357	-0.070
-515.872	800.000	-0.063	-0.198
-514.858	245.399	-0.162	-0.274
-513.843	164.154	0.142	-0.201
-512.829	-112.540	-0.206	0.041
-511.814	265.867	-0.141	0.248
-510.799	-200.000	-0.023	0.220
-509.785	97.041	0.071	0.082
-508.770	377.249	0.123	-0.253
-507.756	800.000	-0.099	-0.411
-506.741	-77.576	-0.284	-0.099
-505.726	-26.784	-0.208	-0.122
-504.712	-94.504	-0.182	0.050
-503.697	48.211	-0.160	-0.150
-502.683	34.376	0.284	-0.249
-501.668	-18.545	0.245	0.154
-500.653	22.490	0.185	0.152
-499.639	-146.083	0.362	-0.032
-498.624	0.194	-0.239	-0.171
-497.610	226.725	0.150	0.244
-496.595	263.828	-0.136	0.237
-495.581	178.937	0.068	-0.100
-494.566	-93.666	-0.199	-0.055
-493.551	800.000	0.011	0.034
-492.537	-200.000	0.005	-0.468
-491.522	800.000	0.053	-0.169
-490.508	345.778	-0.074	-0.146
-489.493	800.000	-0.020	-0.071
-488.478	420.262	-0.095	0.205
-487.464	219.495	0.258	-0.415
-486.449	109.437	-0.125	0.150
-485.435	-200.000	0.022	-0.223
-484.420	-52.598	-0.396	-0.184
-483.405	800.000	-0.043	0.139
-482.391	16.352	0.238	-0.189
-481.376	-144.846	-0.230	-0.021
-480.362	800.000	-0.072	-0.217
-479.347	-110.640	0.478	-0.099
-478.332	174.781	-0.202	-0.294
-477.318	510.263	-0.130	0.303
-476.303	-200.000	-0.020	-0.139
-475.289	-200.000	-0.009	-0.087
-474.274	394.733	0.036	0.076
-473.259	-136.715	-0.030	0.004
-472.245	-200.000	0.005	0.313
-471.230	767.153	0.038	0.103
-470.216	-81.284	-0.327	0.108
-469.201	-200.000	0.007	-0.131
-468.186	218.940	0.199	0.319
-467.172	800.000	0.071	0.285
-466.157	54.683	-0.014	-0.014
-465.143	-200.000	0.040	-0.276
-464.128	81.969	0.102	-0.111
-463.113	-126.860	0.250	-0.037
-462.099	0.731	0.290	0.209
-461.084	17.264	0.144	-0.114
-460.070	-200.000	-0.012	0.062
-459.055	-200.000	0.065	0.407
-458.040	-79.264	-0.066	-0.022
-457.026	800.000	0.075	0.283
-456.011	81.766	0.135	-0.146
-454.997	-185.772	0.300	-0.004
-453.982	505.167	0.105	0.245
-452.968	84.752	-0.171	-0.188
-451.953	-48.430	-0.156	0.075
-450.938	598.593	-0.145	0.361
-449.924	47.406	0.184	-0.172
-448.909	-50.726	-0.163	0.077
-447.895	-115.000	0.180	-0.034
-446.880	78.534	0.076	-0.082
-445.865	60.358	0.213	0.212
-444.851	404.819	-0.134	0.284
-443.836	222.031	-0.157	-0.254
-442.822	44.576	-0.064	0.059
-441.807	238.658	0.052	0.086
-440.792	800.000	0.088	0.384
-439.778	-82.660	0.188	0.061
-438.763	481.433	0.110	-0.251
-437.749	128.350	-0.182	-0.232
-436.734	67.022	-0.095	-0.097
-435.719	-67.101	0.322	-0.127
-434.705	565.548	-0.087	-0.212
-433.690	-82.084	-0.233	-0.076
-432.676	800.000	-0.077	0.226
-431.661	-200.000	-0.008	0.428
-430.646	-124.480	0.227	0.035
-429.632	-27.979	-0.070	0.040
-428.617	231.671	0.071	0.117
-427.603	78.909	0.051	-0.055
-426.588	-157.665	-0.151	0.009
-425.573	-5.214	-0.085	-0.059
-424.559	-200.000	0.006	0.134
-423.544	41.352	0.115	-0.105
-422.530	-127.474	0.231	-0.034
-421.515	-42.180	0.382	0.196
-420.500	1.554	-0.097	0.070
-419.486	-118.108	0.093	0.017
-418.471	74.562	-0.056	0.059
-417.457	-200.000	-0.076	-0.454
-416.442	-67.599	-0.147	-0.058
-415.428	-200.000	0.054	-0.245
-414.413	800.000	0.077	-0.292
-413.398	-200.000	0.030	-0.162
-412.384	-99.273	0.096	0.024
-411.369	-61.123	0.287	-0.121
-410.355	-200.000	0.008	0.089
-409.340	502.774	-0.146	-0.338
-408.325	-49.580	-0.288	-0.137
-407.311	-16.110	0.256	0.163
-406.296	242.349	0.147	0.246
-405.282	-103.646	-0.085	0.020
-404.267	70.086	0.044	-0.045
-403.252	13.655	0.110	0.086
-402.238	514.952	0.029	-0.068
-401.223	-100.138	-0.428	-0.107
-400.209	800.000	-0.020	-0.083
-399.194	-91.602	0.086	0.025
-398.179	-55.951	0.196	0.087
-397.165	-200.000	0.014	0.130
-396.150	-200.000	0.012	-0.179
-395.136	-200.000	0.040	-0.220
-394.121	-117.806	0.082	-0.015
-393.106	800.000	0.033	-0.109
-392.092	-189.121	-0.314	-0.004
-391.077	-89.375	0.254	-0.075
-390.063	196.188	-0.127	-0.194
-389.048	-123.743	-0.177	0.028
-388.033	180.950	-0.186	-0.273
-387.019	-54.238	0.189	-0.086
-386.004	243.615	-0.087	0.145
-384.990	-140.066	0.153	-0.016
-383.975	18.730	0.040	0.032
-382.960	800.000	0.055	0.219
-381.946	-83.581	0.237	-0.076
-380.931	281.307	-0.148	0.266
-379.917	-50.375	0.121	-0.057
-378.902	-143.001	-0.211	-0.020
-377.888	371.560	0.119	0.242
-376.873	82.332	-0.101	-0.110
-375.858	13.332	-0.046	0.035
-374.844	569.995	0.079	0.193
-373.829	-200.000	0.011	0.054
-372.815	-4.022	0.067	-0.046
-371.800	-92.584	-0.321	-0.090
-370.785	27.307	0.114	-0.096
-369.771	104.016	0.098	0.115
-368.756	63.194	0.163	0.164
-367.742	116.202	-0.115	0.141
-366.727	651.812	-0.084	-0.216
-365.712	-200.000	0.028	-0.201
-364.698	800.000	0.103	-0.444
-363.683	-171.636	-0.294	-0.010
-362.669	199.155	0.255	0.391
-361.654	158.166	0.126	0.175
-360.639	-200.000	0.052	-0.240
-359.625	-74.503	-0.435	-0.157
-358.610	-61.034	0.021	-0.009
-357.596	-200.000	0.028	0.126
-356.581	-78.799	-0.364	-0.124
-355.566	800.000	0.083	-0.315
-354.552	93.030	0.054	0.061
-353.537	42.000	0.138	0.125
-352.523	184.512	-0.079	0.118
-351.508	-111.055	0.131	-0.027
-350.493	-200.000	-0.087	0.385
-349.479	-200.000	0.027	-0.148
-348.464	800.000	-0.097	-0.279
-347.450	6.060	0.111	0.082
-346.435	230.242	0.091	0.149
-345.420	444.822	0.073	0.160
-344.406	124.012	0.111	0.140
-343.391	-200.000	0.007	-0.072
-342.377	-89.504	-0.259	0.076
-341.362	79.088	-0.287	-0.307
-340.348	46.193	-0.379	-0.351
-339.333	135.697	0.031	-0.040
-338.318	800.000	-0.146	0.475
-337.304	-176.746	-0.162	0.004
-336.289	267.749	0.174	-0.304
-335.275	67.480	-0.128	-0.131
-334.260	800.000	0.095	0.307
-333.245	90.225	-0.064	0.071
-332.231	-113.236	-0.135	-0.027
-331.216	-200.000	0.000	-0.137
-330.202	-93.356	-0.040	0.011
-329.187	-125.928	-0.223	-0.033
-328.172	434.352	0.030	0.066
-327.158	443.668	0.084	0.184
-326.143	-7.567	-0.235	0.159
-325.129	532.804	-0.116	0.273
-324.114	-99.213	-0.223	-0.056
-323.099	-200.000	-0.050	-0.363
-322.085	239.825	0.092	0.152
-321.070	-200.000	-0.022	0.118
-320.056	-32.176	0.178	0.099
-319.041	-44.069	-0.243	0.122
-318.026	-18.299	0.141	-0.088
-317.012	406.956	-0.070	0.147
-315.997	-200.000	0.025	-0.114
-314.983	733.488	-0.027	-0.072
-313.968	572.361	0.066	0.161
-312.953	39.489	-0.160	-0.143
-311.939	145.780	-0.066	-0.089
-310.924	-23.311	-0.049	0.029
-309.910	23.931	-0.152	0.125
-308.895	-200.000	0.034	0.423
-307.880	109.189	-0.113	0.135
-306.866	-64.347	-0.213	0.087
-305.851	-5.385	-0.277	0.190
-304.837	800.000	0.132	-0.474
-303.822	562.215	-0.099	0.240
-302.807	21.087	-0.121	0.098
-301.793	-109.444	0.293	0.062
-300.778	-21.695	0.202	0.123
-299.764	-30.240	0.176	-0.100
-298.749	-122.073	0.275	-0.045
-297.735	-200.000	0.018	0.340
-296.720	800.000	0.059	0.229
-295.705	251.586	0.134	-0.228
-294.691	3.860	0.353	0.257
-293.676	-200.000	0.014	-0.066
-292.662	-57.895	0.328	-0.143
-291.647	-111.502	-0.273	0.055
-290.632	132.916	0.164	0.211
-289.618	-200.000	-0.024	0.393
-288.603	-25.376	-0.161	-0.095
-287.589	44.203	0.050	0.046
-286.574	-98.909	-0.156	0.040
-285.559	-200.000	-0.026	0.316
-284.545	-97.368	-0.221	-0.057
-283.530	-99.298	-0.157	0.040
-282.516	642.082	0.047	-0.120
-281.501	-165.676	0.219	-0.009
-280.486	-89.374	-0.129	0.038
-279.472	288.122	0.079	0.143
-278.457	-55.499	-0.334	0.149
-277.443	-0.985	-0.104	-0.073
-276.428	139.222	0.195	-0.256
-275.413	218.299	0.048	0.076
-274.399	-188.789	0.138	-0.002
-273.384	800.000	-0.036	0.116
-272.370	26.299	-0.074	-0.061
-271.355	175.232	-0.027	-0.039
-270.340	-160.185	0.031	-0.002
-269.326	800.000	0.089	0.327
-268.311	161.753	0.062	0.087
-267.297	180.494	0.154	-0.225
-266.282	-200.000	0.035	-0.211
-265.267	10.112	0.113	0.085
-264.253	-16.753	0.013	-0.008
-263.238	364.919	0.057	-0.115
-262.224	71.389	-0.116	0.120
-261.209	-4.422	0.155	0.107
-260.195	330.143	0.010	-0.019
-259.180	51.900	-0.350	-0.332
-258.165	-82.069	0.145	-0.047
-257.151	47.483	0.259	-0.241
-256.136	-55.064	0.159	-0.071
-255.122	-47.963	0.134	-0.065
-254.107	-54.430	0.017	0.008
-253.092	52.738	0.055	0.052
-252.078	50.194	0.240	-0.225
-251.063	225.295	0.137	0.220
-250.049	800.000	0.067	0.284
-249.034	-146.392	-0.293	0.025
-248.019	32.176	-0.058	-0.050
-247.005	168.925	-0.038	0.053
-245.990	-87.645	-0.108	-0.032
-244.976	241.451	0.224	0.373
-243.961	562.635	0.035	-0.084
-242.946	-6.454	0.269	-0.183
-241.932	-200.000	-0.205	0.001
-240.917	179.215	0.197	-0.286
-239.903	-82.481	0.382	0.123
-238.888	572.652	-0.058	0.140
-237.873	281.528	-0.047	-0.083
-236.859	-124.825	-0.160	-0.025
-235.844	667.020	-0.037	-0.096
-234.830	83.677	0.098	-0.107
-233.815	-200.000	-0.016	0.395
-232.800	133.525	0.156	0.200
-231.786	-96.673	0.231	-0.060
-230.771	-66.367	0.093	0.037
-229.757	294.721	0.256	-0.466
-228.742	-200.000	0.072	-0.447
-227.727	123.406	-0.382	0.476
-226.713	-200.000	0.071	0.314
-225.698	399.514	-0.013	0.028
-224.684	43.980	-0.089	0.081
-223.669	-200.000	-0.009	-0.083
-222.655	-114.278	-0.237	0.045
-221.640	800.000	-0.004	0.015
-220.625	-200.000	0.057	-0.315
-219.611	-105.920	0.189	-0.042
-218.596	-117.582	-0.091	-0.016
-217.582	-12.081	-0.016	0.010
-216.567	-91.223	-0.082	0.023
-215.552	103.628	-0.230	0.268
-214.538	0.436	-0.057	0.041
-213.523	26.847	0.154	-0.128
-212.509	82.717	-0.227	-0.245
-211.494	-126.425	0.261	-0.039
-210.479	-103.069	0.209	-0.049
-209.465	-71.350	0.213	0.079
-208.450	-33.379	0.211	-0.116
-207.436	-200.000	-0.019	0.175
-206.421	-67.441	-0.179	0.070
-205.406	-50.067	-0.089	-0.042
-204.392	-90.820	-0.199	-0.057
-203.377	55.129	0.450	-0.432
-202.363	88.833	0.140	0.155
-201.348	800.000	-0.027	-0.078
-200.333	21.522	0.214	0.173
-199.319	14.438	0.117	0.090
-198.304	-93.199	-0.127	-0.035
-197.290	-200.000	-0.023	0.230
-196.275	-158.806	-0.132	0.007
-195.260	-8.202	-0.066	-0.044
-194.246	213.464	-0.176	-0.276
-193.231	-44.978	-0.160	-0.079
-192.217	-123.581	0.240	-0.038
-191.202	417.283	0.055	0.118
-190.187	800.000	-0.088	-0.319
-189.173	-51.494	-0.217	0.101
-188.158	-200.000	-0.031	-0.270
-187.144	-200.000	-0.027	-0.236
-186.129	226.726	0.231	0.372
-185.114	383.024	-0.030	0.061
-184.100	-200.000	-0.019	-0.100
-183.085	-2.778	0.073	-0.051
-182.071	-182.298	0.229	0.004
-181.056	-20.662	-0.120	0.073
-180.042	64.369	-0.059	0.059
-179.027	-59.649	-0.203	0.086
-178.012	-51.382	0.180	-0.084
-176.998	800.000	-0.041	0.165
-175.983	800.000	-0.029	-0.101
-174.969	-164.057	-0.366	-0.017
-173.954	800.000	-0.044	0.164
-172.939	-140.492	-0.460	0.047
-171.925	571.807	0.073	-0.176
-170.910	-200.000	-0.021	0.185
-169.896	-32.134	0.278	-0.154
-168.881	-39.845	-0.011	0.006
-167.866	62.921	-0.024	0.024
-166.852	-200.000	0.014	0.073
-165.837	-63.551	-0.049	0.020
-164.823	28.819	-0.097	0.081
-163.808	-61.397	-0.152	0.063
-162.793	-130.016	0.293	0.040
-161.779	42.033	0.266	-0.239
-160.764	335.282	0.202	-0.387
-159.750	-138.055	0.168	-0.018
-158.735	-89.149	-0.164	0.048
-157.720	-125.471	0.225	-0.034
-156.706	-66.986	-0.376	0.147
-155.691	242.115	-0.010	0.016
-154.677	-154.499	-0.201	0.013
-153.662	-71.504	0.160	-0.059
-152.647	-143.408	-0.065	-0.006
-151.633	-6.600	-0.307	-0.207
-150.618	204.995	-0.036	-0.055
-149.604	91.271	-0.201	0.224
-148.589	286.836	0.056	0.100
-147.574	36.206	-0.049	0.043
-146.560	129.147	0.159	-0.201
-145.545	-200.000	0.031	-0.357
-144.531	46.090	0.141	-0.129
-143.516	165.104	-0.129	0.181
-142.502	800.000	-0.034	0.139
-141.487	-148.560	-0.196	-0.016
-140.472	-200.000	0.071	0.324
-139.458	169.419	-0.122	0.173
-138.443	-200.000	0.012	0.150
-137.429	287.230	0.161	-0.289
-136.414	-200.000	0.142	0.001
-135.399	435.044	0.147	0.317
-134.385	-73.711	-0.191	-0.069
-133.370	-179.117	0.184	-0.004
-132.356	-90.706	-0.237	-0.068
-131.341	43.195	-0.281	0.254
-130.326	14.941	-0.145	0.113
-129.312	-200.000	0.032	-0.170
-128.297	-200.000	-0.060	-0.575
-127.283	-52.066	0.180	-0.083
-126.268	69.943	0.256	0.261
-125.253	800.000	0.083	0.310
-124.239	-200.000	0.044	0.222
-123.224	-102.040	0.100	0.024
-122.210	-200.000	0.033	0.177
-121.195	-200.000	0.039	-0.353
-120.180	800.000	-0.023	0.079
-119.166	270.283	-0.078	0.136
-118.151	491.952	0.123	0.279
-117.137	800.000	-0.007	-0.030
-116.122	107.134	-0.049	-0.058
-115.107	-183.606	0.153	-0.003
-114.093	370.280	-0.129	-0.259
-113.078	-200.000	0.011	-0.121
-112.064	316.130	-0.084	0.157
-111.049	-82.101	-0.106	0.034
-110.034	-30.846	-0.281	0.157
-109.020	83.158	0.123	-0.133
-108.005	-80.360	0.023	0.008
-106.991	708.286	-0.040	-0.104
-105.976	68.989	0.301	-0.306
-104.962	-200.000	0.005	-0.268
-103.947	-103.378	0.203	-0.047
-102.932	486.885	0.123	0.278
-101.918	111.320	-0.053	-0.063
-100.903	-111.949	-0.073	-0.014
-99.889	800.000	-0.067	0.203
-98.874	-141.661	-0.189	0.019
-97.859	345.037	0.081	-0.158
-96.845	283.901	0.141	-0.251
-95.830	-200.000	-0.028	-0.125
-94.816	756.956	-0.044	0.119
-93.801	-200.000	-0.025	0.235
-92.786	-69.426	0.101	0.038
-91.772	-200.000	0.022	0.310
-90.757	-90.083	-0.116	-0.033
-89.743	800.000	-0.077	0.326
-88.728	-123.542	0.233	0.037
-87.713	354.239	0.160	0.314
-86.699	-200.000	0.013	0.298
-85.684	-200.000	0.043	0.238
-84.670	-20.066	-0.246	0.150
-83.655	102.059	0.262	-0.302
-82.640	800.000	0.051	-0.170
-81.626	8.828	0.035	0.026
-80.611	-200.000	0.064	-0.378
-79.597	331.006	-0.113	-0.215
-78.582	155.382	0.020	0.027
-77.567	-66.249	-0.313	0.123
-76.553	-28.637	-0.240	-0.137
-75.538	-200.000	0.022	0.226
-74.524	-69.293	-0.210	0.080
-73.509	-200.000	-0.038	0.206
-72.494	-197.461	-0.156	0.001
-71.480	569.302	-0.090	0.216
-70.465	799.598	0.051	0.139
-69.451	-7.690	0.354	-0.236
-68.436	-39.776	-0.390	-0.202
-67.422	69.978	0.091	-0.093
-66.407	-200.000	-0.060	-0.280
-65.392	3.247	-0.186	-0.134
-64.378	-200.000	0.014	-0.092
-63.363	-200.000	0.007	0.046
-62.349	800.000	-0.085	0.310
-61.334	27.165	-1.229	-1.019
-60.319	-0.791	0.416	0.291
-59.305	800.000	-0.279	-0.869
-58.290	43.978	0.833	0.754
-57.276	676.321	0.549	1.409
-56.261	-200.000	89.497	503.839
-55.246	543.743	1373.029	3236.643
-54.232	185.141	2617.414	3835.697
-53.217	109.902	2344.768	2777.737
-52.203	44.771	1954.523	1775.651
-51.188	39.023	1738.246	1534.367
-50.173	36.236	1693.303	1473.387
-49.159	51.560	1737.976	1631.103
-48.144	55.033	1755.186	1674.043
-47.130	38.794	1714.460	1511.361
-46.115	35.862	1699.195	1475.407
-45.100	35.796	1694.428	1470.709
-44.086	35.647	1691.856	1467.279
-43.071	35.648	1689.511	1465.198
-42.057	35.574	1686.730	1462.164
-41.042	35.683	1684.548	1461.045
-40.027	35.715	1682.701	1459.626
-39.013	35.691	1681.021	1457.930
-37.998	35.557	1679.467	1455.508
-36.984	35.546	1678.221	1454.289
-35.969	35.764	1676.694	1454.553
-34.954	35.796	1675.468	1453.677
-33.940	35.834	1672.864	1451.646
-32.925	35.837	1671.367	1450.309
-31.911	35.805	1669.372	1448.282
-30.896	35.840	1667.666	1447.009
-29.881	35.880	1665.985	1445.788
-28.867	35.775	1664.643	1443.780
-27.852	35.824	1663.214	1442.848
-26.838	35.864	1661.354	1441.478
-25.823	35.809	1660.089	1439.917
-24.809	35.904	1658.729	1439.391
-23.794	35.812	1657.604	1437.669
-22.779	35.830	1655.951	1436.312
-21.765	35.945	1653.760	1435.213
-20.750	35.758	1652.555	1432.713
-19.736	35.916	1650.475	1432.030
-18.721	35.874	1649.590	1430.894
-17.706	35.838	1647.568	1428.812
-16.692	35.862	1646.141	1427.698
-15.677	35.813	1644.767	1426.090
-14.663	35.879	1643.673	1425.569
-13.648	35.867	1642.044	1424.010
-12.633	35.843	1640.671	1422.586
-11.619	35.743	1639.213	1420.526
-10.604	35.866	1637.487	1419.883
-9.590	35.933	1635.510	1418.609
-8.575	35.817	1634.485	1416.809
-7.560	35.852	1633.682	1416.313
-6.546	35.845	1632.137	1414.869
-5.531	35.849	1631.276	1414.095
-4.517	35.871	1629.579	1412.724
-3.502	35.825	1628.893	1411.742
-2.487	35.925	1627.223	1410.970
-1.473	35.945	1615.991	1401.316
-0.458	33.942	1597.009	1370.381
0.556	28.955	1598.365	1341.717
1.571	26.626	1623.633	1345.529
2.586	26.067	1637.404	1352.633
3.600	22.687	1581.609	1281.906
4.615	11.550	1463.326	1110.614
5.629	1.991	1392.534	994.700
6.644	0.334	1383.494	977.412
7.659	0.118	1382.671	975.346
8.673	0.113	1380.929	973.999
9.688	-0.005	1379.259	971.973
10.702	-0.213	1376.035	968.270
11.717	3.382	1384.041	997.111
12.731	14.030	1404.419	1081.305
13.746	21.865	1418.111	1143.017
14.761	23.185	1419.159	1152.359
15.775	23.341	1418.621	1152.838
16.790	23.294	1418.736	1152.520
17.804	23.487	1417.375	1152.571
18.819	23.675	1417.539	1153.822
19.834	23.782	1416.494	1153.565
20.848	23.747	1415.391	1152.338
21.863	23.717	1415.016	1151.737
22.877	23.748	1413.789	1150.837
23.892	23.691	1413.172	1149.865
24.907	23.729	1412.625	1149.564
25.921	23.690	1411.517	1148.310
26.936	23.818	1410.204	1147.962
27.950	23.627	1409.534	1146.084
28.965	23.704	1408.573	1145.700
29.980	23.614	1406.735	1143.522
30.994	23.659	1405.452	1142.668
32.009	23.765	1404.442	1142.426
33.023	23.682	1403.149	1140.742
34.038	23.684	1402.237	1139.910
35.053	23.677	1400.846	1138.636
36.067	23.734	1399.858	1138.093
37.082	23.674	1399.241	1137.108
38.096	23.710	1397.871	1136.128
39.111	23.792	1397.118	1135.935
40.126	23.724	1396.649	1135.018
41.140	23.761	1395.522	1134.240
42.155	23.765	1395.569	1134.203
43.169	23.694	1395.703	1133.759
44.184	23.738	1395.494	1133.773
45.199	23.689	1394.695	1132.709
46.213	23.622	1394.377	1131.922
47.228	23.646	1393.208	1131.026
48.242	23.763	1392.330	1130.961
49.257	23.713	1390.893	1129.371
50.271	23.808	1388.787	1128.166
51.286	23.700	1387.644	1126.450
52.301	23.676	1386.685	1125.420
53.315	23.665	1385.725	1124.477
54.330	23.667	1384.907	1123.721
55.344	23.733	1383.505	1122.905
56.359	23.731	1382.609	1122.063
57.374	23.680	1382.080	1121.214
58.388	23.692	1381.156	1120.443
59.403	23.680	1380.890	1120.048
60.417	23.713	1380.247	1119.637
61.432	23.682	1379.578	1118.801
62.447	23.763	1378.477	1118.318
63.461	23.766	1377.437	1117.396
64.476	23.806	1376.153	1116.508
65.490	23.638	1375.370	1114.715
66.505	23.733	1373.589	1113.773
67.520	23.766	1372.294	1112.830
68.534	23.798	1371.273	1112.103
69.549	23.773	1370.377	1111.119
70.563	23.724	1369.781	1110.234
71.578	23.654	1368.765	1108.875
72.593	23.668	1367.776	1108.062
73.607	23.674	1367.065	1107.428
74.622	23.801	1366.042	1107.287
75.636	23.727	1365.379	1106.195
76.651	23.682	1365.433	1105.858
77.666	23.779	1364.506	1105.611
78.680	23.591	1364.540	1104.376
79.695	23.700	1363.050	1103.745
80.709	23.773	1362.140	1103.365
81.724	23.738	1361.351	1102.416
82.739	23.804	1359.962	1101.600
83.753	23.605	1359.381	1099.799
84.768	23.677	1358.162	1099.158
85.782	23.637	1357.237	1098.065
86.797	23.736	1356.021	1097.596
87.812	23.792	1354.420	1096.550
88.826	23.781	1353.478	1095.625
89.841	23.665	1352.803	1094.267
90.855	23.726	1351.749	1093.694
91.870	23.792	1350.733	1093.178
92.884	23.769	1350.091	1092.420
93.899	23.783	1349.280	1091.753
94.914	23.754	1348.607	1090.933
95.928	23.764	1347.778	1090.230
96.943	23.819	1346.675	1089.579
97.957	23.759	1346.135	1088.677
98.972	23.791	1345.015	1087.869
99.987	23.836	1343.769	1087.040
101.001	23.790	1343.123	1086.139
102.016	23.777	1341.789	1084.890
103.030	23.811	1341.331	1084.627
104.045	23.797	1340.627	1083.876
105.060	23.875	1339.389	1083.257
106.074	23.802	1338.149	1081.713
107.089	23.794	1337.351	1080.924
108.103	23.839	1336.142	1080.123
109.118	23.814	1335.027	1078.975
110.133	23.777	1333.776	1077.642
111.147	23.863	1332.838	1077.316
112.162	23.780	1332.015	1076.049
113.176	23.787	1330.817	1075.031
114.191	23.781	1329.650	1073.952
115.206	23.741	1328.897	1073.012
116.220	23.721	1327.871	1071.967
117.235	23.781	1326.885	1071.438
118.249	23.748	1326.197	1070.587
119.264	23.895	1324.297	1069.847
120.279	23.899	1324.149	1069.654
121.293	23.864	1323.463	1068.797
122.308	23.898	1322.245	1067.920
123.322	23.867	1321.672	1067.178
124.337	23.897	1320.151	1066.032
125.352	23.764	1319.994	1065.015
126.366	23.995	1318.390	1065.009
127.381	23.973	1317.373	1063.965
128.395	23.952	1316.619	1063.135
129.410	23.932	1316.007	1062.426
130.424	23.942	1315.033	1061.605
131.439	23.890	1314.095	1060.447
132.454	23.995	1313.071	1060.149
133.468	23.936	1313.219	1059.827
134.483	23.850	1312.750	1058.841
135.497	23.852	1311.647	1057.870
136.512	23.845	1310.467	1056.781
137.527	23.899	1309.434	1056.175
138.541	23.886	1308.175	1054.988
139.556	23.898	1306.565	1053.670
140.570	23.898	1305.755	1052.920
141.585	23.817	1304.676	1051.480
142.600	23.892	1303.321	1050.740
143.614	23.853	1302.755	1049.958
144.629	23.910	1301.215	1048.964
145.643	23.866	1300.437	1047.979
146.658	23.673	1300.304	1046.644
147.673	23.772	1298.562	1045.735
148.687	23.810	1297.692	1045.163
149.702	23.696	1296.414	1043.370
150.716	23.851	1294.988	1043.041
151.731	23.794	1294.204	1041.986
152.746	23.815	1293.244	1041.238
153.760	23.781	1292.330	1040.213
154.775	23.868	1291.090	1039.630
155.789	23.969	1290.233	1039.439
156.804	23.878	1289.636	1038.336
157.819	23.888	1288.515	1037.401
158.833	23.918	1287.312	1036.512
159.848	23.847	1286.839	1035.627
160.862	23.963	1286.303	1035.780
161.877	23.895	1285.258	1034.454
162.892	23.935	1284.508	1033.990
163.906	23.909	1283.772	1033.153
164.921	23.994	1282.980	1032.919
165.935	23.978	1282.006	1031.952
166.950	23.938	1281.447	1031.177
167.964	23.934	1281.322	1030.963
168.979	23.884	1280.732	1030.106
169.994	23.892	1280.304	1029.721
171.008	23.969	1279.219	1029.197
172.023	24.002	1278.538	1028.753
173.037	24.000	1277.720	1027.989
174.052	24.054	1276.727	1027.414
175.067	24.052	1275.938	1026.677
176.081	23.943	1275.263	1025.415
177.096	23.978	1274.214	1024.678
178.110	24.047	1273.198	1024.168
179.125	23.909	1272.598	1022.804
180.140	24.035	1271.319	1022.409
181.154	23.965	1270.620	1021.351
182.169	23.981	1269.395	1020.368
183.183	23.934	1268.528	1019.315
184.198	24.149	1266.855	1019.110
185.213	24.056	1266.581	1018.267
186.227	23.987	1265.507	1016.917
187.242	24.027	1264.545	1016.283
188.256	24.073	1263.466	1015.591
189.271	24.012	1262.876	1014.677
190.286	24.084	1262.086	1014.364
191.300	24.013	1261.303	1013.241
192.315	24.173	1260.551	1013.459
193.329	23.991	1260.760	1012.500
194.344	24.170	1259.926	1012.758
195.359	24.126	1259.326	1011.934
196.373	24.084	1259.256	1011.554
197.388	24.185	1258.147	1011.145
198.402	23.956	1258.711	1010.205
199.417	23.947	1257.629	1009.198
200.432	24.145	1256.987	1009.717
201.446	24.081	1256.658	1009.000
202.461	24.122	1255.322	1008.073
203.475	24.088	1254.892	1007.443
204.490	23.941	1254.214	1005.981
205.504	24.065	1252.696	1005.375
206.519	24.141	1251.942	1005.108
207.534	24.177	1251.128	1004.570
208.548	24.074	1250.079	1003.060
209.563	24.131	1249.416	1002.755
210.577	24.161	1248.464	1002.072
211.592	24.239	1247.309	1001.494
212.607	24.150	1247.299	1000.898
213.621	24.100	1246.184	999.633
214.636	24.211	1245.606	999.707
215.650	24.262	1244.185	998.761
216.665	24.178	1243.498	997.653
217.680	24.196	1242.366	996.757
218.694	24.162	1241.844	996.061
219.709	24.212	1241.122	995.670
220.723	24.150	1240.673	994.875
221.738	24.158	1240.025	994.314
222.753	24.193	1238.803	993.441
223.767	24.261	1238.108	993.178
224.782	24.288	1238.104	993.234
225.796	24.331	1237.363	992.789
226.811	24.341	1236.546	992.104
227.826	24.291	1236.233	991.485
228.840	24.279	1235.660	990.874
229.855	24.261	1234.649	989.874
230.869	24.346	1233.987	989.729
231.884	24.389	1233.307	989.330
232.899	24.263	1232.854	988.181
233.913	24.216	1231.881	987.055
234.928	24.373	1231.744	987.728
235.942	24.423	1230.899	987.243
236.957	24.402	1230.294	986.548
237.972	24.341	1229.460	985.457
238.986	24.414	1228.689	985.157
240.001	24.476	1228.201	985.022
241.015	24.365	1227.479	983.741
242.030	24.459	1226.949	983.750
243.045	24.593	1225.824	983.496
244.059	24.451	1225.207	982.135
245.074	24.470	1224.133	981.289
246.088	24.577	1223.189	981.036
247.103	24.515	1222.477	980.034
248.117	24.535	1221.649	979.397
249.132	24.435	1221.406	978.563
250.147	24.542	1220.755	978.544
251.161	24.528	1219.604	977.457
252.176	24.475	1219.268	976.812
253.190	24.479	1218.851	976.411
254.205	24.471	1218.134	975.709
255.220	24.547	1217.442	975.482
256.234	24.634	1216.752	975.319
257.249	24.581	1215.933	974.288
258.263	24.553	1215.406	973.628
259.278	24.565	1214.844	973.155
260.293	24.668	1214.411	973.284
261.307	24.593	1213.935	972.407
262.322	24.652	1213.121	971.988
263.336	24.641	1212.351	971.226
264.351	24.597	1211.949	970.582
265.366	24.530	1211.510	969.781
266.380	24.593	1210.230	969.010
267.395	24.603	1209.904	968.717
268.409	24.662	1208.946	968.186
269.424	24.613	1208.627	967.576
270.439	24.620	1208.233	967.213
271.453	24.610	1207.358	966.374
272.468	24.541	1206.512	965.241
273.482	24.674	1205.596	965.140
274.497	24.602	1205.802	964.831
275.512	24.662	1205.031	964.449
276.526	24.711	1203.947	963.760
277.541	24.688	1203.510	963.202
278.555	24.756	1202.967	963.049
279.570	24.835	1201.707	962.381
280.585	24.759	1201.512	961.728
281.599	24.766	1200.542	960.909
282.614	24.774	1199.173	959.766
283.628	24.893	1198.491	959.774
284.643	24.817	1197.938	958.841
285.657	24.834	1196.973	958.077
286.672	24.780	1196.319	957.180
287.687	24.765	1195.498	956.353
288.701	24.866	1194.717	956.186
289.716	24.842	1193.972	955.374
290.730	24.787	1193.836	954.891
291.745	24.937	1192.601	954.616
292.760	24.717	1192.628	953.383
293.774	24.833	1191.725	953.193
294.789	24.874	1191.248	952.944
295.803	24.899	1190.391	952.310
296.818	24.910	1189.743	951.767
297.833	24.893	1189.060	951.043
298.847	24.932	1188.565	950.773
299.862	24.937	1187.816	950.116
300.876	24.952	1186.942	949.410
301.891	24.949	1186.431	948.901
302.906	25.067	1185.525	948.718
303.920	25.097	1184.961	948.342
304.935	25.073	1184.434	947.706
305.949	24.966	1183.755	946.515
306.964	25.005	1183.040	946.065
307.979	25.086	1182.643	946.092
308.993	25.041	1181.851	945.137
310.008	25.102	1181.198	944.855
311.022	25.104	1180.300	944.061
312.037	25.130	1179.561	943.528
313.052	25.194	1178.568	942.985
314.066	25.084	1177.601	941.546
315.081	24.913	1177.531	940.509
316.095	25.095	1176.643	940.672
317.110	25.035	1176.384	940.070
318.125	25.177	1175.273	939.839
319.139	25.081	1174.550	938.679
320.154	25.138	1174.006	938.458
321.168	25.066	1173.501	937.593
322.183	25.087	1172.934	937.171
323.197	25.095	1172.127	936.481
324.212	25.118	1171.587	936.089
325.227	25.160	1170.940	935.709
326.241	25.214	1170.845	935.830
327.256	25.243	1170.117	935.317
328.270	25.266	1168.893	934.376
329.285	25.223	1168.547	933.790
330.300	25.119	1167.647	932.450
331.314	25.210	1167.003	932.327
332.329	25.277	1165.918	931.727
333.343	25.367	1165.321	931.632
334.358	25.193	1164.583	930.060
335.373	25.282	1163.675	929.710
336.387	25.287	1162.912	929.044
337.402	25.421	1161.639	928.636
338.416	25.291	1161.912	928.104
339.431	25.379	1160.909	927.674
340.446	25.261	1160.356	926.538
341.460	25.325	1159.913	926.437
342.475	25.373	1159.213	926.041
343.489	25.351	1158.547	925.312
344.504	25.527	1157.082	924.970
345.519	25.359	1156.421	923.494
346.533	25.293	1155.857	922.624
347.548	25.410	1155.249	922.655
348.562	25.403	1154.470	921.916
349.577	25.462	1153.700	921.523
350.592	25.340	1152.560	919.906
351.606	25.362	1152.061	919.541
352.621	25.405	1151.543	919.265
353.635	25.506	1150.766	919.079
354.650	25.494	1150.363	918.616
355.665	25.492	1149.443	917.789
356.679	25.544	1149.342	917.892
357.694	25.569	1148.402	917.187
358.708	25.526	1147.687	916.318
359.723	25.486	1147.034	915.512
360.738	25.535	1146.011	914.861
361.752	25.675	1145.656	915.210
362.767	25.566	1145.027	914.072
363.781	25.746	1144.515	914.499
364.796	25.564	1144.256	913.286
365.810	25.613	1143.442	912.805
366.825	25.619	1142.976	912.383
367.840	25.742	1142.275	912.365
368.854	25.627	1142.038	911.513
369.869	25.705	1140.769	910.810
370.883	25.612	1140.395	909.963
371.898	25.659	1139.713	909.575
372.913	25.811	1138.544	909.331
373.927	25.805	1138.569	909.241
374.942	25.810	1137.948	908.685
375.956	25.611	1137.708	907.409
376.971	25.748	1137.218	907.633
377.986	25.703	1136.740	906.945
379.000	25.787	1135.729	906.477
380.015	25.800	1135.359	906.167
381.029	25.773	1134.624	905.367
382.044	25.779	1134.036	904.849
383.059	25.838	1133.408	904.562
384.073	25.937	1132.251	904.055
385.088	25.776	1131.720	902.741
386.102	25.822	1130.745	902.116
387.117	25.977	1129.512	901.830
388.132	25.856	1129.126	900.838
389.146	25.925	1128.351	900.483
390.161	25.848	1127.812	899.586
391.175	25.910	1127.337	899.440
392.190	25.876	1126.577	898.582
393.205	25.976	1125.884	898.451
394.219	25.905	1124.853	897.191
395.234	26.037	1124.371	897.388
396.248	25.909	1123.267	895.789
397.263	26.045	1122.293	895.609
398.278	26.109	1121.663	895.345
399.292	26.073	1121.334	894.822
400.307	26.041	1120.953	894.285
401.321	26.038	1120.055	893.474
402.336	25.990	1119.414	892.646
403.350	26.093	1118.687	892.493
404.365	26.178	1118.027	892.309
405.380	26.076	1117.516	891.316
406.394	25.953	1116.761	890.031
407.409	26.181	1115.731	890.254
408.423	26.108	1115.017	889.249
409.438	26.242	1114.003	889.017
410.453	26.271	1113.314	888.532
411.467	26.283	1112.770	888.078
412.482	26.137	1112.346	886.946
413.496	26.139	1111.695	886.358
414.511	26.265	1110.981	886.327
415.526	26.225	1110.552	885.713
416.540	26.197	1110.225	885.233
417.555	26.172	1109.973	884.831
418.569	26.197	1109.334	884.367
419.584	26.326	1108.529	884.281
420.599	26.292	1108.479	883.993
421.613	144.275	1404.528	1789.084
422.628	133.971	1447.640	1789.185
