DTS Sentinel unit serial number:	SN413079Multiplexer serial number:	ORYXHardware model number:	OX4-SRSoftware version number:	ORYX F/W v4.00 Oryx Data Collector v3.7.2.0data status	okinstallation	princeton_trtdifferential loss correction	single-endedforward channel	channel 2reverse channel	N/Adate	2019/09/10time	18:33:10forward acquisition time	60.00reverse acquisition time	0.00gamma	496.2192k internal	0.2320k external	0.2320temperature offset calibration	0.9938default loss term (dB/km)	0.3790temperature slope calibration	1.0000multiplexer offset coefficient	1.0000multiplexer slope coefficient	1.0000fibre end	0.00T internal ref (°C)	35.73T ext. ref 1 (°C)	-0.37T ext. ref 2 (°C)	27.87length (m)	temperature (°C)	Stokes	anti-Stokes-747.200	-39.206	0.121	0.064
-746.185	65.714	-0.285	0.292
-745.171	-41.034	0.445	-0.233
-744.156	-114.397	-0.213	0.041
-743.142	-200.000	0.000	-0.331
-742.127	-148.314	0.324	0.027
-741.112	-13.229	-0.027	-0.018
-740.098	-200.000	0.039	0.446
-739.083	245.138	-0.063	-0.108
-738.069	-48.240	-0.333	0.162
-737.054	4.611	0.374	-0.278
-736.039	800.000	0.079	0.226
-735.025	-200.000	0.013	0.124
-734.010	-126.537	-0.457	-0.069
-732.996	-62.203	-0.324	-0.137
-731.981	-59.357	0.399	-0.174
-730.966	-200.000	-0.037	0.184
-729.952	800.000	0.022	-0.065
-728.937	253.951	0.044	-0.076
-727.923	286.972	0.107	0.196
-726.908	191.138	-0.022	0.033
-725.894	54.983	0.128	-0.125
-724.879	-200.000	-0.034	0.401
-723.864	-19.290	-0.249	0.156
-722.850	-109.740	0.129	0.027
-721.835	-16.627	0.056	0.036
-720.821	137.772	-0.106	0.140
-719.806	-140.367	-0.204	-0.022
-718.791	393.271	0.142	0.297
-717.777	800.000	-0.230	0.725
-716.762	248.343	-0.031	-0.052
-715.748	-70.632	-0.085	0.032
-714.733	-200.000	0.062	0.325
-713.718	-136.443	-0.329	-0.039
-712.704	-95.495	-0.333	0.090
-711.689	-200.000	-0.013	-0.139
-710.675	116.958	-0.115	0.143
-709.660	450.045	-0.059	0.131
-708.645	243.715	0.116	-0.197
-707.631	-200.000	0.009	-0.148
-706.616	800.000	-0.046	-0.182
-705.602	-200.000	0.022	-0.178
-704.587	800.000	0.056	-0.229
-703.572	800.000	0.074	0.256
-702.558	800.000	-0.106	-0.297
-701.543	116.686	0.026	-0.032
-700.529	626.873	-0.051	-0.129
-699.514	-60.393	0.109	-0.047
-698.499	-200.000	0.077	-0.351
-697.485	-107.963	0.129	0.028
-696.470	379.332	0.126	-0.261
-695.456	-69.323	0.234	0.091
-694.441	163.102	-0.098	-0.139
-693.426	-28.060	0.303	0.177
-692.412	-200.000	-0.069	-0.436
-691.397	7.356	0.191	-0.144
-690.383	476.880	-0.127	-0.291
-689.368	-179.080	-0.293	0.007
-688.354	654.021	0.061	0.157
-687.339	323.419	-0.172	-0.330
-686.324	504.625	0.058	0.137
-685.310	-200.000	0.028	-0.314
-684.295	-200.000	0.325	0.000
-683.281	-200.000	-0.003	-0.209
-682.266	42.019	0.033	-0.030
-681.251	707.684	0.040	0.108
-680.237	800.000	-0.049	0.178
-679.222	134.494	0.087	-0.113
-678.208	-132.351	-0.145	-0.019
-677.193	689.067	-0.040	-0.107
-676.178	461.428	0.186	-0.419
-675.164	150.946	0.229	0.315
-674.149	0.698	0.199	-0.143
-673.135	800.000	-0.132	-0.371
-672.120	-200.000	-0.071	-0.377
-671.105	-81.903	0.205	0.068
-670.091	-30.548	0.222	-0.127
-669.076	170.484	-0.149	0.215
-668.062	-200.000	0.004	-0.065
-667.047	218.329	-0.127	-0.204
-666.032	-90.939	0.130	0.038
-665.018	-120.738	0.130	-0.022
-664.003	588.624	-0.088	-0.219
-662.989	-84.731	0.234	0.074
-661.974	-200.000	-0.013	-0.195
-660.959	-200.000	-0.016	-0.271
-659.945	-37.588	-0.346	0.186
-658.930	555.624	0.165	0.401
-657.916	69.976	0.204	0.212
-656.901	343.354	0.053	-0.105
-655.886	2.261	-0.179	0.130
-654.872	-119.468	-0.076	0.013
-653.857	-132.850	-0.152	0.020
-652.843	-200.000	-0.000	-0.369
-651.828	-170.534	-0.041	0.001
-650.814	103.459	0.070	0.083
-649.799	-19.862	-0.239	-0.149
-648.784	167.289	0.058	-0.083
-647.770	-35.025	0.097	-0.053
-646.755	412.368	-0.041	0.087
-645.741	636.133	-0.015	0.038
-644.726	-54.354	0.073	-0.033
-643.711	-22.229	0.205	-0.125
-642.697	800.000	0.066	-0.214
-641.682	-200.000	0.087	0.475
-640.668	-200.000	0.004	0.264
-639.653	44.042	-0.183	0.169
-638.638	-200.000	0.023	-0.111
-637.624	800.000	0.065	0.269
-636.609	621.978	-0.095	0.242
-635.595	-19.865	0.185	0.115
-634.580	387.855	-0.222	0.463
-633.565	-135.772	-0.377	0.045
-632.551	-163.975	-0.338	0.016
-631.536	123.308	-0.265	0.334
-630.522	174.457	0.175	0.254
-629.507	142.830	-0.043	-0.058
-628.492	57.467	-0.275	-0.271
-627.478	-92.684	-0.138	-0.039
-626.463	114.373	0.026	0.032
-625.449	-68.201	-0.110	-0.043
-624.434	363.535	-0.061	0.123
-623.419	-92.173	-0.272	0.077
-622.405	5.524	0.056	0.041
-621.390	394.098	-0.116	-0.243
-620.376	218.393	-0.075	-0.120
-619.361	14.947	-0.201	-0.158
-618.346	-60.343	-0.131	0.056
-617.332	-151.634	0.390	-0.029
-616.317	-121.983	-0.098	0.016
-615.303	281.562	-0.150	0.270
-614.288	-135.421	0.322	0.039
-613.273	-200.000	-0.029	-0.176
-612.259	342.419	-0.145	-0.285
-611.244	745.617	-0.106	-0.286
-610.230	55.497	0.208	-0.202
-609.215	-138.281	0.237	0.026
-608.201	-200.000	0.240	-0.001
-607.186	-12.873	-0.269	0.176
-606.171	-200.000	-0.006	0.271
-605.157	593.168	-0.079	-0.196
-604.142	-38.762	0.155	-0.082
-603.128	-10.646	-0.172	-0.114
-602.113	-200.000	-0.015	0.173
-601.098	-200.000	-0.015	0.092
-600.084	688.102	-0.066	-0.173
-599.069	-200.000	-0.055	-0.509
-598.055	-106.122	-0.288	0.065
-597.040	-200.000	-0.025	0.281
-596.025	602.076	-0.077	-0.193
-595.011	16.665	0.163	-0.129
-593.996	800.000	0.056	0.217
-592.982	-92.487	-0.130	0.037
-591.967	50.636	-0.056	-0.053
-590.952	75.928	0.237	0.252
-589.938	800.000	0.035	-0.108
-588.923	308.028	0.018	0.033
-587.909	-130.676	-0.288	0.039
-586.894	800.000	0.164	0.533
-585.879	326.764	0.197	0.378
-584.865	213.228	-0.156	-0.248
-583.850	159.298	-0.247	-0.345
-582.836	-22.973	0.159	0.096
-581.821	-200.000	0.009	0.265
-580.806	90.020	-0.189	-0.213
-579.792	-200.000	-0.011	0.147
-578.777	-109.726	0.263	-0.056
-577.763	124.743	0.169	-0.214
-576.748	717.621	-0.080	-0.214
-575.733	-128.668	-0.293	0.042
-574.719	22.683	0.127	0.104
-573.704	-200.000	0.100	-0.456
-572.690	800.000	-0.043	-0.152
-571.675	-19.808	-0.074	0.046
-570.661	240.876	0.043	-0.071
-569.646	391.846	0.089	0.186
-568.631	107.912	0.192	0.230
-567.617	81.693	0.277	-0.301
-566.602	800.000	-0.043	-0.123
-565.588	201.243	-0.133	-0.205
-564.573	-99.826	-0.174	-0.044
-563.558	-126.858	0.079	0.012
-562.544	-96.434	-0.497	0.132
-561.529	194.932	-0.032	0.049
-560.515	800.000	-0.110	0.321
-559.500	537.663	0.117	-0.278
-558.485	148.986	0.121	-0.164
-557.471	13.213	0.153	-0.119
-556.456	-66.533	0.170	-0.068
-555.442	-139.793	0.308	-0.033
-554.427	-39.524	0.117	-0.061
-553.412	800.000	0.050	0.140
-552.398	171.088	0.162	-0.232
-551.383	11.700	-0.358	-0.275
-550.369	124.208	0.164	0.207
-549.354	3.216	-0.290	0.212
-548.339	121.003	-0.204	0.254
-547.325	800.000	-0.060	0.209
-546.310	-88.013	0.278	-0.084
-545.296	800.000	-0.096	-0.302
-544.281	159.560	-0.142	-0.198
-543.266	800.000	-0.065	0.279
-542.252	-144.768	0.094	-0.009
-541.237	-200.000	0.039	-0.176
-540.223	-200.000	0.007	-0.227
-539.208	-200.000	0.031	-0.201
-538.193	124.322	0.041	-0.052
-537.179	375.373	-0.011	0.022
-536.164	800.000	-0.015	0.057
-535.150	219.405	0.233	-0.374
-534.135	195.375	0.242	-0.368
-533.121	-68.273	0.355	-0.138
-532.106	-110.796	-0.042	0.009
-531.091	247.171	0.124	-0.209
-530.077	-49.687	-0.205	-0.098
-529.062	50.821	-0.106	0.101
-528.048	-200.000	0.019	0.108
-527.033	1.229	-0.124	0.089
-526.018	554.493	-0.018	0.044
-525.004	-137.502	-0.160	-0.018
-523.989	-60.222	0.104	0.044
-522.975	-82.339	-0.140	0.046
-521.960	-135.432	-0.500	-0.060
-520.945	11.536	-0.133	-0.103
-519.931	-62.474	-0.098	0.041
-518.916	30.790	-0.186	-0.160
-517.902	86.136	0.173	0.191
-516.887	-101.043	0.283	-0.069
-515.872	133.507	-0.222	-0.288
-514.858	-200.000	0.027	-0.236
-513.843	-107.821	-0.215	0.047
-512.829	654.309	0.083	-0.212
-511.814	-200.000	-0.037	0.179
-510.799	-92.942	-0.031	0.009
-509.785	122.854	-0.239	-0.299
-508.770	-114.784	0.299	0.057
-507.756	-56.012	0.261	0.117
-506.741	3.205	-0.201	-0.147
-505.726	-142.911	0.056	0.005
-504.712	-57.642	0.231	-0.101
-503.697	-75.922	-0.143	-0.051
-502.683	-200.000	-0.063	-0.306
-501.668	-200.000	-0.012	-0.105
-500.653	-200.000	0.075	-0.473
-499.639	-200.000	-0.060	0.387
-498.624	-200.000	0.042	0.187
-497.610	71.652	-0.205	0.213
-496.595	-133.856	0.327	0.041
-495.581	-200.000	-0.004	0.147
-494.566	-50.065	-0.162	-0.077
-493.551	800.000	-0.085	0.304
-492.537	-132.624	-0.328	-0.042
-491.522	102.239	-0.200	-0.234
-490.508	800.000	0.014	0.049
-489.493	-9.841	0.171	0.114
-488.478	-140.480	-0.045	0.005
-487.464	52.958	0.094	-0.090
-486.449	50.910	-0.394	0.374
-485.435	-200.000	0.050	0.344
-484.420	-200.000	0.040	-0.442
-483.405	532.719	0.125	-0.297
-482.391	-20.562	0.354	0.217
-481.376	800.000	0.034	-0.145
-480.362	576.775	-0.069	-0.169
-479.347	1.974	-0.162	0.117
-478.332	-96.601	-0.045	0.012
-477.318	800.000	0.037	-0.110
-476.303	-31.770	-0.288	0.162
-475.289	-80.903	-0.057	0.019
-474.274	57.368	0.300	-0.293
-473.259	153.181	-0.133	-0.181
-472.245	-200.000	-0.005	0.069
-471.230	800.000	-0.104	-0.365
-470.216	-87.585	0.158	0.048
-469.201	-45.314	0.185	0.092
-468.186	618.132	0.023	0.059
-467.172	624.839	-0.132	-0.332
-466.157	-200.000	-0.012	-0.052
-465.143	-73.994	0.260	0.094
-464.128	289.662	-0.121	-0.219
-463.113	627.135	0.099	-0.251
-462.099	-121.306	-0.191	-0.032
-461.084	-200.000	-0.055	-0.353
-460.070	-200.000	-0.001	0.200
-459.055	88.384	-0.063	-0.069
-458.040	-87.012	-0.267	0.081
-457.026	800.000	0.050	-0.200
-456.011	12.609	-0.341	0.263
-454.997	-53.541	0.267	0.122
-453.982	-200.000	0.007	0.092
-452.968	-175.735	0.223	-0.006
-451.953	-97.197	-0.346	0.090
-450.938	84.710	0.170	0.186
-449.924	109.410	-0.068	0.081
-448.909	-200.000	0.012	-0.157
-447.895	800.000	0.033	-0.097
-446.880	247.456	-0.086	0.144
-445.865	-137.798	-0.283	0.032
-444.851	-61.457	0.036	-0.015
-443.836	16.421	0.219	0.173
-442.822	188.760	-0.217	-0.324
-441.807	-49.009	-0.134	-0.064
-440.792	800.000	-0.070	0.239
-439.778	800.000	-0.060	-0.188
-438.763	-104.144	0.350	-0.081
-437.749	-95.531	-0.213	0.057
-436.734	21.358	0.138	-0.112
-435.719	-200.000	-0.002	0.082
-434.705	-127.779	0.159	0.023
-433.690	317.882	0.039	0.074
-432.676	-91.822	0.158	-0.045
-431.661	-3.298	0.206	0.143
-430.646	-84.140	0.052	0.016
-429.632	133.382	-0.139	0.180
-428.617	309.738	-0.145	0.270
-427.603	-200.000	0.047	0.379
-426.588	122.280	-0.066	-0.082
-425.573	-58.573	0.104	-0.045
-424.559	33.036	-0.126	0.109
-423.544	156.509	-0.191	-0.263
-422.530	461.668	-0.167	-0.371
-421.515	-38.856	0.116	0.061
-420.500	-48.402	0.219	-0.105
-419.486	-200.000	-0.051	0.275
-418.471	121.354	0.263	-0.327
-417.457	800.000	0.028	0.078
-416.442	23.039	-0.086	-0.070
-415.428	-50.822	0.217	-0.102
-414.413	-196.977	0.145	-0.001
-413.398	-200.000	-0.008	0.313
-412.384	-200.000	-0.022	-0.162
-411.369	35.951	0.218	-0.191
-410.355	-200.000	0.057	-0.431
-409.340	83.658	0.231	0.251
-408.325	-200.000	-0.012	-0.076
-407.311	-200.000	0.016	-0.248
-406.296	-61.317	0.173	-0.073
-405.282	417.725	0.029	-0.062
-404.267	-102.449	0.353	-0.084
-403.252	-200.000	-0.008	0.050
-402.238	-42.561	0.327	0.166
-401.223	-52.991	-0.114	-0.052
-400.209	227.867	-0.074	-0.120
-399.194	74.713	0.025	0.026
-398.179	-200.000	-0.021	0.106
-397.165	-101.545	-0.258	-0.062
-396.150	-104.806	0.163	-0.037
-395.136	-123.248	-0.081	-0.013
-394.121	-193.575	-0.185	0.002
-393.106	-72.265	-0.072	-0.026
-392.092	175.052	0.105	0.152
-391.077	-131.547	-0.181	0.024
-390.063	800.000	0.080	0.222
-389.048	-200.000	-0.042	-0.236
-388.033	18.291	-0.176	0.140
-387.019	-5.018	0.333	0.228
-386.004	-89.574	0.228	-0.067
-384.990	234.265	0.173	-0.285
-383.975	-110.314	0.236	0.049
-382.960	800.000	-0.074	0.312
-381.946	775.075	-0.034	0.092
-380.931	800.000	0.055	0.158
-379.917	768.096	-0.067	0.181
-378.902	321.562	0.127	-0.241
-377.888	-86.535	-0.175	-0.054
-376.873	153.742	-0.039	0.053
-375.858	-117.257	-0.341	-0.062
-374.844	-135.118	0.049	-0.006
-373.829	2.014	0.265	-0.191
-372.815	76.218	-0.199	-0.210
-371.800	-133.258	-0.239	-0.030
-370.785	25.329	-0.269	0.223
-369.771	-34.356	0.122	-0.067
-368.756	330.379	0.184	-0.353
-367.742	7.192	0.145	-0.108
-366.727	108.264	-0.110	0.131
-365.712	800.000	-0.081	0.291
-364.698	-120.995	0.235	0.039
-363.683	213.971	-0.051	-0.081
-362.669	800.000	0.057	-0.236
-361.654	-200.000	-0.002	-0.146
-360.639	-53.712	-0.030	0.014
-359.625	800.000	0.080	0.284
-358.610	438.633	0.185	0.402
-357.596	154.814	-0.211	-0.289
-356.581	-40.602	0.230	-0.119
-355.566	800.000	0.073	0.293
-354.552	-135.409	0.056	0.007
-353.537	-150.997	0.264	0.020
-352.523	-200.000	-0.006	0.104
-351.508	39.582	-0.206	-0.184
-350.493	344.558	-0.060	0.117
-349.479	106.234	0.175	-0.207
-348.464	-84.960	-0.220	0.069
-347.450	800.000	-0.090	0.330
-346.435	-100.103	0.352	-0.087
-345.420	-200.000	0.091	0.405
-344.406	-27.899	0.005	-0.003
-343.391	-42.384	-0.320	-0.163
-342.377	-178.021	0.173	0.004
-341.362	-200.000	0.047	-0.316
-340.348	201.795	0.172	-0.264
-339.333	17.689	-0.142	0.112
-338.318	89.693	0.213	-0.237
-337.304	117.424	-0.036	0.044
-336.289	118.965	-0.137	-0.168
-335.275	-200.000	-0.034	-0.271
-334.260	269.104	-0.101	0.177
-333.245	-2.485	-0.131	0.091
-332.231	41.388	-0.226	-0.203
-331.216	-200.000	-0.066	0.344
-330.202	76.402	0.097	0.102
-329.187	-147.236	0.417	-0.035
-328.172	-71.937	0.064	0.024
-327.158	398.057	-0.205	-0.426
-326.143	-26.023	0.206	-0.120
-325.129	14.848	-0.101	0.079
-324.114	177.337	0.084	-0.121
-323.099	38.850	-0.157	-0.140
-322.085	800.000	0.072	-0.272
-321.070	-121.473	-0.259	-0.043
-320.056	-200.000	-0.019	0.204
-319.041	-200.000	0.001	0.280
-318.026	-42.714	-0.026	-0.013
-317.012	-178.094	-0.065	-0.002
-315.997	290.590	0.204	0.368
-314.983	-56.724	0.276	0.122
-313.968	-85.473	0.047	0.014
-312.953	800.000	0.063	-0.178
-311.939	260.717	-0.202	-0.347
-310.924	-6.767	-0.018	-0.012
-309.910	-200.000	0.004	-0.034
-308.895	66.475	-0.170	0.172
-307.880	104.305	-0.108	0.127
-306.866	101.379	0.235	0.272
-305.851	-3.599	-0.105	-0.073
-304.837	-200.000	-0.013	0.193
-303.822	679.165	0.030	0.077
-302.807	-200.000	0.012	-0.223
-301.793	-200.000	-0.004	0.167
-300.778	-186.342	-0.266	0.004
-299.764	800.000	-0.087	-0.301
-298.749	-200.000	-0.030	-0.216
-297.735	-200.000	-0.033	0.196
-296.720	800.000	-0.027	-0.084
-295.705	32.703	0.289	0.248
-294.691	-55.221	0.124	-0.056
-293.676	-145.461	-0.074	-0.007
-292.662	2.054	-0.104	-0.075
-291.647	-56.518	0.115	0.051
-290.632	-200.000	-0.012	-0.103
-289.618	-153.243	0.232	-0.016
-288.603	-200.000	0.001	0.167
-287.589	-55.702	-0.165	-0.073
-286.574	-200.000	-0.071	0.348
-285.559	4.370	-0.353	-0.257
-284.545	-69.760	0.114	0.043
-283.530	-200.000	0.178	0.001
-282.516	645.557	-0.101	-0.256
-281.501	-89.670	-0.226	0.066
-280.486	-200.000	-0.054	-0.253
-279.472	-76.366	-0.108	0.038
-278.457	175.571	-0.013	0.019
-277.443	-64.776	-0.231	0.093
-276.428	-111.549	0.405	-0.082
-275.413	-139.663	0.304	-0.032
-274.399	-32.534	-0.219	0.121
-273.384	-200.000	-0.080	0.368
-272.370	-188.673	0.360	0.004
-271.355	-90.226	-0.202	-0.058
-270.340	800.000	-0.034	0.098
-269.326	800.000	0.064	0.207
-268.311	-1.484	-0.139	0.097
-267.297	417.917	0.019	-0.041
-266.282	-200.000	-0.020	0.419
-265.267	-102.062	-0.147	0.035
-264.253	-114.228	0.258	0.049
-263.238	-100.952	-0.304	-0.074
-262.224	-200.000	-0.012	-0.151
-261.209	499.545	-0.066	0.152
-260.195	38.721	-0.238	-0.210
-259.180	800.000	0.067	-0.287
-258.165	20.213	-0.231	-0.185
-257.151	163.257	0.119	-0.166
-256.136	300.340	0.127	0.232
-255.122	-152.058	-0.355	0.026
-254.107	-200.000	-0.027	0.354
-253.092	-41.460	-0.204	0.104
-252.078	419.003	0.218	-0.462
-251.063	-16.449	-0.169	-0.106
-250.049	261.495	-0.117	0.200
-249.034	51.928	0.228	-0.216
-248.019	14.096	0.197	0.152
-247.005	-29.729	0.096	-0.054
-245.990	-168.855	-0.197	0.007
-244.976	90.797	0.075	0.083
-243.961	-200.000	-0.001	0.036
-242.946	-35.366	0.255	0.137
-241.932	-130.614	-0.175	0.023
-240.917	-200.000	-0.016	0.275
-239.903	-21.928	0.184	-0.111
-238.888	-88.513	0.376	0.111
-237.873	106.425	-0.023	-0.026
-236.859	-114.190	0.028	0.005
-235.844	-200.000	-0.049	0.397
-234.830	-136.735	0.288	0.033
-233.815	800.000	-0.094	-0.354
-232.800	26.125	0.182	0.150
-231.786	800.000	-0.070	0.245
-230.771	-48.138	0.128	0.061
-229.757	800.000	0.059	0.214
-228.742	-74.211	0.228	0.082
-227.727	800.000	-0.030	0.124
-226.713	45.693	-0.355	0.325
-225.698	-17.165	0.043	-0.027
-224.684	-200.000	0.021	0.200
-223.669	16.102	-0.219	0.171
-222.655	-200.000	-0.024	-0.184
-221.640	-111.965	-0.441	0.088
-220.625	101.005	0.054	0.062
-219.611	-200.000	-0.061	-0.435
-218.596	125.333	0.165	-0.207
-217.582	-170.054	-0.024	0.001
-216.567	-77.605	-0.246	-0.084
-215.552	309.459	-0.024	0.044
-214.538	-3.870	0.165	-0.113
-213.523	203.195	0.193	0.295
-212.509	177.411	-0.106	-0.153
-211.494	32.621	-0.087	0.074
-210.479	20.223	-0.091	-0.073
-209.465	0.726	0.142	0.100
-208.450	-49.348	-0.349	0.165
-207.436	800.000	0.033	0.134
-206.421	110.646	0.132	0.157
-205.406	-63.596	0.263	0.107
-204.392	-123.995	-0.156	0.024
-203.377	-85.321	0.325	-0.100
-202.363	-200.000	0.082	0.482
-201.348	-200.000	0.052	-0.287
-200.333	-110.519	-0.359	-0.074
-199.319	125.819	0.077	0.096
-198.304	-200.000	0.029	0.267
-197.290	160.920	0.093	-0.128
-196.275	800.000	0.077	-0.242
-195.260	-50.904	-0.378	0.176
-194.246	800.000	0.172	0.492
-193.231	-200.000	-0.031	0.214
-192.217	800.000	0.074	0.300
-191.202	-109.523	0.180	0.038
-190.187	147.880	0.046	0.062
-189.173	-200.000	-0.055	0.468
-188.158	86.137	0.075	0.082
-187.144	-69.470	0.337	0.128
-186.129	140.549	0.171	-0.224
-185.114	800.000	-0.092	0.380
-184.100	27.812	0.103	0.086
-183.085	-200.000	0.043	0.224
-182.071	676.315	0.042	0.108
-181.056	-198.482	-0.176	0.001
-180.042	40.229	-0.300	-0.267
-179.027	-31.446	-0.197	-0.109
-178.012	-2.279	-0.041	0.029
-176.998	800.000	-0.096	-0.368
-175.983	-38.791	-0.099	0.052
-174.969	-76.436	0.347	0.121
-173.954	-131.331	0.092	-0.012
-172.939	800.000	0.047	0.153
-171.925	800.000	0.095	-0.316
-170.910	-42.523	-0.136	-0.068
-169.896	89.264	-0.163	-0.180
-168.881	-74.109	0.162	-0.058
-167.866	170.374	0.202	-0.286
-166.852	134.827	-0.052	-0.066
-165.837	-62.833	-0.287	0.117
-164.823	-128.259	0.215	-0.030
-163.808	156.217	0.259	0.353
-162.793	0.806	0.292	-0.206
-161.779	800.000	0.043	0.139
-160.764	-36.375	0.154	-0.082
-159.750	-136.974	-0.107	-0.012
-158.735	-58.262	-0.178	-0.077
-157.720	-17.287	0.277	-0.173
-156.706	1.248	-0.181	-0.128
-155.691	-200.000	0.004	-0.131
-154.677	65.352	0.144	0.144
-153.662	-36.887	-0.052	-0.028
-152.647	800.000	-0.039	-0.116
-151.633	-80.695	0.426	0.140
-150.618	800.000	0.156	0.495
-149.604	-137.945	-0.103	-0.011
-148.589	800.000	-0.071	0.259
-147.574	800.000	0.083	0.336
-146.560	-73.595	0.177	0.064
-145.545	94.001	0.072	0.081
-144.531	800.000	0.023	-0.064
-143.516	-145.875	0.190	0.017
-142.502	-59.938	-0.107	0.045
-141.487	-200.000	0.078	-0.433
-140.472	-200.000	-0.013	-0.074
-139.458	-158.860	-0.118	0.007
-138.443	-115.782	0.421	0.078
-137.429	46.217	0.209	-0.191
-136.414	800.000	-0.125	-0.374
-135.399	-39.566	0.196	0.102
-134.385	337.245	-0.078	0.150
-133.370	-89.769	-0.105	0.030
-132.356	-200.000	0.042	0.287
-131.341	469.051	-0.079	-0.175
-130.326	-148.742	0.143	-0.011
-129.312	455.311	0.080	0.176
-128.297	-32.529	0.174	0.096
-127.283	55.656	0.168	0.161
-126.268	800.000	-0.123	-0.357
-125.253	112.015	0.130	0.155
-124.239	-60.694	-0.083	-0.035
-123.224	800.000	0.040	0.125
-122.210	-87.526	-0.168	0.050
-121.195	-68.368	-0.183	0.070
-120.180	-200.000	-0.021	-0.152
-119.166	-118.042	-0.137	-0.024
-118.151	200.471	0.209	0.317
-117.137	31.591	-0.059	-0.050
-116.122	-72.831	0.164	0.060
-115.107	524.346	-0.032	-0.074
-114.093	-200.000	-0.049	-0.261
-113.078	-92.177	0.063	0.017
-112.064	-51.745	-0.420	0.193
-111.049	-26.712	-0.185	0.107
-110.034	101.740	-0.098	-0.113
-109.020	-54.430	0.060	0.027
-108.005	30.758	0.074	-0.063
-106.991	10.355	0.319	0.240
-105.976	16.985	0.225	-0.176
-104.962	-54.533	-0.122	0.055
-103.947	-93.942	-0.070	0.019
-102.932	82.347	0.013	0.014
-101.918	-92.310	-0.377	0.105
-100.903	28.311	-0.132	-0.110
-99.889	800.000	-0.101	-0.424
-98.874	203.398	-0.108	0.165
-97.859	-81.477	-0.248	-0.080
-96.845	-200.000	0.017	0.085
-95.830	-176.212	-0.371	0.010
-94.816	-200.000	0.533	-0.003
-93.801	-200.000	0.021	-0.112
-92.786	-200.000	-0.038	0.406
-91.772	422.740	0.017	0.036
-90.757	-112.144	0.115	-0.023
-89.743	800.000	-0.097	-0.314
-88.728	-86.474	-0.481	-0.146
-87.713	34.311	0.259	-0.222
-86.699	-87.719	0.343	0.102
-85.684	90.567	-0.209	0.231
-84.670	-65.265	0.207	0.082
-83.655	-79.559	0.234	-0.078
-82.640	266.158	0.167	0.288
-81.626	-104.402	0.255	-0.058
-80.611	-152.431	0.101	-0.007
-79.597	-124.177	-0.266	-0.041
-78.582	-136.783	-0.019	-0.002
-77.567	-143.988	-0.111	-0.010
-76.553	-34.321	0.056	-0.030
-75.538	-200.000	-0.019	-0.134
-74.524	-200.000	-0.021	0.248
-73.509	800.000	-0.052	0.175
-72.494	213.651	-0.203	0.316
-71.480	800.000	0.043	-0.130
-70.465	105.637	-0.165	-0.192
-69.451	202.821	-0.201	-0.306
-68.436	-33.703	0.233	-0.126
-67.422	800.000	0.113	0.401
-66.407	-1.080	0.232	0.162
-65.392	-41.947	0.221	0.111
-64.378	13.991	0.120	0.092
-63.363	-132.900	0.258	-0.032
-62.349	-200.000	-0.071	0.438
-61.334	102.571	-0.724	-0.834
-60.319	-200.000	0.031	0.285
-59.305	-200.000	0.051	-1.004
-58.290	427.597	0.519	1.102
-57.276	278.423	0.791	1.388
-56.261	-200.000	95.537	541.146
-55.246	591.009	1382.830	3358.064
-54.232	184.381	2632.473	3837.338
-53.217	114.005	2326.890	2784.865
-52.203	45.358	1938.342	1759.834
-51.188	39.101	1724.319	1517.344
-50.173	36.167	1679.029	1455.325
-49.159	52.729	1727.330	1624.310
-48.144	56.099	1744.969	1666.604
-47.130	38.696	1700.993	1493.490
-46.115	35.760	1686.338	1458.345
-45.100	35.513	1681.441	1452.185
-44.086	35.560	1677.956	1449.467
-43.071	35.552	1675.643	1447.352
-42.057	35.432	1673.271	1444.346
-41.042	35.662	1670.760	1443.849
-40.027	35.577	1669.526	1442.083
-39.013	35.577	1667.600	1440.365
-37.998	35.634	1665.720	1439.109
-36.984	35.541	1664.906	1437.658
-35.969	35.752	1662.884	1437.426
-34.954	35.787	1661.180	1436.162
-33.940	35.699	1659.766	1434.224
-32.925	35.716	1658.360	1433.079
-31.911	35.666	1656.392	1430.951
-30.896	35.589	1654.840	1428.982
-29.881	35.653	1653.047	1427.851
-28.867	35.581	1651.748	1426.135
-27.852	35.796	1649.585	1425.808
-26.838	35.774	1648.040	1424.254
-25.823	35.784	1646.666	1423.082
-24.809	35.724	1645.694	1421.739
-23.794	35.715	1644.310	1420.420
-22.779	35.810	1642.318	1419.350
-21.765	35.807	1640.298	1417.521
-20.750	35.755	1638.822	1415.808
-19.736	35.783	1637.343	1414.682
-18.721	35.851	1635.713	1413.717
-17.706	35.875	1634.132	1412.468
-16.692	35.773	1632.984	1410.674
-15.677	35.716	1631.834	1409.203
-14.663	35.858	1629.655	1408.308
-13.648	35.736	1628.733	1406.561
-12.633	35.799	1627.144	1405.596
-11.619	35.779	1625.684	1404.131
-10.604	35.798	1624.511	1403.197
-9.590	35.830	1622.540	1401.678
-8.575	35.714	1621.872	1400.202
-7.560	35.796	1620.814	1399.828
-6.546	35.743	1619.425	1398.185
-5.531	35.817	1618.072	1397.498
-4.517	35.758	1617.007	1396.097
-3.502	35.761	1615.686	1394.921
-2.487	35.839	1614.302	1394.239
-1.473	35.376	1601.969	1380.203
-0.458	31.868	1580.934	1337.057
0.556	25.077	1578.737	1296.615
1.571	22.264	1603.014	1295.742
2.586	21.644	1616.547	1301.957
3.600	19.540	1564.600	1244.854
4.615	10.645	1451.793	1095.226
5.629	1.643	1381.988	984.442
6.644	-0.277	1372.675	965.377
7.659	-0.381	1371.232	963.605
8.673	-0.436	1370.031	962.324
9.688	-0.406	1368.273	961.199
10.702	-0.676	1365.657	957.546
11.717	2.711	1371.534	983.324
12.731	11.895	1389.294	1055.397
13.746	17.923	1399.452	1102.047
14.761	18.242	1398.890	1103.562
15.775	18.241	1398.065	1102.808
16.790	18.278	1397.750	1102.703
17.804	18.282	1396.875	1101.941
18.819	18.444	1396.891	1102.897
19.834	18.576	1395.981	1102.930
20.848	18.511	1395.517	1102.044
21.863	18.506	1394.583	1101.179
22.877	18.695	1393.442	1101.392
23.892	18.546	1392.187	1099.347
24.907	18.523	1391.807	1098.805
25.921	18.518	1390.977	1098.017
26.936	18.472	1389.797	1096.698
27.950	18.634	1388.377	1096.517
28.965	18.576	1387.339	1095.225
29.980	18.579	1385.503	1093.702
30.994	18.585	1384.594	1092.926
32.009	18.565	1383.778	1092.058
33.023	18.531	1382.462	1090.705
34.038	18.484	1381.515	1089.564
35.053	18.553	1380.155	1088.830
36.067	18.598	1378.818	1087.964
37.082	18.563	1378.082	1087.064
38.096	18.545	1376.850	1085.887
39.111	18.588	1376.045	1085.429
40.126	18.585	1375.633	1084.989
41.140	18.498	1374.841	1083.715
42.155	18.537	1374.285	1083.429
43.169	18.564	1374.881	1083.972
44.184	18.490	1374.591	1083.182
45.199	18.483	1373.668	1082.314
46.213	18.522	1373.061	1081.987
47.228	18.554	1372.292	1081.482
48.242	18.548	1370.817	1080.187
49.257	18.598	1368.996	1078.975
50.271	18.438	1368.444	1077.435
51.286	18.614	1366.570	1076.969
52.301	18.564	1365.649	1075.837
53.315	18.639	1364.415	1075.238
54.330	18.479	1363.582	1073.485
55.344	18.556	1362.581	1073.082
56.359	18.551	1361.589	1072.174
57.374	18.583	1361.039	1071.848
58.388	18.456	1360.347	1070.414
59.403	18.495	1360.017	1070.301
60.417	18.480	1359.440	1069.662
61.432	18.538	1358.226	1068.971
62.447	18.617	1356.951	1068.368
63.461	18.550	1355.952	1067.067
64.476	18.575	1354.997	1066.379
65.490	18.570	1353.302	1064.921
66.505	18.571	1351.598	1063.489
67.520	18.531	1350.956	1062.646
68.534	18.503	1349.842	1061.500
69.549	18.584	1348.482	1060.836
70.563	18.596	1347.181	1059.796
71.578	18.529	1346.527	1058.772
72.593	18.584	1345.787	1058.436
73.607	18.673	1344.832	1058.142
74.622	18.535	1344.223	1056.716
75.636	18.502	1344.039	1056.276
76.651	18.548	1342.396	1055.174
77.666	18.536	1342.679	1055.229
78.680	18.662	1341.592	1055.058
79.695	18.577	1341.091	1054.047
80.709	18.573	1339.848	1052.954
81.724	18.681	1338.727	1052.639
82.739	18.665	1337.655	1051.604
83.753	18.508	1337.070	1050.089
84.768	18.580	1335.697	1049.359
85.782	18.539	1335.035	1048.497
86.797	18.595	1333.314	1047.398
87.812	18.534	1332.152	1046.014
88.826	18.604	1331.257	1045.647
89.841	18.649	1330.224	1045.018
90.855	18.613	1329.207	1043.907
91.870	18.606	1328.339	1043.093
92.884	18.654	1327.357	1042.520
93.899	18.576	1326.387	1041.193
94.914	18.621	1325.438	1040.629
95.928	18.603	1324.464	1039.661
96.943	18.660	1323.779	1039.376
97.957	18.647	1323.128	1038.693
98.972	18.744	1321.821	1038.166
99.987	18.706	1320.688	1036.951
101.001	18.659	1319.973	1036.014
102.016	18.617	1318.532	1034.541
103.030	18.648	1317.791	1034.053
104.045	18.662	1316.756	1033.236
105.060	18.604	1316.150	1032.318
106.074	18.628	1314.836	1031.339
107.089	18.695	1313.585	1030.673
108.103	18.613	1312.531	1029.264
109.118	18.635	1311.217	1028.269
110.133	18.725	1310.172	1027.901
111.147	18.821	1308.546	1027.105
112.162	18.777	1307.099	1025.619
113.176	18.725	1306.535	1024.776
114.191	18.716	1305.250	1023.621
115.206	18.710	1304.196	1022.670
116.220	18.668	1303.008	1021.398
117.235	18.664	1302.167	1020.627
118.249	18.582	1300.983	1019.115
119.264	18.627	1299.850	1018.408
120.279	18.826	1298.785	1018.666
121.293	18.740	1297.705	1017.215
122.308	18.717	1296.989	1016.427
123.322	18.786	1295.675	1015.719
124.337	18.732	1294.543	1014.422
125.352	18.737	1293.622	1013.638
126.366	18.721	1292.702	1012.736
127.381	18.876	1291.378	1012.519
128.395	18.925	1290.128	1011.739
129.410	18.859	1289.773	1010.981
130.424	18.597	1289.392	1009.056
131.439	18.765	1288.246	1009.056
132.454	18.757	1287.218	1008.115
133.468	18.683	1286.753	1007.228
134.483	18.793	1285.814	1007.049
135.497	18.801	1284.641	1006.089
136.512	18.724	1283.365	1004.546
137.527	18.792	1282.108	1003.871
138.541	18.774	1280.487	1002.409
139.556	18.657	1279.579	1000.926
140.570	18.641	1278.361	999.792
141.585	18.761	1276.866	999.234
142.600	18.762	1276.174	998.609
143.614	18.685	1275.413	997.479
144.629	18.642	1274.083	996.101
145.643	18.704	1272.529	995.155
146.658	18.609	1272.069	994.155
147.673	18.655	1270.666	993.239
148.687	18.621	1269.476	992.022
149.702	18.652	1268.357	991.239
150.716	18.713	1266.992	990.438
151.731	18.679	1265.909	989.310
152.746	18.696	1265.320	988.857
153.760	18.676	1264.084	987.690
154.775	18.779	1262.894	987.265
155.789	18.685	1261.946	985.895
156.804	18.692	1261.088	985.181
157.819	18.680	1260.032	984.197
158.833	18.736	1259.118	983.717
159.848	18.773	1258.337	983.235
160.862	18.722	1257.836	982.465
161.877	18.697	1256.677	981.330
162.892	18.865	1255.475	981.262
163.906	18.806	1254.635	980.180
164.921	18.824	1253.857	979.591
165.935	18.621	1253.530	978.093
166.950	18.734	1252.673	977.977
167.964	18.893	1251.689	978.028
168.979	18.885	1251.084	977.426
169.994	18.842	1250.387	976.552
171.008	18.703	1250.548	975.797
172.023	18.835	1249.320	975.505
173.037	18.926	1247.898	974.823
174.052	18.812	1247.960	974.138
175.067	18.864	1246.697	973.362
176.081	18.917	1245.745	972.830
177.096	18.846	1245.444	972.107
178.110	18.869	1244.276	971.240
179.125	18.943	1242.623	970.285
180.140	18.875	1242.123	969.425
181.154	18.869	1240.681	968.175
182.169	18.902	1239.814	967.601
183.183	18.846	1238.608	966.259
184.198	18.878	1237.580	965.554
185.213	18.821	1237.033	964.718
186.227	18.984	1235.874	964.647
187.242	19.003	1234.423	963.535
188.256	18.960	1234.110	962.964
189.271	19.041	1232.764	962.277
190.286	18.955	1232.033	961.143
191.300	18.949	1231.619	960.703
192.315	18.788	1231.541	959.655
193.329	18.826	1231.268	959.570
194.344	18.896	1230.452	959.241
195.359	18.841	1230.164	958.626
196.373	18.850	1229.200	957.838
197.388	18.794	1228.786	957.118
198.402	18.910	1228.318	957.319
199.417	18.872	1227.778	956.601
200.432	18.932	1227.366	956.527
201.446	18.891	1226.435	955.491
202.461	18.947	1225.564	955.039
203.475	18.896	1224.675	953.978
204.490	18.862	1223.355	952.677
205.504	18.907	1222.781	952.393
206.519	19.095	1221.481	952.341
207.534	19.016	1220.320	950.913
208.548	18.848	1219.630	949.364
209.563	18.984	1218.695	949.302
210.577	18.961	1217.969	948.523
211.592	18.966	1217.565	948.153
212.607	18.935	1216.550	947.106
213.621	18.988	1216.217	947.056
214.636	19.030	1215.187	946.403
215.650	19.031	1214.258	945.600
216.665	19.058	1213.030	944.708
217.680	18.909	1212.150	943.122
218.694	19.047	1211.916	943.616
219.709	18.985	1210.970	942.455
220.723	19.064	1210.054	942.091
221.738	19.071	1209.226	941.402
222.753	18.933	1208.802	940.233
223.767	19.050	1208.044	940.201
224.782	18.975	1207.810	939.523
225.796	19.118	1206.741	939.388
226.811	19.066	1206.151	938.562
227.826	19.166	1205.324	938.380
228.840	19.255	1204.485	938.130
229.855	19.249	1204.002	937.640
230.869	19.052	1203.282	935.925
231.884	19.095	1202.968	935.828
232.899	19.127	1202.195	935.320
233.913	19.139	1201.624	934.861
234.928	19.139	1201.116	934.378
235.942	19.191	1200.254	933.908
236.957	19.142	1199.361	932.868
237.972	19.217	1198.709	932.684
238.986	19.032	1198.358	931.327
240.001	19.129	1197.687	931.245
241.015	19.271	1196.525	931.029
242.030	19.211	1196.277	930.426
243.045	19.297	1195.084	929.881
244.059	19.253	1194.492	929.102
245.074	19.327	1193.488	928.638
246.088	19.190	1192.755	927.247
247.103	19.218	1191.931	926.675
248.117	19.272	1191.188	926.308
249.132	19.373	1190.561	926.278
250.147	19.299	1190.181	925.505
251.161	19.378	1189.116	925.020
252.176	19.250	1188.853	924.043
253.190	19.326	1187.642	923.431
254.205	19.392	1187.078	923.262
255.220	19.152	1186.612	921.532
256.234	19.344	1185.890	921.917
257.249	19.366	1185.431	921.597
258.263	19.434	1184.636	921.259
259.278	19.426	1184.064	920.690
260.293	19.420	1183.684	920.280
261.307	19.303	1183.453	919.397
262.322	19.399	1182.309	918.941
263.336	19.462	1181.819	918.811
264.351	19.423	1181.397	918.197
265.366	19.391	1180.434	917.194
266.380	19.412	1179.419	916.440
267.395	19.510	1178.813	916.405
268.409	19.377	1178.475	915.354
269.424	19.320	1178.285	914.824
270.439	19.380	1177.855	914.729
271.453	19.447	1176.797	914.182
272.468	19.363	1175.855	912.922
273.482	19.385	1175.293	912.521
274.497	19.458	1174.716	912.380
275.512	19.520	1174.004	912.075
276.526	19.379	1173.615	910.943
277.541	19.609	1172.366	911.109
278.555	19.522	1171.932	910.233
279.570	19.599	1170.790	909.671
280.585	19.441	1170.722	908.705
281.599	19.425	1170.162	908.107
282.614	19.537	1168.627	907.426
283.628	19.581	1167.766	906.904
284.643	19.586	1166.621	905.964
285.657	19.484	1166.271	905.077
286.672	19.430	1165.235	903.908
287.687	19.468	1164.780	903.677
288.701	19.496	1164.277	903.353
289.716	19.591	1162.767	902.596
290.730	19.501	1162.462	901.807
291.745	19.608	1161.504	901.545
292.760	19.612	1161.158	901.217
293.774	19.617	1160.312	900.506
294.789	19.704	1159.697	900.400
295.803	19.690	1159.164	899.837
296.818	19.636	1158.739	899.147
297.833	19.806	1157.617	899.080
298.847	19.822	1156.840	898.482
299.862	19.643	1156.390	897.120
300.876	19.748	1155.734	897.079
301.891	19.796	1155.094	896.750
302.906	19.815	1154.345	896.190
303.920	19.761	1153.717	895.341
304.935	19.743	1153.136	894.716
305.949	19.646	1152.788	893.870
306.964	19.752	1151.645	893.451
307.979	19.894	1150.583	893.282
308.993	19.807	1150.418	892.624
310.008	19.904	1149.313	892.185
311.022	19.852	1148.761	891.413
312.037	19.869	1148.124	890.926
313.052	19.786	1147.225	889.721
314.066	19.796	1146.475	889.113
315.081	19.912	1145.532	888.897
316.095	19.830	1144.868	887.886
317.110	19.861	1144.296	887.522
318.125	19.906	1143.832	887.317
319.139	19.882	1142.892	886.383
320.154	19.845	1142.611	885.899
321.168	19.951	1141.697	885.652
322.183	19.926	1141.116	884.995
323.197	19.826	1140.778	884.145
324.212	19.921	1139.835	883.820
325.227	19.943	1139.575	883.651
326.241	19.909	1139.077	883.015
327.256	20.013	1138.101	882.713
328.270	19.838	1137.479	881.257
329.285	19.808	1136.777	880.485
330.300	19.949	1135.593	880.205
331.314	19.910	1135.031	879.495
332.329	20.005	1133.721	878.886
333.343	20.153	1132.898	878.916
334.358	19.960	1132.576	877.612
335.373	20.157	1131.698	877.853
336.387	20.053	1131.139	876.815
337.402	20.184	1130.317	876.760
338.416	20.122	1129.489	875.731
339.431	20.080	1129.389	875.364
340.446	20.190	1128.403	875.077
341.460	20.137	1128.111	874.506
342.475	20.117	1127.018	873.479
343.489	20.088	1126.212	872.631
344.504	20.175	1125.072	872.105
345.519	20.153	1124.293	871.316
346.533	20.222	1123.667	871.099
347.548	20.134	1123.425	870.396
348.562	20.175	1121.894	869.335
349.577	20.261	1121.310	869.236
350.592	20.043	1121.078	867.887
351.606	20.025	1120.589	867.344
352.621	20.151	1119.830	867.308
353.635	20.161	1119.219	866.809
354.650	20.212	1118.443	866.388
355.665	20.313	1117.623	866.178
356.679	20.224	1117.102	865.254
357.694	20.244	1116.558	864.858
358.708	20.269	1116.116	864.563
359.723	20.217	1115.067	863.415
360.738	20.231	1114.462	862.941
361.752	20.288	1114.024	862.806
362.767	20.290	1113.454	862.297
363.781	20.337	1112.615	861.804
364.796	20.334	1112.148	861.355
365.810	20.407	1111.289	860.972
366.825	20.403	1111.027	860.674
367.840	20.436	1110.480	860.340
368.854	20.402	1110.052	859.763
369.869	20.372	1109.252	858.920
370.883	20.413	1108.327	858.328
371.898	20.462	1107.308	857.705
372.913	20.564	1107.177	858.034
373.927	20.484	1106.309	856.890
374.942	20.483	1106.350	856.839
375.956	20.459	1105.611	856.071
376.971	20.493	1104.908	855.622
377.986	20.544	1104.331	855.349
379.000	20.531	1103.591	854.635
380.015	20.581	1103.239	854.534
381.029	20.613	1102.677	854.177
382.044	20.528	1102.003	853.164
383.059	20.500	1101.339	852.438
384.073	20.545	1100.401	851.855
385.088	20.676	1099.174	851.472
386.102	20.482	1098.642	850.039
387.117	20.482	1098.236	849.647
388.132	20.619	1097.046	849.319
389.146	20.787	1095.947	849.215
390.161	20.635	1095.513	848.062
391.175	20.652	1094.696	847.438
392.190	20.588	1094.059	846.557
393.205	20.625	1093.309	846.083
394.219	20.521	1093.159	845.383
395.234	20.694	1091.899	845.175
396.248	20.736	1090.822	844.474
397.263	20.743	1089.634	843.512
398.278	20.729	1088.915	842.811
399.292	20.760	1088.648	842.682
400.307	20.901	1087.749	842.592
401.321	20.811	1087.388	841.802
402.336	20.761	1086.867	841.085
403.350	20.857	1086.179	840.942
404.365	20.817	1085.534	840.173
405.380	20.783	1084.565	839.183
406.394	20.919	1083.996	839.325
407.409	20.939	1082.852	838.463
408.423	20.812	1082.755	837.700
409.438	20.783	1081.844	836.783
410.453	20.800	1081.120	836.233
411.467	20.884	1079.909	835.622
412.482	20.896	1079.404	835.219
413.496	20.899	1078.983	834.832
414.511	20.821	1078.477	833.990
415.526	20.936	1078.058	834.147
416.540	20.876	1077.513	833.361
417.555	20.817	1076.871	832.512
418.569	20.836	1076.413	832.173
419.584	20.927	1076.148	832.330
420.599	20.893	1075.674	831.725
421.613	146.858	1395.670	1789.988
422.628	135.549	1442.283	1790.120
