DTS Sentinel unit serial number:	SN413079Multiplexer serial number:	ORYXHardware model number:	OX4-SRSoftware version number:	ORYX F/W v4.00 Oryx Data Collector v3.7.2.0data status	okinstallation	princeton_trtdifferential loss correction	single-endedforward channel	channel 2reverse channel	N/Adate	2019/09/12time	06:53:10forward acquisition time	60.00reverse acquisition time	0.00gamma	496.2192k internal	0.2324k external	0.2324temperature offset calibration	1.0070default loss term (dB/km)	0.3790temperature slope calibration	1.0000multiplexer offset coefficient	1.0000multiplexer slope coefficient	1.0000fibre end	0.00T internal ref (°C)	32.12T ext. ref 1 (°C)	1.59T ext. ref 2 (°C)	27.23length (m)	temperature (°C)	Stokes	anti-Stokes-747.200	242.359	-0.085	0.143
-746.185	14.506	0.162	-0.128
-745.171	-83.687	-0.093	0.030
-744.156	800.000	-0.129	0.425
-743.142	-69.810	-0.195	-0.075
-742.127	73.950	-0.139	0.148
-741.112	103.962	-0.177	-0.210
-740.098	-200.000	-0.005	0.106
-739.083	89.522	0.195	0.219
-738.069	-66.243	-0.286	0.115
-737.054	-111.601	0.446	0.091
-736.039	503.736	-0.197	-0.460
-735.025	-200.000	0.056	0.454
-734.010	800.000	-0.049	0.157
-732.996	0.867	-0.245	0.177
-731.981	162.006	0.158	-0.224
-730.966	131.136	0.057	0.074
-729.952	-161.293	-0.096	0.005
-728.937	-182.873	0.161	-0.003
-727.923	122.457	-0.049	-0.061
-726.908	20.762	-0.225	0.183
-725.894	-200.000	0.008	-0.255
-724.879	-135.173	-0.318	0.039
-723.864	25.046	-0.082	0.068
-722.850	19.813	-0.258	-0.210
-721.835	800.000	0.041	-0.154
-720.821	-200.000	-0.033	0.179
-719.806	800.000	-0.102	0.321
-718.791	50.531	-0.266	-0.254
-717.777	123.661	-0.176	0.223
-716.762	-135.331	0.352	-0.043
-715.748	-9.206	-0.164	-0.111
-714.733	17.332	0.204	0.164
-713.718	-200.000	0.006	0.186
-712.704	-40.396	0.177	-0.093
-711.689	98.326	0.131	-0.152
-710.675	9.704	0.148	-0.113
-709.660	-67.787	-0.449	-0.177
-708.645	203.949	0.039	-0.061
-707.631	-200.000	-0.003	0.092
-706.616	212.892	0.062	0.099
-705.602	800.000	-0.037	0.105
-704.587	234.948	0.109	0.182
-703.572	800.000	0.120	-0.413
-702.558	-200.000	0.018	0.112
-701.543	17.550	0.085	0.068
-700.529	-200.000	0.039	0.260
-699.514	-200.000	0.019	-0.100
-698.499	158.053	-0.129	0.180
-697.485	800.000	0.112	-0.327
-696.470	-200.000	0.005	0.178
-695.456	800.000	-0.047	0.198
-694.441	-65.789	-0.123	-0.049
-693.426	72.795	-0.091	-0.096
-692.412	800.000	0.052	-0.228
-691.397	-131.689	0.198	0.026
-690.383	-200.000	-0.017	-0.178
-689.368	-97.746	-0.053	0.014
-688.354	-25.749	0.360	0.214
-687.339	-19.974	-0.306	0.190
-686.324	26.212	-0.242	0.204
-685.310	766.046	-0.079	-0.215
-684.295	-81.086	0.152	0.051
-683.281	-42.202	-0.419	0.216
-682.266	-62.786	-0.134	0.056
-681.251	219.919	0.004	-0.007
-680.237	800.000	0.038	0.153
-679.222	-37.344	-0.397	-0.214
-678.208	484.175	0.099	0.227
-677.193	226.026	0.158	-0.258
-676.178	268.598	-0.086	0.152
-675.164	-26.649	-0.099	0.058
-674.149	800.000	0.090	0.362
-673.135	63.237	0.114	-0.115
-672.120	423.383	-0.042	0.091
-671.105	-200.000	0.027	-0.164
-670.091	9.019	0.124	-0.094
-669.076	655.224	0.104	-0.270
-668.062	-88.327	0.295	0.089
-667.047	91.608	-0.098	-0.111
-666.032	29.547	-0.109	-0.093
-665.018	-115.200	-0.313	0.060
-664.003	151.054	-0.048	0.066
-662.989	203.004	-0.168	0.262
-661.974	800.000	0.075	0.213
-660.959	-107.208	0.306	0.068
-659.945	800.000	0.109	-0.386
-658.930	104.243	0.189	-0.224
-657.916	-105.091	0.098	-0.023
-656.901	-2.673	-0.147	-0.104
-655.886	-200.000	-0.029	-0.175
-654.872	39.300	-0.292	0.263
-653.857	82.246	-0.065	-0.071
-652.843	-145.674	0.146	0.013
-651.828	160.278	0.115	-0.161
-650.814	152.738	-0.055	-0.076
-649.799	-116.240	-0.224	0.042
-648.784	-76.107	-0.265	0.094
-647.770	14.200	0.033	0.026
-646.755	-121.939	0.065	0.011
-645.741	19.812	0.183	0.148
-644.726	-131.518	0.217	-0.029
-643.711	756.136	0.033	-0.090
-642.697	800.000	0.053	0.191
-641.682	-78.571	0.247	-0.085
-640.668	-200.000	-0.007	0.245
-639.653	-33.496	0.139	-0.077
-638.638	-53.490	-0.099	0.045
-637.624	83.893	0.039	-0.042
-636.609	-55.433	-0.068	0.031
-635.595	123.259	0.272	-0.343
-634.580	-200.000	0.046	-0.217
-633.565	800.000	-0.084	-0.244
-632.551	-84.289	-0.205	-0.065
-631.536	800.000	0.045	-0.167
-630.522	-49.602	0.253	-0.121
-629.507	-200.000	0.011	-0.165
-628.492	342.926	-0.013	-0.026
-627.478	-200.000	-0.045	-0.304
-626.463	-81.480	0.176	-0.058
-625.449	32.812	0.093	-0.081
-624.434	84.749	0.160	0.176
-623.419	127.240	-0.087	0.111
-622.405	-34.450	0.355	-0.195
-621.390	101.643	0.252	-0.295
-620.376	33.431	0.055	-0.048
-619.361	-200.000	-0.066	-0.338
-618.346	800.000	-0.044	0.150
-617.332	-4.346	0.192	0.133
-616.317	34.549	0.097	-0.085
-615.303	138.921	-0.299	0.395
-614.288	129.092	-0.081	-0.104
-613.273	28.546	0.294	-0.250
-612.259	-26.345	0.259	-0.152
-611.244	800.000	0.071	0.223
-610.230	-52.964	-0.186	-0.086
-609.215	-200.000	0.006	0.050
-608.201	-76.276	0.060	0.021
-607.186	-74.725	-0.054	0.020
-606.171	302.514	0.046	0.086
-605.157	-143.845	-0.403	0.038
-604.142	-40.776	-0.235	-0.122
-603.128	-200.000	-0.022	-0.106
-602.113	-54.282	0.167	0.076
-601.098	660.197	0.074	0.192
-600.084	-102.491	0.073	0.018
-599.069	244.631	0.109	-0.184
-598.055	28.345	-0.147	0.125
-597.040	-200.000	0.030	0.302
-596.025	-200.000	0.009	0.135
-595.011	800.000	-0.027	0.095
-593.996	-134.282	-0.238	0.029
-592.982	-65.285	-0.135	0.055
-591.967	-139.600	-0.494	0.053
-590.952	-141.641	-0.054	-0.005
-589.938	-200.000	0.005	0.093
-588.923	14.654	-0.197	0.155
-587.909	-115.348	0.120	0.023
-586.894	-200.000	-0.000	0.272
-585.879	-200.000	0.023	0.128
-584.865	-200.000	-0.006	-0.079
-583.850	-41.648	-0.251	0.130
-582.836	-113.487	0.233	0.046
-581.821	800.000	-0.068	0.250
-580.806	-200.000	0.005	0.160
-579.792	177.385	0.113	-0.165
-578.777	-200.000	-0.012	0.233
-577.763	-200.000	0.056	0.264
-576.748	800.000	0.064	-0.242
-575.733	28.368	0.060	0.051
-574.719	-28.529	-0.268	-0.155
-573.704	-200.000	-0.022	0.132
-572.690	-200.000	0.015	-0.105
-571.675	20.744	0.141	-0.115
-570.661	-200.000	-0.005	0.298
-569.646	11.780	-0.100	0.077
-568.631	319.124	-0.071	-0.134
-567.617	-34.736	-0.300	-0.164
-566.602	501.629	-0.179	-0.415
-565.588	800.000	0.059	0.243
-564.573	-112.194	0.029	-0.006
-563.558	169.776	0.123	-0.176
-562.544	-100.325	0.183	-0.045
-561.529	7.325	-0.145	-0.109
-560.515	-145.760	0.180	0.016
-559.500	44.832	-0.317	-0.292
-558.485	-148.865	-0.245	-0.020
-557.471	-102.180	-0.460	-0.111
-556.456	235.414	0.196	-0.324
-555.442	800.000	-0.074	-0.283
-554.427	-200.000	-0.076	0.380
-553.412	-127.273	0.073	0.011
-552.398	-84.678	-0.101	-0.032
-551.383	-200.000	0.030	-0.207
-550.369	-47.455	-0.137	0.067
-549.354	-102.087	0.216	0.052
-548.339	-105.022	0.105	0.024
-547.325	66.363	-0.212	0.215
-546.310	800.000	0.025	0.079
-545.296	3.679	-0.385	-0.281
-544.281	-141.785	0.211	-0.021
-543.266	-82.713	-0.119	0.039
-542.252	46.818	-0.193	0.179
-541.237	-59.023	0.219	0.095
-540.223	-0.855	-0.113	0.080
-539.208	132.902	0.149	-0.193
-538.193	800.000	0.023	-0.094
-537.179	-66.154	-0.046	0.018
-536.164	534.555	0.027	0.065
-535.150	-58.943	-0.122	-0.053
-534.135	8.017	0.133	-0.100
-533.121	-85.860	-0.265	-0.082
-532.106	-37.353	0.293	-0.156
-531.091	-200.000	-0.026	0.125
-530.077	-200.000	0.031	-0.150
-529.062	46.792	0.126	0.118
-528.048	-42.830	-0.033	-0.017
-527.033	606.437	0.064	-0.160
-526.018	367.739	-0.188	-0.380
-525.004	-92.962	-0.164	-0.046
-523.989	-200.000	0.009	0.225
-522.975	38.355	0.241	0.215
-521.960	279.524	-0.149	0.265
-520.945	135.023	-0.210	0.273
-519.931	222.049	0.184	0.297
-518.916	-200.000	0.088	0.410
-517.902	30.746	0.234	0.200
-516.887	-165.871	-0.129	-0.006
-515.872	-51.897	-0.062	-0.029
-514.858	-110.108	0.240	0.050
-513.843	796.779	0.168	-0.462
-512.829	-142.023	0.030	-0.003
-511.814	-200.000	0.021	0.127
-510.799	418.262	-0.079	-0.168
-509.785	-84.321	0.395	-0.125
-508.770	-93.882	0.255	-0.070
-507.756	65.750	-0.229	0.232
-506.741	-200.000	-0.018	-0.248
-505.726	-200.000	0.013	0.114
-504.712	459.430	-0.085	0.190
-503.697	520.655	-0.127	0.298
-502.683	-123.811	0.351	-0.056
-501.668	399.522	-0.017	0.036
-500.653	489.248	-0.030	-0.068
-499.639	-85.358	0.224	-0.070
-498.624	3.885	0.157	0.114
-497.610	800.000	0.083	0.251
-496.595	-49.655	-0.532	0.253
-495.581	166.589	-0.171	-0.242
-494.566	157.489	-0.086	0.118
-493.551	-110.740	-0.047	-0.010
-492.537	-32.146	0.155	-0.087
-491.522	49.901	-0.126	-0.119
-490.508	-200.000	0.010	0.638
-489.493	138.180	-0.131	0.172
-488.478	134.970	0.149	-0.193
-487.464	-29.184	-0.040	0.023
-486.449	517.112	0.073	0.172
-485.435	1.235	0.186	-0.133
-484.420	290.623	0.130	0.237
-483.405	437.289	-0.183	0.399
-482.391	-200.000	0.013	0.124
-481.376	176.031	-0.166	-0.241
-480.362	-200.000	0.037	-0.206
-479.347	-30.259	-0.103	-0.059
-478.332	-55.556	-0.023	-0.010
-477.318	-113.607	-0.098	-0.019
-476.303	33.521	-0.051	0.045
-475.289	73.446	0.112	-0.117
-474.274	-200.000	0.009	0.176
-473.259	64.570	0.235	0.236
-472.245	-155.966	-0.210	0.013
-471.230	64.500	0.053	-0.053
-470.216	800.000	-0.090	-0.332
-469.201	-167.118	0.505	0.021
-468.186	-200.000	-0.014	-0.170
-467.172	96.525	-0.310	-0.355
-466.157	-93.949	0.255	-0.070
-465.143	800.000	-0.084	-0.246
-464.128	323.989	0.095	0.180
-463.113	-200.000	0.065	0.462
-462.099	81.287	-0.111	-0.119
-461.084	800.000	0.053	0.190
-460.070	269.938	0.108	-0.190
-459.055	-95.020	-0.274	0.074
-458.040	-160.637	-0.129	-0.007
-457.026	-200.000	-0.023	-0.160
-456.011	152.034	0.146	0.199
-454.997	-135.235	-0.185	-0.022
-453.982	353.503	0.059	-0.117
-452.968	-78.805	0.240	-0.082
-451.953	-20.072	-0.027	0.017
-450.938	-200.000	0.141	0.631
-449.924	-74.235	0.257	0.093
-448.909	140.363	0.208	-0.273
-447.895	247.609	0.180	0.303
-446.880	800.000	-0.093	0.388
-445.865	-139.639	-0.212	-0.023
-444.851	160.432	-0.024	-0.033
-443.836	617.708	0.040	-0.100
-442.822	-14.280	-0.133	0.086
-441.807	180.447	0.043	0.062
-440.792	-80.232	0.087	-0.029
-439.778	800.000	-0.115	-0.322
-438.763	-200.000	-0.001	0.059
-437.749	-200.000	-0.005	0.097
-436.734	54.110	-0.204	-0.195
-435.719	800.000	-0.021	-0.059
-434.705	-51.149	-0.187	0.087
-433.690	800.000	0.084	0.330
-432.676	83.113	-0.031	0.033
-431.661	-79.622	0.419	0.141
-430.646	140.742	-0.162	0.213
-429.632	584.159	-0.108	-0.264
-428.617	800.000	0.047	-0.133
-427.603	800.000	-0.110	0.401
-426.588	-200.000	-0.022	0.135
-425.573	123.876	-0.233	-0.291
-424.559	94.260	0.116	0.131
-423.544	-38.205	-0.102	-0.054
-422.530	-130.516	0.243	0.033
-421.515	-170.614	-0.083	-0.003
-420.500	39.647	-0.114	0.101
-419.486	15.905	0.222	-0.174
-418.471	-13.726	0.247	0.159
-417.457	-179.340	-0.211	-0.005
-416.442	-95.169	0.273	0.073
-415.428	289.797	0.157	-0.284
-414.413	70.708	-0.276	-0.285
-413.398	-48.765	-0.314	-0.150
-412.384	-67.991	-0.138	-0.054
-411.369	-200.000	-0.040	-0.263
-410.355	-200.000	-0.021	0.142
-409.340	-110.404	0.099	0.021
-408.325	-200.000	0.036	-0.408
-407.311	-121.745	-0.185	-0.030
-406.296	-23.035	0.297	-0.178
-405.282	42.720	0.315	-0.286
-404.267	-44.555	0.250	-0.125
-403.252	-80.602	0.270	0.090
-402.238	265.911	0.207	-0.360
-401.223	-92.591	-0.213	0.060
-400.209	16.658	-0.257	-0.203
-399.194	102.970	0.272	-0.317
-398.179	800.000	0.030	-0.123
-397.165	-102.691	0.167	0.040
-396.150	682.521	-0.123	0.321
-395.136	-140.988	-0.391	-0.040
-394.121	800.000	0.134	0.396
-393.106	25.014	0.026	0.022
-392.092	-31.287	0.306	0.171
-391.077	-200.000	0.033	0.206
-390.063	800.000	-0.054	-0.178
-389.048	495.576	0.150	0.343
-388.033	-134.605	0.247	0.030
-387.019	-116.220	0.427	-0.079
-386.004	-200.000	-0.038	0.174
-384.990	-200.000	0.016	0.220
-383.975	726.014	-0.091	-0.242
-382.960	448.992	-0.092	0.203
-381.946	210.543	-0.155	0.242
-380.931	-134.912	-0.565	0.068
-379.917	218.429	0.131	0.208
-378.902	264.581	0.099	0.171
-377.888	123.451	-0.173	-0.216
-376.873	161.551	0.343	0.478
-375.858	133.331	-0.284	0.365
-374.844	-109.468	0.089	-0.019
-373.829	-0.242	-0.072	0.051
-372.815	-69.204	-0.101	0.039
-371.800	-151.339	0.095	0.007
-370.785	417.970	0.052	0.110
-369.771	128.722	0.346	0.439
-368.756	800.000	0.076	0.227
-367.742	127.197	0.267	0.337
-366.727	-200.000	0.020	0.100
-365.712	90.430	0.037	0.041
-364.698	156.899	0.034	0.047
-363.683	255.753	0.067	-0.114
-362.669	-72.974	0.092	0.034
-361.654	-120.955	-0.226	-0.038
-360.639	774.571	0.126	0.342
-359.625	54.578	0.170	-0.163
-358.610	800.000	0.125	-0.387
-357.596	-146.713	-0.234	-0.020
-356.581	-200.000	0.003	-0.181
-355.566	-4.739	-0.065	-0.044
-354.552	800.000	0.030	0.114
-353.537	-24.130	0.277	0.164
-352.523	-85.397	-0.476	-0.148
-351.508	-70.255	-0.101	0.038
-350.493	161.335	0.120	-0.167
-349.479	-148.157	-0.177	0.015
-348.464	-200.000	-0.026	0.226
-347.450	306.297	0.044	-0.082
-346.435	-61.398	0.159	0.067
-345.420	-200.000	0.001	-0.434
-344.406	3.027	0.173	-0.125
-343.391	503.026	-0.141	0.323
-342.377	-200.000	-0.042	-0.227
-341.362	-200.000	-0.019	-0.284
-340.348	330.828	-0.162	-0.311
-339.333	800.000	0.087	-0.258
-338.318	169.493	-0.123	-0.175
-337.304	-126.147	0.246	-0.037
-336.289	-46.619	-0.221	0.108
-335.275	-200.000	0.004	0.163
-334.260	128.975	-0.217	-0.276
-333.245	-100.667	-0.396	-0.097
-332.231	-41.464	0.267	-0.136
-331.216	-200.000	-0.008	-0.047
-330.202	-63.242	-0.092	0.037
-329.187	11.087	-0.179	-0.136
-328.172	42.883	0.281	0.254
-327.158	-179.883	-0.204	0.004
-326.143	-58.242	-0.075	-0.032
-325.129	49.242	0.073	-0.068
-324.114	-8.063	-0.250	0.167
-323.099	-200.000	-0.004	-0.020
-322.085	-200.000	-0.010	0.119
-321.070	31.257	0.350	-0.298
-320.056	67.750	-0.184	0.187
-319.041	-12.798	0.160	-0.104
-318.026	221.046	0.098	-0.157
-317.012	231.111	0.036	-0.059
-315.997	-6.406	0.150	-0.101
-314.983	-46.819	-0.216	0.105
-313.968	89.554	-0.315	-0.349
-312.953	800.000	-0.051	-0.157
-311.939	379.033	-0.098	-0.200
-310.924	-115.358	0.332	-0.062
-309.910	-64.785	-0.220	0.088
-308.895	1.440	-0.193	0.138
-307.880	34.088	0.083	0.072
-306.866	156.875	0.159	0.218
-305.851	286.746	0.187	0.335
-304.837	-62.154	-0.131	0.054
-303.822	-38.433	-0.063	-0.033
-302.807	-126.291	-0.248	0.037
-301.793	188.365	0.083	-0.124
-300.778	-23.244	-0.408	0.244
-299.764	745.011	-0.139	0.370
-298.749	53.352	-0.126	-0.120
-297.735	-200.000	0.022	0.147
-296.720	557.127	-0.110	-0.264
-295.705	-63.268	0.385	-0.157
-294.691	-95.147	0.187	-0.050
-293.676	46.977	-0.126	0.116
-292.662	-4.082	-0.217	-0.149
-291.647	-113.801	-0.154	-0.030
-290.632	-24.898	0.105	0.062
-289.618	-6.751	-0.117	-0.079
-288.603	-112.913	-0.300	-0.059
-287.589	-200.000	-0.011	0.151
-286.574	-51.135	-0.183	-0.085
-285.559	-17.860	0.085	-0.053
-284.545	800.000	-0.170	-0.654
-283.530	204.297	0.215	-0.330
-282.516	800.000	0.036	-0.149
-281.501	394.046	0.061	-0.125
-280.486	-24.264	-0.087	-0.052
-279.472	-200.000	0.010	0.134
-278.457	-55.035	0.458	0.204
-277.443	-107.998	0.107	-0.023
-276.428	32.612	0.116	-0.099
-275.413	800.000	-0.074	-0.273
-274.399	-200.000	-0.014	0.395
-273.384	97.189	-0.049	-0.056
-272.370	-200.000	-0.028	-0.195
-271.355	-97.382	-0.067	-0.017
-270.340	-100.722	-0.365	-0.089
-269.326	43.380	-0.108	-0.098
-268.311	80.643	-0.113	0.121
-267.297	-200.000	-0.046	-0.202
-266.282	332.808	0.068	0.130
-265.267	-41.763	-0.079	-0.040
-264.253	289.605	0.108	0.194
-263.238	-82.230	0.140	0.045
-262.224	-182.656	-0.356	0.006
-261.209	-61.980	0.157	0.065
-260.195	-200.000	0.045	-0.258
-259.180	800.000	-0.054	0.148
-258.165	-15.493	0.286	-0.181
-257.151	-25.939	0.295	-0.172
-256.136	286.256	0.146	0.261
-255.122	-88.718	-0.366	-0.108
-254.107	-59.433	0.088	0.037
-253.092	-200.000	0.062	0.344
-252.078	-100.504	-0.387	-0.095
-251.063	8.250	-0.232	-0.173
-250.049	800.000	-0.009	0.031
-249.034	102.423	-0.137	0.158
-248.019	-110.483	-0.116	0.024
-247.005	-200.000	0.043	-0.407
-245.990	7.807	0.214	-0.159
-244.976	152.227	-0.211	-0.285
-243.961	158.352	0.100	0.138
-242.946	-200.000	0.039	0.252
-241.932	2.749	0.046	0.033
-240.917	85.104	0.131	0.142
-239.903	-45.299	-0.417	-0.205
-238.888	5.797	0.207	-0.152
-237.873	-200.000	-0.028	-0.191
-236.859	560.831	0.131	0.313
-235.844	18.532	-0.153	0.121
-234.830	78.979	-0.132	-0.140
-233.815	-200.000	0.035	0.240
-232.800	37.870	0.241	-0.212
-231.786	9.283	0.313	0.234
-230.771	-51.926	0.256	0.118
-229.757	574.812	0.057	0.137
-228.742	172.675	0.198	-0.282
-227.727	-200.000	0.053	0.262
-226.713	-200.000	0.009	0.053
-225.698	-34.720	-0.305	0.165
-224.684	-136.002	0.220	0.026
-223.669	-200.000	0.015	-0.240
-222.655	-200.000	-0.010	0.088
-221.640	84.537	-0.099	-0.108
-220.625	-6.470	0.243	0.164
-219.611	174.050	0.303	0.434
-218.596	-2.641	-0.225	0.156
-217.582	369.669	-0.107	-0.215
-216.567	-110.923	0.423	0.086
-215.552	-200.000	-0.038	-0.185
-214.538	760.624	-0.067	0.179
-213.523	34.194	-0.138	0.119
-212.509	-80.280	-0.158	-0.052
-211.494	456.559	0.046	-0.102
-210.479	-200.000	0.035	0.215
-209.465	-200.000	0.000	-0.016
-208.450	313.961	0.080	-0.149
-207.436	-32.582	0.135	0.074
-206.421	-85.620	-0.275	0.084
-205.406	54.907	-0.130	0.124
-204.392	-68.812	0.273	0.104
-203.377	-200.000	0.049	-0.302
-202.363	-0.727	-0.168	-0.117
-201.348	-200.000	-0.007	-0.151
-200.333	800.000	-0.061	-0.198
-199.319	129.007	0.169	0.213
-198.304	158.505	0.025	-0.034
-197.290	59.917	-0.315	0.307
-196.275	-200.000	0.011	-0.117
-195.260	39.357	-0.113	-0.100
-194.246	156.615	-0.143	-0.195
-193.231	-200.000	-0.047	0.397
-192.217	302.609	0.116	-0.212
-191.202	264.484	-0.168	-0.289
-190.187	-111.093	0.167	0.034
-189.173	416.408	0.123	-0.259
-188.158	-200.000	-0.012	-0.054
-187.144	-200.000	-0.057	0.257
-186.129	88.340	-0.242	-0.265
-185.114	-149.749	0.275	-0.021
-184.100	-168.593	-0.153	0.006
-183.085	421.817	0.172	0.364
-182.071	-15.343	-0.198	0.125
-181.056	725.983	0.003	-0.008
-180.042	69.343	0.100	-0.102
-179.027	27.932	0.094	-0.079
-178.012	-92.103	0.050	0.014
-176.998	-159.337	-0.251	-0.014
-175.983	-200.000	0.009	0.075
-174.969	297.910	0.059	0.106
-173.954	676.639	0.118	-0.302
-172.939	800.000	-0.072	-0.309
-171.925	35.455	0.138	0.120
-170.910	-200.000	-0.002	0.083
-169.896	92.009	-0.098	0.109
-168.881	35.095	0.297	-0.257
-167.866	98.981	-0.097	-0.111
-166.852	-56.317	-0.056	0.024
-165.837	-121.054	-0.156	-0.026
-164.823	44.529	-0.329	-0.298
-163.808	800.000	-0.045	0.139
-162.793	-155.659	-0.304	-0.019
-161.779	47.730	0.220	-0.202
-160.764	19.096	-0.110	0.087
-159.750	800.000	-0.043	-0.135
-158.735	11.092	0.229	0.173
-157.720	-153.255	0.139	0.010
-156.706	-94.829	0.338	0.090
-155.691	168.537	-0.047	-0.066
-154.677	800.000	-0.071	-0.271
-153.662	115.711	-0.307	0.370
-152.647	-92.590	0.233	-0.065
-151.633	800.000	-0.039	-0.143
-150.618	25.853	0.129	0.106
-149.604	105.158	-0.195	0.227
-148.589	27.753	0.182	0.151
-147.574	1.698	0.188	0.134
-146.560	-99.937	-0.234	-0.058
-145.545	-118.489	0.255	-0.045
-144.531	-200.000	-0.032	-0.221
-143.516	-132.429	0.129	0.016
-142.502	-200.000	0.262	-0.000
-141.487	800.000	-0.087	-0.268
-140.472	107.722	0.022	-0.026
-139.458	-57.998	0.218	0.094
-138.443	-134.352	-0.108	0.013
-137.429	-44.963	0.454	0.223
-136.414	-88.907	-0.352	0.103
-135.399	-147.654	0.174	-0.014
-134.385	37.985	-0.095	0.083
-133.370	-101.706	-0.213	-0.051
-132.356	375.308	0.049	-0.098
-131.341	-200.000	-0.008	0.049
-130.326	-149.245	-0.192	-0.015
-129.312	-200.000	-0.048	0.333
-128.297	1.697	-0.255	0.181
-127.283	117.061	0.328	0.397
-126.268	-22.362	0.204	-0.122
-125.253	-200.000	0.039	-0.197
-124.239	563.676	-0.110	0.262
-123.224	-200.000	0.014	-0.204
-122.210	-81.043	-0.128	0.042
-121.195	256.415	-0.078	0.132
-120.180	667.675	-0.179	0.456
-119.166	-200.000	0.054	-0.237
-118.151	236.629	0.138	-0.224
-117.137	330.027	0.044	-0.082
-116.122	-157.289	-0.083	0.005
-115.107	-102.821	0.528	0.124
-114.093	153.703	0.146	0.197
-113.078	-200.000	-0.004	0.436
-112.064	-66.300	0.165	0.065
-111.049	148.252	0.075	0.100
-110.034	-137.752	0.100	-0.011
-109.020	-200.000	-0.001	-0.053
-108.005	-200.000	0.061	0.306
-106.991	-94.034	-0.292	0.079
-105.976	-200.000	0.004	0.078
-104.962	-91.041	-0.153	-0.043
-103.947	-158.144	-0.259	-0.015
-102.932	800.000	-0.040	-0.116
-101.918	111.313	0.064	0.075
-100.903	452.459	-0.013	0.029
-99.889	-99.668	0.254	0.063
-98.874	486.880	-0.050	0.112
-97.859	352.748	0.086	-0.168
-96.845	14.415	0.157	-0.121
-95.830	-200.000	-0.038	-0.230
-94.816	-151.958	-0.353	-0.025
-93.801	-123.975	0.273	-0.042
-92.786	-117.167	-0.124	-0.022
-91.772	-200.000	0.039	0.183
-90.757	-126.940	0.194	-0.028
-89.743	443.062	0.156	0.337
-88.728	-107.399	0.132	0.029
-87.713	48.260	-0.195	0.179
-86.699	-51.878	0.268	-0.123
-85.684	-200.000	0.038	0.311
-84.670	800.000	0.039	-0.129
-83.655	26.800	-0.135	0.111
-82.640	800.000	-0.071	-0.299
-81.626	800.000	0.115	0.344
-80.611	-200.000	-0.009	-0.256
-79.597	-65.926	0.326	0.128
-78.582	-35.061	0.123	-0.066
-77.567	228.557	-0.191	0.307
-76.553	18.228	0.114	-0.089
-75.538	230.160	-0.058	0.093
-74.524	-200.000	0.031	0.271
-73.509	129.255	-0.050	0.062
-72.494	40.833	-0.059	0.052
-71.480	63.340	-0.082	-0.081
-70.465	477.727	-0.169	0.376
-69.451	25.161	0.053	0.043
-68.436	-16.619	0.328	0.204
-67.422	111.246	0.363	-0.430
-66.407	138.409	0.042	0.054
-65.392	-23.437	-0.272	-0.161
-64.378	-71.198	-0.311	0.115
-63.363	-104.419	0.175	0.040
-62.349	9.654	-0.322	0.240
-61.334	8.405	-0.968	-0.716
-60.319	34.182	0.520	0.446
-59.305	780.320	-0.386	-1.039
-58.290	201.305	0.477	0.721
-57.276	412.268	0.717	1.497
-56.261	-200.000	95.443	593.453
-55.246	569.426	1371.477	3276.435
-54.232	160.318	2559.339	3506.936
-53.217	106.763	2271.240	2648.269
-52.203	41.565	1897.211	1687.651
-51.188	35.348	1687.710	1454.282
-50.173	32.754	1642.688	1396.256
-49.159	50.213	1689.183	1567.135
-48.144	51.939	1705.335	1594.999
-47.130	35.034	1666.388	1433.328
-46.115	32.281	1652.090	1400.498
-45.100	32.078	1647.121	1394.728
-44.086	32.135	1644.082	1392.522
-43.071	31.998	1642.005	1389.689
-42.057	32.027	1639.321	1387.581
-41.042	32.060	1637.121	1385.905
-40.027	31.997	1635.631	1384.126
-39.013	32.092	1633.247	1382.748
-37.998	31.901	1632.820	1380.930
-36.984	31.991	1631.293	1380.245
-35.969	32.162	1628.822	1379.358
-34.954	32.142	1627.335	1377.896
-33.940	32.107	1625.841	1376.316
-32.925	32.109	1624.321	1374.993
-31.911	32.121	1622.481	1373.470
-30.896	32.143	1620.457	1371.863
-29.881	32.095	1619.002	1370.222
-28.867	32.115	1616.871	1368.510
-27.852	32.119	1616.040	1367.785
-26.838	32.073	1614.609	1366.182
-25.823	32.068	1612.942	1364.683
-24.809	32.128	1611.900	1364.183
-23.794	32.134	1609.949	1362.519
-22.779	32.187	1608.486	1361.610
-21.765	32.163	1607.159	1360.257
-20.750	32.047	1605.873	1358.280
-19.736	32.195	1604.006	1357.719
-18.721	32.193	1603.053	1356.843
-17.706	32.147	1601.484	1355.125
-16.692	32.160	1599.764	1353.711
-15.677	32.014	1598.921	1351.894
-14.663	32.204	1597.169	1351.725
-13.648	32.187	1595.578	1350.205
-12.633	32.205	1593.790	1348.768
-11.619	32.207	1592.555	1347.684
-10.604	32.183	1591.143	1346.259
-9.590	32.072	1590.511	1344.875
-8.575	32.169	1588.585	1343.889
-7.560	32.211	1587.364	1343.102
-6.546	32.310	1585.702	1342.353
-5.531	32.149	1585.220	1340.741
-4.517	32.148	1583.874	1339.542
-3.502	32.136	1582.950	1338.624
-2.487	32.202	1581.626	1337.918
-1.473	32.022	1569.421	1326.268
-0.458	29.286	1550.567	1291.152
0.556	25.688	1551.023	1259.406
1.571	23.621	1574.842	1263.931
2.586	23.020	1587.878	1269.960
3.600	20.205	1533.576	1206.867
4.615	11.032	1421.708	1059.283
5.629	3.038	1357.425	961.458
6.644	1.651	1350.018	947.494
7.659	1.660	1348.314	946.272
8.673	1.561	1347.335	944.888
9.688	1.488	1345.332	942.946
10.702	1.344	1342.107	939.709
11.717	4.621	1348.875	964.722
12.731	14.783	1368.139	1042.084
13.746	23.557	1382.770	1108.196
14.761	26.100	1386.046	1126.625
15.775	26.422	1385.479	1128.070
16.790	26.381	1385.467	1127.704
17.804	26.602	1384.892	1128.515
18.819	26.719	1384.837	1129.102
19.834	26.873	1383.885	1129.187
20.848	26.824	1383.515	1128.477
21.863	26.909	1382.030	1127.694
22.877	26.805	1381.826	1126.783
23.892	26.942	1380.619	1126.547
24.907	26.851	1380.282	1125.608
25.921	26.866	1379.180	1124.705
26.936	26.706	1378.532	1123.085
27.950	26.854	1377.203	1122.819
28.965	26.750	1376.322	1121.358
29.980	26.832	1374.610	1120.371
30.994	26.843	1373.268	1119.248
32.009	26.896	1372.026	1118.458
33.023	26.778	1371.219	1116.980
34.038	26.890	1369.949	1116.535
35.053	26.760	1369.222	1115.040
36.067	26.783	1368.468	1114.473
37.082	26.809	1367.512	1113.752
38.096	26.843	1366.080	1112.695
39.111	26.875	1365.531	1112.348
40.126	26.817	1364.860	1111.349
41.140	26.845	1364.389	1111.035
42.155	26.837	1364.490	1110.974
43.169	26.723	1364.689	1110.340
44.184	26.820	1363.807	1110.114
45.199	26.889	1363.456	1110.154
46.213	26.818	1363.188	1109.404
47.228	26.877	1362.088	1108.773
48.242	26.840	1360.826	1107.421
49.257	26.894	1359.278	1106.392
50.271	26.730	1358.203	1104.417
51.286	26.791	1356.518	1103.319
52.301	26.950	1354.939	1102.904
53.315	26.872	1354.587	1102.047
54.330	26.829	1354.035	1101.242
55.344	26.860	1352.683	1100.233
56.359	26.848	1351.916	1099.438
57.374	26.834	1351.030	1098.531
58.388	26.939	1350.154	1098.361
59.403	26.839	1349.942	1097.484
60.417	26.827	1349.097	1096.628
61.432	26.877	1348.368	1096.239
62.447	26.878	1347.360	1095.334
63.461	26.774	1346.559	1093.956
64.476	26.890	1345.466	1093.668
65.490	26.844	1344.284	1092.336
66.505	26.816	1342.809	1090.869
67.520	26.937	1341.708	1090.611
68.534	26.837	1340.364	1088.817
69.549	26.879	1339.688	1088.426
70.563	27.025	1338.693	1088.398
71.578	26.914	1338.076	1087.130
72.593	26.923	1336.948	1086.175
73.607	26.896	1336.559	1085.598
74.622	26.923	1335.205	1084.568
75.636	26.838	1335.147	1083.913
76.651	26.878	1334.375	1083.430
77.666	26.802	1333.670	1082.312
78.680	26.952	1333.067	1082.618
79.695	26.755	1332.638	1080.998
80.709	26.893	1331.569	1080.859
81.724	26.913	1330.760	1080.228
82.739	26.871	1330.184	1079.413
83.753	26.870	1329.125	1078.454
84.768	26.820	1327.798	1076.982
85.782	26.855	1326.817	1076.299
86.797	26.844	1325.846	1075.353
87.812	26.889	1324.688	1074.581
88.826	26.983	1323.652	1074.204
89.841	26.995	1322.666	1073.383
90.855	26.858	1321.975	1071.916
91.870	26.897	1320.441	1070.810
92.884	26.871	1320.119	1070.298
93.899	26.974	1319.091	1069.974
94.914	26.905	1318.737	1069.189
95.928	26.910	1317.630	1068.227
96.943	26.945	1316.755	1067.630
97.957	26.955	1315.721	1066.751
98.972	26.909	1315.401	1066.132
99.987	26.992	1314.119	1065.482
101.001	26.914	1313.399	1064.347
102.016	26.853	1312.667	1063.301
103.030	26.908	1311.860	1062.878
104.045	26.896	1310.892	1061.928
105.060	27.013	1309.737	1061.583
106.074	26.853	1309.630	1060.465
107.089	26.953	1307.930	1059.581
108.103	26.979	1306.791	1058.716
109.118	26.911	1306.444	1057.946
110.133	26.958	1304.927	1056.893
111.147	26.993	1303.641	1055.964
112.162	27.011	1302.576	1055.114
113.176	26.999	1301.734	1054.268
114.191	26.979	1300.949	1053.423
115.206	26.951	1300.307	1052.648
116.220	26.967	1298.930	1051.535
117.235	27.029	1297.913	1050.973
118.249	26.934	1297.017	1049.605
119.264	26.972	1296.331	1049.179
120.279	27.145	1295.335	1049.278
121.293	27.017	1295.063	1048.225
122.308	27.087	1293.956	1047.640
123.322	27.086	1293.203	1046.934
124.337	27.006	1292.646	1045.927
125.352	27.083	1291.536	1045.384
126.366	27.081	1290.073	1044.093
127.381	27.076	1289.723	1043.691
128.395	27.063	1288.980	1042.923
129.410	27.015	1288.243	1041.959
130.424	27.115	1287.296	1041.670
131.439	27.061	1286.508	1040.635
132.454	27.017	1286.019	1039.893
133.468	27.060	1285.170	1039.358
134.483	27.020	1284.726	1038.679
135.497	27.011	1284.154	1038.077
136.512	27.003	1282.336	1036.465
137.527	27.050	1281.291	1035.799
138.541	26.979	1280.556	1034.708
139.556	26.916	1279.419	1033.343
140.570	26.948	1278.619	1032.784
141.585	27.041	1277.497	1032.312
142.600	26.974	1276.626	1031.140
143.614	27.088	1275.212	1030.552
144.629	27.075	1274.314	1029.660
145.643	26.882	1273.671	1027.961
146.658	26.986	1272.478	1027.495
147.673	26.913	1271.707	1026.370
148.687	27.001	1270.502	1025.803
149.702	26.924	1269.487	1024.459
150.716	26.881	1268.648	1023.447
151.731	27.045	1267.484	1023.342
152.746	26.895	1266.606	1021.698
153.760	27.015	1265.245	1021.183
154.775	27.126	1264.036	1020.740
155.789	27.064	1263.459	1019.838
156.804	26.915	1263.268	1018.757
157.819	26.859	1262.438	1017.683
158.833	27.132	1261.326	1018.227
159.848	27.138	1260.709	1017.668
160.862	27.116	1259.942	1016.836
161.877	27.179	1258.685	1016.083
162.892	27.093	1258.146	1015.080
163.906	27.139	1257.445	1014.679
164.921	27.177	1256.413	1013.971
165.935	27.092	1255.840	1012.945
166.950	27.090	1255.427	1012.513
167.964	27.186	1254.690	1012.360
168.979	27.182	1253.757	1011.495
169.994	27.119	1253.840	1011.124
171.008	27.174	1252.796	1010.499
172.023	27.255	1251.793	1010.051
173.037	27.098	1251.581	1008.919
174.052	27.203	1250.621	1008.635
175.067	27.150	1249.889	1007.665
176.081	27.163	1249.050	1006.970
177.096	27.157	1248.310	1006.251
178.110	27.050	1247.696	1005.076
179.125	27.187	1246.534	1004.809
180.140	27.195	1245.273	1003.745
181.154	27.189	1244.486	1002.988
182.169	27.193	1243.078	1001.789
183.183	27.162	1242.323	1000.921
184.198	27.248	1241.503	1000.644
185.213	27.137	1240.234	998.921
186.227	27.261	1239.685	999.074
187.242	27.265	1238.245	997.845
188.256	27.281	1237.654	997.373
189.271	27.244	1237.011	996.561
190.286	27.281	1236.560	996.312
191.300	27.231	1236.007	995.504
192.315	27.199	1235.444	994.788
193.329	27.215	1235.192	994.585
194.344	27.284	1234.717	994.490
195.359	27.280	1234.243	994.002
196.373	27.204	1233.626	992.998
197.388	27.320	1232.893	992.956
198.402	27.259	1232.926	992.563
199.417	27.220	1232.322	991.774
200.432	27.180	1232.027	991.231
201.446	27.181	1231.464	990.694
202.461	27.274	1230.351	990.217
203.475	27.165	1229.705	989.018
204.490	27.224	1228.301	988.120
205.504	27.151	1227.721	987.171
206.519	27.311	1226.945	987.327
207.534	27.420	1225.770	986.885
208.548	27.367	1224.780	985.715
209.563	27.351	1224.048	984.950
210.577	27.316	1223.210	984.000
211.592	27.315	1222.554	983.384
212.607	27.386	1221.779	983.052
213.621	27.359	1220.766	982.007
214.636	27.422	1220.173	981.783
215.650	27.378	1219.633	981.025
216.665	27.322	1218.498	979.723
217.680	27.442	1217.310	979.328
218.694	27.464	1216.712	978.877
219.709	27.439	1216.013	978.094
220.723	27.516	1215.502	978.010
221.738	27.385	1214.908	976.742
222.753	27.248	1214.013	975.204
223.767	27.378	1213.357	975.287
224.782	27.439	1213.013	975.248
225.796	27.525	1212.320	975.064
226.811	27.515	1211.833	974.531
227.826	27.458	1211.744	974.073
228.840	27.461	1210.860	973.291
229.855	27.458	1209.875	972.398
230.869	27.507	1209.260	972.077
231.884	27.400	1208.636	970.920
232.899	27.437	1207.826	970.379
233.913	27.577	1207.261	970.587
234.928	27.675	1206.496	970.407
235.942	27.509	1206.224	969.220
236.957	27.468	1205.611	968.423
237.972	27.486	1205.012	967.953
238.986	27.618	1203.831	967.617
240.001	27.569	1203.352	966.887
241.015	27.590	1202.970	966.604
242.030	27.588	1201.936	965.678
243.045	27.667	1201.308	965.504
244.059	27.627	1200.586	964.628
245.074	27.666	1199.628	963.982
246.088	27.840	1198.654	964.034
247.103	27.652	1197.940	962.378
248.117	27.755	1197.273	962.302
249.132	27.695	1196.687	961.430
250.147	27.688	1196.092	960.832
251.161	27.718	1195.361	960.318
252.176	27.700	1194.675	959.588
253.190	27.622	1194.047	958.584
254.205	27.711	1193.453	958.490
255.220	27.765	1193.262	958.535
256.234	27.725	1192.165	957.360
257.249	27.675	1191.817	956.733
258.263	27.755	1191.083	956.478
259.278	27.874	1190.254	956.352
260.293	27.817	1189.759	955.570
261.307	27.741	1189.755	955.088
262.322	27.702	1189.067	954.248
263.336	27.806	1188.004	953.852
264.351	27.788	1187.518	953.281
265.366	27.813	1187.113	953.005
266.380	27.826	1186.037	952.125
267.395	27.815	1185.356	951.433
268.409	27.693	1184.899	950.348
269.424	27.806	1184.367	950.424
270.439	27.825	1183.851	950.030
271.453	27.854	1183.358	949.700
272.468	28.006	1181.961	949.283
273.482	27.695	1181.728	947.394
274.497	27.763	1181.661	947.614
275.512	27.964	1180.679	947.782
276.526	27.859	1180.022	946.626
277.541	27.818	1179.548	945.954
278.555	27.932	1179.064	946.072
279.570	28.004	1177.961	945.476
280.585	27.975	1177.230	944.653
281.599	27.867	1176.831	943.690
282.614	27.708	1176.165	942.252
283.628	27.859	1174.559	941.660
284.643	28.063	1173.724	941.959
285.657	27.932	1173.276	940.840
286.672	27.989	1172.201	940.188
287.687	28.049	1171.303	939.696
288.701	28.083	1170.707	939.307
289.716	27.968	1170.133	938.172
290.730	28.031	1169.750	938.108
291.745	27.921	1168.823	936.718
292.760	28.046	1168.324	936.876
293.774	28.084	1167.767	936.538
294.789	28.066	1167.250	935.953
295.803	28.092	1166.764	935.611
296.818	28.104	1166.176	935.116
297.833	28.090	1165.589	934.494
298.847	28.109	1164.814	933.886
299.862	28.149	1163.621	933.050
300.876	28.148	1163.405	932.790
301.891	28.151	1162.663	932.129
302.906	28.253	1161.951	931.994
303.920	28.228	1161.623	931.522
304.935	28.250	1160.657	930.774
305.949	28.182	1160.065	929.872
306.964	28.160	1159.582	929.292
307.979	28.230	1158.707	928.866
308.993	28.187	1158.160	928.127
310.008	28.307	1157.572	928.178
311.022	28.067	1157.336	926.695
312.037	28.208	1156.169	926.390
313.052	28.256	1155.413	925.946
314.066	28.332	1154.009	925.122
315.081	28.311	1153.804	924.770
316.095	28.250	1153.073	923.794
317.110	28.209	1152.699	923.205
318.125	28.269	1152.014	922.878
319.139	28.284	1151.470	922.438
320.154	28.346	1150.480	921.872
321.168	28.311	1150.361	921.522
322.183	28.230	1149.941	920.692
323.197	28.300	1149.077	920.271
324.212	28.349	1148.744	920.170
325.227	28.283	1148.257	919.367
326.241	28.391	1147.712	919.390
327.256	28.369	1147.034	918.656
328.270	28.373	1145.866	917.660
329.285	28.485	1144.561	917.096
330.300	28.481	1144.058	916.593
331.314	28.403	1143.709	915.842
332.329	28.491	1142.796	915.468
333.343	28.445	1142.135	914.629
334.358	28.407	1141.677	913.989
335.373	28.412	1141.001	913.394
336.387	28.546	1140.148	913.297
337.402	28.429	1139.506	912.117
338.416	28.612	1138.501	912.144
339.431	28.523	1138.338	911.491
340.446	28.565	1137.434	910.893
341.460	28.594	1137.047	910.650
342.475	28.587	1136.162	909.822
343.489	28.550	1135.128	908.730
344.504	28.568	1134.449	908.198
345.519	28.687	1133.393	907.862
346.533	28.704	1132.989	907.541
347.548	28.597	1132.212	906.311
348.562	28.693	1131.358	906.017
349.577	28.651	1130.549	905.084
350.592	28.650	1129.564	904.209
351.606	28.593	1129.349	903.676
352.621	28.610	1128.997	903.401
353.635	28.709	1128.149	903.127
354.650	28.787	1127.229	902.693
355.665	28.729	1126.791	901.981
356.679	28.736	1126.461	901.672
357.694	28.902	1125.583	901.699
358.708	28.815	1125.028	900.751
359.723	28.646	1124.507	899.425
360.738	28.635	1123.781	898.709
361.752	28.806	1123.331	899.110
362.767	28.844	1122.639	898.659
363.781	28.785	1122.109	897.870
364.796	28.806	1121.953	897.765
365.810	28.837	1121.133	897.184
366.825	28.864	1120.555	896.771
367.840	28.934	1119.972	896.568
368.854	28.998	1119.129	896.126
369.869	28.943	1118.594	895.349
370.883	28.926	1117.526	894.334
371.898	28.913	1116.784	893.597
372.913	28.922	1116.412	893.266
373.927	28.916	1116.328	893.088
374.942	29.006	1115.762	892.996
375.956	29.012	1115.146	892.453
376.971	28.902	1114.605	891.405
377.986	28.920	1114.246	891.125
379.000	28.996	1113.646	890.938
380.015	29.009	1112.822	890.260
381.029	28.981	1112.245	889.584
382.044	28.966	1112.069	889.295
383.059	29.125	1110.531	888.752
384.073	29.147	1110.459	888.722
385.088	29.119	1109.552	887.781
386.102	29.066	1108.875	886.907
387.117	29.034	1107.649	885.693
388.132	29.010	1107.219	885.158
389.146	29.000	1106.565	884.507
390.161	29.017	1106.221	884.238
391.175	29.219	1105.136	884.258
392.190	29.147	1104.447	883.285
393.205	29.206	1103.698	882.890
394.219	29.173	1103.007	882.101
395.234	29.313	1102.064	881.939
396.248	29.173	1101.660	880.868
397.263	29.283	1100.808	880.632
398.278	29.322	1100.183	880.242
399.292	29.203	1099.732	879.236
400.307	29.302	1098.990	879.036
401.321	29.288	1098.231	878.288
402.336	29.272	1097.862	877.835
403.350	29.323	1097.131	877.415
404.365	29.282	1096.629	876.742
405.380	29.250	1095.432	875.555
406.394	29.409	1094.838	875.762
407.409	29.410	1094.193	875.170
408.423	29.520	1093.401	874.983
409.438	29.415	1092.909	874.012
410.453	29.481	1092.485	873.907
411.467	29.519	1091.280	873.049
412.482	29.438	1091.117	872.459
413.496	29.339	1090.206	871.182
414.511	29.463	1089.690	871.280
415.526	29.525	1089.140	871.056
416.540	29.494	1088.455	870.284
417.555	29.441	1088.563	870.045
418.569	29.485	1087.994	869.720
419.584	29.489	1087.545	869.300
420.599	29.557	1087.020	869.123
421.613	103.554	1322.485	1458.958
422.628	96.416	1356.760	1459.040
