DTS Sentinel unit serial number:	SN413079Multiplexer serial number:	ORYXHardware model number:	OX4-SRSoftware version number:	ORYX F/W v4.00 Oryx Data Collector v3.7.2.0data status	okinstallation	princeton_trtdifferential loss correction	single-endedforward channel	channel 2reverse channel	N/Adate	2019/09/11time	07:01:11forward acquisition time	60.00reverse acquisition time	0.00gamma	496.2192k internal	0.2327k external	0.2327temperature offset calibration	0.9939default loss term (dB/km)	0.3790temperature slope calibration	1.0000multiplexer offset coefficient	1.0000multiplexer slope coefficient	1.0000fibre end	0.00T internal ref (°C)	30.16T ext. ref 1 (°C)	-0.10T ext. ref 2 (°C)	25.96length (m)	temperature (°C)	Stokes	anti-Stokes-747.200	-30.134	-0.157	0.090
-746.185	-29.708	0.154	0.088
-745.171	-200.000	-0.027	-0.570
-744.156	141.721	-0.192	0.257
-743.142	-109.853	0.500	-0.106
-742.127	-4.911	-0.340	0.236
-741.112	800.000	0.035	-0.111
-740.098	191.604	-0.122	0.185
-739.083	-180.973	0.036	-0.001
-738.069	0.541	-0.146	0.105
-737.054	-126.261	0.098	-0.015
-736.039	141.937	-0.082	0.110
-735.025	-66.412	-0.231	-0.093
-734.010	800.000	-0.056	0.183
-732.996	-118.601	-0.324	-0.058
-731.981	35.782	-0.133	-0.118
-730.966	55.875	-0.080	0.078
-729.952	-200.000	0.002	-0.113
-728.937	-200.000	-0.010	0.270
-727.923	800.000	0.048	-0.180
-726.908	405.956	-0.044	0.093
-725.894	694.642	0.083	-0.218
-724.879	-186.008	-0.320	0.005
-723.864	234.016	0.066	0.110
-722.850	800.000	0.091	-0.265
-721.835	800.000	0.115	-0.354
-720.821	246.342	-0.165	0.281
-719.806	-200.000	0.012	0.190
-718.791	-142.349	-0.119	0.012
-717.777	26.549	-0.194	-0.164
-716.762	118.446	-0.024	0.029
-715.748	-43.714	0.320	-0.163
-714.733	-34.722	0.249	-0.137
-713.718	184.001	-0.094	-0.140
-712.704	-27.219	-0.305	-0.179
-711.689	-200.000	0.028	-0.163
-710.675	-96.510	0.197	0.052
-709.660	117.588	0.199	0.246
-708.645	-121.216	-0.303	-0.051
-707.631	69.273	-0.049	-0.051
-706.616	1.176	0.238	-0.172
-705.602	-144.273	-0.330	-0.031
-704.587	-3.754	-0.110	0.077
-703.572	13.949	0.140	-0.110
-702.558	-200.000	0.040	0.342
-701.543	-171.090	-0.112	-0.004
-700.529	420.333	0.168	-0.361
-699.514	-124.044	0.299	0.047
-698.499	-16.174	0.104	-0.067
-697.485	-125.029	0.081	-0.013
-696.470	-142.893	-0.411	-0.040
-695.456	-92.598	0.421	-0.119
-694.441	124.611	0.006	-0.007
-693.426	-131.316	-0.274	-0.037
-692.412	-200.000	-0.030	0.190
-691.397	-200.000	-0.011	0.473
-690.383	-16.460	0.250	0.159
-689.368	-11.275	-0.104	0.069
-688.354	800.000	0.038	0.132
-687.339	156.640	0.147	-0.205
-686.324	-91.368	0.133	-0.038
-685.310	800.000	-0.023	-0.082
-684.295	114.627	0.231	0.284
-683.281	149.258	-0.107	-0.145
-682.266	2.908	0.311	-0.227
-681.251	-147.946	-0.110	0.009
-680.237	-0.079	-0.247	0.177
-679.222	398.337	-0.053	0.111
-678.208	96.301	0.151	0.174
-677.193	-95.450	0.297	-0.080
-676.178	-93.891	-0.157	0.043
-675.164	-200.000	0.025	-0.224
-674.149	414.774	-0.013	0.028
-673.135	-186.256	0.171	-0.002
-672.120	-200.000	0.029	0.143
-671.105	0.647	-0.264	0.190
-670.091	303.047	0.127	0.237
-669.076	778.012	-0.107	0.293
-668.062	229.326	0.119	-0.195
-667.047	-200.000	-0.016	-0.268
-666.032	-68.861	0.203	0.079
-665.018	54.562	0.247	0.239
-664.003	-134.459	-0.209	0.026
-662.989	116.125	0.082	-0.101
-661.974	1.977	-0.051	0.037
-660.959	137.494	-0.047	0.061
-659.945	-39.082	-0.119	0.063
-658.930	-154.527	-0.223	-0.015
-657.916	-140.174	-0.217	0.023
-656.901	301.660	0.074	-0.137
-655.886	-144.182	0.186	0.018
-654.872	99.812	-0.188	-0.219
-653.857	7.460	-0.172	0.129
-652.843	-51.709	0.048	0.023
-651.828	525.240	-0.042	-0.100
-650.814	-102.850	0.190	-0.045
-649.799	-200.000	-0.120	-0.000
-648.784	246.360	-0.047	-0.080
-647.770	-94.982	-0.224	0.061
-646.755	-2.949	-0.150	0.105
-645.741	-118.877	-0.163	-0.029
-644.726	-21.423	-0.426	-0.261
-643.711	-45.615	-0.134	-0.066
-642.697	-180.121	0.138	-0.003
-641.682	-48.427	-0.024	0.012
-640.668	-200.000	-0.048	0.230
-639.653	-128.193	-0.235	0.034
-638.638	539.807	-0.104	0.248
-637.624	-66.721	0.092	-0.036
-636.609	732.130	-0.066	0.178
-635.595	210.400	0.048	0.076
-634.580	404.072	0.113	-0.238
-633.565	145.940	-0.095	0.128
-632.551	347.684	-0.054	-0.107
-631.536	13.829	-0.243	0.190
-630.522	341.926	0.016	0.031
-629.507	-72.592	-0.082	-0.030
-628.492	-31.328	0.281	-0.159
-627.478	245.053	0.097	0.163
-626.463	-88.271	-0.306	0.092
-625.449	-200.000	0.005	-0.159
-624.434	731.644	0.052	-0.140
-623.419	319.432	-0.142	0.270
-622.405	282.089	0.157	0.283
-621.390	30.493	-0.037	0.032
-620.376	570.364	-0.039	-0.096
-619.361	29.732	0.250	-0.214
-618.346	800.000	0.032	0.128
-617.332	800.000	0.034	-0.134
-616.317	63.212	-0.297	-0.298
-615.303	-112.232	0.148	0.030
-614.288	-200.000	-0.020	-0.232
-613.273	-65.741	-0.089	-0.036
-612.259	43.976	-0.074	-0.068
-611.244	-200.000	0.036	-0.234
-610.230	-27.079	0.163	-0.095
-609.215	239.234	-0.065	0.109
-608.201	-97.096	-0.117	0.031
-607.186	800.000	0.051	-0.176
-606.171	59.355	0.312	-0.308
-605.157	-200.000	-0.022	-0.199
-604.142	121.422	0.026	0.033
-603.128	-67.164	0.145	-0.057
-602.113	-90.874	0.031	-0.009
-601.098	11.393	-0.080	0.062
-600.084	800.000	0.108	0.439
-599.069	31.307	0.200	-0.172
-598.055	-95.816	0.105	0.028
-597.040	-9.533	-0.203	-0.136
-596.025	-200.000	-0.044	0.273
-595.011	-169.480	0.182	0.007
-593.996	-12.299	-0.072	-0.047
-592.982	494.899	-0.071	-0.163
-591.967	210.233	-0.164	-0.258
-590.952	-38.481	0.253	0.134
-589.938	-124.535	0.163	0.025
-588.923	259.025	0.164	-0.283
-587.909	-92.839	-0.222	-0.062
-586.894	483.104	0.020	-0.044
-585.879	800.000	-0.091	-0.380
-584.865	-200.000	0.014	-0.111
-583.850	-60.643	-0.233	-0.099
-582.836	-66.224	0.039	0.016
-581.821	4.368	-0.114	0.084
-580.806	-118.756	0.162	-0.029
-579.792	-142.056	-0.429	0.043
-578.777	-200.000	0.050	-0.349
-577.763	-6.160	0.161	-0.110
-576.748	130.608	0.155	-0.199
-575.733	-179.766	0.143	-0.003
-574.719	149.370	0.042	-0.057
-573.704	200.900	-0.029	-0.044
-572.690	800.000	-0.024	-0.084
-571.675	-11.903	-0.365	-0.240
-570.661	-2.995	-0.036	0.025
-569.646	-112.065	-0.211	0.042
-568.631	-200.000	-0.004	-0.253
-567.617	91.430	-0.187	-0.211
-566.602	122.085	-0.130	-0.163
-565.588	-114.935	0.425	-0.081
-564.573	99.036	-0.032	0.037
-563.558	295.342	0.151	0.276
-562.544	469.992	0.175	0.394
-561.529	-200.000	-0.001	0.122
-560.515	429.875	0.167	-0.362
-559.500	-35.662	0.072	0.039
-558.485	-35.716	-0.339	0.184
-557.471	-16.867	-0.160	0.101
-556.456	-52.451	0.338	-0.156
-555.442	291.002	-0.232	-0.422
-554.427	137.246	0.145	-0.189
-553.412	-64.653	0.400	-0.162
-552.398	-145.390	-0.159	-0.014
-551.383	106.630	-0.294	-0.349
-550.369	123.145	-0.047	0.059
-549.354	-29.641	-0.074	0.042
-548.339	-23.269	-0.068	0.041
-547.325	-68.626	0.187	-0.072
-546.310	-103.413	-0.106	0.025
-545.296	214.668	-0.013	0.020
-544.281	452.395	-0.060	0.134
-543.266	-92.181	-0.257	0.073
-542.252	-15.416	0.107	0.068
-541.237	-75.815	0.194	-0.069
-540.223	-200.000	0.008	-0.358
-539.208	683.527	-0.029	-0.076
-538.193	-200.000	0.016	-0.157
-537.179	-73.755	0.140	0.051
-536.164	-36.935	-0.190	0.102
-535.150	-200.000	-0.034	-0.367
-534.135	33.882	-0.258	0.225
-533.121	248.222	0.127	-0.215
-532.106	-81.878	-0.183	-0.060
-531.091	-139.277	-0.071	0.008
-530.077	-43.403	-0.260	-0.131
-529.062	-55.085	0.175	-0.079
-528.048	-200.000	-0.015	-0.197
-527.033	277.904	-0.042	0.075
-526.018	449.155	-0.171	-0.378
-525.004	589.504	0.111	-0.274
-523.989	173.188	0.108	-0.156
-522.975	-200.000	0.019	-0.104
-521.960	-200.000	-0.013	-0.121
-520.945	-58.634	0.148	-0.064
-519.931	-44.352	0.156	-0.078
-518.916	-21.937	-0.334	-0.203
-517.902	800.000	-0.070	-0.268
-516.887	800.000	0.088	0.273
-515.872	-116.295	-0.148	-0.027
-514.858	-31.439	0.355	-0.199
-513.843	-68.272	0.094	-0.037
-512.829	-99.870	0.176	-0.044
-511.814	-200.000	0.025	-0.308
-510.799	-200.000	-0.039	0.299
-509.785	800.000	0.065	0.246
-508.770	281.501	0.090	-0.162
-507.756	306.560	-0.105	0.196
-506.741	351.469	0.036	-0.070
-505.726	-200.000	-0.026	-0.319
-504.712	-106.596	0.279	-0.062
-503.697	576.233	0.049	0.119
-502.683	-63.033	-0.447	-0.184
-501.668	-151.706	0.385	-0.028
-500.653	480.254	-0.069	-0.157
-499.639	800.000	0.080	0.225
-498.624	123.706	-0.146	-0.183
-497.610	-200.000	0.056	-0.289
-496.595	-37.348	-0.130	-0.069
-495.581	-74.017	0.064	0.023
-494.566	-200.000	0.104	0.467
-493.551	-83.214	-0.244	-0.078
-492.537	-152.536	-0.195	0.014
-491.522	86.885	-0.111	-0.122
-490.508	615.274	-0.057	0.144
-489.493	166.462	-0.116	0.165
-488.478	305.364	0.035	0.064
-487.464	800.000	-0.035	-0.136
-486.449	-200.000	-0.030	-0.257
-485.435	-156.898	-0.232	-0.014
-484.420	644.765	-0.120	-0.305
-483.405	-200.000	-0.039	0.277
-482.391	284.474	-0.091	0.163
-481.376	105.033	0.169	-0.199
-480.362	-54.151	0.087	0.040
-479.347	176.106	0.222	0.321
-478.332	517.952	-0.121	0.284
-477.318	800.000	-0.061	-0.207
-476.303	444.362	0.141	-0.310
-475.289	-200.000	-0.006	0.043
-474.274	-200.000	-0.012	0.199
-473.259	-200.000	0.036	0.233
-472.245	-200.000	-0.005	-0.022
-471.230	-83.823	0.137	0.043
-470.216	529.265	-0.132	-0.311
-469.201	-196.689	0.178	-0.001
-468.186	-81.740	0.187	-0.061
-467.172	-200.000	0.018	-0.357
-466.157	117.181	-0.036	0.045
-465.143	-200.000	-0.015	-0.145
-464.128	68.651	-0.063	-0.064
-463.113	692.531	-0.101	0.263
-462.099	-14.430	0.029	0.019
-461.084	-24.881	0.142	0.084
-460.070	114.868	0.062	-0.075
-459.055	-149.602	0.143	0.011
-458.040	572.184	-0.145	0.353
-457.026	800.000	-0.015	0.060
-456.011	171.262	-0.042	-0.060
-454.997	-51.332	0.300	-0.140
-453.982	-141.735	0.453	-0.045
-452.968	158.675	0.135	-0.187
-451.953	414.964	-0.015	0.031
-450.938	-200.000	0.008	0.510
-449.924	800.000	-0.051	0.143
-448.909	-45.080	-0.075	0.037
-447.895	-29.982	-0.349	-0.198
-446.880	150.752	-0.072	0.097
-445.865	-39.253	-0.176	0.092
-444.851	3.158	-0.057	-0.042
-443.836	-106.879	-0.160	-0.035
-442.822	218.929	0.047	-0.075
-441.807	-88.450	-0.145	0.043
-440.792	800.000	0.099	0.276
-439.778	800.000	0.052	0.157
-438.763	-137.059	0.422	-0.048
-437.749	-104.326	-0.031	-0.007
-436.734	-66.764	-0.148	0.058
-435.719	-200.000	0.017	0.151
-434.705	240.379	0.162	-0.270
-433.690	231.465	0.117	0.191
-432.676	-65.204	0.228	0.092
-431.661	-65.288	0.207	0.083
-430.646	-200.000	-0.012	0.099
-429.632	238.648	0.042	-0.070
-428.617	-156.804	0.058	0.004
-427.603	-181.651	0.217	0.004
-426.588	129.946	0.133	-0.170
-425.573	79.130	-0.122	-0.130
-424.559	-5.739	0.254	0.173
-423.544	800.000	-0.141	0.406
-422.530	-114.338	-0.210	-0.040
-421.515	-47.439	0.283	0.137
-420.500	554.513	-0.134	0.321
-419.486	-110.703	0.200	-0.041
-418.471	-78.322	0.026	0.009
-417.457	-43.904	-0.268	-0.134
-416.442	156.835	-0.099	0.137
-415.428	86.848	0.369	0.405
-414.413	358.136	-0.146	0.290
-413.398	800.000	-0.068	0.194
-412.384	259.391	-0.111	-0.191
-411.369	-200.000	0.009	-0.049
-410.355	800.000	-0.023	-0.069
-409.340	40.592	-0.073	0.065
-408.325	-200.000	0.004	-0.077
-407.311	85.059	0.156	0.171
-406.296	278.474	-0.095	-0.168
-405.282	-130.865	-0.012	-0.002
-404.267	44.957	-0.135	0.124
-403.252	107.491	0.103	-0.122
-402.238	491.374	-0.063	-0.143
-401.223	-200.000	-0.018	-0.302
-400.209	128.901	0.138	0.175
-399.194	800.000	-0.058	-0.159
-398.179	-5.442	-0.273	0.186
-397.165	-111.542	-0.536	-0.108
-396.150	171.191	0.117	-0.167
-395.136	-89.247	0.310	-0.091
-394.121	13.875	0.243	0.188
-393.106	-200.000	-0.083	0.376
-392.092	-200.000	0.006	0.101
-391.077	210.859	0.033	-0.052
-390.063	181.641	0.142	0.207
-389.048	-200.000	0.067	0.311
-388.033	-47.847	-0.239	-0.115
-387.019	-13.622	-0.116	-0.075
-386.004	287.538	-0.097	0.175
-384.990	-200.000	0.009	-0.393
-383.975	-200.000	-0.017	0.091
-382.960	-84.209	0.275	0.087
-381.946	-45.927	0.138	0.067
-380.931	343.891	0.043	0.084
-379.917	5.217	-0.264	0.193
-378.902	-200.000	-0.032	-0.182
-377.888	-120.040	-0.229	-0.039
-376.873	-71.246	0.289	0.108
-375.858	-108.952	0.217	-0.046
-374.844	-54.096	-0.164	-0.074
-373.829	426.302	-0.120	-0.258
-372.815	118.483	0.151	-0.185
-371.800	53.806	0.084	0.080
-370.785	-146.699	0.402	0.035
-369.771	-11.572	0.235	0.153
-368.756	-200.000	0.016	0.324
-367.742	223.527	0.156	0.250
-366.727	-15.953	0.115	-0.072
-365.712	-200.000	0.044	0.329
-364.698	-200.000	-0.015	-0.180
-363.683	-71.280	-0.410	0.153
-362.669	91.932	0.101	-0.113
-361.654	800.000	-0.080	0.319
-360.639	-169.727	-0.030	0.001
-359.625	190.375	-0.110	0.164
-358.610	-49.747	0.076	0.036
-357.596	98.912	0.053	-0.061
-356.581	17.641	0.088	-0.070
-355.566	-77.604	-0.156	-0.054
-354.552	-147.234	0.136	-0.012
-353.537	-20.501	0.243	-0.148
-352.523	117.467	0.113	-0.138
-351.508	-131.438	-0.068	-0.009
-350.493	10.150	0.190	0.144
-349.479	80.252	-0.125	0.134
-348.464	121.327	-0.147	-0.181
-347.450	-21.187	-0.094	0.057
-346.435	-200.000	0.043	0.397
-345.420	211.098	0.162	0.252
-344.406	480.351	-0.166	0.374
-343.391	800.000	-0.023	-0.075
-342.377	373.069	-0.190	-0.383
-341.362	-99.231	0.213	0.054
-340.348	-100.589	0.186	0.046
-339.333	175.693	-0.046	0.067
-338.318	-67.310	0.079	0.031
-337.304	128.778	-0.276	0.349
-336.289	-14.983	-0.099	-0.063
-335.275	143.146	-0.091	-0.120
-334.260	87.828	-0.175	-0.193
-333.245	-40.672	-0.065	-0.034
-332.231	85.002	-0.123	-0.134
-331.216	-94.662	0.308	-0.083
-330.202	-87.529	-0.112	0.034
-329.187	-200.000	0.080	0.456
-328.172	-79.438	0.292	0.098
-327.158	344.333	-0.098	-0.190
-326.143	57.003	-0.129	0.124
-325.129	800.000	-0.057	-0.217
-324.114	529.824	0.188	0.440
-323.099	-59.932	-0.280	0.119
-322.085	-200.000	0.029	-0.411
-321.070	93.136	0.084	-0.094
-320.056	-46.244	0.144	0.070
-319.041	-62.493	-0.252	0.104
-318.026	-44.471	-0.312	-0.155
-317.012	29.645	0.219	0.185
-315.997	800.000	-0.038	0.133
-314.983	-200.000	-0.056	-0.447
-313.968	-36.048	-0.151	-0.081
-312.953	-104.505	-0.151	-0.035
-311.939	800.000	-0.030	0.113
-310.924	800.000	-0.108	0.384
-309.910	-13.386	0.164	0.105
-308.895	-200.000	-0.052	0.278
-307.880	-200.000	0.046	-0.276
-306.866	800.000	0.119	-0.443
-305.851	-56.317	0.186	-0.082
-304.837	8.358	-0.083	-0.062
-303.822	-2.943	-0.153	0.106
-302.807	369.462	-0.033	0.067
-301.793	111.332	0.203	-0.242
-300.778	-200.000	0.002	0.108
-299.764	622.989	-0.123	0.307
-298.749	198.527	0.114	0.174
-297.735	-64.250	0.258	-0.104
-296.720	49.537	-0.285	-0.266
-295.705	60.174	0.166	0.163
-294.691	651.245	0.050	0.128
-293.676	236.623	0.081	0.132
-292.662	98.849	0.152	-0.174
-291.647	612.626	-0.122	-0.303
-290.632	27.902	-0.398	-0.333
-289.618	-187.468	-0.125	0.002
-288.603	-79.886	0.084	0.028
-287.589	-200.000	-0.027	0.203
-286.574	30.616	0.137	0.116
-285.559	352.103	0.072	-0.141
-284.545	-200.000	0.021	0.220
-283.530	113.666	-0.142	-0.171
-282.516	-46.937	-0.061	-0.030
-281.501	93.945	-0.093	-0.104
-280.486	335.032	0.126	-0.243
-279.472	-9.899	0.098	-0.064
-278.457	77.342	-0.086	-0.090
-277.443	311.046	-0.007	0.013
-276.428	-22.162	0.083	-0.050
-275.413	-122.706	0.178	-0.029
-274.399	-200.000	-0.016	-0.143
-273.384	672.858	0.027	-0.069
-272.370	-120.435	-0.177	-0.030
-271.355	296.839	0.137	0.249
-270.340	-129.670	0.282	0.039
-269.326	88.643	-0.054	0.059
-268.311	143.612	-0.123	-0.163
-267.297	385.859	-0.191	0.390
-266.282	93.673	0.200	-0.224
-265.267	-25.384	-0.108	0.063
-264.253	230.819	-0.025	0.040
-263.238	-84.721	-0.174	0.054
-262.224	-116.772	0.187	0.034
-261.209	-108.089	0.413	-0.089
-260.195	291.928	-0.062	-0.113
-259.180	-49.162	-0.372	0.176
-258.165	-97.319	0.097	0.025
-257.151	-132.061	0.132	-0.017
-256.136	253.723	0.071	-0.120
-255.122	-200.000	0.004	0.090
-254.107	-200.000	0.009	0.189
-253.092	-55.387	-0.045	-0.020
-252.078	112.841	0.300	0.360
-251.063	-200.000	0.001	-0.011
-250.049	-93.453	-0.167	0.046
-249.034	224.289	0.125	0.200
-248.019	771.034	-0.033	0.090
-247.005	322.742	0.060	0.113
-245.990	-182.410	0.284	-0.005
-244.976	800.000	-0.010	-0.040
-243.961	-96.140	-0.123	0.032
-242.946	118.996	-0.155	-0.190
-241.932	800.000	-0.059	0.221
-240.917	-200.000	0.014	-0.099
-239.903	70.483	-0.078	0.080
-238.888	-200.000	0.125	-0.000
-237.873	35.283	-0.156	-0.135
-236.859	800.000	-0.083	0.241
-235.844	122.372	-0.136	0.168
-234.830	173.239	-0.103	0.147
-233.815	-93.660	0.234	-0.064
-232.800	91.174	-0.045	-0.049
-231.786	265.477	-0.146	0.251
-230.771	800.000	0.027	0.110
-229.757	800.000	0.100	-0.314
-228.742	800.000	0.049	0.145
-227.727	266.851	-0.212	-0.367
-226.713	562.560	0.051	-0.123
-225.698	-88.872	0.083	0.024
-224.684	518.721	-0.109	0.251
-223.669	-136.109	-0.239	-0.028
-222.655	-200.000	0.037	0.234
-221.640	59.280	-0.188	0.183
-220.625	46.804	-0.297	0.273
-219.611	800.000	0.051	-0.211
-218.596	-15.193	-0.048	-0.030
-217.582	-200.000	-0.001	0.184
-216.567	-170.673	-0.027	0.001
-215.552	-104.702	0.207	-0.047
-214.538	-90.045	-0.131	0.038
-213.523	-18.172	0.472	-0.292
-212.509	-200.000	0.008	-0.210
-211.494	-123.347	0.182	0.029
-210.479	800.000	0.054	0.192
-209.465	-146.222	-0.063	-0.005
-208.450	245.446	-0.080	0.133
-207.436	157.291	0.146	0.199
-206.421	800.000	-0.069	0.258
-205.406	331.153	-0.033	-0.063
-204.392	-200.000	-0.043	0.198
-203.377	-200.000	0.026	0.214
-202.363	-200.000	-0.009	-0.200
-201.348	527.974	-0.115	-0.267
-200.333	-114.891	0.312	0.059
-199.319	29.274	-0.189	0.159
-198.304	-94.582	0.080	-0.021
-197.290	219.528	-0.181	0.286
-196.275	-200.000	0.001	-0.376
-195.260	271.027	0.133	-0.232
-194.246	-200.000	-0.060	0.271
-193.231	-157.725	-0.136	-0.008
-192.217	-200.000	-0.008	-0.285
-191.202	-34.872	-0.216	-0.116
-190.187	800.000	-0.068	-0.191
-189.173	-62.683	0.142	-0.058
-188.158	-200.000	0.003	0.245
-187.144	800.000	0.094	0.260
-186.129	561.093	0.082	0.196
-185.114	-200.000	-0.010	0.541
-184.100	-124.827	-0.315	0.048
-183.085	-48.391	0.080	0.038
-182.071	-59.601	-0.087	-0.037
-181.056	191.392	0.099	-0.148
-180.042	-46.307	-0.109	-0.053
-179.027	276.595	0.101	-0.177
-178.012	-37.643	-0.235	-0.123
-176.998	285.092	-0.094	0.167
-175.983	-200.000	0.066	-0.356
-174.969	-23.893	-0.138	0.081
-173.954	-200.000	0.027	-0.192
-172.939	-70.449	0.202	0.075
-171.925	-94.921	0.154	-0.041
-170.910	-55.252	0.231	0.102
-169.896	75.652	-0.205	0.214
-168.881	-1.249	0.109	0.076
-167.866	-146.719	0.287	0.025
-166.852	-56.766	0.177	-0.077
-165.837	-103.414	-0.075	0.017
-164.823	-200.000	-0.016	-0.153
-163.808	800.000	0.087	0.260
-162.793	309.501	0.109	-0.200
-161.779	-119.131	0.227	0.039
-160.764	93.932	-0.186	-0.208
-159.750	1.823	0.233	0.166
-158.735	-87.918	-0.142	0.042
-157.720	191.713	0.023	-0.033
-156.706	-55.337	-0.447	0.198
-155.691	-200.000	0.008	0.291
-154.677	-61.607	0.114	0.047
-153.662	343.694	0.050	-0.097
-152.647	-76.292	0.088	0.030
-151.633	-200.000	-0.004	0.219
-150.618	-171.225	0.067	0.002
-149.604	285.999	0.027	0.047
-148.589	73.736	-0.090	0.093
-147.574	-200.000	-0.022	0.295
-146.560	-49.803	-0.324	0.152
-145.545	100.087	0.211	-0.241
-144.531	95.949	0.030	0.034
-143.516	800.000	0.068	0.274
-142.502	-129.129	0.083	0.011
-141.487	-6.008	0.222	-0.150
-140.472	-200.000	-0.031	0.372
-139.458	112.246	-0.276	-0.329
-138.443	18.945	-0.148	-0.117
-137.429	-57.796	0.141	-0.061
-136.414	-51.138	-0.107	-0.049
-135.399	800.000	0.102	-0.291
-134.385	-200.000	-0.051	0.323
-133.370	49.973	-0.251	0.233
-132.356	-175.078	0.271	-0.007
-131.341	312.493	-0.053	-0.098
-130.326	-16.622	-0.082	0.051
-129.312	614.293	-0.070	0.171
-128.297	-200.000	-0.002	0.082
-127.283	342.017	-0.142	-0.274
-126.268	-16.799	-0.203	-0.126
-125.253	-47.416	0.322	0.154
-124.239	209.960	-0.139	-0.214
-123.224	149.454	0.212	-0.282
-122.210	149.921	0.066	0.088
-121.195	-200.000	-0.064	0.493
-120.180	-44.277	0.367	0.181
-119.166	-168.231	-0.137	0.005
-118.151	14.286	-0.346	0.265
-117.137	317.467	-0.163	-0.303
-116.122	-114.648	0.385	0.073
-115.107	-46.733	-0.200	0.096
-114.093	-44.592	-0.179	0.088
-113.078	-35.355	-0.371	0.199
-112.064	-102.010	0.069	0.016
-111.049	-111.573	0.024	-0.005
-110.034	46.535	-0.092	-0.084
-109.020	-61.864	0.240	-0.099
-108.005	-200.000	-0.026	0.268
-106.991	-156.010	0.143	0.009
-105.976	-200.000	-0.017	0.224
-104.962	-40.195	-0.381	-0.195
-103.947	-113.609	0.344	0.066
-102.932	190.319	0.207	0.306
-101.918	374.887	-0.106	0.213
-100.903	-200.000	0.020	0.129
-99.889	-163.357	0.177	0.008
-98.874	96.713	0.061	-0.068
-97.859	-56.888	0.085	-0.037
-96.845	800.000	0.034	-0.107
-95.830	15.927	-0.040	-0.031
-94.816	-200.000	-0.003	0.176
-93.801	300.282	0.164	-0.298
-92.786	628.713	-0.038	-0.094
-91.772	161.225	0.142	0.196
-90.757	-34.877	-0.388	0.208
-89.743	-47.576	0.214	0.102
-88.728	-177.464	-0.124	0.003
-87.713	-200.000	0.021	0.132
-86.699	-44.547	-0.175	0.086
-85.684	-16.744	-0.041	0.026
-84.670	-19.088	-0.140	0.086
-83.655	134.411	0.158	0.201
-82.640	-16.199	-0.113	-0.071
-81.626	11.175	-0.162	0.122
-80.611	800.000	0.052	0.195
-79.597	-50.514	-0.122	-0.057
-78.582	800.000	-0.081	0.315
-77.567	27.576	-0.229	-0.189
-76.553	-200.000	0.063	0.283
-75.538	45.967	0.320	0.291
-74.524	-200.000	-0.031	0.368
-73.509	382.329	-0.051	0.103
-72.494	-104.121	0.174	-0.040
-71.480	-13.040	0.267	0.171
-70.465	15.760	-0.167	0.129
-69.451	800.000	-0.052	0.176
-68.436	800.000	0.008	0.027
-67.422	800.000	0.096	0.287
-66.407	-165.895	-0.251	0.011
-65.392	176.653	0.056	-0.080
-64.378	-105.577	-0.200	-0.045
-63.363	-200.000	0.057	0.474
-62.349	137.692	-0.221	0.285
-61.334	83.698	-0.858	-0.919
-60.319	63.590	0.700	0.690
-59.305	-200.000	-0.288	-1.314
-58.290	606.379	0.480	1.175
-57.276	800.000	0.537	1.758
-56.261	-200.000	101.183	602.253
-55.246	524.637	1457.393	3364.769
-54.232	180.591	2668.136	3843.673
-53.217	106.563	2297.463	2674.076
-52.203	39.322	1905.661	1674.261
-51.188	33.323	1691.658	1440.694
-50.173	30.730	1648.075	1384.269
-49.159	49.218	1698.128	1566.274
-48.144	49.777	1714.701	1585.714
-47.130	33.032	1672.725	1422.156
-46.115	30.211	1658.649	1389.040
-45.100	30.101	1654.023	1384.288
-44.086	30.073	1650.804	1381.334
-43.071	30.001	1648.491	1378.808
-42.057	30.062	1646.497	1377.535
-41.042	30.107	1644.490	1376.137
-40.027	30.168	1642.253	1374.660
-39.013	29.984	1641.134	1372.305
-37.998	29.990	1639.061	1370.562
-36.984	30.089	1637.584	1370.006
-35.969	30.105	1636.656	1369.292
-34.954	30.217	1634.417	1368.193
-33.940	30.248	1632.246	1366.549
-32.925	30.204	1630.632	1364.820
-31.911	30.159	1629.065	1363.126
-30.896	30.166	1627.335	1361.671
-29.881	30.150	1625.713	1360.147
-28.867	30.107	1624.858	1359.062
-27.852	30.124	1622.585	1357.230
-26.838	30.150	1621.284	1356.276
-25.823	30.077	1619.963	1354.588
-24.809	30.201	1618.314	1354.057
-23.794	30.176	1617.087	1352.796
-22.779	30.139	1615.519	1351.162
-21.765	30.166	1613.698	1349.781
-20.750	30.146	1612.038	1348.193
-19.736	30.171	1610.888	1347.356
-18.721	30.101	1609.537	1345.670
-17.706	30.231	1607.504	1344.858
-16.692	30.105	1606.433	1342.998
-15.677	30.204	1604.673	1342.189
-14.663	30.214	1603.495	1341.220
-13.648	30.263	1602.219	1340.453
-12.633	30.186	1601.122	1338.929
-11.619	30.226	1599.044	1337.425
-10.604	30.170	1597.828	1335.949
-9.590	30.171	1596.299	1334.631
-8.575	30.268	1594.874	1334.080
-7.560	30.151	1594.557	1332.917
-6.546	30.269	1592.918	1332.344
-5.531	30.229	1592.107	1331.326
-4.517	30.191	1591.232	1330.271
-3.502	30.268	1589.924	1329.673
-2.487	30.250	1587.874	1327.778
-1.473	30.167	1576.259	1317.425
-0.458	27.635	1558.158	1284.430
0.556	22.145	1559.889	1256.596
1.571	20.238	1584.411	1262.376
2.586	19.831	1597.754	1269.910
3.600	17.734	1544.937	1212.920
4.615	9.423	1433.960	1070.603
5.629	1.410	1369.636	971.408
6.644	0.048	1361.019	956.549
7.659	-0.102	1359.854	954.697
8.673	-0.157	1359.170	953.779
9.688	-0.189	1357.286	952.174
10.702	-0.332	1353.687	948.658
11.717	3.344	1361.504	977.402
12.731	12.868	1379.380	1051.125
13.746	20.134	1391.591	1106.903
14.761	22.140	1393.995	1121.533
15.775	22.348	1394.330	1123.035
16.790	22.484	1393.456	1123.098
17.804	22.469	1393.208	1122.704
18.819	22.782	1392.486	1124.019
19.834	22.846	1391.830	1123.794
20.848	22.852	1390.858	1122.950
21.863	22.813	1390.656	1122.437
22.877	22.888	1389.366	1121.773
23.892	22.828	1388.995	1120.995
24.907	22.896	1387.303	1119.958
25.921	22.918	1386.483	1119.338
26.936	22.997	1385.326	1118.805
27.950	22.919	1384.532	1117.571
28.965	22.853	1383.916	1116.556
29.980	22.931	1382.492	1115.804
30.994	22.846	1381.214	1114.135
32.009	22.952	1380.278	1113.955
33.023	22.843	1379.014	1112.144
34.038	22.876	1377.880	1111.343
35.053	22.810	1377.062	1110.165
36.067	22.842	1375.850	1109.296
37.082	22.936	1374.744	1108.895
38.096	22.801	1374.295	1107.584
39.111	22.804	1373.500	1106.865
40.126	22.788	1372.981	1106.249
41.140	22.829	1372.161	1105.746
42.155	22.833	1371.690	1105.296
43.169	22.870	1371.708	1105.444
44.184	22.794	1371.803	1104.947
45.199	22.806	1371.418	1104.611
46.213	22.908	1370.250	1104.212
47.228	22.796	1369.829	1103.078
48.242	22.953	1368.117	1102.578
49.257	22.929	1366.784	1101.258
50.271	22.855	1365.060	1099.309
51.286	22.903	1364.296	1098.898
52.301	22.893	1363.014	1097.705
53.315	22.738	1362.692	1096.384
54.330	22.845	1361.645	1096.114
55.344	22.828	1360.156	1094.708
56.359	22.895	1359.111	1094.184
57.374	22.860	1358.440	1093.335
58.388	22.763	1357.819	1092.134
59.403	22.894	1357.427	1092.532
60.417	22.886	1356.619	1091.738
61.432	22.933	1355.811	1091.284
62.447	22.781	1355.269	1089.809
63.461	22.820	1354.090	1089.009
64.476	22.945	1352.846	1088.679
65.490	22.853	1351.804	1087.177
66.505	22.883	1350.248	1086.018
67.520	22.756	1349.752	1084.740
68.534	22.883	1348.295	1084.254
69.549	22.973	1347.265	1083.882
70.563	22.970	1346.398	1083.071
71.578	22.879	1345.169	1081.430
72.593	22.901	1344.273	1080.745
73.607	22.898	1343.888	1080.321
74.622	22.873	1343.161	1079.490
75.636	22.830	1342.664	1078.733
76.651	22.882	1341.304	1077.863
77.666	22.886	1341.258	1077.752
78.680	22.811	1340.889	1076.903
79.695	22.936	1339.797	1076.695
80.709	22.803	1339.471	1075.527
81.724	22.896	1338.137	1074.925
82.739	22.812	1337.299	1073.648
83.753	22.897	1336.113	1073.116
84.768	22.819	1334.945	1071.607
85.782	22.918	1333.767	1071.170
86.797	22.908	1332.568	1070.053
87.812	22.846	1331.836	1068.991
88.826	22.967	1330.671	1068.695
89.841	22.837	1330.001	1067.278
90.855	22.964	1328.695	1066.900
91.870	22.883	1328.208	1065.925
92.884	22.963	1327.058	1065.393
93.899	22.899	1326.962	1064.835
94.914	23.007	1325.305	1064.060
95.928	22.914	1324.889	1063.076
96.943	22.978	1323.934	1062.597
97.957	22.949	1323.484	1061.969
98.972	22.958	1322.655	1061.260
99.987	22.937	1321.664	1060.248
101.001	22.924	1320.907	1059.467
102.016	22.853	1319.834	1058.092
103.030	22.990	1319.024	1058.167
104.045	22.830	1318.364	1056.584
105.060	22.937	1317.094	1056.117
106.074	22.942	1316.017	1055.185
107.089	22.999	1314.923	1054.556
108.103	23.074	1313.810	1054.016
109.118	22.950	1312.741	1052.326
110.133	23.037	1311.478	1051.740
111.147	23.114	1310.063	1050.970
112.162	22.992	1309.197	1049.459
113.176	23.097	1307.946	1048.985
114.191	23.134	1306.957	1048.318
115.206	22.995	1306.689	1047.187
116.220	23.035	1305.039	1046.012
117.235	23.037	1303.964	1045.068
118.249	22.983	1303.705	1044.448
119.264	22.983	1303.050	1043.830
120.279	23.196	1301.502	1043.756
121.293	23.064	1300.967	1042.456
122.308	23.065	1300.536	1042.024
123.322	23.070	1299.722	1041.305
124.337	23.017	1298.730	1040.107
125.352	23.120	1297.419	1039.574
126.366	23.272	1296.063	1039.285
127.381	23.195	1295.410	1038.217
128.395	23.205	1294.462	1037.424
129.410	23.150	1294.274	1036.861
130.424	23.159	1293.766	1036.417
131.439	23.073	1292.648	1034.926
132.454	23.002	1292.016	1033.914
133.468	23.144	1291.123	1033.934
134.483	23.065	1290.896	1033.198
135.497	23.073	1289.693	1032.195
136.512	23.110	1288.495	1031.358
137.527	23.066	1287.801	1030.455
138.541	23.176	1285.980	1029.550
139.556	23.068	1284.977	1028.027
140.570	23.085	1284.103	1027.332
141.585	23.098	1282.816	1026.291
142.600	23.135	1281.801	1025.603
143.614	23.103	1281.346	1024.959
144.629	22.973	1280.277	1023.261
145.643	23.006	1278.913	1022.272
146.658	22.944	1278.108	1021.182
147.673	23.031	1276.964	1020.680
148.687	22.955	1276.509	1019.785
149.702	22.893	1275.252	1018.332
150.716	22.984	1273.999	1017.767
151.731	23.082	1272.738	1017.235
152.746	23.075	1271.335	1015.982
153.760	23.041	1270.393	1014.945
154.775	23.094	1269.661	1014.572
155.789	23.096	1268.739	1013.757
156.804	23.019	1268.020	1012.654
157.819	23.119	1267.134	1012.430
158.833	23.149	1266.315	1011.856
159.848	23.171	1265.466	1011.214
160.862	23.236	1264.796	1010.960
161.877	23.159	1264.013	1009.808
162.892	23.171	1262.927	1008.918
163.906	23.163	1262.473	1008.417
164.921	23.154	1261.733	1007.687
165.935	23.187	1260.974	1007.178
166.950	23.177	1260.291	1006.487
167.964	23.290	1259.309	1006.259
168.979	23.211	1258.998	1005.472
169.994	23.143	1258.799	1004.838
171.008	23.124	1257.905	1003.929
172.023	23.286	1256.728	1003.819
173.037	23.260	1255.973	1002.978
174.052	23.120	1255.955	1002.082
175.067	23.199	1254.683	1001.422
176.081	23.238	1253.933	1000.957
177.096	23.218	1252.938	999.960
178.110	23.200	1252.285	999.252
179.125	23.266	1251.156	998.636
180.140	23.193	1250.394	997.525
181.154	23.270	1249.071	996.816
182.169	23.184	1248.042	995.424
183.183	23.304	1246.724	994.957
184.198	23.269	1245.947	994.052
185.213	23.239	1245.391	993.351
186.227	23.226	1244.360	992.372
187.242	23.377	1243.388	992.353
188.256	23.267	1242.408	990.865
189.271	23.328	1241.842	990.667
190.286	23.249	1241.133	989.575
191.300	23.204	1240.674	988.871
192.315	23.243	1240.239	988.656
193.329	23.338	1239.416	988.440
194.344	23.278	1238.928	987.630
195.359	23.309	1238.671	987.508
196.373	23.202	1238.604	986.773
197.388	23.155	1237.907	985.865
198.402	23.245	1237.217	985.730
199.417	23.252	1236.653	985.235
200.432	23.471	1235.647	985.565
201.446	23.381	1235.399	984.777
202.461	23.242	1234.623	983.300
203.475	23.230	1233.941	982.602
204.490	23.227	1232.977	981.730
205.504	23.383	1231.808	981.576
206.519	23.354	1230.704	980.453
207.534	23.421	1229.825	980.036
208.548	23.311	1229.226	978.863
209.563	23.274	1228.444	977.951
210.577	23.309	1227.518	977.318
211.592	23.303	1226.888	976.698
212.607	23.453	1226.029	976.754
213.621	23.392	1225.289	975.742
214.636	23.280	1224.858	974.693
215.650	23.465	1223.327	974.406
216.665	23.340	1222.758	973.182
217.680	23.402	1221.959	972.802
218.694	23.412	1221.114	972.095
219.709	23.407	1220.579	971.556
220.723	23.357	1220.076	970.794
221.738	23.460	1218.748	970.217
222.753	23.329	1218.536	969.248
223.767	23.443	1217.910	969.285
224.782	23.523	1216.943	968.866
225.796	23.482	1216.603	968.288
226.811	23.464	1216.340	967.894
227.826	23.366	1215.726	966.786
228.840	23.601	1214.716	967.176
229.855	23.511	1213.697	965.793
230.869	23.498	1213.304	965.321
231.884	23.472	1213.022	964.870
232.899	23.474	1212.234	964.167
233.913	23.624	1211.739	964.504
234.928	23.658	1210.764	963.830
235.942	23.654	1210.122	963.212
236.957	23.608	1209.630	962.484
237.972	23.554	1208.936	961.552
238.986	23.507	1208.519	960.882
240.001	23.574	1207.521	960.366
241.015	23.676	1206.465	959.995
242.030	23.756	1205.894	959.885
243.045	23.657	1205.516	958.964
244.059	23.628	1204.517	957.929
245.074	23.763	1203.598	957.840
246.088	23.743	1202.939	957.127
247.103	23.665	1202.238	956.062
248.117	23.729	1201.230	955.519
249.132	23.759	1200.707	955.180
250.147	23.661	1200.257	954.211
251.161	23.759	1199.094	953.729
252.176	23.836	1198.502	953.588
253.190	23.804	1198.213	953.102
254.205	23.736	1197.608	952.172
255.220	23.731	1196.864	951.468
256.234	23.769	1196.183	951.044
257.249	23.905	1195.406	951.074
258.263	23.761	1195.273	950.113
259.278	23.802	1194.753	949.833
260.293	23.879	1193.950	949.520
261.307	23.878	1193.419	949.011
262.322	23.923	1192.387	948.347
263.336	23.841	1192.068	947.571
264.351	23.791	1191.492	946.762
265.366	23.739	1191.076	946.072
266.380	23.857	1189.913	945.693
267.395	23.914	1189.427	945.525
268.409	23.932	1188.698	944.958
269.424	23.907	1188.209	944.352
270.439	23.963	1187.614	944.094
271.453	23.917	1187.089	943.348
272.468	23.918	1186.125	942.505
273.482	23.875	1185.911	942.022
274.497	23.843	1185.555	941.486
275.512	23.908	1184.746	941.106
276.526	23.886	1184.151	940.433
277.541	23.984	1183.190	940.103
278.555	24.056	1182.375	939.752
279.570	23.997	1182.021	939.076
280.585	23.942	1181.140	938.006
281.599	23.938	1180.507	937.397
282.614	23.969	1179.447	936.637
283.628	24.042	1178.334	936.056
284.643	23.935	1177.973	935.121
285.657	23.974	1176.939	934.425
286.672	24.073	1176.128	934.215
287.687	23.859	1175.660	932.641
288.701	24.054	1174.916	932.991
289.716	24.099	1173.455	931.983
290.730	24.042	1173.130	931.343
291.745	24.062	1172.606	930.950
292.760	24.117	1172.211	930.839
293.774	24.112	1171.774	930.384
294.789	24.122	1171.365	930.032
295.803	24.040	1170.599	928.912
296.818	24.019	1169.959	928.210
297.833	24.177	1168.969	928.168
298.847	24.210	1168.479	927.867
299.862	24.110	1167.501	926.492
300.876	24.064	1166.985	925.758
301.891	24.115	1166.638	925.667
302.906	24.190	1165.980	925.455
303.920	24.273	1165.237	925.212
304.935	24.211	1164.394	924.138
305.949	24.126	1163.910	923.231
306.964	24.232	1163.657	923.499
307.979	24.226	1162.537	922.496
308.993	24.195	1162.038	921.860
310.008	24.220	1161.212	921.252
311.022	24.248	1160.591	920.824
312.037	24.280	1159.532	920.067
313.052	24.229	1158.560	918.951
314.066	24.268	1158.075	918.687
315.081	24.250	1157.312	917.907
316.095	24.303	1156.648	917.570
317.110	24.309	1156.068	917.060
318.125	24.247	1155.612	916.298
319.139	24.346	1154.709	916.009
320.154	24.365	1154.151	915.582
321.168	24.320	1153.656	914.882
322.183	24.258	1153.308	914.203
323.197	24.335	1152.479	913.859
324.212	24.325	1151.900	913.267
325.227	24.334	1151.675	913.057
326.241	24.416	1150.888	912.771
327.256	24.395	1150.036	911.908
328.270	24.417	1149.248	911.315
329.285	24.498	1148.449	911.012
330.300	24.448	1147.891	910.234
331.314	24.471	1146.540	909.199
332.329	24.491	1146.078	908.856
333.343	24.415	1145.558	907.975
334.358	24.440	1144.873	907.481
335.373	24.565	1143.978	907.327
336.387	24.460	1143.463	906.302
337.402	24.560	1142.384	905.875
338.416	24.455	1142.079	905.021
339.431	24.462	1141.570	904.574
340.446	24.522	1140.750	904.147
341.460	24.558	1140.438	904.002
342.475	24.635	1139.486	903.556
343.489	24.654	1138.413	902.720
344.504	24.588	1137.481	901.571
345.519	24.598	1136.932	901.106
346.533	24.614	1135.924	900.305
347.548	24.669	1135.300	900.012
348.562	24.693	1134.347	899.296
349.577	24.716	1133.743	898.855
350.592	24.483	1133.290	897.241
351.606	24.512	1132.727	896.865
352.621	24.688	1131.799	896.932
353.635	24.772	1130.935	896.592
354.650	24.817	1130.429	896.335
355.665	24.708	1130.232	895.555
356.679	24.774	1129.639	895.336
357.694	24.905	1128.550	895.046
358.708	24.868	1127.995	894.345
359.723	24.788	1127.509	893.480
360.738	24.780	1126.566	892.615
361.752	24.758	1126.044	892.011
362.767	24.916	1125.531	892.310
363.781	24.830	1125.322	891.641
364.796	24.964	1124.434	891.524
365.810	24.825	1124.273	890.624
366.825	24.852	1123.489	890.061
367.840	24.903	1122.887	889.756
368.854	24.868	1122.605	889.283
369.869	24.918	1121.456	888.540
370.883	25.066	1120.463	888.411
371.898	25.013	1120.099	887.780
372.913	25.025	1119.429	887.229
373.927	24.937	1119.198	886.530
374.942	24.972	1118.552	886.117
375.956	24.951	1118.191	885.649
376.971	24.903	1117.524	884.803
377.986	24.983	1117.015	884.716
379.000	24.994	1116.600	884.362
380.015	24.977	1116.084	883.792
381.029	24.989	1115.204	883.078
382.044	25.070	1114.618	882.936
383.059	25.146	1113.839	882.611
384.073	25.084	1113.181	881.709
385.088	25.082	1112.572	881.139
386.102	25.093	1111.660	880.390
387.117	25.125	1110.315	879.404
388.132	25.065	1109.851	878.669
389.146	25.070	1109.236	878.125
390.161	25.143	1108.659	877.951
391.175	25.141	1108.155	877.462
392.190	25.120	1107.383	876.672
393.205	25.197	1106.579	876.333
394.219	25.162	1105.880	875.533
395.234	25.239	1104.817	874.986
396.248	25.230	1104.235	874.404
397.263	25.357	1103.287	874.195
398.278	25.244	1102.897	873.259
399.292	25.319	1102.024	872.854
400.307	25.345	1101.395	872.407
401.321	25.392	1100.775	872.067
402.336	25.181	1100.679	870.891
403.350	25.273	1099.995	870.716
404.365	25.299	1098.901	869.900
405.380	25.284	1098.448	869.394
406.394	25.341	1097.661	868.969
407.409	25.345	1097.061	868.435
408.423	25.390	1096.376	868.034
409.438	25.450	1095.491	867.547
410.453	25.325	1095.096	866.551
411.467	25.527	1093.916	866.515
412.482	25.302	1093.640	865.137
413.496	25.526	1092.834	865.504
414.511	25.351	1092.216	864.092
415.526	25.543	1091.698	864.528
416.540	25.434	1091.387	863.684
417.555	25.380	1090.934	862.989
418.569	25.430	1090.424	862.748
419.584	25.517	1089.977	862.735
420.599	25.553	1089.351	862.340
421.613	147.125	1404.072	1797.044
422.628	136.040	1449.911	1797.136
