DTS Sentinel unit serial number:	SN413079Multiplexer serial number:	ORYXHardware model number:	OX4-SRSoftware version number:	ORYX F/W v4.00 Oryx Data Collector v3.7.2.0data status	okinstallation	princeton_trtdifferential loss correction	single-endedforward channel	channel 2reverse channel	N/Adate	2019/09/11time	14:17:11forward acquisition time	60.00reverse acquisition time	0.00gamma	496.2192k internal	0.2291k external	0.2291temperature offset calibration	1.0009default loss term (dB/km)	0.3790temperature slope calibration	1.0000multiplexer offset coefficient	1.0000multiplexer slope coefficient	1.0000fibre end	0.00T internal ref (°C)	41.95T ext. ref 1 (°C)	0.88T ext. ref 2 (°C)	38.20length (m)	temperature (°C)	Stokes	anti-Stokes-747.200	176.856	-0.096	-0.142
-746.185	-200.000	-0.051	0.518
-745.171	181.319	-0.124	-0.186
-744.156	800.000	-0.021	-0.076
-743.142	-200.000	-0.057	-0.270
-742.127	55.887	0.205	0.204
-741.112	-19.384	0.155	-0.099
-740.098	800.000	-0.006	0.022
-739.083	208.787	0.044	0.071
-738.069	800.000	-0.059	0.223
-737.054	521.501	0.057	-0.137
-736.039	-98.548	-0.068	0.018
-735.025	239.831	0.208	0.355
-734.010	384.762	-0.081	-0.170
-732.996	505.113	-0.138	-0.326
-731.981	251.284	-0.072	-0.126
-730.966	529.476	0.038	-0.092
-729.952	136.766	-0.139	0.185
-728.937	135.348	-0.123	0.163
-727.923	-178.231	-0.170	0.004
-726.908	-12.745	0.077	0.051
-725.894	300.633	0.009	0.017
-724.879	-200.000	-0.070	-0.490
-723.864	-113.831	-0.206	-0.041
-722.850	-23.443	0.235	-0.144
-721.835	-200.000	-0.020	-0.106
-720.821	-8.829	-0.187	0.128
-719.806	-114.571	-0.066	-0.013
-718.791	-22.423	-0.128	-0.079
-717.777	-200.000	-0.030	-0.145
-716.762	-107.922	0.285	0.063
-715.748	-18.329	-0.172	0.110
-714.733	129.829	0.071	-0.093
-713.718	-200.000	0.014	-0.182
-712.704	-200.000	0.004	-0.369
-711.689	-117.346	0.277	-0.051
-710.675	118.177	-0.143	0.181
-709.660	3.585	-0.164	0.122
-708.645	800.000	0.060	-0.172
-707.631	-38.626	0.300	0.162
-706.616	-10.785	-0.284	-0.192
-705.602	-160.305	0.162	-0.009
-704.587	75.716	-0.134	-0.145
-703.572	-200.000	-0.008	0.133
-702.558	285.644	0.119	0.220
-701.543	30.855	-0.119	-0.104
-700.529	-200.000	0.047	0.292
-699.514	-135.096	-0.494	-0.061
-698.499	-32.963	0.059	-0.033
-697.485	-112.045	-0.299	0.062
-696.470	619.124	-0.031	0.081
-695.456	210.045	-0.183	-0.294
-694.441	429.798	-0.104	-0.230
-693.426	-116.213	-0.318	0.060
-692.412	-89.005	0.314	0.095
-691.397	-113.989	-0.312	0.062
-690.383	-151.663	-0.337	0.025
-689.368	62.776	-0.205	0.210
-688.354	-64.921	-0.276	-0.114
-687.339	-3.190	0.245	0.174
-686.324	121.988	0.171	0.218
-685.310	626.613	-0.166	-0.427
-684.295	800.000	0.031	0.109
-683.281	51.520	-0.155	-0.150
-682.266	-47.669	-0.125	-0.062
-681.251	800.000	0.075	-0.236
-680.237	-200.000	0.058	-0.337
-679.222	-199.158	-0.150	0.001
-678.208	108.104	-0.079	0.096
-677.193	115.077	0.217	-0.271
-676.178	-33.094	-0.075	0.043
-675.164	-121.403	0.287	-0.049
-674.149	-200.000	-0.023	0.142
-673.135	-200.000	0.079	-0.380
-672.120	-96.776	0.062	-0.017
-671.105	629.785	0.026	0.066
-670.091	-200.000	-0.032	0.182
-669.076	-200.000	0.043	0.216
-668.062	-159.030	-0.202	-0.012
-667.047	-5.747	-0.378	0.265
-666.032	-200.000	0.006	0.153
-665.018	16.878	-0.211	0.171
-664.003	69.427	0.073	0.077
-662.989	68.410	0.139	-0.145
-661.974	-123.547	-0.228	-0.037
-660.959	-94.785	-0.134	-0.037
-659.945	-173.310	0.139	0.004
-658.930	144.325	0.188	-0.256
-657.916	-200.000	0.062	-0.392
-656.901	-49.914	-0.373	-0.181
-655.886	70.439	0.102	-0.107
-654.872	-200.000	-0.003	0.257
-653.857	85.283	0.116	-0.130
-652.843	-52.293	-0.370	-0.175
-651.828	33.816	0.061	-0.054
-650.814	800.000	-0.053	0.188
-649.799	-91.989	-0.453	0.131
-648.784	800.000	0.044	-0.144
-647.770	-200.000	0.018	-0.261
-646.755	258.657	0.113	0.199
-645.741	-41.820	0.081	0.042
-644.726	-71.048	0.286	0.110
-643.711	-120.115	0.220	-0.038
-642.697	-200.000	0.009	-0.077
-641.682	51.567	-0.161	-0.156
-640.668	320.740	-0.213	-0.413
-639.653	-108.021	0.043	0.010
-638.638	-51.862	-0.308	0.146
-637.624	-93.472	-0.341	-0.096
-636.609	800.000	-0.037	0.149
-635.595	30.464	-0.219	-0.191
-634.580	-73.590	0.124	0.046
-633.565	66.631	0.188	0.195
-632.551	-200.000	-0.002	-0.091
-631.536	-200.000	0.022	-0.278
-630.522	161.682	-0.048	-0.069
-629.507	-200.000	0.009	0.158
-628.492	-142.391	-0.091	-0.009
-627.478	-2.107	-0.113	-0.081
-626.463	-81.457	0.123	0.041
-625.449	20.158	-0.261	-0.215
-624.434	572.357	0.066	-0.164
-623.419	1.038	0.092	-0.067
-622.405	-2.200	-0.172	-0.123
-621.390	-65.171	-0.377	-0.155
-620.376	17.387	-0.252	0.204
-619.361	170.045	-0.084	-0.122
-618.346	-200.000	0.067	0.334
-617.332	211.072	-0.074	0.118
-616.317	-200.000	0.059	-0.276
-615.303	3.699	0.387	0.288
-614.288	-84.942	-0.120	0.038
-613.273	-200.000	-0.001	0.213
-612.259	442.180	0.081	0.181
-611.244	800.000	0.134	-0.392
-610.230	222.292	0.152	-0.249
-609.215	56.779	-0.436	0.433
-608.201	6.757	0.313	0.238
-607.186	-125.013	-0.250	0.039
-606.171	-200.000	0.082	0.373
-605.157	257.481	-0.038	-0.066
-604.142	47.496	-0.247	0.235
-603.128	-53.526	0.019	0.009
-602.113	-60.710	0.088	-0.038
-601.098	360.977	-0.165	-0.337
-600.084	100.034	-0.189	-0.224
-599.069	524.299	0.068	0.164
-598.055	-200.000	0.031	-0.220
-597.040	-200.000	0.069	0.328
-596.025	-41.761	-0.273	-0.143
-595.011	112.610	0.042	0.051
-593.996	-89.353	0.280	-0.084
-592.982	352.665	0.128	0.258
-591.967	202.151	0.196	0.307
-590.952	-200.000	0.004	0.181
-589.938	-200.000	-0.019	0.141
-588.923	-53.343	-0.143	-0.067
-587.909	-200.000	0.002	0.283
-586.894	-138.025	0.285	0.032
-585.879	-84.810	-0.204	-0.065
-584.865	-89.195	-0.289	0.087
-583.850	161.248	0.063	-0.089
-582.836	723.993	0.027	0.072
-581.821	7.590	0.308	-0.235
-580.806	800.000	0.042	0.126
-579.792	800.000	-0.063	0.276
-578.777	176.439	0.258	0.382
-577.763	-135.684	-0.196	-0.024
-576.748	800.000	0.065	-0.185
-575.733	-119.756	0.440	-0.077
-574.719	800.000	0.041	-0.180
-573.704	-140.753	-0.084	0.009
-572.690	-71.385	0.147	-0.056
-571.675	800.000	0.100	0.371
-570.661	14.991	-0.183	0.146
-569.646	219.514	0.027	-0.044
-568.631	-58.616	0.315	0.139
-567.617	-102.244	0.210	0.051
-566.602	-140.753	-0.235	0.025
-565.588	800.000	0.151	-0.595
-564.573	-200.000	0.013	-0.225
-563.558	-200.000	-0.007	-0.082
-562.544	-8.543	0.130	-0.089
-561.529	353.758	0.159	-0.320
-560.515	-200.000	0.026	-0.159
-559.500	800.000	-0.051	-0.174
-558.485	25.845	0.056	0.048
-557.471	-137.396	0.329	-0.038
-556.456	279.244	0.063	-0.115
-555.442	-200.000	-0.008	-0.041
-554.427	423.063	0.084	-0.184
-553.412	4.557	-0.126	-0.094
-552.398	-200.000	-0.011	-0.093
-551.383	453.545	-0.110	0.247
-550.369	-11.743	-0.136	-0.091
-549.354	-141.541	-0.356	-0.037
-548.339	542.332	-0.167	-0.404
-547.325	21.406	-0.247	0.204
-546.310	-63.873	0.084	-0.035
-545.296	-117.564	0.307	-0.056
-544.281	163.400	-0.165	-0.236
-543.266	-61.262	-0.376	-0.161
-542.252	113.884	0.128	-0.159
-541.237	-113.131	-0.161	0.032
-540.223	224.445	0.035	-0.057
-539.208	-80.706	-0.194	-0.065
-538.193	187.258	0.046	-0.070
-537.179	-200.000	0.017	-0.188
-536.164	-11.746	-0.243	0.162
-535.150	800.000	-0.049	-0.153
-534.135	271.382	-0.144	0.258
-533.121	-73.274	-0.168	-0.062
-532.106	59.967	-0.084	-0.085
-531.091	-200.000	-0.030	-0.333
-530.077	800.000	-0.113	0.364
-529.062	469.555	-0.093	0.213
-528.048	0.764	-0.131	-0.096
-527.033	800.000	-0.012	-0.035
-526.018	-39.707	0.345	-0.183
-525.004	-14.040	-0.159	0.104
-523.989	83.974	0.046	-0.051
-522.975	-76.941	-0.269	-0.096
-521.960	-164.877	-0.261	0.012
-520.945	83.335	0.166	-0.183
-519.931	-74.878	-0.111	-0.041
-518.916	-157.242	0.457	0.028
-517.902	74.151	0.253	0.270
-516.887	-93.218	0.137	0.039
-515.872	-167.293	0.214	0.009
-514.858	119.267	-0.261	-0.328
-513.843	-200.000	-0.036	0.258
-512.829	109.548	-0.175	-0.212
-511.814	-40.419	0.170	-0.089
-510.799	-200.000	-0.052	0.258
-509.785	-35.121	-0.058	0.032
-508.770	117.751	-0.134	-0.167
-507.756	-200.000	0.020	-0.223
-506.741	-113.676	-0.329	-0.065
-505.726	800.000	-0.134	-0.472
-504.712	-181.554	-0.357	0.007
-503.697	220.706	-0.177	-0.287
-502.683	253.855	0.059	-0.102
-501.668	-67.078	-0.206	-0.083
-500.653	470.681	-0.083	-0.189
-499.639	-61.936	-0.311	-0.132
-498.624	-11.585	-0.184	0.123
-497.610	-115.827	-0.094	0.018
-496.595	-72.683	-0.188	0.070
-495.581	-83.201	0.178	0.058
-494.566	-90.118	-0.175	-0.052
-493.551	83.254	-0.167	0.184
-492.537	-200.000	-0.077	-0.412
-491.522	-114.023	-0.518	-0.102
-490.508	96.539	-0.045	0.052
-489.493	33.199	-0.312	-0.275
-488.478	-42.541	0.111	-0.057
-487.464	378.388	0.082	0.170
-486.449	239.687	-0.174	0.294
-485.435	-68.205	-0.096	-0.038
-484.420	115.997	-0.178	0.220
-483.405	-137.568	0.077	0.009
-482.391	46.665	0.324	-0.305
-481.376	-127.941	0.348	0.051
-480.362	38.007	-0.052	-0.047
-479.347	-200.000	-0.050	0.266
-478.332	-200.000	-0.013	-0.211
-477.318	37.173	0.151	0.136
-476.303	800.000	0.081	0.269
-475.289	800.000	-0.046	0.170
-474.274	-41.771	0.118	-0.061
-473.259	800.000	-0.054	0.225
-472.245	204.715	-0.091	0.144
-471.230	158.833	-0.160	0.226
-470.216	-200.000	0.012	-0.229
-469.201	-72.094	-0.337	0.127
-468.186	-144.941	0.441	0.041
-467.172	-97.894	-0.288	0.075
-466.157	266.975	-0.209	0.370
-465.143	-200.000	-0.041	0.368
-464.128	-67.908	0.104	0.041
-463.113	218.731	-0.150	0.243
-462.099	522.438	0.049	-0.116
-461.084	-95.656	0.394	0.107
-460.070	800.000	-0.118	-0.489
-459.055	35.189	0.209	0.186
-458.040	800.000	0.063	-0.198
-457.026	-37.159	-0.135	0.073
-456.011	-200.000	0.017	0.196
-454.997	322.037	-0.078	-0.150
-453.982	800.000	-0.017	0.065
-452.968	-200.000	0.047	0.382
-451.953	687.945	0.163	0.431
-450.938	-97.842	-0.106	-0.028
-449.924	223.398	0.177	0.289
-448.909	-164.916	0.197	0.009
-447.895	-200.000	0.003	-0.013
-446.880	-53.606	0.409	0.189
-445.865	179.196	0.090	-0.134
-444.851	-128.637	0.039	0.006
-443.836	229.214	-0.075	-0.124
-442.822	-200.000	-0.011	0.200
-441.807	-200.000	0.042	0.230
-440.792	-78.980	0.151	0.052
-439.778	-200.000	0.029	-0.259
-438.763	-200.000	0.015	-0.098
-437.749	137.522	-0.045	-0.059
-436.734	-40.977	0.069	0.036
-435.719	-200.000	0.004	0.055
-434.705	-79.181	0.199	-0.068
-433.690	800.000	0.062	-0.177
-432.676	59.350	0.216	0.215
-431.661	-154.250	0.279	0.019
-430.646	-53.871	-0.077	0.036
-429.632	786.671	0.076	-0.210
-428.617	-40.656	-0.135	0.071
-427.603	63.360	-0.151	-0.153
-426.588	-200.000	-0.037	-0.228
-425.573	2.484	0.120	0.088
-424.559	590.782	-0.092	0.230
-423.544	-147.242	0.411	-0.035
-422.530	-68.566	-0.021	-0.008
-421.515	-200.000	0.075	0.442
-420.500	40.042	0.206	-0.188
-419.486	-200.000	-0.028	0.236
-418.471	167.997	0.082	-0.117
-417.457	-72.273	-0.393	-0.147
-416.442	-169.914	0.148	0.005
-415.428	-161.382	-0.226	0.012
-414.413	-200.000	0.024	-0.119
-413.398	184.146	-0.097	0.145
-412.384	144.023	-0.167	0.225
-411.369	315.825	-0.069	-0.132
-410.355	3.607	0.205	0.151
-409.340	442.951	-0.107	-0.238
-408.325	-148.133	-0.214	-0.018
-407.311	215.397	-0.070	0.112
-406.296	-200.000	0.030	0.217
-405.282	-68.486	0.201	0.079
-404.267	194.127	-0.207	-0.317
-403.252	-200.000	0.013	-0.138
-402.238	-172.226	-0.143	0.005
-401.223	36.690	-0.087	-0.078
-400.209	-171.414	-0.329	-0.011
-399.194	-200.000	-0.100	0.462
-398.179	5.041	-0.152	-0.113
-397.165	-200.000	0.015	0.343
-396.150	-102.981	-0.186	-0.045
-395.136	-124.451	0.121	0.019
-394.121	800.000	0.092	0.298
-393.106	-200.000	-0.005	0.290
-392.092	498.314	0.133	-0.310
-391.077	-164.882	0.221	0.010
-390.063	51.963	0.184	-0.177
-389.048	22.983	-0.198	0.164
-388.033	-200.000	-0.005	0.152
-387.019	-86.291	0.120	0.037
-386.004	-180.368	-0.153	-0.003
-384.990	-90.367	0.057	0.017
-383.975	9.547	-0.076	-0.058
-382.960	800.000	-0.063	-0.192
-381.946	-39.597	0.164	0.087
-380.931	-20.704	-0.261	-0.162
-379.917	-46.567	-0.171	-0.084
-378.902	-98.911	-0.262	0.067
-377.888	667.455	0.103	-0.269
-376.873	-118.116	-0.112	0.020
-375.858	-14.231	-0.164	0.107
-374.844	645.362	-0.064	0.166
-373.829	-131.687	-0.279	-0.037
-372.815	-52.041	0.312	-0.146
-371.800	-23.892	0.336	-0.203
-370.785	-200.000	0.026	-0.143
-369.771	-200.000	0.011	0.210
-368.756	-33.814	-0.201	-0.112
-367.742	-138.675	-0.210	0.023
-366.727	44.026	0.151	0.140
-365.712	74.425	0.163	-0.173
-364.698	-65.820	-0.191	0.077
-363.683	5.046	0.057	-0.043
-362.669	-200.000	-0.039	-0.216
-361.654	-200.000	0.030	-0.403
-360.639	-200.000	0.021	-0.140
-359.625	-33.488	0.167	0.093
-358.610	299.747	0.104	-0.193
-357.596	183.308	-0.032	-0.047
-356.581	750.765	0.063	0.171
-355.566	-181.568	-0.229	0.004
-354.552	-94.455	0.210	-0.058
-353.537	29.806	0.342	-0.294
-352.523	-200.000	-0.017	0.295
-351.508	-47.699	-0.044	0.022
-350.493	382.745	-0.046	-0.095
-349.479	800.000	0.134	-0.407
-348.464	-200.000	0.008	-0.056
-347.450	577.784	0.141	0.348
-346.435	261.639	-0.103	0.179
-345.420	-40.859	-0.292	-0.152
-344.406	60.429	0.125	-0.125
-343.391	73.286	-0.097	-0.103
-342.377	-200.000	0.047	-0.315
-341.362	-32.345	-0.362	-0.204
-340.348	-79.553	0.271	0.092
-339.333	-66.113	0.207	-0.083
-338.318	218.891	0.191	0.307
-337.304	-103.527	0.176	0.042
-336.289	-48.710	0.043	-0.021
-335.275	241.437	-0.141	0.237
-334.260	30.444	0.117	0.101
-333.245	163.486	-0.165	-0.234
-332.231	23.082	0.149	0.123
-331.216	800.000	0.097	0.403
-330.202	-188.654	0.411	-0.005
-329.187	-97.137	0.130	-0.034
-328.172	800.000	0.048	0.151
-327.158	800.000	0.045	-0.159
-326.143	660.712	0.062	0.161
-325.129	800.000	-0.086	0.347
-324.114	-116.817	0.171	0.031
-323.099	800.000	0.047	0.173
-322.085	421.458	-0.183	0.395
-321.070	487.649	-0.106	-0.244
-320.056	116.175	-0.076	-0.094
-319.041	-125.395	0.409	-0.063
-318.026	-139.282	-0.150	0.016
-317.012	-200.000	-0.087	-0.431
-315.997	-200.000	-0.000	-0.287
-314.983	29.421	0.208	0.178
-313.968	-200.000	0.006	0.110
-312.953	-200.000	0.034	0.167
-311.939	235.425	-0.080	-0.133
-310.924	9.271	-0.192	-0.146
-309.910	211.805	0.011	0.017
-308.895	-3.757	-0.197	-0.137
-307.880	-67.325	0.463	-0.183
-306.866	-200.000	-0.002	-0.288
-305.851	47.149	0.244	-0.228
-304.837	-200.000	-0.001	0.074
-303.822	-3.398	0.220	-0.154
-302.807	-46.200	0.278	-0.138
-301.793	21.853	-0.225	-0.185
-300.778	-200.000	-0.028	-0.321
-299.764	-200.000	0.018	-0.207
-298.749	-200.000	0.012	0.403
-297.735	80.277	-0.135	0.146
-296.720	430.634	0.076	-0.166
-295.705	314.771	-0.117	0.222
-294.691	800.000	0.052	-0.184
-293.676	276.945	-0.165	-0.295
-292.662	800.000	-0.028	0.079
-291.647	-200.000	-0.033	0.481
-290.632	800.000	0.026	-0.092
-289.618	468.803	0.084	0.191
-288.603	264.595	0.073	-0.128
-287.589	-163.641	0.111	-0.005
-286.574	302.462	0.193	-0.359
-285.559	-2.753	0.166	-0.117
-284.545	-120.470	0.368	-0.063
-283.530	-200.000	0.037	-0.262
-282.516	-11.674	0.113	-0.075
-281.501	800.000	0.029	0.098
-280.486	-200.000	-0.008	0.129
-279.472	71.642	-0.118	0.123
-278.457	800.000	-0.018	0.074
-277.443	554.081	-0.059	-0.144
-276.428	-159.732	-0.307	-0.017
-275.413	-77.570	0.436	-0.152
-274.399	-108.790	0.103	0.022
-273.384	-160.789	-0.199	-0.011
-272.370	-142.763	-0.262	0.026
-271.355	156.756	-0.144	0.200
-270.340	91.154	-0.142	-0.160
-269.326	12.563	-0.052	-0.041
-268.311	-24.999	0.321	-0.191
-267.297	-65.862	-0.112	-0.045
-266.282	58.118	-0.263	-0.259
-265.267	-23.531	0.282	-0.170
-264.253	468.134	-0.131	0.296
-263.238	-200.000	0.064	-0.284
-262.224	42.667	0.047	0.043
-261.209	-80.896	-0.275	0.092
-260.195	-39.911	0.276	0.145
-259.180	190.695	0.132	0.199
-258.165	-6.753	-0.134	-0.091
-257.151	-38.539	0.329	-0.175
-256.136	194.871	-0.005	0.008
-255.122	3.241	0.150	-0.109
-254.107	148.064	-0.244	0.330
-253.092	-102.054	0.221	0.054
-252.078	-200.000	0.048	-0.238
-251.063	-132.049	-0.435	-0.057
-250.049	72.435	0.087	-0.091
-249.034	450.155	-0.070	0.155
-248.019	334.887	0.050	-0.098
-247.005	37.076	0.184	-0.163
-245.990	-200.000	0.032	-0.219
-244.976	-21.412	-0.339	0.208
-243.961	13.362	0.378	0.294
-242.946	546.628	-0.034	0.082
-241.932	368.684	0.046	-0.094
-240.917	-49.812	0.274	-0.131
-239.903	0.148	-0.142	-0.102
-238.888	-181.749	0.103	-0.002
-237.873	81.650	0.088	0.095
-236.859	800.000	-0.028	-0.100
-235.844	-70.743	0.270	-0.102
-234.830	-76.626	0.248	0.087
-233.815	-1.549	0.294	0.208
-232.800	57.117	0.047	-0.046
-231.786	-134.387	0.304	0.037
-230.771	18.348	-0.099	0.079
-229.757	-200.000	-0.010	-0.286
-228.742	-52.161	0.297	0.139
-227.727	-200.000	-0.037	-0.208
-226.713	-114.667	-0.045	0.009
-225.698	800.000	0.062	-0.268
-224.684	-65.809	-0.376	0.151
-223.669	-200.000	-0.015	0.196
-222.655	326.678	0.066	-0.128
-221.640	48.648	0.225	-0.212
-220.625	-200.000	0.077	0.380
-219.611	-126.918	-0.244	-0.036
-218.596	-171.146	0.199	0.007
-217.582	76.789	-0.063	0.067
-216.567	-200.000	0.056	0.265
-215.552	-93.708	-0.057	-0.016
-214.538	0.668	0.076	0.054
-213.523	100.216	-0.077	0.090
-212.509	800.000	0.026	0.100
-211.494	-135.333	0.144	-0.017
-210.479	-61.419	0.036	0.015
-209.465	-200.000	-0.005	0.155
-208.450	-200.000	0.010	0.141
-207.436	800.000	-0.127	0.403
-206.421	356.625	0.059	0.117
-205.406	-200.000	0.040	0.263
-204.392	-200.000	0.003	0.105
-203.377	-167.136	0.092	0.004
-202.363	-169.025	-0.164	-0.006
-201.348	-21.104	0.117	-0.072
-200.333	-8.778	-0.279	0.188
-199.319	800.000	-0.107	-0.322
-198.304	33.558	0.166	-0.145
-197.290	-155.674	-0.281	-0.018
-196.275	6.961	-0.298	0.223
-195.260	-162.838	-0.089	0.004
-194.246	-98.575	-0.288	0.074
-193.231	-68.457	0.139	-0.054
-192.217	-66.107	-0.095	0.038
-191.202	-141.623	0.403	-0.041
-190.187	-103.084	-0.035	-0.008
-189.173	-92.168	0.099	0.028
-188.158	30.340	0.269	-0.230
-187.144	83.306	0.088	0.096
-186.129	-200.000	-0.025	0.169
-185.114	13.050	0.367	0.284
-184.100	229.771	0.148	-0.243
-183.085	-200.000	0.024	0.292
-182.071	-127.814	-0.067	0.010
-181.056	-130.972	0.114	0.015
-180.042	543.763	-0.068	0.163
-179.027	-112.409	-0.305	-0.061
-178.012	48.875	0.132	0.124
-176.998	668.807	-0.065	0.168
-175.983	415.048	-0.073	-0.155
-174.969	-75.416	0.165	0.059
-173.954	800.000	0.022	-0.092
-172.939	800.000	0.100	0.396
-171.925	-200.000	-0.029	-0.290
-170.910	67.198	-0.101	0.103
-169.896	-197.724	-0.256	0.002
-168.881	-200.000	-0.024	0.176
-167.866	14.950	0.131	0.102
-166.852	40.112	0.023	-0.020
-165.837	-73.616	-0.163	0.059
-164.823	-200.000	0.000	-0.122
-163.808	-56.518	-0.177	0.078
-162.793	112.667	-0.144	-0.174
-161.779	102.063	0.034	-0.039
-160.764	-200.000	-0.038	0.212
-159.750	95.472	-0.252	0.288
-158.735	97.595	-0.278	0.319
-157.720	-200.000	0.009	-0.185
-156.706	45.882	0.161	0.149
-155.691	800.000	0.047	0.149
-154.677	-27.293	0.185	-0.108
-153.662	-200.000	0.006	-0.219
-152.647	-6.932	0.200	0.136
-151.633	47.096	-0.224	-0.209
-150.618	-44.140	0.148	0.074
-149.604	118.684	0.104	0.129
-148.589	-200.000	-0.003	-0.200
-147.574	57.056	-0.104	0.102
-146.560	-17.769	-0.085	-0.053
-145.545	800.000	0.077	-0.259
-144.531	-85.846	-0.142	-0.044
-143.516	-43.527	-0.063	0.032
-142.502	13.812	0.065	0.051
-141.487	800.000	0.031	0.132
-140.472	-200.000	-0.006	0.072
-139.458	-99.346	0.062	-0.016
-138.443	-104.941	-0.245	-0.056
-137.429	68.829	-0.219	-0.225
-136.414	128.990	-0.176	0.225
-135.399	-3.715	-0.188	-0.131
-134.385	-27.293	-0.236	-0.137
-133.370	16.711	-0.075	-0.060
-132.356	22.845	-0.201	0.165
-131.341	4.641	-0.057	0.042
-130.326	-95.573	0.319	-0.085
-129.312	-114.119	0.413	0.080
-128.297	173.763	0.259	-0.373
-127.283	299.380	-0.223	-0.411
-126.268	-200.000	-0.022	0.211
-125.253	-21.306	-0.244	0.149
-124.239	201.352	-0.070	0.107
-123.224	-64.962	0.156	0.063
-122.210	-110.037	0.167	0.035
-121.195	165.331	-0.220	0.311
-120.180	-200.000	-0.049	0.333
-119.166	-200.000	-0.003	-0.080
-118.151	-200.000	0.043	-0.287
-117.137	693.125	-0.039	-0.101
-116.122	-132.803	-0.157	0.020
-115.107	-52.524	0.158	-0.073
-114.093	47.974	0.228	-0.213
-113.078	14.192	0.285	-0.222
-112.064	-200.000	0.048	-0.437
-111.049	-44.747	0.061	-0.030
-110.034	-134.279	-0.083	-0.010
-109.020	-86.809	-0.344	0.105
-108.005	37.167	0.126	-0.112
-106.991	800.000	-0.061	-0.195
-105.976	-14.420	0.102	-0.065
-104.962	-200.000	0.046	0.538
-103.947	-158.743	0.295	-0.017
-102.932	-57.210	-0.114	-0.050
-101.918	-170.514	0.472	-0.016
-100.903	-200.000	0.040	-0.230
-99.889	-96.480	-0.122	-0.032
-98.874	45.138	-0.190	-0.175
-97.859	139.587	0.284	0.373
-96.845	735.707	0.025	-0.067
-95.830	16.346	-0.395	-0.311
-94.816	800.000	-0.077	-0.274
-93.801	-88.747	-0.257	-0.076
-92.786	-94.389	-0.204	-0.056
-91.772	236.698	0.135	-0.223
-90.757	-106.892	0.516	-0.114
-89.743	-46.440	-0.116	0.057
-88.728	-200.000	0.034	-0.364
-87.713	-86.449	-0.402	-0.123
-86.699	220.988	0.010	0.016
-85.684	800.000	0.018	-0.052
-84.670	-90.940	0.192	0.055
-83.655	-166.268	-0.231	-0.010
-82.640	-89.653	-0.267	0.078
-81.626	674.184	-0.107	0.276
-80.611	-29.713	-0.066	-0.038
-79.597	-111.684	0.281	-0.057
-78.582	59.023	0.373	0.366
-77.567	-1.532	0.246	-0.173
-76.553	-136.700	-0.544	-0.063
-75.538	-149.713	-0.215	-0.017
-74.524	458.484	0.058	-0.128
-73.509	94.111	-0.215	-0.243
-72.494	-0.755	0.169	-0.120
-71.480	-200.000	-0.006	-0.300
-70.465	-200.000	0.026	-0.356
-69.451	-3.678	-0.061	-0.042
-68.436	-162.940	0.204	0.010
-67.422	-200.000	-0.010	-0.076
-66.407	-200.000	0.026	0.377
-65.392	-200.000	0.011	0.079
-64.378	-54.199	-0.357	-0.162
-63.363	-200.000	-0.014	0.171
-62.349	360.786	0.147	0.293
-61.334	75.026	-0.759	-0.798
-60.319	136.448	0.256	0.334
-59.305	-200.000	-0.023	-0.658
-58.290	506.360	0.339	0.783
-57.276	800.000	0.445	1.524
-56.261	-200.000	75.833	535.229
-55.246	563.341	1304.465	3148.207
-54.232	145.996	2546.758	3404.697
-53.217	113.311	2348.869	2840.844
-52.203	51.628	1963.598	1860.869
-51.188	45.449	1750.927	1610.814
-50.173	42.502	1704.567	1545.465
-49.159	56.880	1738.933	1688.316
-48.144	62.693	1757.124	1750.883
-47.130	45.425	1720.331	1582.228
-46.115	41.965	1707.038	1543.314
-45.100	41.722	1702.673	1537.437
-44.086	41.820	1699.498	1535.266
-43.071	41.741	1697.195	1532.518
-42.057	41.799	1694.458	1530.427
-41.042	41.794	1692.170	1528.265
-40.027	41.793	1690.310	1526.513
-39.013	41.802	1688.289	1524.696
-37.998	41.771	1686.665	1522.933
-36.984	41.853	1685.159	1522.135
-35.969	41.961	1683.815	1521.683
-34.954	42.089	1681.646	1520.635
-33.940	42.088	1679.460	1518.592
-32.925	42.033	1677.597	1516.431
-31.911	41.993	1676.469	1515.050
-30.896	42.015	1674.247	1513.144
-29.881	41.994	1672.890	1511.704
-28.867	41.891	1671.164	1509.302
-27.852	42.008	1669.487	1508.614
-26.838	41.922	1668.098	1506.646
-25.823	41.903	1666.914	1505.373
-24.809	41.969	1665.203	1504.265
-23.794	41.946	1664.033	1502.976
-22.779	42.026	1661.788	1501.488
-21.765	41.948	1660.097	1499.322
-20.750	41.945	1658.700	1497.977
-19.736	41.992	1657.313	1497.012
-18.721	41.971	1656.396	1495.971
-17.706	41.950	1654.733	1494.251
-16.692	41.914	1652.987	1492.345
-15.677	41.954	1650.888	1490.693
-14.663	41.962	1649.972	1489.864
-13.648	41.979	1648.989	1489.043
-12.633	42.006	1646.715	1487.133
-11.619	41.972	1645.237	1485.485
-10.604	41.888	1643.910	1483.606
-9.590	41.994	1642.717	1483.261
-8.575	41.989	1641.404	1481.972
-7.560	42.038	1639.553	1480.607
-6.546	41.929	1639.006	1479.253
-5.531	41.969	1637.529	1478.152
-4.517	41.882	1636.589	1476.606
-3.502	41.906	1635.243	1475.505
-2.487	41.966	1634.105	1474.863
-1.473	42.038	1623.261	1465.547
-0.458	40.024	1603.699	1433.242
0.556	35.355	1603.235	1399.681
1.571	32.608	1627.202	1400.096
2.586	31.651	1641.556	1405.144
3.600	27.570	1587.030	1328.674
4.615	14.942	1464.675	1140.574
5.629	3.263	1388.470	1005.248
6.644	0.986	1378.629	983.262
7.659	0.895	1376.607	981.142
8.673	0.862	1375.570	980.107
9.688	0.798	1373.757	978.310
10.702	0.691	1371.087	975.634
11.717	4.530	1379.547	1006.470
12.731	15.852	1401.524	1096.555
13.746	23.749	1414.460	1158.289
14.761	24.425	1414.591	1162.694
15.775	24.493	1413.952	1162.511
16.790	24.585	1413.518	1162.648
17.804	24.630	1412.610	1162.092
18.819	24.764	1412.859	1163.067
19.834	24.934	1411.716	1163.127
20.848	24.862	1411.183	1162.121
21.863	24.784	1410.487	1160.933
22.877	24.867	1409.142	1160.265
23.892	24.927	1408.002	1159.609
24.907	24.864	1407.336	1158.551
25.921	24.840	1406.843	1157.887
26.936	24.766	1405.934	1156.562
27.950	24.817	1404.527	1155.632
28.965	24.832	1403.098	1154.446
29.980	24.902	1401.641	1153.595
30.994	24.876	1400.615	1152.482
32.009	24.851	1399.162	1151.029
33.023	24.968	1397.894	1150.633
34.038	24.878	1397.177	1149.362
35.053	24.836	1395.888	1147.930
36.067	24.867	1394.766	1147.104
37.082	24.916	1393.821	1146.541
38.096	24.828	1392.868	1145.090
39.111	24.883	1392.297	1144.872
40.126	24.822	1391.745	1143.927
41.140	24.817	1391.198	1143.344
42.155	24.953	1390.402	1143.457
43.169	24.871	1390.840	1143.192
44.184	24.841	1390.491	1142.617
45.199	24.851	1389.832	1142.035
46.213	24.838	1389.744	1141.781
47.228	24.924	1388.248	1140.998
48.242	24.828	1387.272	1139.483
49.257	24.854	1385.941	1138.456
50.271	24.807	1384.302	1136.706
51.286	24.847	1383.206	1135.964
52.301	24.790	1381.672	1134.243
53.315	24.919	1380.722	1134.179
54.330	24.791	1380.384	1132.985
55.344	24.870	1378.746	1132.042
56.359	24.877	1377.608	1131.054
57.374	24.836	1376.942	1130.148
58.388	24.897	1376.115	1129.756
59.403	24.859	1376.077	1129.384
60.417	24.866	1375.317	1128.705
61.432	24.841	1374.144	1127.484
62.447	24.800	1373.751	1126.805
63.461	24.837	1372.402	1125.832
64.476	24.809	1371.424	1124.753
65.490	24.735	1370.642	1123.543
66.505	24.811	1368.763	1122.383
67.520	24.875	1367.272	1121.461
68.534	24.899	1366.378	1120.781
69.549	24.824	1365.547	1119.532
70.563	24.855	1364.476	1118.744
71.578	24.942	1363.493	1118.386
72.593	24.848	1362.768	1117.102
73.607	24.912	1361.802	1116.610
74.622	24.840	1361.102	1115.491
75.636	24.930	1360.018	1115.063
76.651	24.900	1359.622	1114.452
77.666	24.977	1358.629	1114.018
78.680	24.783	1358.723	1112.791
79.695	24.828	1358.223	1112.565
80.709	24.769	1357.189	1111.254
81.724	24.873	1356.224	1111.008
82.739	24.913	1354.993	1110.150
83.753	24.866	1354.284	1109.183
84.768	24.852	1353.118	1108.038
85.782	24.861	1351.883	1106.987
86.797	24.895	1350.823	1106.230
87.812	24.970	1349.823	1105.779
88.826	24.907	1348.599	1104.287
89.841	24.847	1347.838	1103.196
90.855	24.855	1346.804	1102.304
91.870	24.835	1345.884	1101.328
92.884	24.980	1344.960	1101.366
93.899	24.987	1344.025	1100.544
94.914	24.976	1343.520	1099.966
95.928	24.985	1342.620	1099.189
96.943	24.903	1342.088	1098.152
97.957	24.959	1341.207	1097.680
98.972	24.849	1340.673	1096.474
99.987	24.912	1339.495	1095.794
101.001	24.932	1338.232	1094.789
102.016	24.832	1337.732	1093.672
103.030	25.008	1336.313	1093.490
104.045	24.875	1336.349	1092.608
105.060	24.931	1335.042	1091.784
106.074	25.014	1333.540	1090.968
107.089	24.843	1333.247	1089.588
108.103	24.942	1331.709	1088.837
109.118	24.964	1330.198	1087.637
110.133	24.969	1329.577	1087.067
111.147	25.036	1328.049	1086.128
112.162	24.963	1326.887	1084.639
113.176	24.901	1326.000	1083.440
114.191	24.989	1325.308	1083.315
115.206	24.947	1324.058	1081.943
116.220	25.087	1322.778	1081.644
117.235	24.930	1322.096	1080.045
118.249	25.074	1320.902	1079.845
119.264	24.906	1320.194	1078.157
120.279	24.971	1319.634	1077.997
121.293	24.973	1319.005	1077.397
122.308	25.041	1318.092	1076.967
123.322	25.089	1316.819	1076.119
124.337	25.013	1316.133	1075.006
125.352	24.943	1315.546	1074.011
126.366	24.961	1314.835	1073.444
127.381	25.088	1313.190	1072.768
128.395	25.071	1312.480	1071.989
129.410	25.115	1311.632	1071.467
130.424	25.032	1311.407	1070.687
131.439	25.062	1310.282	1069.858
132.454	25.096	1309.291	1069.154
133.468	25.042	1308.995	1068.493
134.483	25.058	1308.295	1067.929
135.497	25.024	1307.476	1066.962
136.512	25.016	1306.544	1066.059
137.527	25.036	1305.666	1065.365
138.541	25.002	1304.404	1064.040
139.556	25.117	1302.575	1063.133
140.570	24.942	1302.144	1061.651
141.585	25.018	1300.748	1060.873
142.600	25.042	1299.460	1059.866
143.614	25.036	1298.915	1059.294
144.629	24.970	1297.541	1057.691
145.643	24.931	1297.238	1057.118
146.658	24.864	1296.050	1055.666
147.673	24.927	1295.287	1055.318
148.687	24.970	1293.780	1054.253
149.702	24.946	1292.929	1053.326
150.716	24.919	1291.759	1052.116
151.731	24.957	1290.347	1051.097
152.746	25.003	1289.117	1050.276
153.760	24.938	1288.424	1049.237
154.775	25.040	1287.070	1048.636
155.789	24.980	1286.581	1047.792
156.804	25.026	1285.477	1047.071
157.819	25.038	1284.844	1046.534
158.833	25.106	1284.174	1046.291
159.848	24.940	1283.471	1044.658
160.862	25.097	1282.143	1044.397
161.877	25.085	1281.697	1043.875
162.892	25.147	1280.726	1043.352
163.906	25.049	1280.136	1042.210
164.921	25.056	1279.461	1041.608
165.935	25.084	1278.854	1041.184
166.950	25.133	1277.713	1040.445
167.964	25.118	1277.084	1039.757
168.979	25.132	1276.948	1039.633
169.994	25.175	1275.831	1038.884
171.008	25.164	1275.179	1038.195
172.023	25.107	1274.502	1037.222
173.037	25.142	1273.939	1036.875
174.052	25.158	1273.140	1036.227
175.067	25.179	1272.110	1035.414
176.081	25.068	1271.847	1034.470
177.096	25.134	1270.400	1033.584
178.110	25.141	1269.791	1033.034
179.125	25.106	1268.961	1032.065
180.140	25.170	1267.820	1031.416
181.154	25.208	1266.441	1030.424
182.169	25.228	1265.181	1029.422
183.183	25.201	1264.332	1028.485
184.198	25.227	1263.338	1027.733
185.213	25.211	1262.796	1027.111
186.227	25.245	1261.515	1026.172
187.242	25.284	1260.652	1025.602
188.256	25.230	1259.956	1024.637
189.271	25.254	1258.820	1023.760
190.286	25.218	1258.387	1023.112
191.300	25.176	1258.004	1022.467
192.315	25.072	1257.492	1021.370
193.329	25.237	1256.896	1021.733
194.344	25.264	1256.651	1021.599
195.359	25.251	1255.729	1020.685
196.373	25.167	1255.618	1020.025
197.388	25.122	1255.095	1019.254
198.402	25.123	1254.900	1019.015
199.417	25.263	1254.068	1019.039
200.432	25.147	1253.689	1017.986
201.446	25.152	1252.624	1017.060
202.461	25.158	1251.895	1016.413
203.475	25.203	1251.158	1015.976
204.490	25.086	1250.539	1014.723
205.504	25.152	1249.568	1014.217
206.519	25.225	1248.486	1013.661
207.534	25.289	1247.423	1013.069
208.548	25.314	1246.425	1012.313
209.563	25.297	1245.722	1011.558
210.577	25.246	1244.848	1010.467
211.592	25.374	1243.832	1010.275
212.607	25.345	1243.163	1009.480
213.621	25.357	1242.317	1008.769
214.636	25.348	1241.364	1007.855
215.650	25.342	1240.988	1007.428
216.665	25.345	1239.612	1006.241
217.680	25.310	1238.896	1005.373
218.694	25.237	1238.810	1004.806
219.709	25.427	1237.206	1004.477
220.723	25.385	1236.571	1003.637
221.738	25.376	1235.762	1002.845
222.753	25.317	1235.220	1001.983
223.767	25.427	1234.626	1002.028
224.782	25.459	1234.077	1001.674
225.796	25.523	1233.321	1001.324
226.811	25.534	1232.893	1000.953
227.826	25.498	1232.508	1000.352
228.840	25.399	1231.718	999.072
229.855	25.385	1231.159	998.452
230.869	25.427	1230.442	998.011
231.884	25.476	1229.783	997.665
232.899	25.414	1228.878	996.496
233.913	25.434	1228.341	996.082
234.928	25.507	1228.006	996.130
235.942	25.504	1227.167	995.343
236.957	25.465	1226.299	994.333
237.972	25.448	1225.819	993.762
238.986	25.499	1225.025	993.317
240.001	25.515	1224.586	992.957
241.015	25.561	1223.963	992.619
242.030	25.581	1222.896	991.778
243.045	25.593	1222.543	991.471
244.059	25.526	1221.734	990.359
245.074	25.654	1220.568	990.026
246.088	25.637	1220.331	989.657
247.103	25.615	1219.161	988.498
248.117	25.626	1218.426	987.874
249.132	25.769	1217.458	987.787
250.147	25.742	1216.988	987.170
251.161	25.708	1216.147	986.215
252.176	25.696	1215.486	985.527
253.190	25.621	1214.934	984.580
254.205	25.706	1214.245	984.400
255.220	25.607	1213.813	983.422
256.234	25.654	1213.522	983.356
257.249	25.663	1212.801	982.735
258.263	25.653	1211.856	981.827
259.278	25.710	1211.326	981.620
260.293	25.777	1210.618	981.324
261.307	25.766	1210.458	981.047
262.322	25.638	1209.689	979.640
263.336	25.791	1208.784	979.652
264.351	25.723	1208.286	978.791
265.366	25.688	1207.948	978.242
266.380	25.694	1207.319	977.682
267.395	25.706	1206.530	977.017
268.409	25.678	1205.697	976.108
269.424	25.717	1205.592	976.147
270.439	25.723	1204.902	975.536
271.453	25.700	1204.499	974.998
272.468	25.718	1203.352	974.080
273.482	25.821	1202.386	973.765
274.497	25.751	1202.315	973.248
275.512	25.858	1201.139	972.784
276.526	25.832	1200.925	972.386
277.541	25.778	1200.173	971.399
278.555	25.804	1199.427	970.853
279.570	25.876	1198.395	970.319
280.585	25.897	1197.462	969.587
281.599	25.879	1196.880	968.937
282.614	25.862	1196.256	968.250
283.628	25.832	1195.359	967.279
284.643	25.890	1194.277	966.630
285.657	25.867	1193.742	965.986
286.672	25.923	1192.792	965.432
287.687	25.908	1191.990	964.621
288.701	26.044	1190.970	964.434
289.716	25.999	1190.732	963.918
290.730	25.967	1189.964	963.036
291.745	26.030	1189.338	962.784
292.760	25.996	1188.746	962.037
293.774	26.019	1188.231	961.656
294.789	26.109	1187.588	961.533
295.803	26.182	1187.015	961.372
296.818	26.051	1186.687	960.320
297.833	26.036	1185.812	959.449
298.847	25.989	1185.244	958.658
299.862	26.102	1184.063	958.217
300.876	26.066	1183.270	957.297
301.891	26.096	1183.087	957.225
302.906	26.081	1182.424	956.526
303.920	26.240	1181.335	956.400
304.935	26.236	1180.877	955.925
305.949	26.149	1180.350	954.952
306.964	26.199	1179.540	954.479
307.979	26.224	1178.817	953.942
308.993	26.277	1178.289	953.706
310.008	26.154	1177.482	952.322
311.022	26.206	1176.717	951.891
312.037	26.053	1176.500	950.828
313.052	26.239	1174.973	950.486
314.066	26.242	1174.150	949.753
315.081	26.287	1173.067	949.032
316.095	26.214	1172.868	948.399
317.110	26.169	1172.494	947.778
318.125	26.188	1172.118	947.491
319.139	26.148	1171.541	946.731
320.154	26.193	1170.703	946.205
321.168	26.193	1170.152	945.674
322.183	26.238	1169.364	945.192
323.197	26.120	1169.008	944.201
324.212	26.258	1168.134	944.134
325.227	26.294	1167.773	943.949
326.241	26.274	1167.265	943.347
327.256	26.355	1166.770	943.285
328.270	26.350	1165.676	942.291
329.285	26.347	1164.841	941.518
330.300	26.401	1164.271	941.257
331.314	26.297	1163.430	939.954
332.329	26.367	1162.247	939.275
333.343	26.401	1161.675	938.911
334.358	26.570	1160.821	939.014
335.373	26.446	1160.073	937.680
336.387	26.497	1159.336	937.267
337.402	26.504	1158.812	936.794
338.416	26.413	1158.500	935.991
339.431	26.458	1157.931	935.682
340.446	26.503	1156.772	934.891
341.460	26.521	1156.455	934.649
342.475	26.443	1155.765	933.604
343.489	26.509	1154.982	933.230
344.504	26.571	1153.423	932.209
345.519	26.629	1152.313	931.525
346.533	26.650	1151.604	930.978
347.548	26.537	1151.333	930.094
348.562	26.569	1150.749	929.708
349.577	26.574	1149.991	929.037
350.592	26.489	1149.376	928.023
351.606	26.532	1148.337	927.320
352.621	26.499	1148.042	926.834
353.635	26.518	1147.660	926.539
354.650	26.567	1146.641	925.884
355.665	26.572	1146.120	925.408
356.679	26.768	1145.234	925.611
357.694	26.644	1145.186	924.856
358.708	26.605	1144.256	923.827
359.723	26.567	1143.479	922.921
360.738	26.674	1142.718	922.771
361.752	26.654	1142.331	922.275
362.767	26.752	1141.932	922.371
363.781	26.807	1141.036	921.844
364.796	26.843	1140.499	921.515
365.810	26.846	1139.896	920.959
366.825	26.874	1139.110	920.387
367.840	26.793	1139.078	919.866
368.854	26.808	1138.629	919.501
369.869	26.771	1137.449	918.275
370.883	26.828	1136.824	917.979
371.898	26.786	1136.257	917.228
372.913	26.796	1135.666	916.722
373.927	26.792	1135.199	916.240
374.942	26.868	1134.605	916.067
375.956	26.919	1133.999	915.751
376.971	26.873	1133.551	915.075
377.986	26.922	1132.872	914.694
379.000	26.845	1132.578	913.989
380.015	26.973	1131.766	913.899
381.029	26.899	1131.318	913.081
382.044	26.948	1130.419	912.523
383.059	27.001	1129.909	912.296
384.073	26.996	1129.276	911.678
385.088	27.017	1128.215	910.849
386.102	27.061	1127.298	910.246
387.117	27.027	1126.461	909.323
388.132	27.016	1125.999	908.814
389.146	27.178	1124.834	908.602
390.161	27.087	1124.195	907.550
391.175	27.058	1123.624	906.862
392.190	27.090	1123.224	906.621
393.205	27.082	1122.381	905.818
394.219	27.076	1121.727	905.182
395.234	27.155	1120.907	904.834
396.248	27.141	1119.772	903.768
397.263	27.147	1119.059	903.144
398.278	27.179	1118.969	903.148
399.292	27.174	1117.642	901.972
400.307	27.198	1117.203	901.658
401.321	27.216	1116.562	901.148
402.336	27.143	1115.929	900.198
403.350	27.154	1115.684	899.975
404.365	27.252	1114.833	899.692
405.380	27.231	1114.115	898.932
406.394	27.337	1113.207	898.642
407.409	27.357	1112.518	898.106
408.423	27.368	1111.905	897.587
409.438	27.389	1111.042	896.914
410.453	27.306	1110.510	895.993
411.467	27.359	1109.915	895.698
412.482	27.361	1109.310	895.140
413.496	27.252	1108.685	894.018
414.511	27.355	1107.844	893.768
415.526	27.368	1107.058	893.120
416.540	27.359	1106.978	892.930
417.555	27.369	1106.341	892.387
418.569	27.404	1105.975	892.182
419.584	27.374	1105.853	891.862
420.599	27.493	1104.977	891.658
421.613	84.263	1293.531	1356.559
422.628	78.985	1321.012	1356.728
