DTS Sentinel unit serial number:	SN413079Multiplexer serial number:	ORYXHardware model number:	OX4-SRSoftware version number:	ORYX F/W v4.00 Oryx Data Collector v3.7.2.0data status	okinstallation	princeton_trtdifferential loss correction	single-endedforward channel	channel 2reverse channel	N/Adate	2019/09/12time	00:25:10forward acquisition time	60.00reverse acquisition time	0.00gamma	496.2192k internal	0.2325k external	0.2325temperature offset calibration	1.0090default loss term (dB/km)	0.3790temperature slope calibration	1.0000multiplexer offset coefficient	1.0000multiplexer slope coefficient	1.0000fibre end	0.00T internal ref (°C)	33.47T ext. ref 1 (°C)	2.05T ext. ref 2 (°C)	27.49length (m)	temperature (°C)	Stokes	anti-Stokes-747.200	-200.000	0.007	0.166
-746.185	-200.000	-0.024	0.445
-745.171	25.747	0.100	0.084
-744.156	57.754	-0.070	0.069
-743.142	-200.000	-0.023	-0.332
-742.127	-200.000	-0.003	-0.189
-741.112	414.367	0.044	-0.094
-740.098	60.410	-0.118	-0.118
-739.083	-12.241	-0.258	-0.170
-738.069	-18.592	-0.184	0.116
-737.054	-154.187	0.254	0.017
-736.039	800.000	-0.091	-0.401
-735.025	-124.406	0.077	-0.012
-734.010	12.497	-0.084	0.066
-732.996	-45.870	-0.185	-0.092
-731.981	268.151	-0.092	0.162
-730.966	55.848	0.296	0.289
-729.952	1.278	-0.186	-0.135
-728.937	13.898	0.224	-0.175
-727.923	359.235	0.076	-0.153
-726.908	-103.152	-0.166	-0.040
-725.894	800.000	0.082	-0.229
-724.879	800.000	0.056	-0.227
-723.864	101.296	0.061	0.072
-722.850	-147.630	-0.147	-0.012
-721.835	-176.765	0.208	0.005
-720.821	-200.000	0.014	0.129
-719.806	-200.000	-0.002	0.061
-718.791	84.511	-0.262	0.289
-717.777	-130.115	-0.067	-0.009
-716.762	-200.000	-0.015	-0.372
-715.748	-57.723	0.147	0.065
-714.733	-85.404	-0.321	-0.101
-713.718	234.404	0.164	0.272
-712.704	369.601	0.120	-0.245
-711.689	100.239	-0.228	-0.266
-710.675	-72.306	-0.079	-0.030
-709.660	800.000	0.037	0.155
-708.645	-138.491	-0.143	-0.016
-707.631	311.910	-0.122	-0.231
-706.616	-21.869	0.103	0.063
-705.602	-180.278	0.210	0.004
-704.587	62.254	-0.324	-0.326
-703.572	66.423	-0.174	-0.178
-702.558	800.000	0.108	-0.427
-701.543	297.698	-0.205	0.379
-700.529	-127.105	0.090	0.013
-699.514	44.898	-0.100	0.093
-698.499	-200.000	-0.022	-0.136
-697.485	-164.865	0.174	0.008
-696.470	-110.350	0.194	-0.041
-695.456	71.839	0.107	0.112
-694.441	-33.547	0.258	0.144
-693.426	-68.018	0.154	-0.061
-692.412	-200.000	-0.013	0.172
-691.397	194.330	0.057	0.086
-690.383	-9.808	0.149	0.100
-689.368	653.175	-0.139	-0.358
-688.354	-116.650	0.215	0.040
-687.339	75.705	-0.195	-0.208
-686.324	800.000	-0.024	0.095
-685.310	-200.000	-0.010	-0.053
-684.295	431.833	0.196	-0.428
-683.281	-19.215	0.250	-0.156
-682.266	104.822	-0.088	0.105
-681.251	-103.628	0.238	-0.056
-680.237	-128.794	-0.166	0.024
-679.222	-102.341	0.234	0.056
-678.208	-109.213	0.079	-0.017
-677.193	-33.376	0.281	0.156
-676.178	-200.000	-0.010	-0.084
-675.164	260.128	-0.059	-0.102
-674.149	48.304	-0.112	-0.106
-673.135	-200.000	0.007	0.108
-672.120	107.128	-0.101	0.121
-671.105	-200.000	-0.126	-0.000
-670.091	800.000	-0.139	-0.408
-669.076	60.775	0.177	0.176
-668.062	-200.000	-0.004	0.022
-667.047	171.547	-0.162	0.233
-666.032	201.011	-0.189	0.293
-665.018	-41.741	0.168	0.087
-664.003	-22.880	-0.075	0.046
-662.989	-162.144	-0.032	0.002
-661.974	800.000	0.050	0.219
-660.959	-102.074	-0.215	0.052
-659.945	-31.547	0.265	-0.150
-658.930	447.574	0.172	-0.381
-657.916	-18.136	0.176	-0.111
-656.901	-90.283	-0.415	-0.121
-655.886	800.000	0.059	-0.247
-654.872	-31.438	-0.205	0.116
-653.857	-115.433	0.077	-0.015
-652.843	290.501	-0.133	0.243
-651.828	-10.152	0.178	-0.119
-650.814	800.000	0.059	-0.183
-649.799	47.860	-0.146	-0.137
-648.784	-94.745	-0.420	-0.114
-647.770	-128.946	0.126	0.018
-646.755	185.311	0.044	-0.066
-645.741	-105.997	0.206	0.047
-644.726	800.000	0.073	0.260
-643.711	-200.000	0.004	0.162
-642.697	-200.000	0.029	0.233
-641.682	-200.000	-0.018	-0.194
-640.668	-63.654	-0.125	0.052
-639.653	14.209	0.155	0.121
-638.638	-31.653	-0.192	0.108
-637.624	800.000	-0.066	-0.284
-636.609	-89.164	-0.344	0.102
-635.595	-34.068	-0.154	-0.085
-634.580	800.000	0.053	0.230
-633.565	-80.004	0.162	-0.055
-632.551	57.859	-0.220	-0.217
-631.536	-109.645	-0.100	0.021
-630.522	-20.991	0.196	-0.121
-629.507	104.538	-0.090	-0.106
-628.492	-200.000	0.005	0.152
-627.478	-200.000	0.033	0.445
-626.463	42.313	0.143	-0.130
-625.449	-103.756	-0.240	-0.056
-624.434	-200.000	-0.004	0.068
-623.419	13.060	0.243	-0.189
-622.405	-200.000	0.000	0.040
-621.390	-76.833	-0.069	0.024
-620.376	-93.831	0.340	0.094
-619.361	-120.696	-0.347	-0.059
-618.346	800.000	0.021	-0.068
-617.332	-187.005	0.290	0.004
-616.317	-127.161	0.055	0.008
-615.303	800.000	-0.015	0.048
-614.288	-200.000	0.051	-0.337
-613.273	22.346	-0.183	-0.150
-612.259	350.592	0.180	0.357
-611.244	195.843	-0.149	-0.227
-610.230	-164.138	-0.230	0.011
-609.215	-132.695	-0.404	-0.052
-608.201	465.814	-0.164	-0.368
-607.186	-200.000	0.079	-0.494
-606.171	-9.992	-0.158	-0.106
-605.157	-200.000	-0.012	-0.067
-604.142	-120.715	0.309	0.052
-603.128	474.756	-0.125	-0.284
-602.113	94.560	0.141	-0.160
-601.098	754.714	-0.071	-0.194
-600.084	800.000	-0.141	-0.526
-599.069	-88.106	0.238	-0.072
-598.055	178.239	-0.122	0.178
-597.040	-161.367	-0.291	-0.015
-596.025	-200.000	0.000	-0.124
-595.011	800.000	0.091	-0.253
-593.996	-181.581	0.099	0.002
-592.982	-146.591	-0.342	-0.030
-591.967	-52.864	-0.068	-0.032
-590.952	15.814	0.133	-0.105
-589.938	-110.839	0.140	-0.029
-588.923	-200.000	-0.044	0.240
-587.909	-200.000	0.006	-0.105
-586.894	-92.756	0.125	-0.035
-585.879	92.679	-0.097	0.109
-584.865	800.000	-0.012	0.050
-583.850	188.239	-0.092	0.138
-582.836	544.826	-0.071	0.171
-581.821	-105.893	0.472	0.107
-580.806	-200.000	-0.044	-0.212
-579.792	-18.456	0.218	-0.136
-578.777	-200.000	-0.021	-0.201
-577.763	-140.956	-0.388	0.040
-576.748	-200.000	0.009	0.141
-575.733	78.949	0.120	-0.129
-574.719	-91.783	-0.141	0.040
-573.704	108.910	-0.101	-0.121
-572.690	263.273	0.011	-0.019
-571.675	-200.000	-0.011	-0.218
-570.661	759.997	0.071	-0.192
-569.646	155.248	-0.110	0.152
-568.631	449.938	0.058	-0.129
-567.617	74.639	0.159	0.167
-566.602	64.830	-0.144	0.146
-565.588	195.415	-0.120	0.182
-564.573	-73.582	0.190	0.070
-563.558	-200.000	-0.008	-0.342
-562.544	-66.738	0.131	0.052
-561.529	-63.383	0.230	-0.095
-560.515	-138.915	-0.257	-0.028
-559.500	-200.000	-0.009	0.274
-558.485	7.241	0.059	-0.044
-557.471	328.958	-0.096	0.184
-556.456	405.210	-0.038	-0.081
-555.442	-200.000	0.020	0.140
-554.427	-200.000	-0.037	0.222
-553.412	-21.604	0.112	0.068
-552.398	736.954	-0.048	-0.130
-551.383	-140.363	0.165	-0.017
-550.369	-130.877	0.356	0.048
-549.354	399.559	-0.132	-0.278
-548.339	-17.055	0.177	-0.112
-547.325	403.902	0.062	-0.131
-546.310	800.000	0.026	-0.083
-545.296	-21.571	-0.229	-0.140
-544.281	-200.000	0.013	-0.301
-543.266	83.775	-0.141	-0.154
-542.252	242.929	-0.101	0.170
-541.237	-98.108	-0.159	0.041
-540.223	-81.447	-0.272	0.090
-539.208	-186.357	-0.555	0.008
-538.193	-200.000	-0.036	0.354
-537.179	-200.000	0.008	0.342
-536.164	-71.074	0.546	-0.205
-535.150	-56.713	0.400	0.177
-534.135	41.819	0.151	-0.137
-533.121	89.758	-0.195	0.217
-532.106	14.973	0.109	0.085
-531.091	75.741	0.168	-0.178
-530.077	19.621	0.120	-0.096
-529.062	387.637	-0.070	0.145
-528.048	110.689	0.221	0.266
-527.033	150.458	-0.141	0.191
-526.018	20.753	0.038	0.031
-525.004	800.000	0.038	-0.128
-523.989	-96.691	-0.173	0.046
-522.975	323.202	0.067	0.128
-521.960	-16.845	0.227	-0.143
-520.945	31.255	-0.053	-0.045
-519.931	-33.285	-0.358	0.198
-518.916	-135.551	0.292	0.035
-517.902	62.266	0.246	0.246
-516.887	39.277	0.138	-0.124
-515.872	-30.241	0.182	0.103
-514.858	100.550	-0.035	-0.040
-513.843	-103.269	0.098	0.023
-512.829	-35.645	0.047	0.026
-511.814	186.550	0.068	-0.101
-510.799	84.110	-0.201	-0.219
-509.785	53.478	0.094	-0.090
-508.770	-171.840	0.118	0.004
-507.756	-121.742	0.204	-0.034
-506.741	-2.944	-0.067	-0.047
-505.726	4.966	-0.206	-0.152
-504.712	-200.000	-0.046	0.221
-503.697	-200.000	-0.047	0.209
-502.683	93.706	0.264	0.299
-501.668	-42.070	-0.033	0.017
-500.653	10.326	-0.154	0.117
-499.639	201.004	-0.184	-0.283
-498.624	-0.699	0.150	-0.106
-497.610	800.000	-0.069	-0.210
-496.595	-109.907	0.275	-0.058
-495.581	-119.388	-0.312	-0.054
-494.566	-116.373	-0.204	0.038
-493.551	-89.046	-0.354	0.105
-492.537	430.642	0.028	0.061
-491.522	800.000	-0.058	0.211
-490.508	800.000	-0.041	-0.127
-489.493	-120.743	-0.160	0.027
-488.478	-94.852	0.157	0.043
-487.464	44.651	-0.227	0.209
-486.449	-50.964	0.259	-0.121
-485.435	-157.939	0.339	-0.020
-484.420	173.493	-0.093	0.135
-483.405	11.152	0.089	-0.068
-482.391	-12.888	-0.048	-0.031
-481.376	-74.448	-0.275	0.099
-480.362	278.202	0.129	-0.230
-479.347	-48.371	-0.268	0.129
-478.332	-200.000	-0.158	-0.001
-477.318	110.279	0.031	-0.037
-476.303	208.257	0.021	-0.033
-475.289	-200.000	-0.009	-0.071
-474.274	79.372	-0.157	0.168
-473.259	-167.316	-0.431	0.017
-472.245	-48.804	0.095	-0.045
-471.230	-10.797	0.156	-0.103
-470.216	92.950	0.021	-0.024
-469.201	-200.000	0.038	0.393
-468.186	345.122	0.126	-0.247
-467.172	127.191	-0.074	0.093
-466.157	56.580	-0.200	-0.195
-465.143	298.535	-0.281	0.516
-464.128	68.918	-0.140	0.144
-463.113	175.145	-0.015	0.021
-462.099	621.444	0.175	0.439
-461.084	24.555	-0.063	-0.052
-460.070	-146.276	0.093	-0.008
-459.055	136.624	0.301	-0.393
-458.040	-200.000	-0.007	-0.068
-457.026	-9.920	0.149	0.099
-456.011	72.012	0.125	-0.129
-454.997	48.245	0.080	0.075
-453.982	-91.655	0.134	0.038
-452.968	127.374	-0.113	-0.143
-451.953	24.040	0.121	-0.100
-450.938	-200.000	0.022	-0.373
-449.924	-200.000	-0.019	-0.120
-448.909	-200.000	0.069	0.327
-447.895	-34.699	0.189	0.103
-446.880	-41.272	-0.132	0.068
-445.865	446.862	-0.061	-0.134
-444.851	-76.448	-0.099	-0.035
-443.836	628.986	-0.026	0.066
-442.822	45.380	0.396	0.364
-441.807	406.903	0.027	-0.057
-440.792	800.000	-0.112	-0.432
-439.778	-121.424	-0.064	-0.011
-438.763	-90.538	0.211	0.061
-437.749	-31.442	-0.146	0.082
-436.734	98.688	-0.184	0.211
-435.719	203.143	-0.093	0.143
-434.705	640.437	-0.064	0.162
-433.690	-112.000	-0.283	0.057
-432.676	-55.693	0.073	0.032
-431.661	29.529	-0.140	-0.119
-430.646	-87.322	-0.036	0.011
-429.632	-32.168	-0.031	-0.017
-428.617	-156.812	0.080	0.005
-427.603	-29.883	-0.181	0.103
-426.588	20.066	0.123	0.099
-425.573	250.264	0.187	0.317
-424.559	-200.000	0.089	0.440
-423.544	-200.000	-0.021	0.237
-422.530	278.175	-0.066	0.117
-421.515	-200.000	0.008	-0.101
-420.500	800.000	-0.045	-0.131
-419.486	7.436	0.116	-0.086
-418.471	-72.049	-0.098	-0.036
-417.457	19.185	0.147	-0.118
-416.442	-44.589	0.250	-0.125
-415.428	-171.971	0.348	0.011
-414.413	-200.000	0.005	0.055
-413.398	-66.109	-0.350	0.139
-412.384	502.318	-0.086	-0.197
-411.369	-200.000	0.006	-0.071
-410.355	800.000	-0.055	-0.238
-409.340	-200.000	-0.026	0.168
-408.325	353.296	-0.074	0.147
-407.311	-18.838	0.196	-0.121
-406.296	3.167	0.297	-0.215
-405.282	-200.000	0.030	0.291
-404.267	-103.497	-0.299	0.070
-403.252	-99.972	-0.374	-0.093
-402.238	-77.376	-0.180	-0.062
-401.223	-17.853	-0.089	0.055
-400.209	173.950	-0.070	-0.101
-399.194	-97.693	0.198	-0.051
-398.179	-200.000	-0.041	0.233
-397.165	-79.654	-0.079	0.027
-396.150	95.841	0.329	-0.374
-395.136	-79.322	-0.270	0.091
-394.121	800.000	-0.050	-0.162
-393.106	38.086	0.159	-0.141
-392.092	-97.347	-0.179	-0.046
-391.077	-200.000	-0.019	-0.413
-390.063	113.226	0.193	0.233
-389.048	0.486	0.259	-0.184
-388.033	191.428	0.156	-0.234
-387.019	800.000	-0.040	-0.130
-386.004	-97.850	-0.205	0.053
-384.990	-200.000	-0.024	0.271
-383.975	800.000	-0.027	-0.089
-382.960	216.320	0.228	-0.361
-381.946	-5.343	0.136	0.093
-380.931	-41.148	-0.138	-0.071
-379.917	-45.878	0.417	-0.205
-378.902	108.943	0.301	-0.359
-377.888	-118.091	0.321	-0.057
-376.873	257.981	-0.169	-0.289
-375.858	50.147	0.334	0.313
-374.844	-200.000	0.016	0.224
-373.829	-61.987	-0.187	-0.078
-372.815	-168.998	-0.228	-0.008
-371.800	74.192	-0.148	0.154
-370.785	7.245	0.107	0.079
-369.771	540.239	-0.198	-0.468
-368.756	800.000	-0.081	0.248
-367.742	-200.000	0.004	0.238
-366.727	-200.000	-0.016	-0.377
-365.712	-200.000	-0.009	0.367
-364.698	-123.190	0.107	0.017
-363.683	-113.258	-0.283	-0.055
-362.669	19.149	-0.172	0.137
-361.654	-200.000	0.010	0.222
-360.639	15.340	-0.130	-0.101
-359.625	-87.235	0.160	0.048
-358.610	40.249	-0.126	0.113
-357.596	-200.000	0.011	-0.056
-356.581	-146.079	0.157	-0.014
-355.566	22.993	-0.205	-0.167
-354.552	241.689	-0.109	0.182
-353.537	275.491	0.049	-0.086
-352.523	290.772	0.205	0.370
-351.508	20.292	-0.109	0.087
-350.493	-200.000	-0.033	-0.227
-349.479	-18.224	-0.343	0.213
-348.464	164.297	0.056	0.078
-347.450	-1.671	-0.353	-0.247
-346.435	-84.944	0.192	0.060
-345.420	-25.579	-0.138	0.081
-344.406	-6.424	0.154	-0.105
-343.391	195.991	-0.317	-0.479
-342.377	-2.922	0.273	0.190
-341.362	609.936	-0.055	-0.138
-340.348	567.048	-0.036	0.088
-339.333	93.924	0.162	-0.183
-338.318	-14.228	0.357	0.229
-337.304	18.187	0.107	-0.085
-336.289	-200.000	-0.006	0.222
-335.275	800.000	-0.054	0.201
-334.260	-200.000	0.018	0.183
-333.245	515.763	-0.104	-0.242
-332.231	31.208	0.079	0.067
-331.216	-48.438	0.082	-0.039
-330.202	306.026	-0.081	-0.149
-329.187	-200.000	0.034	0.260
-328.172	779.237	-0.077	-0.208
-327.158	-200.000	0.039	0.243
-326.143	332.378	0.087	0.167
-325.129	46.233	-0.085	-0.078
-324.114	-200.000	-0.034	-0.153
-323.099	161.479	0.116	-0.161
-322.085	-41.460	0.228	-0.116
-321.070	-200.000	-0.033	0.401
-320.056	-14.305	0.269	0.172
-319.041	30.155	-0.226	0.191
-318.026	-44.566	0.189	0.094
-317.012	323.971	0.158	0.300
-315.997	-124.182	-0.503	-0.078
-314.983	-200.000	0.027	0.214
-313.968	-200.000	0.033	-0.168
-312.953	-154.760	0.327	-0.021
-311.939	-200.000	0.262	-0.000
-310.924	800.000	0.039	0.157
-309.910	396.495	-0.177	-0.367
-308.895	692.901	-0.034	0.089
-307.880	-124.219	0.179	0.028
-306.866	-69.575	-0.405	-0.154
-305.851	-200.000	0.048	-0.245
-304.837	-200.000	0.009	0.109
-303.822	-200.000	0.060	-0.281
-302.807	-200.000	-0.001	-0.218
-301.793	330.877	-0.100	-0.192
-300.778	-56.097	-0.178	0.079
-299.764	-42.192	0.206	-0.105
-298.749	634.271	-0.030	-0.076
-297.735	-52.162	0.145	0.067
-296.720	3.063	0.163	0.117
-295.705	-100.939	0.193	-0.047
-294.691	-70.645	-0.246	-0.092
-293.676	131.073	0.209	-0.266
-292.662	216.849	0.180	-0.283
-291.647	654.032	-0.023	-0.059
-290.632	52.344	0.251	0.238
-289.618	-69.297	-0.206	0.078
-288.603	800.000	0.039	0.171
-287.589	-17.147	0.118	0.074
-286.574	-200.000	-0.007	0.169
-285.559	-200.000	-0.070	-0.384
-284.545	140.043	0.279	0.365
-283.530	324.892	0.206	0.389
-282.516	-200.000	0.007	-0.065
-281.501	-178.449	-0.148	0.003
-280.486	-144.343	-0.291	-0.027
-279.472	-190.661	-0.393	-0.004
-278.457	642.415	0.053	0.134
-277.443	-200.000	0.001	0.022
-276.428	-144.421	0.393	-0.036
-275.413	77.308	0.039	-0.041
-274.399	-63.442	-0.299	-0.122
-273.384	-99.975	-0.260	0.064
-272.370	-62.627	0.146	0.060
-271.355	125.579	0.299	0.373
-270.340	388.718	0.038	0.078
-269.326	-94.419	-0.280	-0.076
-268.311	171.587	0.139	-0.198
-267.297	-38.425	-0.204	-0.107
-266.282	44.538	-0.035	-0.032
-265.267	35.702	0.149	0.129
-264.253	-200.000	-0.026	0.294
-263.238	72.387	0.037	0.038
-262.224	800.000	-0.034	-0.117
-261.209	-181.539	-0.231	-0.004
-260.195	239.309	-0.244	-0.403
-259.180	41.635	-0.250	0.225
-258.165	160.674	0.062	-0.086
-257.151	-54.068	-0.108	-0.048
-256.136	10.276	-0.178	0.134
-255.122	-78.279	0.032	-0.011
-254.107	499.053	-0.009	0.021
-253.092	679.609	-0.066	0.171
-252.078	-106.460	0.381	-0.084
-251.063	-66.461	0.028	-0.011
-250.049	-200.000	0.001	0.128
-249.034	-62.829	0.207	0.085
-248.019	53.535	-0.182	0.172
-247.005	-73.380	-0.083	0.030
-245.990	309.882	0.094	-0.174
-244.976	-200.000	0.023	0.174
-243.961	-110.083	0.213	-0.044
-242.946	23.718	-0.072	0.059
-241.932	-84.814	0.020	-0.006
-240.917	-68.134	-0.139	0.053
-239.903	800.000	0.058	0.200
-238.888	110.726	0.128	0.152
-237.873	-127.285	0.324	-0.047
-236.859	354.887	0.179	0.352
-235.844	397.500	-0.078	-0.162
-234.830	-200.000	-0.014	0.089
-233.815	800.000	-0.085	0.239
-232.800	-200.000	0.001	-0.305
-231.786	-63.278	0.262	0.107
-230.771	87.263	-0.103	-0.112
-229.757	160.604	0.111	-0.153
-228.742	98.550	-0.195	-0.223
-227.727	342.636	-0.065	-0.125
-226.713	77.035	-0.253	-0.265
-225.698	-200.000	0.036	-0.253
-224.684	-91.166	-0.272	0.077
-223.669	-85.975	-0.082	0.025
-222.655	412.555	0.084	0.176
-221.640	800.000	-0.060	-0.235
-220.625	-106.438	-0.228	-0.050
-219.611	30.500	0.017	0.015
-218.596	-21.431	-0.332	0.200
-217.582	62.342	0.147	0.145
-216.567	226.107	-0.019	0.031
-215.552	-200.000	-0.033	-0.355
-214.538	-200.000	0.055	0.372
-213.523	-67.452	0.116	0.045
-212.509	-120.085	0.093	0.016
-211.494	-200.000	-0.045	0.256
-210.479	75.322	-0.275	0.287
-209.465	-10.520	0.105	0.069
-208.450	-101.555	0.173	-0.042
-207.436	800.000	-0.044	0.168
-206.421	-153.347	0.414	0.028
-205.406	-200.000	0.040	-0.222
-204.392	-115.342	-0.335	-0.062
-203.377	-15.860	-0.118	0.074
-202.363	-94.859	-0.090	-0.024
-201.348	-132.317	0.163	0.021
-200.333	-96.772	-0.243	0.063
-199.319	265.151	-0.085	-0.147
-198.304	-200.000	0.061	0.000
-197.290	-200.000	0.025	0.487
-196.275	35.522	0.042	-0.037
-195.260	165.483	0.204	-0.285
-194.246	-136.518	-0.223	-0.026
-193.231	-128.158	-0.122	-0.017
-192.217	36.566	-0.193	-0.168
-191.202	-200.000	-0.004	0.210
-190.187	-85.830	0.233	-0.071
-189.173	-81.552	-0.069	-0.022
-188.158	800.000	0.052	-0.186
-187.144	-100.043	0.252	-0.062
-186.129	641.286	0.137	0.344
-185.114	-5.655	0.156	-0.105
-184.100	-68.436	0.113	-0.043
-183.085	800.000	0.073	0.238
-182.071	-73.389	-0.079	0.028
-181.056	800.000	0.059	-0.164
-180.042	-13.648	0.370	-0.236
-179.027	-108.205	0.098	-0.021
-178.012	75.559	0.229	-0.239
-176.998	800.000	-0.039	0.125
-175.983	38.934	0.232	0.205
-174.969	-175.421	-0.280	-0.008
-173.954	36.762	0.048	-0.042
-172.939	98.115	-0.163	0.185
-171.925	280.568	0.101	-0.179
-170.910	137.685	-0.100	0.129
-169.896	-65.513	0.156	0.062
-168.881	-200.000	0.001	0.260
-167.866	-200.000	0.016	0.137
-166.852	581.928	0.131	-0.317
-165.837	-97.793	-0.171	0.044
-164.823	167.867	0.206	0.290
-163.808	-200.000	0.004	0.266
-162.793	-19.523	0.259	-0.158
-161.779	81.988	-0.285	-0.304
-160.764	-33.844	-0.105	0.057
-159.750	-56.034	-0.234	-0.103
-158.735	27.522	-0.121	-0.100
-157.720	-64.071	0.074	-0.030
-156.706	-93.559	-0.116	-0.032
-155.691	-68.434	-0.142	-0.054
-154.677	-95.032	0.208	0.055
-153.662	151.814	0.132	-0.177
-152.647	621.539	-0.063	-0.155
-151.633	-81.264	-0.168	-0.055
-150.618	126.167	0.098	-0.122
-149.604	45.644	-0.185	-0.168
-148.589	269.200	-0.035	0.060
-147.574	779.294	-0.120	0.322
-146.560	-115.047	-0.261	-0.049
-145.545	-200.000	0.044	0.194
-144.531	-58.053	-0.215	-0.093
-143.516	212.083	-0.069	0.107
-142.502	-200.000	-0.018	0.158
-141.487	117.101	0.159	0.192
-140.472	-136.219	-0.315	-0.036
-139.458	21.262	-0.064	-0.051
-138.443	-146.630	-0.125	0.011
-137.429	-162.652	0.125	0.006
-136.414	307.272	-0.032	0.058
-135.399	800.000	0.035	0.141
-134.385	142.869	-0.065	-0.085
-133.370	116.427	-0.201	0.243
-132.356	-30.261	0.147	0.082
-131.341	-66.361	-0.208	-0.082
-130.326	-88.260	0.313	0.092
-129.312	-39.333	0.334	-0.172
-128.297	800.000	0.092	0.279
-127.283	8.117	-0.117	0.087
-126.268	76.628	-0.130	0.136
-125.253	528.178	0.047	0.109
-124.239	-116.238	0.319	0.058
-123.224	-72.654	-0.435	-0.158
-122.210	-33.567	0.196	-0.106
-121.195	-128.011	-0.283	-0.040
-120.180	-200.000	-0.025	0.412
-119.166	161.080	0.095	0.131
-118.151	89.588	0.172	0.188
-117.137	-172.884	0.199	-0.006
-116.122	145.062	-0.194	-0.256
-115.107	-173.915	-0.107	0.003
-114.093	291.086	-0.114	0.204
-113.078	-182.201	0.185	0.003
-112.064	152.062	-0.042	-0.056
-111.049	-66.271	0.226	0.088
-110.034	-11.703	-0.430	-0.278
-109.020	135.444	-0.116	0.149
-108.005	-200.000	-0.026	-0.245
-106.991	42.949	-0.019	0.017
-105.976	13.717	-0.160	0.122
-104.962	800.000	-0.102	0.303
-103.947	19.108	0.270	-0.214
-102.932	-75.038	0.303	0.107
-101.918	800.000	0.093	0.329
-100.903	-109.512	0.079	0.016
-99.889	800.000	0.079	0.230
-98.874	89.140	0.059	-0.065
-97.859	405.960	-0.068	-0.142
-96.845	364.038	0.123	-0.243
-95.830	-64.564	-0.249	-0.099
-94.816	172.327	0.059	-0.083
-93.801	-60.758	0.123	0.051
-92.786	800.000	0.113	0.397
-91.772	-200.000	-0.042	0.215
-90.757	444.507	0.142	-0.307
-89.743	170.784	-0.054	-0.076
-88.728	327.398	-0.073	0.138
-87.713	-56.590	-0.342	-0.149
-86.699	686.570	-0.034	0.086
-85.684	-91.647	-0.115	-0.032
-84.670	189.985	0.122	-0.179
-83.655	-66.851	0.087	0.034
-82.640	-45.530	0.273	-0.133
-81.626	-200.000	0.024	-0.380
-80.611	377.216	0.122	-0.246
-79.597	507.355	0.080	-0.183
-78.582	36.296	0.257	-0.222
-77.567	-200.000	0.019	-0.089
-76.553	51.189	0.130	0.121
-75.538	37.657	-0.236	0.206
-74.524	-200.000	-0.002	0.098
-73.509	-36.894	0.289	0.152
-72.494	-200.000	-0.034	0.228
-71.480	-83.022	0.132	-0.042
-70.465	14.803	0.176	-0.135
-69.451	649.075	-0.074	0.186
-68.436	-119.815	0.356	0.060
-67.422	322.134	-0.143	0.268
-66.407	41.902	0.318	-0.283
-65.392	-200.000	-0.239	-0.001
-64.378	-106.587	0.286	0.063
-63.363	38.741	-0.195	0.171
-62.349	291.081	0.320	0.572
-61.334	173.930	-0.640	-0.909
-60.319	9.038	0.614	0.456
-59.305	-200.000	-0.147	-0.966
-58.290	179.833	0.656	0.944
-57.276	678.251	0.671	1.714
-56.261	-200.000	96.158	577.477
-55.246	549.709	1386.507	3264.998
-54.232	156.828	2579.464	3500.831
-53.217	106.273	2274.305	2646.623
-52.203	42.671	1896.202	1695.616
-51.188	36.837	1687.119	1464.636
-50.173	33.996	1643.191	1405.478
-49.159	51.295	1689.622	1575.136
-48.144	53.282	1705.984	1605.197
-47.130	36.351	1665.614	1442.103
-46.115	33.569	1650.986	1408.748
-45.100	33.415	1646.086	1403.371
-44.086	33.397	1643.458	1400.940
-43.071	33.351	1641.210	1398.624
-42.057	33.277	1638.651	1395.849
-41.042	33.358	1636.475	1394.535
-40.027	33.331	1634.428	1392.537
-39.013	33.370	1632.307	1390.959
-37.998	33.338	1630.874	1389.451
-36.984	33.385	1629.987	1388.982
-35.969	33.417	1628.441	1387.841
-34.954	33.486	1626.565	1386.692
-33.940	33.500	1624.867	1385.297
-32.925	33.502	1622.879	1383.562
-31.911	33.441	1621.758	1382.105
-30.896	33.411	1619.778	1380.146
-29.881	33.456	1618.096	1378.981
-28.867	33.407	1616.558	1377.260
-27.852	33.470	1614.532	1375.939
-26.838	33.450	1613.121	1374.535
-25.823	33.348	1611.970	1372.757
-24.809	33.466	1610.016	1371.893
-23.794	33.552	1608.724	1371.366
-22.779	33.494	1607.656	1369.982
-21.765	33.525	1605.608	1368.402
-20.750	33.419	1604.583	1366.708
-19.736	33.496	1603.150	1365.993
-18.721	33.491	1601.522	1364.516
-17.706	33.415	1600.761	1363.263
-16.692	33.524	1598.669	1362.214
-15.677	33.541	1596.816	1360.703
-14.663	33.506	1595.750	1359.489
-13.648	33.513	1594.380	1358.319
-12.633	33.550	1592.708	1357.101
-11.619	33.538	1591.008	1355.516
-10.604	33.493	1589.863	1354.162
-9.590	33.552	1588.051	1352.985
-8.575	33.535	1587.001	1351.916
-7.560	33.466	1586.384	1350.844
-6.546	33.578	1584.631	1350.100
-5.531	33.551	1583.777	1349.123
-4.517	33.536	1582.238	1347.654
-3.502	33.466	1581.601	1346.560
-2.487	33.622	1579.273	1345.632
-1.473	33.212	1567.925	1333.024
-0.458	30.608	1548.919	1298.653
0.556	27.778	1550.359	1270.538
1.571	25.749	1574.621	1275.946
2.586	25.392	1588.354	1284.410
3.600	22.623	1535.041	1222.021
4.615	12.786	1423.607	1069.661
5.629	3.774	1356.572	963.232
6.644	2.136	1347.913	946.851
7.659	2.118	1346.565	945.712
8.673	2.051	1345.289	944.316
9.688	1.895	1343.863	942.266
10.702	1.810	1339.895	938.881
11.717	5.409	1347.453	966.364
12.731	15.634	1367.994	1044.877
13.746	24.157	1381.280	1108.194
14.761	26.147	1383.708	1122.429
15.775	26.527	1383.218	1124.296
16.790	26.524	1383.070	1124.057
17.804	26.550	1382.460	1123.626
18.819	26.890	1382.121	1125.361
19.834	26.820	1381.929	1124.670
20.848	26.851	1381.287	1124.238
21.863	26.852	1379.873	1122.997
22.877	26.907	1378.774	1122.342
23.892	26.942	1378.468	1122.207
24.907	26.985	1377.282	1121.412
25.921	26.967	1376.176	1120.297
26.936	27.005	1375.386	1119.792
27.950	26.888	1374.704	1118.415
28.965	26.802	1373.742	1117.008
29.980	26.795	1372.124	1115.544
30.994	26.952	1370.361	1114.979
32.009	26.905	1369.990	1114.288
33.023	26.879	1368.307	1112.664
34.038	26.830	1367.554	1111.652
35.053	26.949	1366.191	1111.173
36.067	26.934	1365.841	1110.697
37.082	26.941	1364.433	1109.496
38.096	26.831	1363.676	1108.112
39.111	26.917	1362.970	1107.968
40.126	26.829	1362.439	1106.900
41.140	26.836	1361.902	1106.410
42.155	26.911	1361.337	1106.309
43.169	26.933	1361.372	1106.373
44.184	27.020	1360.714	1106.269
45.199	26.854	1360.479	1104.973
46.213	26.856	1360.211	1104.671
47.228	26.968	1359.136	1104.380
48.242	26.944	1358.144	1103.327
49.257	26.973	1356.331	1101.934
50.271	26.864	1355.086	1100.163
51.286	26.914	1353.778	1099.308
52.301	26.883	1352.425	1097.925
53.315	26.899	1351.637	1097.282
54.330	26.844	1351.141	1096.451
55.344	26.853	1349.511	1095.087
56.359	26.867	1348.402	1094.172
57.374	26.910	1347.822	1093.863
58.388	26.861	1347.332	1093.077
59.403	26.857	1347.081	1092.749
60.417	26.923	1346.323	1092.439
61.432	26.818	1345.400	1090.961
62.447	26.864	1344.867	1090.711
63.461	26.937	1343.490	1089.936
64.476	26.960	1342.106	1088.853
65.490	26.904	1341.467	1087.901
66.505	26.938	1340.075	1086.877
67.520	26.951	1338.944	1085.943
68.534	26.922	1337.459	1084.470
69.549	26.864	1337.168	1083.791
70.563	26.936	1336.307	1083.430
71.578	26.880	1334.751	1081.736
72.593	26.900	1334.297	1081.392
73.607	27.009	1333.867	1081.600
74.622	26.942	1332.581	1080.059
75.636	26.928	1332.331	1079.677
76.651	26.894	1331.693	1078.866
77.666	26.865	1331.145	1078.150
78.680	26.978	1330.513	1078.216
79.695	26.876	1329.842	1076.971
80.709	26.852	1329.034	1076.078
81.724	26.879	1328.639	1075.826
82.739	26.852	1327.199	1074.406
83.753	26.898	1326.460	1073.981
84.768	26.974	1324.921	1073.090
85.782	27.005	1323.933	1072.377
86.797	26.911	1322.982	1070.960
87.812	26.928	1321.968	1070.145
88.826	26.928	1320.850	1069.144
89.841	26.895	1319.968	1068.142
90.855	26.974	1318.537	1067.355
91.870	26.971	1317.815	1066.657
92.884	26.944	1317.406	1066.073
93.899	26.827	1316.806	1064.804
94.914	26.950	1315.518	1064.390
95.928	27.007	1314.448	1063.764
96.943	27.061	1313.822	1063.478
97.957	26.937	1313.970	1062.783
98.972	26.999	1312.655	1061.984
99.987	27.023	1311.486	1061.089
101.001	26.979	1310.753	1060.142
102.016	26.926	1310.053	1059.174
103.030	26.856	1309.202	1057.986
104.045	26.923	1308.363	1057.604
105.060	27.023	1307.340	1057.265
106.074	27.006	1306.144	1056.104
107.089	27.047	1305.270	1055.542
108.103	26.967	1304.276	1054.181
109.118	26.939	1303.572	1053.354
110.133	27.080	1302.065	1052.861
111.147	26.999	1301.039	1051.467
112.162	26.970	1300.029	1050.393
113.176	27.071	1299.098	1050.132
114.191	27.052	1298.243	1049.237
115.206	26.973	1297.352	1047.969
116.220	27.032	1295.871	1047.020
117.235	26.993	1295.351	1046.282
118.249	27.036	1294.722	1045.930
119.264	27.067	1293.284	1044.856
120.279	26.992	1292.952	1044.064
121.293	27.069	1292.182	1043.789
122.308	27.014	1291.289	1042.659
123.322	27.052	1290.558	1042.193
124.337	27.068	1289.908	1041.671
125.352	27.219	1288.784	1041.535
126.366	27.212	1287.758	1040.574
127.381	27.096	1287.266	1039.419
128.395	27.127	1286.341	1038.762
129.410	27.144	1285.273	1037.900
130.424	27.157	1284.556	1037.304
131.439	27.165	1283.934	1036.757
132.454	27.020	1283.268	1035.302
133.468	27.065	1282.555	1034.892
134.483	27.044	1282.119	1034.328
135.497	27.143	1281.173	1034.035
136.512	27.124	1279.978	1032.871
137.527	27.122	1279.153	1032.101
138.541	27.088	1277.937	1030.837
139.556	27.124	1276.617	1029.885
140.570	27.145	1275.504	1029.016
141.585	27.146	1274.607	1028.210
142.600	27.018	1273.607	1026.584
143.614	27.116	1273.014	1026.574
144.629	27.148	1271.816	1025.697
145.643	27.031	1270.699	1024.042
146.658	27.012	1269.601	1022.963
147.673	27.056	1268.891	1022.545
148.687	27.058	1267.868	1021.643
149.702	26.990	1267.152	1020.591
150.716	27.047	1265.479	1019.477
151.731	26.997	1264.873	1018.615
152.746	27.068	1263.732	1018.004
153.760	27.081	1262.509	1017.000
154.775	27.099	1262.073	1016.662
155.789	27.127	1260.733	1015.647
156.804	27.030	1260.024	1014.449
157.819	27.117	1258.892	1013.931
158.833	27.120	1258.643	1013.657
159.848	27.180	1257.883	1013.289
160.862	27.219	1257.017	1012.718
161.877	27.215	1256.202	1011.949
162.892	27.191	1255.531	1011.188
163.906	27.226	1254.782	1010.689
164.921	27.175	1254.084	1009.754
165.935	27.186	1253.258	1009.059
166.950	27.184	1252.854	1008.638
167.964	27.126	1252.276	1007.759
168.979	27.167	1251.863	1007.563
169.994	27.209	1251.200	1007.173
171.008	27.236	1249.772	1006.088
172.023	27.184	1249.278	1005.309
173.037	27.194	1248.992	1005.048
174.052	27.070	1248.753	1004.083
175.067	27.305	1246.862	1003.771
176.081	27.259	1246.316	1002.989
177.096	27.136	1245.947	1001.923
178.110	27.153	1245.155	1001.290
179.125	27.272	1243.510	1000.533
180.140	27.243	1242.732	999.662
181.154	27.323	1241.529	999.042
182.169	27.297	1240.407	997.908
183.183	27.195	1239.794	996.771
184.198	27.288	1238.396	996.069
185.213	27.260	1237.844	995.378
186.227	27.302	1236.682	994.586
187.242	27.356	1235.919	994.183
188.256	27.279	1234.875	992.832
189.271	27.279	1234.482	992.431
190.286	27.284	1234.056	992.024
191.300	27.256	1232.854	990.822
192.315	27.230	1232.924	990.646
193.329	27.358	1232.067	990.567
194.344	27.289	1232.182	990.196
195.359	27.350	1231.582	989.961
196.373	27.347	1230.430	988.930
197.388	27.303	1230.128	988.360
198.402	27.341	1229.983	988.361
199.417	27.323	1229.541	987.823
200.432	27.251	1229.269	987.125
201.446	27.331	1228.551	986.892
202.461	27.386	1227.147	985.979
203.475	27.304	1227.288	985.558
204.490	27.243	1225.860	983.996
205.504	27.257	1224.911	983.223
206.519	27.373	1224.108	983.117
207.534	27.407	1222.951	982.283
208.548	27.343	1222.403	981.412
209.563	27.357	1221.593	980.749
210.577	27.443	1220.610	980.337
211.592	27.440	1219.755	979.547
212.607	27.495	1219.159	979.280
213.621	27.523	1218.307	978.659
214.636	27.519	1217.352	977.784
215.650	27.405	1217.075	976.862
216.665	27.359	1215.806	975.509
217.680	27.399	1214.772	974.807
218.694	27.538	1214.170	974.982
219.709	27.512	1213.486	974.208
220.723	27.535	1212.997	973.852
221.738	27.481	1212.205	972.842
222.753	27.395	1211.290	971.561
223.767	27.496	1211.112	971.873
224.782	27.525	1210.612	971.538
225.796	27.437	1210.375	970.793
226.811	27.391	1209.467	969.738
227.826	27.491	1208.645	969.525
228.840	27.541	1208.024	969.204
229.855	27.458	1207.618	968.351
230.869	27.489	1207.022	967.953
231.884	27.498	1206.172	967.236
232.899	27.513	1205.126	966.388
233.913	27.562	1205.020	966.476
234.928	27.525	1204.464	965.751
235.942	27.632	1203.506	965.467
236.957	27.634	1202.949	964.941
237.972	27.504	1202.507	963.817
238.986	27.676	1201.391	963.742
240.001	27.655	1200.883	963.138
241.015	27.721	1199.917	962.631
242.030	27.667	1199.237	961.711
243.045	27.717	1198.522	961.317
244.059	27.735	1198.011	960.919
245.074	27.681	1197.020	959.755
246.088	27.816	1196.266	959.773
247.103	27.648	1195.712	958.361
248.117	27.664	1194.810	957.637
249.132	27.728	1194.271	957.456
250.147	27.754	1193.455	956.853
251.161	27.777	1192.755	956.328
252.176	27.674	1191.975	955.078
253.190	27.825	1191.291	955.237
254.205	27.665	1191.029	954.105
255.220	27.708	1190.266	953.636
256.234	27.773	1189.656	953.403
257.249	27.787	1188.800	952.702
258.263	27.792	1188.346	952.283
259.278	27.881	1187.560	952.032
260.293	27.889	1187.017	951.555
261.307	27.857	1186.441	950.845
262.322	27.764	1186.175	950.059
263.336	27.778	1185.654	949.630
264.351	27.854	1184.806	949.265
265.366	27.773	1184.555	948.555
266.380	27.892	1183.628	948.348
267.395	27.773	1183.232	947.331
268.409	27.896	1182.076	946.958
269.424	27.996	1181.726	947.114
270.439	27.934	1181.529	946.551
271.453	27.883	1180.978	945.760
272.468	27.801	1179.909	944.396
273.482	27.772	1179.042	943.470
274.497	27.786	1179.021	943.439
275.512	28.001	1178.258	943.859
276.526	27.911	1177.603	942.785
277.541	27.874	1177.001	942.031
278.555	27.941	1176.163	941.619
279.570	27.941	1175.373	940.902
280.585	27.810	1175.004	939.851
281.599	28.023	1173.958	940.025
282.614	28.033	1172.862	939.116
283.628	28.034	1171.788	938.180
284.643	27.948	1171.138	937.133
285.657	27.934	1170.426	936.413
286.672	27.893	1169.786	935.607
287.687	28.044	1169.050	935.706
288.701	28.019	1168.220	934.832
289.716	28.145	1167.295	934.652
290.730	28.165	1166.614	934.127
291.745	28.273	1165.864	933.995
292.760	28.036	1165.962	932.784
293.774	28.082	1165.528	932.584
294.789	27.993	1164.977	931.608
295.803	28.271	1163.958	932.129
296.818	28.108	1163.487	930.838
297.833	28.154	1162.949	930.558
298.847	28.159	1161.857	929.630
299.862	28.175	1161.130	929.045
300.876	28.172	1160.718	928.617
301.891	28.350	1160.164	928.996
302.906	28.263	1159.609	928.027
303.920	28.234	1158.946	927.268
304.935	28.202	1158.317	926.522
305.949	28.178	1157.808	925.911
306.964	28.305	1156.779	925.647
307.979	28.210	1156.099	924.541
308.993	28.265	1155.407	924.186
310.008	28.317	1154.840	923.913
311.022	28.301	1154.196	923.236
312.037	28.247	1153.235	922.112
313.052	28.256	1152.492	921.482
314.066	28.176	1152.172	920.742
315.081	28.225	1151.322	920.226
316.095	28.270	1150.465	919.686
317.110	28.365	1149.506	919.313
318.125	28.262	1149.485	918.703
319.139	28.259	1149.093	918.288
320.154	28.384	1147.989	917.954
321.168	28.183	1147.692	916.628
322.183	28.317	1147.025	916.686
323.197	28.452	1146.041	916.491
324.212	28.295	1146.066	915.647
325.227	28.463	1145.321	915.811
326.241	28.398	1145.068	915.201
327.256	28.441	1144.085	914.547
328.270	28.496	1142.925	913.816
329.285	28.495	1142.419	913.323
330.300	28.475	1141.720	912.587
331.314	28.383	1140.820	911.329
332.329	28.456	1140.020	910.971
333.343	28.551	1139.146	910.665
334.358	28.660	1138.063	910.256
335.373	28.683	1137.579	909.903
336.387	28.609	1137.093	909.068
337.402	28.644	1136.182	908.432
338.416	28.676	1135.834	908.235
339.431	28.561	1135.143	907.034
340.446	28.608	1134.643	906.786
341.460	28.704	1133.789	906.495
342.475	28.750	1133.284	906.240
343.489	28.708	1132.370	905.221
344.504	28.715	1131.336	904.346
345.519	28.620	1130.800	903.372
346.533	28.716	1129.717	902.898
347.548	28.743	1128.944	902.333
348.562	28.765	1128.259	901.815
349.577	28.644	1127.779	900.755
350.592	28.543	1127.127	899.659
351.606	28.633	1126.424	899.463
352.621	28.744	1126.158	899.712
353.635	28.713	1125.527	898.978
354.650	28.656	1125.029	898.223
355.665	28.685	1124.606	897.948
356.679	28.817	1123.810	897.876
357.694	28.809	1123.499	897.509
358.708	28.888	1122.148	896.735
359.723	28.782	1121.786	895.848
360.738	28.690	1121.056	894.742
361.752	28.703	1120.532	894.307
362.767	28.806	1119.977	894.286
363.781	28.877	1119.696	894.326
364.796	28.911	1118.979	893.840
365.810	28.977	1118.204	893.463
366.825	28.976	1117.470	892.791
367.840	29.014	1117.007	892.527
368.854	29.037	1116.545	892.194
369.869	29.004	1115.509	891.124
370.883	28.954	1115.439	890.750
371.898	28.867	1114.573	889.556
372.913	28.950	1113.943	889.376
373.927	28.929	1113.188	888.594
374.942	28.966	1113.105	888.629
375.956	29.180	1112.577	889.162
376.971	29.029	1112.049	887.929
377.986	29.023	1110.985	886.972
379.000	28.993	1111.244	886.955
380.015	29.149	1110.612	887.125
381.029	29.077	1109.509	885.820
382.044	29.114	1109.010	885.521
383.059	29.240	1108.248	885.441
384.073	29.081	1107.660	884.129
385.088	29.136	1106.739	883.578
386.102	29.191	1105.830	883.040
387.117	29.215	1104.683	882.161
388.132	29.142	1104.299	881.425
389.146	29.208	1103.676	881.164
390.161	29.098	1103.259	880.227
391.175	29.225	1102.018	879.768
392.190	29.186	1102.166	879.623
393.205	29.111	1101.403	878.578
394.219	29.089	1100.462	877.644
395.234	29.229	1099.637	877.574
396.248	29.326	1098.810	877.297
397.263	29.338	1098.298	876.871
398.278	29.332	1097.740	876.319
399.292	29.281	1097.414	875.736
400.307	29.445	1096.245	875.507
401.321	29.326	1095.656	874.395
402.336	29.291	1095.200	873.786
403.350	29.336	1094.473	873.340
404.365	29.378	1093.896	873.002
405.380	29.386	1093.148	872.366
406.394	29.274	1092.325	871.102
407.409	29.367	1091.435	870.755
408.423	29.369	1090.958	870.307
409.438	29.530	1089.993	870.218
410.453	29.461	1089.518	869.439
411.467	29.505	1088.561	868.804
412.482	29.406	1088.139	867.925
413.496	29.491	1087.708	867.903
414.511	29.502	1087.071	867.370
415.526	29.506	1086.927	867.197
416.540	29.569	1086.331	866.941
417.555	29.469	1085.949	866.092
418.569	29.414	1085.736	865.585
419.584	29.513	1085.039	865.418
420.599	29.567	1084.465	865.136
421.613	103.541	1320.093	1452.905
422.628	96.391	1354.399	1453.024
