DTS Sentinel unit serial number:	SN413079Multiplexer serial number:	ORYXHardware model number:	OX4-SRSoftware version number:	ORYX F/W v4.00 Oryx Data Collector v3.7.2.0data status	okinstallation	princeton_trtdifferential loss correction	single-endedforward channel	channel 2reverse channel	N/Adate	2019/09/11time	16:21:10forward acquisition time	60.00reverse acquisition time	0.00gamma	496.2192k internal	0.2286k external	0.2286temperature offset calibration	1.0012default loss term (dB/km)	0.3790temperature slope calibration	1.0000multiplexer offset coefficient	1.0000multiplexer slope coefficient	1.0000fibre end	0.00T internal ref (°C)	43.50T ext. ref 1 (°C)	1.06T ext. ref 2 (°C)	38.53length (m)	temperature (°C)	Stokes	anti-Stokes-747.200	-200.000	0.005	-0.037
-746.185	412.258	0.084	0.183
-745.171	181.658	0.216	-0.326
-744.156	384.674	-0.080	-0.170
-743.142	411.447	0.034	0.075
-742.127	19.727	0.093	-0.077
-741.112	614.911	0.059	0.151
-740.098	33.113	0.286	0.255
-739.083	44.780	-0.120	-0.114
-738.069	-188.229	0.427	0.006
-737.054	364.936	-0.014	0.028
-736.039	-12.947	-0.207	-0.138
-735.025	-78.623	0.156	0.055
-734.010	73.379	-0.080	-0.086
-732.996	176.155	-0.078	0.117
-731.981	-48.539	-0.016	0.008
-730.966	-130.493	0.303	-0.042
-729.952	-110.469	-0.296	0.063
-728.937	12.049	-0.176	0.139
-727.923	-43.224	-0.252	-0.131
-726.908	-57.878	-0.437	-0.196
-725.894	-200.000	0.032	-0.309
-724.879	6.613	-0.173	-0.132
-723.864	-200.000	-0.044	0.259
-722.850	33.855	-0.388	0.346
-721.835	-200.000	-0.028	-0.128
-720.821	106.565	-0.145	0.177
-719.806	800.000	-0.013	0.040
-718.791	-7.677	0.011	0.008
-717.777	-158.940	-0.156	0.009
-716.762	46.717	0.232	0.221
-715.748	-200.000	-0.011	-0.050
-714.733	-52.436	-0.045	0.021
-713.718	279.320	-0.088	0.162
-712.704	-200.000	0.034	-0.163
-711.689	-90.024	0.053	-0.016
-710.675	14.985	-0.194	-0.156
-709.660	800.000	0.046	-0.184
-708.645	-145.995	-0.215	-0.020
-707.631	490.112	-0.128	-0.299
-706.616	-200.000	-0.027	-0.367
-705.602	153.303	0.185	-0.259
-704.587	-41.587	-0.275	0.145
-703.572	-200.000	0.007	0.079
-702.558	107.237	0.123	-0.150
-701.543	146.314	-0.168	0.231
-700.529	-23.072	0.157	-0.097
-699.514	211.340	-0.053	0.086
-698.499	117.679	-0.151	-0.191
-697.485	-200.000	-0.019	0.175
-696.470	10.390	-0.248	0.193
-695.456	87.722	0.098	-0.111
-694.441	477.047	0.012	-0.028
-693.426	-200.000	-0.007	0.047
-692.412	-111.238	-0.272	-0.057
-691.397	92.303	0.202	-0.233
-690.383	306.690	0.116	0.221
-689.368	60.342	-0.044	0.045
-688.354	-200.000	0.061	-0.330
-687.339	96.966	-0.150	-0.176
-686.324	-53.980	-0.237	-0.110
-685.310	269.445	-0.044	-0.079
-684.295	-59.978	0.104	0.045
-683.281	-21.526	0.181	-0.113
-682.266	37.053	-0.165	-0.149
-681.251	-200.000	-0.041	0.323
-680.237	-200.000	-0.023	0.285
-679.222	54.334	-0.167	0.164
-678.208	5.585	0.338	-0.256
-677.193	152.021	0.196	0.274
-676.178	27.693	-0.226	-0.195
-675.164	8.787	-0.208	0.161
-674.149	800.000	-0.017	0.058
-673.135	7.228	0.130	-0.099
-672.120	351.234	-0.090	-0.182
-671.105	800.000	-0.023	0.084
-670.091	786.816	0.020	0.055
-669.076	177.437	0.116	0.173
-668.062	-126.407	0.426	0.065
-667.047	-143.514	-0.402	0.039
-666.032	184.100	0.181	-0.274
-665.018	656.887	0.052	-0.136
-664.003	262.142	-0.223	-0.395
-662.989	33.456	-0.149	-0.132
-661.974	-60.112	-0.249	0.109
-660.959	-139.054	0.137	0.015
-659.945	190.181	-0.169	0.260
-658.930	246.001	-0.071	-0.122
-657.916	39.329	0.074	-0.068
-656.901	800.000	-0.042	0.178
-655.886	-1.231	0.253	-0.183
-654.872	-40.187	-0.217	-0.116
-653.857	-173.293	-0.223	-0.007
-652.843	92.249	0.264	0.304
-651.828	-200.000	0.007	0.044
-650.814	-38.264	-0.240	0.130
-649.799	-126.500	-0.038	0.006
-648.784	-33.617	0.401	0.226
-647.770	153.011	0.043	0.059
-646.755	800.000	-0.093	0.394
-645.741	-200.000	-0.046	-0.312
-644.726	-30.564	0.272	-0.158
-643.711	-66.596	-0.058	-0.024
-642.697	14.679	-0.175	0.140
-641.682	-179.488	-0.085	-0.002
-640.668	38.768	-0.064	0.059
-639.653	-69.298	-0.069	0.027
-638.638	55.037	0.248	-0.245
-637.624	-98.391	-0.128	0.034
-636.609	800.000	-0.058	0.172
-635.595	-200.000	0.005	0.026
-634.580	-160.104	0.111	-0.006
-633.565	86.290	0.173	-0.195
-632.551	-200.000	0.089	-0.439
-631.536	192.773	0.098	0.152
-630.522	8.163	0.170	-0.131
-629.507	-30.490	-0.304	0.176
-628.492	800.000	-0.030	-0.133
-627.478	186.525	0.084	-0.127
-626.463	-63.949	-0.198	0.083
-625.449	-46.694	-0.073	0.037
-624.434	800.000	0.065	0.211
-623.419	-43.234	0.137	-0.071
-622.405	800.000	0.094	0.302
-621.390	800.000	0.093	0.407
-620.376	33.425	0.193	0.171
-619.361	-126.440	-0.045	-0.007
-618.346	34.621	-0.095	0.085
-617.332	800.000	0.040	0.170
-616.317	-101.190	-0.098	-0.024
-615.303	-126.003	0.364	0.056
-614.288	92.434	0.120	-0.139
-613.273	409.670	-0.092	-0.200
-612.259	-100.031	0.222	0.056
-611.244	-7.077	-0.350	0.242
-610.230	16.204	-0.265	-0.213
-609.215	-200.000	0.003	0.025
-608.201	-112.257	0.055	-0.011
-607.186	7.815	-0.116	0.089
-606.171	16.748	0.045	0.036
-605.157	-102.126	0.219	0.054
-604.142	46.899	0.194	0.185
-603.128	48.324	0.120	-0.115
-602.113	-189.283	-0.093	0.001
-601.098	152.457	0.192	-0.268
-600.084	220.963	0.250	-0.410
-599.069	-51.577	-0.258	0.123
-598.055	-181.960	-0.363	-0.007
-597.040	800.000	-0.090	-0.263
-596.025	-97.489	-0.191	-0.051
-595.011	103.139	0.076	0.091
-593.996	800.000	-0.072	-0.300
-592.982	100.894	-0.250	0.296
-591.967	-113.084	-0.234	-0.047
-590.952	-129.602	-0.152	-0.021
-589.938	800.000	-0.023	-0.079
-588.923	134.170	-0.227	-0.301
-587.909	173.688	-0.044	-0.065
-586.894	178.491	-0.143	-0.213
-585.879	-200.000	-0.034	0.362
-584.865	-200.000	-0.002	-0.077
-583.850	-3.329	0.267	-0.190
-582.836	27.495	-0.240	-0.206
-581.821	50.038	0.059	0.057
-580.806	-53.230	-0.147	-0.069
-579.792	40.373	-0.309	0.283
-578.777	-200.000	-0.011	0.395
-577.763	353.969	0.103	0.208
-576.748	-62.185	0.177	0.075
-575.733	-179.819	-0.078	0.002
-574.719	14.237	0.120	0.096
-573.704	-98.615	-0.282	0.073
-572.690	-32.589	0.171	-0.097
-571.675	-180.597	-0.244	0.005
-570.661	-102.272	-0.152	0.037
-569.646	-200.000	0.006	-0.036
-568.631	-7.983	0.251	0.173
-567.617	381.822	-0.179	-0.376
-566.602	-189.518	0.348	-0.004
-565.588	61.284	0.289	0.293
-564.573	133.719	0.062	0.082
-563.558	-62.266	-0.240	-0.102
-562.544	-200.000	0.012	-0.130
-561.529	-94.811	0.127	0.035
-560.515	800.000	0.053	-0.176
-559.500	94.051	-0.114	-0.132
-558.485	25.238	0.089	0.075
-557.471	46.214	0.212	0.200
-556.456	474.242	0.110	0.253
-555.442	-84.727	-0.101	-0.033
-554.427	109.467	-0.168	0.205
-553.412	-200.000	-0.079	0.422
-552.398	-9.344	-0.217	0.148
-551.383	-49.900	-0.079	-0.038
-550.369	291.831	0.075	0.139
-549.354	-173.596	0.386	0.012
-548.339	150.768	0.140	-0.194
-547.325	-90.693	-0.117	-0.034
-546.310	348.387	0.191	-0.384
-545.296	443.876	0.042	0.094
-544.281	-200.000	0.015	-0.097
-543.266	415.664	0.073	-0.159
-542.252	-200.000	-0.025	0.287
-541.237	-200.000	0.013	-0.183
-540.223	-200.000	0.054	-0.289
-539.208	-200.000	-0.051	-0.285
-538.193	64.406	0.109	-0.111
-537.179	109.607	-0.084	0.102
-536.164	-200.000	-0.018	0.248
-535.150	-200.000	-0.018	0.274
-534.135	-48.924	-0.248	0.121
-533.121	-110.831	0.152	0.032
-532.106	-200.000	0.007	-0.035
-531.091	-22.818	0.070	-0.043
-530.077	97.449	-0.125	0.146
-529.062	-116.478	-0.332	-0.062
-528.048	41.002	0.136	-0.125
-527.033	217.550	-0.072	0.117
-526.018	281.844	-0.259	-0.473
-525.004	-26.619	0.184	-0.109
-523.989	-200.000	-0.032	-0.314
-522.975	44.839	-0.378	-0.354
-521.960	800.000	-0.018	-0.079
-520.945	-36.556	0.202	-0.111
-519.931	202.680	-0.152	0.239
-518.916	-154.721	0.100	-0.007
-517.902	122.415	0.166	-0.212
-516.887	-71.888	-0.206	-0.078
-515.872	3.381	-0.074	-0.055
-514.858	-37.390	-0.311	-0.169
-513.843	-134.994	-0.318	-0.039
-512.829	397.463	-0.108	0.231
-511.814	-121.031	-0.088	-0.015
-510.799	-2.823	-0.181	-0.128
-509.785	148.975	0.225	0.310
-508.770	146.733	0.108	-0.148
-507.756	800.000	-0.049	-0.149
-506.741	159.657	-0.092	-0.130
-505.726	-200.000	0.044	-0.210
-504.712	113.314	0.190	-0.234
-503.697	-88.982	0.335	-0.101
-502.683	16.831	0.194	-0.156
-501.668	-120.169	-0.367	-0.064
-500.653	800.000	0.069	0.300
-499.639	285.160	-0.115	0.211
-498.624	63.813	0.083	-0.084
-497.610	-93.879	0.236	-0.066
-496.595	25.016	0.115	0.097
-495.581	128.859	-0.090	-0.117
-494.566	-95.478	0.099	0.027
-493.551	70.336	0.154	0.162
-492.537	-72.539	0.140	0.053
-491.522	30.710	0.020	0.018
-490.508	637.903	-0.034	-0.089
-489.493	800.000	0.056	-0.234
-488.478	-7.464	0.293	0.202
-487.464	47.243	0.131	0.124
-486.449	108.938	-0.070	-0.085
-485.435	-200.000	0.003	-0.125
-484.420	-200.000	0.014	0.142
-483.405	1.443	0.272	0.199
-482.391	-200.000	-0.023	-0.194
-481.376	-33.108	-0.166	-0.093
-480.362	631.913	-0.112	0.288
-479.347	34.749	0.293	0.260
-478.332	10.933	-0.146	-0.113
-477.318	-15.252	0.336	-0.219
-476.303	800.000	0.063	0.230
-475.289	-200.000	-0.057	-0.323
-474.274	57.520	0.154	0.153
-473.259	128.691	-0.139	0.180
-472.245	800.000	-0.076	0.248
-471.230	-60.178	0.276	0.119
-470.216	-158.939	0.284	0.016
-469.201	295.597	0.100	0.186
-468.186	-195.502	-0.249	0.002
-467.172	-41.948	0.260	-0.135
-466.157	-1.459	-0.213	0.153
-465.143	241.194	-0.044	0.074
-464.128	-200.000	-0.025	0.274
-463.113	-81.489	0.101	-0.034
-462.099	197.299	0.170	0.263
-461.084	125.240	-0.194	-0.248
-460.070	5.097	0.066	0.050
-459.055	-115.126	0.046	0.009
-458.040	56.453	0.080	-0.079
-457.026	374.858	0.146	-0.303
-456.011	-66.181	-0.328	0.132
-454.997	239.796	0.146	0.246
-453.982	120.034	0.087	-0.109
-452.968	-98.687	0.129	-0.033
-451.953	-200.000	-0.031	-0.174
-450.938	-15.975	-0.061	-0.039
-449.924	32.277	-0.036	-0.031
-448.909	-176.365	-0.252	-0.007
-447.895	31.915	-0.221	0.193
-446.880	-110.556	0.354	-0.074
-445.865	-200.000	-0.010	-0.087
-444.851	201.146	-0.255	0.398
-443.836	556.044	-0.025	0.062
-442.822	800.000	0.016	-0.057
-441.807	-200.000	0.060	0.299
-440.792	-39.070	0.477	-0.254
-439.778	-200.000	0.013	-0.071
-438.763	-20.031	0.278	-0.174
-437.749	94.265	-0.217	0.249
-436.734	233.529	0.040	-0.067
-435.719	65.881	-0.305	-0.314
-434.705	-34.212	-0.143	-0.079
-433.690	406.913	-0.148	-0.317
-432.676	617.934	-0.096	0.243
-431.661	800.000	-0.033	0.133
-430.646	-55.910	-0.059	-0.027
-429.632	531.813	-0.091	-0.219
-428.617	337.671	-0.145	0.286
-427.603	-76.653	0.105	0.037
-426.588	-30.076	-0.165	0.095
-425.573	278.010	0.134	-0.241
-424.559	-133.888	-0.186	-0.023
-423.544	686.415	0.060	0.158
-422.530	-200.000	0.006	0.268
-421.515	-105.582	0.174	-0.040
-420.500	-139.774	-0.154	-0.017
-419.486	-12.690	-0.272	-0.180
-418.471	-105.237	-0.233	-0.054
-417.457	-44.842	-0.093	0.047
-416.442	-154.673	-0.603	-0.041
-415.428	92.034	-0.027	-0.031
-414.413	634.591	-0.064	-0.164
-413.398	166.536	-0.107	-0.154
-412.384	66.390	-0.051	0.053
-411.369	5.947	0.374	0.280
-410.355	-66.842	-0.085	-0.034
-409.340	-15.219	-0.063	-0.041
-408.325	-148.793	-0.481	0.039
-407.311	-97.815	0.244	-0.064
-406.296	-112.218	0.370	-0.075
-405.282	-21.845	-0.353	-0.218
-404.267	-32.870	-0.155	-0.087
-403.252	-132.335	-0.294	0.038
-402.238	120.723	0.176	-0.222
-401.223	-22.744	-0.107	0.066
-400.209	115.085	-0.078	-0.096
-399.194	112.006	0.056	0.069
-398.179	800.000	0.098	0.317
-397.165	-200.000	-0.034	-0.188
-396.150	-175.704	-0.129	-0.004
-395.136	525.894	-0.069	0.165
-394.121	269.842	-0.043	-0.077
-393.106	-5.679	0.084	-0.058
-392.092	-71.769	-0.312	-0.118
-391.077	140.913	0.066	-0.088
-390.063	142.323	-0.278	0.374
-389.048	800.000	-0.041	-0.139
-388.033	800.000	0.036	-0.108
-387.019	-11.886	0.163	0.108
-386.004	-65.170	-0.296	0.121
-384.990	-34.988	-0.314	0.173
-383.975	-45.875	0.255	-0.127
-382.960	-136.523	0.301	0.035
-381.946	-2.158	-0.155	0.110
-380.931	800.000	-0.060	-0.204
-379.917	355.758	-0.157	0.317
-378.902	-64.506	-0.461	-0.190
-377.888	-66.491	-0.218	-0.088
-376.873	108.402	-0.239	0.288
-375.858	200.410	0.034	-0.052
-374.844	-58.009	0.119	-0.052
-373.829	35.674	0.336	-0.299
-372.815	-40.180	-0.090	0.048
-371.800	-113.599	0.010	0.002
-370.785	51.537	-0.081	-0.077
-369.771	42.645	-0.126	-0.116
-368.756	54.250	0.336	-0.327
-367.742	384.685	0.085	0.177
-366.727	80.339	-0.174	0.189
-365.712	11.440	-0.144	-0.111
-364.698	-104.811	-0.071	0.016
-363.683	344.604	0.063	0.125
-362.669	-18.125	0.406	0.257
-361.654	-75.475	0.089	0.032
-360.639	134.675	0.161	0.211
-359.625	-200.000	-0.004	0.021
-358.610	-200.000	-0.027	-0.186
-357.596	-200.000	0.021	0.125
-356.581	286.877	0.138	0.252
-355.566	-95.611	0.202	0.055
-354.552	-200.000	-0.002	-0.086
-353.537	-7.960	0.119	-0.081
-352.523	106.701	0.181	-0.218
-351.508	-53.548	0.109	0.050
-350.493	751.510	0.100	0.273
-349.479	-131.019	-0.134	0.018
-348.464	173.398	-0.125	0.182
-347.450	327.871	-0.177	-0.343
-346.435	257.132	0.044	0.077
-345.420	-109.415	0.185	0.040
-344.406	-116.633	-0.057	-0.011
-343.391	121.914	0.108	-0.136
-342.377	800.000	-0.064	0.262
-341.362	-200.000	-0.027	0.424
-340.348	143.904	0.077	-0.104
-339.333	-200.000	-0.027	0.151
-338.318	-71.873	-0.140	0.053
-337.304	-125.933	0.415	-0.063
-336.289	90.863	-0.162	0.184
-335.275	800.000	0.142	-0.471
-334.260	-32.545	0.181	0.102
-333.245	-79.414	0.147	0.050
-332.231	279.378	0.195	-0.352
-331.216	281.358	0.077	0.139
-330.202	800.000	-0.049	0.143
-329.187	-114.781	0.106	0.020
-328.172	366.015	-0.185	-0.376
-327.158	-63.749	-0.281	0.116
-326.143	280.573	0.071	-0.128
-325.129	417.244	0.098	0.212
-324.114	-200.000	0.001	0.167
-323.099	-47.159	0.091	0.045
-322.085	800.000	-0.097	-0.334
-321.070	-106.063	-0.332	0.075
-320.056	-200.000	0.043	0.243
-319.041	-200.000	0.005	0.137
-318.026	-53.143	0.044	-0.020
-317.012	-11.289	0.232	-0.154
-315.997	-200.000	0.056	0.000
-314.983	36.486	-0.052	-0.046
-313.968	-83.474	0.263	0.085
-312.953	163.143	0.088	-0.125
-311.939	-19.021	-0.190	-0.119
-310.924	-200.000	-0.003	0.109
-309.910	75.646	0.173	-0.185
-308.895	-50.312	0.085	-0.040
-307.880	-65.941	-0.323	0.130
-306.866	323.509	0.098	0.188
-305.851	158.254	-0.113	-0.158
-304.837	-79.436	-0.463	0.158
-303.822	-62.440	0.130	0.055
-302.807	-111.196	-0.180	0.037
-301.793	-200.000	0.001	-0.015
-300.778	-78.360	-0.098	-0.034
-299.764	800.000	-0.034	-0.135
-298.749	21.675	0.246	-0.202
-297.735	-13.970	-0.083	-0.054
-296.720	246.101	0.117	-0.199
-295.705	-200.000	0.020	-0.115
-294.691	-15.910	-0.166	-0.107
-293.676	-48.554	-0.161	-0.078
-292.662	304.742	0.095	0.177
-291.647	-200.000	0.078	0.400
-290.632	-115.076	0.066	-0.013
-289.618	346.915	-0.091	0.181
-288.603	-50.461	0.063	-0.030
-287.589	313.177	0.209	-0.396
-286.574	282.412	0.216	-0.390
-285.559	-97.228	-0.101	0.026
-284.545	-200.000	-0.005	0.256
-283.530	54.326	-0.298	-0.289
-282.516	800.000	0.055	-0.168
-281.501	-147.593	0.209	0.018
-280.486	-110.967	-0.057	-0.012
-279.472	-28.797	-0.167	-0.097
-278.457	40.789	0.233	-0.212
-277.443	163.263	-0.038	-0.053
-276.428	-44.299	0.420	0.212
-275.413	-200.000	0.082	0.403
-274.399	109.889	-0.134	0.162
-273.384	-200.000	-0.010	0.152
-272.370	714.612	-0.047	-0.126
-271.355	-124.231	0.172	0.027
-270.340	-76.025	0.125	0.045
-269.326	800.000	-0.056	0.214
-268.311	62.821	-0.171	0.172
-267.297	-200.000	0.023	-0.274
-266.282	216.880	0.150	-0.241
-265.267	-80.364	0.187	-0.063
-264.253	-106.731	0.075	-0.017
-263.238	-187.947	-0.267	-0.003
-262.224	-52.707	0.099	-0.046
-261.209	-91.352	0.072	0.021
-260.195	-200.000	-0.014	-0.276
-259.180	446.928	0.110	-0.243
-258.165	800.000	0.140	-0.512
-257.151	-190.765	0.201	-0.002
-256.136	72.222	0.199	0.208
-255.122	-142.172	0.206	0.021
-254.107	800.000	0.044	0.169
-253.092	139.735	-0.159	0.210
-252.078	-200.000	0.066	0.331
-251.063	751.330	0.071	0.193
-250.049	-157.000	0.205	0.013
-249.034	147.430	0.088	0.119
-248.019	2.380	-0.069	0.050
-247.005	-200.000	0.010	-0.079
-245.990	9.261	-0.178	-0.135
-244.976	-137.312	-0.446	-0.051
-243.961	104.740	-0.102	0.121
-242.946	28.117	-0.033	0.028
-241.932	-200.000	0.034	-0.280
-240.917	-54.329	0.138	0.063
-239.903	-51.819	0.039	-0.018
-238.888	261.672	0.112	-0.196
-237.873	800.000	0.061	-0.184
-236.859	56.178	0.033	-0.032
-235.844	-133.281	-0.280	-0.036
-234.830	-49.723	-0.046	0.022
-233.815	-31.669	-0.066	0.037
-232.800	124.120	0.090	0.114
-231.786	783.119	-0.105	0.289
-230.771	60.626	0.271	0.270
-229.757	800.000	-0.097	-0.334
-228.742	-200.000	0.041	-0.224
-227.727	800.000	-0.028	0.117
-226.713	-200.000	-0.003	0.088
-225.698	800.000	0.055	0.208
-224.684	-96.545	0.153	-0.041
-223.669	-67.875	0.355	-0.139
-222.655	299.489	0.105	0.195
-221.640	25.963	0.124	0.104
-220.625	19.334	-0.194	-0.157
-219.611	-200.000	0.032	-0.285
-218.596	589.198	0.063	-0.156
-217.582	-17.270	-0.242	-0.153
-216.567	800.000	0.056	-0.208
-215.552	800.000	0.062	0.195
-214.538	389.150	0.030	-0.062
-213.523	-98.386	0.251	0.065
-212.509	800.000	0.066	-0.258
-211.494	590.025	0.084	0.209
-210.479	297.484	-0.121	0.223
-209.465	207.334	0.116	-0.182
-208.450	-98.167	-0.299	0.077
-207.436	-106.709	-0.240	0.054
-206.421	419.422	-0.124	-0.267
-205.406	-7.552	0.071	0.048
-204.392	184.115	0.117	-0.175
-203.377	123.037	0.073	-0.092
-202.363	-111.397	0.213	-0.044
-201.348	598.422	-0.096	0.240
-200.333	119.795	0.146	0.182
-199.319	-18.764	0.141	0.088
-198.304	170.364	0.108	0.156
-197.290	395.302	-0.050	0.104
-196.275	116.658	-0.139	-0.171
-195.260	163.714	-0.213	0.301
-194.246	800.000	-0.077	0.305
-193.231	-200.000	-0.043	-0.254
-192.217	272.712	0.088	-0.156
-191.202	-155.747	-0.117	-0.008
-190.187	12.749	-0.140	0.109
-189.173	689.743	-0.079	0.208
-188.158	464.326	-0.084	-0.188
-187.144	-200.000	-0.004	-0.240
-186.129	-10.821	0.326	-0.216
-185.114	-71.371	-0.060	-0.023
-184.100	-122.223	-0.334	0.055
-183.085	-57.955	-0.312	0.137
-182.071	-200.000	0.041	-0.191
-181.056	-200.000	-0.000	-0.059
-180.042	85.086	0.254	0.280
-179.027	381.537	0.179	0.370
-178.012	-200.000	-0.322	-0.000
-176.998	-127.588	-0.172	-0.025
-175.983	-200.000	0.436	0.000
-174.969	-82.667	0.242	-0.079
-173.954	-200.000	-0.008	-0.161
-172.939	-92.336	0.188	-0.053
-171.925	-69.317	-0.251	0.097
-170.910	-6.327	-0.143	0.098
-169.896	-91.520	0.437	-0.125
-168.881	-109.981	-0.388	0.081
-167.866	162.231	-0.089	-0.126
-166.852	-200.000	0.023	0.326
-165.837	800.000	-0.049	-0.188
-164.823	800.000	0.026	0.103
-163.808	-56.339	0.132	0.059
-162.793	-200.000	0.064	-0.346
-161.779	34.635	-0.156	0.137
-160.764	-20.740	-0.330	0.203
-159.750	-182.563	0.238	0.004
-158.735	208.858	-0.114	-0.178
-157.720	558.876	0.150	0.362
-156.706	361.165	-0.038	-0.077
-155.691	-200.000	0.082	-0.375
-154.677	-200.000	-0.036	0.164
-153.662	331.949	-0.113	0.220
-152.647	56.290	0.012	-0.012
-151.633	-39.852	-0.083	0.043
-150.618	-200.000	-0.054	0.301
-149.604	800.000	-0.054	-0.232
-148.589	-130.289	0.165	0.022
-147.574	6.647	-0.178	0.133
-146.560	-71.912	-0.146	0.054
-145.545	175.991	0.059	0.086
-144.531	800.000	-0.095	0.384
-143.516	-122.318	-0.137	-0.022
-142.502	-172.872	0.118	-0.004
-141.487	-68.975	-0.184	0.071
-140.472	55.750	0.092	0.090
-139.458	655.313	-0.042	-0.107
-138.443	-23.062	-0.152	0.092
-137.429	81.160	-0.153	0.166
-136.414	-200.000	-0.006	0.266
-135.399	26.779	0.222	0.186
-134.385	-200.000	-0.037	-0.176
-133.370	-67.628	0.059	-0.023
-132.356	31.882	0.331	0.286
-131.341	-134.850	0.069	0.008
-130.326	137.614	0.111	-0.146
-129.312	-19.461	-0.075	-0.047
-128.297	-142.122	0.006	-0.001
-127.283	-23.647	-0.181	-0.108
-126.268	6.877	0.203	-0.151
-125.253	-8.603	-0.005	0.003
-124.239	-39.733	0.370	-0.194
-123.224	-18.072	-0.304	-0.191
-122.210	55.909	0.084	-0.082
-121.195	-200.000	-0.048	-0.255
-120.180	-157.097	-0.359	-0.022
-119.166	-29.116	0.371	0.213
-118.151	-200.000	-0.005	-0.075
-117.137	-113.825	0.202	-0.039
-116.122	-132.399	0.315	0.041
-115.107	24.674	0.141	0.117
-114.093	-60.857	0.134	-0.057
-113.078	-57.560	-0.202	-0.089
-112.064	-200.000	-0.004	0.096
-111.049	-38.447	0.336	-0.178
-110.034	95.782	-0.111	-0.126
-109.020	-17.147	-0.202	-0.127
-108.005	-200.000	0.045	0.252
-106.991	-200.000	0.030	0.216
-105.976	-50.384	-0.114	0.054
-104.962	-118.503	0.378	0.067
-103.947	720.956	0.084	-0.223
-102.932	-200.000	0.015	-0.334
-101.918	800.000	-0.007	0.024
-100.903	-140.886	0.254	0.026
-99.889	637.323	-0.085	-0.216
-98.874	-23.922	-0.178	-0.107
-97.859	-200.000	-0.023	0.163
-96.845	53.357	0.211	0.202
-95.830	-200.000	-0.016	-0.299
-94.816	105.527	0.239	0.282
-93.801	35.856	0.036	-0.032
-92.786	800.000	-0.045	-0.187
-91.772	537.164	0.045	0.107
-90.757	18.764	0.174	0.140
-89.743	97.932	-0.199	0.230
-88.728	800.000	0.083	0.340
-87.713	-22.065	0.267	-0.162
-86.699	66.253	-0.094	0.095
-85.684	-91.892	-0.183	0.052
-84.670	122.829	0.054	0.067
-83.655	-200.000	-0.002	0.111
-82.640	-200.000	0.031	0.264
-81.626	266.046	-0.114	0.200
-80.611	199.033	0.258	0.395
-79.597	-54.370	-0.244	0.110
-78.582	-145.261	-0.134	-0.012
-77.567	99.997	-0.059	0.068
-76.553	-81.583	0.114	0.037
-75.538	-200.000	0.039	-0.381
-74.524	-4.326	0.159	-0.110
-73.509	-34.696	-0.134	-0.073
-72.494	49.632	-0.076	0.072
-71.480	-84.942	0.218	-0.068
-70.465	-58.635	-0.355	-0.154
-69.451	203.557	0.082	-0.127
-68.436	-200.000	-0.032	0.142
-67.422	7.773	0.170	0.127
-66.407	55.424	0.204	0.197
-65.392	-79.589	-0.032	0.011
-64.378	-26.370	0.065	0.038
-63.363	-101.848	-0.112	-0.027
-62.349	-200.000	-0.034	0.166
-61.334	177.458	-0.632	-0.920
-60.319	-200.000	-0.002	0.186
-59.305	-200.000	0.068	-0.329
-58.290	149.670	0.475	0.643
-57.276	800.000	0.432	1.453
-56.261	-200.000	72.108	527.113
-55.246	596.204	1277.487	3160.195
-54.232	146.800	2500.679	3358.309
-53.217	115.344	2341.856	2857.953
-52.203	53.417	1960.564	1877.873
-51.188	47.122	1747.884	1624.839
-50.173	44.053	1700.876	1557.556
-49.159	57.917	1731.716	1693.092
-48.144	64.593	1750.559	1762.909
-47.130	46.960	1714.679	1592.467
-46.115	43.518	1701.028	1553.330
-45.100	43.373	1696.337	1547.881
-44.086	43.330	1693.873	1545.237
-43.071	43.233	1692.102	1542.820
-42.057	43.284	1689.543	1540.815
-41.042	43.362	1686.778	1538.829
-40.027	43.419	1685.357	1537.899
-39.013	43.363	1683.305	1535.547
-37.998	43.225	1681.676	1532.952
-36.984	43.381	1680.321	1532.839
-35.969	43.461	1678.708	1531.911
-34.954	43.563	1676.907	1530.976
-33.940	43.520	1675.539	1529.346
-32.925	43.538	1672.828	1526.942
-31.911	43.473	1671.604	1525.275
-30.896	43.502	1669.912	1523.894
-29.881	43.574	1667.611	1522.275
-28.867	43.402	1666.212	1519.640
-27.852	43.524	1664.848	1519.253
-26.838	43.511	1663.034	1517.438
-25.823	43.584	1662.331	1517.286
-24.809	43.550	1660.301	1515.119
-23.794	43.478	1659.240	1513.550
-22.779	43.560	1657.697	1512.698
-21.765	43.524	1655.995	1510.813
-20.750	43.477	1654.332	1508.887
-19.736	43.582	1652.598	1508.032
-18.721	43.582	1650.762	1506.293
-17.706	43.528	1649.780	1504.936
-16.692	43.483	1647.699	1502.646
-15.677	43.496	1646.741	1501.808
-14.663	43.562	1645.608	1501.203
-13.648	43.533	1643.626	1499.121
-12.633	43.580	1642.068	1497.987
-11.619	43.535	1640.847	1496.481
-10.604	43.522	1639.251	1494.869
-9.590	43.527	1637.997	1493.701
-8.575	43.555	1636.707	1492.674
-7.560	43.499	1635.348	1490.965
-6.546	43.518	1634.295	1490.088
-5.531	43.561	1632.573	1488.772
-4.517	43.468	1631.814	1487.337
-3.502	43.497	1630.512	1486.306
-2.487	43.614	1628.728	1485.479
-1.473	43.570	1618.666	1475.919
-0.458	41.339	1598.526	1441.392
0.556	36.163	1596.466	1402.385
1.571	33.191	1619.729	1400.721
2.586	32.144	1634.003	1405.113
3.600	28.354	1580.788	1331.745
4.615	15.538	1459.275	1142.653
5.629	3.500	1381.986	1004.063
6.644	1.265	1370.575	981.244
7.659	1.026	1369.053	978.521
8.673	1.048	1367.907	977.761
9.688	0.891	1366.782	975.858
10.702	0.634	1363.828	972.009
11.717	4.604	1372.425	1003.717
12.731	16.018	1394.538	1094.306
13.746	23.831	1407.728	1155.570
14.761	24.717	1407.498	1161.035
15.775	24.713	1406.917	1160.423
16.790	24.788	1406.831	1160.741
17.804	24.888	1405.913	1160.525
18.819	24.984	1405.832	1160.977
19.834	25.035	1405.074	1160.579
20.848	25.065	1404.272	1160.010
21.863	25.126	1403.141	1159.369
22.877	25.172	1401.730	1158.399
23.892	25.086	1401.717	1157.729
24.907	25.027	1400.970	1156.630
25.921	25.170	1399.915	1156.575
26.936	25.137	1398.725	1155.278
27.950	25.152	1397.445	1154.215
28.965	25.081	1396.339	1152.745
29.980	25.143	1394.541	1151.555
30.994	25.010	1393.792	1149.979
32.009	25.061	1392.916	1149.482
33.023	25.101	1391.679	1148.617
34.038	25.101	1390.674	1147.685
35.053	25.128	1389.212	1146.549
36.067	25.060	1388.259	1145.230
37.082	25.100	1387.559	1144.804
38.096	25.160	1386.495	1144.210
39.111	24.989	1386.063	1142.663
40.126	25.108	1384.610	1142.121
41.140	25.151	1384.264	1142.006
42.155	25.060	1384.425	1141.460
43.169	25.110	1384.077	1141.390
44.184	25.089	1383.467	1140.654
45.199	25.159	1383.052	1140.654
46.213	25.076	1382.540	1139.602
47.228	25.045	1381.993	1138.855
48.242	24.954	1380.707	1137.115
49.257	25.141	1378.853	1136.677
50.271	25.058	1377.506	1134.939
51.286	25.102	1376.301	1134.126
52.301	25.118	1375.317	1133.312
53.315	25.013	1374.676	1132.022
54.330	25.131	1373.501	1131.699
55.344	25.136	1371.909	1130.320
56.359	25.100	1371.128	1129.350
57.374	25.052	1370.618	1128.527
58.388	25.039	1370.038	1127.868
59.403	25.020	1369.701	1127.370
60.417	25.009	1369.169	1126.762
61.432	25.021	1368.067	1125.829
62.447	25.131	1367.032	1125.574
63.461	25.081	1365.958	1124.276
64.476	25.016	1365.157	1123.109
65.490	25.145	1363.752	1122.659
66.505	25.061	1362.241	1120.792
67.520	25.151	1360.768	1120.041
68.534	25.150	1360.062	1119.356
69.549	25.101	1359.535	1118.516
70.563	25.116	1358.048	1117.287
71.578	25.077	1357.224	1116.269
72.593	25.143	1356.055	1115.619
73.607	25.217	1355.849	1115.813
74.622	25.102	1354.870	1114.192
75.636	25.129	1354.165	1113.683
76.651	25.103	1353.460	1112.839
77.666	25.041	1353.107	1112.070
78.680	25.084	1352.675	1111.881
79.695	25.052	1351.599	1110.700
80.709	25.144	1350.612	1110.357
81.724	25.163	1349.839	1109.744
82.739	25.115	1348.771	1108.469
83.753	25.052	1348.148	1107.470
84.768	24.970	1347.183	1106.075
85.782	25.107	1345.557	1105.484
86.797	25.181	1344.751	1105.185
87.812	25.140	1342.961	1103.360
88.826	25.134	1342.362	1102.737
89.841	25.183	1341.448	1102.189
90.855	25.085	1340.557	1100.754
91.870	25.186	1339.776	1100.638
92.884	25.152	1338.737	1099.478
93.899	25.129	1338.235	1098.826
94.914	25.099	1337.386	1097.848
95.928	25.172	1336.168	1097.197
96.943	25.123	1335.662	1096.389
97.957	25.101	1335.108	1095.702
98.972	25.147	1334.217	1095.154
99.987	25.108	1332.780	1093.639
101.001	25.148	1332.011	1093.155
102.016	25.141	1331.126	1092.291
103.030	25.148	1330.471	1091.701
104.045	25.131	1329.650	1090.825
105.060	25.107	1328.695	1089.796
106.074	25.093	1327.520	1088.652
107.089	25.043	1326.806	1087.666
108.103	25.147	1325.370	1087.026
109.118	25.215	1324.329	1086.489
110.133	25.236	1323.311	1085.683
111.147	25.280	1321.961	1084.747
112.162	25.235	1320.799	1083.425
113.176	25.341	1319.499	1082.902
114.191	25.211	1319.135	1081.724
115.206	25.245	1317.976	1080.883
116.220	25.177	1316.472	1079.146
117.235	25.091	1316.139	1078.257
118.249	25.109	1315.496	1077.746
119.264	25.077	1314.614	1076.731
120.279	25.303	1313.329	1076.943
121.293	25.320	1312.755	1076.479
122.308	25.229	1311.778	1075.037
123.322	25.312	1310.891	1074.709
124.337	25.236	1310.123	1073.533
125.352	25.282	1309.255	1073.000
126.366	25.405	1307.953	1072.572
127.381	25.277	1307.692	1071.498
128.395	25.267	1306.503	1070.372
129.410	25.386	1305.274	1069.976
130.424	25.276	1304.993	1068.996
131.439	25.366	1303.812	1068.472
132.454	25.335	1303.205	1067.695
133.468	25.280	1302.873	1067.004
134.483	25.256	1302.126	1066.153
135.497	25.159	1301.560	1065.020
136.512	25.274	1300.342	1064.613
137.527	25.331	1298.915	1063.686
138.541	25.403	1297.736	1063.052
139.556	25.246	1296.749	1061.224
140.570	25.253	1296.049	1060.598
141.585	25.431	1294.082	1059.940
142.600	25.309	1293.742	1058.851
143.614	25.260	1292.862	1057.747
144.629	25.223	1291.758	1056.535
145.643	25.177	1290.881	1055.454
146.658	25.175	1289.961	1054.592
147.673	25.283	1288.483	1053.930
148.687	25.200	1287.486	1052.531
149.702	25.242	1286.231	1051.658
150.716	25.114	1285.665	1050.352
151.731	25.319	1284.316	1050.356
152.746	25.191	1283.504	1048.850
153.760	25.159	1282.628	1047.857
154.775	25.287	1281.393	1047.503
155.789	25.379	1280.450	1047.176
156.804	25.243	1279.525	1045.531
157.819	25.132	1279.059	1044.412
158.833	25.312	1277.802	1044.343
159.848	25.302	1277.022	1043.556
160.862	25.254	1276.306	1042.599
161.877	25.253	1275.780	1042.071
162.892	25.324	1274.788	1041.579
163.906	25.316	1273.959	1040.762
164.921	25.363	1273.379	1040.467
165.935	25.284	1272.722	1039.383
166.950	25.346	1271.878	1038.963
167.964	25.353	1271.321	1038.457
168.979	25.376	1270.804	1038.073
169.994	25.361	1270.191	1037.394
171.008	25.363	1269.270	1036.561
172.023	25.436	1268.524	1036.283
173.037	25.394	1267.771	1035.333
174.052	25.375	1267.363	1034.801
175.067	25.300	1267.065	1034.029
176.081	25.387	1265.588	1033.237
177.096	25.371	1264.649	1032.288
178.110	25.472	1263.665	1031.969
179.125	25.444	1262.776	1030.995
180.140	25.383	1262.244	1030.118
181.154	25.383	1260.791	1028.842
182.169	25.325	1259.515	1027.376
183.183	25.408	1258.749	1027.136
184.198	25.496	1257.815	1026.787
185.213	25.396	1257.339	1025.734
186.227	25.477	1255.904	1024.933
187.242	25.451	1254.983	1023.943
188.256	25.458	1254.451	1023.460
189.271	25.452	1253.463	1022.528
190.286	25.449	1252.698	1021.796
191.300	25.401	1251.863	1020.756
192.315	25.417	1251.606	1020.545
193.329	25.452	1251.279	1020.388
194.344	25.550	1250.832	1020.488
195.359	25.404	1250.386	1019.206
196.373	25.446	1249.819	1018.891
197.388	25.423	1249.501	1018.410
198.402	25.428	1248.711	1017.707
199.417	25.523	1248.529	1018.006
200.432	25.430	1247.886	1016.862
201.446	25.481	1247.100	1016.422
202.461	25.479	1246.412	1015.762
203.475	25.415	1245.827	1014.833
204.490	25.402	1244.484	1013.573
205.504	25.447	1243.810	1013.189
206.519	25.542	1242.664	1012.703
207.534	25.361	1242.022	1011.070
208.548	25.528	1240.742	1010.879
209.563	25.448	1240.078	1009.798
210.577	25.500	1239.447	1009.485
211.592	25.495	1238.694	1008.758
212.607	25.500	1238.235	1008.319
213.621	25.582	1236.971	1007.661
214.636	25.608	1236.374	1007.231
215.650	25.546	1235.307	1005.927
216.665	25.602	1234.288	1005.319
217.680	25.534	1233.519	1004.225
218.694	25.602	1232.345	1003.562
219.709	25.576	1232.247	1003.247
220.723	25.589	1231.586	1002.693
221.738	25.451	1230.800	1001.196
222.753	25.527	1229.954	1000.842
223.767	25.518	1229.364	1000.221
224.782	25.544	1228.892	999.895
225.796	25.689	1228.077	999.949
226.811	25.648	1227.308	999.006
227.826	25.708	1226.980	998.986
228.840	25.759	1226.269	998.598
229.855	25.653	1226.073	997.764
230.869	25.645	1225.033	996.785
231.884	25.656	1224.275	996.141
232.899	25.588	1224.011	995.460
233.913	25.622	1222.958	994.704
234.928	25.763	1222.242	994.815
235.942	25.743	1222.114	994.511
236.957	25.733	1221.194	993.617
237.972	25.748	1220.700	993.213
238.986	25.722	1219.888	992.318
240.001	25.728	1219.771	992.173
241.015	25.850	1218.445	991.676
242.030	25.818	1217.817	990.901
243.045	25.795	1217.214	990.195
244.059	25.811	1216.306	989.459
245.074	25.854	1215.485	988.937
246.088	25.870	1214.334	988.003
247.103	25.936	1213.634	987.708
248.117	25.652	1213.366	985.844
249.132	25.846	1212.535	986.143
250.147	25.945	1211.535	985.787
251.161	25.895	1210.898	984.906
252.176	25.810	1209.976	983.607
253.190	25.979	1209.481	984.038
254.205	25.856	1209.062	982.937
255.220	25.849	1208.445	982.311
256.234	25.885	1207.688	981.805
257.249	25.889	1207.081	981.247
258.263	25.951	1206.247	980.821
259.278	25.985	1205.879	980.618
260.293	26.015	1205.478	980.368
261.307	25.944	1204.721	979.280
262.322	25.936	1204.515	978.984
263.336	25.939	1203.418	978.021
264.351	25.994	1203.008	977.903
265.366	26.013	1202.435	977.450
266.380	25.939	1201.506	976.208
267.395	25.920	1201.307	975.857
268.409	26.020	1200.451	975.616
269.424	25.995	1199.533	974.649
270.439	25.960	1199.676	974.493
271.453	25.922	1199.051	973.692
272.468	25.966	1197.667	972.719
273.482	25.921	1197.147	971.967
274.497	25.975	1196.849	971.930
275.512	26.071	1196.130	971.777
276.526	25.924	1195.844	970.666
277.541	26.135	1194.212	970.392
278.555	26.114	1193.940	969.973
279.570	26.099	1193.137	969.151
280.585	26.160	1192.161	968.602
281.599	26.251	1191.203	968.226
282.614	26.108	1190.474	966.782
283.628	26.031	1189.929	965.840
284.643	26.145	1189.064	965.665
285.657	26.173	1188.367	965.159
286.672	26.179	1187.321	964.259
287.687	26.099	1186.558	963.128
288.701	26.201	1185.937	963.081
289.716	26.296	1185.098	962.820
290.730	26.173	1184.908	961.929
291.745	26.168	1183.920	961.013
292.760	26.141	1183.490	960.434
293.774	26.299	1182.776	960.612
294.789	26.247	1182.333	959.887
295.803	26.260	1182.035	959.629
296.818	26.236	1181.290	958.812
297.833	26.340	1180.229	958.421
298.847	26.372	1179.374	957.812
299.862	26.392	1178.606	957.210
300.876	26.242	1178.332	956.107
301.891	26.371	1177.462	955.998
302.906	26.407	1176.933	955.674
303.920	26.312	1176.541	954.769
304.935	26.294	1175.681	953.894
305.949	26.308	1175.056	953.375
306.964	26.391	1174.286	953.101
307.979	26.445	1173.635	952.774
308.993	26.430	1173.212	952.267
310.008	26.428	1172.379	951.497
311.022	26.443	1171.681	950.924
312.037	26.370	1171.112	949.998
313.052	26.504	1169.712	949.480
314.066	26.320	1169.052	947.892
315.081	26.428	1168.438	947.877
316.095	26.401	1167.907	947.221
317.110	26.483	1167.196	946.992
318.125	26.441	1166.421	946.058
319.139	26.445	1166.035	945.682
320.154	26.449	1165.345	945.059
321.168	26.551	1164.707	944.991
322.183	26.469	1164.406	944.237
323.197	26.570	1163.833	944.216
324.212	26.461	1163.126	942.992
325.227	26.532	1162.415	942.697
326.241	26.547	1162.189	942.512
327.256	26.498	1161.477	941.597
328.270	26.500	1160.684	940.881
329.285	26.470	1159.687	939.831
330.300	26.635	1158.743	939.840
331.314	26.540	1157.923	938.600
332.329	26.489	1157.397	937.826
333.343	26.605	1156.542	937.652
334.358	26.668	1155.486	937.036
335.373	26.714	1155.075	936.858
336.387	26.760	1154.063	936.194
337.402	26.672	1153.612	935.290
338.416	26.721	1152.786	934.793
339.431	26.746	1152.602	934.689
340.446	26.797	1151.637	934.083
341.460	26.694	1151.345	933.234
342.475	26.778	1150.425	932.837
343.489	26.752	1149.620	931.972
344.504	26.837	1148.250	931.212
345.519	26.779	1147.618	930.319
346.533	26.806	1146.884	929.781
347.548	26.876	1146.182	929.492
348.562	26.791	1145.625	928.522
349.577	26.748	1145.042	927.745
350.592	26.673	1144.373	926.739
351.606	26.771	1143.503	926.452
352.621	26.905	1142.975	926.629
353.635	26.838	1142.639	925.929
354.650	26.821	1141.727	925.022
355.665	26.804	1140.888	924.173
356.679	26.846	1140.607	924.080
357.694	26.972	1139.870	924.039
358.708	26.817	1139.148	922.584
359.723	26.969	1138.191	922.500
360.738	26.797	1138.169	921.527
361.752	26.870	1137.784	921.504
362.767	26.912	1136.770	920.814
363.781	27.045	1136.058	920.830
364.796	27.049	1135.739	920.510
365.810	26.945	1135.455	919.672
366.825	26.998	1134.535	919.114
367.840	27.070	1134.299	919.205
368.854	27.102	1133.470	918.617
369.869	27.064	1132.586	917.626
370.883	27.133	1131.586	917.084
371.898	27.066	1131.221	916.365
372.913	27.055	1130.757	915.854
373.927	27.121	1130.352	915.778
374.942	27.078	1129.954	915.158
375.956	27.064	1129.234	914.422
376.971	27.119	1128.434	913.974
377.986	27.103	1128.160	913.587
379.000	27.171	1127.615	913.408
380.015	27.074	1127.260	912.555
381.029	27.299	1126.517	913.000
382.044	27.228	1125.541	911.772
383.059	27.164	1125.243	911.131
384.073	27.293	1123.812	910.537
385.088	27.284	1123.225	909.935
386.102	27.219	1122.689	909.096
387.117	27.314	1121.371	908.424
388.132	27.240	1120.884	907.577
389.146	27.160	1120.584	906.855
390.161	27.335	1119.431	906.715
391.175	27.308	1118.746	905.946
392.190	27.302	1118.337	905.501
393.205	27.376	1117.000	904.711
394.219	27.240	1117.005	903.955
395.234	27.404	1115.878	903.778
396.248	27.396	1115.001	902.947
397.263	27.327	1114.485	902.107
398.278	27.434	1113.835	902.032
399.292	27.464	1113.245	901.626
400.307	27.400	1112.800	900.866
401.321	27.376	1112.182	900.169
402.336	27.302	1111.578	899.233
403.350	27.524	1110.644	899.497
404.365	27.453	1109.867	898.438
405.380	27.536	1109.413	898.400
406.394	27.478	1108.859	897.584
407.409	27.562	1107.896	897.140
408.423	27.679	1107.017	896.924
409.438	27.584	1106.532	895.985
410.453	27.603	1105.861	895.454
411.467	27.638	1104.826	894.707
412.482	27.565	1104.445	893.965
413.496	27.580	1103.683	893.339
414.511	27.645	1102.861	892.913
415.526	27.564	1102.633	892.253
416.540	27.650	1102.121	892.184
417.555	27.635	1101.959	891.899
418.569	27.630	1101.309	891.269
419.584	27.721	1100.910	891.314
420.599	27.689	1100.390	890.657
421.613	77.449	1280.991	1310.211
422.628	72.519	1307.350	1310.333
