DTS Sentinel unit serial number:	SN413079Multiplexer serial number:	ORYXHardware model number:	OX4-SRSoftware version number:	ORYX F/W v4.00 Oryx Data Collector v3.7.2.0data status	okinstallation	princeton_trtdifferential loss correction	single-endedforward channel	channel 2reverse channel	N/Adate	2019/09/10time	23:05:11forward acquisition time	60.00reverse acquisition time	0.00gamma	496.2192k internal	0.2330k external	0.2330temperature offset calibration	0.9947default loss term (dB/km)	0.3790temperature slope calibration	1.0000multiplexer offset coefficient	1.0000multiplexer slope coefficient	1.0000fibre end	0.00T internal ref (°C)	29.98T ext. ref 1 (°C)	-0.29T ext. ref 2 (°C)	23.47length (m)	temperature (°C)	Stokes	anti-Stokes-747.200	-200.000	0.012	-0.118
-746.185	800.000	-0.040	-0.147
-745.171	-200.000	0.031	0.178
-744.156	-163.930	-0.072	0.003
-743.142	-101.740	-0.406	-0.099
-742.127	-62.274	0.150	-0.063
-741.112	588.549	-0.014	-0.035
-740.098	-78.304	-0.301	0.104
-739.083	-15.593	0.173	0.111
-738.069	-41.647	-0.349	0.181
-737.054	800.000	0.047	-0.141
-736.039	-93.954	-0.480	0.133
-735.025	25.539	-0.053	0.044
-734.010	358.427	-0.107	-0.215
-732.996	397.088	0.129	0.271
-731.981	-43.004	0.115	-0.058
-730.966	-161.706	0.099	0.005
-729.952	47.789	0.169	-0.159
-728.937	-200.000	-0.026	-0.134
-727.923	499.785	-0.021	-0.050
-726.908	40.956	-0.028	0.025
-725.894	-200.000	-0.026	-0.294
-724.879	323.138	-0.135	-0.259
-723.864	124.597	-0.108	-0.137
-722.850	189.356	-0.161	0.243
-721.835	-117.787	-0.054	-0.010
-720.821	-54.188	-0.354	-0.162
-719.806	800.000	0.063	-0.270
-718.791	-200.000	0.009	0.102
-717.777	-106.647	-0.259	0.058
-716.762	294.046	0.081	0.150
-715.748	-48.728	0.068	-0.033
-714.733	-200.000	-0.203	-0.001
-713.718	169.133	-0.150	-0.216
-712.704	161.760	-0.133	-0.187
-711.689	125.520	0.117	-0.148
-710.675	309.779	0.069	-0.130
-709.660	162.502	0.090	-0.127
-708.645	72.043	-0.254	-0.266
-707.631	15.373	0.140	-0.110
-706.616	-7.405	-0.160	-0.109
-705.602	-89.688	-0.307	-0.091
-704.587	-169.196	0.179	-0.007
-703.572	-149.235	0.324	-0.026
-702.558	-34.142	-0.301	-0.166
-701.543	99.125	-0.056	0.065
-700.529	800.000	-0.112	-0.492
-699.514	247.541	0.080	-0.136
-698.499	127.148	0.043	-0.054
-697.485	800.000	-0.025	0.089
-696.470	-92.245	-0.306	0.087
-695.456	-118.684	-0.180	0.032
-694.441	800.000	-0.096	-0.278
-693.426	800.000	-0.030	0.098
-692.412	-200.000	-0.052	0.413
-691.397	669.123	0.052	0.135
-690.383	-109.265	-0.162	0.034
-689.368	-200.000	-0.007	-0.288
-688.354	-67.551	-0.131	-0.051
-687.339	800.000	0.079	0.284
-686.324	44.900	0.307	-0.284
-685.310	-68.172	0.218	0.085
-684.295	-102.332	-0.197	-0.048
-683.281	143.502	0.072	-0.096
-682.266	-12.031	-0.224	-0.147
-681.251	-29.614	-0.147	-0.084
-680.237	598.289	-0.045	0.112
-679.222	-200.000	-0.071	-0.456
-678.208	-147.115	-0.348	0.030
-677.193	110.568	-0.117	0.141
-676.178	217.923	-0.264	-0.423
-675.164	285.023	-0.107	-0.193
-674.149	459.171	0.083	-0.186
-673.135	115.701	0.072	-0.089
-672.120	-200.000	0.076	-0.522
-671.105	800.000	0.053	0.201
-670.091	38.697	-0.210	-0.188
-669.076	23.728	-0.022	0.018
-668.062	-108.614	0.165	0.035
-667.047	800.000	-0.063	0.205
-666.032	-185.152	-0.207	-0.003
-665.018	-48.369	-0.377	0.183
-664.003	204.740	-0.101	0.157
-662.989	210.225	0.040	-0.062
-661.974	-156.322	0.268	-0.017
-660.959	-200.000	0.015	0.113
-659.945	-200.000	0.074	-0.347
-658.930	800.000	0.040	0.114
-657.916	133.131	0.298	0.386
-656.901	-200.000	-0.055	0.301
-655.886	-181.984	-0.181	0.003
-654.872	-53.142	0.528	-0.243
-653.857	-126.048	-0.141	0.021
-652.843	-200.000	-0.028	0.167
-651.828	-167.351	0.096	0.004
-650.814	197.712	0.174	0.267
-649.799	800.000	0.047	-0.167
-648.784	111.055	0.091	0.110
-647.770	133.552	-0.192	-0.249
-646.755	-126.320	0.183	-0.027
-645.741	766.998	0.059	0.162
-644.726	-90.807	-0.359	-0.104
-643.711	-77.614	0.302	-0.105
-642.697	203.476	-0.318	0.494
-641.682	29.289	-0.070	-0.060
-640.668	-200.000	0.016	0.390
-639.653	77.142	0.171	0.182
-638.638	-63.688	0.229	-0.094
-637.624	47.522	0.200	-0.187
-636.609	-127.059	-0.025	0.004
-635.595	-67.506	-0.262	-0.103
-634.580	6.561	-0.351	-0.261
-633.565	163.629	-0.052	0.073
-632.551	106.552	0.124	0.148
-631.536	-200.000	-0.008	-0.159
-630.522	-5.104	-0.055	0.038
-629.507	-123.808	-0.339	0.054
-628.492	250.462	-0.082	0.139
-627.478	-200.000	0.000	-0.067
-626.463	-41.115	-0.209	-0.108
-625.449	90.187	0.207	0.232
-624.434	298.048	-0.066	-0.122
-623.419	449.393	-0.075	0.165
-622.405	-20.786	0.219	0.135
-621.390	-58.697	-0.265	0.115
-620.376	-69.926	0.248	0.095
-619.361	384.157	-0.110	-0.227
-618.346	230.674	-0.133	0.217
-617.332	-114.494	0.232	-0.045
-616.317	-75.668	0.103	-0.037
-615.303	10.324	0.177	-0.135
-614.288	795.081	0.033	-0.090
-613.273	281.457	-0.100	-0.179
-612.259	-137.328	-0.367	0.042
-611.244	-15.468	0.198	0.127
-610.230	-57.285	0.271	0.119
-609.215	202.256	0.151	0.233
-608.201	-200.000	0.003	-0.028
-607.186	409.632	0.148	-0.314
-606.171	-69.917	-0.243	0.093
-605.157	43.661	-0.210	-0.192
-604.142	-200.000	0.048	0.247
-603.128	318.253	0.107	0.203
-602.113	800.000	0.043	-0.186
-601.098	71.762	-0.218	0.227
-600.084	127.342	0.179	-0.228
-599.069	790.733	-0.029	-0.080
-598.055	148.175	-0.045	-0.060
-597.040	-21.335	-0.013	0.008
-596.025	85.846	0.439	0.484
-595.011	40.118	0.113	0.102
-593.996	-79.715	-0.270	0.091
-592.982	257.961	-0.138	-0.238
-591.967	-117.796	0.088	-0.016
-590.952	202.212	-0.136	0.210
-589.938	-179.963	-0.398	-0.009
-588.923	-4.788	-0.339	-0.234
-587.909	-28.293	0.124	-0.072
-586.894	-36.394	0.196	0.106
-585.879	-200.000	0.004	-0.063
-584.865	149.907	0.132	0.180
-583.850	-87.459	-0.081	0.024
-582.836	127.891	0.135	0.172
-581.821	56.827	0.175	-0.170
-580.806	171.372	0.104	-0.150
-579.792	-137.664	0.087	0.010
-578.777	80.027	-0.074	-0.079
-577.763	-22.880	0.063	-0.038
-576.748	243.255	-0.046	0.076
-575.733	-147.074	-0.174	-0.015
-574.719	-133.351	0.211	-0.027
-573.704	-157.766	-0.181	-0.011
-572.690	800.000	-0.010	-0.034
-571.675	-47.591	0.040	-0.019
-570.661	45.636	-0.273	0.252
-569.646	-11.393	0.262	0.172
-568.631	-55.761	0.279	0.125
-567.617	423.389	-0.118	-0.253
-566.602	-200.000	-0.010	-0.052
-565.588	12.020	0.169	0.130
-564.573	-200.000	0.014	0.236
-563.558	-200.000	0.039	0.302
-562.544	-41.126	0.132	0.068
-561.529	-200.000	0.033	-0.201
-560.515	800.000	-0.023	0.074
-559.500	-200.000	0.049	0.312
-558.485	-86.759	-0.077	-0.023
-557.471	157.265	-0.146	-0.202
-556.456	-31.836	0.108	-0.061
-555.442	800.000	0.081	0.299
-554.427	-27.887	0.227	0.131
-553.412	416.133	-0.078	0.167
-552.398	-115.400	-0.193	-0.036
-551.383	44.180	-0.196	0.179
-550.369	197.184	-0.090	-0.138
-549.354	-31.123	0.145	0.082
-548.339	-200.000	0.039	-0.216
-547.325	-0.197	0.185	0.131
-546.310	29.043	-0.201	0.171
-545.296	-120.371	-0.046	0.008
-544.281	-77.995	-0.231	0.080
-543.266	-200.000	-0.013	-0.059
-542.252	560.169	-0.052	-0.125
-541.237	45.034	-0.101	-0.093
-540.223	176.854	-0.153	-0.222
-539.208	110.177	-0.103	-0.123
-538.193	-2.911	0.152	-0.106
-537.179	-200.000	0.059	-0.266
-536.164	-200.000	-0.037	-0.336
-535.150	800.000	0.026	0.074
-534.135	169.990	0.020	-0.029
-533.121	-29.141	-0.284	-0.163
-532.106	393.747	0.055	-0.115
-531.091	-50.147	0.124	-0.059
-530.077	-65.169	0.172	-0.069
-529.062	6.005	0.438	0.324
-528.048	65.652	0.257	0.260
-527.033	-108.221	0.174	-0.038
-526.018	77.185	0.233	-0.247
-525.004	-147.087	0.177	0.015
-523.989	-124.582	-0.119	0.018
-522.975	-200.000	-0.003	0.347
-521.960	4.080	0.186	-0.136
-520.945	268.082	0.264	0.462
-519.931	-44.437	-0.248	-0.124
-518.916	-124.247	0.062	0.010
-517.902	-56.460	0.214	0.095
-516.887	506.453	-0.226	-0.523
-515.872	33.343	0.081	-0.070
-514.858	-84.837	-0.486	-0.152
-513.843	106.775	0.167	-0.197
-512.829	-10.023	-0.231	0.153
-511.814	-47.348	0.079	0.038
-510.799	442.592	-0.174	-0.380
-509.785	92.677	0.094	-0.106
-508.770	125.398	0.269	-0.338
-507.756	255.062	-0.235	0.401
-506.741	-150.102	0.167	-0.013
-505.726	-200.000	0.022	-0.488
-504.712	-200.000	-0.005	-0.211
-503.697	-49.635	-0.198	-0.094
-502.683	-122.933	-0.339	0.055
-501.668	-145.120	0.417	-0.038
-500.653	-48.225	0.410	-0.197
-499.639	290.844	-0.250	0.453
-498.624	191.100	0.052	-0.078
-497.610	800.000	0.032	-0.107
-496.595	66.950	0.094	-0.095
-495.581	-55.182	-0.188	-0.084
-494.566	118.447	0.336	-0.413
-493.551	-190.015	0.122	0.001
-492.537	-200.000	0.028	0.302
-491.522	-8.118	-0.255	0.171
-490.508	590.033	-0.034	-0.083
-489.493	-31.010	-0.214	-0.121
-488.478	-121.067	0.170	-0.028
-487.464	-99.459	-0.308	0.077
-486.449	-200.000	-0.003	-0.316
-485.435	42.573	-0.182	0.165
-484.420	-200.000	-0.004	-0.209
-483.405	114.930	-0.155	0.188
-482.391	-200.000	0.038	0.364
-481.376	276.528	-0.087	0.154
-480.362	109.395	0.127	0.152
-479.347	190.844	-0.070	0.104
-478.332	208.078	0.255	-0.396
-477.318	491.938	0.172	-0.394
-476.303	634.623	0.072	-0.182
-475.289	800.000	-0.067	-0.198
-474.274	209.543	-0.221	0.346
-473.259	176.268	-0.045	0.066
-472.245	-200.000	0.005	-0.116
-471.230	99.247	0.085	0.097
-470.216	54.093	0.166	0.159
-469.201	38.484	-0.134	0.119
-468.186	236.683	0.174	-0.287
-467.172	-200.000	0.009	-0.309
-466.157	113.517	0.204	-0.247
-465.143	332.058	-0.039	-0.076
-464.128	-168.266	-0.344	-0.013
-463.113	800.000	-0.049	0.174
-462.099	46.771	-0.180	0.166
-461.084	40.657	-0.170	-0.153
-460.070	800.000	-0.085	-0.312
-459.055	-200.000	-0.011	0.191
-458.040	800.000	0.072	-0.249
-457.026	-61.964	0.196	-0.081
-456.011	-27.261	0.108	-0.063
-454.997	151.638	-0.007	0.010
-453.982	-200.000	0.022	0.170
-452.968	121.986	0.119	-0.148
-451.953	320.907	0.002	-0.004
-450.938	-193.317	-0.201	-0.002
-449.924	-58.245	-0.200	0.087
-448.909	-145.250	-0.136	-0.012
-447.895	800.000	0.082	-0.231
-446.880	-106.644	-0.124	0.027
-445.865	-200.000	-0.009	0.067
-444.851	117.304	-0.009	0.011
-443.836	-138.073	0.217	0.024
-442.822	47.921	-0.062	-0.058
-441.807	209.670	0.014	-0.022
-440.792	800.000	-0.032	-0.128
-439.778	-8.775	0.099	-0.066
-438.763	102.291	0.161	0.187
-437.749	-112.101	-0.472	0.094
-436.734	691.097	0.069	-0.180
-435.719	-23.950	-0.243	0.145
-434.705	23.175	0.209	0.171
-433.690	110.368	0.003	0.004
-432.676	522.192	-0.111	-0.259
-431.661	-200.000	0.009	-0.061
-430.646	71.018	-0.148	-0.152
-429.632	78.263	-0.010	0.010
-428.617	-200.000	-0.023	0.146
-427.603	-93.735	0.117	0.032
-426.588	800.000	-0.097	0.284
-425.573	83.026	0.231	0.250
-424.559	-200.000	-0.018	-0.312
-423.544	-200.000	-0.032	-0.565
-422.530	387.338	0.028	-0.057
-421.515	-200.000	-0.034	0.167
-420.500	114.194	0.213	-0.257
-419.486	-61.150	0.162	-0.068
-418.471	-147.611	-0.218	-0.018
-417.457	800.000	-0.025	-0.098
-416.442	-113.321	-0.020	-0.004
-415.428	157.230	-0.033	-0.046
-414.413	76.536	0.170	0.179
-413.398	325.544	0.098	0.186
-412.384	800.000	0.028	0.091
-411.369	800.000	-0.054	0.227
-410.355	43.347	-0.163	-0.148
-409.340	800.000	0.066	-0.183
-408.325	-78.774	-0.177	0.060
-407.311	-70.014	-0.417	-0.158
-406.296	136.384	-0.181	0.235
-405.282	112.435	0.092	0.110
-404.267	181.073	-0.194	0.283
-403.252	-68.351	0.302	-0.117
-402.238	-200.000	-0.005	0.283
-401.223	510.635	-0.044	0.102
-400.209	58.748	-0.058	-0.057
-399.194	272.998	-0.146	-0.256
-398.179	-191.839	0.363	-0.004
-397.165	-65.589	0.300	-0.120
-396.150	-87.801	-0.169	0.051
-395.136	-200.000	-0.035	-0.244
-394.121	-46.763	-0.559	0.272
-393.106	800.000	0.120	0.395
-392.092	-200.000	0.032	0.273
-391.077	-200.000	0.053	0.368
-390.063	77.031	0.245	0.258
-389.048	800.000	-0.048	-0.151
-388.033	-143.005	0.155	0.015
-387.019	75.438	0.176	-0.185
-386.004	594.204	-0.102	-0.250
-384.990	800.000	-0.029	0.115
-383.975	-200.000	-0.079	0.345
-382.960	-27.816	0.165	0.095
-381.946	-47.793	0.172	-0.083
-380.931	-71.049	-0.187	-0.070
-379.917	-159.608	0.167	-0.009
-378.902	160.829	0.060	0.083
-377.888	800.000	0.098	0.307
-376.873	409.774	-0.197	0.414
-375.858	221.395	0.203	0.324
-374.844	-65.087	0.055	-0.022
-373.829	115.478	-0.133	0.161
-372.815	-9.117	0.141	0.094
-371.800	72.172	0.145	0.150
-370.785	100.233	-0.257	-0.296
-369.771	-200.000	-0.072	-0.455
-368.756	800.000	-0.006	-0.026
-367.742	5.679	-0.075	-0.055
-366.727	-115.867	0.198	-0.037
-365.712	-200.000	0.014	0.123
-364.698	186.273	0.178	-0.263
-363.683	-117.910	0.267	-0.047
-362.669	-200.000	-0.065	0.330
-361.654	36.402	-0.040	0.035
-360.639	800.000	-0.051	0.146
-359.625	178.723	0.185	0.269
-358.610	-95.048	-0.242	-0.065
-357.596	119.683	0.022	0.027
-356.581	98.886	-0.108	0.123
-355.566	-200.000	0.023	0.315
-354.552	-93.807	-0.149	-0.041
-353.537	-71.390	0.137	-0.051
-352.523	-200.000	0.006	0.283
-351.508	341.793	0.074	-0.143
-350.493	234.290	0.071	0.117
-349.479	-200.000	0.039	-0.170
-348.464	733.132	-0.112	-0.297
-347.450	800.000	-0.103	-0.305
-346.435	-20.610	-0.229	-0.139
-345.420	-200.000	0.047	0.219
-344.406	-34.173	0.100	-0.055
-343.391	-42.373	-0.197	-0.099
-342.377	-200.000	0.023	-0.259
-341.362	-200.000	0.033	0.194
-340.348	678.929	-0.088	-0.226
-339.333	-26.098	0.142	0.083
-338.318	-90.602	-0.273	0.078
-337.304	192.438	0.182	0.273
-336.289	-200.000	0.004	0.227
-335.275	208.439	-0.079	-0.123
-334.260	-100.665	-0.020	0.005
-333.245	800.000	-0.009	-0.035
-332.231	-110.206	-0.178	-0.037
-331.216	-34.952	0.337	0.182
-330.202	11.736	0.156	0.119
-329.187	-28.154	-0.294	-0.168
-328.172	-85.993	-0.297	0.091
-327.158	-8.608	-0.281	0.187
-326.143	10.012	0.050	0.038
-325.129	-76.320	0.322	0.112
-324.114	-115.298	0.306	0.057
-323.099	-2.839	0.282	0.195
-322.085	-186.248	-0.272	-0.004
-321.070	2.871	-0.101	0.073
-320.056	129.643	-0.103	-0.130
-319.041	-1.756	0.166	0.116
-318.026	-152.828	-0.261	0.018
-317.012	-110.852	-0.329	-0.067
-315.997	800.000	-0.030	-0.122
-314.983	38.190	0.272	-0.240
-313.968	320.191	-0.157	-0.296
-312.953	337.708	-0.072	0.139
-311.939	-200.000	0.000	0.207
-310.924	179.040	0.157	0.227
-309.910	-143.388	-0.253	0.024
-308.895	-35.887	0.076	0.041
-307.880	-200.000	-0.002	-0.291
-306.866	-85.820	0.136	0.042
-305.851	-41.806	-0.155	-0.079
-304.837	-72.740	-0.403	-0.147
-303.822	800.000	0.003	-0.009
-302.807	-128.589	-0.152	0.021
-301.793	279.549	-0.081	-0.143
-300.778	-78.886	-0.108	-0.036
-299.764	-200.000	-0.013	0.187
-298.749	-59.778	0.315	0.133
-297.735	-143.910	-0.370	0.035
-296.720	382.616	0.051	0.104
-295.705	-200.000	0.038	-0.337
-294.691	73.497	0.143	0.148
-293.676	562.375	-0.026	-0.062
-292.662	224.632	0.120	0.192
-291.647	-158.727	0.480	0.027
-290.632	116.033	-0.020	0.024
-289.618	-200.000	0.028	0.133
-288.603	-135.667	-0.113	0.013
-287.589	-130.580	-0.218	-0.029
-286.574	-18.891	0.315	-0.194
-285.559	67.303	0.015	-0.015
-284.545	-40.674	0.293	-0.150
-283.530	117.203	0.366	-0.444
-282.516	595.007	0.037	-0.091
-281.501	-65.560	-0.064	0.025
-280.486	46.608	-0.067	0.061
-279.472	-17.201	-0.050	0.031
-278.457	502.117	-0.092	0.209
-277.443	-163.607	0.408	0.019
-276.428	310.471	-0.090	0.166
-275.413	-26.536	-0.160	-0.093
-274.399	14.024	0.166	-0.128
-273.384	-10.915	0.128	0.084
-272.370	-32.102	-0.326	-0.180
-271.355	-39.370	0.156	0.081
-270.340	43.475	-0.084	-0.076
-269.326	241.318	-0.236	0.390
-268.311	151.782	0.115	0.155
-267.297	-88.820	-0.221	0.065
-266.282	-88.562	-0.330	0.097
-265.267	-92.073	0.089	0.025
-264.253	-200.000	-0.048	-0.331
-263.238	-65.423	0.180	-0.072
-262.224	-168.323	0.054	-0.002
-261.209	-200.000	-0.008	-0.121
-260.195	-21.829	0.230	-0.138
-259.180	-200.000	-0.010	0.248
-258.165	-142.412	0.145	-0.014
-257.151	-76.672	-0.147	-0.051
-256.136	-200.000	-0.009	-0.087
-255.122	317.517	-0.100	-0.187
-254.107	92.125	-0.163	-0.181
-253.092	158.681	0.097	-0.134
-252.078	-200.000	-0.015	0.130
-251.063	800.000	0.177	0.605
-250.049	135.055	0.075	0.096
-249.034	800.000	0.034	0.098
-248.019	714.964	-0.117	-0.307
-247.005	-162.945	-0.135	0.006
-245.990	394.150	-0.091	0.186
-244.976	-35.034	-0.158	0.085
-243.961	-102.350	-0.229	0.054
-242.946	28.662	-0.117	0.098
-241.932	66.384	-0.120	-0.120
-240.917	324.598	0.114	-0.215
-239.903	-121.301	-0.354	-0.058
-238.888	-135.542	0.296	0.035
-237.873	179.206	-0.173	0.250
-236.859	800.000	0.022	0.093
-235.844	58.736	0.102	-0.099
-234.830	7.707	0.155	-0.114
-233.815	-83.671	-0.212	-0.067
-232.800	-125.286	-0.157	0.024
-231.786	-158.835	0.222	0.012
-230.771	-200.000	-0.013	-0.234
-229.757	-24.531	-0.379	0.222
-228.742	-109.889	0.335	-0.069
-227.727	-200.000	0.010	0.223
-226.713	-200.000	-0.013	0.122
-225.698	-200.000	-0.002	-0.127
-224.684	188.791	0.045	0.066
-223.669	328.434	0.052	-0.098
-222.655	-200.000	-0.025	-0.218
-221.640	155.331	-0.096	-0.131
-220.625	-10.353	-0.095	0.062
-219.611	-56.204	0.129	-0.056
-218.596	324.928	-0.072	0.135
-217.582	-34.793	0.187	-0.101
-216.567	31.143	0.123	0.104
-215.552	-116.882	0.079	-0.014
-214.538	-200.000	-0.001	-0.358
-213.523	800.000	0.060	-0.187
-212.509	-27.644	-0.388	-0.222
-211.494	-142.740	0.103	-0.010
-210.479	606.106	-0.127	0.312
-209.465	388.622	0.099	-0.202
-208.450	106.646	-0.172	0.201
-207.436	207.757	0.180	-0.276
-206.421	244.364	-0.137	0.227
-205.406	474.891	0.076	0.168
-204.392	-132.445	0.179	-0.023
-203.377	-124.836	-0.234	0.036
-202.363	513.634	-0.057	-0.130
-201.348	-38.121	0.161	0.084
-200.333	27.400	-0.086	-0.071
-199.319	-200.000	0.029	0.397
-198.304	134.491	0.080	-0.102
-197.290	800.000	0.045	-0.166
-196.275	-18.028	-0.136	0.084
-195.260	-101.475	0.177	-0.043
-194.246	23.789	0.127	-0.103
-193.231	421.115	-0.139	-0.293
-192.217	-119.461	-0.236	0.040
-191.202	753.409	0.062	-0.165
-190.187	0.507	0.561	0.395
-189.173	-117.883	-0.098	0.017
-188.158	-200.000	-0.003	0.141
-187.144	-85.873	0.137	0.042
-186.129	34.621	0.195	-0.168
-185.114	-112.806	-0.172	0.034
-184.100	-80.533	-0.329	0.108
-183.085	-200.000	0.029	-0.192
-182.071	-200.000	-0.013	0.190
-181.056	315.183	0.047	0.087
-180.042	309.054	0.058	-0.107
-179.027	566.189	-0.121	0.289
-178.012	37.474	-0.090	-0.079
-176.998	-95.818	-0.339	0.089
-175.983	-9.837	-0.294	-0.193
-174.969	-0.624	-0.351	-0.245
-173.954	800.000	0.008	0.028
-172.939	-6.083	0.229	-0.154
-171.925	191.032	-0.147	0.218
-170.910	165.631	0.107	-0.149
-169.896	800.000	-0.005	0.021
-168.881	362.220	0.146	0.288
-167.866	67.744	-0.044	-0.045
-166.852	32.819	0.164	-0.140
-165.837	112.371	0.052	0.062
-164.823	156.634	0.106	0.144
-163.808	-186.787	0.197	-0.003
-162.793	-36.565	0.201	0.106
-161.779	193.238	0.119	0.177
-160.764	800.000	-0.163	-0.448
-159.750	2.731	0.210	-0.150
-158.735	-87.246	-0.252	0.075
-157.720	-8.640	0.201	-0.132
-156.706	50.594	0.165	-0.154
-155.691	129.526	0.109	0.137
-154.677	34.379	0.215	-0.185
-153.662	34.973	0.101	-0.087
-152.647	800.000	0.071	-0.246
-151.633	56.413	0.047	0.045
-150.618	-200.000	-0.002	-0.157
-149.604	-200.000	-0.003	-0.087
-148.589	108.165	0.007	-0.008
-147.574	712.828	-0.033	0.087
-146.560	-96.458	-0.105	-0.027
-145.545	-40.974	-0.227	0.115
-144.531	135.310	0.086	0.111
-143.516	800.000	0.076	0.208
-142.502	-200.000	-0.025	0.216
-141.487	-85.054	-0.447	-0.138
-140.472	73.852	-0.081	0.083
-139.458	-93.576	-0.094	0.025
-138.443	188.196	-0.110	-0.162
-137.429	800.000	0.044	-0.174
-136.414	-63.059	0.365	-0.148
-135.399	467.491	-0.108	-0.237
-134.385	25.429	0.180	-0.147
-133.370	117.447	-0.154	-0.186
-132.356	-200.000	-0.010	-0.235
-131.341	-71.098	0.431	0.159
-130.326	-118.876	-0.187	-0.032
-129.312	483.536	0.062	0.139
-128.297	-200.000	-0.012	0.234
-127.283	-47.728	0.293	-0.140
-126.268	800.000	0.055	-0.227
-125.253	-200.000	0.028	0.165
-124.239	164.922	0.169	-0.234
-123.224	68.002	0.189	-0.190
-122.210	7.965	-0.176	0.130
-121.195	-144.508	0.242	0.022
-120.180	-10.355	0.261	0.170
-119.166	-102.950	-0.212	0.049
-118.151	-102.336	0.019	-0.005
-117.137	93.958	-0.032	-0.036
-116.122	800.000	0.061	-0.247
-115.107	-200.000	-0.016	-0.091
-114.093	16.150	0.056	0.043
-113.078	63.809	-0.033	0.033
-112.064	90.630	-0.204	-0.224
-111.049	-186.902	0.330	-0.005
-110.034	800.000	0.088	0.272
-109.020	30.986	0.255	0.215
-108.005	330.381	0.145	0.274
-106.991	800.000	-0.069	-0.267
-105.976	-7.469	0.096	0.064
-104.962	22.830	0.205	0.165
-103.947	-54.743	-0.056	-0.025
-102.932	2.634	0.168	-0.120
-101.918	150.652	0.179	0.238
-100.903	-50.881	-0.063	-0.029
-99.889	140.443	0.108	-0.140
-98.874	-22.474	-0.194	-0.115
-97.859	604.227	-0.145	0.355
-96.845	-134.708	0.050	0.006
-95.830	-138.026	-0.429	0.047
-94.816	800.000	-0.076	0.239
-93.801	-141.619	-0.084	0.008
-92.786	32.883	-0.060	0.051
-91.772	29.206	-0.051	0.042
-90.757	-130.341	-0.291	0.039
-89.743	-10.035	0.124	-0.081
-88.728	-173.218	0.087	0.003
-87.713	800.000	-0.089	0.373
-86.699	800.000	0.119	0.411
-85.684	-152.019	0.398	-0.028
-84.670	-52.366	0.102	0.047
-83.655	-200.000	0.060	-0.468
-82.640	165.124	0.174	-0.241
-81.626	-2.580	0.250	0.172
-80.611	32.013	0.298	-0.252
-79.597	243.054	0.175	0.287
-78.582	-193.449	0.425	-0.004
-77.567	-154.041	0.181	0.012
-76.553	129.751	0.073	0.092
-75.538	-19.442	0.177	-0.107
-74.524	800.000	-0.054	0.176
-73.509	800.000	-0.110	0.337
-72.494	331.249	0.082	0.155
-71.480	325.969	-0.207	-0.389
-70.465	-112.477	-0.194	0.038
-69.451	800.000	-0.054	-0.171
-68.436	-161.268	0.220	0.011
-67.422	800.000	0.085	0.231
-66.407	-61.025	0.293	-0.122
-65.392	58.655	-0.196	0.189
-64.378	295.658	0.195	0.351
-63.363	800.000	-0.043	0.156
-62.349	478.811	-0.070	0.156
-61.334	68.377	-0.986	-0.990
-60.319	35.427	0.694	0.597
-59.305	301.661	-0.470	-0.851
-58.290	428.605	0.557	1.179
-57.276	560.553	0.520	1.231
-56.261	-200.000	104.926	616.256
-55.246	517.810	1490.078	3416.963
-54.232	177.811	2691.360	3845.617
-53.217	106.494	2289.100	2659.939
-52.203	39.158	1896.983	1662.888
-51.188	33.116	1684.733	1431.200
-50.173	30.553	1641.227	1375.247
-49.159	49.270	1694.520	1561.120
-48.144	50.025	1709.899	1580.900
-47.130	32.812	1667.647	1414.183
-46.115	30.093	1653.440	1381.838
-45.100	30.049	1647.998	1376.905
-44.086	29.869	1645.421	1373.360
-43.071	29.769	1643.454	1370.925
-42.057	29.874	1640.395	1369.092
-41.042	29.871	1639.064	1367.911
-40.027	29.992	1636.707	1366.781
-39.013	29.907	1634.838	1364.538
-37.998	29.856	1632.998	1362.575
-36.984	29.948	1631.867	1362.251
-35.969	30.027	1630.673	1361.782
-34.954	30.072	1628.514	1360.253
-33.940	30.008	1627.029	1358.493
-32.925	30.000	1625.636	1357.219
-31.911	29.928	1624.190	1355.426
-30.896	29.966	1621.619	1353.508
-29.881	29.977	1620.249	1352.388
-28.867	29.937	1618.688	1350.739
-27.852	29.971	1617.596	1350.024
-26.838	29.882	1616.207	1348.165
-25.823	29.972	1614.590	1347.416
-24.809	29.985	1613.440	1346.500
-23.794	29.985	1612.193	1345.403
-22.779	30.072	1610.151	1344.279
-21.765	29.935	1608.648	1341.973
-20.750	29.962	1606.675	1340.468
-19.736	29.920	1605.893	1339.461
-18.721	30.039	1604.226	1338.881
-17.706	29.939	1603.053	1337.123
-16.692	30.001	1601.173	1335.953
-15.677	30.067	1599.615	1335.072
-14.663	30.015	1598.712	1333.895
-13.648	30.074	1597.030	1332.858
-12.633	30.074	1595.199	1331.281
-11.619	30.014	1593.971	1329.774
-10.604	30.025	1592.791	1328.813
-9.590	29.997	1591.270	1327.291
-8.575	30.096	1589.658	1326.604
-7.560	30.109	1588.940	1326.041
-6.546	30.011	1587.678	1324.234
-5.531	29.940	1587.217	1323.290
-4.517	29.975	1585.804	1322.314
-3.502	30.048	1584.676	1321.838
-2.487	30.142	1583.035	1321.086
-1.473	29.725	1571.664	1308.596
-0.458	26.745	1551.772	1271.118
0.556	20.894	1552.443	1238.950
1.571	18.635	1576.989	1242.087
2.586	18.307	1590.501	1250.224
3.600	16.514	1538.153	1196.299
4.615	8.836	1429.395	1060.950
5.629	1.368	1365.563	966.107
6.644	-0.277	1358.295	950.469
7.659	-0.252	1356.530	949.309
8.673	-0.286	1355.327	948.167
9.688	-0.355	1352.990	946.012
10.702	-0.578	1350.163	942.549
11.717	2.532	1356.176	966.305
12.731	11.518	1373.227	1035.567
13.746	18.893	1385.959	1092.111
14.761	20.737	1387.902	1105.262
15.775	20.920	1388.071	1106.461
16.790	21.003	1387.584	1106.501
17.804	21.094	1386.629	1106.221
18.819	21.324	1386.265	1107.289
19.834	21.305	1386.070	1106.915
20.848	21.374	1385.204	1106.564
21.863	21.438	1384.230	1106.090
22.877	21.360	1383.675	1105.060
23.892	21.346	1382.739	1104.122
24.907	21.374	1382.069	1103.665
25.921	21.455	1380.655	1102.950
26.936	21.433	1380.170	1102.327
27.950	21.367	1378.580	1100.544
28.965	21.402	1377.432	1099.753
29.980	21.363	1376.427	1098.603
30.994	21.375	1375.274	1097.663
32.009	21.351	1374.036	1096.425
33.023	21.317	1372.920	1095.229
34.038	21.432	1371.677	1094.863
35.053	21.330	1371.244	1093.780
36.067	21.310	1369.843	1092.441
37.082	21.296	1369.190	1091.734
38.096	21.322	1367.950	1090.814
39.111	21.300	1367.461	1090.190
40.126	21.369	1366.609	1089.842
41.140	21.331	1366.266	1089.237
42.155	21.395	1365.563	1088.979
43.169	21.335	1365.807	1088.704
44.184	21.398	1365.502	1088.752
45.199	21.284	1365.303	1087.793
46.213	21.294	1364.762	1087.323
47.228	21.271	1363.532	1086.104
48.242	21.433	1361.690	1085.549
49.257	21.348	1360.917	1084.308
50.271	21.454	1358.915	1083.273
51.286	21.305	1357.778	1081.350
52.301	21.423	1356.998	1081.362
53.315	21.339	1356.050	1079.989
54.330	21.419	1354.561	1079.202
55.344	21.267	1354.062	1077.772
56.359	21.275	1353.270	1077.096
57.374	21.356	1351.863	1076.378
58.388	21.312	1351.745	1075.924
59.403	21.385	1350.875	1075.581
60.417	21.482	1349.847	1075.264
61.432	21.290	1349.539	1073.744
62.447	21.428	1348.497	1073.669
63.461	21.419	1347.453	1072.687
64.476	21.361	1346.583	1071.543
65.490	21.357	1345.635	1070.669
66.505	21.336	1344.164	1069.276
67.520	21.371	1342.510	1068.081
68.534	21.345	1341.440	1066.978
69.549	21.369	1340.460	1066.247
70.563	21.464	1339.406	1065.895
71.578	21.466	1338.474	1065.068
72.593	21.332	1338.071	1063.836
73.607	21.363	1337.281	1063.303
74.622	21.435	1336.557	1063.076
75.636	21.480	1335.471	1062.389
76.651	21.438	1334.422	1061.205
77.666	21.399	1334.770	1061.153
78.680	21.410	1334.001	1060.511
79.695	21.353	1333.277	1059.496
80.709	21.456	1332.007	1059.019
81.724	21.518	1331.043	1058.532
82.739	21.374	1330.676	1057.276
83.753	21.353	1329.772	1056.340
84.768	21.434	1328.315	1055.577
85.782	21.453	1327.540	1054.983
86.797	21.387	1326.419	1053.599
87.812	21.423	1324.831	1052.460
88.826	21.516	1323.588	1051.944
89.841	21.436	1323.057	1050.948
90.855	21.550	1321.574	1050.356
91.870	21.490	1320.759	1049.260
92.884	21.467	1320.472	1048.801
93.899	21.541	1319.352	1048.258
94.914	21.528	1318.494	1047.409
95.928	21.492	1317.901	1046.627
96.943	21.502	1317.236	1046.069
97.957	21.580	1316.257	1045.665
98.972	21.475	1315.529	1044.363
99.987	21.479	1314.430	1043.426
101.001	21.475	1313.514	1042.582
102.016	21.460	1312.550	1041.637
103.030	21.503	1311.311	1040.815
104.045	21.468	1310.919	1040.206
105.060	21.610	1309.140	1039.546
106.074	21.475	1308.865	1038.433
107.089	21.496	1307.908	1037.705
108.103	21.428	1307.023	1036.511
109.118	21.510	1305.433	1035.642
110.133	21.506	1304.430	1034.730
111.147	21.553	1303.369	1034.075
112.162	21.545	1302.093	1032.923
113.176	21.596	1300.910	1032.194
114.191	21.524	1300.131	1031.062
115.206	21.576	1298.903	1030.301
116.220	21.489	1298.133	1029.091
117.235	21.515	1297.085	1028.318
118.249	21.525	1296.470	1027.796
119.264	21.600	1294.988	1026.971
120.279	21.616	1294.037	1026.220
121.293	21.633	1293.514	1025.814
122.308	21.683	1292.462	1025.181
123.322	21.590	1291.702	1023.946
124.337	21.605	1291.061	1023.438
125.352	21.593	1289.546	1022.074
126.366	21.649	1289.066	1021.929
127.381	21.711	1287.725	1021.137
128.395	21.650	1286.674	1019.860
129.410	21.621	1285.507	1018.675
130.424	21.595	1285.351	1018.311
131.439	21.647	1284.540	1017.877
132.454	21.529	1284.005	1016.680
133.468	21.624	1282.787	1016.178
134.483	21.571	1282.413	1015.485
135.497	21.599	1281.236	1014.625
136.512	21.590	1280.150	1013.623
137.527	21.493	1279.347	1012.332
138.541	21.583	1277.531	1011.326
139.556	21.600	1276.196	1010.278
140.570	21.633	1275.313	1009.683
141.585	21.534	1274.693	1008.534
142.600	21.550	1273.499	1007.589
143.614	21.585	1272.551	1006.951
144.629	21.532	1271.691	1005.878
145.643	21.484	1270.606	1004.655
146.658	21.420	1269.766	1003.536
147.673	21.488	1268.907	1003.159
148.687	21.550	1267.732	1002.494
149.702	21.390	1266.603	1000.594
150.716	21.578	1265.145	1000.434
151.731	21.629	1264.416	1000.055
152.746	21.582	1263.347	998.853
153.760	21.639	1262.341	998.296
154.775	21.618	1261.251	997.228
155.789	21.720	1260.159	996.856
156.804	21.622	1259.663	995.815
157.819	21.698	1258.405	995.164
158.833	21.647	1258.162	994.596
159.848	21.663	1257.522	994.093
160.862	21.686	1256.364	993.219
161.877	21.763	1255.207	992.656
162.892	21.734	1254.311	991.695
163.906	21.701	1254.043	991.207
164.921	21.682	1253.118	990.280
165.935	21.726	1252.624	990.052
166.950	21.765	1251.772	989.513
167.964	21.764	1251.238	988.997
168.979	21.697	1251.170	988.476
169.994	21.660	1250.544	987.684
171.008	21.727	1249.345	987.031
172.023	21.770	1248.512	986.523
173.037	21.728	1247.725	985.581
174.052	21.779	1246.746	985.008
175.067	21.755	1245.857	984.084
176.081	21.756	1245.426	983.657
177.096	21.756	1244.648	982.960
178.110	21.857	1243.738	982.720
179.125	21.768	1242.384	981.064
180.140	21.811	1241.652	980.641
181.154	21.659	1240.771	979.009
182.169	21.805	1239.091	978.409
183.183	21.707	1238.458	977.278
184.198	21.700	1237.574	976.451
185.213	21.808	1236.363	976.015
186.227	21.902	1235.162	975.503
187.242	21.814	1234.644	974.514
188.256	21.821	1233.704	973.728
189.271	21.754	1232.992	972.708
190.286	21.854	1232.148	972.507
191.300	21.877	1231.772	972.253
192.315	21.924	1231.299	972.056
193.329	21.881	1230.897	971.412
194.344	21.732	1230.765	970.398
195.359	21.913	1229.626	970.414
196.373	21.829	1229.462	969.735
197.388	21.875	1228.467	969.119
198.402	21.812	1228.488	968.704
199.417	21.733	1228.076	967.859
200.432	21.905	1227.129	967.971
201.446	21.820	1226.880	967.222
202.461	21.826	1225.652	966.200
203.475	21.855	1224.824	965.622
204.490	21.803	1223.857	964.488
205.504	21.824	1223.135	963.951
206.519	21.863	1222.284	963.406
207.534	21.997	1220.947	963.003
208.548	21.964	1220.046	962.027
209.563	21.912	1219.374	961.129
210.577	22.026	1218.453	960.943
211.592	21.932	1218.008	959.989
212.607	21.990	1216.731	959.216
213.621	22.028	1216.192	958.914
214.636	21.933	1215.687	957.911
215.650	22.005	1214.556	957.328
216.665	21.928	1213.717	956.165
217.680	21.956	1213.210	955.835
218.694	21.860	1212.416	954.597
219.709	21.978	1211.380	954.342
220.723	22.066	1210.396	953.957
221.738	21.968	1210.197	953.186
222.753	21.956	1209.600	952.567
223.767	21.895	1208.905	951.603
224.782	22.015	1208.311	951.701
225.796	21.988	1207.690	950.985
226.811	22.163	1207.188	951.453
227.826	22.030	1207.063	950.546
228.840	21.961	1206.309	949.496
229.855	22.055	1204.947	948.849
230.869	21.950	1204.556	947.891
231.884	22.085	1203.711	947.868
232.899	22.049	1202.993	947.027
233.913	21.998	1202.770	946.491
234.928	22.212	1201.824	946.819
235.942	22.094	1201.555	945.887
236.957	22.057	1200.810	945.015
237.972	22.035	1199.934	944.126
238.986	22.125	1199.240	943.978
240.001	22.246	1199.292	944.586
241.015	22.160	1198.174	943.161
242.030	22.259	1196.775	942.508
243.045	22.156	1196.516	941.665
244.059	22.154	1195.985	941.156
245.074	22.226	1195.092	940.756
246.088	22.197	1194.557	940.096
247.103	22.283	1193.336	939.508
248.117	22.240	1192.626	938.639
249.132	22.215	1191.661	937.663
250.147	22.048	1191.523	936.583
251.161	22.191	1190.493	936.448
252.176	22.404	1189.498	936.716
253.190	22.282	1189.501	935.986
254.205	22.262	1188.556	935.055
255.220	22.172	1188.152	934.176
256.234	22.236	1187.648	934.038
257.249	22.244	1187.030	933.511
258.263	22.331	1185.985	933.067
259.278	22.349	1185.621	932.793
260.293	22.350	1185.072	932.284
261.307	22.386	1184.827	932.199
262.322	22.395	1184.023	931.531
263.336	22.301	1183.178	930.291
264.351	22.303	1182.825	929.941
265.366	22.441	1181.876	929.842
266.380	22.374	1181.515	929.121
267.395	22.251	1181.004	927.985
268.409	22.384	1180.151	927.937
269.424	22.372	1179.571	927.335
270.439	22.408	1179.115	927.082
271.453	22.469	1178.429	926.782
272.468	22.332	1177.642	925.363
273.482	22.370	1176.799	924.818
274.497	22.414	1176.263	924.545
275.512	22.351	1175.981	923.912
276.526	22.394	1175.350	923.559
277.541	22.379	1174.467	922.703
278.555	22.356	1174.022	922.152
279.570	22.399	1173.368	921.782
280.585	22.484	1172.354	921.348
281.599	22.480	1171.536	920.605
282.614	22.445	1170.581	919.591
283.628	22.415	1169.944	918.849
284.643	22.545	1168.810	918.556
285.657	22.488	1168.147	917.657
286.672	22.519	1167.400	917.150
287.687	22.637	1166.608	917.063
288.701	22.552	1165.996	916.058
289.716	22.566	1165.133	915.369
290.730	22.684	1164.458	915.375
291.745	22.573	1164.023	914.373
292.760	22.555	1163.479	913.774
293.774	22.570	1163.328	913.651
294.789	22.667	1162.122	913.123
295.803	22.605	1161.348	912.116
296.818	22.625	1160.532	911.499
297.833	22.743	1160.353	911.885
298.847	22.721	1159.561	911.070
299.862	22.636	1159.047	910.148
300.876	22.647	1158.207	909.461
301.891	22.666	1157.666	909.055
302.906	22.790	1156.860	908.982
303.920	22.810	1156.246	908.518
304.935	22.796	1155.643	907.896
305.949	22.739	1155.173	907.153
306.964	22.777	1154.422	906.674
307.979	22.769	1153.925	906.164
308.993	22.799	1153.088	905.583
310.008	22.870	1152.214	905.180
311.022	22.852	1151.274	904.269
312.037	22.763	1150.980	903.500
313.052	22.745	1150.079	902.623
314.066	22.780	1149.391	902.181
315.081	22.648	1148.779	900.946
316.095	22.707	1147.965	900.530
317.110	22.888	1147.385	900.917
318.125	22.835	1146.715	900.040
319.139	22.832	1145.995	899.380
320.154	22.893	1145.369	899.120
321.168	22.970	1144.680	898.894
322.183	22.764	1144.338	897.498
323.197	22.902	1143.661	897.589
324.212	22.990	1142.296	896.885
325.227	23.018	1142.289	896.943
326.241	23.091	1141.759	896.814
327.256	22.895	1141.509	895.547
328.270	22.888	1140.360	894.533
329.285	22.979	1139.470	894.213
330.300	22.881	1139.058	893.314
331.314	22.884	1138.281	892.645
332.329	22.865	1137.576	891.915
333.343	22.915	1136.696	891.401
334.358	23.120	1135.604	891.498
335.373	23.109	1134.856	890.775
336.387	23.065	1134.239	889.989
337.402	23.071	1133.569	889.415
338.416	23.091	1133.181	889.131
339.431	23.020	1132.558	888.207
340.446	23.078	1131.623	887.688
341.460	23.145	1131.029	887.479
342.475	23.138	1130.387	886.864
343.489	23.022	1129.388	885.419
344.504	23.124	1128.306	885.003
345.519	23.135	1127.435	884.297
346.533	23.149	1126.805	883.796
347.548	23.167	1126.377	883.467
348.562	23.236	1125.738	883.237
349.577	23.273	1124.711	882.537
350.592	23.053	1124.317	881.053
351.606	23.013	1123.933	880.472
352.621	23.199	1123.126	880.688
353.635	23.225	1122.252	880.056
354.650	23.338	1121.799	880.183
355.665	23.277	1120.861	879.068
356.679	23.219	1120.401	878.340
357.694	23.182	1120.106	877.847
358.708	23.245	1119.564	877.656
359.723	23.211	1118.625	876.677
360.738	23.192	1117.846	875.894
361.752	23.189	1117.756	875.731
362.767	23.230	1117.124	875.359
363.781	23.390	1116.264	875.401
364.796	23.404	1115.680	874.934
365.810	23.307	1115.273	874.060
366.825	23.293	1114.662	873.435
367.840	23.534	1113.876	873.928
368.854	23.539	1113.198	873.343
369.869	23.544	1112.238	872.535
370.883	23.502	1111.331	871.543
371.898	23.525	1110.799	871.163
372.913	23.438	1110.743	870.610
373.927	23.393	1110.578	870.183
374.942	23.521	1109.475	869.872
375.956	23.546	1109.218	869.715
376.971	23.560	1108.428	869.087
377.986	23.443	1108.163	868.232
379.000	23.518	1107.793	868.230
380.015	23.610	1106.932	867.927
381.029	23.589	1106.294	867.247
382.044	23.548	1105.643	866.461
383.059	23.574	1104.808	865.857
384.073	23.581	1104.002	865.186
385.088	23.658	1103.146	864.810
386.102	23.623	1102.677	864.199
387.117	23.570	1101.585	863.007
388.132	23.590	1100.694	862.331
389.146	23.668	1100.183	862.232
390.161	23.682	1099.369	861.585
391.175	23.579	1098.858	860.610
392.190	23.665	1098.165	860.409
393.205	23.665	1097.426	859.754
394.219	23.603	1097.187	859.190
395.234	23.715	1096.121	858.819
396.248	23.662	1094.925	857.550
397.263	23.814	1094.133	857.587
398.278	23.776	1093.645	856.944
399.292	23.744	1093.204	856.372
400.307	23.846	1092.502	856.234
401.321	23.731	1091.912	855.144
402.336	23.765	1091.087	854.585
403.350	23.718	1090.812	854.067
404.365	23.869	1089.749	853.886
405.380	23.772	1089.633	853.253
406.394	23.754	1088.809	852.447
407.409	23.858	1087.555	851.886
408.423	23.964	1086.869	851.785
409.438	23.878	1086.573	851.063
410.453	23.961	1085.411	850.475
411.467	23.952	1084.661	849.769
412.482	23.951	1083.926	849.112
413.496	23.980	1083.314	848.698
414.511	23.971	1082.790	848.170
415.526	24.041	1082.401	848.124
416.540	23.990	1082.023	847.509
417.555	23.899	1081.675	846.730
418.569	24.000	1081.206	846.765
419.584	24.062	1080.518	846.449
420.599	23.995	1080.358	845.931
421.613	149.224	1400.398	1798.903
422.628	137.817	1447.011	1798.988
