DTS Sentinel unit serial number:	SN413079Multiplexer serial number:	ORYXHardware model number:	OX4-SRSoftware version number:	ORYX F/W v4.00 Oryx Data Collector v3.7.2.0data status	okinstallation	princeton_trtdifferential loss correction	single-endedforward channel	channel 2reverse channel	N/Adate	2019/09/12time	04:01:11forward acquisition time	60.00reverse acquisition time	0.00gamma	496.2192k internal	0.2326k external	0.2326temperature offset calibration	1.0097default loss term (dB/km)	0.3790temperature slope calibration	1.0000multiplexer offset coefficient	1.0000multiplexer slope coefficient	1.0000fibre end	0.00T internal ref (°C)	32.06T ext. ref 1 (°C)	2.18T ext. ref 2 (°C)	26.06length (m)	temperature (°C)	Stokes	anti-Stokes-747.200	204.077	0.149	-0.232
-746.185	-38.570	-0.428	0.228
-745.171	-77.280	-0.385	-0.135
-744.156	-200.000	0.082	0.368
-743.142	-200.000	0.048	-0.351
-742.127	334.907	-0.112	0.219
-741.112	-200.000	0.055	-0.246
-740.098	760.899	-0.070	0.190
-739.083	-164.551	0.092	0.004
-738.069	-87.591	0.438	0.133
-737.054	114.069	-0.228	-0.280
-736.039	84.455	-0.287	-0.317
-735.025	734.976	0.100	0.270
-734.010	-16.989	0.128	-0.081
-732.996	-135.186	0.348	-0.042
-731.981	800.000	-0.032	0.138
-730.966	-112.408	-0.554	0.112
-729.952	88.330	-0.138	-0.155
-728.937	-138.763	-0.351	0.039
-727.923	172.568	-0.196	-0.284
-726.908	-123.293	0.047	-0.008
-725.894	227.466	-0.222	-0.363
-724.879	-150.581	-0.240	-0.018
-723.864	-124.771	0.403	0.063
-722.850	132.988	0.112	-0.146
-721.835	-200.000	-0.002	-0.417
-720.821	-46.021	-0.415	-0.206
-719.806	-200.000	-0.057	-0.256
-718.791	-64.401	0.144	-0.059
-717.777	800.000	-0.042	-0.131
-716.762	-81.972	0.216	-0.071
-715.748	-69.862	0.326	0.125
-714.733	-71.289	-0.255	-0.096
-713.718	60.958	0.214	-0.213
-712.704	328.015	-0.012	-0.024
-711.689	174.451	0.102	0.149
-710.675	187.574	0.048	-0.073
-709.660	348.768	0.059	-0.117
-708.645	-200.000	-0.071	-0.373
-707.631	-200.000	0.013	-0.561
-706.616	-200.000	-0.004	-0.127
-705.602	29.156	-0.067	0.057
-704.587	617.314	0.102	-0.257
-703.572	50.770	0.278	0.265
-702.558	-125.861	-0.089	0.014
-701.543	-120.204	0.079	0.014
-700.529	-141.698	-0.208	-0.021
-699.514	-200.000	0.124	0.614
-698.499	-37.199	-0.180	-0.097
-697.485	-156.109	-0.307	-0.020
-696.470	-200.000	0.025	-0.235
-695.456	-42.414	-0.264	-0.136
-694.441	-78.763	-0.315	-0.108
-693.426	-107.356	-0.215	-0.048
-692.412	299.712	0.167	0.309
-691.397	-200.000	-0.001	-0.107
-690.383	-54.509	0.120	0.055
-689.368	-200.000	-0.011	0.137
-688.354	100.574	0.190	0.222
-687.339	305.935	-0.163	0.305
-686.324	-119.701	-0.280	-0.049
-685.310	-200.000	0.005	-0.087
-684.295	-200.000	0.040	-0.234
-683.281	-175.040	0.213	0.006
-682.266	800.000	-0.102	-0.290
-681.251	-36.224	-0.130	-0.070
-680.237	-101.533	0.338	-0.083
-679.222	-133.467	-0.121	-0.015
-678.208	-47.635	-0.147	-0.072
-677.193	-45.308	-0.316	0.158
-676.178	649.997	-0.062	-0.159
-675.164	-200.000	0.014	-0.418
-674.149	386.489	-0.060	0.125
-673.135	-55.208	0.202	0.091
-672.120	-91.547	-0.307	-0.088
-671.105	-15.489	-0.338	-0.217
-670.091	-139.949	0.527	-0.056
-669.076	-123.317	-0.294	0.047
-668.062	-111.221	-0.202	-0.041
-667.047	30.344	-0.083	-0.071
-666.032	-127.844	-0.233	-0.034
-665.018	800.000	-0.115	-0.427
-664.003	64.039	-0.106	-0.107
-662.989	-124.474	0.585	-0.092
-661.974	800.000	0.050	-0.160
-660.959	800.000	0.097	-0.312
-659.945	612.073	0.078	-0.196
-658.930	601.457	-0.067	0.167
-657.916	-22.605	0.203	-0.123
-656.901	-29.395	-0.075	-0.043
-655.886	-151.812	0.337	0.025
-654.872	-200.000	-0.041	0.340
-653.857	412.052	0.150	-0.320
-652.843	-200.000	-0.030	-0.208
-651.828	17.030	0.412	0.328
-650.814	-114.973	-0.118	0.023
-649.799	-200.000	0.005	0.172
-648.784	740.176	0.066	-0.178
-647.770	800.000	-0.052	-0.180
-646.755	65.941	-0.182	-0.185
-645.741	6.737	0.136	-0.101
-644.726	86.040	-0.204	-0.225
-643.711	-67.231	0.063	-0.025
-642.697	800.000	0.046	-0.196
-641.682	336.691	0.101	0.197
-640.668	31.028	0.277	-0.239
-639.653	444.958	0.037	0.081
-638.638	453.214	0.035	0.078
-637.624	-58.078	-0.098	0.043
-636.609	184.527	0.105	-0.156
-635.595	-164.056	0.059	0.003
-634.580	-35.005	0.143	-0.078
-633.565	-13.850	-0.230	-0.149
-632.551	800.000	0.128	0.365
-631.536	800.000	-0.074	0.317
-630.522	-10.369	-0.129	0.086
-629.507	-80.883	0.054	0.018
-628.492	-61.841	0.234	-0.098
-627.478	-115.581	0.427	-0.081
-626.463	42.740	0.283	0.258
-625.449	800.000	0.094	-0.262
-624.434	-104.754	0.032	-0.007
-623.419	138.592	-0.200	0.263
-622.405	22.936	0.316	-0.260
-621.390	800.000	-0.064	-0.240
-620.376	-118.702	0.206	0.037
-619.361	-143.859	-0.207	0.020
-618.346	374.652	-0.168	0.344
-617.332	-200.000	0.046	-0.247
-616.317	303.786	-0.145	-0.270
-615.303	-150.761	-0.049	0.004
-614.288	-86.589	0.176	0.054
-613.273	376.300	-0.233	0.478
-612.259	-200.000	0.017	0.136
-611.244	195.677	-0.134	0.204
-610.230	131.366	0.270	0.348
-609.215	-200.000	-0.041	0.259
-608.201	25.573	-0.126	-0.106
-607.186	800.000	-0.120	0.395
-606.171	-200.000	0.005	0.433
-605.157	520.591	0.166	-0.390
-604.142	-20.872	-0.239	-0.147
-603.128	-134.676	0.028	0.003
-602.113	85.694	-0.080	-0.088
-601.098	-173.014	-0.339	-0.010
-600.084	-60.769	0.149	0.063
-599.069	-121.334	0.206	0.034
-598.055	-200.000	0.017	-0.140
-597.040	-200.000	0.010	-0.315
-596.025	-34.210	-0.307	-0.169
-595.011	-35.218	0.275	-0.150
-593.996	800.000	0.131	-0.471
-592.982	100.002	-0.067	-0.078
-591.967	7.485	0.114	-0.086
-590.952	-122.661	0.305	0.050
-589.938	85.924	-0.108	0.119
-588.923	-120.372	-0.200	-0.034
-587.909	-200.000	-0.031	0.155
-586.894	24.623	0.122	0.101
-585.879	685.908	-0.093	0.243
-584.865	-35.229	0.084	0.046
-583.850	-200.000	-0.032	0.208
-582.836	800.000	0.058	0.196
-581.821	63.849	0.111	-0.112
-580.806	-178.902	-0.290	0.007
-579.792	-33.328	0.249	-0.138
-578.777	496.357	0.127	0.293
-577.763	313.790	-0.072	0.136
-576.748	-72.375	-0.280	-0.104
-575.733	-33.702	-0.369	0.204
-574.719	800.000	0.023	0.074
-573.704	-4.769	0.076	-0.053
-572.690	33.105	-0.334	-0.290
-571.675	-184.226	-0.159	-0.003
-570.661	800.000	0.043	-0.178
-569.646	132.618	0.093	-0.120
-568.631	-37.260	0.224	0.120
-567.617	-172.691	-0.233	0.007
-566.602	70.864	-0.339	-0.352
-565.588	-128.993	0.084	0.012
-564.573	-97.096	-0.338	0.089
-563.558	800.000	0.024	-0.092
-562.544	72.656	-0.195	-0.204
-561.529	-83.726	-0.086	0.027
-560.515	161.672	-0.236	-0.331
-559.500	-100.428	0.214	-0.053
-558.485	-40.567	-0.234	-0.122
-557.471	793.055	-0.123	-0.338
-556.456	-200.000	-0.029	-0.239
-555.442	232.943	-0.029	-0.048
-554.427	-47.932	0.296	-0.143
-553.412	-200.000	-0.070	-0.313
-552.398	-200.000	-0.020	0.263
-551.383	162.688	0.049	-0.069
-550.369	-35.547	-0.166	0.090
-549.354	84.420	0.123	-0.134
-548.339	-43.689	-0.311	-0.157
-547.325	131.398	-0.112	-0.144
-546.310	800.000	-0.041	0.178
-545.296	166.668	-0.148	-0.211
-544.281	407.874	-0.039	-0.082
-543.266	800.000	0.082	-0.247
-542.252	-45.533	-0.106	-0.053
-541.237	18.133	0.060	-0.048
-540.223	285.395	0.118	-0.214
-539.208	462.374	-0.074	-0.164
-538.193	-200.000	0.006	0.054
-537.179	800.000	0.149	0.453
-536.164	-90.501	0.073	-0.021
-535.150	-83.325	-0.097	-0.031
-534.135	58.034	-0.254	-0.249
-533.121	-115.188	0.262	0.050
-532.106	130.678	-0.126	0.161
-531.091	93.633	0.017	-0.019
-530.077	-158.326	0.050	-0.003
-529.062	-11.972	-0.123	-0.081
-528.048	-191.956	-0.162	-0.002
-527.033	642.449	-0.024	-0.061
-526.018	-26.924	0.248	-0.145
-525.004	-137.949	-0.225	0.025
-523.989	800.000	0.033	-0.096
-522.975	-52.683	0.142	-0.066
-521.960	800.000	-0.039	0.152
-520.945	105.992	0.044	0.052
-519.931	-52.349	-0.113	-0.052
-518.916	-7.300	0.231	-0.157
-517.902	127.440	-0.111	-0.141
-516.887	388.529	-0.027	-0.056
-515.872	66.690	0.107	-0.109
-514.858	13.703	-0.170	0.132
-513.843	110.918	-0.263	-0.316
-512.829	229.558	0.124	-0.202
-511.814	8.902	0.277	0.209
-510.799	-197.514	0.437	0.003
-509.785	48.398	-0.272	-0.255
-508.770	-100.731	-0.205	-0.051
-507.756	66.140	0.065	-0.066
-506.741	489.868	0.052	0.119
-505.726	-67.833	-0.492	-0.192
-504.712	-85.442	-0.123	0.038
-503.697	121.949	0.203	-0.253
-502.683	-113.651	-0.207	-0.040
-501.668	157.539	0.225	-0.311
-500.653	-163.821	-0.121	0.006
-499.639	-60.215	0.146	-0.062
-498.624	-200.000	-0.008	0.148
-497.610	-30.396	-0.113	-0.064
-496.595	800.000	-0.043	0.151
-495.581	141.894	-0.335	-0.443
-494.566	-130.858	-0.501	-0.067
-493.551	-15.905	-0.176	0.112
-492.537	800.000	0.086	0.344
-491.522	800.000	-0.124	-0.353
-490.508	57.819	0.140	-0.136
-489.493	281.767	0.161	0.288
-488.478	62.189	-0.090	0.090
-487.464	78.977	-0.108	-0.115
-486.449	5.424	-0.072	0.053
-485.435	-80.205	0.143	-0.048
-484.420	63.006	-0.308	-0.308
-483.405	-135.364	0.077	-0.009
-482.391	-200.000	0.022	0.184
-481.376	310.507	-0.060	-0.111
-480.362	-65.539	-0.214	0.086
-479.347	-200.000	0.013	0.192
-478.332	-200.000	-0.054	0.323
-477.318	27.097	0.250	0.210
-476.303	800.000	-0.039	-0.141
-475.289	-24.298	0.274	-0.163
-474.274	8.557	-0.260	-0.195
-473.259	205.907	-0.103	-0.161
-472.245	596.859	-0.090	0.223
-471.230	-37.116	-0.153	-0.082
-470.216	-20.141	-0.059	-0.036
-469.201	-200.000	0.019	0.084
-468.186	800.000	0.110	-0.362
-467.172	-14.349	0.161	0.104
-466.157	44.913	-0.214	-0.197
-465.143	-142.765	-0.279	-0.027
-464.128	-143.687	-0.102	0.010
-463.113	23.780	0.272	0.224
-462.099	-67.122	0.182	-0.071
-461.084	-58.532	0.276	0.119
-460.070	-87.392	-0.309	-0.093
-459.055	800.000	0.059	-0.190
-458.040	800.000	0.052	-0.163
-457.026	-157.450	-0.279	-0.017
-456.011	-25.203	0.342	-0.202
-454.997	-107.127	-0.036	0.008
-453.982	-121.442	-0.526	0.087
-452.968	25.034	0.085	0.070
-451.953	211.652	-0.039	-0.061
-450.938	345.479	0.041	0.081
-449.924	188.673	0.195	0.292
-448.909	-66.843	-0.185	-0.073
-447.895	800.000	0.061	0.199
-446.880	-19.716	-0.253	0.156
-445.865	800.000	-0.075	0.283
-444.851	123.275	0.020	-0.025
-443.836	-95.478	0.207	0.055
-442.822	-130.400	-0.082	0.011
-441.807	-111.668	0.289	0.058
-440.792	224.061	-0.052	0.084
-439.778	5.160	0.471	0.346
-438.763	-200.000	-0.018	-0.356
-437.749	-200.000	0.009	-0.191
-436.734	-200.000	0.021	0.144
-435.719	-117.378	-0.477	0.086
-434.705	-200.000	-0.001	-0.015
-433.690	85.975	-0.362	-0.397
-432.676	94.303	0.129	0.146
-431.661	113.182	0.182	-0.220
-430.646	82.309	-0.194	0.210
-429.632	23.994	-0.035	-0.029
-428.617	199.504	0.032	-0.049
-427.603	800.000	-0.059	0.239
-426.588	182.567	0.053	-0.077
-425.573	9.309	0.234	0.176
-424.559	74.348	-0.066	0.069
-423.544	-200.000	-0.003	0.292
-422.530	-106.661	-0.192	0.042
-421.515	46.636	0.229	0.211
-420.500	127.628	-0.117	-0.148
-419.486	215.747	-0.054	-0.085
-418.471	32.094	0.220	-0.189
-417.457	-43.617	-0.165	-0.083
-416.442	800.000	0.043	0.184
-415.428	-95.600	-0.226	-0.060
-414.413	-22.666	-0.088	0.053
-413.398	-32.901	0.079	-0.043
-412.384	104.054	-0.120	-0.141
-411.369	-20.725	0.232	0.142
-410.355	-3.229	0.390	0.271
-409.340	-184.511	-0.213	0.003
-408.325	-200.000	0.005	0.238
-407.311	274.960	0.216	0.382
-406.296	-71.029	-0.284	-0.106
-405.282	-200.000	-0.033	-0.224
-404.267	29.641	-0.228	-0.193
-403.252	800.000	0.061	-0.188
-402.238	-200.000	0.000	-0.077
-401.223	35.186	-0.334	-0.291
-400.209	800.000	0.083	-0.329
-399.194	373.838	0.107	-0.217
-398.179	76.659	-0.212	-0.224
-397.165	-195.394	0.156	-0.001
-396.150	5.994	-0.120	0.088
-395.136	454.016	-0.062	-0.136
-394.121	-72.652	-0.322	-0.118
-393.106	-133.987	-0.335	0.041
-392.092	-20.871	0.174	-0.106
-391.077	116.935	-0.087	0.106
-390.063	-126.002	0.226	0.034
-389.048	74.883	-0.195	-0.204
-388.033	326.706	-0.188	0.359
-387.019	800.000	0.240	0.711
-386.004	357.360	-0.086	-0.171
-384.990	800.000	0.067	0.207
-383.975	497.223	-0.234	0.535
-382.960	243.846	-0.048	0.080
-381.946	-70.711	0.174	-0.065
-380.931	-98.919	-0.096	-0.024
-379.917	30.280	0.310	0.263
-378.902	273.012	-0.177	0.311
-377.888	-0.776	0.170	0.120
-376.873	-200.000	-0.026	-0.295
-375.858	-57.411	-0.183	0.080
-374.844	11.115	-0.161	-0.122
-373.829	-200.000	-0.082	0.472
-372.815	-29.519	0.304	0.173
-371.800	-11.656	0.064	-0.042
-370.785	43.943	0.253	0.230
-369.771	118.954	0.180	0.221
-368.756	280.595	0.024	0.043
-367.742	-180.751	0.252	0.005
-366.727	-149.840	-0.403	0.031
-365.712	87.200	0.044	-0.048
-364.698	-200.000	-0.001	0.026
-363.683	465.142	0.042	0.092
-362.669	800.000	0.091	0.371
-361.654	800.000	0.024	0.081
-360.639	16.726	0.256	0.201
-359.625	-200.000	-0.120	0.527
-358.610	263.423	0.060	-0.103
-357.596	444.373	0.030	0.066
-356.581	15.251	0.111	-0.087
-355.566	176.949	0.076	-0.109
-354.552	-200.000	0.011	0.291
-353.537	51.597	-0.147	0.139
-352.523	48.971	-0.213	-0.198
-351.508	-200.000	0.015	0.134
-350.493	-200.000	-0.005	-0.094
-349.479	-126.161	-0.309	0.046
-348.464	800.000	0.099	-0.383
-347.450	34.068	0.321	0.278
-346.435	90.704	0.128	-0.143
-345.420	138.348	0.096	0.125
-344.406	-12.494	-0.136	0.088
-343.391	-32.355	0.302	0.168
-342.377	210.695	-0.088	0.137
-341.362	-200.000	0.007	0.101
-340.348	7.276	0.124	-0.092
-339.333	-45.091	0.067	0.033
-338.318	-23.553	0.090	0.054
-337.304	-75.789	0.116	0.041
-336.289	-200.000	-0.049	-0.345
-335.275	-200.000	-0.026	-0.236
-334.260	-200.000	0.014	-0.262
-333.245	-42.465	0.029	0.015
-332.231	60.672	-0.272	0.268
-331.216	135.443	0.181	0.234
-330.202	-94.573	0.202	0.055
-329.187	15.847	0.202	-0.158
-328.172	253.141	0.182	0.308
-327.158	-20.942	0.147	0.089
-326.143	210.277	-0.040	-0.062
-325.129	-157.749	0.096	0.006
-324.114	29.826	0.020	-0.017
-323.099	-45.032	-0.157	-0.078
-322.085	-58.128	-0.071	0.031
-321.070	-104.780	-0.204	0.046
-320.056	45.267	-0.128	0.117
-319.041	-190.846	0.307	-0.003
-318.026	-153.510	-0.092	-0.006
-317.012	-105.428	0.200	-0.045
-315.997	274.160	-0.080	-0.141
-314.983	59.310	0.095	-0.092
-313.968	611.793	-0.062	0.153
-312.953	364.966	0.093	-0.186
-311.939	-200.000	-0.002	0.074
-310.924	-65.865	0.276	0.109
-309.910	639.800	0.173	-0.437
-308.895	-128.519	0.138	0.019
-307.880	15.727	0.051	-0.040
-306.866	-165.737	0.078	0.003
-305.851	-46.825	0.310	-0.150
-304.837	65.424	-0.286	-0.287
-303.822	147.974	0.173	-0.231
-302.807	-5.543	-0.147	-0.100
-301.793	-103.187	-0.189	-0.044
-300.778	280.750	0.049	0.087
-299.764	205.857	0.169	0.261
-298.749	-32.689	0.204	-0.113
-297.735	61.866	0.225	0.222
-296.720	234.163	-0.022	-0.036
-295.705	-58.933	-0.093	-0.040
-294.691	-36.665	0.118	-0.063
-293.676	-73.940	0.218	-0.078
-292.662	111.520	0.059	0.070
-291.647	-102.606	-0.292	-0.069
-290.632	-55.237	0.285	-0.127
-289.618	-117.047	0.158	-0.029
-288.603	91.159	0.084	-0.093
-287.589	-200.000	-0.040	-0.186
-286.574	524.303	0.109	-0.255
-285.559	43.814	-0.053	0.048
-284.545	-76.602	-0.203	0.071
-283.530	-18.674	-0.213	0.131
-282.516	30.802	-0.281	0.238
-281.501	7.474	-0.174	-0.129
-280.486	-200.000	0.034	0.196
-279.472	-66.727	0.387	0.152
-278.457	212.040	0.168	0.261
-277.443	-80.021	-0.473	0.157
-276.428	-128.387	0.155	0.022
-275.413	100.025	-0.304	0.349
-274.399	-84.317	-0.009	0.003
-273.384	-45.061	0.290	0.143
-272.370	-60.427	-0.307	0.129
-271.355	-127.402	0.276	0.040
-270.340	-200.000	-0.001	0.045
-269.326	800.000	0.057	0.171
-268.311	94.843	-0.069	0.078
-267.297	9.800	-0.176	-0.132
-266.282	-36.357	0.241	-0.129
-265.267	80.835	-0.116	0.123
-264.253	-200.000	0.019	-0.263
-263.238	400.425	0.043	-0.089
-262.224	204.796	0.127	0.194
-261.209	281.246	0.160	0.284
-260.195	-29.233	0.164	-0.093
-259.180	390.465	-0.065	0.133
-258.165	-120.011	0.420	-0.071
-257.151	-129.594	0.130	0.018
-256.136	-200.000	-0.001	0.036
-255.122	-156.140	0.137	-0.009
-254.107	-89.903	0.157	-0.045
-253.092	-200.000	0.044	-0.339
-252.078	287.909	-0.063	-0.113
-251.063	23.241	0.226	0.183
-250.049	-200.000	0.020	0.328
-249.034	113.572	-0.053	-0.064
-248.019	-127.372	-0.102	-0.015
-247.005	400.462	0.146	0.302
-245.990	396.462	0.059	-0.121
-244.976	135.913	-0.058	-0.075
-243.961	-188.648	0.114	0.001
-242.946	-28.792	-0.257	-0.146
-241.932	800.000	0.027	-0.075
-240.917	-200.000	0.092	-0.547
-239.903	7.815	-0.216	-0.160
-238.888	33.732	0.235	-0.202
-237.873	140.437	0.245	-0.320
-236.859	-65.701	-0.317	0.125
-235.844	79.318	0.204	-0.216
-234.830	-200.000	0.031	0.149
-233.815	115.819	-0.007	0.008
-232.800	800.000	-0.073	-0.200
-231.786	443.578	-0.032	-0.070
-230.771	-200.000	0.017	-0.146
-229.757	-100.756	-0.212	0.052
-228.742	-120.210	0.182	0.031
-227.727	19.577	-0.261	-0.208
-226.713	499.280	-0.062	-0.142
-225.698	-200.000	-0.033	-0.334
-224.684	-128.944	0.128	-0.018
-223.669	-200.000	0.029	-0.144
-222.655	-149.944	-0.387	0.030
-221.640	800.000	0.064	0.260
-220.625	336.034	0.114	0.219
-219.611	608.179	0.034	-0.083
-218.596	-91.180	-0.286	-0.081
-217.582	800.000	0.059	0.197
-216.567	-124.645	-0.273	0.042
-215.552	-200.000	0.041	0.293
-214.538	31.440	0.088	0.075
-213.523	183.603	0.067	-0.098
-212.509	-186.896	-0.321	-0.004
-211.494	87.833	-0.150	0.164
-210.479	21.448	-0.146	0.117
-209.465	65.987	-0.062	0.062
-208.450	17.257	-0.157	0.123
-207.436	513.444	-0.063	-0.146
-206.421	-73.727	0.367	0.132
-205.406	-87.986	-0.348	-0.103
-204.392	9.193	-0.136	0.101
-203.377	262.003	0.127	0.218
-202.363	-105.241	-0.244	-0.055
-201.348	800.000	0.108	0.463
-200.333	-200.000	-0.028	0.215
-199.319	543.470	0.112	-0.263
-198.304	-62.537	0.388	0.159
-197.290	-200.000	-0.055	0.455
-196.275	-8.700	0.156	-0.104
-195.260	800.000	-0.073	0.313
-194.246	-34.811	-0.200	-0.108
-193.231	-128.386	0.238	0.033
-192.217	-200.000	-0.012	-0.116
-191.202	-200.000	-0.004	-0.128
-190.187	800.000	0.036	0.099
-189.173	5.223	-0.032	-0.023
-188.158	-200.000	-0.010	-0.109
-187.144	-91.947	0.092	-0.026
-186.129	-200.000	-0.050	-0.247
-185.114	-29.802	0.193	0.109
-184.100	395.610	-0.066	0.136
-183.085	246.043	-0.035	-0.059
-182.071	410.369	-0.093	-0.195
-181.056	-63.205	0.261	0.106
-180.042	15.533	0.192	0.149
-179.027	320.202	-0.072	-0.135
-178.012	124.349	0.247	0.307
-176.998	-50.364	0.106	0.049
-175.983	-100.611	-0.477	-0.116
-174.969	52.850	-0.116	0.109
-173.954	-148.921	0.144	0.011
-172.939	800.000	-0.078	-0.327
-171.925	-70.955	0.250	0.093
-170.910	-200.000	0.001	0.190
-169.896	-113.001	0.174	-0.034
-168.881	-79.411	0.334	0.111
-167.866	-44.545	-0.086	0.042
-166.852	-36.036	-0.287	0.153
-165.837	-2.541	0.398	-0.275
-164.823	771.503	-0.038	0.102
-163.808	-175.056	0.128	-0.004
-162.793	9.727	0.322	-0.241
-161.779	386.740	0.130	-0.265
-160.764	-200.000	-0.026	-0.233
-159.750	-66.961	0.394	-0.154
-158.735	-23.869	-0.383	-0.226
-157.720	-156.541	-0.209	0.013
-156.706	-32.122	0.073	0.040
-155.691	-200.000	-0.019	0.121
-154.677	-200.000	0.041	0.265
-153.662	800.000	0.106	0.396
-152.647	-90.988	-0.251	0.071
-151.633	-23.227	-0.041	-0.025
-150.618	226.484	-0.039	0.062
-149.604	-173.970	0.249	-0.007
-148.589	31.510	0.205	-0.174
-147.574	-200.000	-0.003	0.156
-146.560	800.000	0.043	0.157
-145.545	-200.000	-0.021	0.109
-144.531	-200.000	-0.027	-0.126
-143.516	800.000	0.060	-0.223
-142.502	-26.520	0.081	-0.047
-141.487	-64.221	-0.043	0.017
-140.472	-25.036	-0.339	-0.198
-139.458	454.518	-0.068	0.149
-138.443	-117.957	-0.085	-0.015
-137.429	213.386	-0.113	-0.176
-136.414	-0.335	0.147	-0.103
-135.399	256.190	-0.040	0.068
-134.385	13.390	-0.231	-0.176
-133.370	-91.166	0.289	0.081
-132.356	-135.870	-0.388	-0.045
-131.341	151.209	0.188	0.252
-130.326	156.101	-0.144	-0.196
-129.312	518.239	-0.188	-0.433
-128.297	109.610	0.229	0.271
-127.283	373.080	0.087	-0.174
-126.268	-20.474	0.122	0.074
-125.253	-26.548	0.140	-0.081
-124.239	-88.381	-0.130	0.038
-123.224	-156.376	0.279	-0.017
-122.210	51.637	-0.197	-0.184
-121.195	-49.060	0.151	0.071
-120.180	800.000	0.090	-0.309
-119.166	35.927	-0.250	-0.216
-118.151	260.772	0.184	0.314
-117.137	24.451	-0.123	-0.100
-116.122	62.464	0.172	-0.169
-115.107	800.000	0.091	0.328
-114.093	-110.694	0.134	-0.027
-113.078	-142.550	-0.326	-0.031
-112.064	800.000	-0.030	-0.117
-111.049	-200.000	0.013	-0.163
-110.034	60.638	0.189	0.184
-109.020	419.552	0.141	0.296
-108.005	800.000	0.057	-0.174
-106.991	800.000	-0.145	-0.539
-105.976	96.152	0.088	0.099
-104.962	91.024	-0.130	0.144
-103.947	-41.325	0.113	0.057
-102.932	-157.456	-0.157	-0.009
-101.918	-124.281	-0.325	-0.050
-100.903	-49.338	0.138	0.065
-99.889	276.650	0.062	-0.109
-98.874	-48.128	0.255	-0.121
-97.859	50.643	-0.381	0.355
-96.845	-139.755	0.446	0.047
-95.830	-39.366	0.170	0.088
-94.816	-70.106	0.198	-0.074
-93.801	-36.285	-0.264	-0.140
-92.786	800.000	-0.054	-0.179
-91.772	116.383	0.020	0.024
-90.757	211.697	0.099	-0.154
-89.743	-22.859	-0.096	0.057
-88.728	52.706	0.304	0.285
-87.713	-86.828	-0.230	-0.069
-86.699	-67.008	-0.291	-0.113
-85.684	800.000	-0.049	0.209
-84.670	-200.000	-0.005	0.077
-83.655	164.421	-0.045	-0.062
-82.640	-123.136	0.277	-0.044
-81.626	84.731	-0.237	0.255
-80.611	-74.874	0.166	0.058
-79.597	542.904	0.070	-0.165
-78.582	-19.231	-0.364	-0.222
-77.567	243.866	0.050	0.082
-76.553	-12.540	0.225	-0.144
-75.538	66.816	0.241	-0.241
-74.524	34.075	0.311	-0.266
-73.509	149.517	0.031	-0.041
-72.494	800.000	0.099	-0.370
-71.480	-8.842	0.234	0.154
-70.465	30.230	0.267	-0.224
-69.451	341.320	-0.069	-0.133
-68.436	-56.267	-0.167	0.073
-67.422	-200.000	0.038	-0.316
-66.407	-103.143	0.032	-0.008
-65.392	-200.000	0.032	0.255
-64.378	489.018	0.135	-0.303
-63.363	711.922	-0.003	0.007
-62.349	-23.400	0.196	0.116
-61.334	77.651	-1.030	-1.077
-60.319	-40.529	0.561	0.286
-59.305	800.000	-0.327	-1.167
-58.290	71.350	0.943	0.961
-57.276	-200.000	0.396	1.777
-56.261	-200.000	96.214	595.993
-55.246	570.202	1363.814	3257.183
-54.232	162.358	2548.131	3507.433
-53.217	107.030	2262.571	2638.386
-52.203	41.485	1891.635	1680.616
-51.188	35.279	1682.370	1447.955
-50.173	32.651	1638.447	1390.733
-49.159	49.947	1684.796	1559.788
-48.144	51.668	1701.325	1587.901
-47.130	34.871	1662.189	1427.314
-46.115	32.227	1647.611	1395.139
-45.100	31.993	1643.278	1389.684
-44.086	32.026	1639.814	1386.942
-43.071	32.042	1636.936	1384.574
-42.057	31.905	1635.141	1381.991
-41.042	31.958	1633.187	1380.674
-40.027	31.933	1631.590	1379.085
-39.013	31.920	1629.746	1377.378
-37.998	31.862	1627.939	1375.368
-36.984	31.904	1626.492	1374.403
-35.969	32.022	1624.864	1373.832
-34.954	32.156	1623.046	1373.219
-33.940	32.047	1621.544	1371.099
-32.925	32.035	1619.975	1369.628
-31.911	32.080	1618.214	1368.413
-30.896	32.086	1615.937	1366.482
-29.881	32.113	1614.302	1365.241
-28.867	32.070	1612.887	1363.675
-27.852	32.013	1611.549	1362.079
-26.838	32.070	1610.068	1361.186
-25.823	32.006	1608.851	1359.639
-24.809	32.065	1607.080	1358.512
-23.794	32.107	1606.089	1357.925
-22.779	32.077	1604.472	1356.285
-21.765	32.071	1602.964	1354.915
-20.750	32.076	1601.288	1353.484
-19.736	32.076	1600.134	1352.449
-18.721	32.062	1598.800	1351.171
-17.706	32.204	1596.776	1350.427
-16.692	32.087	1595.721	1348.644
-15.677	32.047	1594.064	1346.901
-14.663	32.126	1592.730	1346.287
-13.648	32.121	1591.531	1345.180
-12.633	32.128	1589.874	1343.779
-11.619	32.068	1588.442	1342.088
-10.604	32.140	1586.670	1341.053
-9.590	32.127	1585.462	1339.881
-8.575	32.111	1583.868	1338.369
-7.560	32.092	1583.452	1337.832
-6.546	32.154	1582.172	1337.138
-5.531	32.042	1581.347	1335.589
-4.517	32.058	1579.851	1334.385
-3.502	32.103	1578.747	1333.724
-2.487	32.113	1577.194	1332.429
-1.473	31.825	1565.266	1320.270
-0.458	29.222	1546.268	1286.053
0.556	26.621	1547.639	1258.685
1.571	24.833	1572.236	1265.942
2.586	24.540	1586.309	1275.068
3.600	21.930	1532.679	1213.821
4.615	12.515	1421.238	1064.788
5.629	3.781	1355.912	961.603
6.644	2.315	1346.950	946.098
7.659	2.317	1345.722	945.166
8.673	2.133	1344.932	943.387
9.688	1.976	1343.247	941.152
10.702	1.895	1340.106	938.371
11.717	5.540	1347.363	965.896
12.731	15.812	1366.938	1043.868
13.746	24.239	1380.702	1106.856
14.761	26.327	1384.270	1122.601
15.775	26.615	1383.951	1124.028
16.790	26.805	1382.953	1124.298
17.804	26.882	1382.631	1124.412
18.819	27.089	1381.858	1124.969
19.834	27.162	1382.026	1125.460
20.848	27.190	1381.196	1124.858
21.863	27.208	1380.163	1124.026
22.877	27.143	1379.390	1122.893
23.892	27.272	1378.009	1122.470
24.907	27.271	1377.448	1121.902
25.921	27.251	1376.315	1120.761
26.936	27.259	1375.481	1120.031
27.950	27.153	1374.664	1118.616
28.965	27.167	1373.342	1117.523
29.980	27.247	1371.652	1116.539
30.994	27.249	1370.900	1115.842
32.009	27.236	1369.888	1114.844
33.023	27.327	1368.110	1113.852
34.038	27.251	1367.313	1112.642
35.053	27.167	1366.566	1111.421
36.067	27.265	1365.298	1110.890
37.082	27.215	1364.468	1109.812
38.096	27.194	1364.053	1109.249
39.111	27.207	1363.086	1108.444
40.126	27.304	1362.546	1108.496
41.140	27.239	1361.732	1107.338
42.155	27.301	1361.122	1107.120
43.169	27.268	1361.458	1107.095
44.184	27.155	1361.471	1106.323
45.199	27.073	1361.048	1105.378
46.213	27.179	1360.066	1105.128
47.228	27.192	1359.222	1104.428
48.242	27.126	1358.550	1103.379
49.257	27.197	1356.777	1102.275
50.271	27.264	1355.186	1101.287
51.286	27.206	1353.527	1099.493
52.301	27.239	1352.375	1098.660
53.315	27.186	1351.545	1097.570
54.330	27.095	1350.943	1096.432
55.344	27.272	1349.763	1096.445
56.359	27.244	1348.921	1095.495
57.374	27.164	1348.019	1094.183
58.388	27.185	1347.631	1093.900
59.403	27.233	1347.338	1093.854
60.417	27.288	1345.927	1092.941
61.432	27.186	1345.544	1091.920
62.447	27.312	1344.358	1091.621
63.461	27.237	1343.589	1090.445
64.476	27.283	1342.397	1089.658
65.490	27.249	1341.370	1088.525
66.505	27.233	1339.591	1086.892
67.520	27.170	1338.981	1085.924
68.534	27.361	1337.424	1085.703
69.549	27.373	1336.818	1085.188
70.563	27.256	1336.149	1083.851
71.578	27.373	1334.668	1083.249
72.593	27.213	1334.199	1081.822
73.607	27.189	1333.922	1081.358
74.622	27.372	1332.678	1081.344
75.636	27.319	1332.063	1080.431
76.651	27.278	1331.660	1079.767
77.666	27.177	1331.285	1078.768
78.680	27.155	1331.018	1078.323
79.695	27.247	1329.937	1077.899
80.709	27.305	1329.065	1077.440
81.724	27.258	1328.120	1076.300
82.739	27.276	1327.140	1075.515
83.753	27.218	1326.175	1074.299
84.768	27.166	1325.108	1073.029
85.782	27.240	1324.235	1072.666
86.797	27.292	1322.385	1071.378
87.812	27.183	1321.613	1070.019
88.826	27.249	1320.891	1069.726
89.841	27.266	1319.735	1068.794
90.855	27.377	1318.442	1068.304
91.870	27.357	1317.977	1067.714
92.884	27.365	1316.766	1066.685
93.899	27.323	1316.220	1065.907
94.914	27.283	1315.611	1065.084
95.928	27.367	1314.445	1064.536
96.943	27.323	1314.706	1064.398
97.957	27.325	1313.742	1063.534
98.972	27.292	1312.531	1062.267
99.987	27.275	1311.860	1061.532
101.001	27.256	1310.577	1060.288
102.016	27.188	1310.247	1059.529
103.030	27.286	1309.327	1059.263
104.045	27.357	1308.284	1058.739
105.060	27.435	1307.163	1058.192
106.074	27.340	1306.736	1057.201
107.089	27.421	1305.016	1056.185
108.103	27.558	1303.632	1055.764
109.118	27.498	1303.041	1054.848
110.133	27.385	1302.343	1053.534
111.147	27.434	1300.880	1052.539
112.162	27.371	1299.815	1051.222
113.176	27.449	1298.963	1050.889
114.191	27.387	1298.066	1049.716
115.206	27.468	1296.855	1049.107
116.220	27.314	1296.053	1047.482
117.235	27.403	1294.677	1046.785
118.249	27.308	1294.766	1046.220
119.264	27.310	1293.549	1045.153
120.279	27.422	1293.003	1045.267
121.293	27.436	1292.045	1044.478
122.308	27.486	1291.100	1043.909
123.322	27.451	1290.349	1043.007
124.337	27.466	1289.105	1041.997
125.352	27.395	1288.616	1041.103
126.366	27.386	1287.999	1040.460
127.381	27.426	1286.843	1039.661
128.395	27.348	1286.315	1038.697
129.410	27.448	1284.757	1037.919
130.424	27.501	1284.712	1038.093
131.439	27.563	1283.372	1037.271
132.454	27.453	1282.898	1036.172
133.468	27.409	1282.628	1035.610
134.483	27.395	1281.546	1034.566
135.497	27.388	1280.794	1033.825
136.512	27.426	1279.463	1032.875
137.527	27.485	1278.084	1032.008
138.541	27.408	1277.150	1030.725
139.556	27.424	1276.194	1029.950
140.570	27.482	1275.004	1029.229
141.585	27.358	1274.312	1027.879
142.600	27.444	1273.190	1027.366
143.614	27.475	1272.512	1026.906
144.629	27.226	1271.581	1024.659
145.643	27.320	1270.423	1024.167
146.658	27.382	1269.200	1023.439
147.673	27.303	1268.345	1022.216
148.687	27.283	1267.818	1021.589
149.702	27.305	1266.564	1020.609
150.716	27.326	1265.378	1019.680
151.731	27.349	1264.539	1019.042
152.746	27.431	1263.350	1018.451
153.760	27.418	1262.564	1017.658
154.775	27.462	1261.609	1017.044
155.789	27.517	1260.598	1016.447
156.804	27.346	1259.649	1014.636
157.819	27.365	1258.870	1014.027
158.833	27.465	1257.753	1013.593
159.848	27.454	1257.482	1013.225
160.862	27.601	1256.718	1013.335
161.877	27.478	1255.643	1011.696
162.892	27.510	1254.894	1011.181
163.906	27.424	1254.283	1010.119
164.921	27.386	1253.966	1009.565
165.935	27.400	1253.286	1009.006
166.950	27.465	1252.386	1008.554
167.964	27.541	1251.501	1008.173
168.979	27.598	1251.206	1008.158
169.994	27.520	1251.034	1007.500
171.008	27.617	1249.965	1007.087
172.023	27.478	1249.105	1005.538
173.037	27.528	1248.232	1005.023
174.052	27.547	1247.835	1004.716
175.067	27.587	1247.160	1004.302
176.081	27.564	1245.983	1003.139
177.096	27.561	1245.378	1002.552
178.110	27.503	1244.413	1001.366
179.125	27.560	1243.304	1000.696
180.140	27.568	1242.322	999.860
181.154	27.540	1241.227	998.740
182.169	27.561	1239.921	997.714
183.183	27.600	1239.660	997.632
184.198	27.563	1238.531	996.430
185.213	27.576	1237.819	995.840
186.227	27.605	1236.565	994.900
187.242	27.570	1235.929	994.111
188.256	27.594	1235.012	993.416
189.271	27.547	1234.340	992.530
190.286	27.675	1232.946	992.022
191.300	27.474	1233.338	991.155
192.315	27.448	1232.660	990.377
193.329	27.652	1231.935	990.817
194.344	27.676	1231.585	990.579
195.359	27.642	1231.196	989.995
196.373	27.587	1230.880	989.354
197.388	27.636	1230.034	988.851
198.402	27.373	1230.556	987.755
199.417	27.659	1229.534	988.401
200.432	27.676	1228.774	987.794
201.446	27.724	1227.926	987.285
202.461	27.623	1227.294	986.142
203.475	27.616	1226.601	985.463
204.490	27.612	1225.690	984.621
205.504	27.621	1225.012	984.037
206.519	27.686	1223.535	983.115
207.534	27.625	1223.097	982.343
208.548	27.697	1221.782	981.590
209.563	27.599	1221.532	980.778
210.577	27.718	1220.365	980.391
211.592	27.673	1219.638	979.478
212.607	27.840	1218.733	979.560
213.621	27.752	1218.305	978.659
214.636	27.837	1217.524	978.398
215.650	27.736	1216.978	977.336
216.665	27.724	1215.723	976.176
217.680	27.789	1214.713	975.626
218.694	27.803	1214.191	975.195
219.709	27.834	1213.119	974.414
220.723	27.754	1212.677	973.542
221.738	27.685	1212.041	972.581
222.753	27.814	1211.285	972.575
223.767	27.756	1210.675	971.689
224.782	27.868	1210.081	971.722
225.796	27.824	1209.649	971.057
226.811	27.773	1209.740	970.773
227.826	27.820	1208.560	969.992
228.840	27.824	1208.443	969.830
229.855	27.779	1207.188	968.499
230.869	27.841	1206.739	968.384
231.884	27.855	1205.622	967.477
232.899	27.920	1205.045	967.271
233.913	27.867	1204.337	966.333
234.928	27.942	1204.288	966.605
235.942	27.949	1203.407	965.853
236.957	27.929	1202.542	964.969
237.972	27.865	1201.997	964.105
238.986	27.876	1201.897	963.997
240.001	27.927	1200.727	963.242
241.015	28.027	1200.115	963.192
242.030	28.047	1199.528	962.743
243.045	27.989	1198.716	961.701
244.059	28.076	1197.630	961.204
245.074	28.092	1196.948	960.655
246.088	28.045	1196.481	959.949
247.103	28.062	1195.467	959.136
248.117	28.073	1194.294	958.167
249.132	28.005	1194.036	957.520
250.147	28.175	1193.242	957.692
251.161	28.129	1192.291	956.599
252.176	28.125	1191.982	956.248
253.190	28.157	1191.552	955.987
254.205	28.059	1191.096	955.025
255.220	28.211	1190.109	954.940
256.234	28.119	1189.862	954.175
257.249	28.145	1189.035	953.565
258.263	28.133	1188.235	952.777
259.278	28.187	1188.046	952.822
260.293	28.200	1187.412	952.298
261.307	28.134	1186.594	951.214
262.322	28.151	1186.266	950.957
263.336	28.108	1186.067	950.489
264.351	28.120	1185.205	949.775
265.366	28.204	1184.527	949.581
266.380	28.244	1183.962	949.256
267.395	28.196	1183.243	948.343
268.409	28.078	1182.701	947.216
269.424	28.078	1182.439	946.922
270.439	28.228	1181.315	946.715
271.453	28.130	1181.136	945.979
272.468	28.225	1180.037	945.508
273.482	28.171	1179.061	944.361
274.497	28.248	1178.668	944.361
275.512	28.212	1177.946	943.513
276.526	28.214	1177.619	943.178
277.541	28.219	1177.280	942.851
278.555	28.292	1176.368	942.410
279.570	28.347	1175.292	941.747
280.585	28.232	1174.697	940.597
281.599	28.363	1173.270	940.042
282.614	28.395	1172.710	939.676
283.628	28.290	1172.047	938.525
284.643	28.324	1171.293	938.010
285.657	28.274	1170.676	937.180
286.672	28.262	1169.787	936.320
287.687	28.450	1168.618	936.266
288.701	28.386	1168.410	935.686
289.716	28.508	1167.254	935.302
290.730	28.411	1167.020	934.537
291.745	28.409	1166.528	934.048
292.760	28.448	1165.913	933.671
293.774	28.372	1165.297	932.711
294.789	28.460	1164.784	932.663
295.803	28.460	1164.069	932.009
296.818	28.553	1163.342	931.819
297.833	28.411	1162.610	930.426
298.847	28.489	1162.002	930.254
299.862	28.531	1161.271	929.798
300.876	28.391	1161.057	928.836
301.891	28.514	1160.160	928.659
302.906	28.475	1159.433	927.799
303.920	28.558	1158.790	927.620
304.935	28.550	1158.379	927.169
305.949	28.502	1157.332	926.010
306.964	28.479	1157.195	925.699
307.979	28.562	1156.743	925.677
308.993	28.607	1155.693	924.982
310.008	28.681	1154.907	924.640
311.022	28.625	1154.506	923.959
312.037	28.696	1153.290	923.260
313.052	28.615	1152.579	922.199
314.066	28.573	1152.106	921.533
315.081	28.550	1151.372	920.745
316.095	28.691	1150.258	920.483
317.110	28.639	1150.009	919.940
318.125	28.755	1149.380	919.936
319.139	28.649	1148.399	918.541
320.154	28.698	1147.913	918.315
321.168	28.614	1147.765	917.696
322.183	28.689	1147.184	917.521
323.197	28.641	1146.427	916.599
324.212	28.690	1145.962	916.391
325.227	28.704	1145.468	915.981
326.241	28.852	1144.986	916.256
327.256	28.658	1144.361	914.707
328.270	28.691	1143.459	914.069
329.285	28.682	1142.678	913.316
330.300	28.781	1141.802	913.027
331.314	28.792	1140.955	912.327
332.329	28.836	1140.268	911.914
333.343	28.925	1139.345	911.537
334.358	28.917	1138.615	910.830
335.373	28.864	1138.044	910.034
336.387	28.845	1137.633	909.531
337.402	28.935	1136.740	909.179
338.416	28.803	1136.217	908.030
339.431	28.921	1135.388	907.867
340.446	29.007	1134.654	907.627
341.460	29.128	1134.059	907.664
342.475	29.004	1133.357	906.411
343.489	28.958	1132.639	905.532
344.504	28.975	1131.760	904.834
345.519	29.125	1130.604	904.567
346.533	29.118	1129.946	903.922
347.548	29.045	1129.273	902.946
348.562	29.119	1128.861	902.901
349.577	29.119	1128.463	902.502
350.592	28.956	1127.413	900.787
351.606	29.108	1126.632	900.828
352.621	29.046	1126.613	900.427
353.635	29.037	1125.710	899.580
354.650	29.031	1125.078	898.967
355.665	29.102	1124.384	898.680
356.679	29.146	1123.545	898.147
357.694	29.121	1123.260	897.715
358.708	29.056	1122.674	896.850
359.723	29.129	1122.082	896.656
360.738	29.170	1121.191	896.063
361.752	29.165	1120.994	895.803
362.767	29.154	1120.257	895.079
363.781	29.148	1119.792	894.601
364.796	29.256	1119.231	894.598
365.810	29.297	1118.387	894.044
366.825	29.205	1117.865	893.100
367.840	29.361	1117.303	893.329
368.854	29.254	1117.091	892.559
369.869	29.266	1116.154	891.791
370.883	29.378	1115.197	891.488
371.898	29.351	1114.744	890.916
372.913	29.456	1113.691	890.506
373.927	29.353	1113.803	890.019
374.942	29.418	1112.779	889.433
375.956	29.314	1112.754	888.833
376.971	29.434	1111.760	888.537
377.986	29.321	1111.630	887.812
379.000	29.420	1110.992	887.702
380.015	29.323	1110.854	887.043
381.029	29.387	1110.087	886.664
382.044	29.405	1109.417	886.132
383.059	29.404	1108.506	885.323
384.073	29.438	1107.608	884.690
385.088	29.465	1106.964	884.227
386.102	29.509	1106.168	883.724
387.117	29.515	1105.207	882.905
388.132	29.410	1104.669	881.896
389.146	29.396	1103.976	881.201
390.161	29.503	1103.088	880.921
391.175	29.554	1102.633	880.725
392.190	29.649	1101.873	880.495
393.205	29.536	1101.523	879.599
394.219	29.611	1100.381	878.963
395.234	29.591	1099.979	878.468
396.248	29.578	1099.417	877.880
397.263	29.652	1098.648	877.543
398.278	29.584	1097.748	876.422
399.292	29.676	1097.206	876.349
400.307	29.650	1096.609	875.670
401.321	29.607	1096.258	875.111
402.336	29.725	1095.067	874.640
403.350	29.644	1094.970	874.099
404.365	29.624	1094.092	873.226
405.380	29.662	1093.371	872.753
406.394	29.774	1092.817	872.766
407.409	29.701	1092.115	871.782
408.423	29.745	1091.449	871.380
409.438	29.664	1090.710	870.332
410.453	29.772	1089.706	869.962
411.467	29.901	1088.621	869.624
412.482	29.817	1088.269	868.874
413.496	29.817	1087.758	868.386
414.511	29.923	1087.161	868.331
415.526	29.893	1086.947	867.944
416.540	29.891	1086.501	867.502
417.555	29.812	1085.758	866.461
418.569	29.922	1085.517	866.707
419.584	29.891	1085.069	866.127
420.599	29.896	1084.531	865.644
421.613	104.584	1322.869	1459.436
422.628	97.326	1357.571	1459.536
