DTS Sentinel unit serial number:	SN413079Multiplexer serial number:	ORYXHardware model number:	OX4-SRSoftware version number:	ORYX F/W v4.00 Oryx Data Collector v3.7.2.0data status	okinstallation	princeton_trtdifferential loss correction	single-endedforward channel	channel 2reverse channel	N/Adate	2019/09/11time	10:05:11forward acquisition time	60.00reverse acquisition time	0.00gamma	496.2192k internal	0.2313k external	0.2313temperature offset calibration	0.9967default loss term (dB/km)	0.3790temperature slope calibration	1.0000multiplexer offset coefficient	1.0000multiplexer slope coefficient	1.0000fibre end	0.00T internal ref (°C)	35.52T ext. ref 1 (°C)	0.14T ext. ref 2 (°C)	33.01length (m)	temperature (°C)	Stokes	anti-Stokes-747.200	623.594	0.103	-0.263
-746.185	124.517	0.152	0.194
-745.171	-94.966	-0.416	-0.114
-744.156	-200.000	0.008	0.069
-743.142	70.438	0.168	-0.176
-742.127	147.224	-0.292	0.399
-741.112	32.929	-0.133	-0.117
-740.098	-29.692	-0.324	0.187
-739.083	58.488	0.250	-0.249
-738.069	-64.279	-0.321	-0.132
-737.054	-127.239	-0.054	-0.008
-736.039	734.293	0.082	-0.222
-735.025	215.324	-0.053	-0.085
-734.010	800.000	-0.121	0.386
-732.996	85.133	-0.127	-0.141
-731.981	800.000	0.054	-0.232
-730.966	800.000	-0.071	0.250
-729.952	-92.416	-0.097	0.028
-728.937	78.906	0.040	0.044
-727.923	-200.000	0.033	-0.325
-726.908	-200.000	0.012	0.118
-725.894	502.527	-0.143	0.335
-724.879	30.156	-0.409	0.354
-723.864	800.000	0.095	0.312
-722.850	93.318	0.203	0.232
-721.835	-200.000	-0.008	0.195
-720.821	-4.043	0.207	0.146
-719.806	36.432	0.144	0.129
-718.791	141.714	0.170	-0.228
-717.777	-103.488	0.244	-0.058
-716.762	89.013	0.082	-0.093
-715.748	800.000	0.042	-0.117
-714.733	-33.106	0.322	-0.181
-713.718	367.292	-0.112	0.230
-712.704	-82.414	-0.102	-0.033
-711.689	-152.341	0.271	-0.020
-710.675	14.891	0.327	0.259
-709.660	-200.000	0.012	-0.122
-708.645	533.810	0.096	-0.230
-707.631	8.610	0.170	0.129
-706.616	239.742	-0.048	0.080
-705.602	296.803	0.016	0.029
-704.587	173.531	0.100	0.146
-703.572	151.502	-0.164	-0.226
-702.558	29.195	-0.085	-0.073
-701.543	-8.730	0.293	-0.199
-700.529	597.274	0.044	0.111
-699.514	139.046	-0.132	-0.176
-698.499	800.000	-0.020	0.082
-697.485	234.024	-0.103	-0.172
-696.470	-46.102	-0.137	0.068
-695.456	108.754	0.196	0.237
-694.441	-99.733	-0.427	0.108
-693.426	-183.011	-0.283	-0.005
-692.412	121.212	-0.114	-0.144
-691.397	-42.517	0.382	0.197
-690.383	-187.917	-0.381	-0.005
-689.368	5.405	0.216	-0.161
-688.354	-70.259	-0.567	0.218
-687.339	-30.816	-0.303	0.173
-686.324	22.194	0.247	0.204
-685.310	-200.000	-0.007	-0.031
-684.295	-165.760	-0.101	-0.004
-683.281	-159.648	-0.113	0.006
-682.266	71.268	0.065	-0.068
-681.251	-200.000	-0.007	-0.079
-680.237	800.000	-0.028	0.120
-679.222	134.931	0.140	0.184
-678.208	166.793	-0.074	-0.107
-677.193	404.302	0.113	-0.241
-676.178	29.161	-0.271	-0.232
-675.164	2.043	-0.188	0.138
-674.149	800.000	0.016	0.059
-673.135	-200.000	-0.000	0.071
-672.120	-61.627	0.114	-0.048
-671.105	-49.264	-0.324	-0.157
-670.091	-110.810	0.113	0.023
-669.076	217.066	-0.124	0.200
-668.062	-44.638	-0.254	0.128
-667.047	158.629	0.088	0.123
-666.032	232.371	0.072	0.120
-665.018	99.237	0.271	-0.317
-664.003	-184.606	0.238	0.004
-662.989	-9.241	-0.142	-0.096
-661.974	-168.734	0.102	0.004
-660.959	-200.000	0.049	0.235
-659.945	95.115	-0.104	-0.120
-658.930	398.308	-0.018	-0.039
-657.916	800.000	-0.069	-0.263
-656.901	-88.364	0.094	-0.028
-655.886	-200.000	-0.002	-0.200
-654.872	60.844	0.106	0.107
-653.857	16.913	0.141	-0.113
-652.843	46.552	-0.164	-0.154
-651.828	-34.472	-0.178	-0.098
-650.814	-43.142	-0.248	0.127
-649.799	-200.000	0.022	0.203
-648.784	311.576	-0.169	0.320
-647.770	-94.620	-0.135	0.037
-646.755	58.240	0.113	0.112
-645.741	384.086	-0.133	0.277
-644.726	-178.809	-0.113	0.003
-643.711	-200.000	-0.019	-0.169
-642.697	-127.363	-0.318	0.047
-641.682	800.000	-0.026	-0.103
-640.668	-200.000	0.061	-0.543
-639.653	13.738	-0.337	0.264
-638.638	-117.708	-0.176	-0.032
-637.624	-137.171	-0.371	0.043
-636.609	702.073	-0.101	-0.270
-635.595	-31.004	-0.149	-0.085
-634.580	-90.034	-0.324	0.095
-633.565	-84.329	-0.157	-0.050
-632.551	-26.841	-0.057	-0.034
-631.536	-3.955	0.373	-0.261
-630.522	800.000	-0.045	-0.194
-629.507	-43.480	0.183	-0.093
-628.492	-132.375	-0.103	-0.013
-627.478	-59.914	-0.190	0.082
-626.463	-200.000	0.013	-0.119
-625.449	277.241	0.049	0.088
-624.434	800.000	-0.101	0.285
-623.419	69.067	-0.132	0.137
-622.405	-27.951	0.245	0.143
-621.390	-84.304	0.198	0.063
-620.376	-66.810	0.237	0.095
-619.361	-0.223	-0.063	-0.045
-618.346	153.873	-0.141	-0.195
-617.332	-200.000	-0.014	-0.197
-616.317	800.000	0.083	0.353
-615.303	95.383	0.025	-0.029
-614.288	-14.242	0.251	-0.163
-613.273	-200.000	-0.025	-0.310
-612.259	53.518	0.307	-0.297
-611.244	233.872	-0.140	0.233
-610.230	148.682	0.061	-0.083
-609.215	-200.000	-0.013	-0.211
-608.201	-141.988	-0.277	0.028
-607.186	-200.000	0.019	0.400
-606.171	-151.562	-0.152	-0.011
-605.157	-81.461	0.404	-0.134
-604.142	-146.805	-0.241	-0.021
-603.128	-200.000	-0.037	-0.206
-602.113	800.000	0.033	-0.128
-601.098	-200.000	-0.024	-0.126
-600.084	-200.000	0.003	0.090
-599.069	-176.042	-0.232	-0.006
-598.055	-103.434	-0.166	-0.039
-597.040	-200.000	-0.011	-0.256
-596.025	-44.487	0.088	0.044
-595.011	-61.944	0.177	0.075
-593.996	-200.000	0.044	0.278
-592.982	536.436	0.071	-0.169
-591.967	-200.000	-0.021	-0.375
-590.952	-188.508	0.074	0.001
-589.938	-200.000	0.005	-0.467
-588.923	60.229	-0.085	0.085
-587.909	103.374	0.065	0.077
-586.894	-200.000	0.014	0.071
-585.879	-174.113	0.109	0.003
-584.865	-124.067	0.097	0.015
-583.850	290.044	0.030	0.055
-582.836	88.159	-0.104	-0.116
-581.821	56.804	-0.101	0.099
-580.806	800.000	0.049	-0.137
-579.792	266.741	-0.145	-0.256
-578.777	-90.507	-0.374	0.109
-577.763	636.234	-0.030	0.076
-576.748	292.944	-0.143	-0.262
-575.733	731.554	0.098	-0.264
-574.719	800.000	-0.006	0.019
-573.704	385.954	0.013	0.026
-572.690	-200.000	-0.025	-0.187
-571.675	-200.000	0.009	0.143
-570.661	207.073	-0.125	-0.196
-569.646	-146.820	0.003	0.000
-568.631	99.462	0.330	-0.385
-567.617	-200.000	-0.086	-0.418
-566.602	-200.000	0.009	0.050
-565.588	204.522	0.149	0.232
-564.573	-150.668	-0.385	0.030
-563.558	4.969	0.127	-0.094
-562.544	-200.000	0.020	-0.347
-561.529	-84.557	0.355	-0.113
-560.515	800.000	-0.087	0.315
-559.500	-200.000	-0.016	0.123
-558.485	800.000	-0.020	-0.077
-557.471	115.053	-0.080	-0.098
-556.456	637.630	0.027	-0.069
-555.442	-200.000	0.028	-0.325
-554.427	364.028	0.019	0.038
-553.412	-84.787	-0.152	-0.048
-552.398	-154.000	-0.248	-0.017
-551.383	-200.000	0.054	-0.341
-550.369	-200.000	-0.002	-0.233
-549.354	-108.936	-0.255	0.055
-548.339	-200.000	-0.048	0.290
-547.325	-47.219	-0.164	-0.081
-546.310	6.594	-0.184	-0.138
-545.296	-23.799	0.180	-0.109
-544.281	81.197	-0.040	0.043
-543.266	2.711	-0.267	0.195
-542.252	-200.000	0.059	-0.301
-541.237	-57.459	-0.150	0.066
-540.223	-54.931	0.150	0.068
-539.208	-106.484	0.282	0.063
-538.193	-200.000	-0.005	0.169
-537.179	800.000	-0.077	0.233
-536.164	-20.975	-0.055	-0.034
-535.150	-200.000	0.046	0.375
-534.135	122.685	0.143	-0.180
-533.121	800.000	-0.092	0.385
-532.106	-17.264	0.329	0.208
-531.091	-38.513	-0.133	0.071
-530.077	752.683	0.045	-0.123
-529.062	62.128	0.123	-0.123
-528.048	-200.000	-0.014	0.120
-527.033	-138.980	-0.256	-0.028
-526.018	-197.604	0.101	0.001
-525.004	216.112	0.121	0.194
-523.989	-200.000	0.032	0.171
-522.975	-200.000	-0.001	0.155
-521.960	-200.000	-0.052	-0.284
-520.945	-114.347	-0.264	-0.051
-519.931	-5.446	0.125	-0.086
-518.916	-200.000	0.007	0.115
-517.902	-36.194	-0.112	0.061
-516.887	151.562	-0.139	-0.190
-515.872	316.146	-0.166	0.315
-514.858	-171.181	0.107	0.004
-513.843	-138.894	-0.092	-0.010
-512.829	-153.446	0.133	0.009
-511.814	464.123	0.059	-0.132
-510.799	53.382	0.205	-0.197
-509.785	81.282	-0.259	-0.281
-508.770	49.724	-0.217	0.205
-507.756	78.429	-0.248	-0.266
-506.741	-200.000	0.064	-0.381
-505.726	184.940	-0.239	-0.357
-504.712	-41.569	0.367	-0.190
-503.697	130.055	-0.017	0.022
-502.683	800.000	0.118	-0.420
-501.668	40.408	0.080	0.073
-500.653	-175.907	-0.413	-0.011
-499.639	45.255	0.188	-0.174
-498.624	-31.304	0.322	0.182
-497.610	25.680	-0.303	0.254
-496.595	222.874	0.166	-0.269
-495.581	-21.035	0.234	0.144
-494.566	-101.227	-0.151	-0.037
-493.551	468.830	-0.037	-0.084
-492.537	-87.779	-0.186	0.056
-491.522	176.247	0.182	-0.265
-490.508	-200.000	0.011	-0.207
-489.493	-12.891	-0.196	0.128
-488.478	174.293	0.158	0.229
-487.464	-200.000	-0.031	0.215
-486.449	-36.966	0.186	-0.100
-485.435	172.616	0.008	0.011
-484.420	592.560	-0.064	0.160
-483.405	337.430	-0.112	0.219
-482.391	665.725	-0.020	0.053
-481.376	56.461	0.194	-0.189
-480.362	148.027	0.087	0.117
-479.347	800.000	-0.049	0.189
-478.332	12.687	0.322	-0.250
-477.318	800.000	0.060	-0.262
-476.303	-89.280	-0.228	-0.068
-475.289	-94.938	0.093	-0.025
-474.274	500.099	-0.155	-0.358
-473.259	-37.424	0.223	-0.120
-472.245	115.972	0.095	-0.117
-471.230	499.688	-0.196	-0.453
-470.216	800.000	-0.034	0.131
-469.201	-145.077	-0.021	0.002
-468.186	-119.093	0.202	-0.035
-467.172	-31.039	-0.191	-0.108
-466.157	-130.442	0.192	-0.026
-465.143	257.749	-0.268	-0.462
-464.128	-48.369	-0.095	-0.046
-463.113	-200.000	-0.002	0.272
-462.099	74.662	0.173	-0.183
-461.084	774.781	0.072	0.196
-460.070	96.916	0.228	-0.263
-459.055	-200.000	-0.025	-0.153
-458.040	65.333	-0.230	0.234
-457.026	-9.109	-0.376	0.252
-456.011	122.439	-0.114	0.143
-454.997	-38.614	0.261	0.138
-453.982	-61.763	-0.078	-0.033
-452.968	-3.181	-0.210	0.147
-451.953	-56.273	-0.079	0.035
-450.938	-156.108	0.241	-0.015
-449.924	108.135	0.176	0.210
-448.909	125.009	-0.121	0.152
-447.895	-200.000	0.035	-0.173
-446.880	-12.585	-0.178	0.116
-445.865	262.094	0.004	-0.007
-444.851	209.921	0.215	0.339
-443.836	-18.549	0.424	-0.265
-442.822	-75.874	0.154	0.055
-441.807	-102.177	-0.342	-0.083
-440.792	177.197	-0.218	0.318
-439.778	-163.040	0.130	-0.006
-438.763	-112.637	0.136	-0.027
-437.749	-117.422	-0.046	-0.008
-436.734	155.456	-0.063	0.087
-435.719	141.143	-0.049	0.065
-434.705	119.677	0.130	-0.161
-433.690	-200.000	-0.004	0.056
-432.676	800.000	0.038	0.110
-431.661	26.729	0.163	0.136
-430.646	558.338	-0.073	0.177
-429.632	259.745	0.039	0.067
-428.617	57.601	-0.019	0.019
-427.603	-200.000	-0.049	0.340
-426.588	-45.658	-0.107	0.053
-425.573	800.000	0.067	-0.209
-424.559	-87.969	0.458	0.138
-423.544	62.211	-0.128	0.128
-422.530	-125.836	-0.186	0.028
-421.515	-167.000	0.241	0.010
-420.500	800.000	-0.155	-0.505
-419.486	-22.638	0.235	0.142
-418.471	55.194	0.210	-0.203
-417.457	38.362	-0.185	-0.165
-416.442	92.495	0.277	0.312
-415.428	-114.614	-0.081	0.016
-414.413	150.658	-0.173	0.236
-413.398	800.000	0.050	0.159
-412.384	800.000	0.017	-0.063
-411.369	-41.099	0.018	-0.009
-410.355	141.153	0.089	0.118
-409.340	361.215	-0.056	0.112
-408.325	326.260	0.098	0.187
-407.311	-128.288	-0.404	0.058
-406.296	0.721	0.216	0.155
-405.282	144.536	0.246	0.329
-404.267	-101.534	0.207	0.050
-403.252	-87.887	-0.440	-0.133
-402.238	-200.000	-0.026	0.180
-401.223	-200.000	0.015	0.193
-400.209	95.681	0.179	-0.205
-399.194	22.054	-0.164	0.134
-398.179	6.325	0.087	0.065
-397.165	-81.101	-0.140	-0.046
-396.150	-154.090	0.465	-0.032
-395.136	-83.265	0.138	-0.044
-394.121	-69.005	0.210	0.081
-393.106	800.000	0.043	-0.133
-392.092	7.718	0.086	0.065
-391.077	136.533	-0.267	0.348
-390.063	46.513	-0.097	-0.090
-389.048	-33.385	0.266	0.147
-388.033	-157.287	0.417	0.025
-387.019	-151.419	0.366	-0.027
-386.004	-45.593	0.217	-0.107
-384.990	59.959	-0.217	-0.214
-383.975	-65.830	0.317	0.127
-382.960	-149.661	0.142	0.011
-381.946	-118.578	-0.271	-0.048
-380.931	800.000	0.092	0.399
-379.917	56.536	0.034	-0.033
-378.902	800.000	0.047	-0.146
-377.888	221.341	0.142	-0.227
-376.873	151.025	0.175	-0.239
-375.858	161.119	-0.164	0.229
-374.844	-165.598	0.268	0.012
-373.829	-156.227	-0.255	0.016
-372.815	-55.817	-0.020	-0.009
-371.800	-37.072	-0.426	-0.228
-370.785	54.409	-0.181	0.175
-369.771	433.137	-0.072	0.157
-368.756	-200.000	-0.001	-0.023
-367.742	-60.248	0.012	0.005
-366.727	253.390	0.188	0.322
-365.712	23.552	-0.090	0.074
-364.698	599.676	0.137	-0.341
-363.683	-110.589	-0.260	-0.054
-362.669	-200.000	0.017	0.099
-361.654	-200.000	0.005	0.046
-360.639	67.540	-0.164	0.168
-359.625	-200.000	-0.063	-0.278
-358.610	774.130	0.112	0.306
-357.596	800.000	0.063	-0.197
-356.581	6.897	0.226	-0.168
-355.566	-173.208	0.278	0.008
-354.552	11.957	0.081	-0.063
-353.537	8.526	0.280	-0.211
-352.523	-99.611	-0.080	-0.020
-351.508	-70.535	-0.151	-0.057
-350.493	274.774	-0.105	0.186
-349.479	-67.373	-0.089	0.035
-348.464	-200.000	-0.004	0.260
-347.450	-98.933	0.450	0.114
-346.435	7.816	-0.124	0.093
-345.420	206.039	0.095	-0.148
-344.406	80.586	0.120	-0.130
-343.391	-34.918	-0.242	0.132
-342.377	-89.510	0.372	-0.109
-341.362	800.000	-0.049	0.193
-340.348	-111.839	0.317	-0.064
-339.333	-111.924	0.538	-0.108
-338.318	-164.987	0.205	0.009
-337.304	-74.404	0.233	0.084
-336.289	196.342	0.091	0.139
-335.275	424.907	-0.153	0.329
-334.260	-3.376	-0.101	-0.071
-333.245	-77.736	0.212	0.073
-332.231	-103.428	0.267	-0.063
-331.216	-34.428	-0.171	0.094
-330.202	42.389	-0.214	0.194
-329.187	-118.517	-0.235	-0.041
-328.172	-108.911	0.268	-0.057
-327.158	62.539	0.190	0.189
-326.143	-122.187	-0.346	-0.057
-325.129	133.589	-0.145	-0.188
-324.114	241.749	0.283	0.471
-323.099	289.726	0.109	0.197
-322.085	-88.676	-0.318	0.094
-321.070	751.298	-0.183	0.494
-320.056	27.575	-0.095	-0.080
-319.041	-200.000	0.032	0.182
-318.026	33.400	-0.089	-0.077
-317.012	-60.733	-0.252	-0.106
-315.997	34.722	0.095	-0.083
-314.983	290.595	0.055	0.100
-313.968	5.467	-0.221	-0.163
-312.953	-23.709	-0.073	0.044
-311.939	-45.802	0.030	-0.015
-310.924	-200.000	0.015	-0.130
-309.910	20.067	0.191	-0.154
-308.895	-200.000	0.004	0.103
-307.880	42.894	0.310	0.281
-306.866	-66.061	-0.260	-0.103
-305.851	-200.000	0.021	0.180
-304.837	-16.465	0.279	0.176
-303.822	348.684	-0.088	0.172
-302.807	567.850	0.098	-0.238
-301.793	-200.000	-0.026	-0.154
-300.778	-41.313	-0.236	0.121
-299.764	-33.809	-0.352	-0.193
-298.749	176.549	0.102	0.148
-297.735	800.000	0.203	0.599
-296.720	-129.228	-0.385	0.053
-295.705	800.000	0.055	-0.165
-294.691	-74.975	-0.434	0.155
-293.676	-200.000	-0.001	-0.321
-292.662	81.552	0.110	-0.119
-291.647	-65.824	0.180	0.072
-290.632	-2.623	-0.119	0.083
-289.618	-54.105	-0.419	-0.190
-288.603	28.983	-0.170	0.143
-287.589	-99.719	0.132	-0.033
-286.574	302.483	0.108	0.199
-285.559	67.643	-0.280	-0.285
-284.545	-200.000	0.020	-0.257
-283.530	-21.562	0.144	0.087
-282.516	130.730	0.335	-0.428
-281.501	25.773	0.172	-0.143
-280.486	149.373	0.128	-0.172
-279.472	338.268	0.217	0.420
-278.457	139.257	0.115	-0.150
-277.443	744.031	-0.078	-0.208
-276.428	171.866	0.156	-0.223
-275.413	-142.009	0.319	0.032
-274.399	136.891	-0.227	-0.296
-273.384	-58.094	-0.104	0.045
-272.370	61.640	-0.126	0.125
-271.355	-19.214	0.220	-0.136
-270.340	-200.000	0.022	0.173
-269.326	214.364	0.053	0.083
-268.311	165.047	0.086	-0.121
-267.297	800.000	0.018	-0.058
-266.282	-32.253	0.472	0.263
-265.267	217.412	0.090	0.143
-264.253	77.875	-0.121	-0.129
-263.238	-97.522	0.147	-0.038
-262.224	24.619	0.119	-0.098
-261.209	-67.339	-0.297	0.116
-260.195	41.643	0.180	0.163
-259.180	41.266	0.186	-0.167
-258.165	-38.619	-0.071	-0.037
-257.151	473.192	-0.248	0.557
-256.136	-133.746	0.333	0.041
-255.122	-200.000	-0.016	0.173
-254.107	-59.488	0.369	-0.158
-253.092	98.317	0.170	-0.195
-252.078	321.580	0.077	0.146
-251.063	54.281	0.135	-0.129
-250.049	-114.579	0.198	-0.038
-249.034	-3.499	-0.162	-0.112
-248.019	-43.008	-0.107	-0.054
-247.005	-200.000	0.003	-0.190
-245.990	32.579	0.087	-0.075
-244.976	78.069	0.189	-0.200
-243.961	-39.842	0.253	0.131
-242.946	96.236	-0.098	0.111
-241.932	417.787	0.014	0.031
-240.917	396.537	-0.089	0.185
-239.903	-9.359	-0.391	0.260
-238.888	137.389	0.051	-0.066
-237.873	295.356	0.166	0.303
-236.859	63.200	0.059	-0.058
-235.844	385.424	-0.073	-0.149
-234.830	58.230	-0.400	-0.389
-233.815	-74.595	-0.132	-0.047
-232.800	800.000	-0.061	0.185
-231.786	-200.000	-0.013	0.264
-230.771	800.000	-0.077	0.276
-229.757	188.196	-0.043	-0.063
-228.742	17.660	-0.053	0.042
-227.727	58.764	0.268	-0.262
-226.713	-61.032	-0.275	0.116
-225.698	800.000	-0.098	0.358
-224.684	800.000	-0.049	0.180
-223.669	-200.000	-0.004	-0.423
-222.655	-88.749	0.333	-0.098
-221.640	48.406	-0.150	-0.139
-220.625	-101.600	0.174	0.042
-219.611	-105.257	-0.301	-0.068
-218.596	480.384	0.108	-0.242
-217.582	32.310	0.138	0.119
-216.567	-22.114	-0.234	-0.141
-215.552	-92.739	-0.348	-0.097
-214.538	-200.000	0.012	-0.144
-213.523	259.144	-0.136	-0.233
-212.509	18.495	-0.291	-0.231
-211.494	800.000	-0.078	-0.285
-210.479	207.692	0.078	-0.121
-209.465	-200.000	-0.071	0.458
-208.450	18.238	-0.144	0.114
-207.436	-145.181	0.331	0.030
-206.421	-200.000	-0.093	0.425
-205.406	-121.625	0.360	-0.059
-204.392	-45.499	-0.139	0.068
-203.377	634.463	-0.035	-0.089
-202.363	78.497	-0.062	-0.065
-201.348	42.187	-0.087	0.079
-200.333	-51.335	0.135	0.063
-199.319	-44.973	0.126	0.062
-198.304	800.000	0.025	-0.073
-197.290	-132.593	-0.476	-0.061
-196.275	108.766	-0.122	-0.145
-195.260	258.801	0.114	-0.195
-194.246	800.000	-0.035	0.132
-193.231	800.000	0.077	-0.238
-192.217	-123.081	0.295	-0.047
-191.202	0.936	-0.226	0.161
-190.187	-34.668	-0.285	0.155
-189.173	-122.710	0.314	0.050
-188.158	279.863	0.090	0.160
-187.144	800.000	-0.039	0.167
-186.129	85.690	0.116	0.126
-185.114	39.931	0.109	0.097
-184.100	63.088	-0.306	-0.304
-183.085	-200.000	-0.015	0.136
-182.071	-26.033	-0.324	0.189
-181.056	33.154	0.102	-0.088
-180.042	-200.000	0.041	-0.244
-179.027	-79.867	0.466	-0.156
-178.012	161.539	0.096	-0.133
-176.998	800.000	0.042	-0.128
-175.983	-120.607	0.099	0.017
-174.969	-125.509	0.185	-0.028
-173.954	494.278	-0.183	-0.417
-172.939	-148.669	-0.291	0.023
-171.925	578.050	0.163	0.396
-170.910	800.000	-0.092	0.319
-169.896	-117.885	0.050	0.009
-168.881	-200.000	-0.020	-0.094
-167.866	58.856	0.037	0.036
-166.852	102.756	-0.230	-0.267
-165.837	-4.782	-0.203	0.139
-164.823	-128.656	0.106	-0.015
-163.808	78.426	0.092	-0.097
-162.793	800.000	0.085	0.255
-161.779	-84.054	-0.391	0.123
-160.764	-133.370	-0.226	-0.028
-159.750	152.793	-0.168	0.228
-158.735	800.000	-0.074	0.281
-157.720	595.140	-0.080	0.197
-156.706	-181.532	-0.086	0.002
-155.691	-200.000	0.001	-0.199
-154.677	-84.408	-0.147	-0.046
-153.662	-163.562	0.074	-0.003
-152.647	49.737	-0.401	0.374
-151.633	-60.060	-0.105	0.044
-150.618	531.379	-0.100	0.235
-149.604	197.363	0.068	-0.103
-148.589	800.000	0.072	-0.280
-147.574	-135.300	0.092	0.011
-146.560	-200.000	0.015	-0.116
-145.545	800.000	-0.024	0.100
-144.531	-58.689	-0.017	-0.007
-143.516	34.954	0.376	0.326
-142.502	75.933	0.131	0.138
-141.487	-42.418	-0.324	0.164
-140.472	359.554	-0.029	0.057
-139.458	-63.010	-0.105	0.043
-138.443	69.941	-0.138	0.141
-137.429	-200.000	0.018	0.094
-136.414	-70.953	-0.178	0.066
-135.399	97.036	-0.113	0.128
-134.385	-0.255	-0.305	0.215
-133.370	-6.883	-0.182	0.123
-132.356	315.629	-0.099	-0.185
-131.341	230.418	-0.252	-0.408
-130.326	194.055	-0.291	-0.436
-129.312	-59.193	0.094	-0.040
-128.297	-37.281	-0.116	0.061
-127.283	-200.000	-0.038	-0.192
-126.268	58.862	0.289	-0.281
-125.253	227.825	-0.210	-0.338
-124.239	363.626	0.158	0.313
-123.224	-100.218	0.067	-0.016
-122.210	83.046	-0.156	-0.168
-121.195	-111.262	-0.034	0.007
-120.180	43.862	0.156	-0.141
-119.166	-200.000	-0.040	0.250
-118.151	295.007	0.026	-0.047
-117.137	-74.241	0.268	0.096
-116.122	164.356	0.339	0.473
-115.107	-162.894	0.350	0.017
-114.093	-78.160	0.087	-0.030
-113.078	-99.329	0.243	0.061
-112.064	90.684	-0.162	0.179
-111.049	800.000	0.028	0.091
-110.034	-200.000	0.041	0.182
-109.020	-60.475	0.222	-0.093
-108.005	474.645	-0.125	0.280
-106.991	93.063	0.079	0.088
-105.976	-82.397	-0.281	0.090
-104.962	55.502	-0.254	0.243
-103.947	52.997	0.133	0.126
-102.932	-62.517	-0.073	-0.030
-101.918	9.581	-0.234	-0.175
-100.903	-200.000	0.071	0.000
-99.889	103.854	0.120	-0.139
-98.874	-84.809	-0.116	-0.036
-97.859	540.784	-0.125	0.294
-96.845	-200.000	-0.023	0.119
-95.830	-4.802	-0.169	0.115
-94.816	-171.059	-0.228	0.008
-93.801	-75.586	0.457	0.161
-92.786	-18.161	0.026	-0.016
-91.772	508.668	0.149	0.343
-90.757	112.311	-0.107	0.128
-89.743	178.425	0.115	0.166
-88.728	42.720	0.094	0.085
-87.713	290.413	-0.092	-0.166
-86.699	20.044	-0.109	-0.087
-85.684	-200.000	0.005	0.255
-84.670	-146.582	0.027	-0.002
-83.655	-200.000	-0.006	0.111
-82.640	208.709	0.165	-0.256
-81.626	494.946	-0.216	-0.489
-80.611	46.408	0.178	-0.163
-79.597	-11.298	0.068	-0.044
-78.582	-200.000	0.001	0.020
-77.567	36.915	0.405	0.354
-76.553	-177.020	0.194	-0.005
-75.538	252.535	0.093	0.157
-74.524	-59.165	0.216	-0.092
-73.509	-11.263	0.254	0.166
-72.494	12.536	-0.211	0.161
-71.480	-155.399	-0.153	0.010
-70.465	142.846	-0.165	0.217
-69.451	26.328	-0.058	0.047
-68.436	-70.288	-0.237	-0.089
-67.422	16.281	0.163	0.127
-66.407	238.299	0.050	-0.083
-65.392	33.985	-0.104	-0.090
-64.378	-169.457	-0.195	-0.007
-63.363	-200.000	-0.039	0.212
-62.349	-11.223	0.097	0.063
-61.334	263.591	-0.648	-1.112
-60.319	-42.705	0.489	0.245
-59.305	272.652	-0.461	-0.803
-58.290	301.416	0.464	0.846
-57.276	498.902	0.713	1.622
-56.261	-200.000	90.070	500.881
-55.246	546.740	1368.086	3230.911
-54.232	185.043	2619.194	3835.937
-53.217	110.143	2341.070	2774.544
-52.203	44.418	1950.697	1768.417
-51.188	38.613	1733.991	1526.827
-50.173	35.866	1688.196	1465.559
-49.159	51.278	1733.534	1624.148
-48.144	54.582	1751.605	1666.509
-47.130	38.457	1709.520	1503.836
-46.115	35.561	1694.476	1468.445
-45.100	35.359	1689.452	1462.492
-44.086	35.380	1686.747	1460.255
-43.071	35.303	1684.433	1457.604
-42.057	35.382	1681.723	1455.799
-41.042	35.350	1679.689	1453.741
-40.027	35.379	1678.144	1452.567
-39.013	35.281	1676.686	1450.503
-37.998	35.237	1674.767	1448.458
-36.984	35.291	1673.108	1447.373
-35.969	35.585	1671.095	1447.791
-34.954	35.561	1669.896	1446.510
-33.940	35.494	1668.227	1444.505
-32.925	35.618	1666.442	1443.833
-31.911	35.541	1664.472	1441.488
-30.896	35.426	1663.385	1439.627
-29.881	35.517	1661.559	1438.674
-28.867	35.534	1660.026	1437.415
-27.852	35.489	1658.804	1435.964
-26.838	35.486	1657.067	1434.381
-25.823	35.549	1655.609	1433.534
-24.809	35.518	1654.082	1431.924
-23.794	35.539	1652.979	1431.068
-22.779	35.563	1650.949	1429.433
-21.765	35.549	1649.099	1427.672
-20.750	35.416	1647.966	1425.648
-19.736	35.566	1646.177	1425.156
-18.721	35.610	1644.505	1423.974
-17.706	35.592	1642.808	1422.313
-16.692	35.592	1641.478	1421.109
-15.677	35.515	1640.014	1419.214
-14.663	35.533	1638.755	1418.199
-13.648	35.531	1637.369	1416.931
-12.633	35.618	1635.512	1415.911
-11.619	35.609	1634.502	1414.913
-10.604	35.535	1632.954	1412.975
-9.590	35.614	1631.445	1412.194
-8.575	35.651	1629.948	1411.108
-7.560	35.578	1628.779	1409.510
-6.546	35.519	1628.173	1408.493
-5.531	35.534	1626.692	1407.268
-4.517	35.564	1625.476	1406.378
-3.502	35.508	1624.806	1405.335
-2.487	35.616	1622.979	1404.489
-1.473	35.589	1612.079	1394.804
-0.458	33.469	1593.123	1363.115
0.556	28.457	1594.096	1334.126
1.571	26.263	1620.092	1339.522
2.586	25.686	1634.915	1347.337
3.600	22.328	1579.523	1277.239
4.615	11.427	1461.252	1107.887
5.629	1.960	1390.317	992.625
6.644	0.280	1381.873	975.639
7.659	0.084	1380.362	973.217
8.673	0.158	1378.734	972.459
9.688	0.058	1377.145	970.612
10.702	-0.176	1373.834	966.686
11.717	3.356	1381.138	994.567
12.731	13.762	1401.635	1077.109
13.746	21.649	1415.611	1139.271
14.761	23.070	1417.296	1149.771
15.775	23.275	1416.394	1150.269
16.790	23.286	1416.267	1150.133
17.804	23.413	1415.439	1150.187
18.819	23.652	1415.278	1151.504
19.834	23.716	1414.475	1151.164
20.848	23.737	1413.919	1150.741
21.863	23.660	1412.911	1149.324
22.877	23.738	1411.824	1148.844
23.892	23.649	1410.921	1147.432
24.907	23.656	1410.228	1146.808
25.921	23.641	1409.698	1146.182
26.936	23.763	1408.441	1145.847
27.950	23.765	1407.303	1144.830
28.965	23.667	1405.828	1142.896
29.980	23.774	1404.201	1142.162
30.994	23.763	1402.914	1140.947
32.009	23.647	1402.256	1139.564
33.023	23.701	1400.778	1138.606
34.038	23.677	1399.688	1137.466
35.053	23.718	1398.785	1136.894
36.067	23.806	1397.731	1136.503
37.082	23.704	1397.152	1135.277
38.096	23.716	1395.624	1134.015
39.111	23.646	1395.373	1133.263
40.126	23.735	1394.504	1133.022
41.140	23.806	1393.483	1132.547
42.155	23.695	1393.852	1132.039
43.169	23.766	1393.630	1132.211
44.184	23.607	1394.022	1131.417
45.199	23.643	1393.093	1130.788
46.213	23.700	1392.210	1130.334
47.228	23.700	1391.058	1129.302
48.242	23.657	1390.337	1128.339
49.257	23.714	1388.764	1127.328
50.271	23.672	1387.265	1125.747
51.286	23.728	1385.753	1124.772
52.301	23.706	1384.671	1123.655
53.315	23.635	1383.869	1122.455
54.330	23.748	1383.314	1122.621
55.344	23.699	1381.987	1121.132
56.359	23.694	1381.052	1120.246
57.374	23.705	1380.358	1119.653
58.388	23.683	1379.566	1118.772
59.403	23.680	1379.529	1118.628
60.417	23.750	1378.241	1117.925
61.432	23.685	1377.616	1116.907
62.447	23.670	1376.849	1116.093
63.461	23.746	1375.871	1115.677
64.476	23.721	1374.451	1114.270
65.490	23.713	1373.228	1113.129
66.505	23.699	1372.001	1111.950
67.520	23.673	1370.735	1110.661
68.534	23.696	1369.537	1109.738
69.549	23.713	1368.606	1108.994
70.563	23.612	1368.004	1107.778
71.578	23.708	1366.716	1107.230
72.593	23.729	1365.582	1106.346
73.607	23.745	1365.044	1105.913
74.622	23.698	1364.543	1105.115
75.636	23.745	1363.205	1104.226
76.651	23.694	1362.874	1103.546
77.666	23.703	1362.579	1103.263
78.680	23.685	1361.888	1102.497
79.695	23.751	1360.667	1101.817
80.709	23.744	1360.182	1101.285
81.724	23.714	1359.742	1100.649
82.739	23.738	1357.862	1099.173
83.753	23.660	1357.462	1098.273
84.768	23.793	1356.057	1097.862
85.782	23.735	1355.168	1096.682
86.797	23.811	1353.860	1095.997
87.812	23.683	1352.932	1094.359
88.826	23.794	1351.878	1094.093
89.841	23.717	1351.004	1092.819
90.855	23.867	1349.334	1092.290
91.870	23.744	1348.696	1090.921
92.884	23.850	1347.847	1090.791
93.899	23.725	1347.547	1089.682
94.914	23.796	1346.685	1089.325
95.928	23.725	1345.617	1087.933
96.943	23.741	1345.046	1087.471
97.957	23.723	1344.526	1086.841
98.972	23.792	1343.434	1086.289
99.987	23.743	1342.820	1085.392
101.001	23.770	1341.398	1084.312
102.016	23.707	1340.341	1082.977
103.030	23.790	1339.574	1082.768
104.045	23.786	1338.705	1081.947
105.060	23.787	1337.914	1081.217
106.074	23.727	1336.935	1079.965
107.089	23.770	1335.564	1079.022
108.103	23.845	1334.370	1078.417
109.118	23.820	1333.763	1077.682
110.133	23.892	1332.443	1076.954
111.147	23.824	1330.958	1075.250
112.162	23.756	1330.210	1074.139
113.176	23.786	1329.370	1073.544
114.191	23.738	1328.418	1072.391
115.206	23.889	1326.666	1071.793
116.220	23.718	1326.367	1070.426
117.235	23.812	1325.585	1070.269
118.249	23.821	1324.295	1069.185
119.264	23.799	1323.409	1068.244
120.279	23.906	1322.281	1067.881
121.293	23.818	1321.710	1066.796
122.308	23.879	1320.884	1066.399
123.322	23.869	1319.620	1065.226
124.337	23.937	1318.679	1064.781
125.352	23.967	1317.775	1064.139
126.366	23.914	1317.061	1063.151
127.381	23.827	1316.067	1061.732
128.395	23.885	1315.157	1061.250
129.410	23.918	1314.362	1060.709
130.424	23.866	1313.875	1059.912
131.439	23.928	1312.794	1059.317
132.454	23.828	1312.234	1058.175
133.468	23.859	1311.299	1057.515
134.483	23.908	1310.834	1057.336
135.497	23.910	1309.807	1056.426
136.512	23.889	1308.793	1055.388
137.527	23.828	1308.057	1054.340
138.541	23.818	1306.151	1052.653
139.556	23.833	1305.499	1052.121
140.570	23.765	1304.421	1050.759
141.585	23.903	1302.860	1050.222
142.600	23.753	1301.855	1048.434
143.614	23.860	1301.033	1048.313
144.629	23.875	1299.722	1047.251
145.643	23.815	1298.818	1046.074
146.658	23.713	1297.947	1044.683
147.673	23.844	1296.715	1044.368
148.687	23.727	1296.115	1043.105
149.702	23.746	1294.823	1042.087
150.716	23.817	1293.911	1041.678
151.731	23.759	1292.740	1040.298
152.746	23.831	1291.170	1039.368
153.760	23.808	1290.827	1038.866
154.775	23.842	1289.696	1038.063
155.789	23.739	1288.731	1036.592
156.804	23.876	1287.891	1036.622
157.819	23.837	1287.131	1035.694
158.833	23.915	1285.887	1035.052
159.848	23.921	1285.208	1034.451
160.862	23.886	1284.495	1033.582
161.877	23.897	1283.888	1033.063
162.892	23.920	1282.878	1032.294
163.906	23.906	1282.081	1031.481
164.921	23.926	1281.550	1031.078
165.935	23.958	1280.499	1030.325
166.950	24.017	1279.977	1030.154
167.964	24.072	1279.136	1029.705
168.979	24.000	1278.922	1029.029
169.994	24.068	1278.310	1028.836
171.008	23.962	1277.781	1027.708
172.023	24.048	1276.779	1027.307
173.037	23.929	1276.227	1026.087
174.052	24.113	1275.093	1026.142
175.067	24.034	1274.561	1025.169
176.081	23.935	1273.715	1023.827
177.096	23.999	1273.091	1023.603
178.110	24.007	1271.893	1022.594
179.125	24.041	1270.999	1021.984
180.140	24.104	1269.615	1021.141
181.154	24.032	1268.731	1019.927
182.169	23.978	1267.646	1018.653
183.183	24.064	1266.368	1018.032
184.198	24.025	1265.489	1017.012
185.213	24.121	1264.351	1016.553
186.227	24.036	1264.163	1015.827
187.242	23.995	1263.278	1014.790
188.256	24.110	1261.975	1014.310
189.271	24.046	1261.187	1013.226
190.286	24.080	1260.358	1012.660
191.300	24.128	1259.756	1012.361
192.315	23.933	1260.084	1011.428
193.329	24.076	1259.150	1011.397
194.344	24.131	1258.695	1011.254
195.359	24.065	1258.154	1010.356
196.373	23.962	1257.812	1009.410
197.388	24.005	1257.437	1009.264
198.402	24.014	1256.780	1008.699
199.417	24.038	1256.648	1008.636
200.432	24.023	1255.393	1007.457
201.446	23.908	1255.393	1006.717
202.461	24.025	1254.236	1006.361
203.475	24.007	1253.767	1005.796
204.490	24.113	1252.583	1005.357
205.504	24.002	1251.509	1003.774
206.519	24.044	1250.481	1003.099
207.534	24.063	1249.526	1002.352
208.548	24.176	1248.494	1002.069
209.563	24.126	1247.794	1001.142
210.577	24.160	1247.051	1000.646
211.592	24.122	1246.239	999.691
212.607	24.266	1245.269	999.634
213.621	24.199	1244.736	998.742
214.636	24.282	1243.924	998.468
215.650	24.235	1243.011	997.381
216.665	24.152	1242.103	996.103
217.680	24.213	1240.788	995.299
218.694	24.169	1240.515	994.748
219.709	24.172	1239.771	994.078
220.723	24.187	1239.073	993.513
221.738	24.242	1238.415	993.208
222.753	24.036	1237.866	991.531
223.767	24.215	1237.017	991.762
224.782	24.246	1236.609	991.514
225.796	24.200	1236.247	990.882
226.811	24.270	1235.491	990.577
227.826	24.325	1234.275	989.822
228.840	24.235	1234.108	989.097
229.855	24.231	1233.853	988.788
230.869	24.318	1232.707	988.260
231.884	24.186	1231.949	986.834
232.899	24.338	1231.347	987.109
233.913	24.216	1231.007	986.073
234.928	24.259	1230.342	985.690
235.942	24.338	1229.602	985.445
236.957	24.407	1228.873	985.158
237.972	24.240	1228.229	983.634
238.986	24.361	1227.229	983.411
240.001	24.467	1226.885	983.631
241.015	24.433	1226.139	982.758
242.030	24.380	1225.360	981.756
243.045	24.489	1224.524	981.601
244.059	24.522	1223.480	980.859
245.074	24.493	1222.557	979.869
246.088	24.441	1222.311	979.302
247.103	24.554	1221.118	978.882
248.117	24.444	1221.126	978.195
249.132	24.510	1219.743	977.365
250.147	24.458	1219.121	976.493
251.161	24.483	1218.560	976.092
252.176	24.534	1217.712	975.607
253.190	24.574	1216.839	975.043
254.205	24.521	1216.760	974.600
255.220	24.631	1215.855	974.391
256.234	24.575	1215.489	973.706
257.249	24.614	1214.474	973.017
258.263	24.531	1214.200	972.259
259.278	24.547	1213.805	971.944
260.293	24.547	1212.752	971.014
261.307	24.714	1212.444	971.591
262.322	24.517	1212.047	970.115
263.336	24.443	1211.590	969.263
264.351	24.528	1210.744	968.964
265.366	24.596	1209.804	968.495
266.380	24.613	1209.137	967.964
267.395	24.540	1208.524	966.992
268.409	24.535	1207.906	966.387
269.424	24.649	1207.249	966.391
270.439	24.603	1206.960	965.825
271.453	24.588	1206.279	965.113
272.468	24.586	1205.320	964.252
273.482	24.472	1204.670	963.032
274.497	24.567	1204.662	963.450
275.512	24.644	1203.826	963.111
276.526	24.658	1203.330	962.707
277.541	24.679	1201.790	961.502
278.555	24.745	1201.214	961.311
279.570	24.680	1200.899	960.625
280.585	24.675	1199.909	959.720
281.599	24.671	1199.147	959.005
282.614	24.626	1198.162	957.893
283.628	24.761	1196.952	957.563
284.643	24.746	1196.272	956.851
285.657	24.723	1195.699	956.189
286.672	24.743	1194.451	955.212
287.687	24.827	1194.032	955.240
288.701	24.837	1193.239	954.573
289.716	24.867	1192.838	954.331
290.730	24.997	1191.827	954.128
291.745	24.793	1191.262	952.504
292.760	24.819	1190.645	952.064
293.774	24.920	1190.242	952.197
294.789	24.862	1189.709	951.377
295.803	24.991	1188.874	951.313
296.818	24.794	1188.403	949.803
297.833	24.860	1187.640	949.461
298.847	24.877	1186.904	948.876
299.862	24.952	1186.261	948.679
300.876	24.913	1185.787	948.008
301.891	24.927	1184.953	947.331
302.906	24.957	1184.428	946.986
303.920	24.920	1183.660	946.092
304.935	24.963	1182.894	945.624
305.949	24.964	1182.542	945.262
306.964	24.897	1182.362	944.683
307.979	25.008	1181.111	944.186
308.993	25.030	1180.585	943.797
310.008	25.060	1179.633	943.110
311.022	25.127	1178.732	942.660
312.037	25.142	1177.724	941.846
313.052	25.050	1176.996	940.700
314.066	25.116	1176.074	940.225
315.081	25.010	1175.748	939.324
316.095	25.068	1174.780	938.775
317.110	25.073	1174.513	938.504
318.125	25.152	1173.619	938.120
319.139	25.101	1173.341	937.546
320.154	25.028	1172.871	936.705
321.168	25.071	1172.125	936.251
322.183	25.057	1171.639	935.706
323.197	25.122	1170.872	935.351
324.212	25.091	1170.419	934.745
325.227	25.080	1169.798	934.109
326.241	25.086	1169.640	933.931
327.256	25.144	1168.415	933.176
328.270	25.202	1167.716	932.834
329.285	25.193	1166.793	931.967
330.300	25.061	1166.076	930.629
331.314	25.154	1165.190	930.318
332.329	25.104	1164.566	929.483
333.343	25.135	1163.889	929.020
334.358	25.273	1162.697	928.698
335.373	25.324	1161.880	928.229
336.387	25.243	1161.680	927.565
337.402	25.321	1160.855	927.228
338.416	25.332	1159.774	926.341
339.431	25.199	1159.638	925.465
340.446	25.391	1158.892	925.775
341.460	25.431	1158.569	925.642
342.475	25.391	1157.704	924.666
343.489	25.329	1156.815	923.552
344.504	25.423	1155.766	923.116
345.519	25.440	1154.709	922.280
346.533	25.420	1154.286	921.755
347.548	25.418	1153.409	920.965
348.562	25.465	1152.589	920.471
349.577	25.422	1151.853	919.580
350.592	25.316	1151.408	918.600
351.606	25.368	1150.660	918.186
352.621	25.463	1150.138	918.177
353.635	25.512	1149.204	917.596
354.650	25.396	1148.822	916.622
355.665	25.565	1147.912	916.678
356.679	25.524	1147.341	915.932
357.694	25.543	1147.027	915.695
358.708	25.510	1145.965	914.596
359.723	25.529	1145.260	914.049
360.738	25.509	1144.859	913.548
361.752	25.537	1144.255	913.125
362.767	25.588	1143.640	912.813
363.781	25.573	1142.976	912.129
364.796	25.595	1142.496	911.773
365.810	25.702	1141.602	911.526
366.825	25.640	1141.337	910.918
367.840	25.706	1140.970	910.877
368.854	25.792	1140.275	910.677
369.869	25.727	1139.292	909.481
370.883	25.754	1138.511	908.914
371.898	25.630	1138.412	908.128
372.913	25.680	1137.462	907.542
373.927	25.709	1137.047	907.280
374.942	25.760	1136.380	906.924
375.956	25.709	1136.370	906.576
376.971	25.715	1135.737	906.021
377.986	25.672	1135.125	905.239
379.000	25.677	1134.804	904.928
380.015	25.828	1133.665	904.699
381.029	25.668	1133.097	903.363
382.044	25.809	1132.111	903.202
383.059	25.815	1131.643	902.777
384.073	25.852	1130.935	902.322
385.088	25.840	1130.123	901.532
386.102	25.886	1129.698	901.343
387.117	25.787	1128.567	899.864
388.132	25.869	1127.246	899.144
389.146	25.804	1127.063	898.591
390.161	25.801	1126.701	898.208
391.175	25.839	1125.692	897.515
392.190	25.983	1124.605	897.285
393.205	25.967	1123.882	896.552
394.219	25.922	1123.737	896.130
395.234	25.959	1122.884	895.556
396.248	25.944	1122.129	894.802
397.263	25.954	1121.475	894.250
398.278	26.007	1120.532	893.682
399.292	26.069	1119.348	892.962
400.307	26.161	1118.507	892.667
401.321	26.055	1118.378	891.965
402.336	26.136	1117.678	891.723
403.350	26.037	1117.328	890.880
404.365	26.074	1116.754	890.525
405.380	26.101	1116.181	890.121
406.394	26.136	1115.232	889.461
407.409	26.236	1114.212	889.057
408.423	26.124	1113.419	887.797
409.438	26.152	1113.095	887.599
410.453	26.228	1112.103	887.100
411.467	26.209	1111.635	886.555
412.482	26.224	1110.993	886.041
413.496	26.182	1110.532	885.388
414.511	26.260	1109.865	885.161
415.526	26.359	1108.929	884.821
416.540	26.122	1108.799	883.477
417.555	26.171	1108.304	883.244
418.569	26.216	1107.759	882.953
419.584	26.218	1107.777	882.898
420.599	26.245	1107.079	882.397
421.613	144.528	1404.085	1789.293
422.628	134.175	1447.347	1789.405
