DTS Sentinel unit serial number:	SN413079Multiplexer serial number:	ORYXHardware model number:	OX4-SRSoftware version number:	ORYX F/W v4.00 Oryx Data Collector v3.7.2.0data status	okinstallation	princeton_trtdifferential loss correction	single-endedforward channel	channel 2reverse channel	N/Adate	2019/09/11time	01:21:11forward acquisition time	60.00reverse acquisition time	0.00gamma	496.2192k internal	0.2332k external	0.2332temperature offset calibration	0.9939default loss term (dB/km)	0.3790temperature slope calibration	1.0000multiplexer offset coefficient	1.0000multiplexer slope coefficient	1.0000fibre end	0.00T internal ref (°C)	29.12T ext. ref 1 (°C)	-0.30T ext. ref 2 (°C)	23.22length (m)	temperature (°C)	Stokes	anti-Stokes-747.200	130.640	-0.095	-0.123
-746.185	69.656	-0.170	0.177
-745.171	-200.000	0.034	-0.452
-744.156	-27.838	-0.287	0.168
-743.142	-200.000	-0.015	0.301
-742.127	245.813	-0.193	0.328
-741.112	-151.430	-0.256	-0.019
-740.098	149.367	-0.245	-0.334
-739.083	13.204	0.296	-0.231
-738.069	324.575	0.217	0.417
-737.054	236.570	0.015	-0.024
-736.039	85.103	-0.164	-0.181
-735.025	181.034	0.180	0.266
-734.010	800.000	-0.094	-0.328
-732.996	-200.000	0.036	0.172
-731.981	0.413	-0.217	-0.156
-730.966	800.000	-0.046	-0.143
-729.952	-200.000	-0.062	-0.294
-728.937	-102.466	-0.199	-0.048
-727.923	-121.815	-0.371	-0.062
-726.908	478.540	-0.071	-0.162
-725.894	-79.685	-0.189	0.064
-724.879	-168.825	-0.326	-0.012
-723.864	46.217	-0.149	-0.139
-722.850	-53.800	-0.251	-0.115
-721.835	23.003	-0.278	0.229
-720.821	244.226	0.064	-0.108
-719.806	-73.616	-0.125	-0.046
-718.791	-110.328	0.304	-0.063
-717.777	1.620	-0.282	0.204
-716.762	588.276	-0.216	-0.536
-715.748	-200.000	-0.007	0.041
-714.733	-200.000	-0.024	0.176
-713.718	-200.000	-0.069	-0.310
-712.704	-94.738	0.081	-0.022
-711.689	-71.719	0.131	-0.049
-710.675	-71.345	-0.416	-0.157
-709.660	-17.576	0.224	0.142
-708.645	98.435	-0.134	-0.155
-707.631	-200.000	-0.081	-0.359
-706.616	-200.000	0.020	-0.362
-705.602	166.988	-0.260	-0.371
-704.587	-113.227	-0.176	0.035
-703.572	-200.000	-0.017	0.208
-702.558	258.821	0.164	-0.284
-701.543	58.668	0.186	0.183
-700.529	800.000	-0.023	-0.070
-699.514	433.576	0.138	-0.301
-698.499	800.000	0.153	0.485
-697.485	68.475	-0.322	0.332
-696.470	-134.200	-0.236	0.029
-695.456	-68.862	0.268	0.104
-694.441	47.589	-0.049	0.046
-693.426	306.477	-0.051	0.095
-692.412	38.109	-0.057	0.051
-691.397	-200.000	-0.010	0.145
-690.383	-200.000	0.042	-0.215
-689.368	50.927	0.082	0.078
-688.354	-58.098	-0.150	-0.066
-687.339	-38.576	-0.137	0.073
-686.324	67.029	-0.231	-0.236
-685.310	800.000	0.036	0.100
-684.295	116.031	-0.190	0.233
-683.281	800.000	0.055	0.230
-682.266	-200.000	0.035	0.164
-681.251	524.811	-0.088	-0.209
-680.237	800.000	0.066	0.185
-679.222	580.481	-0.010	-0.025
-678.208	-38.146	0.208	0.111
-677.193	800.000	0.072	0.203
-676.178	800.000	-0.073	0.286
-675.164	487.384	-0.078	0.179
-674.149	-100.482	0.163	-0.041
-673.135	49.629	0.318	0.300
-672.120	-148.373	0.488	-0.040
-671.105	-44.063	-0.079	0.040
-670.091	800.000	-0.113	-0.351
-669.076	-200.000	-0.002	0.284
-668.062	9.031	-0.056	0.043
-667.047	800.000	0.072	-0.313
-666.032	-116.455	-0.150	-0.028
-665.018	-200.000	0.013	0.327
-664.003	-79.683	-0.134	-0.045
-662.989	4.744	-0.047	-0.035
-661.974	135.953	0.169	-0.221
-660.959	-92.501	-0.374	0.105
-659.945	-200.000	-0.061	-0.345
-658.930	-80.035	0.095	-0.032
-657.916	-9.289	-0.135	0.090
-656.901	-70.154	-0.225	-0.086
-655.886	509.891	-0.101	0.235
-654.872	138.087	0.149	-0.195
-653.857	46.460	-0.036	0.033
-652.843	25.265	-0.112	0.093
-651.828	-48.636	-0.241	-0.116
-650.814	-135.666	-0.301	-0.036
-649.799	800.000	0.100	-0.325
-648.784	-66.167	-0.204	-0.082
-647.770	-200.000	0.024	-0.347
-646.755	44.615	-0.184	0.170
-645.741	753.897	-0.092	0.250
-644.726	585.246	-0.142	-0.350
-643.711	800.000	0.097	-0.285
-642.697	754.745	0.049	-0.133
-641.682	-1.214	-0.091	0.064
-640.668	-70.660	0.383	0.145
-639.653	698.674	-0.095	-0.250
-638.638	49.855	0.300	-0.284
-637.624	-200.000	0.009	0.083
-636.609	3.577	-0.262	0.192
-635.595	-113.543	-0.093	0.018
-634.580	-111.945	-0.229	0.046
-633.565	800.000	-0.020	-0.058
-632.551	-200.000	0.005	-0.196
-631.536	-200.000	0.014	0.210
-630.522	800.000	0.015	-0.053
-629.507	459.720	0.113	-0.253
-628.492	-178.541	0.167	-0.004
-627.478	-55.522	-0.379	0.170
-626.463	74.841	-0.041	0.043
-625.449	62.972	0.117	-0.117
-624.434	-83.140	0.084	-0.027
-623.419	233.947	0.191	-0.316
-622.405	-82.658	-0.173	0.056
-621.390	-200.000	-0.024	-0.268
-620.376	102.236	-0.164	0.191
-619.361	-200.000	-0.014	0.074
-618.346	371.612	-0.113	0.230
-617.332	581.656	0.027	0.066
-616.317	-102.295	0.077	0.018
-615.303	297.880	0.031	0.057
-614.288	-114.410	-0.332	-0.064
-613.273	-200.000	0.023	0.317
-612.259	50.283	-0.060	-0.056
-611.244	367.773	-0.140	-0.284
-610.230	-200.000	-0.007	-0.068
-609.215	-149.611	-0.244	0.019
-608.201	-12.025	-0.142	0.093
-607.186	-61.307	-0.170	-0.072
-606.171	-90.382	-0.407	0.118
-605.157	-200.000	-0.012	0.150
-604.142	-200.000	-0.017	0.112
-603.128	66.241	0.099	0.100
-602.113	-5.356	0.248	-0.170
-601.098	480.738	0.080	0.181
-600.084	-166.002	-0.031	0.001
-599.069	179.059	0.004	0.006
-598.055	228.764	-0.083	-0.136
-597.040	-200.000	-0.002	-0.110
-596.025	-200.000	-0.051	-0.300
-595.011	-87.419	-0.180	0.054
-593.996	-200.000	0.023	-0.104
-592.982	-82.989	-0.431	-0.139
-591.967	97.406	-0.179	-0.206
-590.952	-159.626	-0.167	-0.009
-589.938	96.376	0.043	-0.049
-588.923	-182.770	0.335	0.006
-587.909	27.623	0.071	0.060
-586.894	548.846	-0.062	-0.149
-585.879	314.510	-0.162	0.305
-584.865	179.361	0.212	-0.310
-583.850	-156.904	0.160	-0.010
-582.836	107.353	-0.092	0.109
-581.821	-155.409	-0.204	0.013
-580.806	-200.000	0.077	-0.338
-579.792	-70.515	-0.286	0.108
-578.777	28.856	0.216	-0.183
-577.763	284.152	-0.068	0.122
-576.748	-126.417	-0.413	-0.061
-575.733	42.228	-0.142	0.129
-574.719	167.725	0.255	-0.362
-573.704	-200.000	-0.001	-0.203
-572.690	-79.470	0.281	-0.095
-571.675	444.953	-0.106	0.234
-570.661	800.000	0.112	0.418
-569.646	-200.000	0.021	-0.094
-568.631	82.601	0.179	0.194
-567.617	-105.206	-0.116	0.027
-566.602	-149.679	0.420	0.033
-565.588	-200.000	0.014	0.073
-564.573	-51.376	-0.107	-0.050
-563.558	177.191	0.049	0.071
-562.544	-118.053	0.087	0.016
-561.529	-76.748	-0.297	0.104
-560.515	43.940	-0.110	0.101
-559.500	-200.000	-0.048	-0.251
-558.485	-37.898	0.047	0.025
-557.471	-88.139	0.077	0.023
-556.456	111.871	-0.162	0.195
-555.442	46.361	0.156	0.145
-554.427	-48.721	0.281	-0.135
-553.412	138.188	0.038	0.050
-552.398	800.000	0.056	-0.197
-551.383	104.519	0.223	0.262
-550.369	-156.441	-0.159	0.010
-549.354	-200.000	0.018	-0.084
-548.339	-76.342	0.314	0.110
-547.325	-59.281	0.190	0.082
-546.310	800.000	0.073	-0.304
-545.296	206.695	0.165	0.257
-544.281	223.192	-0.088	0.142
-543.266	46.452	0.104	0.096
-542.252	42.391	-0.282	0.256
-541.237	208.919	-0.116	-0.181
-540.223	107.561	0.148	-0.176
-539.208	-31.388	-0.183	-0.103
-538.193	-200.000	0.002	-0.149
-537.179	41.890	0.172	0.156
-536.164	42.853	-0.161	-0.147
-535.150	-78.040	-0.359	-0.123
-534.135	-200.000	0.033	-0.182
-533.121	-140.059	0.226	0.024
-532.106	109.515	-0.116	0.139
-531.091	102.916	-0.083	0.097
-530.077	127.527	-0.262	0.332
-529.062	18.395	-0.159	0.127
-528.048	442.451	-0.097	0.211
-527.033	-200.000	-0.039	0.294
-526.018	1.916	-0.062	-0.044
-525.004	159.224	-0.148	0.205
-523.989	-42.610	-0.188	0.096
-522.975	-172.780	-0.138	-0.004
-521.960	160.480	0.093	-0.130
-520.945	88.732	-0.212	0.235
-519.931	-163.415	0.362	0.017
-518.916	17.450	-0.116	0.092
-517.902	-32.378	-0.033	0.018
-516.887	-45.957	-0.063	-0.031
-515.872	-200.000	-0.014	-0.065
-514.858	10.244	-0.072	0.054
-513.843	-200.000	-0.057	-0.310
-512.829	67.882	0.205	-0.209
-511.814	120.485	0.101	0.125
-510.799	121.802	0.065	-0.080
-509.785	674.596	-0.078	-0.203
-508.770	-104.649	-0.053	0.012
-507.756	-90.653	-0.138	-0.040
-506.741	-78.330	-0.177	0.061
-505.726	170.641	0.296	0.422
-504.712	800.000	0.050	0.208
-503.697	-200.000	0.047	0.396
-502.683	-200.000	0.033	0.208
-501.668	199.991	0.047	0.072
-500.653	90.162	-0.174	0.194
-499.639	485.801	-0.059	-0.134
-498.624	800.000	-0.107	-0.377
-497.610	-114.800	-0.433	0.082
-496.595	-128.620	0.285	-0.040
-495.581	800.000	0.046	-0.170
-494.566	2.800	-0.122	0.089
-493.551	120.146	-0.194	-0.240
-492.537	-76.102	0.110	0.039
-491.522	528.323	0.169	-0.398
-490.508	104.337	0.178	0.209
-489.493	-57.152	-0.293	0.129
-488.478	13.975	-0.051	0.039
-487.464	-200.000	0.006	0.206
-486.449	-200.000	0.034	-0.192
-485.435	236.163	-0.150	0.247
-484.420	-74.641	0.327	0.117
-483.405	-8.028	0.285	-0.191
-482.391	-82.130	-0.173	0.056
-481.376	-176.880	0.152	0.004
-480.362	-99.613	0.269	-0.067
-479.347	-65.675	-0.234	0.093
-478.332	599.240	0.063	-0.155
-477.318	-115.073	-0.263	0.050
-476.303	266.675	0.189	-0.329
-475.289	3.672	0.121	-0.088
-474.274	-200.000	-0.057	-0.531
-473.259	9.053	0.084	0.063
-472.245	53.639	-0.152	0.146
-471.230	-200.000	-0.020	0.091
-470.216	-200.000	-0.005	-0.263
-469.201	-143.466	0.183	-0.017
-468.186	38.570	0.220	0.196
-467.172	200.683	0.079	0.121
-466.157	43.663	-0.245	0.223
-465.143	-102.313	0.227	-0.054
-464.128	-200.000	0.000	0.486
-463.113	276.339	-0.132	0.233
-462.099	-164.154	0.174	-0.008
-461.084	-37.339	0.229	0.122
-460.070	-200.000	-0.013	-0.152
-459.055	-142.575	-0.201	-0.020
-458.040	235.148	0.222	0.365
-457.026	-64.208	-0.063	0.025
-456.011	-49.030	0.231	-0.110
-454.997	-83.185	-0.114	-0.037
-453.982	770.446	-0.046	-0.125
-452.968	92.265	0.109	-0.122
-451.953	-200.000	0.043	-0.283
-450.938	-78.239	0.049	0.017
-449.924	8.308	-0.170	-0.127
-448.909	-200.000	0.007	0.077
-447.895	-70.869	-0.406	-0.152
-446.880	215.118	-0.114	-0.179
-445.865	-130.442	0.239	-0.032
-444.851	-200.000	0.007	-0.107
-443.836	-114.721	0.069	0.013
-442.822	-200.000	-0.024	0.110
-441.807	13.801	0.261	0.202
-440.792	99.237	0.194	-0.223
-439.778	-200.000	-0.009	-0.251
-438.763	328.745	0.107	-0.205
-437.749	-109.421	-0.346	-0.073
-436.734	-12.348	0.262	-0.170
-435.719	126.195	-0.144	0.181
-434.705	-177.105	0.311	-0.008
-433.690	242.177	0.064	0.107
-432.676	-200.000	-0.001	-0.056
-431.661	-200.000	0.037	0.167
-430.646	-200.000	0.071	-0.308
-429.632	-200.000	0.002	0.037
-428.617	42.322	-0.067	0.061
-427.603	521.184	0.166	-0.386
-426.588	153.604	-0.228	-0.310
-425.573	241.115	0.176	-0.293
-424.559	446.880	-0.110	-0.241
-423.544	-80.735	0.160	-0.053
-422.530	-147.316	-0.280	-0.024
-421.515	-98.494	-0.074	-0.019
-420.500	-54.361	-0.060	0.027
-419.486	223.764	0.223	-0.357
-418.471	155.175	-0.144	-0.197
-417.457	-137.268	-0.064	-0.007
-416.442	-48.928	-0.312	0.148
-415.428	-200.000	-0.005	-0.405
-414.413	259.750	0.074	0.127
-413.398	246.771	-0.115	-0.193
-412.384	16.580	0.158	0.124
-411.369	-200.000	-0.020	0.188
-410.355	-120.124	0.286	-0.049
-409.340	65.013	0.148	-0.148
-408.325	36.528	-0.191	-0.168
-407.311	-78.513	0.226	-0.077
-406.296	-56.962	0.206	-0.090
-405.282	136.850	-0.078	-0.101
-404.267	-100.034	-0.156	0.039
-403.252	-25.686	0.288	0.169
-402.238	-45.011	0.149	-0.074
-401.223	-133.773	-0.191	0.024
-400.209	-126.618	0.251	0.037
-399.194	-69.807	-0.128	-0.048
-398.179	-16.216	-0.332	-0.210
-397.165	-200.000	0.036	-0.163
-396.150	-3.461	-0.130	0.090
-395.136	-141.657	-0.414	0.041
-394.121	377.172	-0.094	0.191
-393.106	-84.578	-0.293	0.092
-392.092	-200.000	0.028	-0.140
-391.077	-200.000	0.003	-0.349
-390.063	-200.000	0.019	0.134
-389.048	425.377	0.110	-0.234
-388.033	-200.000	-0.058	0.296
-387.019	-60.370	0.452	0.191
-386.004	-128.154	0.202	0.029
-384.990	140.545	0.192	-0.251
-383.975	15.355	0.186	0.144
-382.960	-78.644	0.078	-0.027
-381.946	23.519	-0.037	-0.030
-380.931	116.256	0.161	0.196
-379.917	132.355	0.285	0.365
-378.902	800.000	-0.013	-0.037
-377.888	-200.000	-0.071	-0.315
-376.873	-71.869	-0.303	-0.112
-375.858	534.627	-0.088	0.208
-374.844	-143.474	0.418	-0.040
-373.829	-93.673	0.396	-0.108
-372.815	86.502	0.184	0.202
-371.800	-200.000	0.013	0.261
-370.785	-184.515	0.332	0.005
-369.771	-40.030	0.124	0.064
-368.756	800.000	-0.023	0.069
-367.742	-122.248	-0.155	-0.025
-366.727	-47.978	-0.180	-0.086
-365.712	-88.189	0.451	-0.134
-364.698	27.826	0.130	-0.108
-363.683	15.210	-0.064	0.050
-362.669	-48.416	0.213	0.102
-361.654	-196.041	0.344	-0.002
-360.639	133.579	-0.278	-0.356
-359.625	296.900	-0.086	0.157
-358.610	800.000	0.057	0.157
-357.596	-20.096	-0.206	-0.126
-356.581	128.929	0.074	-0.094
-355.566	-33.156	0.076	0.042
-354.552	241.797	0.196	-0.324
-353.537	87.999	0.333	0.366
-352.523	800.000	-0.079	-0.270
-351.508	259.066	0.065	-0.112
-350.493	-89.087	-0.398	0.117
-349.479	-200.000	-0.023	0.234
-348.464	85.186	-0.096	0.104
-347.450	54.092	0.139	0.133
-346.435	-69.176	-0.358	-0.136
-345.420	-50.332	0.215	0.101
-344.406	576.461	-0.124	-0.299
-343.391	-200.000	-0.010	0.199
-342.377	149.051	-0.018	0.025
-341.362	-110.212	0.091	-0.019
-340.348	-94.995	0.209	0.056
-339.333	-118.019	0.019	-0.003
-338.318	9.921	-0.227	0.171
-337.304	-78.809	-0.181	0.061
-336.289	-200.000	-0.034	-0.176
-335.275	-26.534	0.050	-0.029
-334.260	-134.392	-0.205	-0.025
-333.245	331.435	0.084	0.161
-332.231	800.000	0.035	0.133
-331.216	-176.973	0.416	0.010
-330.202	77.096	-0.230	0.241
-329.187	199.082	-0.087	0.132
-328.172	-200.000	0.002	0.210
-327.158	-19.359	-0.169	-0.104
-326.143	800.000	0.028	0.116
-325.129	-200.000	-0.063	0.343
-324.114	156.424	0.194	0.265
-323.099	800.000	-0.047	0.137
-322.085	-107.549	-0.621	0.135
-321.070	309.851	0.093	0.172
-320.056	-126.233	0.236	-0.035
-319.041	90.400	0.012	0.013
-318.026	407.179	0.077	-0.161
-317.012	113.304	-0.175	0.211
-315.997	-87.690	-0.128	-0.038
-314.983	51.961	-0.173	-0.163
-313.968	31.332	-0.239	-0.203
-312.953	-122.399	-0.338	-0.054
-311.939	293.934	0.051	0.092
-310.924	800.000	0.011	-0.044
-309.910	42.187	0.185	0.167
-308.895	87.672	0.285	0.313
-307.880	800.000	-0.094	-0.258
-306.866	-38.883	0.160	0.083
-305.851	-56.790	0.180	-0.079
-304.837	-87.455	0.387	-0.116
-303.822	536.875	-0.039	0.091
-302.807	-70.539	-0.044	-0.017
-301.793	102.741	0.108	-0.125
-300.778	-200.000	0.007	-0.138
-299.764	800.000	-0.032	-0.096
-298.749	-42.146	0.086	0.043
-297.735	126.565	-0.159	-0.199
-296.720	69.098	0.312	-0.317
-295.705	800.000	-0.034	-0.111
-294.691	-15.464	-0.380	0.240
-293.676	89.712	0.142	0.157
-292.662	-29.340	-0.377	0.214
-291.647	-64.776	0.228	0.091
-290.632	476.099	-0.080	0.179
-289.618	800.000	-0.128	0.369
-288.603	-107.370	-0.258	0.056
-287.589	-13.291	0.147	0.094
-286.574	-130.345	0.197	0.026
-285.559	-11.253	-0.221	-0.144
-284.545	-130.922	-0.236	0.031
-283.530	-126.733	0.436	0.064
-282.516	21.441	0.057	0.046
-281.501	-200.000	0.038	-0.209
-280.486	-191.546	0.182	-0.002
-279.472	800.000	-0.053	0.151
-278.457	76.412	-0.173	-0.181
-277.443	-145.545	0.112	-0.010
-276.428	-80.927	-0.314	-0.103
-275.413	800.000	0.122	0.465
-274.399	-118.795	-0.402	-0.070
-273.384	338.361	0.149	-0.287
-272.370	683.603	-0.041	-0.107
-271.355	145.031	-0.106	0.140
-270.340	92.651	0.012	-0.013
-269.326	427.442	0.005	0.012
-268.311	439.943	0.147	0.318
-267.297	800.000	0.041	-0.120
-266.282	796.691	0.114	0.310
-265.267	-200.000	-0.022	0.220
-264.253	-200.000	0.016	0.101
-263.238	-93.670	0.018	-0.005
-262.224	59.176	0.253	-0.245
-261.209	-200.000	-0.003	0.179
-260.195	742.472	0.140	-0.372
-259.180	-60.456	0.242	-0.102
-258.165	270.542	-0.175	0.304
-257.151	-184.008	0.162	0.003
-256.136	-200.000	0.014	-0.233
-255.122	-25.675	-0.075	-0.044
-254.107	800.000	-0.038	-0.114
-253.092	-40.733	-0.145	-0.074
-252.078	184.503	0.177	-0.259
-251.063	158.171	-0.200	-0.274
-250.049	-6.694	-0.234	-0.157
-249.034	-136.920	0.376	0.043
-248.019	59.306	-0.293	-0.284
-247.005	92.027	-0.078	-0.086
-245.990	-24.625	0.079	0.046
-244.976	-73.706	0.123	0.044
-243.961	-159.900	-0.354	-0.019
-242.946	-200.000	-0.008	-0.136
-241.932	-34.923	-0.268	-0.144
-240.917	155.128	-0.174	-0.236
-239.903	-200.000	-0.012	0.086
-238.888	-79.104	-0.031	-0.010
-237.873	120.486	0.058	0.071
-236.859	800.000	-0.142	0.527
-235.844	800.000	-0.063	-0.194
-234.830	-171.011	0.327	0.011
-233.815	800.000	-0.023	0.065
-232.800	-41.356	0.223	-0.113
-231.786	-200.000	-0.067	0.320
-230.771	-200.000	0.057	0.296
-229.757	-200.000	0.038	0.434
-228.742	-200.000	0.002	-0.011
-227.727	170.029	0.255	-0.360
-226.713	-134.859	0.170	-0.020
-225.698	244.063	0.095	0.157
-224.684	800.000	-0.031	0.122
-223.669	-108.850	0.165	-0.035
-222.655	800.000	0.051	0.217
-221.640	-24.414	0.014	-0.008
-220.625	121.315	0.053	-0.066
-219.611	-200.000	-0.028	0.350
-218.596	-200.000	-0.024	0.186
-217.582	-155.043	0.339	0.022
-216.567	-38.025	-0.102	0.054
-215.552	6.995	-0.304	0.223
-214.538	-200.000	-0.009	-0.200
-213.523	433.261	-0.132	0.282
-212.509	-178.020	0.361	-0.008
-211.494	743.869	0.049	0.130
-210.479	13.424	-0.087	0.067
-209.465	451.915	-0.111	-0.241
-208.450	-88.219	0.258	0.076
-207.436	-69.449	0.107	-0.041
-206.421	355.433	0.090	-0.176
-205.406	58.056	-0.091	-0.088
-204.392	800.000	0.012	-0.042
-203.377	-118.438	-0.261	0.046
-202.363	176.756	0.133	0.190
-201.348	-200.000	0.003	0.206
-200.333	-200.000	-0.023	0.128
-199.319	-30.788	-0.128	0.071
-198.304	-32.253	-0.031	0.017
-197.290	439.835	-0.037	-0.079
-196.275	-61.902	-0.125	0.052
-195.260	-127.273	0.037	0.005
-194.246	-79.605	0.493	-0.164
-193.231	-102.161	0.066	-0.016
-192.217	58.750	0.114	0.110
-191.202	513.390	-0.069	0.158
-190.187	677.329	-0.059	0.152
-189.173	-62.377	0.385	-0.158
-188.158	800.000	-0.056	0.209
-187.144	221.165	0.103	0.163
-186.129	800.000	-0.057	0.208
-185.114	800.000	-0.089	0.356
-184.100	-33.966	0.320	0.174
-183.085	522.559	0.151	-0.349
-182.071	-140.719	-0.486	0.049
-181.056	-20.565	0.021	-0.012
-180.042	-77.302	0.111	-0.038
-179.027	-200.000	-0.041	-0.215
-178.012	-200.000	-0.018	0.136
-176.998	-147.648	-0.359	-0.030
-175.983	-200.000	-0.028	-0.182
-174.969	-57.505	0.212	-0.091
-173.954	191.121	0.163	-0.242
-172.939	457.940	-0.038	0.084
-171.925	433.052	0.087	0.185
-170.910	800.000	-0.079	-0.272
-169.896	-44.002	-0.104	-0.051
-168.881	-16.755	0.185	-0.115
-167.866	-126.566	-0.226	0.033
-166.852	-200.000	-0.007	-0.081
-165.837	72.030	0.138	-0.142
-164.823	-200.000	0.027	-0.360
-163.808	-172.108	-0.304	-0.010
-162.793	-110.919	0.021	-0.004
-161.779	-200.000	-0.041	0.183
-160.764	-127.931	-0.291	-0.041
-159.750	132.842	-0.137	0.174
-158.735	-138.918	-0.191	0.020
-157.720	98.868	-0.050	-0.056
-156.706	297.158	0.111	0.199
-155.691	681.995	-0.118	-0.304
-154.677	800.000	-0.041	0.114
-153.662	-182.447	0.024	-0.000
-152.647	-108.736	-0.146	-0.031
-151.633	243.131	-0.116	-0.191
-150.618	352.661	-0.059	-0.115
-149.604	800.000	0.067	0.209
-148.589	-24.041	-0.188	0.110
-147.574	190.396	-0.106	0.156
-146.560	-20.632	-0.099	-0.059
-145.545	783.057	0.034	-0.092
-144.531	-200.000	-0.069	-0.341
-143.516	52.329	0.076	0.071
-142.502	158.853	0.172	-0.235
-141.487	-179.706	0.265	0.006
-140.472	179.294	-0.165	0.237
-139.458	352.413	-0.121	0.235
-138.443	140.126	0.171	-0.222
-137.429	166.858	0.133	-0.186
-136.414	144.599	-0.220	-0.289
-135.399	-13.273	0.055	0.035
-134.385	558.935	-0.110	-0.260
-133.370	98.097	-0.328	0.371
-132.356	-200.000	0.012	0.264
-131.341	338.341	0.099	0.190
-130.326	-200.000	-0.013	0.166
-129.312	-200.000	0.019	-0.471
-128.297	-112.437	-0.148	0.029
-127.283	154.013	-0.105	0.142
-126.268	-19.834	-0.118	0.072
-125.253	138.157	0.325	0.419
-124.239	-15.019	-0.194	0.122
-123.224	-95.670	0.202	0.053
-122.210	290.483	0.089	0.159
-121.195	-112.148	-0.098	-0.019
-120.180	-129.122	0.245	0.034
-119.166	-16.305	-0.036	-0.023
-118.151	-149.253	0.227	-0.018
-117.137	-143.596	-0.496	-0.046
-116.122	-44.355	-0.146	-0.072
-115.107	-23.246	0.337	-0.199
-114.093	-200.000	-0.002	0.018
-113.078	30.326	-0.192	-0.161
-112.064	473.601	-0.060	0.133
-111.049	800.000	0.061	-0.171
-110.034	-200.000	0.011	-0.300
-109.020	280.841	-0.194	-0.340
-108.005	-142.500	-0.282	-0.027
-106.991	-54.342	0.276	0.123
-105.976	-118.334	0.354	-0.062
-104.962	161.661	-0.034	-0.046
-103.947	42.847	0.247	0.221
-102.932	2.251	-0.261	0.185
-101.918	800.000	-0.034	-0.096
-100.903	125.128	0.161	-0.199
-99.889	192.667	-0.079	-0.117
-98.874	800.000	-0.016	-0.045
-97.859	17.549	-0.207	0.162
-96.845	73.406	-0.118	-0.121
-95.830	235.304	-0.146	0.237
-94.816	-200.000	-0.004	-0.202
-93.801	800.000	-0.050	-0.189
-92.786	54.865	-0.172	-0.163
-91.772	102.526	-0.285	0.327
-90.757	-200.000	-0.110	-0.000
-89.743	610.551	-0.086	-0.211
-88.728	101.873	-0.149	-0.171
-87.713	-62.676	-0.043	0.017
-86.699	-200.000	0.022	0.100
-85.684	800.000	0.096	0.339
-84.670	9.957	-0.058	0.043
-83.655	32.247	-0.114	0.096
-82.640	26.675	-0.227	0.187
-81.626	-40.095	-0.293	0.150
-80.611	-79.691	0.118	-0.039
-79.597	755.934	-0.049	0.129
-78.582	-100.103	-0.339	-0.083
-77.567	-200.000	-0.064	-0.337
-76.553	22.933	-0.002	-0.002
-75.538	-200.000	0.046	0.225
-74.524	642.917	0.093	-0.232
-73.509	151.359	0.174	-0.232
-72.494	-19.847	0.366	-0.222
-71.480	-43.603	0.089	-0.044
-70.465	800.000	-0.089	-0.301
-69.451	294.433	-0.278	0.498
-68.436	-200.000	0.026	-0.184
-67.422	143.084	0.078	0.101
-66.407	34.170	-0.352	-0.301
-65.392	-7.111	0.153	0.102
-64.378	-200.000	-0.049	0.309
-63.363	161.619	0.160	0.220
-62.349	145.055	0.026	0.034
-61.334	33.109	-1.042	-0.885
-60.319	251.341	0.258	0.430
-59.305	800.000	-0.289	-0.981
-58.290	800.000	0.290	1.171
-57.276	221.470	0.988	1.554
-56.261	-200.000	107.455	626.014
-55.246	524.033	1515.017	3488.297
-54.232	174.973	2713.558	3847.197
-53.217	105.321	2295.982	2654.929
-52.203	38.510	1900.832	1659.380
-51.188	32.421	1687.023	1426.681
-50.173	29.751	1643.798	1370.315
-49.159	48.506	1698.489	1557.763
-48.144	48.648	1713.302	1572.355
-47.130	31.897	1670.098	1408.210
-46.115	29.300	1655.359	1376.365
-45.100	29.092	1651.091	1371.216
-44.086	29.021	1648.692	1368.641
-43.071	28.979	1645.822	1365.889
-42.057	29.031	1643.439	1364.248
-41.042	29.104	1640.961	1362.675
-40.027	29.075	1639.416	1361.120
-39.013	28.988	1637.488	1358.827
-37.998	28.994	1635.698	1357.328
-36.984	29.019	1634.755	1356.676
-35.969	29.093	1633.276	1355.944
-34.954	29.220	1631.267	1355.156
-33.940	29.170	1629.481	1353.252
-32.925	29.045	1627.765	1350.853
-31.911	29.147	1625.634	1349.780
-30.896	29.197	1623.759	1348.535
-29.881	29.130	1622.957	1347.326
-28.867	29.141	1621.275	1345.954
-27.852	29.054	1619.966	1344.178
-26.838	29.083	1618.741	1343.322
-25.823	29.097	1616.951	1341.884
-24.809	29.123	1615.660	1340.953
-23.794	29.125	1614.341	1339.820
-22.779	29.192	1612.460	1338.693
-21.765	29.173	1610.484	1336.861
-20.750	29.091	1609.725	1335.578
-19.736	29.130	1608.041	1334.415
-18.721	29.131	1606.471	1333.065
-17.706	29.076	1605.388	1331.713
-16.692	29.126	1603.627	1330.565
-15.677	29.144	1602.477	1329.687
-14.663	29.203	1601.323	1329.102
-13.648	29.188	1599.940	1327.794
-12.633	29.142	1598.224	1325.986
-11.619	29.189	1596.643	1324.960
-10.604	29.124	1595.407	1323.411
-9.590	29.217	1593.257	1322.241
-8.575	29.304	1592.333	1322.050
-7.560	29.171	1591.425	1320.288
-6.546	29.131	1590.430	1319.126
-5.531	29.141	1589.487	1318.361
-4.517	29.139	1588.365	1317.363
-3.502	29.184	1586.899	1316.417
-2.487	29.232	1585.420	1315.480
-1.473	28.881	1573.912	1303.390
-0.458	26.237	1554.067	1268.369
0.556	20.541	1555.128	1238.469
1.571	18.308	1581.029	1242.789
2.586	18.165	1595.011	1252.624
3.600	16.533	1541.965	1199.296
4.615	8.795	1432.453	1062.860
5.629	1.158	1369.301	967.333
6.644	-0.183	1360.999	952.879
7.659	-0.266	1359.929	951.515
8.673	-0.366	1358.461	949.771
9.688	-0.395	1356.937	948.441
10.702	-0.633	1353.639	944.550
11.717	2.486	1359.754	968.483
12.731	11.590	1376.813	1038.645
13.746	19.065	1390.320	1096.546
14.761	21.135	1393.008	1111.769
15.775	21.403	1392.669	1113.108
16.790	21.498	1391.954	1113.041
17.804	21.549	1391.255	1112.713
18.819	21.742	1391.251	1113.837
19.834	21.872	1390.811	1114.210
20.848	21.947	1389.620	1113.635
21.863	21.888	1389.116	1112.758
22.877	21.832	1388.069	1111.465
23.892	21.849	1387.312	1110.866
24.907	21.897	1386.624	1110.519
25.921	21.891	1385.546	1109.520
26.936	21.937	1384.572	1108.935
27.950	21.888	1383.595	1107.745
28.965	21.858	1382.327	1106.445
29.980	21.894	1380.968	1105.482
30.994	21.817	1379.941	1104.077
32.009	21.873	1378.982	1103.567
33.023	21.901	1377.818	1102.717
34.038	21.886	1376.573	1101.524
35.053	21.866	1375.678	1100.584
36.067	22.035	1374.005	1100.209
37.082	21.886	1373.518	1098.792
38.096	21.856	1372.746	1097.887
39.111	21.923	1371.657	1097.337
40.126	22.005	1370.885	1097.134
41.140	21.795	1370.872	1095.714
42.155	21.950	1370.755	1096.494
43.169	21.858	1370.701	1095.778
44.184	21.815	1370.067	1094.908
45.199	21.846	1369.936	1094.897
46.213	21.924	1368.895	1094.453
47.228	22.030	1367.888	1094.216
48.242	21.916	1366.569	1092.350
49.257	21.951	1365.031	1091.245
50.271	21.828	1364.138	1089.670
51.286	21.772	1362.953	1088.276
52.301	21.935	1361.259	1087.840
53.315	21.952	1360.171	1086.981
54.330	22.028	1359.427	1086.758
55.344	21.927	1358.373	1085.199
56.359	21.869	1357.653	1084.166
57.374	21.831	1356.837	1083.182
58.388	21.783	1356.176	1082.264
59.403	21.876	1356.117	1082.695
60.417	21.943	1354.903	1082.044
61.432	21.835	1354.372	1080.861
62.447	21.913	1353.336	1080.417
63.461	21.912	1352.340	1079.517
64.476	21.974	1351.290	1078.970
65.490	21.914	1350.049	1077.515
66.505	21.974	1348.666	1076.681
67.520	21.925	1347.432	1075.299
68.534	21.966	1346.446	1074.668
69.549	21.970	1345.135	1073.552
70.563	21.891	1344.273	1072.284
71.578	21.976	1343.365	1071.988
72.593	21.868	1342.870	1070.835
73.607	21.968	1341.898	1070.576
74.622	21.881	1341.150	1069.353
75.636	21.937	1340.130	1068.788
76.651	21.964	1339.776	1068.578
77.666	21.913	1339.331	1067.819
78.680	21.931	1338.521	1067.188
79.695	21.940	1337.971	1066.709
80.709	22.063	1336.487	1066.175
81.724	21.938	1335.843	1064.808
82.739	21.913	1335.054	1063.933
83.753	21.908	1333.652	1062.693
84.768	21.833	1333.088	1061.696
85.782	21.918	1331.704	1061.016
86.797	21.967	1330.590	1060.327
87.812	21.954	1329.374	1059.187
88.826	21.904	1328.807	1058.338
89.841	22.062	1327.524	1058.180
90.855	21.983	1326.773	1057.011
91.870	21.948	1325.837	1055.956
92.884	22.093	1324.293	1055.505
93.899	22.071	1323.964	1055.021
94.914	22.025	1322.901	1053.801
95.928	22.057	1322.361	1053.473
96.943	22.037	1322.155	1053.092
97.957	21.982	1321.048	1051.793
98.972	22.080	1319.893	1051.362
99.987	22.063	1318.834	1050.325
101.001	21.973	1317.966	1049.006
102.016	21.951	1317.003	1048.011
103.030	22.036	1315.888	1047.541
104.045	22.028	1315.073	1046.751
105.060	22.089	1314.374	1046.466
106.074	22.032	1313.238	1045.130
107.089	21.929	1312.821	1044.093
108.103	22.063	1311.135	1043.456
109.118	22.066	1310.197	1042.635
110.133	22.166	1308.652	1041.908
111.147	22.042	1307.961	1040.529
112.162	22.063	1306.764	1039.610
113.176	22.230	1305.300	1039.339
114.191	22.097	1304.600	1037.906
115.206	22.085	1303.778	1037.087
116.220	22.068	1302.525	1035.896
117.235	22.038	1301.915	1035.141
118.249	22.066	1300.703	1034.256
119.264	22.117	1299.518	1033.518
120.279	22.161	1298.555	1032.922
121.293	22.211	1297.915	1032.612
122.308	22.174	1297.108	1031.662
123.322	22.061	1296.744	1030.618
124.337	22.084	1295.233	1029.463
125.352	22.186	1294.142	1029.104
126.366	22.148	1293.435	1028.227
127.381	22.051	1292.690	1026.978
128.395	22.149	1291.483	1026.497
129.410	22.124	1290.555	1025.526
130.424	22.063	1290.080	1024.698
131.439	22.074	1289.198	1023.974
132.454	22.224	1288.135	1023.913
133.468	22.075	1287.446	1022.407
134.483	22.123	1286.591	1021.916
135.497	22.097	1286.370	1021.501
136.512	22.145	1284.887	1020.511
137.527	22.166	1283.457	1019.404
138.541	22.083	1282.488	1018.062
139.556	22.087	1281.187	1016.965
140.570	22.043	1280.179	1015.822
141.585	22.118	1278.603	1014.916
142.600	22.180	1277.782	1014.528
143.614	22.118	1277.191	1013.614
144.629	22.114	1276.309	1012.802
145.643	22.032	1275.092	1011.272
146.658	21.975	1274.101	1010.072
147.673	22.003	1273.018	1009.284
148.687	22.048	1272.214	1008.813
149.702	22.056	1270.963	1007.777
150.716	22.031	1269.932	1006.730
151.731	22.052	1268.744	1005.818
152.746	22.028	1268.016	1005.017
153.760	22.137	1266.966	1004.718
154.775	22.055	1266.089	1003.466
155.789	22.133	1265.389	1003.264
156.804	22.156	1263.775	1002.029
157.819	22.141	1263.357	1001.523
158.833	22.194	1262.412	1000.984
159.848	22.157	1261.898	1000.280
160.862	22.140	1261.108	999.471
161.877	22.306	1259.971	999.424
162.892	22.336	1258.510	998.348
163.906	22.205	1258.771	997.719
164.921	22.204	1258.022	997.034
165.935	22.218	1256.932	996.160
166.950	22.241	1256.216	995.636
167.964	22.198	1255.848	995.013
168.979	22.205	1255.447	994.648
169.994	22.226	1254.748	994.123
171.008	22.243	1254.257	993.740
172.023	22.373	1252.842	993.265
173.037	22.222	1252.288	991.888
174.052	22.247	1251.682	991.459
175.067	22.408	1250.555	991.388
176.081	22.266	1250.256	990.260
177.096	22.223	1249.364	989.229
178.110	22.288	1248.260	988.630
179.125	22.332	1247.299	988.027
180.140	22.325	1246.288	987.101
181.154	22.230	1245.119	985.556
182.169	22.249	1244.125	984.790
183.183	22.259	1242.727	983.650
184.198	22.242	1242.198	983.050
185.213	22.335	1241.106	982.619
186.227	22.305	1240.099	981.568
187.242	22.400	1238.833	981.006
188.256	22.384	1238.187	980.318
189.271	22.406	1237.118	979.509
190.286	22.279	1237.169	978.756
191.300	22.329	1236.355	978.305
192.315	22.289	1235.957	977.680
193.329	22.311	1235.365	977.246
194.344	22.376	1234.800	977.073
195.359	22.466	1234.175	976.992
196.373	22.355	1233.801	975.996
197.388	22.267	1233.428	975.127
198.402	22.261	1233.265	974.877
199.417	22.325	1232.459	974.510
200.432	22.302	1231.926	973.874
201.446	22.311	1231.211	973.270
202.461	22.284	1230.811	972.720
203.475	22.339	1229.348	971.781
204.490	22.411	1228.395	971.337
205.504	22.373	1227.298	970.179
206.519	22.493	1226.620	970.218
207.534	22.424	1225.491	968.858
208.548	22.329	1225.064	967.910
209.563	22.393	1224.029	967.357
210.577	22.391	1223.319	966.701
211.592	22.497	1222.303	966.397
212.607	22.503	1221.628	965.808
213.621	22.534	1221.173	965.534
214.636	22.543	1220.075	964.630
215.650	22.481	1219.615	963.841
216.665	22.472	1218.517	962.840
217.680	22.547	1217.597	962.436
218.694	22.472	1216.727	961.253
219.709	22.508	1216.018	960.803
220.723	22.492	1215.655	960.346
221.738	22.387	1214.820	959.028
222.753	22.370	1213.987	958.196
223.767	22.361	1213.724	957.850
224.782	22.567	1213.103	958.398
225.796	22.477	1212.595	957.421
226.811	22.589	1211.810	957.328
227.826	22.507	1211.513	956.560
228.840	22.512	1210.963	956.072
229.855	22.483	1209.901	954.989
230.869	22.525	1209.181	954.566
231.884	22.561	1208.316	953.994
232.899	22.542	1208.006	953.558
233.913	22.585	1207.225	953.094
234.928	22.618	1206.980	952.994
235.942	22.712	1205.927	952.583
236.957	22.561	1205.246	951.148
237.972	22.630	1204.366	950.743
238.986	22.671	1203.731	950.377
240.001	22.691	1203.228	950.003
241.015	22.668	1202.577	949.281
242.030	22.753	1201.634	948.910
243.045	22.782	1200.823	948.339
244.059	22.757	1200.337	947.737
245.074	22.683	1199.928	946.934
246.088	22.729	1198.773	946.184
247.103	22.719	1198.136	945.547
248.117	22.798	1197.103	945.070
249.132	22.728	1196.671	944.269
250.147	22.714	1196.109	943.667
251.161	22.791	1194.965	943.096
252.176	22.694	1194.450	942.084
253.190	22.921	1193.646	942.582
254.205	22.783	1192.876	941.152
255.220	22.779	1192.555	940.796
256.234	22.713	1192.662	940.445
257.249	22.773	1191.698	939.922
258.263	22.799	1190.671	939.167
259.278	22.824	1190.072	938.742
260.293	22.884	1189.447	938.485
261.307	22.924	1188.978	938.243
262.322	22.844	1188.612	937.447
263.336	22.781	1188.136	936.658
264.351	22.901	1187.222	936.487
265.366	22.855	1186.708	935.759
266.380	22.924	1185.802	935.326
267.395	22.838	1185.458	934.517
268.409	22.822	1184.884	933.898
269.424	22.854	1184.105	933.371
270.439	22.795	1183.923	932.832
271.453	22.907	1183.119	932.708
272.468	22.866	1182.098	931.605
273.482	22.885	1181.362	931.040
274.497	22.914	1181.096	930.901
275.512	23.030	1180.285	930.793
276.526	22.990	1180.033	930.298
277.541	22.945	1179.279	929.386
278.555	22.927	1178.799	928.828
279.570	22.979	1177.785	928.220
280.585	22.950	1176.989	927.360
281.599	22.994	1175.883	926.640
282.614	23.069	1174.984	926.238
283.628	23.055	1174.174	925.443
284.643	23.063	1173.652	924.994
285.657	22.994	1172.776	923.859
286.672	23.101	1171.693	923.484
287.687	23.115	1170.977	922.913
288.701	23.032	1170.492	922.015
289.716	23.135	1169.833	921.954
290.730	23.180	1169.183	921.594
291.745	23.115	1168.555	920.680
292.760	23.065	1167.945	919.853
293.774	23.190	1167.105	919.764
294.789	23.194	1167.162	919.749
295.803	23.251	1166.233	919.229
296.818	23.071	1165.413	917.570
297.833	23.122	1165.077	917.484
298.847	23.273	1163.846	917.219
299.862	23.237	1163.630	916.778
300.876	23.148	1162.915	915.676
301.891	23.260	1161.931	915.399
302.906	23.233	1161.657	914.964
303.920	23.222	1160.951	914.270
304.935	23.186	1160.208	913.414
305.949	23.163	1159.738	912.846
306.964	23.314	1159.116	913.053
307.979	23.438	1158.176	912.874
308.993	23.271	1157.592	911.471
310.008	23.170	1157.145	910.519
311.022	23.271	1156.024	910.078
312.037	23.321	1155.732	910.021
313.052	23.376	1154.531	909.276
314.066	23.285	1153.783	908.144
315.081	23.294	1152.816	907.348
316.095	23.289	1152.861	907.276
317.110	23.388	1152.258	907.227
318.125	23.423	1151.234	906.520
319.139	23.455	1150.281	905.853
320.154	23.593	1149.404	905.788
321.168	23.390	1149.532	904.771
322.183	23.385	1149.002	904.249
323.197	23.357	1148.413	903.563
324.212	23.360	1147.813	903.024
325.227	23.387	1146.978	902.428
326.241	23.408	1146.589	902.145
327.256	23.492	1145.729	901.818
328.270	23.497	1144.875	901.094
329.285	23.517	1144.282	900.649
330.300	23.463	1143.585	899.743
331.314	23.444	1142.565	898.767
332.329	23.536	1141.778	898.533
333.343	23.521	1141.051	897.805
334.358	23.568	1140.109	897.221
335.373	23.581	1139.406	896.658
336.387	23.582	1139.135	896.367
337.402	23.634	1138.762	896.260
338.416	23.614	1137.772	895.297
339.431	23.580	1137.497	894.829
340.446	23.585	1136.644	894.104
341.460	23.621	1135.983	893.690
342.475	23.568	1135.363	892.857
343.489	23.630	1134.512	892.418
344.504	23.640	1133.287	891.426
345.519	23.611	1132.564	890.634
346.533	23.701	1131.435	890.120
347.548	23.738	1130.872	889.780
348.562	23.718	1129.929	888.859
349.577	23.659	1129.565	888.198
350.592	23.662	1128.649	887.416
351.606	23.671	1128.491	887.261
352.621	23.607	1127.819	886.330
353.635	23.769	1127.196	886.575
354.650	23.746	1126.490	885.825
355.665	23.812	1125.844	885.566
356.679	23.827	1125.302	885.137
357.694	23.868	1124.899	884.947
358.708	23.863	1123.813	883.988
359.723	23.958	1122.914	883.675
360.738	23.634	1122.854	881.938
361.752	23.820	1122.258	882.315
362.767	23.777	1121.753	881.631
363.781	23.905	1121.114	881.681
364.796	23.878	1120.676	881.128
365.810	23.939	1119.876	880.722
366.825	23.822	1119.194	879.530
367.840	23.862	1118.823	879.359
368.854	23.957	1117.999	879.101
369.869	23.878	1117.186	877.996
370.883	23.869	1116.619	877.429
371.898	23.908	1116.070	877.110
372.913	23.862	1115.901	876.674
373.927	23.967	1115.034	876.430
374.942	24.095	1114.412	876.497
375.956	24.177	1113.438	876.056
376.971	24.069	1113.322	875.357
377.986	24.088	1112.765	874.933
379.000	24.090	1111.790	874.095
380.015	24.093	1111.885	874.108
381.029	24.112	1111.010	873.438
382.044	24.023	1110.347	872.403
383.059	24.161	1109.945	872.688
384.073	24.220	1108.874	872.054
385.088	24.153	1107.759	870.776
386.102	24.132	1107.298	870.232
387.117	24.112	1106.504	869.435
388.132	24.099	1105.223	868.284
389.146	24.171	1104.850	868.268
390.161	24.104	1104.330	867.454
391.175	24.225	1103.599	867.392
392.190	24.243	1102.765	866.749
393.205	24.187	1102.020	865.813
394.219	24.206	1101.392	865.337
395.234	24.300	1100.766	865.227
396.248	24.297	1099.465	864.109
397.263	24.256	1098.877	863.376
398.278	24.214	1098.763	863.005
399.292	24.304	1097.802	862.610
400.307	24.255	1097.470	862.034
401.321	24.325	1096.404	861.457
402.336	24.217	1096.097	860.621
403.350	24.185	1095.655	860.043
404.365	24.371	1094.464	859.927
405.380	24.350	1093.950	859.349
406.394	24.377	1093.335	858.917
407.409	24.504	1092.480	858.781
408.423	24.411	1091.320	857.348
409.438	24.417	1090.889	856.960
410.453	24.425	1090.489	856.609
411.467	24.380	1089.746	855.736
412.482	24.358	1089.586	855.427
413.496	24.459	1088.314	854.836
414.511	24.576	1087.711	854.850
415.526	24.450	1087.267	853.819
416.540	24.509	1086.590	853.494
417.555	24.439	1086.201	852.777
418.569	24.470	1085.797	852.537
419.584	24.471	1085.343	852.109
420.599	24.675	1085.258	852.941
421.613	149.015	1402.585	1800.514
422.628	137.734	1448.769	1800.582
