DTS Sentinel unit serial number:	SN413079Multiplexer serial number:	ORYXHardware model number:	OX4-SRSoftware version number:	ORYX F/W v4.00 Oryx Data Collector v3.7.2.0data status	okinstallation	princeton_trtdifferential loss correction	single-endedforward channel	channel 2reverse channel	N/Adate	2019/09/11time	23:33:11forward acquisition time	60.00reverse acquisition time	0.00gamma	496.2192k internal	0.2325k external	0.2325temperature offset calibration	1.0082default loss term (dB/km)	0.3790temperature slope calibration	1.0000multiplexer offset coefficient	1.0000multiplexer slope coefficient	1.0000fibre end	0.00T internal ref (°C)	34.19T ext. ref 1 (°C)	1.89T ext. ref 2 (°C)	28.66length (m)	temperature (°C)	Stokes	anti-Stokes-747.200	95.365	0.062	0.072
-746.185	-144.132	0.175	-0.017
-745.171	573.780	-0.183	0.450
-744.156	800.000	-0.051	0.206
-743.142	-127.628	0.218	-0.032
-742.127	-16.478	0.239	0.153
-741.112	-200.000	-0.028	0.212
-740.098	363.880	0.130	0.264
-739.083	-33.733	0.247	-0.138
-738.069	380.131	0.320	0.661
-737.054	113.252	0.188	0.230
-736.039	-121.340	-0.245	0.041
-735.025	169.738	0.122	0.177
-734.010	-56.598	-0.214	-0.096
-732.996	-147.118	-0.233	0.020
-731.981	-51.454	-0.301	0.142
-730.966	145.492	0.017	0.024
-729.952	-200.000	0.025	0.372
-728.937	748.809	-0.138	0.375
-727.923	-200.000	0.061	-0.299
-726.908	-200.000	0.020	-0.202
-725.894	285.385	0.074	-0.135
-724.879	12.367	0.169	-0.131
-723.864	-99.707	0.145	0.037
-722.850	-40.345	0.081	0.042
-721.835	-31.679	-0.259	0.147
-720.821	-119.465	0.216	-0.038
-719.806	202.886	-0.149	0.233
-718.791	324.037	-0.092	-0.176
-717.777	-200.000	-0.047	0.307
-716.762	11.894	-0.210	-0.163
-715.748	-7.663	-0.145	0.099
-714.733	800.000	-0.040	-0.136
-713.718	630.092	-0.049	0.124
-712.704	531.029	-0.041	0.097
-711.689	-200.000	0.011	-0.144
-710.675	-92.990	0.264	-0.074
-709.660	698.661	0.062	0.164
-708.645	-57.942	0.334	-0.147
-707.631	-47.102	-0.205	0.101
-706.616	130.478	0.031	-0.040
-705.602	-159.220	0.308	0.017
-704.587	800.000	-0.092	0.324
-703.572	47.223	0.190	0.178
-702.558	-200.000	-0.006	0.168
-701.543	-200.000	-0.013	0.142
-700.529	9.191	0.102	-0.078
-699.514	453.665	0.105	0.233
-698.499	3.710	0.076	0.056
-697.485	-165.973	-0.457	0.020
-696.470	14.818	-0.138	-0.109
-695.456	800.000	-0.055	-0.170
-694.441	800.000	0.025	0.104
-693.426	-112.356	-0.229	-0.046
-692.412	-200.000	0.034	0.240
-691.397	102.001	0.180	-0.211
-690.383	52.005	0.130	0.125
-689.368	-105.305	-0.092	-0.021
-688.354	-196.240	0.471	0.003
-687.339	203.098	0.080	-0.124
-686.324	-40.023	-0.284	0.149
-685.310	-99.425	-0.334	0.085
-684.295	800.000	-0.130	0.415
-683.281	-75.821	0.121	0.043
-682.266	800.000	0.098	-0.385
-681.251	-200.000	0.024	0.457
-680.237	-65.056	-0.293	0.119
-679.222	-200.000	-0.086	0.407
-678.208	109.538	-0.049	-0.060
-677.193	-200.000	0.034	-0.237
-676.178	-200.000	-0.021	-0.442
-675.164	-73.083	0.136	-0.050
-674.149	43.046	0.177	-0.163
-673.135	135.576	0.041	-0.054
-672.120	73.198	-0.195	-0.205
-671.105	-158.901	0.198	-0.011
-670.091	-104.611	0.461	-0.107
-669.076	-200.000	-0.018	-0.111
-668.062	231.459	-0.051	0.083
-667.047	134.641	-0.011	-0.015
-666.032	-47.981	-0.242	-0.118
-665.018	-200.000	-0.031	0.140
-664.003	145.088	-0.070	-0.095
-662.989	105.673	0.237	0.282
-661.974	-77.582	0.188	-0.066
-660.959	-125.224	-0.425	0.065
-659.945	-106.765	-0.332	-0.074
-658.930	-65.298	0.033	-0.013
-657.916	-5.111	-0.170	-0.118
-656.901	-86.908	0.196	0.060
-655.886	218.663	-0.206	0.330
-654.872	-114.050	0.111	0.022
-653.857	245.294	0.204	-0.346
-652.843	229.700	0.144	-0.237
-651.828	-60.622	-0.186	0.079
-650.814	95.896	-0.206	0.237
-649.799	-200.000	0.070	-0.000
-648.784	-163.010	-0.295	0.014
-647.770	-96.344	-0.422	-0.112
-646.755	699.490	0.078	-0.206
-645.741	-98.067	-0.173	-0.045
-644.726	-200.000	0.065	-0.287
-643.711	181.282	0.095	0.141
-642.697	-200.000	-0.044	-0.259
-641.682	-116.782	0.605	-0.112
-640.668	455.180	0.023	-0.052
-639.653	800.000	0.107	0.331
-638.638	-200.000	0.059	0.303
-637.624	433.514	-0.101	0.220
-636.609	-145.524	-0.465	0.042
-635.595	-10.977	0.211	-0.140
-634.580	34.228	-0.205	-0.180
-633.565	800.000	-0.053	0.149
-632.551	-34.170	0.024	-0.013
-631.536	800.000	0.038	0.159
-630.522	196.277	-0.174	-0.266
-629.507	-200.000	-0.026	-0.185
-628.492	-85.365	0.078	-0.025
-627.478	-158.124	-0.275	0.016
-626.463	-110.968	-0.305	-0.063
-625.449	84.861	0.143	-0.158
-624.434	-138.673	-0.195	-0.021
-623.419	-200.000	-0.035	-0.347
-622.405	-41.597	-0.214	0.111
-621.390	-200.000	-0.006	0.329
-620.376	210.072	-0.088	0.139
-619.361	-148.454	-0.086	-0.007
-618.346	-200.000	0.052	0.248
-617.332	-86.869	0.327	0.100
-616.317	-180.538	-0.124	-0.003
-615.303	103.627	-0.087	0.103
-614.288	-200.000	-0.013	-0.190
-613.273	96.253	0.163	-0.188
-612.259	-184.674	0.556	-0.009
-611.244	-52.272	-0.156	0.073
-610.230	276.871	0.056	0.099
-609.215	-91.200	0.152	0.044
-608.201	77.048	-0.040	-0.043
-607.186	-19.422	0.131	-0.082
-606.171	125.950	-0.150	0.190
-605.157	-200.000	-0.011	-0.438
-604.142	-68.600	-0.132	-0.051
-603.128	-153.188	-0.198	-0.014
-602.113	150.240	-0.080	-0.109
-601.098	108.171	-0.188	-0.225
-600.084	-200.000	-0.037	-0.248
-599.069	-86.219	-0.113	0.035
-598.055	-119.736	-0.586	0.102
-597.040	-105.780	0.060	0.014
-596.025	353.880	0.074	0.148
-595.011	-200.000	0.035	0.216
-593.996	-200.000	0.015	0.194
-592.982	3.802	-0.047	-0.035
-591.967	650.319	-0.104	0.266
-590.952	-138.515	0.470	-0.052
-589.938	107.688	0.152	0.182
-588.923	-123.536	0.299	-0.048
-587.909	685.592	-0.015	0.040
-586.894	-200.000	0.105	-0.539
-585.879	72.137	0.066	-0.069
-584.865	-177.569	-0.048	-0.001
-583.850	161.142	-0.273	-0.383
-582.836	132.236	0.133	0.172
-581.821	-88.811	-0.120	-0.036
-580.806	61.100	0.098	-0.098
-579.792	-110.644	0.087	0.018
-578.777	8.663	-0.196	-0.148
-577.763	-36.959	-0.151	-0.081
-576.748	-119.914	-0.175	-0.030
-575.733	84.512	-0.116	-0.128
-574.719	-200.000	-0.040	-0.191
-573.704	446.932	-0.137	-0.303
-572.690	-200.000	0.001	-0.263
-571.675	14.966	0.219	0.172
-570.661	-200.000	0.044	-0.338
-569.646	-55.388	0.352	-0.158
-568.631	-137.156	-0.410	-0.047
-567.617	0.050	0.403	0.288
-566.602	-200.000	0.017	0.082
-565.588	-22.736	-0.157	0.095
-564.573	-17.737	-0.107	0.068
-563.558	23.599	-0.010	-0.008
-562.544	76.124	-0.122	-0.129
-561.529	342.013	-0.079	-0.154
-560.515	40.520	-0.128	-0.116
-559.500	-146.906	0.102	-0.009
-558.485	1.531	-0.132	0.095
-557.471	800.000	-0.072	0.254
-556.456	16.833	0.193	0.153
-555.442	-142.850	0.109	-0.011
-554.427	800.000	-0.112	0.311
-553.412	131.406	-0.125	0.161
-552.398	-17.522	-0.259	0.163
-551.383	-200.000	-0.045	-0.484
-550.369	-32.422	0.061	-0.034
-549.354	56.196	-0.156	0.152
-548.339	-31.502	0.365	0.205
-547.325	-92.973	0.174	-0.049
-546.310	256.850	-0.043	-0.074
-545.296	-200.000	0.036	0.159
-544.281	-200.000	0.039	-0.224
-543.266	-200.000	-0.039	0.185
-542.252	237.541	0.241	0.400
-541.237	166.256	-0.051	0.072
-540.223	130.714	0.093	-0.119
-539.208	-82.807	0.231	-0.075
-538.193	800.000	-0.040	-0.162
-537.179	-32.197	-0.104	0.058
-536.164	-85.728	0.226	0.070
-535.150	35.055	-0.119	0.104
-534.135	-68.836	0.133	0.052
-533.121	-51.001	0.086	-0.040
-532.106	-200.000	-0.004	0.276
-531.091	-200.000	0.024	0.328
-530.077	-123.402	-0.110	0.018
-529.062	-3.482	-0.251	-0.175
-528.048	-24.001	-0.189	-0.113
-527.033	580.760	-0.122	0.299
-526.018	-200.000	0.005	-0.185
-525.004	140.019	0.283	-0.373
-523.989	800.000	-0.110	-0.403
-522.975	128.380	0.070	-0.089
-521.960	74.333	0.193	0.202
-520.945	-66.937	0.206	-0.081
-519.931	-39.428	-0.083	-0.044
-518.916	9.793	0.132	-0.100
-517.902	-200.000	0.027	0.189
-516.887	-147.559	-0.293	-0.025
-515.872	800.000	-0.065	0.258
-514.858	101.556	-0.164	-0.191
-513.843	-200.000	-0.035	-0.161
-512.829	-91.547	0.415	0.118
-511.814	-0.166	0.154	-0.110
-510.799	800.000	-0.049	-0.194
-509.785	624.558	0.100	0.252
-508.770	800.000	-0.119	0.342
-507.756	462.655	0.105	0.235
-506.741	-45.744	0.231	-0.114
-505.726	-18.032	-0.167	0.105
-504.712	372.124	-0.098	0.198
-503.697	327.913	0.187	0.359
-502.683	203.714	0.231	-0.358
-501.668	218.453	0.055	0.087
-500.653	-4.966	-0.191	-0.132
-499.639	-65.895	-0.242	-0.097
-498.624	115.008	-0.077	0.094
-497.610	-93.045	-0.391	-0.109
-496.595	-75.252	-0.187	-0.067
-495.581	529.507	0.067	-0.159
-494.566	800.000	0.135	-0.388
-493.551	-154.327	0.115	-0.008
-492.537	19.053	0.141	0.113
-491.522	-98.625	-0.128	0.033
-490.508	354.643	0.087	-0.172
-489.493	-113.502	0.165	-0.032
-488.478	-200.000	0.008	0.058
-487.464	-108.577	-0.324	-0.070
-486.449	-200.000	0.066	0.616
-485.435	-161.536	-0.232	0.012
-484.420	-62.946	-0.169	-0.070
-483.405	42.431	0.256	0.232
-482.391	-7.585	-0.385	-0.260
-481.376	-190.884	0.496	0.005
-480.362	-92.653	0.033	-0.009
-479.347	-38.463	-0.198	-0.105
-478.332	217.290	0.072	-0.115
-477.318	-98.699	0.138	-0.035
-476.303	172.550	-0.267	-0.384
-475.289	275.362	0.095	-0.168
-474.274	92.161	-0.243	-0.273
-473.259	-156.740	-0.200	-0.012
-472.245	379.850	-0.224	0.459
-471.230	728.376	0.097	0.258
-470.216	67.173	0.096	-0.098
-469.201	49.089	0.205	0.192
-468.186	230.426	-0.036	-0.059
-467.172	-158.396	-0.075	0.004
-466.157	340.407	0.083	0.161
-465.143	-144.378	-0.210	-0.019
-464.128	-200.000	-0.001	-0.234
-463.113	-108.102	0.268	0.058
-462.099	6.488	-0.233	-0.173
-461.084	274.119	-0.156	-0.275
-460.070	-200.000	-0.027	0.158
-459.055	-102.168	-0.254	-0.061
-458.040	111.501	0.139	0.168
-457.026	-200.000	0.047	0.258
-456.011	800.000	-0.042	-0.117
-454.997	-73.560	-0.156	-0.057
-453.982	35.767	-0.153	0.134
-452.968	103.835	0.045	0.053
-451.953	-12.634	-0.261	0.170
-450.938	800.000	0.013	-0.055
-449.924	-63.867	0.155	0.063
-448.909	-129.054	-0.277	-0.039
-447.895	-102.473	0.347	0.083
-446.880	13.904	-0.122	-0.094
-445.865	-200.000	-0.010	0.087
-444.851	74.068	-0.237	-0.248
-443.836	-124.363	0.345	0.054
-442.822	800.000	0.073	0.313
-441.807	655.757	0.040	0.102
-440.792	-200.000	0.022	0.103
-439.778	10.702	0.178	0.136
-438.763	-200.000	0.002	0.216
-437.749	-24.893	-0.126	0.074
-436.734	-174.144	-0.174	0.005
-435.719	800.000	-0.107	-0.436
-434.705	-61.455	0.046	0.019
-433.690	32.315	0.271	0.233
-432.676	-125.543	0.351	-0.053
-431.661	138.367	-0.056	0.073
-430.646	292.230	0.162	0.294
-429.632	348.719	0.210	-0.412
-428.617	-147.691	-0.211	-0.018
-427.603	-200.000	-0.008	-0.059
-426.588	177.007	0.149	-0.216
-425.573	10.824	-0.376	-0.286
-424.559	594.295	-0.150	-0.370
-423.544	-103.944	0.156	-0.036
-422.530	0.383	0.141	0.101
-421.515	-57.698	0.342	-0.149
-420.500	-28.122	-0.240	0.139
-419.486	138.139	-0.217	0.284
-418.471	8.109	0.140	-0.105
-417.457	-28.122	0.240	-0.138
-416.442	-200.000	-0.048	-0.393
-415.428	800.000	0.070	-0.205
-414.413	800.000	-0.072	-0.259
-413.398	388.224	0.042	0.086
-412.384	785.961	0.079	0.217
-411.369	-200.000	-0.021	-0.263
-410.355	433.659	0.038	-0.082
-409.340	-27.973	-0.209	-0.121
-408.325	-61.990	0.408	-0.170
-407.311	-76.232	-0.355	-0.124
-406.296	-65.635	-0.238	0.095
-405.282	225.274	0.066	0.107
-404.267	105.330	-0.060	-0.070
-403.252	605.912	-0.075	-0.187
-402.238	-196.281	-0.366	-0.003
-401.223	88.132	-0.113	-0.125
-400.209	741.313	0.059	0.158
-399.194	195.450	0.030	0.045
-398.179	-139.153	-0.258	0.028
-397.165	44.194	0.219	0.200
-396.150	-59.160	-0.211	0.090
-395.136	-200.000	-0.016	0.189
-394.121	236.447	0.122	0.201
-393.106	-19.748	-0.094	0.058
-392.092	800.000	0.011	-0.031
-391.077	59.034	-0.114	-0.112
-390.063	-158.224	0.243	0.014
-389.048	-5.994	-0.150	0.102
-388.033	58.338	0.123	-0.120
-387.019	-18.675	0.151	0.094
-386.004	-200.000	-0.046	0.351
-384.990	800.000	0.118	-0.327
-383.975	143.555	-0.054	0.071
-382.960	736.393	0.080	0.215
-381.946	-31.850	-0.414	-0.231
-380.931	-3.222	0.171	-0.118
-379.917	-200.000	-0.034	0.269
-378.902	-2.714	-0.072	0.050
-377.888	-200.000	0.008	0.255
-376.873	52.466	0.343	-0.326
-375.858	2.934	0.281	0.203
-374.844	26.419	-0.209	0.174
-373.829	800.000	-0.019	-0.069
-372.815	-71.905	0.333	0.123
-371.800	224.419	-0.119	-0.192
-370.785	-97.603	-0.302	0.078
-369.771	166.879	-0.035	-0.049
-368.756	193.792	-0.135	0.204
-367.742	-200.000	0.029	-0.197
-366.727	121.068	-0.071	0.088
-365.712	298.552	0.041	-0.076
-364.698	-200.000	0.005	-0.050
-363.683	-123.856	0.099	0.016
-362.669	-200.000	-0.069	0.386
-361.654	-49.027	-0.201	0.096
-360.639	800.000	-0.026	0.097
-359.625	-36.573	0.382	-0.204
-358.610	194.689	-0.080	-0.120
-357.596	77.643	0.290	0.307
-356.581	592.681	-0.043	-0.106
-355.566	-27.912	0.147	-0.085
-354.552	-145.444	0.419	-0.037
-353.537	135.026	-0.204	0.264
-352.523	-200.000	0.008	0.146
-351.508	-124.361	0.298	-0.046
-350.493	-139.779	-0.063	0.007
-349.479	-152.223	-0.221	0.016
-348.464	-53.272	0.260	-0.119
-347.450	433.024	-0.008	0.018
-346.435	-200.000	0.027	0.227
-345.420	800.000	-0.054	0.159
-344.406	63.128	-0.255	-0.254
-343.391	-19.400	0.282	-0.174
-342.377	179.251	0.137	0.199
-341.362	-106.573	0.181	0.040
-340.348	-200.000	0.022	-0.262
-339.333	-200.000	-0.024	-0.137
-338.318	-200.000	0.007	-0.187
-337.304	185.782	-0.342	-0.505
-336.289	422.647	-0.120	-0.257
-335.275	-47.841	0.188	-0.090
-334.260	70.176	-0.095	0.097
-333.245	514.301	0.065	0.150
-332.231	99.259	0.239	0.274
-331.216	-15.603	0.211	-0.134
-330.202	-15.878	0.139	0.088
-329.187	-128.291	-0.122	0.017
-328.172	-200.000	0.011	0.160
-327.158	-154.662	0.191	0.013
-326.143	-47.493	-0.410	-0.198
-325.129	-99.907	0.046	0.011
-324.114	-14.068	-0.246	0.158
-323.099	203.751	0.259	0.398
-322.085	251.556	0.121	0.204
-321.070	-65.454	0.186	-0.074
-320.056	800.000	-0.094	-0.389
-319.041	-17.725	-0.108	-0.067
-318.026	252.990	-0.183	-0.310
-317.012	43.630	0.224	0.203
-315.997	234.425	-0.093	0.152
-314.983	-152.520	0.268	0.019
-313.968	-144.092	-0.301	-0.028
-312.953	304.706	0.127	-0.234
-311.939	-200.000	0.059	0.316
-310.924	-114.095	0.109	-0.021
-309.910	-200.000	0.028	-0.204
-308.895	-190.279	0.219	0.002
-307.880	20.873	0.253	-0.203
-306.866	-63.350	0.121	0.049
-305.851	-200.000	-0.057	-0.314
-304.837	-65.671	0.214	0.085
-303.822	-62.800	0.244	0.100
-302.807	126.747	0.104	-0.131
-301.793	800.000	0.110	0.471
-300.778	214.007	0.195	-0.307
-299.764	-34.619	0.225	0.122
-298.749	315.749	0.130	0.243
-297.735	-36.692	0.342	0.182
-296.720	-153.696	-0.129	0.009
-295.705	-119.302	0.171	-0.029
-294.691	-147.072	0.236	-0.020
-293.676	-200.000	-0.054	0.284
-292.662	-1.008	0.129	-0.091
-291.647	800.000	0.049	-0.163
-290.632	159.097	-0.091	0.125
-289.618	-73.161	0.213	0.077
-288.603	385.234	0.122	0.250
-287.589	26.322	0.147	-0.122
-286.574	62.385	-0.239	-0.237
-285.559	-85.055	0.169	-0.052
-284.545	-48.342	0.192	0.092
-283.530	9.828	-0.154	-0.116
-282.516	-9.997	-0.114	-0.075
-281.501	120.027	-0.097	-0.119
-280.486	125.339	-0.177	-0.222
-279.472	800.000	-0.071	0.303
-278.457	467.186	0.029	0.065
-277.443	-200.000	0.019	-0.087
-276.428	-51.559	-0.125	0.058
-275.413	800.000	0.082	-0.263
-274.399	-124.148	0.081	0.013
-273.384	800.000	0.071	0.210
-272.370	-131.056	0.090	-0.012
-271.355	-42.490	0.128	0.065
-270.340	800.000	-0.086	-0.325
-269.326	-184.409	-0.113	-0.002
-268.311	121.488	0.173	0.213
-267.297	192.139	-0.153	-0.228
-266.282	466.642	-0.103	0.229
-265.267	0.619	-0.153	0.109
-264.253	463.401	-0.107	0.236
-263.238	-126.011	0.119	0.018
-262.224	-8.326	-0.023	0.015
-261.209	-36.388	0.291	0.155
-260.195	-7.796	-0.196	-0.131
-259.180	131.701	0.116	0.148
-258.165	-124.842	0.095	0.015
-257.151	-48.311	0.100	0.048
-256.136	12.519	-0.178	-0.136
-255.122	-110.948	-0.029	-0.006
-254.107	800.000	0.018	0.052
-253.092	101.173	0.041	-0.047
-252.078	-101.979	-0.127	0.030
-251.063	137.609	-0.154	0.200
-250.049	-50.275	0.036	0.017
-249.034	611.378	0.098	0.243
-248.019	114.691	0.117	0.142
-247.005	62.664	0.175	-0.173
-245.990	67.935	-0.299	0.302
-244.976	-76.791	0.246	0.085
-243.961	-56.360	0.191	0.084
-242.946	445.600	-0.096	0.208
-241.932	-200.000	-0.050	0.269
-240.917	398.092	-0.067	-0.139
-239.903	-200.000	-0.022	0.304
-238.888	-115.533	0.185	0.034
-237.873	259.534	-0.183	0.312
-236.859	-200.000	0.003	-0.052
-235.844	800.000	0.129	-0.359
-234.830	-0.071	-0.208	-0.146
-233.815	-96.639	-0.227	0.059
-232.800	-5.731	-0.105	-0.071
-231.786	-29.061	0.195	0.111
-230.771	335.046	-0.097	-0.186
-229.757	-200.000	-0.000	0.179
-228.742	73.555	0.061	-0.063
-227.727	-58.185	0.216	0.093
-226.713	-44.573	0.078	-0.039
-225.698	-200.000	0.003	-0.159
-224.684	-200.000	-0.053	0.311
-223.669	-200.000	0.054	-0.240
-222.655	55.444	-0.085	0.082
-221.640	-200.000	-0.014	-0.191
-220.625	-41.204	0.089	-0.045
-219.611	641.611	-0.061	0.153
-218.596	701.090	0.133	-0.347
-217.582	-134.149	-0.221	-0.027
-216.567	-200.000	-0.005	-0.148
-215.552	-89.481	0.152	0.044
-214.538	304.887	-0.138	0.254
-213.523	-9.793	0.042	0.028
-212.509	621.754	0.040	-0.099
-211.494	-4.485	-0.154	0.105
-210.479	29.381	0.100	0.084
-209.465	-150.953	-0.262	-0.020
-208.450	800.000	0.009	0.029
-207.436	166.793	-0.189	-0.265
-206.421	-200.000	-0.006	0.202
-205.406	28.995	0.095	0.080
-204.392	38.566	-0.151	0.133
-203.377	-6.904	0.142	0.096
-202.363	-106.096	-0.311	0.069
-201.348	800.000	-0.015	0.061
-200.333	51.643	-0.303	0.285
-199.319	255.264	-0.062	0.104
-198.304	-27.338	0.203	0.117
-197.290	-77.784	-0.310	-0.106
-196.275	-200.000	-0.027	0.133
-195.260	-200.000	0.008	-0.239
-194.246	-62.543	-0.302	-0.124
-193.231	800.000	-0.007	0.022
-192.217	233.942	0.173	0.282
-191.202	121.854	-0.191	0.235
-190.187	324.203	-0.037	-0.069
-189.173	-92.997	-0.143	0.040
-188.158	-200.000	0.088	0.412
-187.144	-18.517	-0.236	-0.145
-186.129	67.856	-0.128	0.129
-185.114	68.786	-0.116	-0.118
-184.100	-54.299	0.119	-0.053
-183.085	-109.731	-0.172	-0.036
-182.071	339.709	0.132	0.254
-181.056	27.438	0.162	-0.135
-180.042	21.590	0.113	0.091
-179.027	145.677	-0.286	-0.379
-178.012	-200.000	0.043	-0.283
-176.998	25.750	0.293	-0.241
-175.983	223.861	-0.281	-0.447
-174.969	-53.909	-0.201	0.090
-173.954	719.220	0.151	-0.395
-172.939	319.029	0.130	-0.244
-171.925	-117.824	0.060	-0.011
-170.910	-200.000	0.037	0.268
-169.896	-200.000	0.003	-0.230
-168.881	486.191	0.174	-0.390
-167.866	-54.421	0.240	0.107
-166.852	83.252	0.080	-0.086
-165.837	-107.044	0.175	-0.038
-164.823	298.369	-0.148	-0.269
-163.808	800.000	0.046	-0.128
-162.793	-68.146	-0.139	-0.053
-161.779	-7.727	0.120	0.080
-160.764	67.871	-0.185	0.187
-159.750	384.347	0.052	0.106
-158.735	-200.000	0.025	-0.179
-157.720	61.192	-0.342	0.335
-156.706	-57.717	-0.319	0.138
-155.691	-18.314	0.337	-0.208
-154.677	57.037	-0.340	0.327
-153.662	-200.000	0.026	0.148
-152.647	800.000	0.031	0.117
-151.633	-123.679	0.182	0.028
-150.618	-64.030	-0.251	-0.101
-149.604	320.855	0.020	-0.037
-148.589	-37.439	0.286	0.151
-147.574	-61.237	0.079	0.033
-146.560	-200.000	0.045	-0.229
-145.545	161.768	-0.221	-0.306
-144.531	-30.558	0.397	0.222
-143.516	-0.554	0.157	-0.110
-142.502	15.707	0.162	0.125
-141.487	3.812	-0.346	-0.249
-140.472	-138.777	0.225	-0.024
-139.458	63.266	0.066	-0.065
-138.443	800.000	0.039	0.154
-137.429	-200.000	0.012	-0.291
-136.414	75.851	0.245	-0.256
-135.399	-200.000	-0.049	-0.490
-134.385	16.906	-0.061	-0.048
-133.370	-200.000	-0.000	-0.441
-132.356	-33.347	0.081	0.044
-131.341	-61.283	-0.232	-0.096
-130.326	-200.000	-0.029	-0.247
-129.312	-200.000	0.012	0.185
-128.297	176.149	0.126	0.181
-127.283	-48.314	0.069	0.033
-126.268	508.772	-0.073	0.167
-125.253	-84.669	-0.290	-0.090
-124.239	215.657	0.042	0.065
-123.224	287.707	0.097	0.173
-122.210	526.454	-0.161	0.373
-121.195	108.476	-0.259	-0.305
-120.180	62.344	0.043	-0.042
-119.166	-150.712	-0.221	-0.017
-118.151	-200.000	-0.051	-0.250
-117.137	-110.825	0.244	-0.050
-116.122	170.430	-0.147	0.207
-115.107	-114.139	0.111	-0.021
-114.093	-131.508	-0.082	0.011
-113.078	-70.146	0.157	-0.059
-112.064	-74.221	0.324	-0.115
-111.049	0.287	0.291	0.205
-110.034	129.418	-0.065	0.082
-109.020	-0.292	0.153	-0.107
-108.005	16.638	-0.164	0.127
-106.991	496.356	-0.093	-0.212
-105.976	-99.994	-0.190	-0.047
-104.962	-200.000	0.065	0.459
-103.947	148.545	0.154	0.205
-102.932	8.003	0.188	0.139
-101.918	-68.166	0.201	0.077
-100.903	-200.000	0.011	-0.314
-99.889	-200.000	-0.011	0.163
-98.874	-40.993	0.290	0.147
-97.859	-62.006	0.155	-0.064
-96.845	800.000	-0.087	0.306
-95.830	354.624	0.133	-0.260
-94.816	-12.585	-0.096	0.061
-93.801	-82.866	0.103	0.033
-92.786	-102.982	0.157	0.037
-91.772	405.660	0.165	0.342
-90.757	-39.088	0.120	-0.062
-89.743	-73.327	-0.091	-0.033
-88.728	-200.000	-0.050	0.353
-87.713	417.701	-0.150	-0.315
-86.699	-112.912	-0.234	0.046
-85.684	95.824	-0.210	-0.236
-84.670	520.313	-0.067	-0.154
-83.655	-118.696	0.146	0.025
-82.640	81.144	0.033	-0.035
-81.626	335.770	-0.081	0.154
-80.611	66.419	-0.215	-0.214
-79.597	206.234	0.054	0.082
-78.582	548.658	-0.147	0.345
-77.567	-49.401	0.224	0.105
-76.553	-147.525	-0.180	0.015
-75.538	237.847	-0.107	-0.174
-74.524	92.840	0.087	-0.097
-73.509	-200.000	0.051	0.305
-72.494	-200.000	0.018	0.363
-71.480	151.828	0.091	0.122
-70.465	169.469	-0.043	-0.061
-69.451	2.699	-0.255	-0.182
-68.436	221.745	0.108	0.170
-67.422	405.153	-0.164	0.340
-66.407	-179.926	-0.118	0.002
-65.392	800.000	0.073	-0.215
-64.378	-152.257	0.098	0.007
-63.363	21.546	0.082	0.066
-62.349	50.381	-0.237	0.220
-61.334	223.397	-0.638	-1.011
-60.319	161.615	0.205	0.283
-59.305	-200.000	0.139	-0.932
-58.290	551.324	0.368	0.868
-57.276	800.000	0.589	1.661
-56.261	-200.000	97.718	589.370
-55.246	554.328	1394.404	3295.127
-54.232	153.614	2598.584	3496.743
-53.217	108.016	2282.243	2672.162
-52.203	43.508	1899.624	1705.979
-51.188	37.438	1690.203	1472.070
-50.173	34.678	1646.370	1413.438
-49.159	52.644	1694.429	1589.870
-48.144	55.591	1711.816	1628.203
-47.130	37.118	1668.444	1450.494
-46.115	34.155	1653.786	1415.691
-45.100	34.067	1648.994	1410.882
-44.086	33.971	1646.804	1408.242
-43.071	34.090	1643.820	1406.510
-42.057	34.120	1641.009	1404.277
-41.042	34.101	1639.336	1402.648
-40.027	34.063	1637.530	1400.767
-39.013	34.062	1635.418	1398.896
-37.998	33.983	1633.604	1396.706
-36.984	34.091	1632.655	1396.632
-35.969	34.199	1630.950	1395.913
-34.954	34.280	1629.127	1394.888
-33.940	34.254	1627.007	1392.832
-32.925	34.205	1625.523	1391.146
-31.911	34.170	1624.073	1389.598
-30.896	34.167	1622.062	1387.795
-29.881	34.156	1620.611	1386.417
-28.867	34.144	1618.839	1384.763
-27.852	34.167	1617.345	1383.594
-26.838	34.102	1616.108	1382.008
-25.823	34.186	1614.707	1381.369
-24.809	34.123	1613.602	1379.910
-23.794	34.157	1612.468	1379.135
-22.779	34.227	1610.253	1377.688
-21.765	34.222	1608.878	1376.420
-20.750	34.167	1607.108	1374.458
-19.736	34.257	1605.579	1373.746
-18.721	34.231	1604.334	1372.436
-17.706	34.253	1602.740	1371.174
-16.692	34.191	1601.393	1369.526
-15.677	34.191	1600.182	1368.437
-14.663	34.223	1598.935	1367.546
-13.648	34.302	1596.749	1366.186
-12.633	34.255	1595.073	1364.362
-11.619	34.245	1594.102	1363.404
-10.604	34.233	1592.292	1361.714
-9.590	34.239	1591.166	1360.741
-8.575	34.211	1590.152	1359.618
-7.560	34.224	1588.967	1358.645
-6.546	34.243	1587.728	1357.670
-5.531	34.258	1586.782	1356.911
-4.517	34.234	1585.470	1355.563
-3.502	34.157	1584.551	1354.178
-2.487	34.305	1582.705	1353.599
-1.473	33.923	1571.156	1340.977
-0.458	31.244	1552.077	1305.930
0.556	27.973	1553.186	1275.386
1.571	25.778	1577.017	1279.267
2.586	25.513	1591.039	1288.625
3.600	22.713	1537.669	1225.865
4.615	12.916	1426.225	1073.451
5.629	3.756	1358.634	965.472
6.644	2.031	1350.670	949.005
7.659	1.880	1348.897	946.740
8.673	1.923	1347.896	946.218
9.688	1.736	1345.888	943.564
10.702	1.604	1342.633	940.383
11.717	5.177	1349.604	967.351
12.731	15.491	1369.418	1046.031
13.746	24.018	1383.637	1110.237
14.761	25.994	1386.392	1124.689
15.775	26.304	1386.065	1126.253
16.790	26.370	1385.426	1126.045
17.804	26.448	1384.856	1125.970
18.819	26.576	1385.038	1126.815
19.834	26.762	1384.151	1127.150
20.848	26.778	1383.218	1126.388
21.863	26.788	1382.264	1125.573
22.877	26.827	1381.456	1125.062
23.892	26.811	1380.726	1124.267
24.907	26.814	1379.992	1123.584
25.921	26.731	1378.972	1122.142
26.936	26.670	1378.099	1120.959
27.950	26.754	1376.943	1120.434
28.965	26.810	1375.594	1119.583
29.980	26.794	1374.313	1118.345
30.994	26.581	1373.657	1116.401
32.009	26.769	1372.106	1116.196
33.023	26.759	1370.903	1115.055
34.038	26.785	1369.585	1114.048
35.053	26.602	1369.342	1112.628
36.067	26.697	1367.985	1112.006
37.082	26.795	1366.758	1111.511
38.096	26.750	1366.107	1110.611
39.111	26.771	1365.202	1109.903
40.126	26.738	1365.112	1109.529
41.140	26.738	1364.155	1108.652
42.155	26.730	1363.747	1108.178
43.169	26.728	1363.729	1108.048
44.184	26.772	1363.620	1108.133
45.199	26.730	1362.626	1106.969
46.213	26.706	1362.556	1106.667
47.228	26.700	1361.699	1105.840
48.242	26.766	1360.358	1105.056
49.257	26.741	1358.696	1103.452
50.271	26.667	1357.602	1102.016
51.286	26.782	1356.065	1101.372
52.301	26.757	1355.021	1100.273
53.315	26.753	1353.924	1099.262
54.330	26.668	1353.248	1098.099
55.344	26.704	1352.380	1097.516
56.359	26.714	1350.785	1096.188
57.374	26.737	1350.316	1095.849
58.388	26.636	1349.607	1094.568
59.403	26.680	1349.674	1094.790
60.417	26.601	1348.883	1093.575
61.432	26.742	1347.855	1093.493
62.447	26.650	1347.267	1092.365
63.461	26.690	1345.690	1091.231
64.476	26.811	1344.452	1090.859
65.490	26.751	1343.741	1089.826
66.505	26.807	1342.285	1088.885
67.520	26.622	1341.452	1086.999
68.534	26.720	1340.040	1086.345
69.549	26.690	1339.220	1085.409
70.563	26.729	1338.471	1084.936
71.578	26.698	1337.744	1084.069
72.593	26.705	1336.552	1083.050
73.607	26.663	1336.201	1082.416
74.622	26.716	1335.141	1081.781
75.636	26.698	1334.540	1081.086
76.651	26.759	1333.950	1080.881
77.666	26.796	1333.771	1080.860
78.680	26.732	1333.039	1079.789
79.695	26.776	1331.977	1079.091
80.709	26.806	1331.056	1078.430
81.724	26.719	1330.347	1077.246
82.739	26.748	1329.539	1076.666
83.753	26.559	1329.006	1075.017
84.768	26.600	1327.854	1074.231
85.782	26.807	1326.192	1074.017
86.797	26.779	1324.987	1072.784
87.812	26.757	1324.205	1071.927
88.826	26.750	1322.994	1070.808
89.841	26.658	1322.563	1069.823
90.855	26.708	1321.276	1068.983
91.870	26.751	1320.399	1068.428
92.884	26.861	1319.299	1068.093
93.899	26.921	1318.325	1067.565
94.914	26.713	1318.060	1066.033
95.928	26.715	1317.252	1065.295
96.943	26.794	1316.575	1065.120
97.957	26.862	1315.832	1064.821
98.972	26.821	1314.934	1063.757
99.987	26.707	1314.247	1062.444
101.001	26.885	1312.732	1062.165
102.016	26.786	1312.290	1061.136
103.030	26.857	1311.012	1060.419
104.045	26.842	1310.093	1059.495
105.060	26.742	1309.472	1058.318
106.074	26.842	1308.402	1057.944
107.089	26.767	1307.725	1056.867
108.103	26.874	1306.488	1056.393
109.118	26.950	1305.199	1055.701
110.133	26.729	1304.375	1053.657
111.147	26.881	1303.293	1053.573
112.162	26.905	1302.049	1052.612
113.176	26.993	1300.767	1051.993
114.191	26.867	1300.391	1050.864
115.206	26.941	1298.972	1050.054
116.220	26.833	1298.061	1048.599
117.235	26.864	1297.248	1048.030
118.249	26.811	1296.623	1047.124
119.264	26.838	1295.911	1046.616
120.279	26.920	1294.755	1046.063
121.293	26.807	1294.490	1045.100
122.308	26.926	1293.304	1044.736
123.322	26.883	1292.876	1044.052
124.337	26.920	1291.716	1043.233
125.352	26.894	1290.868	1042.311
126.366	26.925	1289.985	1041.684
127.381	26.886	1289.080	1040.637
128.395	26.873	1287.880	1039.502
129.410	26.911	1287.468	1039.294
130.424	26.856	1286.924	1038.445
131.439	26.866	1285.763	1037.476
132.454	26.883	1285.075	1036.925
133.468	26.928	1284.264	1036.436
134.483	26.929	1283.798	1035.973
135.497	26.795	1283.504	1034.880
136.512	26.906	1281.830	1034.070
137.527	27.005	1280.650	1033.594
138.541	26.877	1279.848	1032.128
139.556	26.922	1278.344	1031.076
140.570	26.862	1278.049	1030.408
141.585	26.826	1276.698	1029.024
142.600	26.895	1275.438	1028.308
143.614	26.853	1274.899	1027.543
144.629	26.850	1273.702	1026.470
145.643	26.767	1273.083	1025.412
146.658	26.829	1271.514	1024.409
147.673	26.842	1270.362	1023.461
148.687	26.787	1270.156	1022.895
149.702	26.745	1268.984	1021.623
150.716	26.762	1267.723	1020.612
151.731	26.879	1266.477	1020.178
152.746	26.952	1265.638	1019.825
153.760	26.945	1264.660	1018.906
154.775	26.852	1263.812	1017.613
155.789	26.954	1262.761	1017.248
156.804	26.906	1262.111	1016.366
157.819	26.899	1261.235	1015.526
158.833	26.864	1260.559	1014.696
159.848	26.936	1260.157	1014.690
160.862	26.950	1259.068	1013.802
161.877	26.926	1258.464	1013.090
162.892	26.876	1257.915	1012.276
163.906	26.911	1256.951	1011.607
164.921	27.024	1256.271	1011.602
165.935	27.007	1255.477	1010.779
166.950	27.101	1254.836	1010.697
167.964	27.039	1254.267	1009.806
168.979	26.967	1253.902	1009.018
169.994	27.094	1252.823	1008.770
171.008	27.083	1252.296	1008.194
172.023	27.020	1251.477	1007.095
173.037	27.018	1250.674	1006.346
174.052	27.084	1249.643	1005.795
175.067	27.036	1249.296	1005.163
176.081	26.997	1248.583	1004.285
177.096	26.971	1247.892	1003.497
178.110	26.977	1247.072	1002.777
179.125	27.057	1245.968	1002.246
180.140	27.082	1244.769	1001.327
181.154	26.973	1243.868	999.915
182.169	26.977	1242.858	999.035
183.183	27.083	1241.741	998.635
184.198	27.039	1240.790	997.537
185.213	27.051	1240.315	997.133
186.227	27.112	1238.932	996.271
187.242	27.096	1238.080	995.408
188.256	27.128	1237.235	994.816
189.271	27.078	1236.325	993.723
190.286	27.134	1235.557	993.324
191.300	27.077	1235.340	992.748
192.315	26.971	1235.122	991.906
193.329	27.104	1234.200	991.807
194.344	27.107	1234.219	991.748
195.359	27.036	1233.556	990.742
196.373	27.144	1232.940	990.747
197.388	27.083	1232.380	989.877
198.402	27.042	1232.008	989.266
199.417	27.050	1231.488	988.808
200.432	27.224	1230.700	989.033
201.446	27.171	1230.523	988.512
202.461	26.993	1230.232	987.224
203.475	27.169	1228.640	986.817
204.490	27.095	1227.985	985.799
205.504	27.100	1226.997	984.946
206.519	27.252	1226.010	984.893
207.534	27.207	1224.960	983.718
208.548	27.058	1224.435	982.402
209.563	27.224	1223.447	982.421
210.577	27.154	1222.829	981.456
211.592	27.184	1221.671	980.604
212.607	27.295	1220.887	980.489
213.621	27.278	1220.486	979.988
214.636	27.254	1219.591	979.049
215.650	27.240	1218.828	978.279
216.665	27.251	1217.850	977.463
217.680	27.141	1217.221	976.284
218.694	27.225	1216.328	975.933
219.709	27.234	1215.346	975.105
220.723	27.295	1214.791	974.899
221.738	27.208	1213.944	973.666
222.753	27.196	1213.682	973.309
223.767	27.341	1212.821	973.306
224.782	27.356	1211.817	972.494
225.796	27.276	1211.655	971.852
226.811	27.334	1210.942	971.502
227.826	27.294	1210.500	970.848
228.840	27.333	1209.972	970.549
229.855	27.383	1209.045	969.984
230.869	27.339	1208.450	969.186
231.884	27.402	1207.775	968.898
232.899	27.406	1207.055	968.252
233.913	27.290	1207.077	967.571
234.928	27.297	1206.720	967.235
235.942	27.404	1205.452	966.701
236.957	27.357	1204.962	965.974
237.972	27.423	1203.910	965.393
238.986	27.378	1203.760	964.952
240.001	27.411	1202.858	964.318
241.015	27.438	1202.350	963.968
242.030	27.473	1201.453	963.348
243.045	27.430	1200.602	962.354
244.059	27.561	1199.958	962.442
245.074	27.575	1198.988	961.654
246.088	27.567	1198.284	960.959
247.103	27.517	1197.358	959.868
248.117	27.452	1196.825	959.015
249.132	27.498	1196.117	958.606
250.147	27.622	1195.465	958.652
251.161	27.583	1194.449	957.549
252.176	27.658	1193.733	957.283
253.190	27.676	1193.171	956.839
254.205	27.622	1192.889	956.247
255.220	27.546	1192.225	955.229
256.234	27.708	1191.439	955.368
257.249	27.626	1190.978	954.481
258.263	27.611	1190.539	953.966
259.278	27.552	1190.036	953.172
260.293	27.606	1189.369	952.835
261.307	27.548	1188.790	951.985
262.322	27.630	1187.742	951.488
263.336	27.682	1187.025	951.101
264.351	27.650	1186.692	950.581
265.366	27.595	1186.498	950.057
266.380	27.687	1185.321	949.510
267.395	27.610	1184.854	948.649
268.409	27.548	1184.420	947.895
269.424	27.671	1183.531	947.741
270.439	27.739	1183.323	947.841
271.453	27.697	1182.617	946.977
272.468	27.622	1181.715	945.780
273.482	27.706	1180.833	945.424
274.497	27.784	1180.131	945.183
275.512	27.847	1179.920	945.260
276.526	27.788	1179.122	944.231
277.541	27.701	1178.680	943.343
278.555	27.743	1178.031	942.954
279.570	27.848	1177.244	942.786
280.585	27.688	1176.755	941.484
281.599	27.702	1175.936	940.817
282.614	27.872	1174.747	940.660
283.628	27.844	1173.628	939.535
284.643	27.831	1172.944	938.838
285.657	27.863	1172.221	938.339
286.672	27.744	1171.437	937.017
287.687	27.880	1170.666	937.017
288.701	27.786	1170.214	936.092
289.716	27.918	1169.426	936.052
290.730	27.884	1168.806	935.299
291.745	27.940	1168.092	934.932
292.760	27.823	1167.460	933.746
293.774	27.971	1166.717	933.825
294.789	27.936	1166.430	933.332
295.803	27.893	1165.820	932.544
296.818	27.831	1165.807	932.134
297.833	27.999	1164.729	932.046
298.847	28.020	1163.938	931.441
299.862	27.929	1163.123	930.243
300.876	28.066	1162.428	930.299
301.891	27.923	1162.224	929.329
302.906	28.028	1160.776	928.618
303.920	28.037	1160.723	928.540
304.935	28.040	1160.086	927.967
305.949	28.010	1159.449	927.221
306.964	27.938	1158.843	926.289
307.979	28.070	1158.090	926.274
308.993	28.207	1157.275	926.231
310.008	28.056	1156.764	924.977
311.022	28.217	1155.901	925.018
312.037	28.116	1155.216	923.879
313.052	28.214	1154.110	923.406
314.066	28.106	1153.251	922.095
315.081	28.061	1153.077	921.648
316.095	28.148	1152.244	921.337
317.110	27.972	1152.080	920.241
318.125	28.235	1151.129	920.720
319.139	28.155	1150.643	919.850
320.154	28.180	1149.731	919.164
321.168	28.200	1149.391	918.913
322.183	28.087	1149.051	917.994
323.197	28.123	1148.472	917.626
324.212	28.089	1148.101	917.082
325.227	28.175	1147.395	916.864
326.241	28.206	1146.345	916.102
327.256	28.208	1146.313	916.002
328.270	28.236	1145.168	915.150
329.285	28.290	1144.301	914.642
330.300	28.328	1142.990	913.707
331.314	28.213	1142.829	912.920
332.329	28.289	1141.656	912.282
333.343	28.343	1140.947	911.904
334.358	28.276	1140.656	911.259
335.373	28.365	1139.507	910.702
336.387	28.386	1139.351	910.601
337.402	28.439	1138.501	910.102
338.416	28.371	1137.733	909.072
339.431	28.474	1136.992	908.911
340.446	28.406	1136.345	907.975
341.460	28.397	1135.792	907.407
342.475	28.385	1135.476	907.017
343.489	28.434	1134.284	906.228
344.504	28.437	1133.287	905.366
345.519	28.462	1132.527	904.800
346.533	28.455	1131.937	904.215
347.548	28.481	1131.125	903.613
348.562	28.547	1130.637	903.469
349.577	28.469	1129.982	902.481
350.592	28.472	1129.035	901.659
351.606	28.456	1128.678	901.218
352.621	28.509	1127.805	900.703
353.635	28.487	1127.814	900.521
354.650	28.484	1126.794	899.611
355.665	28.620	1125.923	899.501
356.679	28.471	1125.859	898.641
357.694	28.564	1124.988	898.324
358.708	28.611	1124.050	897.724
359.723	28.604	1123.553	897.213
360.738	28.580	1122.730	896.359
361.752	28.546	1122.311	895.780
362.767	28.660	1121.616	895.703
363.781	28.721	1121.469	895.802
364.796	28.567	1120.852	894.480
365.810	28.642	1120.303	894.329
366.825	28.673	1119.288	893.591
367.840	28.745	1119.344	893.908
368.854	28.729	1118.620	893.172
369.869	28.798	1117.683	892.679
370.883	28.738	1116.730	891.549
371.898	28.636	1116.469	890.767
372.913	28.652	1115.953	890.354
373.927	28.779	1115.117	890.223
374.942	28.848	1114.745	890.182
375.956	28.817	1113.933	889.304
376.971	28.804	1113.688	888.963
377.986	28.815	1113.044	888.426
379.000	28.912	1112.496	888.378
380.015	28.901	1112.002	887.853
381.029	28.854	1111.434	887.093
382.044	28.915	1110.655	886.688
383.059	28.772	1110.467	885.769
384.073	28.891	1109.657	885.620
385.088	28.942	1108.631	884.966
386.102	28.926	1107.607	883.992
387.117	28.916	1107.030	883.409
388.132	28.909	1106.264	882.684
389.146	29.000	1105.412	882.363
390.161	29.023	1104.835	881.935
391.175	29.010	1104.032	881.153
392.190	29.162	1103.255	881.184
393.205	28.925	1103.101	879.845
394.219	28.884	1102.595	879.172
395.234	28.993	1101.491	878.733
396.248	29.079	1100.546	878.309
397.263	29.099	1100.031	877.919
398.278	29.159	1099.149	877.421
399.292	29.050	1098.979	876.691
400.307	29.177	1097.938	876.386
401.321	29.230	1096.917	875.747
402.336	29.120	1096.746	875.007
403.350	29.077	1095.993	874.124
404.365	29.145	1095.488	873.969
405.380	29.209	1094.521	873.422
406.394	29.162	1094.221	872.882
407.409	29.126	1093.552	872.102
408.423	29.297	1092.640	872.110
409.438	29.240	1091.833	871.114
410.453	29.242	1091.222	870.561
411.467	29.317	1090.648	870.381
412.482	29.228	1090.012	869.376
413.496	29.327	1089.207	869.123
414.511	29.222	1088.743	868.183
415.526	29.331	1087.866	867.917
416.540	29.170	1087.862	867.081
417.555	29.326	1087.576	867.513
418.569	29.482	1086.962	867.680
419.584	29.335	1086.252	866.343
420.599	29.351	1086.086	866.211
421.613	102.764	1318.660	1448.708
422.628	95.725	1352.519	1448.815
