DTS Sentinel unit serial number:	SN413079Multiplexer serial number:	ORYXHardware model number:	OX4-SRSoftware version number:	ORYX F/W v4.00 Oryx Data Collector v3.7.2.0data status	okinstallation	princeton_trtdifferential loss correction	single-endedforward channel	channel 2reverse channel	N/Adate	2019/09/11time	09:13:10forward acquisition time	60.00reverse acquisition time	0.00gamma	496.2192k internal	0.2318k external	0.2318temperature offset calibration	0.9969default loss term (dB/km)	0.3790temperature slope calibration	1.0000multiplexer offset coefficient	1.0000multiplexer slope coefficient	1.0000fibre end	0.00T internal ref (°C)	34.31T ext. ref 1 (°C)	0.08T ext. ref 2 (°C)	30.25length (m)	temperature (°C)	Stokes	anti-Stokes-747.200	241.072	0.105	-0.178
-746.185	800.000	-0.055	0.218
-745.171	800.000	0.066	0.283
-744.156	-59.894	-0.403	0.174
-743.142	-155.497	0.104	0.007
-742.127	133.289	0.221	0.289
-741.112	48.728	-0.258	0.245
-740.098	331.886	0.045	-0.088
-739.083	-200.000	-0.034	-0.331
-738.069	-200.000	-0.011	0.073
-737.054	-200.000	-0.010	-0.527
-736.039	-79.886	-0.047	0.016
-735.025	130.148	-0.120	0.156
-734.010	-32.738	0.297	0.167
-732.996	726.690	0.089	-0.240
-731.981	109.744	-0.226	0.274
-730.966	-108.698	0.297	0.064
-729.952	232.208	-0.085	-0.141
-728.937	-0.603	-0.284	-0.204
-727.923	-31.362	-0.236	0.134
-726.908	175.056	-0.245	0.360
-725.894	-31.789	0.243	-0.138
-724.879	177.262	-0.090	-0.133
-723.864	54.320	0.168	-0.164
-722.850	-152.413	-0.179	0.013
-721.835	-36.367	0.046	-0.025
-720.821	112.768	-0.049	0.060
-719.806	579.617	-0.226	0.560
-718.791	-46.197	0.164	0.081
-717.777	260.096	0.171	-0.298
-716.762	523.378	0.066	-0.157
-715.748	147.010	-0.274	-0.372
-714.733	800.000	0.099	-0.317
-713.718	-87.347	-0.194	-0.060
-712.704	-43.571	0.211	0.108
-711.689	-57.985	0.193	-0.085
-710.675	-137.327	0.138	0.016
-709.660	-200.000	-0.013	-0.272
-708.645	-97.643	0.237	-0.062
-707.631	17.193	-0.460	0.369
-706.616	184.737	-0.119	0.178
-705.602	562.026	0.074	-0.181
-704.587	-200.000	0.082	-0.450
-703.572	-200.000	-0.004	0.043
-702.558	800.000	0.052	0.167
-701.543	-147.978	-0.392	0.033
-700.529	-35.206	-0.163	0.090
-699.514	800.000	0.079	-0.225
-698.499	-200.000	-0.033	0.197
-697.485	800.000	0.025	-0.071
-696.470	-66.187	0.296	0.119
-695.456	97.664	0.116	0.134
-694.441	-60.188	-0.223	-0.096
-693.426	800.000	0.092	0.276
-692.412	796.866	-0.116	-0.322
-691.397	-200.000	0.018	0.271
-690.383	73.524	-0.029	0.031
-689.368	-200.000	0.054	-0.262
-688.354	800.000	-0.075	-0.326
-687.339	444.785	-0.139	-0.309
-686.324	-60.839	-0.210	-0.090
-685.310	-81.134	0.249	-0.083
-684.295	563.960	-0.114	-0.278
-683.281	-39.577	-0.313	-0.165
-682.266	273.923	-0.192	-0.343
-681.251	105.884	-0.149	-0.178
-680.237	-110.889	-0.268	-0.056
-679.222	93.096	0.116	0.133
-678.208	390.050	0.043	-0.091
-677.193	0.986	-0.268	-0.194
-676.178	-2.017	-0.131	-0.093
-675.164	-41.346	-0.130	-0.067
-674.149	132.233	-0.106	-0.137
-673.135	-200.000	0.113	0.000
-672.120	153.887	-0.128	-0.177
-671.105	-121.631	-0.208	-0.035
-670.091	51.568	-0.098	-0.094
-669.076	24.741	0.165	0.138
-668.062	-91.043	0.073	-0.021
-667.047	-167.757	-0.103	-0.004
-666.032	-192.180	-0.113	-0.001
-665.018	-96.798	-0.341	-0.090
-664.003	203.505	0.069	0.107
-662.989	104.518	0.137	0.163
-661.974	800.000	0.090	0.314
-660.959	-200.000	0.024	0.253
-659.945	-51.024	-0.232	0.110
-658.930	-155.640	0.237	-0.015
-657.916	-0.178	0.368	0.264
-656.901	141.696	0.230	0.307
-655.886	-171.296	-0.186	-0.006
-654.872	800.000	0.156	0.450
-653.857	55.440	-0.186	-0.182
-652.843	-200.000	-0.019	0.129
-651.828	12.232	0.096	0.075
-650.814	336.979	0.038	-0.074
-649.799	-21.454	0.114	0.070
-648.784	-57.053	-0.004	0.002
-647.770	-32.745	0.133	-0.075
-646.755	-80.260	-0.298	-0.101
-645.741	800.000	-0.108	-0.311
-644.726	513.376	-0.078	-0.183
-643.711	-200.000	-0.018	0.324
-642.697	-2.493	-0.096	0.068
-641.682	-109.822	-0.227	-0.048
-640.668	168.618	0.128	0.184
-639.653	-109.019	-0.274	0.059
-638.638	61.302	-0.296	-0.297
-637.624	51.998	0.081	0.078
-636.609	-125.408	0.050	-0.008
-635.595	-150.058	-0.187	0.015
-634.580	-35.161	0.185	0.102
-633.565	-95.575	-0.154	0.042
-632.551	-173.587	0.165	-0.005
-631.536	-54.450	0.378	0.173
-630.522	258.796	0.145	0.252
-629.507	-37.317	0.158	0.085
-628.492	-1.039	-0.192	-0.137
-627.478	-200.000	-0.041	-0.245
-626.463	30.736	0.043	0.037
-625.449	800.000	-0.032	-0.112
-624.434	158.313	0.135	0.189
-623.419	-43.434	-0.293	-0.149
-622.405	-200.000	0.061	-0.270
-621.390	800.000	-0.055	-0.188
-620.376	-89.713	-0.115	-0.034
-619.361	83.515	-0.152	-0.166
-618.346	29.762	0.276	0.237
-617.332	-128.315	-0.280	-0.040
-616.317	-65.865	0.144	-0.058
-615.303	121.271	-0.126	-0.158
-614.288	25.129	-0.338	-0.282
-613.273	108.865	0.175	0.210
-612.259	233.629	0.124	-0.205
-611.244	91.795	0.148	0.167
-610.230	-17.020	-0.280	0.178
-609.215	-200.000	0.005	0.145
-608.201	-54.935	0.241	0.109
-607.186	-78.575	0.366	0.126
-606.171	-50.489	0.053	0.025
-605.157	800.000	-0.129	-0.532
-604.142	161.660	0.113	0.159
-603.128	-200.000	0.015	-0.074
-602.113	12.697	-0.215	-0.167
-601.098	-146.358	0.168	0.015
-600.084	-38.696	0.164	0.087
-599.069	-18.985	-0.191	0.120
-598.055	-116.947	0.240	0.044
-597.040	99.504	-0.092	0.107
-596.025	800.000	0.015	-0.062
-595.011	-200.000	-0.028	-0.259
-593.996	-82.817	0.052	0.017
-592.982	800.000	0.031	-0.112
-591.967	735.632	0.025	-0.067
-590.952	165.327	0.180	0.256
-589.938	-7.496	0.367	-0.250
-588.923	-200.000	0.033	-0.166
-587.909	100.402	0.261	0.304
-586.894	-53.585	0.191	0.088
-585.879	800.000	0.042	0.140
-584.865	-200.000	-0.013	-0.230
-583.850	492.560	0.040	0.093
-582.836	-182.073	-0.513	0.010
-581.821	-200.000	-0.032	-0.157
-580.806	-11.236	0.149	-0.099
-579.792	-74.728	-0.204	-0.074
-578.777	-61.299	-0.139	-0.059
-577.763	-200.000	-0.009	0.077
-576.748	173.161	-0.137	-0.198
-575.733	642.296	0.145	-0.372
-574.719	-131.564	0.083	-0.011
-573.704	-200.000	-0.002	0.098
-572.690	-85.064	-0.205	-0.064
-571.675	-26.745	-0.302	-0.177
-570.661	-200.000	-0.030	-0.162
-569.646	-136.545	-0.296	-0.035
-568.631	800.000	-0.047	0.174
-567.617	-122.635	-0.082	-0.013
-566.602	-59.563	0.209	0.090
-565.588	-169.933	0.267	-0.010
-564.573	338.031	0.086	-0.167
-563.558	-97.039	0.179	-0.047
-562.544	-41.767	-0.200	-0.103
-561.529	16.129	-0.267	-0.212
-560.515	21.612	-0.299	-0.245
-559.500	714.346	-0.058	0.155
-558.485	-64.871	0.322	0.131
-557.471	800.000	0.081	-0.352
-556.456	-86.638	0.349	-0.107
-555.442	225.046	0.110	0.179
-554.427	39.491	0.265	-0.238
-553.412	152.692	-0.079	-0.108
-552.398	117.481	0.116	-0.143
-551.383	-73.907	-0.281	0.103
-550.369	800.000	-0.080	-0.250
-549.354	187.648	-0.064	0.097
-548.339	800.000	-0.141	-0.499
-547.325	-200.000	0.003	-0.292
-546.310	-126.417	-0.307	0.046
-545.296	800.000	0.052	0.154
-544.281	-67.404	-0.172	-0.068
-543.266	35.059	0.114	0.100
-542.252	405.588	-0.078	0.165
-541.237	800.000	0.147	0.483
-540.223	-200.000	0.085	-0.404
-539.208	800.000	0.113	0.450
-538.193	800.000	0.048	-0.209
-537.179	-19.405	-0.081	-0.051
-536.164	0.386	0.141	-0.101
-535.150	102.156	0.063	0.074
-534.135	25.149	-0.113	-0.094
-533.121	149.265	0.129	-0.175
-532.106	-143.297	0.121	0.012
-531.091	113.991	-0.142	0.174
-530.077	-60.915	-0.275	0.117
-529.062	-30.045	-0.040	0.023
-528.048	190.013	-0.054	-0.081
-527.033	-145.408	0.024	-0.002
-526.018	-65.744	0.151	-0.061
-525.004	197.386	-0.158	-0.242
-523.989	-75.553	0.072	-0.026
-522.975	-9.404	-0.449	-0.301
-521.960	178.080	-0.024	0.036
-520.945	325.796	-0.061	-0.118
-519.931	-56.626	0.150	0.067
-518.916	319.433	0.191	-0.364
-517.902	800.000	0.048	0.150
-516.887	800.000	0.073	-0.253
-515.872	-29.207	-0.285	-0.164
-514.858	-126.718	-0.234	-0.035
-513.843	522.251	-0.087	0.204
-512.829	15.245	0.297	-0.234
-511.814	-6.018	-0.195	-0.134
-510.799	-126.678	-0.146	-0.022
-509.785	160.683	0.129	0.181
-508.770	200.452	0.016	-0.024
-507.756	800.000	0.051	-0.214
-506.741	-200.000	0.001	-0.077
-505.726	-131.664	-0.468	-0.062
-504.712	47.045	0.194	0.181
-503.697	-143.041	0.169	-0.016
-502.683	352.374	0.063	-0.125
-501.668	28.609	0.036	-0.031
-500.653	29.481	0.377	-0.322
-499.639	-151.393	-0.406	-0.030
-498.624	-200.000	-0.013	-0.066
-497.610	154.974	0.174	0.239
-496.595	-64.079	-0.116	0.047
-495.581	-200.000	-0.033	0.367
-494.566	-98.701	0.200	-0.051
-493.551	-86.541	-0.214	-0.066
-492.537	128.696	-0.108	-0.138
-491.522	154.870	0.072	0.100
-490.508	322.511	-0.068	0.129
-489.493	670.735	-0.123	0.319
-488.478	-75.773	-0.091	-0.032
-487.464	-200.000	-0.008	0.168
-486.449	159.826	-0.076	0.107
-485.435	-111.866	0.093	0.019
-484.420	135.133	0.042	0.054
-483.405	-200.000	-0.036	0.164
-482.391	415.731	-0.226	-0.482
-481.376	-43.613	-0.027	0.013
-480.362	-109.604	-0.361	-0.076
-479.347	-193.777	0.134	0.001
-478.332	116.376	0.182	0.224
-477.318	76.753	0.040	0.043
-476.303	-93.430	0.136	0.038
-475.289	-200.000	0.035	-0.171
-474.274	13.486	-0.262	0.204
-473.259	769.564	-0.026	-0.072
-472.245	-103.206	0.126	0.030
-471.230	-125.801	-0.177	0.027
-470.216	800.000	-0.036	-0.148
-469.201	383.432	-0.017	0.035
-468.186	-54.413	0.092	0.042
-467.172	-200.000	-0.016	0.119
-466.157	-29.262	0.196	0.112
-465.143	152.907	0.227	0.311
-464.128	-143.996	-0.209	-0.020
-463.113	-145.685	0.258	-0.023
-462.099	19.592	-0.199	0.160
-461.084	14.741	-0.182	0.142
-460.070	-200.000	-0.010	0.148
-459.055	-183.460	0.330	0.006
-458.040	-200.000	-0.003	0.109
-457.026	17.765	-0.245	-0.195
-456.011	69.769	-0.170	-0.176
-454.997	-77.310	-0.127	0.044
-453.982	494.209	-0.125	0.288
-452.968	357.447	0.069	-0.137
-451.953	-9.006	0.194	0.130
-450.938	787.921	0.107	-0.293
-449.924	-200.000	-0.012	0.058
-448.909	-134.951	0.393	-0.048
-447.895	800.000	-0.053	0.216
-446.880	-2.388	-0.045	-0.031
-445.865	-118.186	-0.284	0.051
-444.851	253.022	-0.086	-0.147
-443.836	-93.325	0.156	0.043
-442.822	-67.131	0.158	0.062
-441.807	-60.265	-0.174	0.074
-440.792	-200.000	0.029	0.152
-439.778	20.839	-0.149	-0.121
-438.763	-94.511	0.340	-0.093
-437.749	800.000	-0.105	0.297
-436.734	-200.000	-0.000	0.111
-435.719	800.000	-0.069	-0.225
-434.705	4.740	-0.209	0.154
-433.690	-66.103	0.065	-0.026
-432.676	-72.065	0.273	-0.101
-431.661	14.639	0.105	-0.082
-430.646	528.137	-0.030	0.071
-429.632	-17.997	-0.130	0.082
-428.617	55.956	-0.367	0.356
-427.603	541.411	0.064	-0.153
-426.588	-139.477	0.181	-0.019
-425.573	-162.406	0.046	0.002
-424.559	74.204	-0.189	0.199
-423.544	-0.527	-0.286	-0.203
-422.530	86.636	-0.041	0.045
-421.515	156.002	-0.192	0.265
-420.500	-55.980	0.438	-0.195
-419.486	186.890	0.155	0.232
-418.471	-111.786	0.116	0.023
-417.457	128.093	0.117	-0.149
-416.442	-116.689	0.103	-0.019
-415.428	-48.234	0.199	-0.096
-414.413	-200.000	-0.013	0.320
-413.398	-64.105	-0.458	0.187
-412.384	51.271	0.198	0.188
-411.369	-200.000	-0.057	0.253
-410.355	-200.000	0.038	0.281
-409.340	-19.810	-0.334	-0.206
-408.325	-46.145	0.266	0.131
-407.311	-90.715	0.033	0.009
-406.296	-96.008	0.134	0.036
-405.282	371.533	0.064	-0.129
-404.267	-108.042	-0.039	0.008
-403.252	350.794	-0.104	-0.205
-402.238	386.810	-0.067	-0.139
-401.223	277.771	0.160	-0.285
-400.209	-200.000	-0.051	-0.237
-399.194	-200.000	0.065	-0.396
-398.179	-119.161	-0.050	-0.009
-397.165	-200.000	-0.045	0.222
-396.150	-200.000	0.069	0.418
-395.136	-109.678	-0.495	0.104
-394.121	9.888	0.162	0.123
-393.106	72.222	0.131	-0.136
-392.092	-200.000	0.032	-0.335
-391.077	800.000	0.066	-0.250
-390.063	-58.254	-0.304	-0.132
-389.048	-48.434	0.130	0.062
-388.033	317.626	-0.141	0.266
-387.019	257.145	0.123	0.212
-386.004	-65.065	-0.299	0.121
-384.990	-72.943	0.162	0.059
-383.975	-48.098	-0.177	-0.085
-382.960	800.000	-0.027	-0.100
-381.946	-25.888	-0.524	0.308
-380.931	196.019	-0.115	0.175
-379.917	800.000	0.016	0.054
-378.902	-20.481	0.254	0.156
-377.888	74.967	-0.117	0.123
-376.873	-200.000	0.055	0.286
-375.858	-200.000	0.050	-0.273
-374.844	-200.000	0.001	-0.139
-373.829	-150.566	0.073	-0.006
-372.815	103.561	-0.163	-0.191
-371.800	-60.747	-0.247	-0.104
-370.785	-74.761	-0.288	0.103
-369.771	-36.082	0.044	-0.024
-368.756	399.378	0.117	-0.244
-367.742	-39.515	-0.373	0.195
-366.727	-118.188	-0.041	0.007
-365.712	321.133	-0.180	-0.341
-364.698	78.674	0.070	-0.074
-363.683	40.867	0.157	0.141
-362.669	-200.000	-0.031	-0.213
-361.654	-99.067	-0.146	0.037
-360.639	-200.000	-0.009	-0.471
-359.625	124.622	0.122	-0.153
-358.610	16.608	-0.361	-0.284
-357.596	-14.128	-0.344	0.221
-356.581	800.000	0.018	-0.067
-355.566	-200.000	-0.063	-0.313
-354.552	335.276	0.067	-0.129
-353.537	188.610	0.051	-0.076
-352.523	-40.049	0.064	-0.033
-351.508	-75.487	0.080	-0.028
-350.493	-200.000	-0.037	-0.220
-349.479	6.183	0.183	0.135
-348.464	800.000	-0.151	0.492
-347.450	-200.000	0.009	-0.044
-346.435	800.000	-0.100	0.298
-345.420	365.798	-0.306	0.615
-344.406	-200.000	-0.008	-0.054
-343.391	-57.973	0.255	0.111
-342.377	800.000	-0.040	-0.118
-341.362	-134.392	-0.349	-0.043
-340.348	-66.616	-0.261	0.103
-339.333	-200.000	0.009	0.040
-338.318	553.199	0.089	0.214
-337.304	-61.497	-0.094	-0.039
-336.289	-200.000	0.017	-0.185
-335.275	-200.000	-0.022	-0.274
-334.260	355.674	0.141	0.280
-333.245	-200.000	-0.070	0.360
-332.231	-18.309	-0.082	-0.051
-331.216	800.000	0.112	-0.381
-330.202	800.000	0.079	-0.312
-329.187	-120.642	-0.154	-0.026
-328.172	514.297	-0.114	0.265
-327.158	217.250	0.114	0.181
-326.143	800.000	-0.057	-0.198
-325.129	656.549	-0.086	0.219
-324.114	-200.000	0.045	0.293
-323.099	92.618	0.051	-0.058
-322.085	-37.538	0.204	0.108
-321.070	-104.170	-0.133	0.031
-320.056	-200.000	-0.039	-0.378
-319.041	-20.914	0.042	-0.026
-318.026	-82.143	-0.473	0.154
-317.012	-138.117	0.454	0.050
-315.997	137.964	0.033	-0.043
-314.983	-132.023	-0.266	0.034
-313.968	-200.000	-0.015	0.261
-312.953	91.718	0.223	0.249
-311.939	52.505	0.130	-0.124
-310.924	-200.000	0.002	-0.050
-309.910	-73.669	0.084	0.030
-308.895	282.647	0.085	0.152
-307.880	-200.000	0.003	-0.096
-306.866	81.338	-0.180	0.193
-305.851	-120.305	-0.124	-0.021
-304.837	-200.000	0.023	-0.104
-303.822	80.526	0.091	0.097
-302.807	-159.518	0.104	0.006
-301.793	-200.000	0.015	0.083
-300.778	-200.000	-0.006	0.199
-299.764	45.798	0.136	-0.125
-298.749	407.483	0.067	0.142
-297.735	-11.776	-0.529	-0.345
-296.720	65.678	-0.224	0.226
-295.705	255.631	0.182	-0.310
-294.691	-132.435	-0.209	-0.027
-293.676	438.639	0.191	-0.414
-292.662	-71.943	-0.220	0.081
-291.647	-124.427	-0.266	-0.041
-290.632	-138.716	0.575	-0.062
-289.618	-66.810	0.308	-0.121
-288.603	-77.981	0.235	-0.080
-287.589	800.000	-0.025	0.100
-286.574	-167.736	-0.153	0.006
-285.559	44.021	-0.124	0.113
-284.545	511.039	-0.066	0.153
-283.530	-53.643	0.261	0.118
-282.516	64.361	-0.255	-0.255
-281.501	118.486	0.319	-0.392
-280.486	14.540	0.105	-0.081
-279.472	347.668	0.197	0.387
-278.457	-78.441	0.126	0.043
-277.443	-200.000	0.022	0.292
-276.428	-26.862	0.178	-0.103
-275.413	800.000	0.064	0.275
-274.399	41.728	0.102	-0.092
-273.384	71.419	0.207	0.213
-272.370	47.619	-0.189	-0.175
-271.355	-200.000	-0.011	-0.076
-270.340	800.000	-0.066	0.236
-269.326	-112.911	-0.045	-0.009
-268.311	-88.316	0.137	-0.041
-267.297	429.493	0.136	-0.292
-266.282	800.000	0.055	0.178
-265.267	313.107	-0.105	-0.196
-264.253	800.000	0.108	-0.386
-263.238	-96.873	0.245	0.064
-262.224	180.731	0.179	0.261
-261.209	-200.000	-0.005	0.283
-260.195	558.102	0.020	0.047
-259.180	-99.384	-0.321	-0.080
-258.165	-200.000	-0.065	-0.304
-257.151	800.000	-0.009	0.028
-256.136	-146.073	0.180	-0.016
-255.122	-86.120	0.339	0.104
-254.107	-148.558	0.149	-0.012
-253.092	800.000	-0.026	0.097
-252.078	-200.000	-0.046	0.212
-251.063	-143.773	0.192	0.018
-250.049	181.604	-0.122	-0.178
-249.034	274.611	-0.060	-0.105
-248.019	-112.244	-0.307	0.061
-247.005	-60.036	0.227	-0.096
-245.990	-200.000	0.035	0.236
-244.976	-79.615	0.440	-0.147
-243.961	199.551	0.214	-0.326
-242.946	8.876	0.063	0.047
-241.932	-21.054	0.058	0.035
-240.917	800.000	-0.109	-0.311
-239.903	-150.036	-0.227	-0.018
-238.888	-126.840	-0.302	-0.044
-237.873	-10.662	-0.111	0.073
-236.859	-31.045	0.178	0.100
-235.844	-176.912	-0.152	0.004
-234.830	150.719	0.062	-0.084
-233.815	-138.648	0.258	0.028
-232.800	800.000	-0.081	0.251
-231.786	186.421	0.233	-0.345
-230.771	-84.352	0.149	0.047
-229.757	273.494	0.178	0.313
-228.742	8.428	0.167	-0.125
-227.727	-200.000	0.046	-0.292
-226.713	82.691	0.344	0.370
-225.698	800.000	0.014	0.045
-224.684	792.981	0.109	0.298
-223.669	166.514	-0.210	0.296
-222.655	70.718	0.168	0.172
-221.640	792.737	-0.073	-0.199
-220.625	304.862	0.149	-0.274
-219.611	783.382	-0.044	-0.119
-218.596	-117.679	-0.245	-0.044
-217.582	-181.676	-0.282	-0.005
-216.567	-60.067	0.262	0.111
-215.552	67.809	0.173	-0.176
-214.538	-200.000	-0.042	0.188
-213.523	-200.000	0.033	-0.225
-212.509	461.291	0.101	-0.224
-211.494	-200.000	0.005	-0.158
-210.479	323.143	-0.045	-0.084
-209.465	800.000	-0.066	0.206
-208.450	-126.948	-0.171	0.025
-207.436	104.318	0.161	0.187
-206.421	-200.000	-0.039	0.280
-205.406	-164.992	0.273	-0.012
-204.392	224.759	-0.044	-0.071
-203.377	-200.000	0.022	-0.305
-202.363	-104.984	0.101	0.023
-201.348	2.601	0.158	-0.113
-200.333	-200.000	0.001	0.369
-199.319	-200.000	-0.021	-0.258
-198.304	78.281	0.134	-0.142
-197.290	-200.000	-0.011	-0.141
-196.275	142.361	0.027	-0.036
-195.260	-62.145	0.532	-0.220
-194.246	-28.602	-0.200	0.114
-193.231	2.305	0.189	0.135
-192.217	-200.000	-0.022	0.295
-191.202	799.064	0.099	0.269
-190.187	-146.574	0.315	-0.027
-189.173	800.000	0.071	0.227
-188.158	-200.000	0.028	-0.187
-187.144	-95.599	0.248	-0.066
-186.129	-39.679	-0.174	0.090
-185.114	-27.764	-0.274	0.158
-184.100	-68.456	-0.257	-0.099
-183.085	-200.000	0.074	-0.503
-182.071	800.000	-0.083	0.321
-181.056	800.000	-0.119	-0.344
-180.042	-93.640	0.294	-0.080
-179.027	164.085	0.105	0.146
-178.012	-14.840	-0.149	-0.095
-176.998	-200.000	-0.002	0.022
-175.983	-91.505	-0.170	-0.048
-174.969	-105.532	-0.085	-0.019
-173.954	334.789	-0.166	0.318
-172.939	-31.710	-0.137	-0.076
-171.925	-200.000	0.065	0.357
-170.910	338.810	0.157	-0.302
-169.896	7.168	-0.167	0.123
-168.881	-200.000	0.004	0.275
-167.866	800.000	0.038	0.126
-166.852	-200.000	0.087	0.526
-165.837	183.906	-0.248	0.363
-164.823	-70.572	0.301	0.113
-163.808	-125.112	-0.388	-0.059
-162.793	-200.000	-0.023	0.207
-161.779	140.889	0.062	-0.081
-160.764	-80.788	-0.493	0.162
-159.750	-87.359	0.288	-0.086
-158.735	332.090	0.083	0.158
-157.720	-200.000	-0.020	0.104
-156.706	-35.276	0.254	0.137
-155.691	-37.673	0.160	-0.084
-154.677	12.062	0.099	-0.075
-153.662	-171.377	-0.174	-0.006
-152.647	-124.002	-0.150	0.023
-151.633	-32.142	0.250	0.138
-150.618	800.000	0.088	0.330
-149.604	-200.000	0.043	-0.210
-148.589	118.330	-0.036	0.044
-147.574	205.381	-0.056	0.087
-146.560	-200.000	-0.065	0.555
-145.545	-38.632	0.127	-0.066
-144.531	267.068	0.165	0.286
-143.516	-148.262	0.146	0.012
-142.502	-200.000	0.012	0.067
-141.487	-32.155	-0.129	0.071
-140.472	372.006	-0.081	0.163
-139.458	67.899	0.215	0.217
-138.443	-160.789	-0.378	-0.020
-137.429	-156.087	0.106	-0.007
-136.414	81.670	0.059	-0.063
-135.399	-30.500	0.226	-0.127
-134.385	-200.000	-0.046	0.212
-133.370	86.495	0.073	-0.080
-132.356	-115.844	-0.179	0.033
-131.341	70.496	0.274	-0.280
-130.326	74.910	-0.062	-0.065
-129.312	800.000	0.045	-0.134
-128.297	-200.000	0.030	0.388
-127.283	-50.456	-0.299	-0.140
-126.268	-200.000	-0.005	-0.035
-125.253	800.000	0.020	0.083
-124.239	-76.517	0.214	0.074
-123.224	-185.984	-0.495	-0.007
-122.210	72.180	0.109	0.112
-121.195	-43.990	-0.245	0.122
-120.180	-89.113	0.401	0.117
-119.166	800.000	0.026	-0.087
-118.151	-200.000	0.045	-0.209
-117.137	65.345	-0.017	0.017
-116.122	158.029	0.166	0.227
-115.107	3.715	0.129	0.093
-114.093	-157.135	-0.194	0.012
-113.078	-200.000	-0.027	0.165
-112.064	-25.917	0.329	0.191
-111.049	170.946	-0.169	0.239
-110.034	-200.000	0.026	0.485
-109.020	53.465	0.236	-0.224
-108.005	800.000	-0.043	0.121
-106.991	67.886	-0.029	0.030
-105.976	-200.000	0.002	0.014
-104.962	800.000	0.087	0.277
-103.947	524.641	0.040	-0.092
-102.932	-71.225	-0.190	0.070
-101.918	-200.000	0.009	0.075
-100.903	-200.000	0.016	-0.073
-99.889	800.000	-0.069	0.277
-98.874	-200.000	-0.020	-0.090
-97.859	-200.000	0.019	0.277
-96.845	-42.249	-0.147	0.074
-95.830	-200.000	-0.003	0.055
-94.816	135.269	-0.144	0.184
-93.801	-75.415	-0.276	0.097
-92.786	800.000	0.093	0.362
-91.772	-200.000	-0.014	0.175
-90.757	464.923	0.053	0.117
-89.743	800.000	0.154	0.435
-88.728	-200.000	0.000	-0.390
-87.713	-60.937	-0.218	0.091
-86.699	61.791	-0.132	-0.130
-85.684	9.877	0.084	0.063
-84.670	-51.222	0.187	-0.087
-83.655	-122.982	0.389	0.062
-82.640	60.997	0.141	0.138
-81.626	-132.164	0.372	-0.048
-80.611	-107.554	0.164	0.035
-79.597	50.585	0.053	0.049
-78.582	-44.368	0.264	0.130
-77.567	0.394	0.173	0.122
-76.553	35.346	-0.103	0.089
-75.538	531.593	0.142	0.331
-74.524	190.048	0.265	0.393
-73.509	-148.063	0.237	0.019
-72.494	-109.139	0.264	-0.055
-71.480	-200.000	0.044	0.193
-70.465	-68.231	0.411	-0.157
-69.451	271.034	-0.097	-0.168
-68.436	800.000	0.109	0.457
-67.422	98.000	-0.093	-0.105
-66.407	189.467	0.093	-0.137
-65.392	-89.720	-0.253	-0.073
-64.378	-200.000	0.044	-0.211
-63.363	-200.000	0.006	-0.066
-62.349	134.909	0.143	0.184
-61.334	88.654	-0.713	-0.781
-60.319	54.297	0.694	0.658
-59.305	610.401	-0.282	-0.695
-58.290	184.120	0.581	0.848
-57.276	800.000	0.467	1.574
-56.261	-200.000	96.803	544.988
-55.246	586.749	1395.364	3382.332
-54.232	183.419	2638.646	3841.489
-53.217	112.231	2328.963	2773.788
-52.203	43.979	1937.675	1749.137
-51.188	37.774	1721.222	1505.920
-50.173	34.842	1676.248	1444.402
-49.159	51.176	1725.891	1612.814
-48.144	54.277	1742.750	1652.278
-47.130	37.201	1699.024	1481.889
-46.115	34.388	1683.055	1446.589
-45.100	34.184	1678.504	1441.078
-44.086	34.220	1675.974	1439.122
-43.071	34.135	1673.854	1436.604
-42.057	34.074	1671.597	1434.146
-41.042	34.124	1669.435	1432.607
-40.027	34.105	1666.988	1430.312
-39.013	34.021	1665.776	1428.587
-37.998	34.128	1663.445	1427.327
-36.984	34.232	1661.720	1426.577
-35.969	34.257	1660.729	1425.851
-34.954	34.333	1659.097	1424.965
-33.940	34.294	1656.994	1422.806
-32.925	34.314	1655.167	1421.335
-31.911	34.376	1653.634	1420.422
-30.896	34.294	1651.907	1418.275
-29.881	34.290	1650.614	1417.079
-28.867	34.289	1648.867	1415.515
-27.852	34.353	1647.104	1414.420
-26.838	34.273	1645.980	1412.803
-25.823	34.380	1644.433	1412.215
-24.809	34.341	1643.042	1410.671
-23.794	34.384	1641.628	1409.719
-22.779	34.326	1640.048	1407.877
-21.765	34.374	1637.841	1406.287
-20.750	34.368	1636.206	1404.778
-19.736	34.305	1634.991	1403.221
-18.721	34.400	1633.574	1402.647
-17.706	34.339	1632.050	1400.832
-16.692	34.299	1630.507	1399.160
-15.677	34.383	1629.208	1398.606
-14.663	34.441	1627.669	1397.654
-13.648	34.346	1626.452	1395.854
-12.633	34.391	1624.612	1394.555
-11.619	34.314	1623.473	1392.953
-10.604	34.388	1621.648	1391.877
-9.590	34.370	1620.326	1390.556
-8.575	34.356	1619.118	1389.361
-7.560	34.221	1618.450	1387.749
-6.546	34.339	1616.996	1387.306
-5.531	34.346	1615.447	1385.969
-4.517	34.297	1614.427	1384.683
-3.502	34.360	1613.126	1383.975
-2.487	34.464	1611.158	1382.983
-1.473	34.271	1600.291	1372.211
-0.458	31.742	1581.306	1337.846
0.556	26.546	1581.930	1307.180
1.571	24.427	1606.840	1312.083
2.586	23.885	1621.038	1319.534
3.600	20.821	1565.780	1252.448
4.615	10.622	1450.392	1091.761
5.629	1.811	1382.052	983.543
6.644	0.159	1373.817	966.988
7.659	0.155	1371.672	965.366
8.673	-0.008	1371.243	963.934
9.688	0.025	1368.597	962.199
10.702	-0.231	1365.772	958.492
11.717	3.117	1373.308	985.167
12.731	13.280	1392.840	1064.834
13.746	21.339	1406.252	1127.190
14.761	22.963	1408.406	1139.297
15.775	23.154	1407.864	1139.983
16.790	23.299	1407.129	1140.221
17.804	23.283	1406.654	1139.636
18.819	23.598	1406.212	1141.205
19.834	23.542	1405.800	1140.410
20.848	23.677	1404.873	1140.423
21.863	23.613	1404.615	1139.698
22.877	23.643	1403.174	1138.620
23.892	23.534	1402.945	1137.634
24.907	23.688	1401.699	1137.515
25.921	23.620	1400.177	1135.741
26.936	23.591	1399.890	1135.223
27.950	23.599	1398.926	1134.394
28.965	23.681	1396.899	1133.173
29.980	23.648	1395.724	1131.906
30.994	23.600	1394.757	1130.717
32.009	23.590	1393.758	1129.742
33.023	23.609	1392.885	1129.058
34.038	23.651	1391.328	1127.962
35.053	23.551	1390.407	1126.479
36.067	23.593	1389.318	1125.763
37.082	23.641	1388.164	1125.035
38.096	23.576	1387.857	1124.276
39.111	23.601	1386.260	1123.036
40.126	23.645	1385.749	1122.804
41.140	23.623	1385.345	1122.237
42.155	23.615	1384.837	1121.674
43.169	23.595	1385.128	1121.683
44.184	23.672	1384.843	1121.843
45.199	23.676	1383.846	1120.964
46.213	23.559	1384.068	1120.303
47.228	23.650	1382.554	1119.554
48.242	23.676	1381.127	1118.461
49.257	23.574	1380.251	1117.011
50.271	23.520	1378.632	1115.266
51.286	23.528	1377.879	1114.606
52.301	23.575	1376.290	1113.518
53.315	23.562	1375.307	1112.541
54.330	23.553	1374.410	1111.658
55.344	23.545	1373.547	1110.812
56.359	23.623	1372.057	1110.001
57.374	23.594	1371.590	1109.342
58.388	23.608	1370.646	1108.567
59.403	23.539	1370.767	1108.134
60.417	23.567	1369.569	1107.246
61.432	23.583	1368.852	1106.664
62.447	23.649	1367.930	1106.237
63.461	23.581	1367.026	1104.984
64.476	23.624	1365.982	1104.307
65.490	23.523	1365.289	1103.019
66.505	23.609	1363.133	1101.716
67.520	23.588	1361.918	1100.508
68.534	23.598	1360.888	1099.641
69.549	23.735	1359.785	1099.501
70.563	23.706	1358.635	1098.295
71.578	23.616	1358.151	1097.250
72.593	23.664	1357.161	1096.646
73.607	23.713	1356.163	1096.044
74.622	23.548	1355.646	1094.512
75.636	23.659	1354.947	1094.533
76.651	23.662	1354.202	1093.856
77.666	23.566	1354.369	1093.302
78.680	23.680	1353.082	1092.869
79.695	23.591	1352.239	1091.545
80.709	23.579	1351.747	1090.979
81.724	23.752	1350.777	1091.158
82.739	23.589	1349.848	1089.310
83.753	23.645	1348.652	1088.594
84.768	23.648	1347.470	1087.565
85.782	23.690	1346.624	1087.040
86.797	23.583	1345.478	1085.362
87.812	23.652	1343.994	1084.491
88.826	23.562	1343.338	1083.318
89.841	23.708	1342.068	1083.087
90.855	23.607	1341.296	1081.751
91.870	23.678	1340.168	1081.183
92.884	23.499	1339.890	1079.771
93.899	23.673	1338.870	1079.910
94.914	23.666	1338.002	1079.071
95.928	23.679	1337.091	1078.321
96.943	23.734	1336.314	1077.937
97.957	23.652	1335.686	1076.835
98.972	23.645	1335.040	1076.178
99.987	23.722	1333.670	1075.442
101.001	23.658	1332.867	1074.316
102.016	23.674	1331.796	1073.452
103.030	23.700	1331.020	1072.889
104.045	23.691	1330.144	1072.034
105.060	23.708	1328.762	1070.928
106.074	23.787	1327.724	1070.474
107.089	23.686	1326.841	1069.056
108.103	23.659	1325.940	1068.074
109.118	23.682	1324.869	1067.257
110.133	23.839	1323.513	1067.009
111.147	23.696	1322.271	1065.055
112.162	23.704	1321.085	1064.053
113.176	23.693	1320.163	1063.150
114.191	23.659	1319.288	1062.148
115.206	23.777	1318.187	1061.874
116.220	23.671	1317.339	1060.466
117.235	23.773	1315.986	1059.891
118.249	23.638	1315.196	1058.357
119.264	23.717	1314.460	1058.141
120.279	23.790	1313.429	1057.651
121.293	23.728	1312.793	1056.680
122.308	23.767	1311.940	1056.131
123.322	23.709	1311.149	1055.052
124.337	23.793	1310.089	1054.604
125.352	23.814	1309.214	1053.931
126.366	23.760	1308.297	1052.779
127.381	23.756	1307.696	1052.181
128.395	23.849	1306.431	1051.623
129.410	23.871	1305.421	1050.843
130.424	23.828	1305.540	1050.593
131.439	23.760	1304.435	1049.212
132.454	23.709	1303.561	1048.113
133.468	23.668	1303.159	1047.452
134.483	23.844	1302.274	1047.690
135.497	23.830	1300.915	1046.422
136.512	23.751	1300.155	1045.253
137.527	23.752	1299.261	1044.443
138.541	23.827	1297.407	1043.301
139.556	23.695	1296.794	1041.941
140.570	23.735	1295.559	1041.094
141.585	23.788	1294.108	1040.144
142.600	23.691	1293.577	1039.061
143.614	23.727	1292.586	1038.383
144.629	23.709	1291.411	1037.244
145.643	23.682	1290.073	1035.918
146.658	23.667	1289.378	1035.181
147.673	23.541	1288.878	1033.952
148.687	23.780	1287.424	1034.086
149.702	23.659	1286.166	1032.283
150.716	23.757	1285.046	1031.861
151.731	23.735	1284.456	1031.164
152.746	23.711	1283.510	1030.179
153.760	23.721	1282.157	1029.055
154.775	23.781	1281.412	1028.718
155.789	23.741	1280.554	1027.702
156.804	23.799	1279.493	1027.098
157.819	23.713	1278.571	1025.767
158.833	23.820	1277.565	1025.488
159.848	23.878	1276.967	1025.253
160.862	23.935	1275.876	1024.613
161.877	23.870	1275.678	1023.993
162.892	23.906	1274.375	1023.060
163.906	23.832	1274.047	1022.281
164.921	23.766	1273.233	1021.158
165.935	23.858	1272.127	1020.711
166.950	23.769	1272.109	1020.095
167.964	23.941	1270.945	1020.058
168.979	23.902	1271.105	1019.870
169.994	23.837	1270.415	1018.856
171.008	23.901	1269.533	1018.425
172.023	23.885	1268.431	1017.361
173.037	23.814	1268.525	1016.937
174.052	23.838	1267.182	1015.907
175.067	23.915	1265.934	1015.255
176.081	23.958	1265.430	1015.012
177.096	23.857	1264.874	1013.899
178.110	23.869	1263.816	1013.025
179.125	23.833	1262.865	1011.970
180.140	24.012	1261.417	1011.738
181.154	23.894	1260.828	1010.505
182.169	23.898	1259.672	1009.512
183.183	23.929	1258.635	1008.766
184.198	23.980	1257.428	1008.002
185.213	23.919	1256.453	1006.782
186.227	23.954	1255.664	1006.262
187.242	23.995	1255.029	1005.894
188.256	24.032	1253.977	1005.172
189.271	23.937	1253.365	1004.058
190.286	23.950	1252.378	1003.248
191.300	23.875	1251.953	1002.398
192.315	23.880	1251.551	1002.016
193.329	23.879	1251.264	1001.693
194.344	23.964	1250.230	1001.253
195.359	23.953	1249.927	1000.859
196.373	23.889	1249.624	1000.168
197.388	23.889	1249.016	999.595
198.402	24.036	1248.910	1000.248
199.417	23.927	1248.522	999.237
200.432	23.925	1247.447	998.276
201.446	23.961	1246.926	997.970
202.461	23.971	1245.852	997.078
203.475	23.945	1245.517	996.578
204.490	23.955	1244.365	995.621
205.504	24.012	1243.542	995.198
206.519	24.043	1242.185	994.193
207.534	24.027	1241.540	993.501
208.548	24.037	1240.277	992.460
209.563	24.029	1239.963	992.075
210.577	24.026	1239.189	991.352
211.592	24.073	1237.833	990.441
212.607	24.044	1237.086	989.594
213.621	24.111	1236.484	989.394
214.636	24.087	1235.562	988.440
215.650	24.055	1235.068	987.781
216.665	23.982	1234.522	986.849
217.680	23.924	1233.459	985.591
218.694	24.135	1231.927	985.449
219.709	24.147	1231.678	985.225
220.723	24.182	1230.993	984.786
221.738	24.110	1230.293	983.739
222.753	24.085	1229.357	982.769
223.767	23.994	1229.212	982.064
224.782	24.087	1228.743	982.111
225.796	24.149	1228.351	982.053
226.811	24.128	1227.197	980.928
227.826	24.205	1226.331	980.575
228.840	24.176	1226.235	980.250
229.855	24.217	1225.650	979.924
230.869	24.211	1224.570	978.938
231.884	24.129	1223.778	977.768
232.899	24.121	1223.388	977.327
233.913	24.131	1222.854	976.868
234.928	24.294	1222.454	977.356
235.942	24.244	1221.481	976.217
236.957	24.325	1220.592	975.862
237.972	24.206	1219.998	974.654
238.986	24.144	1219.536	973.861
240.001	24.152	1219.631	973.890
241.015	24.300	1218.080	973.375
242.030	24.423	1217.131	973.201
243.045	24.371	1216.357	972.216
244.059	24.320	1215.768	971.378
245.074	24.279	1215.212	970.627
246.088	24.285	1214.547	970.040
247.103	24.356	1213.199	969.262
248.117	24.435	1212.858	969.337
249.132	24.455	1211.963	968.641
250.147	24.477	1210.787	967.735
251.161	24.510	1210.477	967.583
252.176	24.496	1209.663	966.767
253.190	24.374	1209.102	965.578
254.205	24.343	1208.687	964.988
255.220	24.309	1208.011	964.180
256.234	24.457	1207.357	964.375
257.249	24.396	1206.736	963.463
258.263	24.330	1206.486	962.823
259.278	24.364	1205.979	962.514
260.293	24.507	1204.976	962.404
261.307	24.373	1204.929	961.557
262.322	24.485	1203.936	961.280
263.336	24.519	1203.071	960.687
264.351	24.468	1202.786	960.101
265.366	24.489	1201.982	959.487
266.380	24.406	1201.498	958.569
267.395	24.486	1200.749	958.319
268.409	24.500	1199.796	957.549
269.424	24.525	1199.434	957.311
270.439	24.505	1199.203	956.931
271.453	24.572	1198.473	956.625
272.468	24.612	1197.263	955.788
273.482	24.349	1197.008	954.094
274.497	24.550	1196.541	954.711
275.512	24.630	1195.468	954.195
276.526	24.620	1194.719	953.462
277.541	24.574	1194.319	952.814
278.555	24.498	1194.226	952.250
279.570	24.611	1193.354	952.069
280.585	24.544	1192.356	950.833
281.599	24.642	1191.338	950.458
282.614	24.673	1190.150	949.594
283.628	24.679	1189.678	949.162
284.643	24.621	1188.879	948.133
285.657	24.632	1187.866	947.299
286.672	24.683	1187.155	946.920
287.687	24.588	1186.381	945.718
288.701	24.783	1185.470	945.936
289.716	24.796	1184.763	945.357
290.730	24.734	1184.555	944.779
291.745	24.736	1183.451	943.827
292.760	24.659	1183.201	943.140
293.774	24.875	1181.982	943.219
294.789	24.721	1181.717	942.117
295.803	24.827	1181.166	942.149
296.818	24.790	1180.671	941.477
297.833	24.842	1179.777	940.955
298.847	24.821	1179.371	940.440
299.862	24.890	1178.407	939.950
300.876	24.885	1177.802	939.356
301.891	24.922	1177.173	938.967
302.906	24.778	1176.836	937.857
303.920	24.935	1176.065	937.982
304.935	24.948	1175.243	937.311
305.949	24.842	1174.439	936.034
306.964	24.926	1173.958	936.008
307.979	24.968	1173.357	935.663
308.993	24.958	1172.816	935.097
310.008	24.940	1171.817	934.126
311.022	24.908	1171.204	933.387
312.037	24.984	1170.095	932.819
313.052	24.855	1169.651	931.708
314.066	24.877	1168.785	931.050
315.081	25.030	1167.826	930.998
316.095	24.917	1167.312	929.919
317.110	25.005	1166.734	929.834
318.125	24.962	1166.156	929.068
319.139	24.994	1165.474	928.610
320.154	24.963	1164.680	927.731
321.168	24.909	1164.471	927.206
322.183	24.899	1164.091	926.769
323.197	25.026	1163.367	926.765
324.212	25.006	1162.854	926.172
325.227	25.101	1162.102	925.985
326.241	25.043	1161.799	925.359
327.256	25.004	1160.999	924.442
328.270	25.140	1159.982	924.250
329.285	25.086	1158.931	923.052
330.300	25.116	1158.004	922.386
331.314	25.162	1157.389	922.051
332.329	25.166	1156.694	921.439
333.343	25.257	1155.457	920.834
334.358	25.167	1155.102	920.008
335.373	25.175	1154.246	919.287
336.387	25.229	1153.681	919.034
337.402	25.255	1153.003	918.547
338.416	25.183	1152.390	917.609
339.431	25.256	1151.813	917.440
340.446	25.230	1151.416	916.912
341.460	25.276	1150.502	916.336
342.475	25.381	1149.518	916.009
343.489	25.350	1148.831	915.222
344.504	25.210	1148.412	914.093
345.519	25.322	1147.140	913.568
346.533	25.408	1146.304	913.260
347.548	25.313	1145.912	912.384
348.562	25.393	1144.687	911.733
349.577	25.305	1144.050	910.700
350.592	25.266	1143.768	910.197
351.606	25.258	1143.175	909.604
352.621	25.384	1142.587	909.692
353.635	25.409	1142.009	909.280
354.650	25.290	1141.540	908.221
355.665	25.353	1140.474	907.613
356.679	25.375	1140.106	907.351
357.694	25.511	1139.473	907.455
358.708	25.480	1138.701	906.599
359.723	25.378	1138.199	905.609
360.738	25.545	1136.825	905.275
361.752	25.381	1136.780	904.334
362.767	25.399	1136.207	903.886
363.781	25.497	1135.604	903.822
364.796	25.529	1135.040	903.454
365.810	25.503	1134.404	902.735
366.825	25.540	1133.697	902.282
367.840	25.552	1133.477	902.084
368.854	25.564	1133.054	901.730
369.869	25.575	1132.039	900.898
370.883	25.663	1131.070	900.484
371.898	25.583	1130.533	899.577
372.913	25.624	1129.847	899.156
373.927	25.638	1129.365	898.764
374.942	25.636	1129.242	898.579
375.956	25.633	1128.921	898.225
376.971	25.711	1127.951	897.763
377.986	25.714	1127.513	897.350
379.000	25.676	1127.069	896.732
380.015	25.635	1126.307	895.839
381.029	25.816	1125.404	895.945
382.044	25.700	1125.197	895.120
383.059	25.726	1124.344	894.491
384.073	25.784	1123.088	893.705
385.088	25.730	1122.582	892.954
386.102	25.681	1121.850	892.050
387.117	25.747	1121.134	891.726
388.132	25.763	1120.021	890.844
389.146	25.605	1119.785	889.794
390.161	25.708	1118.866	889.496
391.175	25.803	1118.024	889.215
392.190	25.806	1117.847	889.009
393.205	25.772	1116.748	887.893
394.219	25.775	1116.107	887.317
395.234	25.771	1115.598	886.814
396.248	25.916	1114.348	886.453
397.263	25.836	1113.492	885.303
398.278	25.938	1112.963	885.304
399.292	25.872	1112.458	884.500
400.307	25.964	1111.656	884.236
401.321	25.966	1111.259	883.852
402.336	25.883	1110.342	882.640
403.350	25.921	1109.930	882.416
404.365	25.928	1109.739	882.221
405.380	25.939	1108.595	881.287
406.394	25.998	1107.870	880.922
407.409	26.111	1106.658	880.433
408.423	26.012	1106.185	879.496
409.438	26.056	1105.349	878.967
410.453	25.992	1105.006	878.307
411.467	26.085	1104.190	878.032
412.482	26.191	1102.995	877.521
413.496	26.086	1102.642	876.650
414.511	25.999	1102.732	876.222
415.526	26.084	1102.165	876.106
416.540	26.161	1101.308	875.719
417.555	26.078	1100.734	874.785
418.569	26.087	1100.740	874.755
419.584	26.183	1100.163	874.683
420.599	25.973	1099.703	873.227
421.613	146.867	1401.861	1794.267
422.628	136.209	1445.884	1794.397
