DTS Sentinel unit serial number:	SN413079Multiplexer serial number:	ORYXHardware model number:	OX4-SRSoftware version number:	ORYX F/W v4.00 Oryx Data Collector v3.7.2.0data status	okinstallation	princeton_trtdifferential loss correction	single-endedforward channel	channel 2reverse channel	N/Adate	2019/09/11time	14:37:11forward acquisition time	60.00reverse acquisition time	0.00gamma	496.2192k internal	0.2290k external	0.2290temperature offset calibration	1.0009default loss term (dB/km)	0.3790temperature slope calibration	1.0000multiplexer offset coefficient	1.0000multiplexer slope coefficient	1.0000fibre end	0.00T internal ref (°C)	42.31T ext. ref 1 (°C)	0.93T ext. ref 2 (°C)	37.55length (m)	temperature (°C)	Stokes	anti-Stokes-747.200	-11.024	0.071	0.048
-746.185	-7.785	-0.059	-0.041
-745.171	-106.513	0.297	0.068
-744.156	-200.000	-0.082	0.407
-743.142	462.861	0.099	0.226
-742.127	12.533	-0.112	0.089
-741.112	296.707	0.245	0.460
-740.098	-85.724	-0.220	0.070
-739.083	-147.709	0.111	-0.010
-738.069	-200.000	0.038	0.214
-737.054	27.578	0.080	-0.069
-736.039	-200.000	0.067	0.370
-735.025	392.454	0.097	-0.206
-734.010	-88.880	0.231	-0.070
-732.996	-147.782	-0.435	-0.037
-731.981	59.865	0.298	0.301
-730.966	76.465	-0.148	-0.160
-729.952	172.508	0.192	-0.284
-728.937	97.559	-0.097	-0.114
-727.923	-53.617	-0.379	-0.177
-726.908	-62.726	-0.156	0.066
-725.894	-200.000	-0.002	-0.022
-724.879	30.122	-0.288	0.252
-723.864	800.000	-0.038	-0.154
-722.850	800.000	-0.031	-0.096
-721.835	-47.434	-0.226	0.113
-720.821	-200.000	0.021	0.162
-719.806	-151.752	-0.187	-0.014
-718.791	-111.598	-0.304	-0.063
-717.777	163.604	0.182	-0.262
-716.762	-172.518	0.301	0.010
-715.748	-0.990	-0.062	-0.045
-714.733	-200.000	-0.012	-0.344
-713.718	-200.000	-0.026	0.277
-712.704	-200.000	-0.018	-0.259
-711.689	15.887	0.011	-0.009
-710.675	-58.288	-0.348	-0.155
-709.660	-200.000	-0.028	-0.317
-708.645	-103.991	0.172	0.041
-707.631	800.000	-0.064	-0.210
-706.616	-51.280	0.199	-0.095
-705.602	-194.620	-0.095	0.001
-704.587	23.776	-0.135	0.114
-703.572	90.266	-0.057	-0.066
-702.558	800.000	-0.036	0.142
-701.543	-29.483	0.349	0.204
-700.529	114.250	-0.130	0.162
-699.514	-119.916	0.106	-0.019
-698.499	-149.812	0.508	0.041
-697.485	-62.608	-0.313	0.133
-696.470	614.388	-0.101	0.258
-695.456	800.000	-0.027	-0.121
-694.441	-40.050	0.164	-0.088
-693.426	15.191	-0.141	0.113
-692.412	-30.817	-0.156	-0.090
-691.397	-18.576	-0.080	-0.051
-690.383	-44.098	0.068	-0.035
-689.368	245.655	-0.112	-0.193
-688.354	-200.000	0.041	0.203
-687.339	-120.793	0.239	0.041
-686.324	245.538	-0.055	0.095
-685.310	-27.326	-0.163	0.097
-684.295	58.150	0.086	-0.086
-683.281	40.480	0.116	-0.106
-682.266	800.000	0.027	-0.084
-681.251	311.524	0.088	-0.169
-680.237	-95.710	0.316	0.086
-679.222	800.000	-0.064	0.222
-678.208	186.222	-0.095	0.144
-677.193	-70.510	-0.206	-0.080
-676.178	800.000	0.023	-0.085
-675.164	-174.667	-0.164	0.005
-674.149	-112.687	-0.403	-0.082
-673.135	364.800	-0.167	0.344
-672.120	-98.228	0.191	0.050
-671.105	-200.000	-0.041	-0.232
-670.091	-132.982	-0.224	0.029
-669.076	393.787	-0.082	-0.175
-668.062	800.000	-0.036	-0.107
-667.047	16.274	-0.066	0.054
-666.032	-91.234	-0.208	-0.061
-665.018	800.000	-0.090	0.352
-664.003	-32.298	-0.140	-0.080
-662.989	-134.733	-0.242	-0.030
-661.974	-144.123	-0.046	-0.004
-660.959	-153.612	0.093	0.007
-659.945	124.041	-0.154	-0.198
-658.930	-79.043	-0.267	0.093
-657.916	-137.347	-0.130	-0.015
-656.901	180.959	-0.206	-0.310
-655.886	-55.500	-0.048	-0.022
-654.872	30.758	-0.296	-0.259
-653.857	-200.000	-0.006	0.086
-652.843	-19.750	-0.022	0.014
-651.828	531.816	-0.116	0.280
-650.814	-97.694	-0.288	-0.076
-649.799	-166.198	0.152	-0.007
-648.784	-200.000	-0.146	-0.001
-647.770	198.071	-0.252	-0.393
-646.755	593.278	-0.023	-0.057
-645.741	-171.868	0.190	0.006
-644.726	-19.981	-0.109	0.068
-643.711	-93.045	0.204	0.058
-642.697	-59.691	-0.182	0.080
-641.682	105.153	0.272	-0.328
-640.668	-34.895	-0.051	-0.029
-639.653	-200.000	-0.016	-0.076
-638.638	-91.497	0.528	0.154
-637.624	458.946	0.112	-0.255
-636.609	-26.952	0.316	-0.188
-635.595	-65.195	-0.064	-0.026
-634.580	81.301	-0.186	0.205
-633.565	264.212	0.063	0.112
-632.551	377.427	0.081	-0.169
-631.536	-200.000	-0.015	-0.175
-630.522	-111.099	0.111	0.023
-629.507	-19.706	-0.153	-0.096
-628.492	27.932	0.149	-0.128
-627.478	-200.000	0.017	0.230
-626.463	-200.000	-0.009	-0.230
-625.449	389.140	0.139	-0.294
-624.434	69.572	0.115	-0.121
-623.419	-155.871	-0.307	0.020
-622.405	-200.000	-0.024	-0.409
-621.390	-33.765	-0.091	-0.051
-620.376	137.202	-0.329	-0.439
-619.361	-141.919	0.142	0.014
-618.346	759.313	0.119	0.328
-617.332	-170.285	0.040	0.001
-616.317	88.064	0.166	-0.187
-615.303	-58.512	0.057	0.025
-614.288	385.175	-0.055	0.116
-613.273	28.031	0.117	-0.100
-612.259	800.000	0.040	-0.169
-611.244	-200.000	0.066	-0.462
-610.230	800.000	-0.005	0.018
-609.215	692.492	-0.028	-0.074
-608.201	-108.919	-0.192	0.042
-607.186	-32.909	0.190	0.107
-606.171	-92.714	0.185	-0.053
-605.157	-77.699	0.207	0.073
-604.142	202.108	0.038	0.060
-603.128	-162.327	0.510	-0.026
-602.113	78.574	-0.215	0.234
-601.098	79.030	0.082	0.089
-600.084	-200.000	-0.016	-0.197
-599.069	139.111	0.101	0.136
-598.055	351.902	0.118	-0.238
-597.040	-24.881	-0.127	-0.077
-596.025	-200.000	-0.017	-0.099
-595.011	800.000	-0.084	-0.263
-593.996	-107.382	0.218	0.049
-592.982	-77.381	-0.105	0.037
-591.967	37.596	-0.228	0.206
-590.952	-0.669	0.180	-0.130
-589.938	-200.000	-0.017	0.153
-588.923	707.716	0.022	0.059
-587.909	-56.764	-0.283	-0.128
-586.894	-117.583	-0.209	0.038
-585.879	-200.000	-0.006	0.112
-584.865	53.730	0.185	0.181
-583.850	800.000	0.116	-0.383
-582.836	-159.974	0.329	-0.018
-581.821	205.454	0.249	0.393
-580.806	-84.077	-0.080	-0.026
-579.792	-28.068	-0.202	-0.119
-578.777	-200.000	0.019	-0.126
-577.763	-44.144	0.143	-0.073
-576.748	348.205	-0.082	0.164
-575.733	800.000	-0.057	-0.220
-574.719	-200.000	-0.023	0.229
-573.704	-194.743	-0.258	-0.002
-572.690	76.535	0.277	0.299
-571.675	-200.000	-0.025	0.216
-570.661	-68.795	0.145	0.057
-569.646	295.959	0.072	-0.134
-568.631	-128.827	0.287	0.041
-567.617	-200.000	-0.042	0.257
-566.602	195.517	-0.021	-0.033
-565.588	-13.975	0.181	0.119
-564.573	76.639	0.081	0.087
-563.558	79.906	0.218	-0.239
-562.544	-36.680	-0.109	0.060
-561.529	-7.812	-0.204	0.140
-560.515	800.000	-0.068	-0.219
-559.500	-144.700	0.112	-0.011
-558.485	-200.000	0.036	0.315
-557.471	-200.000	-0.052	0.252
-556.456	-49.715	-0.191	0.092
-555.442	800.000	0.161	-0.510
-554.427	-89.601	-0.238	-0.071
-553.412	332.330	-0.138	0.272
-552.398	800.000	-0.145	-0.409
-551.383	800.000	-0.037	0.150
-550.369	-61.059	0.221	0.095
-549.354	-31.012	0.151	-0.087
-548.339	-200.000	0.028	0.285
-547.325	-65.548	-0.193	0.079
-546.310	800.000	-0.111	-0.322
-545.296	114.960	0.097	0.120
-544.281	208.593	-0.044	-0.070
-543.266	-200.000	-0.078	0.448
-542.252	-27.097	-0.235	0.139
-541.237	575.419	-0.098	-0.243
-540.223	-7.670	-0.218	-0.149
-539.208	800.000	0.041	-0.120
-538.193	56.321	-0.037	-0.036
-537.179	75.239	0.114	-0.122
-536.164	476.569	-0.064	-0.147
-535.150	-200.000	-0.051	0.229
-534.135	-200.000	-0.009	0.165
-533.121	-156.876	-0.508	-0.032
-532.106	-111.255	0.287	-0.060
-531.091	-200.000	-0.001	0.079
-530.077	305.812	-0.208	0.393
-529.062	-25.977	-0.188	-0.112
-528.048	641.987	-0.038	0.098
-527.033	-39.914	-0.202	-0.107
-526.018	800.000	0.079	0.239
-525.004	-23.073	-0.296	-0.181
-523.989	-114.072	-0.270	0.053
-522.975	83.313	-0.162	0.179
-521.960	27.676	-0.199	0.171
-520.945	228.398	-0.136	-0.226
-519.931	31.854	-0.083	-0.072
-518.916	207.588	0.112	-0.177
-517.902	177.733	-0.224	-0.332
-516.887	-35.993	0.115	-0.063
-515.872	33.472	0.213	-0.187
-514.858	-59.871	-0.172	0.075
-513.843	800.000	-0.060	-0.207
-512.829	-200.000	0.019	0.259
-511.814	139.929	0.120	0.161
-510.799	-150.146	0.134	0.011
-509.785	-74.115	0.051	-0.019
-508.770	117.458	0.236	-0.295
-507.756	-200.000	0.017	-0.177
-506.741	-200.000	-0.080	0.436
-505.726	800.000	-0.044	0.181
-504.712	800.000	0.036	0.128
-503.697	82.577	-0.122	-0.134
-502.683	118.461	0.159	-0.199
-501.668	-200.000	0.013	0.130
-500.653	126.125	-0.046	0.058
-499.639	352.614	0.079	-0.159
-498.624	800.000	-0.016	-0.071
-497.610	-48.032	0.144	0.070
-496.595	-50.900	-0.059	-0.028
-495.581	-43.830	0.140	-0.072
-494.566	145.427	0.038	0.051
-493.551	687.223	-0.093	-0.247
-492.537	129.722	0.126	-0.164
-491.522	-96.448	-0.211	0.057
-490.508	194.860	-0.081	-0.125
-489.493	-200.000	0.065	-0.312
-488.478	259.448	0.110	-0.192
-487.464	131.591	0.160	0.209
-486.449	-200.000	-0.017	0.120
-485.435	282.485	0.094	-0.171
-484.420	-130.408	-0.149	-0.020
-483.405	800.000	-0.078	0.262
-482.391	-175.107	0.248	0.007
-481.376	-200.000	0.001	0.170
-480.362	-116.488	-0.114	0.021
-479.347	225.388	-0.067	0.110
-478.332	248.896	0.051	-0.088
-477.318	-133.304	-0.136	-0.017
-476.303	6.307	0.123	-0.092
-475.289	274.159	-0.046	-0.082
-474.274	-42.054	0.330	-0.171
-473.259	-155.086	-0.323	0.021
-472.245	18.848	-0.181	-0.147
-471.230	2.623	0.311	0.229
-470.216	-167.258	0.113	0.005
-469.201	-31.856	0.334	0.190
-468.186	-68.029	-0.214	0.085
-467.172	509.813	-0.149	0.350
-466.157	41.648	0.139	0.127
-465.143	120.944	0.083	0.105
-464.128	316.746	0.069	0.131
-463.113	-51.079	0.107	-0.051
-462.099	-199.985	-0.270	0.001
-461.084	-158.615	-0.141	0.008
-460.070	287.339	-0.100	-0.183
-459.055	385.714	-0.083	-0.173
-458.040	195.408	-0.088	0.135
-457.026	229.129	-0.116	0.192
-456.011	21.706	0.056	0.046
-454.997	-200.000	0.041	0.217
-453.982	800.000	-0.085	0.246
-452.968	-200.000	0.021	-0.203
-451.953	540.884	-0.111	0.269
-450.938	6.161	-0.235	0.177
-449.924	-56.633	-0.183	0.082
-448.909	-43.318	0.137	0.070
-447.895	800.000	0.081	-0.264
-446.880	-200.000	-0.015	-0.109
-445.865	384.638	-0.162	0.338
-444.851	800.000	0.034	0.125
-443.836	-200.000	-0.008	-0.280
-442.822	11.840	0.127	-0.099
-441.807	18.215	0.391	0.316
-440.792	28.429	-0.243	0.208
-439.778	-200.000	-0.052	-0.283
-438.763	23.187	0.333	0.277
-437.749	-12.102	-0.127	-0.084
-436.734	800.000	0.077	-0.295
-435.719	-122.092	0.237	-0.039
-434.705	86.330	0.201	-0.224
-433.690	800.000	-0.028	0.116
-432.676	625.784	-0.087	-0.221
-431.661	-200.000	0.062	0.455
-430.646	97.446	0.136	0.158
-429.632	263.214	-0.084	-0.147
-428.617	-200.000	-0.012	-0.204
-427.603	-200.000	-0.010	-0.239
-426.588	724.170	0.022	-0.059
-425.573	794.405	0.035	0.099
-424.559	-200.000	0.001	-0.197
-423.544	251.886	0.065	-0.111
-422.530	-44.785	-0.180	-0.091
-421.515	279.788	0.112	-0.202
-420.500	159.622	-0.089	-0.125
-419.486	-190.441	-0.421	0.005
-418.471	-167.476	-0.350	-0.014
-417.457	111.624	0.125	0.152
-416.442	-200.000	0.030	-0.358
-415.428	-140.548	0.061	-0.006
-414.413	-36.299	0.197	0.108
-413.398	-100.036	0.204	0.052
-412.384	-47.081	0.128	0.063
-411.369	26.250	-0.159	-0.134
-410.355	-71.503	-0.102	-0.039
-409.340	-127.839	0.303	0.044
-408.325	-102.620	-0.266	-0.064
-407.311	370.068	0.192	0.394
-406.296	-131.382	0.213	-0.029
-405.282	-185.881	0.150	0.002
-404.267	111.997	0.194	0.237
-403.252	-171.130	-0.195	-0.007
-402.238	800.000	0.015	-0.053
-401.223	-155.185	-0.113	0.007
-400.209	-36.654	0.043	-0.024
-399.194	-200.000	-0.010	0.190
-398.179	273.270	-0.147	0.262
-397.165	119.305	-0.099	0.124
-396.150	165.809	0.246	0.351
-395.136	-132.583	0.185	0.024
-394.121	-135.684	-0.140	-0.017
-393.106	-95.458	-0.187	-0.051
-392.092	-101.046	-0.181	0.045
-391.077	10.753	-0.083	-0.064
-390.063	88.167	0.078	0.088
-389.048	44.676	-0.191	-0.178
-388.033	-113.530	-0.301	0.060
-387.019	-166.169	0.295	0.013
-386.004	-200.000	-0.045	-0.267
-384.990	-200.000	-0.026	0.241
-383.975	-200.000	0.018	0.154
-382.960	-65.905	0.135	0.054
-381.946	-200.000	-0.016	0.129
-380.931	-96.698	0.084	0.022
-379.917	-82.929	-0.201	-0.065
-378.902	-200.000	-0.005	0.183
-377.888	-159.335	0.209	0.012
-376.873	-200.000	0.002	0.202
-375.858	-200.000	-0.007	0.461
-374.844	-52.626	-0.169	0.079
-373.829	-182.064	0.346	-0.007
-372.815	-129.629	0.078	0.011
-371.800	236.848	-0.241	0.403
-370.785	-200.000	-0.039	-0.308
-369.771	4.690	0.163	-0.121
-368.756	800.000	0.011	-0.044
-367.742	-159.621	-0.131	-0.007
-366.727	-200.000	-0.002	0.049
-365.712	114.954	0.070	-0.087
-364.698	-4.202	0.230	0.161
-363.683	-71.653	0.267	-0.101
-362.669	-120.417	-0.385	-0.066
-361.654	259.937	0.086	0.150
-360.639	131.281	0.131	0.170
-359.625	74.640	-0.231	-0.245
-358.610	351.949	-0.037	0.074
-357.596	800.000	-0.052	0.157
-356.581	49.103	0.207	0.197
-355.566	-102.525	0.264	0.064
-354.552	24.168	-0.213	0.178
-353.537	800.000	-0.032	-0.137
-352.523	135.705	0.076	0.100
-351.508	-67.203	-0.270	0.107
-350.493	90.567	-0.145	0.164
-349.479	800.000	-0.098	0.279
-348.464	81.492	-0.080	0.087
-347.450	132.887	-0.298	-0.387
-346.435	-35.465	0.148	0.081
-345.420	-123.096	-0.149	0.024
-344.406	-200.000	0.021	0.155
-343.391	-19.800	0.116	-0.072
-342.377	-128.084	0.097	0.014
-341.362	800.000	0.135	0.382
-340.348	-28.240	0.306	0.178
-339.333	-17.906	-0.312	-0.198
-338.318	-200.000	-0.002	0.134
-337.304	-148.031	-0.169	-0.014
-336.289	133.298	0.042	0.055
-335.275	-145.708	-0.291	0.026
-334.260	709.697	-0.160	-0.428
-333.245	137.082	0.138	0.182
-332.231	-118.293	-0.170	-0.031
-331.216	-150.897	-0.127	-0.010
-330.202	-87.080	0.100	-0.031
-329.187	-145.439	0.078	-0.007
-328.172	-128.271	-0.594	0.085
-327.158	-79.933	-0.110	-0.037
-326.143	757.905	0.104	-0.285
-325.129	74.386	0.053	0.056
-324.114	-200.000	-0.001	-0.109
-323.099	-146.653	-0.201	0.018
-322.085	-131.141	0.140	0.019
-321.070	-193.188	-0.273	-0.002
-320.056	-91.937	0.108	-0.031
-319.041	-200.000	-0.014	0.297
-318.026	9.889	-0.101	0.077
-317.012	-30.262	-0.167	-0.095
-315.997	174.025	0.112	-0.164
-314.983	800.000	0.099	-0.346
-313.968	-64.170	0.204	0.084
-312.953	-139.007	-0.260	-0.028
-311.939	-28.044	0.151	-0.088
-310.924	800.000	-0.057	0.197
-309.910	711.761	0.034	0.089
-308.895	-200.000	0.014	0.232
-307.880	-200.000	-0.308	-0.000
-306.866	260.739	0.183	-0.319
-305.851	-200.000	-0.017	0.130
-304.837	-102.500	-0.286	0.069
-303.822	800.000	0.109	0.303
-302.807	357.904	0.051	-0.102
-301.793	122.902	-0.074	0.093
-300.778	800.000	0.083	-0.305
-299.764	195.193	-0.166	-0.253
-298.749	-200.000	-0.045	-0.220
-297.735	-200.000	0.044	-0.249
-296.720	-21.133	-0.244	-0.150
-295.705	-131.951	-0.195	0.026
-294.691	-200.000	-0.052	0.309
-293.676	432.845	0.042	-0.092
-292.662	-74.972	-0.422	-0.152
-291.647	-200.000	-0.078	-0.000
-290.632	800.000	0.098	0.405
-289.618	800.000	-0.069	0.286
-288.603	648.180	-0.096	0.247
-287.589	534.959	0.068	-0.162
-286.574	-200.000	0.008	0.103
-285.559	-159.669	0.123	0.007
-284.545	-42.194	0.262	0.135
-283.530	-200.000	-0.001	0.094
-282.516	-26.000	0.174	-0.103
-281.501	-7.465	0.031	0.021
-280.486	223.586	-0.050	0.081
-279.472	-99.332	-0.054	0.014
-278.457	21.646	0.178	0.145
-277.443	800.000	-0.086	-0.244
-276.428	16.324	0.169	0.134
-275.413	-200.000	-0.025	0.497
-274.399	-107.669	0.267	-0.059
-273.384	-200.000	0.185	-0.000
-272.370	-29.532	0.129	-0.074
-271.355	105.809	0.025	-0.030
-270.340	51.005	-0.290	-0.276
-269.326	-200.000	0.069	0.338
-268.311	-15.707	-0.141	-0.090
-267.297	-150.925	-0.316	-0.024
-266.282	-107.948	-0.222	0.048
-265.267	-200.000	-0.001	0.183
-264.253	239.612	-0.109	-0.183
-263.238	128.608	-0.217	0.278
-262.224	368.012	0.106	0.215
-261.209	-90.002	-0.265	-0.078
-260.195	123.108	0.186	0.234
-259.180	-129.917	0.244	-0.034
-258.165	-75.550	-0.385	0.138
-257.151	-200.000	-0.000	0.131
-256.136	47.556	0.183	-0.171
-255.122	12.750	0.176	-0.136
-254.107	208.216	-0.068	0.107
-253.092	-46.618	-0.119	0.058
-252.078	800.000	0.092	0.285
-251.063	-200.000	-0.025	0.141
-250.049	-130.370	0.276	-0.038
-249.034	-79.453	0.113	-0.039
-248.019	800.000	-0.050	0.196
-247.005	53.139	0.192	-0.185
-245.990	-154.615	0.167	-0.011
-244.976	328.829	0.067	0.130
-243.961	352.450	0.151	-0.300
-242.946	-150.346	-0.278	-0.021
-241.932	-200.000	0.032	0.200
-240.917	-22.651	-0.181	-0.110
-239.903	104.470	0.124	-0.147
-238.888	-133.671	0.182	0.023
-237.873	-94.890	0.120	-0.033
-236.859	-5.040	-0.328	-0.227
-235.844	40.061	-0.163	-0.147
-234.830	312.007	0.058	0.110
-233.815	-33.525	-0.147	-0.081
-232.800	-65.476	0.236	0.095
-231.786	-131.538	-0.255	-0.034
-230.771	131.970	0.167	-0.216
-229.757	-67.629	-0.395	-0.155
-228.742	800.000	-0.084	-0.289
-227.727	173.982	0.034	-0.049
-226.713	-200.000	0.008	-0.158
-225.698	-79.602	-0.326	-0.110
-224.684	-37.793	-0.240	-0.128
-223.669	-19.356	0.132	-0.082
-222.655	-126.986	-0.190	0.028
-221.640	800.000	0.053	-0.182
-220.625	-16.145	0.059	-0.037
-219.611	386.395	0.124	-0.256
-218.596	-10.279	-0.311	-0.207
-217.582	-136.908	0.355	0.041
-216.567	20.415	-0.262	0.212
-215.552	303.678	-0.063	0.117
-214.538	800.000	0.054	0.192
-213.523	-200.000	0.013	0.420
-212.509	-19.195	0.316	-0.197
-211.494	80.420	-0.109	0.118
-210.479	23.357	-0.028	-0.023
-209.465	66.754	0.198	0.202
-208.450	-65.396	0.202	0.082
-207.436	-143.970	0.036	0.003
-206.421	-200.000	0.020	-0.176
-205.406	-98.057	-0.361	-0.093
-204.392	621.991	0.031	0.077
-203.377	-10.804	0.447	0.297
-202.363	77.254	-0.093	-0.099
-201.348	-200.000	-0.013	-0.102
-200.333	-169.368	0.299	0.011
-199.319	73.351	-0.036	-0.038
-198.304	-97.913	0.128	-0.033
-197.290	540.770	-0.070	0.167
-196.275	-84.460	0.284	0.090
-195.260	-200.000	-0.027	0.136
-194.246	34.204	0.100	-0.088
-193.231	341.302	0.028	-0.055
-192.217	129.733	0.182	-0.233
-191.202	-68.546	-0.117	0.045
-190.187	-43.383	0.247	0.125
-189.173	-144.844	0.101	0.009
-188.158	182.982	-0.067	0.100
-187.144	18.462	-0.309	-0.247
-186.129	247.073	0.087	-0.147
-185.114	-37.697	-0.201	-0.107
-184.100	23.897	-0.035	0.029
-183.085	376.873	0.156	-0.320
-182.071	-125.852	-0.429	-0.065
-181.056	709.021	0.078	-0.207
-180.042	-26.887	0.412	0.241
-179.027	44.539	0.157	0.145
-178.012	203.545	0.208	-0.322
-176.998	-200.000	0.013	-0.289
-175.983	-108.754	0.134	0.029
-174.969	-101.642	0.228	-0.056
-173.954	-49.149	-0.147	-0.070
-172.939	-41.920	-0.253	0.130
-171.925	231.154	0.161	-0.264
-170.910	-184.076	0.360	0.006
-169.896	800.000	0.044	0.171
-168.881	313.355	0.136	-0.256
-167.866	-78.806	-0.218	0.075
-166.852	180.191	0.079	0.117
-165.837	-122.751	-0.380	-0.062
-164.823	-104.589	0.157	-0.036
-163.808	-140.766	0.077	-0.008
-162.793	-59.375	-0.143	-0.062
-161.779	-129.943	0.071	-0.010
-160.764	-109.304	0.320	-0.068
-159.750	39.758	0.145	-0.130
-158.735	32.626	-0.059	-0.051
-157.720	66.145	0.164	-0.167
-156.706	-200.000	0.076	0.335
-155.691	-88.739	-0.373	0.111
-154.677	16.585	0.041	-0.033
-153.662	800.000	-0.069	-0.240
-152.647	-200.000	-0.038	-0.287
-151.633	137.868	0.133	-0.174
-150.618	-125.964	-0.233	-0.035
-149.604	71.562	-0.197	-0.205
-148.589	661.196	0.054	-0.139
-147.574	-82.261	-0.270	0.088
-146.560	242.933	-0.102	0.172
-145.545	276.740	-0.176	0.312
-144.531	-200.000	-0.000	0.383
-143.516	439.840	-0.134	0.292
-142.502	-69.404	-0.208	-0.080
-141.487	19.242	-0.104	-0.083
-140.472	71.013	0.020	0.021
-139.458	195.524	0.137	-0.208
-138.443	-158.934	0.218	0.012
-137.429	70.196	0.341	0.353
-136.414	217.821	0.106	0.169
-135.399	-85.345	0.059	0.018
-134.385	-88.502	0.217	-0.065
-133.370	241.882	0.194	-0.324
-132.356	-11.674	0.312	-0.205
-131.341	-105.532	-0.321	-0.073
-130.326	413.430	-0.049	-0.105
-129.312	-109.755	0.224	-0.047
-128.297	-126.603	-0.424	0.063
-127.283	13.876	0.129	-0.101
-126.268	567.310	-0.124	0.300
-125.253	-82.170	0.346	-0.113
-124.239	-13.707	-0.253	0.164
-123.224	-34.856	0.384	0.210
-122.210	-200.000	0.013	-0.305
-121.195	116.839	0.204	-0.251
-120.180	800.000	0.070	-0.286
-119.166	118.808	0.044	-0.055
-118.151	-200.000	-0.004	0.115
-117.137	381.481	0.058	0.119
-116.122	-124.194	-0.064	-0.010
-115.107	397.228	-0.069	0.145
-114.093	800.000	-0.142	0.408
-113.078	-55.645	0.385	0.172
-112.064	-41.677	0.285	-0.146
-111.049	-7.238	0.063	0.043
-110.034	17.615	0.068	-0.054
-109.020	-200.000	-0.004	-0.244
-108.005	334.578	0.134	0.259
-106.991	-53.233	-0.053	0.025
-105.976	232.782	0.132	0.216
-104.962	-200.000	-0.033	0.192
-103.947	-107.124	0.114	-0.025
-102.932	-200.000	0.061	0.291
-101.918	12.364	0.082	-0.063
-100.903	-115.206	-0.101	-0.019
-99.889	64.406	0.066	-0.067
-98.874	34.078	0.026	0.023
-97.859	14.786	0.093	-0.073
-96.845	-200.000	0.048	-0.346
-95.830	800.000	0.055	-0.229
-94.816	317.013	-0.115	0.218
-93.801	-98.257	-0.140	-0.036
-92.786	800.000	-0.053	0.232
-91.772	-48.272	-0.233	-0.112
-90.757	454.711	-0.140	-0.311
-89.743	141.287	-0.193	-0.256
-88.728	690.284	-0.066	0.172
-87.713	3.625	0.122	-0.089
-86.699	-71.614	0.298	-0.111
-85.684	800.000	0.030	0.094
-84.670	-24.759	-0.073	-0.044
-83.655	12.945	-0.178	-0.138
-82.640	-70.407	-0.191	-0.072
-81.626	800.000	-0.040	0.152
-80.611	-95.004	-0.212	0.057
-79.597	800.000	0.037	0.113
-78.582	31.005	0.139	0.119
-77.567	125.879	0.213	0.269
-76.553	-105.229	-0.416	-0.095
-75.538	146.633	0.156	-0.209
-74.524	56.661	-0.021	0.020
-73.509	-200.000	-0.011	0.156
-72.494	-90.769	-0.187	-0.054
-71.480	55.197	-0.083	0.081
-70.465	-76.222	0.146	0.051
-69.451	-35.171	-0.297	0.161
-68.436	15.723	0.224	0.176
-67.422	-52.446	0.094	-0.043
-66.407	-23.695	0.025	0.015
-65.392	-54.137	-0.285	-0.129
-64.378	-200.000	0.010	0.170
-63.363	-12.779	0.269	-0.175
-62.349	642.248	0.063	0.159
-61.334	76.947	-0.576	-0.610
-60.319	-33.766	0.479	0.264
-59.305	800.000	-0.126	-0.493
-58.290	108.708	0.555	0.662
-57.276	282.814	0.839	1.502
-56.261	-200.000	75.214	537.294
-55.246	562.113	1303.730	3145.003
-54.232	145.506	2541.235	3394.023
-53.217	113.381	2348.278	2841.981
-52.203	51.960	1962.910	1863.901
-51.188	45.920	1750.201	1614.526
-50.173	42.908	1702.948	1547.760
-49.159	56.977	1736.782	1687.679
-48.144	62.969	1755.033	1751.660
-47.130	45.601	1719.093	1583.107
-46.115	42.385	1705.127	1545.469
-45.100	42.217	1700.512	1539.931
-44.086	42.144	1697.886	1536.934
-43.071	42.200	1695.240	1534.905
-42.057	42.104	1692.545	1531.676
-41.042	42.151	1690.922	1530.499
-40.027	42.153	1689.203	1528.898
-39.013	42.179	1686.789	1526.851
-37.998	42.176	1684.637	1524.823
-36.984	42.197	1683.051	1523.487
-35.969	42.324	1681.665	1523.132
-34.954	42.351	1680.276	1522.024
-33.940	42.345	1678.160	1519.996
-32.925	42.295	1676.717	1518.250
-31.911	42.349	1675.047	1517.087
-30.896	42.319	1672.817	1514.783
-29.881	42.376	1670.962	1513.475
-28.867	42.387	1669.552	1512.215
-27.852	42.314	1668.371	1510.535
-26.838	42.302	1666.591	1508.774
-25.823	42.279	1665.273	1507.348
-24.809	42.337	1663.686	1506.293
-23.794	42.456	1661.720	1505.344
-22.779	42.380	1660.707	1503.793
-21.765	42.356	1659.356	1502.336
-20.750	42.268	1657.275	1499.731
-19.736	42.311	1655.565	1498.446
-18.721	42.291	1654.347	1497.136
-17.706	42.365	1652.596	1496.041
-16.692	42.254	1651.344	1494.024
-15.677	42.367	1649.402	1493.046
-14.663	42.333	1648.712	1492.112
-13.648	42.381	1646.786	1490.666
-12.633	42.295	1645.489	1488.790
-11.619	42.384	1643.636	1487.719
-10.604	42.297	1642.432	1485.926
-9.590	42.268	1641.269	1484.596
-8.575	42.373	1639.464	1483.685
-7.560	42.330	1638.295	1482.247
-6.546	42.305	1637.273	1481.082
-5.531	42.333	1635.792	1479.888
-4.517	42.271	1635.452	1479.067
-3.502	42.358	1633.553	1477.928
-2.487	42.388	1632.318	1476.972
-1.473	42.400	1621.348	1467.076
-0.458	40.188	1602.250	1433.735
0.556	35.351	1600.521	1397.902
1.571	32.513	1624.692	1397.850
2.586	31.694	1639.471	1404.309
3.600	27.800	1585.148	1329.362
4.615	15.226	1463.357	1141.990
5.629	3.362	1387.485	1005.624
6.644	1.133	1376.550	983.168
7.659	0.915	1375.054	980.605
8.673	0.846	1373.894	979.243
9.688	0.826	1372.458	978.003
10.702	0.616	1369.592	974.521
11.717	4.630	1378.482	1006.788
12.731	16.050	1399.878	1097.044
13.746	23.869	1413.162	1158.518
14.761	24.421	1413.091	1161.954
15.775	24.557	1412.530	1162.274
16.790	24.579	1412.421	1162.223
17.804	24.551	1411.701	1161.345
18.819	24.907	1411.199	1163.145
19.834	24.865	1410.597	1162.275
20.848	24.888	1409.480	1161.397
21.863	24.962	1408.398	1160.882
22.877	24.914	1408.001	1160.142
23.892	24.967	1406.833	1159.420
24.907	24.924	1405.930	1158.293
25.921	24.823	1405.418	1157.118
26.936	24.910	1404.290	1156.649
27.950	24.834	1403.253	1155.206
28.965	24.938	1401.880	1154.638
29.980	24.974	1400.393	1153.544
30.994	24.931	1399.299	1152.267
32.009	24.928	1398.072	1151.136
33.023	24.935	1397.334	1150.471
34.038	24.943	1396.114	1149.415
35.053	24.921	1395.006	1148.257
36.067	24.937	1393.907	1147.356
37.082	24.861	1392.760	1145.823
38.096	24.892	1391.808	1145.141
39.111	24.848	1391.573	1144.559
40.126	24.893	1390.719	1144.043
41.140	24.915	1390.285	1143.726
42.155	24.765	1390.055	1142.482
43.169	24.843	1389.821	1142.685
44.184	24.842	1389.560	1142.361
45.199	24.880	1389.072	1142.099
46.213	24.882	1388.537	1141.575
47.228	24.858	1387.596	1140.543
48.242	24.925	1386.315	1139.821
49.257	24.957	1384.696	1138.590
50.271	24.961	1383.389	1137.441
51.286	24.936	1381.868	1135.931
52.301	24.815	1380.790	1134.178
53.315	24.810	1380.148	1133.518
54.330	24.872	1378.742	1132.655
55.344	24.870	1377.904	1131.856
56.359	24.900	1376.819	1131.049
57.374	24.839	1376.114	1129.984
58.388	24.866	1375.656	1129.684
59.403	24.806	1375.442	1129.025
60.417	24.893	1374.167	1128.429
61.432	24.868	1373.457	1127.588
62.447	24.954	1372.348	1127.119
63.461	24.925	1371.649	1126.263
64.476	24.922	1370.417	1125.136
65.490	24.876	1369.293	1123.826
66.505	24.905	1367.731	1122.625
67.520	24.882	1367.139	1121.891
68.534	24.875	1366.003	1120.819
69.549	24.903	1364.840	1119.942
70.563	24.825	1364.041	1118.699
71.578	24.919	1362.646	1118.042
72.593	24.893	1362.288	1117.489
73.607	24.892	1361.712	1116.907
74.622	24.998	1360.184	1116.216
75.636	24.918	1359.775	1115.286
76.651	24.923	1358.841	1114.454
77.666	24.964	1358.529	1114.349
78.680	24.867	1358.247	1113.418
79.695	24.820	1357.342	1112.285
80.709	24.909	1356.335	1111.913
81.724	24.831	1355.775	1110.875
82.739	24.972	1354.506	1110.610
83.753	24.952	1353.583	1109.633
84.768	24.835	1352.822	1108.186
85.782	24.842	1351.737	1107.244
86.797	25.003	1349.953	1106.678
87.812	24.961	1348.869	1105.430
88.826	24.975	1348.435	1105.064
89.841	24.938	1347.238	1103.756
90.855	24.905	1346.368	1102.743
91.870	25.004	1344.923	1102.073
92.884	24.939	1344.397	1101.145
93.899	24.920	1343.498	1100.193
94.914	24.960	1342.767	1099.740
95.928	24.878	1342.165	1098.648
96.943	24.977	1341.263	1098.421
97.957	24.902	1340.660	1097.369
98.972	24.942	1339.662	1096.698
99.987	24.899	1339.043	1095.832
101.001	24.957	1337.852	1095.114
102.016	24.922	1336.768	1093.917
103.030	24.989	1335.986	1093.587
104.045	25.079	1335.184	1093.385
105.060	24.919	1334.149	1091.467
106.074	24.954	1332.994	1090.640
107.089	25.106	1331.687	1090.399
108.103	24.896	1331.176	1088.604
109.118	25.053	1329.933	1088.443
110.133	25.070	1328.569	1087.335
111.147	25.121	1327.296	1086.509
112.162	25.028	1326.718	1085.374
113.176	24.979	1325.506	1083.993
114.191	25.045	1324.115	1083.158
115.206	25.082	1323.619	1082.878
116.220	25.040	1322.343	1081.487
117.235	25.088	1321.186	1080.732
118.249	25.017	1320.519	1079.662
119.264	24.992	1319.954	1078.958
120.279	25.112	1318.901	1078.722
121.293	25.118	1318.183	1078.077
122.308	25.047	1317.060	1076.637
123.322	25.010	1316.419	1075.795
124.337	25.120	1314.889	1075.106
125.352	25.148	1314.472	1074.836
126.366	25.118	1313.804	1074.019
127.381	25.004	1313.247	1072.785
128.395	25.020	1312.043	1071.803
129.410	25.026	1311.488	1071.290
130.424	25.042	1310.676	1070.626
131.439	25.083	1309.612	1069.910
132.454	25.106	1308.736	1069.234
133.468	25.007	1308.503	1068.358
134.483	25.084	1307.771	1068.128
135.497	25.058	1306.744	1067.035
136.512	25.085	1305.445	1066.042
137.527	25.031	1304.637	1064.968
138.541	25.001	1303.617	1063.863
139.556	25.092	1302.027	1063.009
140.570	25.097	1301.224	1062.292
141.585	25.106	1299.921	1061.185
142.600	25.082	1298.953	1060.159
143.614	25.187	1298.092	1059.985
144.629	25.059	1297.356	1058.535
145.643	24.956	1296.220	1056.907
146.658	25.095	1294.863	1056.525
147.673	24.918	1294.393	1055.004
148.687	25.017	1293.167	1054.493
149.702	25.003	1292.071	1053.429
150.716	24.835	1291.190	1051.624
151.731	24.945	1290.265	1051.430
152.746	25.007	1288.660	1050.390
153.760	25.031	1287.892	1049.809
154.775	25.021	1286.843	1048.802
155.789	25.104	1285.591	1048.177
156.804	25.091	1284.444	1047.073
157.819	25.030	1283.704	1046.021
158.833	25.022	1283.469	1045.692
159.848	25.071	1282.480	1045.079
160.862	25.156	1281.521	1044.700
161.877	25.140	1280.912	1044.016
162.892	25.128	1280.283	1043.343
163.906	25.136	1279.272	1042.475
164.921	25.081	1279.159	1041.966
165.935	25.120	1277.962	1041.126
166.950	25.195	1277.135	1040.796
167.964	25.197	1276.613	1040.292
168.979	25.152	1276.164	1039.571
169.994	25.211	1275.330	1039.145
171.008	25.171	1274.490	1038.134
172.023	25.241	1273.931	1037.991
173.037	25.137	1273.406	1036.872
174.052	25.243	1272.406	1036.577
175.067	25.175	1271.536	1035.383
176.081	25.121	1271.168	1034.682
177.096	25.123	1270.546	1034.094
178.110	25.118	1269.393	1033.035
179.125	25.264	1267.990	1032.646
180.140	25.228	1266.681	1031.280
181.154	25.155	1266.086	1030.285
182.169	25.124	1265.133	1029.237
183.183	25.190	1264.190	1028.759
184.198	25.262	1263.108	1028.200
185.213	25.227	1262.180	1027.157
186.227	25.346	1261.060	1026.833
187.242	25.288	1260.066	1025.601
188.256	25.278	1259.460	1024.962
189.271	25.207	1258.958	1024.059
190.286	25.205	1258.004	1023.177
191.300	25.311	1257.137	1022.983
192.315	25.147	1257.099	1021.931
193.329	25.274	1256.416	1022.009
194.344	25.170	1256.545	1021.430
195.359	25.246	1255.347	1020.798
196.373	25.200	1254.726	1019.942
197.388	25.182	1254.444	1019.520
198.402	25.218	1254.273	1019.495
199.417	25.229	1253.688	1018.993
200.432	25.330	1253.080	1018.982
201.446	25.270	1252.579	1018.141
202.461	25.299	1251.412	1017.268
203.475	25.321	1250.641	1016.676
204.490	25.302	1249.665	1015.686
205.504	25.275	1249.005	1014.904
206.519	25.404	1247.805	1014.570
207.534	25.261	1246.861	1012.903
208.548	25.290	1245.869	1012.173
209.563	25.298	1245.264	1011.638
210.577	25.323	1244.565	1011.122
211.592	25.273	1243.962	1010.260
212.607	25.403	1242.944	1010.077
213.621	25.428	1242.164	1009.490
214.636	25.293	1241.527	1008.128
215.650	25.421	1240.597	1007.999
216.665	25.340	1239.641	1006.683
217.680	25.350	1238.768	1005.940
218.694	25.388	1237.769	1005.252
219.709	25.407	1237.227	1004.831
220.723	25.439	1236.041	1003.953
221.738	25.367	1235.552	1003.065
222.753	25.335	1235.023	1002.371
223.767	25.330	1234.490	1001.820
224.782	25.462	1233.704	1001.833
225.796	25.483	1233.449	1001.650
226.811	25.504	1232.551	1000.953
227.826	25.440	1232.012	1000.066
228.840	25.484	1231.711	999.981
229.855	25.511	1230.257	998.862
230.869	25.478	1229.851	998.261
231.884	25.542	1228.859	997.720
232.899	25.390	1228.410	996.424
233.913	25.483	1228.008	996.528
234.928	25.540	1227.425	996.283
235.942	25.601	1226.697	995.940
236.957	25.528	1226.112	994.974
237.972	25.514	1225.323	994.165
238.986	25.433	1225.156	993.498
240.001	25.650	1224.054	993.713
241.015	25.629	1223.167	992.787
242.030	25.626	1222.426	992.081
243.045	25.618	1221.818	991.456
244.059	25.673	1221.225	991.195
245.074	25.691	1220.023	990.230
246.088	25.631	1219.614	989.481
247.103	25.591	1218.821	988.530
248.117	25.739	1217.726	988.365
249.132	25.562	1216.947	986.674
250.147	25.630	1216.808	986.848
251.161	25.726	1215.726	986.410
252.176	25.652	1215.325	985.589
253.190	25.812	1214.191	985.460
254.205	25.755	1213.268	984.313
255.220	25.764	1212.918	983.987
256.234	25.697	1212.399	983.113
257.249	25.702	1212.090	982.807
258.263	25.744	1211.343	982.344
259.278	25.858	1210.528	982.215
260.293	25.626	1210.082	980.501
261.307	25.760	1209.943	981.030
262.322	25.858	1208.583	980.378
263.336	25.760	1208.269	979.501
264.351	25.735	1208.359	979.354
265.366	25.763	1207.351	978.600
266.380	25.816	1206.608	978.200
267.395	25.795	1205.676	977.242
268.409	25.871	1204.679	976.763
269.424	25.779	1204.939	976.385
270.439	25.800	1204.195	975.811
271.453	25.771	1203.532	975.032
272.468	25.802	1202.274	974.091
273.482	25.799	1201.677	973.504
274.497	25.851	1201.082	973.218
275.512	25.796	1200.921	972.704
276.526	25.909	1199.960	972.452
277.541	25.958	1199.210	972.021
278.555	25.849	1198.912	971.106
279.570	25.892	1198.245	970.713
280.585	25.848	1197.575	969.847
281.599	25.885	1196.075	968.743
282.614	25.793	1196.065	968.154
283.628	25.913	1194.580	967.511
284.643	25.889	1193.659	966.553
285.657	25.977	1192.888	966.316
286.672	25.958	1191.877	965.306
287.687	25.923	1191.454	964.690
288.701	25.915	1190.773	964.014
289.716	26.131	1189.482	964.038
290.730	26.031	1188.813	962.877
291.745	26.068	1188.416	962.667
292.760	25.978	1188.091	961.838
293.774	25.942	1187.629	961.186
294.789	26.148	1186.842	961.563
295.803	25.999	1186.259	960.211
296.818	26.063	1185.913	960.186
297.833	26.111	1184.760	959.424
298.847	26.082	1184.183	958.715
299.862	26.059	1183.437	957.905
300.876	26.040	1182.903	957.289
301.891	26.085	1182.599	957.194
302.906	26.179	1181.657	956.847
303.920	26.266	1180.720	956.463
304.935	26.168	1180.272	955.500
305.949	26.185	1179.701	955.041
306.964	26.210	1179.050	954.561
307.979	26.145	1178.520	953.705
308.993	26.249	1177.443	953.297
310.008	26.246	1176.651	952.554
311.022	26.221	1176.078	951.876
312.037	26.176	1175.723	951.266
313.052	26.305	1174.315	950.721
314.066	26.154	1173.483	949.169
315.081	26.224	1173.107	949.150
316.095	26.158	1172.262	948.040
317.110	26.241	1171.769	947.992
318.125	26.327	1170.684	947.479
319.139	26.288	1170.235	946.826
320.154	26.228	1170.202	946.404
321.168	26.288	1169.373	945.963
322.183	26.237	1168.967	945.281
323.197	26.287	1167.908	944.607
324.212	26.363	1167.399	944.509
325.227	26.379	1166.814	944.034
326.241	26.307	1166.732	943.508
327.256	26.333	1165.968	942.940
328.270	26.383	1165.061	942.383
329.285	26.435	1164.080	941.781
330.300	26.237	1163.974	940.577
331.314	26.358	1162.556	939.982
332.329	26.434	1161.496	939.433
333.343	26.457	1160.656	938.790
334.358	26.449	1160.024	938.157
335.373	26.503	1159.080	937.588
336.387	26.411	1159.124	937.064
337.402	26.493	1158.370	936.797
338.416	26.601	1157.310	936.414
339.431	26.482	1156.881	935.368
340.446	26.437	1156.702	934.909
341.460	26.538	1155.255	934.181
342.475	26.600	1154.439	933.756
343.489	26.569	1154.104	933.243
344.504	26.590	1152.610	932.060
345.519	26.685	1152.021	931.993
346.533	26.603	1151.490	931.059
347.548	26.558	1150.779	930.168
348.562	26.622	1149.837	929.652
349.577	26.593	1149.086	928.813
350.592	26.469	1148.241	927.414
351.606	26.442	1147.610	926.683
352.621	26.545	1147.652	927.161
353.635	26.577	1146.720	926.490
354.650	26.649	1145.772	926.013
355.665	26.686	1145.045	925.533
356.679	26.689	1144.494	925.020
357.694	26.606	1144.448	924.477
358.708	26.745	1143.306	924.182
359.723	26.629	1142.723	923.036
360.738	26.679	1141.831	922.490
361.752	26.784	1140.954	922.233
362.767	26.743	1140.980	921.962
363.781	26.800	1140.279	921.605
364.796	26.846	1139.926	921.472
365.810	26.863	1139.152	920.854
366.825	26.775	1138.504	919.802
367.840	26.789	1138.293	919.621
368.854	26.949	1137.247	919.504
369.869	26.893	1137.026	918.963
370.883	26.949	1135.855	918.217
371.898	26.880	1134.983	917.079
372.913	26.859	1134.721	916.680
373.927	26.993	1134.298	916.935
374.942	26.915	1133.728	915.999
375.956	27.032	1133.135	916.033
376.971	27.002	1132.581	915.348
377.986	26.901	1132.309	914.542
379.000	26.996	1131.718	914.463
380.015	27.015	1131.327	914.158
381.029	26.980	1130.526	913.253
382.044	26.958	1129.872	912.534
383.059	27.079	1129.195	912.518
384.073	27.061	1128.308	911.629
385.088	27.135	1127.307	911.109
386.102	27.027	1126.808	910.084
387.117	27.050	1125.948	909.425
388.132	27.105	1124.633	908.556
389.146	27.104	1124.197	908.118
390.161	27.080	1123.834	907.628
391.175	26.957	1123.391	906.571
392.190	27.041	1122.737	906.385
393.205	27.089	1121.855	905.832
394.219	27.023	1121.191	904.885
395.234	27.145	1120.308	904.702
396.248	27.135	1119.562	903.968
397.263	27.190	1118.391	903.215
398.278	27.116	1118.313	902.708
399.292	27.262	1117.433	902.640
400.307	27.215	1116.773	901.796
401.321	27.266	1116.020	901.361
402.336	27.333	1115.261	901.000
403.350	27.162	1114.854	899.745
404.365	27.232	1114.124	899.420
405.380	27.237	1113.495	898.860
406.394	27.296	1112.393	898.180
407.409	27.241	1111.997	897.511
408.423	27.322	1111.188	897.176
409.438	27.309	1110.778	896.702
410.453	27.410	1109.780	896.317
411.467	27.479	1108.854	895.825
412.482	27.372	1108.226	894.712
413.496	27.362	1107.705	894.167
414.511	27.490	1107.069	894.202
415.526	27.453	1106.493	893.476
416.540	27.468	1106.140	893.185
417.555	27.413	1105.446	892.276
418.569	27.385	1105.169	891.836
419.584	27.254	1104.924	890.918
420.599	27.385	1104.507	891.144
421.613	82.633	1291.038	1345.956
422.628	77.446	1318.203	1346.092
