DTS Sentinel unit serial number:	SN413079Multiplexer serial number:	ORYXHardware model number:	OX4-SRSoftware version number:	ORYX F/W v4.00 Oryx Data Collector v3.7.2.0data status	okinstallation	princeton_trtdifferential loss correction	single-endedforward channel	channel 2reverse channel	N/Adate	2019/09/12time	02:17:11forward acquisition time	60.00reverse acquisition time	0.00gamma	496.2192k internal	0.2326k external	0.2326temperature offset calibration	1.0088default loss term (dB/km)	0.3790temperature slope calibration	1.0000multiplexer offset coefficient	1.0000multiplexer slope coefficient	1.0000fibre end	0.00T internal ref (°C)	32.62T ext. ref 1 (°C)	2.05T ext. ref 2 (°C)	26.15length (m)	temperature (°C)	Stokes	anti-Stokes-747.200	466.625	-0.023	-0.051
-746.185	58.919	0.238	0.236
-745.171	-114.910	0.245	0.047
-744.156	-101.769	0.012	0.003
-743.142	-4.470	0.091	0.064
-742.127	-200.000	0.013	0.096
-741.112	-50.766	0.279	0.132
-740.098	-56.414	-0.558	0.250
-739.083	190.588	-0.232	-0.351
-738.069	672.417	0.149	-0.390
-737.054	800.000	0.085	-0.313
-736.039	371.045	0.070	-0.144
-735.025	503.943	0.236	0.551
-734.010	275.827	-0.083	-0.149
-732.996	107.135	-0.033	0.040
-731.981	275.808	-0.067	0.120
-730.966	-135.298	-0.058	-0.007
-729.952	-64.377	-0.121	-0.049
-728.937	-65.056	0.163	0.066
-727.923	351.853	-0.051	-0.102
-726.908	-114.313	0.422	-0.082
-725.894	-25.642	-0.235	-0.139
-724.879	-133.866	-0.342	-0.043
-723.864	-131.079	-0.211	0.028
-722.850	800.000	-0.060	0.168
-721.835	68.669	-0.114	0.118
-720.821	81.664	0.199	-0.217
-719.806	-38.223	-0.258	0.138
-718.791	169.031	0.210	0.302
-717.777	-62.362	0.204	-0.085
-716.762	-68.391	-0.455	-0.178
-715.748	800.000	0.012	0.052
-714.733	-98.569	0.283	-0.073
-713.718	-200.000	0.001	0.097
-712.704	-158.517	0.176	-0.010
-711.689	-59.050	0.207	0.090
-710.675	-200.000	-0.020	0.209
-709.660	-162.349	0.342	-0.017
-708.645	-200.000	0.033	-0.466
-707.631	499.343	0.082	-0.191
-706.616	219.545	0.182	-0.294
-705.602	-95.316	-0.249	-0.068
-704.587	292.622	-0.138	-0.254
-703.572	-200.000	-0.022	-0.151
-702.558	448.851	0.035	0.077
-701.543	62.742	-0.236	-0.237
-700.529	411.542	0.108	-0.230
-699.514	43.860	-0.044	0.040
-698.499	424.870	-0.021	-0.045
-697.485	-50.745	-0.378	0.179
-696.470	-200.000	-0.016	0.201
-695.456	329.451	0.069	0.134
-694.441	-10.332	0.216	0.144
-693.426	-105.778	0.348	0.079
-692.412	25.866	0.103	0.086
-691.397	-200.000	0.029	0.295
-690.383	-29.772	-0.110	-0.063
-689.368	800.000	0.015	0.046
-688.354	241.150	-0.160	-0.268
-687.339	50.176	0.099	0.094
-686.324	107.005	0.076	0.091
-685.310	-200.000	0.042	0.199
-684.295	-67.353	-0.152	-0.060
-683.281	-157.699	-0.125	-0.007
-682.266	-123.463	0.139	0.022
-681.251	-17.598	-0.104	0.066
-680.237	-200.000	-0.000	-0.165
-679.222	-183.185	-0.305	0.005
-678.208	634.990	-0.163	-0.416
-677.193	-200.000	0.007	0.084
-676.178	232.354	0.134	0.221
-675.164	117.961	0.142	-0.176
-674.149	-200.000	-0.039	0.242
-673.135	382.593	0.033	-0.069
-672.120	-200.000	-0.023	-0.145
-671.105	-64.161	-0.088	-0.036
-670.091	114.794	0.085	0.104
-669.076	-36.004	0.126	-0.069
-668.062	-200.000	0.017	0.077
-667.047	-124.306	0.072	0.011
-666.032	164.487	-0.228	0.323
-665.018	-96.480	-0.170	0.045
-664.003	-147.912	0.391	-0.033
-662.989	-4.793	-0.215	-0.149
-661.974	223.779	-0.049	-0.079
-660.959	800.000	0.022	-0.094
-659.945	61.218	-0.126	-0.126
-658.930	-62.382	0.018	0.007
-657.916	800.000	0.090	0.293
-656.901	-98.814	-0.135	-0.035
-655.886	-147.861	-0.201	0.017
-654.872	101.676	-0.310	-0.363
-653.857	-200.000	-0.065	0.399
-652.843	34.607	-0.378	0.332
-651.828	141.691	-0.220	-0.292
-650.814	-6.802	-0.105	0.072
-649.799	107.922	0.099	-0.119
-648.784	34.671	-0.213	-0.187
-647.770	-170.544	0.217	-0.008
-646.755	435.794	-0.027	-0.059
-645.741	89.503	-0.068	0.077
-644.726	-200.000	0.048	0.431
-643.711	-89.930	0.211	-0.062
-642.697	25.917	-0.199	-0.167
-641.682	800.000	0.045	-0.160
-640.668	800.000	0.172	-0.497
-639.653	-200.000	-0.015	-0.191
-638.638	-53.611	-0.171	-0.079
-637.624	65.835	-0.119	0.122
-636.609	-129.942	0.076	-0.010
-635.595	-90.496	0.255	0.074
-634.580	63.002	0.266	-0.267
-633.565	58.526	0.151	-0.149
-632.551	-45.363	-0.173	-0.086
-631.536	-58.172	-0.186	0.081
-630.522	-200.000	0.014	0.085
-629.507	209.723	0.135	-0.212
-628.492	-39.663	-0.216	0.113
-627.478	-184.422	0.300	-0.005
-626.463	-108.398	-0.241	-0.052
-625.449	462.588	-0.114	0.256
-624.434	-166.024	0.071	0.003
-623.419	78.763	-0.100	0.107
-622.405	-25.027	-0.262	-0.156
-621.390	-13.412	-0.107	0.070
-620.376	232.681	-0.074	0.122
-619.361	-103.154	-0.274	-0.065
-618.346	231.599	0.092	0.152
-617.332	57.435	-0.108	0.106
-616.317	-200.000	-0.000	-0.422
-615.303	137.963	0.083	-0.109
-614.288	-59.899	0.165	0.071
-613.273	-50.243	0.299	-0.142
-612.259	-62.604	-0.357	-0.149
-611.244	-145.437	0.230	-0.021
-610.230	109.084	0.112	-0.134
-609.215	3.228	-0.191	0.140
-608.201	-63.886	0.456	0.187
-607.186	-57.879	-0.240	0.105
-606.171	-200.000	0.004	0.160
-605.157	-148.793	-0.246	0.020
-604.142	-137.222	-0.116	-0.013
-603.128	-200.000	-0.043	-0.306
-602.113	6.094	-0.264	0.196
-601.098	57.485	0.085	-0.084
-600.084	138.692	0.120	0.158
-599.069	-200.000	0.014	-0.141
-598.055	198.550	0.193	0.296
-597.040	166.096	0.158	0.224
-596.025	-147.479	-0.454	0.038
-595.011	33.900	-0.088	-0.077
-593.996	43.961	-0.137	-0.126
-592.982	800.000	0.022	-0.088
-591.967	175.526	0.075	0.109
-590.952	102.092	0.120	-0.141
-589.938	196.592	0.092	-0.141
-588.923	-200.000	-0.051	0.405
-587.909	-30.197	-0.105	0.060
-586.894	800.000	-0.029	-0.098
-585.879	-200.000	0.003	-0.232
-584.865	-199.676	0.119	-0.001
-583.850	60.953	0.329	0.327
-582.836	-70.347	-0.287	-0.109
-581.821	-68.461	0.295	0.115
-580.806	248.394	-0.143	-0.242
-579.792	-100.036	-0.146	0.036
-578.777	-27.647	0.427	-0.248
-577.763	719.416	0.034	-0.091
-576.748	-85.596	0.166	0.052
-575.733	-200.000	-0.008	0.097
-574.719	-200.000	-0.004	-0.094
-573.704	-200.000	-0.235	0.001
-572.690	714.913	-0.121	0.321
-571.675	-200.000	0.048	-0.443
-570.661	-200.000	-0.033	0.275
-569.646	-16.548	-0.220	-0.139
-568.631	-200.000	-0.081	0.405
-567.617	0.393	-0.196	-0.140
-566.602	-52.672	-0.170	0.079
-565.588	-200.000	-0.023	-0.193
-564.573	-200.000	-0.039	-0.185
-563.558	-174.144	-0.104	-0.003
-562.544	-39.033	-0.193	-0.101
-561.529	135.624	0.060	0.078
-560.515	-200.000	-0.023	0.199
-559.500	74.892	-0.052	0.055
-558.485	-95.604	0.553	-0.148
-557.471	800.000	0.094	-0.324
-556.456	25.819	0.125	-0.104
-555.442	-57.059	-0.150	0.066
-554.427	-100.390	0.105	-0.026
-553.412	800.000	0.012	0.034
-552.398	-18.508	0.086	0.054
-551.383	-154.810	0.131	0.009
-550.369	229.052	0.053	-0.087
-549.354	-200.000	0.003	0.348
-548.339	-98.190	0.163	-0.042
-547.325	-77.750	-0.052	-0.018
-546.310	-200.000	-0.006	0.152
-545.296	-200.000	0.016	-0.135
-544.281	-93.940	0.251	0.069
-543.266	23.245	-0.020	0.016
-542.252	119.124	0.203	-0.251
-541.237	-128.697	-0.100	-0.014
-540.223	290.658	-0.049	0.089
-539.208	180.313	-0.113	0.166
-538.193	-135.683	-0.094	0.011
-537.179	312.370	0.115	-0.217
-536.164	-200.000	-0.026	-0.238
-535.150	149.810	0.187	0.253
-534.135	-96.409	0.107	-0.028
-533.121	-200.000	-0.027	-0.162
-532.106	800.000	-0.011	-0.048
-531.091	146.918	-0.131	0.176
-530.077	-36.005	-0.180	-0.097
-529.062	-200.000	0.008	-0.252
-528.048	139.999	-0.092	-0.121
-527.033	800.000	-0.117	0.463
-526.018	-57.689	-0.064	0.028
-525.004	3.668	-0.146	0.107
-523.989	-104.020	-0.402	-0.094
-522.975	69.241	0.098	0.101
-521.960	163.930	-0.190	0.267
-520.945	117.080	0.103	0.127
-519.931	266.623	-0.079	-0.139
-518.916	-40.553	-0.223	0.116
-517.902	-113.311	-0.248	-0.049
-516.887	-44.916	0.096	-0.048
-515.872	657.561	-0.058	-0.150
-514.858	-200.000	0.010	0.198
-513.843	-140.057	-0.262	-0.028
-512.829	-46.588	-0.115	0.056
-511.814	800.000	-0.066	0.277
-510.799	800.000	0.092	0.355
-509.785	-11.189	-0.124	0.082
-508.770	87.164	-0.165	-0.182
-507.756	-200.000	0.001	-0.090
-506.741	66.885	-0.229	0.233
-505.726	459.726	-0.074	-0.165
-504.712	81.109	0.150	-0.162
-503.697	-120.287	-0.254	-0.043
-502.683	-200.000	0.012	-0.068
-501.668	800.000	-0.167	0.572
-500.653	800.000	-0.045	-0.152
-499.639	223.830	-0.179	0.289
-498.624	-200.000	-0.010	0.061
-497.610	800.000	-0.130	-0.380
-496.595	-15.794	0.096	-0.061
-495.581	-200.000	-0.023	0.430
-494.566	134.344	-0.087	0.112
-493.551	800.000	-0.094	-0.310
-492.537	101.261	-0.269	-0.313
-491.522	-200.000	-0.013	-0.247
-490.508	-162.879	0.462	0.022
-489.493	241.942	-0.069	0.116
-488.478	14.631	0.279	-0.217
-487.464	800.000	-0.089	0.266
-486.449	52.521	-0.212	-0.203
-485.435	43.019	-0.253	0.230
-484.420	93.228	0.180	0.203
-483.405	-40.665	-0.154	0.080
-482.391	335.328	-0.131	-0.254
-481.376	-200.000	0.029	0.152
-480.362	-200.000	-0.046	-0.275
-479.347	641.658	-0.018	0.046
-478.332	-200.000	0.024	0.235
-477.318	261.425	0.122	0.211
-476.303	428.647	0.104	0.225
-475.289	43.477	0.273	-0.249
-474.274	-132.789	-0.173	-0.022
-473.259	201.827	0.070	-0.107
-472.245	71.977	-0.179	-0.186
-471.230	-200.000	0.056	-0.360
-470.216	-159.288	-0.269	0.015
-469.201	-34.500	0.051	0.028
-468.186	-1.114	-0.209	-0.147
-467.172	-5.855	0.276	0.189
-466.157	-127.686	-0.194	0.028
-465.143	-85.150	-0.125	0.039
-464.128	309.641	0.080	0.150
-463.113	-20.535	-0.134	-0.082
-462.099	-59.572	0.090	-0.039
-461.084	-57.674	-0.158	0.069
-460.070	415.579	-0.057	-0.122
-459.055	61.317	-0.091	0.091
-458.040	-94.498	0.281	0.076
-457.026	-20.906	0.169	-0.103
-456.011	-55.150	0.096	0.043
-454.997	166.941	0.133	0.188
-453.982	36.554	0.146	-0.129
-452.968	104.327	-0.078	-0.092
-451.953	92.888	0.176	0.198
-450.938	309.092	0.125	-0.233
-449.924	-174.952	-0.151	0.004
-448.909	167.719	-0.103	-0.146
-447.895	167.293	-0.028	-0.040
-446.880	383.618	0.125	-0.256
-445.865	27.124	0.164	0.137
-444.851	-200.000	0.016	0.087
-443.836	-114.186	-0.315	0.061
-442.822	45.191	-0.223	-0.205
-441.807	-200.000	-0.033	-0.206
-440.792	10.349	0.113	0.086
-439.778	-200.000	-0.008	-0.074
-438.763	-169.207	0.165	-0.006
-437.749	-167.918	0.139	-0.005
-436.734	-68.517	0.226	0.087
-435.719	191.395	-0.143	0.214
-434.705	-5.193	0.213	0.146
-433.690	94.077	-0.080	0.090
-432.676	543.905	-0.095	0.226
-431.661	-200.000	-0.022	-0.134
-430.646	-200.000	-0.015	0.147
-429.632	-69.710	-0.119	-0.045
-428.617	-86.995	-0.416	-0.126
-427.603	654.806	0.084	0.215
-426.588	800.000	0.022	0.083
-425.573	-51.497	0.057	-0.026
-424.559	341.750	-0.122	-0.238
-423.544	-105.970	0.203	-0.045
-422.530	-72.672	-0.040	0.015
-421.515	-175.261	0.138	0.004
-420.500	800.000	0.018	-0.059
-419.486	-171.628	-0.156	-0.005
-418.471	-146.367	-0.411	-0.036
-417.457	-200.000	0.018	-0.191
-416.442	181.566	-0.163	0.239
-415.428	-104.073	-0.323	-0.075
-414.413	615.344	0.112	-0.280
-413.398	751.770	0.152	0.408
-412.384	117.706	-0.083	-0.102
-411.369	-99.683	-0.242	-0.060
-410.355	289.862	-0.126	0.228
-409.340	339.729	0.097	-0.189
-408.325	800.000	0.039	0.119
-407.311	171.486	0.111	0.159
-406.296	-117.391	0.052	0.009
-405.282	-41.880	0.343	0.175
-404.267	800.000	-0.119	0.373
-403.252	-5.666	0.425	0.290
-402.238	51.521	0.128	0.121
-401.223	-153.507	0.126	-0.009
-400.209	121.258	0.150	0.186
-399.194	593.452	-0.107	-0.263
-398.179	24.364	-0.139	0.114
-397.165	-165.297	0.148	-0.006
-396.150	-60.140	-0.094	0.040
-395.136	454.059	-0.130	-0.287
-394.121	201.492	0.085	-0.130
-393.106	800.000	-0.076	-0.251
-392.092	-200.000	0.056	0.288
-391.077	-200.000	0.017	0.318
-390.063	-43.202	0.030	-0.015
-389.048	10.734	-0.265	0.201
-388.033	404.852	-0.106	-0.221
-387.019	-200.000	0.028	-0.123
-386.004	182.566	0.045	-0.065
-384.990	-58.519	-0.007	0.003
-383.975	-9.046	-0.092	0.062
-382.960	18.459	0.202	0.161
-381.946	-159.433	-0.118	-0.007
-380.931	-133.625	0.317	-0.039
-379.917	37.196	0.293	0.258
-378.902	-153.009	-0.342	-0.024
-377.888	353.658	-0.095	0.187
-376.873	-30.351	-0.211	-0.119
-375.858	-69.526	0.348	0.133
-374.844	-42.188	0.141	-0.071
-373.829	-35.557	0.110	-0.059
-372.815	-1.113	0.210	-0.147
-371.800	-65.172	0.088	-0.035
-370.785	-173.879	0.159	-0.005
-369.771	178.347	-0.054	-0.078
-368.756	-123.498	-0.087	-0.014
-367.742	151.454	-0.203	-0.275
-366.727	2.905	0.092	-0.067
-365.712	-61.102	-0.232	0.097
-364.698	-96.001	-0.265	0.070
-363.683	21.616	-0.196	0.158
-362.669	135.910	-0.105	0.136
-361.654	-39.714	-0.168	0.087
-360.639	-10.184	0.289	0.190
-359.625	-26.036	0.173	-0.101
-358.610	800.000	0.096	-0.284
-357.596	-117.690	-0.288	0.051
-356.581	391.592	0.087	-0.180
-355.566	-80.238	0.419	0.139
-354.552	-75.157	-0.043	0.015
-353.537	64.067	0.112	-0.112
-352.523	800.000	-0.105	0.294
-351.508	-36.735	-0.130	0.069
-350.493	-121.866	0.160	0.026
-349.479	386.740	0.036	-0.075
-348.464	-200.000	-0.009	0.155
-347.450	-200.000	0.015	-0.076
-346.435	-200.000	-0.030	0.247
-345.420	774.438	0.102	0.276
-344.406	-106.582	0.099	0.022
-343.391	16.166	-0.115	-0.090
-342.377	-118.232	-0.128	0.023
-341.362	-5.988	-0.180	-0.122
-340.348	-23.228	0.310	-0.185
-339.333	-49.680	-0.249	0.118
-338.318	62.072	-0.041	-0.041
-337.304	209.248	0.160	0.249
-336.289	137.201	0.198	-0.257
-335.275	-200.000	0.021	0.140
-334.260	21.529	-0.114	-0.092
-333.245	-179.639	-0.221	-0.005
-332.231	33.780	0.187	0.161
-331.216	47.189	-0.109	-0.101
-330.202	596.824	0.098	0.240
-329.187	-86.479	-0.048	0.015
-328.172	-16.804	-0.153	-0.096
-327.158	204.565	-0.103	0.159
-326.143	-130.223	0.305	0.041
-325.129	51.861	0.100	-0.095
-324.114	-28.042	-0.264	-0.151
-323.099	-117.938	-0.148	0.026
-322.085	-31.331	0.310	-0.173
-321.070	758.073	-0.098	-0.263
-320.056	-50.331	-0.243	0.114
-319.041	64.829	-0.109	-0.109
-318.026	434.479	-0.074	0.160
-317.012	-184.274	0.310	-0.005
-315.997	85.818	0.237	-0.258
-314.983	33.894	-0.304	-0.263
-313.968	222.265	0.013	0.021
-312.953	-50.110	-0.021	0.010
-311.939	-128.937	-0.247	-0.034
-310.924	-70.716	-0.237	0.089
-309.910	-62.061	0.131	0.054
-308.895	-200.000	-0.023	0.182
-307.880	172.888	0.079	-0.113
-306.866	137.784	-0.225	-0.292
-305.851	-200.000	-0.059	-0.403
-304.837	-84.367	-0.179	0.056
-303.822	-111.837	0.117	0.023
-302.807	316.958	0.126	-0.236
-301.793	56.987	-0.096	0.093
-300.778	88.229	-0.264	0.291
-299.764	-32.070	0.080	-0.044
-298.749	-100.757	-0.266	-0.065
-297.735	27.387	-0.063	-0.052
-296.720	208.002	0.207	-0.321
-295.705	81.215	-0.210	0.225
-294.691	282.683	-0.155	-0.276
-293.676	-34.653	-0.058	-0.031
-292.662	-160.941	0.336	-0.018
-291.647	300.322	0.044	0.080
-290.632	568.028	-0.075	-0.180
-289.618	176.547	-0.072	0.104
-288.603	4.487	-0.339	0.246
-287.589	800.000	0.132	0.422
-286.574	800.000	0.128	0.394
-285.559	300.720	0.124	-0.227
-284.545	71.884	-0.195	-0.201
-283.530	297.099	0.073	0.133
-282.516	107.222	0.145	0.170
-281.501	398.328	-0.075	0.155
-280.486	-29.061	0.245	-0.139
-279.472	56.617	0.442	0.426
-278.457	286.358	-0.144	0.257
-277.443	-176.667	0.190	0.005
-276.428	-195.983	0.299	-0.002
-275.413	-28.893	0.153	-0.087
-274.399	106.374	0.253	-0.297
-273.384	478.290	-0.112	-0.250
-272.370	150.581	-0.060	-0.081
-271.355	-200.000	-0.011	-0.269
-270.340	800.000	-0.030	0.101
-269.326	-200.000	-0.046	-0.274
-268.311	110.816	0.146	0.174
-267.297	800.000	-0.076	0.300
-266.282	800.000	0.028	0.106
-265.267	-72.263	-0.312	-0.114
-264.253	-163.001	-0.180	-0.009
-263.238	-87.730	0.269	0.080
-262.224	228.088	-0.050	0.080
-261.209	-54.459	0.405	0.182
-260.195	-200.000	0.009	-0.121
-259.180	500.738	0.105	0.239
-258.165	-16.238	0.168	-0.106
-257.151	800.000	-0.034	0.145
-256.136	-52.629	0.107	-0.049
-255.122	326.331	-0.022	0.041
-254.107	-112.761	0.239	-0.047
-253.092	-200.000	0.001	0.127
-252.078	88.306	-0.036	-0.039
-251.063	137.955	0.057	-0.075
-250.049	-200.000	-0.001	0.095
-249.034	-200.000	0.006	0.106
-248.019	680.931	0.122	-0.313
-247.005	-200.000	0.049	-0.287
-245.990	-55.534	-0.315	-0.139
-244.976	45.944	-0.180	0.165
-243.961	507.254	0.115	-0.263
-242.946	-115.207	-0.312	0.058
-241.932	83.301	-0.071	-0.076
-240.917	-94.383	0.379	0.102
-239.903	180.234	-0.142	0.206
-238.888	-110.328	-0.200	-0.041
-237.873	-200.000	0.009	-0.048
-236.859	9.437	-0.212	0.159
-235.844	52.444	0.360	0.340
-234.830	-84.385	-0.225	0.070
-233.815	-180.125	-0.404	0.008
-232.800	-113.920	-0.198	-0.038
-231.786	83.709	-0.111	-0.120
-230.771	-200.000	-0.045	-0.332
-229.757	800.000	0.142	-0.412
-228.742	-200.000	0.027	0.272
-227.727	291.024	-0.157	-0.282
-226.713	101.047	0.469	0.539
-225.698	79.377	0.228	0.242
-224.684	800.000	0.085	0.307
-223.669	-123.741	0.341	-0.053
-222.655	-102.042	-0.127	-0.030
-221.640	-86.980	0.320	0.097
-220.625	-93.994	0.277	-0.075
-219.611	143.581	0.266	0.350
-218.596	737.253	0.058	-0.154
-217.582	-20.400	0.134	-0.082
-216.567	14.621	-0.179	-0.138
-215.552	-125.178	0.096	0.015
-214.538	-69.674	-0.110	0.042
-213.523	315.937	-0.028	-0.052
-212.509	800.000	0.069	0.219
-211.494	449.708	0.053	0.117
-210.479	-200.000	-0.022	-0.125
-209.465	202.629	0.084	0.128
-208.450	11.295	-0.157	-0.119
-207.436	218.354	0.122	-0.192
-206.421	-134.044	0.212	-0.026
-205.406	11.279	-0.325	-0.246
-204.392	800.000	0.112	0.411
-203.377	5.047	0.051	0.037
-202.363	-156.224	-0.163	0.010
-201.348	14.961	0.204	0.158
-200.333	-64.586	-0.125	-0.050
-199.319	477.493	0.091	-0.202
-198.304	331.861	0.279	-0.531
-197.290	145.242	0.263	0.347
-196.275	-200.000	0.001	-0.075
-195.260	405.892	0.153	-0.319
-194.246	800.000	0.030	0.084
-193.231	416.865	0.024	0.051
-192.217	402.578	0.160	-0.333
-191.202	-117.807	0.265	-0.047
-190.187	-41.694	0.299	-0.151
-189.173	40.333	-0.026	0.023
-188.158	-133.138	-0.249	0.031
-187.144	109.506	-0.102	0.121
-186.129	-200.000	-0.018	0.106
-185.114	5.942	-0.043	0.031
-184.100	800.000	0.059	0.248
-183.085	19.267	0.185	0.146
-182.071	-142.344	-0.228	0.022
-181.056	29.059	0.172	-0.144
-180.042	203.494	-0.084	0.128
-179.027	84.085	0.184	0.198
-178.012	-200.000	0.033	-0.412
-176.998	636.323	-0.045	-0.114
-175.983	-83.850	0.163	-0.051
-174.969	800.000	0.123	-0.342
-173.954	800.000	-0.130	-0.424
-172.939	269.897	0.008	-0.014
-171.925	81.500	0.131	-0.140
-170.910	-200.000	-0.013	0.089
-169.896	-171.674	0.126	-0.004
-168.881	-150.961	-0.091	0.007
-167.866	-69.543	-0.223	-0.084
-166.852	162.000	0.079	0.109
-165.837	-145.471	-0.389	-0.034
-164.823	358.467	0.031	-0.060
-163.808	-65.051	-0.381	0.152
-162.793	659.195	0.038	0.097
-161.779	-117.175	0.151	-0.027
-160.764	123.262	0.064	0.079
-159.750	-76.490	0.090	0.031
-158.735	165.841	-0.092	-0.128
-157.720	753.960	-0.068	-0.181
-156.706	-135.618	0.261	-0.031
-155.691	6.613	0.240	-0.176
-154.677	-78.682	-0.036	0.012
-153.662	443.995	0.020	-0.042
-152.647	-98.364	0.127	-0.032
-151.633	245.183	-0.147	0.244
-150.618	416.237	0.134	0.282
-149.604	-126.151	0.204	-0.030
-148.589	424.344	-0.102	0.216
-147.574	1.785	0.310	0.220
-146.560	2.740	0.163	0.117
-145.545	-6.714	-0.449	-0.301
-144.531	800.000	0.045	0.128
-143.516	-8.922	0.207	0.137
-142.502	800.000	0.064	-0.199
-141.487	-18.606	0.131	-0.081
-140.472	11.953	0.110	0.083
-139.458	357.023	-0.103	-0.203
-138.443	800.000	-0.062	-0.265
-137.429	53.046	-0.406	0.383
-136.414	-114.863	0.194	0.036
-135.399	313.390	-0.216	0.401
-134.385	-101.738	0.190	0.045
-133.370	235.413	0.138	-0.224
-132.356	-71.412	0.128	-0.047
-131.341	312.906	0.178	-0.329
-130.326	800.000	0.085	-0.336
-129.312	273.361	-0.056	0.097
-128.297	800.000	-0.033	-0.117
-127.283	-200.000	-0.029	0.171
-126.268	-41.047	0.341	-0.174
-125.253	175.407	0.018	-0.026
-124.239	105.040	0.079	0.092
-123.224	16.798	-0.097	-0.076
-122.210	692.693	-0.055	-0.143
-121.195	800.000	0.042	0.163
-120.180	-119.914	0.045	0.008
-119.166	-200.000	0.018	0.167
-118.151	59.753	-0.131	0.128
-117.137	-57.531	0.229	0.099
-116.122	16.364	0.035	-0.027
-115.107	717.057	0.072	0.189
-114.093	67.509	-0.090	-0.090
-113.078	146.331	-0.224	0.296
-112.064	-200.000	0.037	0.389
-111.049	208.024	0.118	-0.182
-110.034	-9.374	-0.215	0.141
-109.020	-200.000	0.069	0.332
-108.005	800.000	-0.032	0.095
-106.991	-200.000	0.029	-0.245
-105.976	-57.676	-0.168	0.072
-104.962	-103.881	0.117	0.027
-103.947	46.346	-0.327	-0.298
-102.932	-165.397	-0.064	-0.003
-101.918	-97.950	0.384	-0.097
-100.903	341.043	0.238	-0.457
-99.889	63.726	0.096	0.095
-98.874	-5.604	-0.019	-0.013
-97.859	-160.577	-0.079	0.004
-96.845	278.528	0.087	0.152
-95.830	308.557	0.072	-0.132
-94.816	800.000	0.010	0.042
-93.801	-83.063	0.166	0.053
-92.786	765.642	-0.031	0.084
-91.772	-200.000	-0.031	0.567
-90.757	128.025	-0.161	0.201
-89.743	107.280	0.013	0.016
-88.728	519.169	-0.158	-0.363
-87.713	63.004	-0.124	-0.122
-86.699	-29.455	0.077	-0.043
-85.684	183.807	0.103	-0.150
-84.670	265.999	0.041	0.070
-83.655	-169.450	-0.104	-0.004
-82.640	-3.057	-0.147	-0.101
-81.626	-26.624	0.440	0.253
-80.611	-151.507	0.176	0.013
-79.597	628.627	-0.165	0.411
-78.582	-177.118	0.209	-0.005
-77.567	-37.745	-0.206	-0.108
-76.553	-152.831	-0.078	0.005
-75.538	-88.485	0.384	-0.112
-74.524	105.746	0.154	-0.179
-73.509	-14.554	0.262	0.166
-72.494	1.117	0.018	0.013
-71.480	570.547	-0.124	-0.296
-70.465	-56.540	-0.137	0.060
-69.451	-200.000	-0.032	0.348
-68.436	-96.421	-0.091	-0.024
-67.422	-49.642	0.178	-0.083
-66.407	-5.793	0.067	0.045
-65.392	-200.000	0.028	0.699
-64.378	-44.831	0.199	0.098
-63.363	122.378	0.072	0.088
-62.349	7.501	0.078	0.057
-61.334	148.711	-0.958	-1.272
-60.319	88.657	0.461	0.503
-59.305	261.576	-0.502	-0.853
-58.290	278.601	0.657	1.151
-57.276	676.985	0.641	1.637
-56.261	-200.000	96.427	585.767
-55.246	566.443	1371.796	3267.819
-54.232	161.967	2549.996	3506.607
-53.217	106.499	2262.453	2633.587
-52.203	41.859	1890.848	1683.171
-51.188	35.892	1681.333	1451.774
-50.173	33.174	1637.555	1393.909
-49.159	50.505	1683.554	1562.862
-48.144	52.131	1699.565	1589.802
-47.130	35.490	1660.933	1430.932
-46.115	32.817	1646.190	1398.391
-45.100	32.559	1641.507	1392.457
-44.086	32.590	1638.383	1389.975
-43.071	32.499	1636.208	1387.409
-42.057	32.481	1634.130	1385.457
-41.042	32.577	1631.842	1384.169
-40.027	32.522	1630.432	1382.514
-39.013	32.452	1628.347	1380.179
-37.998	32.420	1626.762	1378.543
-36.984	32.502	1625.725	1378.210
-35.969	32.606	1624.142	1377.575
-34.954	32.665	1622.111	1376.229
-33.940	32.692	1620.158	1374.713
-32.925	32.574	1618.551	1372.434
-31.911	32.607	1617.225	1371.498
-30.896	32.605	1615.469	1369.936
-29.881	32.683	1613.370	1368.670
-28.867	32.621	1612.403	1367.345
-27.852	32.582	1610.354	1365.272
-26.838	32.650	1609.221	1364.753
-25.823	32.593	1607.711	1363.004
-24.809	32.657	1606.278	1362.195
-23.794	32.638	1604.642	1360.618
-22.779	32.675	1603.230	1359.634
-21.765	32.596	1601.670	1357.690
-20.750	32.581	1600.255	1356.329
-19.736	32.671	1598.776	1355.668
-18.721	32.710	1597.495	1354.804
-17.706	32.653	1595.799	1352.908
-16.692	32.713	1593.927	1351.695
-15.677	32.665	1593.264	1350.735
-14.663	32.727	1591.711	1349.810
-13.648	32.768	1589.821	1348.447
-12.633	32.696	1588.432	1346.701
-11.619	32.631	1586.946	1344.923
-10.604	32.536	1586.191	1343.548
-9.590	32.658	1584.553	1342.978
-8.575	32.702	1583.066	1341.980
-7.560	32.758	1581.531	1341.023
-6.546	32.602	1581.075	1339.475
-5.531	32.616	1579.520	1338.205
-4.517	32.699	1578.178	1337.605
-3.502	32.694	1577.233	1336.712
-2.487	32.728	1575.076	1335.071
-1.473	32.333	1563.475	1322.407
-0.458	29.558	1544.150	1286.708
0.556	26.507	1545.348	1257.236
1.571	24.441	1569.959	1262.545
2.586	23.931	1583.026	1269.307
3.600	21.170	1530.017	1207.619
4.615	11.976	1419.660	1061.135
5.629	3.698	1354.058	960.694
6.644	2.180	1345.995	945.497
7.659	2.126	1344.882	944.299
8.673	1.973	1343.755	942.479
9.688	1.911	1341.844	940.675
10.702	1.718	1338.896	937.334
11.717	5.227	1345.968	963.890
12.731	15.382	1364.743	1040.521
13.746	23.908	1379.198	1104.655
14.761	26.290	1381.671	1121.340
15.775	26.519	1382.086	1122.996
16.790	26.543	1381.790	1122.804
17.804	26.598	1380.922	1122.341
18.819	26.836	1380.845	1123.655
19.834	27.058	1379.692	1123.991
20.848	26.971	1379.335	1123.063
21.863	27.010	1378.996	1122.931
22.877	26.973	1377.873	1121.682
23.892	26.923	1377.170	1120.702
24.907	26.952	1376.010	1119.841
25.921	27.008	1375.100	1119.343
26.936	27.025	1373.987	1118.444
27.950	26.997	1373.315	1117.627
28.965	27.038	1371.682	1116.448
29.980	27.088	1370.059	1115.336
30.994	26.965	1369.498	1114.026
32.009	26.936	1368.174	1112.677
33.023	26.971	1367.285	1112.065
34.038	27.012	1365.928	1111.116
35.053	26.959	1365.265	1110.154
36.067	26.982	1364.214	1109.342
37.082	27.010	1363.157	1108.558
38.096	26.947	1362.321	1107.397
39.111	26.970	1361.728	1106.954
40.126	27.043	1361.065	1106.761
41.140	26.994	1359.997	1105.497
42.155	26.986	1359.627	1105.049
43.169	26.939	1360.002	1104.972
44.184	26.977	1359.606	1104.783
45.199	27.044	1358.810	1104.446
46.213	26.944	1358.503	1103.490
47.228	27.039	1357.640	1103.267
48.242	26.985	1356.667	1102.053
49.257	27.021	1354.883	1100.722
50.271	26.976	1353.712	1099.403
51.286	27.015	1352.353	1098.439
52.301	26.958	1351.110	1096.986
53.315	27.043	1350.272	1096.720
54.330	26.995	1349.428	1095.651
55.344	27.020	1348.268	1094.763
56.359	26.979	1347.302	1093.632
57.374	26.961	1346.780	1093.005
58.388	26.923	1346.544	1092.486
59.403	27.040	1345.417	1092.179
60.417	26.957	1345.010	1091.254
61.432	27.098	1343.763	1090.991
62.447	26.999	1342.871	1089.576
63.461	26.921	1342.108	1088.393
64.476	27.003	1341.059	1087.939
65.490	27.036	1339.563	1086.824
66.505	26.986	1338.588	1085.642
67.520	26.966	1337.468	1084.520
68.534	27.049	1336.338	1084.000
69.549	26.986	1335.433	1082.793
70.563	27.017	1334.361	1082.013
71.578	27.103	1333.115	1081.422
72.593	27.005	1332.631	1080.349
73.607	26.991	1332.333	1079.929
74.622	26.936	1331.729	1079.014
75.636	27.017	1330.890	1078.725
76.651	26.994	1330.141	1077.884
77.666	26.976	1329.628	1077.266
78.680	26.923	1329.848	1077.031
79.695	26.927	1328.535	1075.898
80.709	26.985	1327.804	1075.552
81.724	27.018	1327.020	1075.018
82.739	26.962	1326.039	1073.797
83.753	27.087	1324.407	1073.119
84.768	27.088	1323.338	1072.167
85.782	27.004	1323.006	1071.307
86.797	27.066	1321.727	1070.544
87.812	27.028	1320.522	1069.245
88.826	27.082	1319.582	1068.708
89.841	27.101	1318.211	1067.617
90.855	27.069	1317.278	1066.579
91.870	26.985	1316.863	1065.655
92.884	27.089	1315.909	1065.396
93.899	27.184	1314.765	1064.932
94.914	27.031	1314.734	1063.920
95.928	27.078	1313.425	1063.041
96.943	26.998	1312.947	1062.092
97.957	27.023	1312.306	1061.627
98.972	27.079	1311.046	1060.839
99.987	27.115	1310.094	1060.185
101.001	27.097	1309.016	1059.116
102.016	27.041	1308.229	1058.056
103.030	26.975	1307.587	1057.059
104.045	27.076	1306.498	1056.672
105.060	27.004	1305.898	1055.673
106.074	27.079	1304.598	1054.966
107.089	27.178	1303.134	1054.264
108.103	27.150	1302.815	1053.752
109.118	27.129	1301.739	1052.664
110.133	27.139	1300.604	1051.712
111.147	27.207	1299.401	1051.039
112.162	27.277	1298.051	1050.256
113.176	27.188	1297.027	1048.822
114.191	27.106	1296.622	1047.928
115.206	27.156	1295.546	1047.253
116.220	27.173	1293.897	1045.926
117.235	27.134	1293.715	1045.462
118.249	27.147	1292.375	1044.363
119.264	27.144	1291.715	1043.722
120.279	27.222	1291.117	1043.592
121.293	27.134	1290.692	1042.651
122.308	27.191	1289.773	1042.145
123.322	27.241	1288.488	1041.302
124.337	27.264	1288.182	1041.093
125.352	27.306	1287.052	1040.324
126.366	27.389	1285.902	1039.778
127.381	27.378	1284.575	1038.553
128.395	27.274	1284.220	1037.581
129.410	27.167	1283.806	1036.541
130.424	27.211	1282.879	1035.951
131.439	27.222	1282.228	1035.396
132.454	27.237	1281.590	1034.877
133.468	27.278	1280.191	1033.888
134.483	27.169	1280.387	1033.335
135.497	27.241	1279.461	1032.906
136.512	27.214	1278.223	1031.661
137.527	27.152	1277.380	1030.542
138.541	27.149	1276.087	1029.389
139.556	27.132	1274.693	1028.078
140.570	27.129	1274.230	1027.595
141.585	27.231	1272.822	1026.946
142.600	27.168	1272.165	1025.966
143.614	27.189	1271.391	1025.372
144.629	27.119	1270.625	1024.269
145.643	27.207	1268.753	1023.164
146.658	27.122	1268.296	1022.228
147.673	27.068	1267.307	1021.034
148.687	27.124	1266.191	1020.360
149.702	27.079	1265.050	1019.098
150.716	27.152	1263.893	1018.486
151.731	27.109	1262.960	1017.404
152.746	27.015	1262.565	1016.467
153.760	27.188	1261.151	1016.209
154.775	27.094	1260.052	1014.710
155.789	27.187	1259.244	1014.485
156.804	27.179	1258.197	1013.508
157.819	27.170	1257.542	1012.838
158.833	27.121	1257.089	1012.116
159.848	27.225	1256.097	1011.804
160.862	27.289	1255.417	1011.523
161.877	27.205	1254.797	1010.467
162.892	27.286	1253.382	1009.687
163.906	27.355	1252.879	1009.577
164.921	27.239	1252.470	1008.512
165.935	27.294	1251.546	1007.982
166.950	27.246	1251.127	1007.295
167.964	27.336	1250.156	1006.920
168.979	27.329	1249.503	1006.263
169.994	27.273	1249.397	1005.780
171.008	27.304	1248.500	1005.142
172.023	27.312	1247.360	1004.181
173.037	27.329	1247.112	1003.986
174.052	27.399	1245.987	1003.378
175.067	27.288	1245.697	1002.442
176.081	27.257	1244.559	1001.267
177.096	27.178	1243.750	1000.094
178.110	27.367	1242.888	1000.352
179.125	27.331	1241.824	999.207
180.140	27.432	1241.138	999.120
181.154	27.445	1239.636	997.893
182.169	27.239	1239.143	996.282
183.183	27.347	1237.944	995.821
184.198	27.364	1236.797	994.901
185.213	27.332	1236.083	994.063
186.227	27.346	1235.355	993.467
187.242	27.404	1234.425	992.951
188.256	27.407	1233.345	992.010
189.271	27.372	1232.762	991.260
190.286	27.460	1231.706	990.803
191.300	27.355	1231.465	989.950
192.315	27.300	1231.359	989.477
193.329	27.342	1230.529	988.950
194.344	27.473	1229.989	989.140
195.359	27.395	1229.422	988.174
196.373	27.399	1228.811	987.618
197.388	27.435	1228.530	987.498
198.402	27.332	1228.469	986.804
199.417	27.339	1227.983	986.365
200.432	27.368	1227.133	985.754
201.446	27.492	1226.599	985.910
202.461	27.422	1225.899	984.880
203.475	27.322	1225.668	984.067
204.490	27.445	1224.048	983.341
205.504	27.408	1223.078	982.274
206.519	27.504	1222.223	982.018
207.534	27.415	1221.238	980.660
208.548	27.426	1220.691	980.195
209.563	27.424	1219.937	979.495
210.577	27.438	1218.889	978.639
211.592	27.523	1217.843	978.172
212.607	27.483	1217.920	977.927
213.621	27.497	1216.923	977.117
214.636	27.502	1216.045	976.352
215.650	27.609	1215.324	976.259
216.665	27.567	1213.858	974.772
217.680	27.535	1213.038	973.860
218.694	27.498	1212.722	973.321
219.709	27.494	1212.158	972.758
220.723	27.637	1211.129	972.611
221.738	27.637	1210.267	971.835
222.753	27.503	1209.611	970.508
223.767	27.476	1209.341	970.059
224.782	27.600	1208.481	969.946
225.796	27.711	1207.968	970.038
226.811	27.691	1207.300	969.309
227.826	27.600	1207.387	968.807
228.840	27.558	1206.384	967.694
229.855	27.632	1205.864	967.584
230.869	27.580	1205.130	966.636
231.884	27.616	1204.021	965.853
232.899	27.529	1203.722	965.065
233.913	27.604	1203.229	964.977
234.928	27.688	1202.410	964.680
235.942	27.696	1201.622	964.006
236.957	27.699	1201.245	963.632
237.972	27.655	1200.778	962.942
238.986	27.594	1200.145	962.029
240.001	27.702	1199.835	962.262
241.015	27.761	1198.662	961.547
242.030	27.858	1197.645	961.158
243.045	27.859	1196.881	960.466
244.059	27.696	1196.307	959.061
245.074	27.787	1195.550	958.852
246.088	27.864	1194.392	958.242
247.103	27.737	1193.786	957.001
248.117	27.858	1192.922	956.860
249.132	27.895	1192.314	956.480
250.147	27.861	1192.056	956.013
251.161	27.837	1191.448	955.312
252.176	27.794	1190.750	954.445
253.190	27.886	1189.458	953.803
254.205	27.915	1189.339	953.775
255.220	27.969	1188.815	953.553
256.234	27.957	1188.530	953.181
257.249	27.920	1187.913	952.408
258.263	27.858	1187.043	951.303
259.278	27.949	1186.531	951.281
260.293	27.891	1185.970	950.443
261.307	28.020	1185.514	950.665
262.322	27.894	1184.945	949.473
263.336	27.879	1184.197	948.710
264.351	27.883	1183.439	948.040
265.366	27.984	1182.619	947.823
266.380	27.962	1182.319	947.381
267.395	27.962	1181.245	946.441
268.409	27.970	1180.827	946.063
269.424	27.934	1180.377	945.430
270.439	27.928	1180.101	945.093
271.453	27.904	1179.396	944.324
272.468	28.020	1178.278	943.944
273.482	28.035	1177.614	943.405
274.497	27.950	1177.621	942.888
275.512	28.100	1176.910	943.011
276.526	28.083	1175.761	941.920
277.541	28.083	1175.210	941.394
278.555	28.008	1175.087	940.827
279.570	28.123	1174.166	940.598
280.585	28.097	1173.550	939.886
281.599	28.097	1172.247	938.761
282.614	28.042	1171.616	937.888
283.628	27.980	1170.542	936.630
284.643	28.127	1169.802	936.707
285.657	27.958	1169.490	935.506
286.672	28.203	1168.251	935.688
287.687	28.099	1167.463	934.440
288.701	28.226	1166.492	934.230
289.716	28.215	1166.037	933.725
290.730	28.152	1165.847	933.170
291.745	28.222	1164.807	932.614
292.760	28.162	1164.387	931.890
293.774	28.225	1163.680	931.564
294.789	28.254	1163.387	931.394
295.803	28.377	1162.820	931.480
296.818	28.258	1161.933	930.086
297.833	28.264	1161.472	929.660
298.847	28.304	1160.772	929.222
299.862	28.240	1160.029	928.222
300.876	28.274	1159.395	927.806
301.891	28.299	1158.697	927.290
302.906	28.450	1157.595	927.091
303.920	28.336	1157.669	926.490
304.935	28.261	1157.169	925.631
305.949	28.282	1156.368	925.014
306.964	28.347	1155.626	924.667
307.979	28.445	1154.792	924.408
308.993	28.349	1154.610	923.700
310.008	28.361	1153.589	922.862
311.022	28.214	1153.368	921.861
312.037	28.397	1151.966	921.583
313.052	28.447	1151.157	921.104
314.066	28.324	1150.402	919.798
315.081	28.357	1149.693	919.319
316.095	28.381	1149.179	918.946
317.110	28.370	1148.624	918.363
318.125	28.461	1148.028	918.262
319.139	28.515	1147.295	917.866
320.154	28.461	1146.730	917.062
321.168	28.461	1146.125	916.496
322.183	28.447	1145.870	916.144
323.197	28.468	1145.165	915.604
324.212	28.396	1144.558	914.677
325.227	28.596	1143.785	914.977
326.241	28.549	1143.215	914.205
327.256	28.503	1142.554	913.366
328.270	28.428	1142.021	912.486
329.285	28.542	1140.600	911.837
330.300	28.602	1140.120	911.667
331.314	28.548	1139.248	910.625
332.329	28.677	1138.098	910.263
333.343	28.575	1137.794	909.435
334.358	28.656	1137.059	909.167
335.373	28.675	1136.195	908.488
336.387	28.745	1135.675	908.341
337.402	28.631	1135.549	907.595
338.416	28.646	1134.804	906.995
339.431	28.620	1133.982	906.126
340.446	28.734	1133.240	906.015
341.460	28.827	1132.859	906.093
342.475	28.758	1131.980	904.969
343.489	28.643	1131.447	903.898
344.504	28.811	1130.274	903.706
345.519	28.754	1129.336	902.597
346.533	28.698	1128.813	901.821
347.548	28.888	1127.671	901.761
348.562	28.815	1127.502	901.189
349.577	28.766	1126.947	900.424
350.592	28.768	1125.643	899.315
351.606	28.756	1125.151	898.781
352.621	28.847	1124.601	898.709
353.635	28.836	1124.080	898.156
354.650	28.815	1123.495	897.508
355.665	28.878	1122.780	897.168
356.679	29.094	1121.992	897.509
357.694	28.938	1121.614	896.368
358.708	28.913	1120.999	895.675
359.723	28.859	1120.486	894.922
360.738	28.836	1119.753	894.147
361.752	28.846	1119.176	893.656
362.767	28.897	1118.784	893.511
363.781	29.000	1117.959	893.272
364.796	28.988	1117.347	892.645
365.810	29.034	1117.025	892.533
366.825	28.988	1116.441	891.766
367.840	29.005	1116.136	891.526
368.854	29.111	1115.406	891.378
369.869	29.131	1114.536	890.698
370.883	29.042	1114.096	889.840
371.898	29.063	1113.499	889.382
372.913	29.069	1112.928	888.877
373.927	29.110	1112.502	888.658
374.942	29.160	1111.447	887.975
375.956	29.137	1110.925	887.371
376.971	29.117	1110.538	886.886
377.986	29.166	1110.392	886.928
379.000	29.177	1109.394	886.107
380.015	29.170	1108.822	885.534
381.029	29.232	1108.114	885.188
382.044	29.169	1107.613	884.411
383.059	29.238	1106.771	883.989
384.073	29.181	1106.150	883.140
385.088	29.181	1105.246	882.342
386.102	29.253	1104.818	882.266
387.117	29.284	1103.602	881.364
388.132	29.191	1102.821	880.220
389.146	29.263	1102.498	880.229
390.161	29.279	1101.730	879.615
391.175	29.282	1101.331	879.230
392.190	29.214	1100.894	878.479
393.205	29.248	1099.784	877.680
394.219	29.235	1099.149	877.032
395.234	29.385	1098.209	876.918
396.248	29.362	1097.700	876.324
397.263	29.334	1096.703	875.317
398.278	29.410	1096.141	875.154
399.292	29.452	1095.787	874.994
400.307	29.382	1095.068	874.009
401.321	29.342	1094.441	873.241
402.336	29.372	1093.757	872.761
403.350	29.404	1093.070	872.286
404.365	29.485	1092.751	872.339
405.380	29.442	1091.856	871.345
406.394	29.539	1091.056	871.087
407.409	29.551	1090.049	870.260
408.423	29.515	1089.699	869.735
409.438	29.508	1088.999	869.065
410.453	29.608	1088.218	868.835
411.467	29.594	1087.444	868.073
412.482	29.536	1086.735	867.160
413.496	29.558	1086.213	866.770
414.511	29.612	1085.673	866.518
415.526	29.539	1085.205	865.725
416.540	29.641	1084.911	865.889
417.555	29.520	1084.450	864.881
418.569	29.551	1083.754	864.391
419.584	29.653	1083.276	864.412
420.599	29.712	1082.888	864.302
421.613	104.618	1320.687	1458.601
422.628	97.369	1355.307	1458.728
