DTS Sentinel unit serial number:	SN413079Multiplexer serial number:	ORYXHardware model number:	OX4-SRSoftware version number:	ORYX F/W v4.00 Oryx Data Collector v3.7.2.0data status	okinstallation	princeton_trtdifferential loss correction	single-endedforward channel	channel 2reverse channel	N/Adate	2019/09/11time	01:53:11forward acquisition time	60.00reverse acquisition time	0.00gamma	496.2192k internal	0.2332k external	0.2332temperature offset calibration	0.9941default loss term (dB/km)	0.3790temperature slope calibration	1.0000multiplexer offset coefficient	1.0000multiplexer slope coefficient	1.0000fibre end	0.00T internal ref (°C)	29.19T ext. ref 1 (°C)	-0.31T ext. ref 2 (°C)	23.30length (m)	temperature (°C)	Stokes	anti-Stokes-747.200	-99.072	0.348	-0.089
-746.185	-95.174	-0.376	0.102
-745.171	28.565	-0.152	-0.130
-744.156	-22.294	-0.079	-0.048
-743.142	800.000	-0.107	-0.448
-742.127	800.000	-0.034	0.150
-741.112	-78.996	-0.251	-0.086
-740.098	76.423	0.155	0.165
-739.083	-133.814	0.267	0.033
-738.069	-91.616	0.345	0.099
-737.054	800.000	0.035	0.108
-736.039	-93.673	-0.382	-0.106
-735.025	-91.380	-0.218	0.063
-734.010	254.472	0.011	-0.020
-732.996	-92.680	-0.148	-0.042
-731.981	212.752	0.049	0.077
-730.966	-200.000	-0.017	-0.194
-729.952	-25.002	-0.065	-0.039
-728.937	63.490	-0.137	-0.138
-727.923	-0.178	-0.168	0.121
-726.908	-115.825	0.062	-0.012
-725.894	-17.504	-0.183	-0.116
-724.879	-107.308	-0.133	-0.029
-723.864	-200.000	-0.009	-0.039
-722.850	266.539	0.026	-0.045
-721.835	800.000	-0.031	-0.125
-720.821	7.959	-0.219	-0.165
-719.806	228.808	-0.167	0.273
-718.791	202.250	-0.083	0.128
-717.777	379.750	0.075	0.155
-716.762	34.282	-0.121	0.106
-715.748	-77.388	0.137	-0.048
-714.733	256.753	-0.060	-0.104
-713.718	11.985	-0.151	-0.116
-712.704	16.042	-0.204	-0.162
-711.689	-200.000	-0.019	0.199
-710.675	5.181	-0.182	0.135
-709.660	-144.462	0.128	-0.012
-708.645	-200.000	-0.025	0.153
-707.631	-60.250	-0.064	0.028
-706.616	-19.582	-0.098	-0.061
-705.602	-96.044	-0.125	0.033
-704.587	-200.000	-0.019	0.124
-703.572	800.000	-0.016	-0.050
-702.558	-21.408	-0.215	0.132
-701.543	81.038	0.046	0.050
-700.529	-49.756	-0.172	0.082
-699.514	-9.471	-0.318	-0.213
-698.499	-200.000	0.026	-0.241
-697.485	800.000	0.006	0.020
-696.470	-133.063	0.199	0.025
-695.456	381.037	-0.142	0.293
-694.441	-75.211	-0.296	0.106
-693.426	-158.364	0.284	0.017
-692.412	-200.000	-0.000	0.031
-691.397	-200.000	-0.001	-0.074
-690.383	736.804	-0.044	-0.118
-689.368	-200.000	0.010	0.049
-688.354	800.000	-0.032	-0.112
-687.339	-143.796	0.263	-0.025
-686.324	347.046	0.111	0.219
-685.310	180.177	0.183	-0.270
-684.295	8.030	0.217	-0.163
-683.281	-133.581	-0.380	0.048
-682.266	800.000	0.052	-0.144
-681.251	192.572	0.243	0.368
-680.237	-29.822	0.358	-0.205
-679.222	156.908	-0.102	-0.141
-678.208	-157.264	-0.044	0.003
-677.193	-46.576	-0.229	0.113
-676.178	347.289	0.104	0.205
-675.164	73.370	-0.177	0.185
-674.149	-84.675	-0.106	-0.033
-673.135	-137.992	-0.320	-0.036
-672.120	-200.000	-0.035	-0.210
-671.105	-105.976	-0.272	0.062
-670.091	-61.357	-0.089	0.038
-669.076	81.914	0.129	-0.140
-668.062	561.489	0.065	-0.158
-667.047	105.325	-0.088	-0.104
-666.032	439.460	-0.109	0.239
-665.018	27.809	-0.116	-0.098
-664.003	522.424	-0.102	0.240
-662.989	-200.000	0.007	-0.120
-661.974	-53.386	-0.113	-0.052
-660.959	763.611	0.091	-0.247
-659.945	-200.000	0.006	0.148
-658.930	-200.000	-0.083	-0.501
-657.916	-200.000	0.004	-0.138
-656.901	-70.537	-0.389	0.148
-655.886	-200.000	-0.003	0.423
-654.872	-200.000	0.084	0.495
-653.857	-31.181	0.244	-0.138
-652.843	31.961	-0.189	0.163
-651.828	-200.000	0.011	0.190
-650.814	-46.124	0.029	-0.014
-649.799	800.000	-0.039	0.115
-648.784	119.604	-0.034	0.042
-647.770	-12.764	0.210	0.137
-646.755	418.276	-0.107	-0.229
-645.741	-200.000	0.017	-0.238
-644.726	-106.728	-0.184	-0.041
-643.711	-65.421	0.463	0.187
-642.697	-200.000	-0.019	0.289
-641.682	-117.663	0.067	0.012
-640.668	800.000	-0.093	-0.336
-639.653	-200.000	-0.036	-0.337
-638.638	85.333	0.091	0.100
-637.624	-52.649	0.223	-0.103
-636.609	-62.837	-0.051	-0.021
-635.595	-109.155	-0.349	-0.074
-634.580	-200.000	-0.026	-0.138
-633.565	-70.149	0.109	0.042
-632.551	-140.586	0.184	-0.019
-631.536	264.574	0.159	0.277
-630.522	-200.000	0.009	-0.161
-629.507	385.177	-0.154	-0.317
-628.492	-39.875	0.093	0.049
-627.478	-200.000	-0.002	-0.083
-626.463	-200.000	0.032	-0.343
-625.449	-200.000	-0.005	-0.049
-624.434	-76.280	-0.150	-0.053
-623.419	-92.334	0.146	-0.041
-622.405	800.000	0.019	-0.055
-621.390	6.629	-0.036	-0.027
-620.376	-121.667	0.505	-0.084
-619.361	575.805	-0.051	0.125
-618.346	-60.810	-0.185	0.078
-617.332	-95.784	-0.177	-0.047
-616.317	466.826	0.078	0.175
-615.303	144.522	0.145	-0.193
-614.288	592.479	-0.060	0.149
-613.273	-50.290	-0.260	-0.123
-612.259	-89.855	0.307	0.090
-611.244	-3.775	0.140	0.097
-610.230	-138.283	0.405	-0.045
-609.215	212.563	-0.132	-0.208
-608.201	-200.000	0.006	-0.055
-607.186	528.566	0.114	-0.268
-606.171	-200.000	-0.041	-0.213
-605.157	5.330	-0.218	-0.161
-604.142	509.891	0.103	0.240
-603.128	-5.768	0.229	0.157
-602.113	161.999	-0.134	-0.187
-601.098	-18.014	-0.400	0.251
-600.084	-98.270	-0.090	-0.023
-599.069	-200.000	0.089	-0.551
-598.055	-126.272	0.385	-0.058
-597.040	800.000	-0.108	-0.432
-596.025	-200.000	0.037	-0.178
-595.011	-73.666	-0.126	-0.046
-593.996	405.106	0.068	0.144
-592.982	-40.465	-0.147	0.077
-591.967	-200.000	-0.007	0.062
-590.952	-200.000	-0.028	-0.254
-589.938	160.604	-0.181	0.252
-588.923	667.477	0.011	-0.028
-587.909	-62.151	-0.181	0.076
-586.894	632.818	0.119	0.302
-585.879	-92.475	-0.065	-0.018
-584.865	-40.272	0.201	0.105
-583.850	108.406	0.218	0.260
-582.836	54.092	0.102	0.098
-581.821	-4.480	-0.188	0.130
-580.806	-113.520	0.203	0.040
-579.792	-127.998	0.134	0.019
-578.777	375.213	0.116	0.236
-577.763	-0.860	0.137	-0.097
-576.748	66.841	-0.064	0.065
-575.733	800.000	-0.054	-0.183
-574.719	-200.000	-0.017	0.210
-573.704	-68.631	-0.101	0.039
-572.690	-70.638	0.092	0.035
-571.675	800.000	-0.077	-0.268
-570.661	74.256	-0.157	0.165
-569.646	58.079	-0.115	0.112
-568.631	-200.000	-0.007	-0.227
-567.617	464.684	-0.062	0.138
-566.602	-200.000	0.039	0.000
-565.588	-41.884	0.429	-0.220
-564.573	56.097	-0.058	-0.056
-563.558	-108.772	-0.033	-0.007
-562.544	-200.000	0.012	-0.232
-561.529	-200.000	0.004	-0.342
-560.515	-200.000	0.435	0.001
-559.500	570.651	-0.054	-0.132
-558.485	-200.000	-0.019	0.333
-557.471	11.116	0.081	-0.062
-556.456	-72.296	-0.158	-0.058
-555.442	-9.820	-0.293	0.195
-554.427	-61.527	0.054	0.023
-553.412	-200.000	-0.009	-0.112
-552.398	-200.000	-0.002	0.102
-551.383	-131.008	0.113	0.015
-550.369	-133.917	-0.152	-0.019
-549.354	150.614	-0.091	0.123
-548.339	40.522	-0.111	0.100
-547.325	76.918	-0.271	0.287
-546.310	-126.388	0.414	-0.062
-545.296	-127.294	0.158	0.023
-544.281	-77.522	-0.365	0.126
-543.266	170.181	-0.150	-0.214
-542.252	800.000	0.042	0.171
-541.237	800.000	-0.074	-0.319
-540.223	1.304	0.145	0.104
-539.208	107.962	-0.008	0.010
-538.193	800.000	-0.121	0.372
-537.179	-35.099	-0.173	-0.094
-536.164	-200.000	0.029	-0.352
-535.150	-47.182	-0.043	-0.021
-534.135	-24.258	-0.220	-0.131
-533.121	-40.059	-0.167	0.087
-532.106	-62.395	-0.374	0.155
-531.091	-71.123	-0.076	-0.029
-530.077	-200.000	0.004	0.257
-529.062	-200.000	-0.025	0.121
-528.048	800.000	-0.109	-0.307
-527.033	800.000	-0.047	-0.192
-526.018	22.033	-0.165	-0.135
-525.004	-101.696	0.166	-0.040
-523.989	-109.863	-0.163	0.034
-522.975	-97.927	-0.215	0.055
-521.960	-11.943	-0.227	0.148
-520.945	-67.422	0.346	0.136
-519.931	155.782	-0.110	-0.152
-518.916	525.214	-0.090	-0.211
-517.902	606.166	-0.172	-0.427
-516.887	800.000	-0.086	0.289
-515.872	-88.989	0.388	-0.115
-514.858	748.524	0.064	0.172
-513.843	182.275	-0.144	-0.211
-512.829	160.139	-0.125	-0.174
-511.814	800.000	0.099	-0.317
-510.799	-89.675	0.351	0.102
-509.785	-120.604	-0.593	0.100
-508.770	-200.000	-0.045	0.275
-507.756	-120.388	-0.220	-0.037
-506.741	543.771	0.060	0.142
-505.726	-28.379	0.350	0.201
-504.712	386.129	-0.086	0.177
-503.697	100.377	-0.163	-0.188
-502.683	800.000	0.016	0.056
-501.668	274.373	-0.089	0.158
-500.653	-88.985	0.181	-0.054
-499.639	102.061	-0.238	-0.277
-498.624	56.644	-0.025	-0.024
-497.610	800.000	0.008	-0.029
-496.595	219.309	0.112	-0.178
-495.581	470.224	0.044	0.099
-494.566	-200.000	-0.062	-0.337
-493.551	-134.686	0.111	-0.013
-492.537	800.000	0.045	0.133
-491.522	-105.908	0.306	0.069
-490.508	186.731	-0.187	0.278
-489.493	-200.000	0.052	0.333
-488.478	23.049	0.236	0.193
-487.464	-200.000	-0.021	0.143
-486.449	90.209	-0.082	0.091
-485.435	150.681	0.155	-0.209
-484.420	-47.747	0.178	0.086
-483.405	-151.308	-0.177	-0.013
-482.391	11.846	0.161	-0.123
-481.376	-200.000	0.012	0.161
-480.362	4.340	-0.216	-0.158
-479.347	800.000	0.036	0.136
-478.332	-85.979	-0.170	0.052
-477.318	52.039	-0.126	-0.120
-476.303	-90.211	0.157	-0.046
-475.289	297.768	0.123	-0.226
-474.274	-128.904	-0.021	-0.003
-473.259	800.000	-0.028	-0.094
-472.245	319.936	0.122	0.230
-471.230	-148.874	-0.096	-0.008
-470.216	800.000	0.081	-0.330
-469.201	144.818	0.038	-0.050
-468.186	227.297	-0.160	-0.259
-467.172	50.017	0.115	0.108
-466.157	341.245	0.117	0.228
-465.143	-200.000	0.004	0.024
-464.128	-64.651	-0.037	-0.015
-463.113	-118.706	0.266	0.047
-462.099	-200.000	0.041	0.210
-461.084	70.191	-0.292	-0.300
-460.070	256.040	-0.036	0.062
-459.055	800.000	-0.060	-0.219
-458.040	227.774	-0.106	0.172
-457.026	488.099	0.063	-0.143
-456.011	111.693	-0.090	0.108
-454.997	13.904	0.349	0.270
-453.982	-200.000	0.011	0.000
-452.968	217.462	0.042	0.066
-451.953	-158.830	-0.133	0.008
-450.938	-43.858	0.114	0.057
-449.924	-49.905	-0.354	0.167
-448.909	29.597	0.076	0.065
-447.895	18.240	0.058	0.046
-446.880	-200.000	0.010	0.104
-445.865	-56.234	0.394	0.174
-444.851	800.000	-0.055	0.158
-443.836	-120.085	0.069	-0.012
-442.822	433.471	-0.091	-0.197
-441.807	74.601	0.311	0.325
-440.792	-10.185	-0.216	-0.142
-439.778	-200.000	-0.022	0.125
-438.763	-118.294	-0.235	0.042
-437.749	-117.752	0.325	0.058
-436.734	32.277	0.084	-0.072
-435.719	127.181	-0.082	0.103
-434.705	177.962	-0.117	-0.169
-433.690	-200.000	-0.005	-0.027
-432.676	800.000	-0.091	0.264
-431.661	66.030	-0.070	-0.071
-430.646	800.000	0.086	-0.363
-429.632	-43.353	-0.387	-0.194
-428.617	-52.772	0.182	-0.083
-427.603	-76.508	0.387	0.135
-426.588	-85.123	0.449	-0.140
-425.573	200.199	-0.108	0.165
-424.559	394.501	0.080	-0.165
-423.544	800.000	-0.047	0.130
-422.530	-88.125	-0.357	-0.106
-421.515	-87.985	0.181	0.054
-420.500	598.008	0.028	0.068
-419.486	-200.000	-0.006	0.069
-418.471	-75.270	-0.168	-0.059
-417.457	-200.000	0.019	0.223
-416.442	-5.588	0.406	0.276
-415.428	358.403	-0.111	-0.221
-414.413	-58.027	0.173	0.075
-413.398	26.340	-0.052	-0.043
-412.384	-160.683	0.151	-0.008
-411.369	273.697	0.112	0.197
-410.355	-0.312	0.196	0.138
-409.340	800.000	-0.057	0.184
-408.325	-200.000	-0.053	0.460
-407.311	-147.342	-0.158	0.013
-406.296	-200.000	0.014	0.213
-405.282	-200.000	0.046	-0.213
-404.267	-61.442	-0.169	-0.070
-403.252	45.314	-0.146	-0.134
-402.238	-163.880	0.122	0.006
-401.223	-200.000	-0.017	-0.456
-400.209	494.328	0.029	0.067
-399.194	-101.980	-0.305	0.073
-398.179	613.241	-0.079	-0.196
-397.165	408.704	0.038	-0.079
-396.150	-171.123	-0.163	-0.005
-395.136	174.965	0.038	-0.054
-394.121	-164.197	-0.145	-0.007
-393.106	0.596	-0.190	-0.135
-392.092	39.157	0.088	0.078
-391.077	-87.049	-0.236	-0.071
-390.063	800.000	-0.035	-0.151
-389.048	308.543	0.041	0.076
-388.033	800.000	0.122	0.348
-387.019	-200.000	0.030	-0.134
-386.004	-160.972	-0.234	0.012
-384.990	46.036	-0.050	0.046
-383.975	-55.470	-0.157	-0.070
-382.960	-24.293	-0.032	-0.019
-381.946	376.709	-0.033	-0.067
-380.931	-200.000	-0.032	-0.259
-379.917	800.000	0.080	-0.254
-378.902	800.000	-0.041	0.160
-377.888	41.112	-0.452	-0.405
-376.873	167.675	0.205	0.289
-375.858	-21.844	-0.279	-0.168
-374.844	322.856	0.027	0.050
-373.829	31.724	-0.160	0.137
-372.815	800.000	-0.025	0.096
-371.800	431.542	-0.152	-0.327
-370.785	-169.160	0.326	0.012
-369.771	351.331	0.094	0.185
-368.756	608.817	0.209	0.517
-367.742	-111.339	0.181	0.037
-366.727	423.881	0.096	-0.205
-365.712	125.661	-0.122	-0.152
-364.698	47.715	-0.102	0.094
-363.683	14.586	-0.212	0.164
-362.669	256.059	-0.113	-0.192
-361.654	-129.316	0.189	-0.026
-360.639	-114.538	0.211	-0.040
-359.625	-37.423	-0.314	-0.166
-358.610	800.000	-0.064	-0.184
-357.596	-145.759	-0.266	0.023
-356.581	89.279	-0.269	-0.297
-355.566	800.000	-0.067	0.237
-354.552	800.000	-0.061	-0.179
-353.537	-90.811	-0.431	-0.123
-352.523	-64.667	0.256	-0.103
-351.508	-16.171	-0.054	0.034
-350.493	-129.415	-0.281	-0.039
-349.479	-132.963	-0.156	-0.020
-348.464	-200.000	-0.042	0.193
-347.450	367.221	0.103	-0.205
-346.435	-93.990	-0.343	-0.093
-345.420	-7.240	0.169	-0.114
-344.406	92.206	-0.235	-0.263
-343.391	231.484	-0.054	-0.088
-342.377	-26.859	-0.113	0.066
-341.362	216.218	0.076	0.119
-340.348	-200.000	0.108	-0.475
-339.333	-97.804	-0.182	0.047
-338.318	-111.183	-0.282	-0.057
-337.304	90.273	-0.107	0.118
-336.289	-118.688	0.356	0.062
-335.275	36.132	0.319	-0.279
-334.260	-82.309	0.289	0.093
-333.245	-200.000	0.064	0.440
-332.231	619.124	0.070	-0.174
-331.216	-42.425	0.229	-0.116
-330.202	162.853	-0.137	-0.190
-329.187	800.000	0.042	0.118
-328.172	-66.123	-0.332	0.131
-327.158	9.613	0.242	-0.182
-326.143	37.828	0.157	-0.138
-325.129	-135.305	-0.345	-0.041
-324.114	-2.727	0.342	0.237
-323.099	800.000	0.089	-0.381
-322.085	-23.381	0.192	0.114
-321.070	0.836	0.359	-0.255
-320.056	-2.616	-0.156	-0.108
-319.041	-200.000	0.010	0.153
-318.026	89.378	-0.069	0.076
-317.012	-119.165	-0.150	0.026
-315.997	-19.724	0.131	-0.080
-314.983	49.608	-0.018	0.017
-313.968	247.251	0.068	0.113
-312.953	-114.728	0.369	0.070
-311.939	-26.957	-0.280	0.161
-310.924	299.983	-0.269	-0.491
-309.910	-43.697	0.127	-0.063
-308.895	-200.000	-0.020	0.284
-307.880	-41.900	-0.023	-0.012
-306.866	800.000	0.056	0.227
-305.851	236.319	0.068	0.111
-304.837	-200.000	-0.006	0.080
-303.822	101.358	-0.197	0.227
-302.807	-15.044	0.182	0.115
-301.793	1.174	-0.184	0.131
-300.778	19.229	-0.184	0.146
-299.764	-155.563	-0.208	-0.013
-298.749	-64.662	0.248	0.099
-297.735	-200.000	0.037	-0.337
-296.720	29.445	0.152	0.128
-295.705	473.184	0.088	0.196
-294.691	-85.916	-0.330	-0.101
-293.676	-125.009	0.250	0.038
-292.662	713.744	-0.201	0.528
-291.647	-69.223	-0.265	0.101
-290.632	39.942	-0.154	-0.137
-289.618	-28.354	-0.057	-0.033
-288.603	-73.069	0.381	-0.138
-287.589	800.000	0.039	-0.161
-286.574	72.787	-0.095	-0.098
-285.559	-56.440	0.312	-0.137
-284.545	110.896	0.123	0.147
-283.530	451.088	0.066	-0.143
-282.516	-164.096	0.385	-0.018
-281.501	-121.617	-0.284	-0.047
-280.486	532.088	0.061	0.142
-279.472	306.586	-0.142	-0.262
-278.457	322.491	0.245	-0.461
-277.443	45.603	-0.119	-0.108
-276.428	-110.669	0.368	-0.075
-275.413	311.680	-0.087	0.162
-274.399	-200.000	0.019	0.101
-273.384	-107.436	0.259	-0.056
-272.370	131.470	-0.158	0.201
-271.355	-113.331	0.256	0.050
-270.340	-126.548	0.025	0.004
-269.326	-200.000	-0.002	0.411
-268.311	30.663	-0.094	-0.079
-267.297	85.811	0.094	-0.102
-266.282	-200.000	0.005	-0.308
-265.267	-18.808	0.102	0.063
-264.253	-59.808	-0.211	-0.089
-263.238	-200.000	-0.020	0.331
-262.224	123.630	-0.090	0.111
-261.209	-200.000	-0.294	0.001
-260.195	800.000	-0.073	0.306
-259.180	-91.861	0.460	0.129
-258.165	800.000	-0.095	0.392
-257.151	800.000	-0.090	0.371
-256.136	87.630	-0.203	0.222
-255.122	-38.857	0.185	-0.096
-254.107	-115.813	-0.199	-0.037
-253.092	182.658	0.141	0.206
-252.078	-200.000	0.023	0.100
-251.063	37.750	0.130	-0.114
-250.049	-52.840	-0.339	0.154
-249.034	59.753	0.004	-0.004
-248.019	42.542	0.087	-0.078
-247.005	310.707	0.110	-0.203
-245.990	-200.000	0.004	0.281
-244.976	139.587	-0.210	0.273
-243.961	-135.947	0.358	0.042
-242.946	-39.077	0.241	-0.125
-241.932	-42.479	0.235	-0.118
-240.917	80.558	0.271	0.288
-239.903	-15.861	0.313	0.197
-238.888	8.600	-0.178	-0.132
-237.873	165.872	0.047	-0.066
-236.859	-200.000	0.003	-0.237
-235.844	-200.000	0.001	-0.110
-234.830	800.000	-0.079	-0.312
-233.815	56.216	-0.188	0.180
-232.800	16.710	0.027	-0.021
-231.786	268.270	0.109	0.188
-230.771	-200.000	0.007	0.472
-229.757	222.466	-0.122	0.193
-228.742	-112.316	-0.327	-0.065
-227.727	171.166	0.309	0.437
-226.713	-200.000	-0.043	0.413
-225.698	600.066	0.259	0.634
-224.684	-145.020	-0.128	0.012
-223.669	468.143	0.078	0.172
-222.655	-200.000	-0.035	0.253
-221.640	800.000	-0.115	-0.416
-220.625	-48.252	0.091	0.043
-219.611	-101.457	-0.412	0.099
-218.596	228.356	-0.096	-0.154
-217.582	-200.000	-0.005	0.031
-216.567	102.974	-0.045	-0.052
-215.552	53.319	0.245	-0.231
-214.538	-200.000	0.030	-0.252
-213.523	-200.000	0.006	0.088
-212.509	307.126	0.164	0.302
-211.494	639.021	-0.066	0.166
-210.479	-119.486	-0.342	-0.058
-209.465	-121.448	-0.250	0.041
-208.450	242.324	-0.163	-0.269
-207.436	-109.211	0.370	0.077
-206.421	277.445	-0.157	-0.276
-205.406	-200.000	0.007	0.047
-204.392	213.007	-0.133	0.206
-203.377	-28.419	-0.274	-0.156
-202.363	-43.803	0.211	-0.105
-201.348	-89.885	0.270	-0.078
-200.333	-126.144	0.170	0.025
-199.319	17.325	-0.053	0.042
-198.304	68.745	0.164	0.166
-197.290	-200.000	-0.004	0.140
-196.275	-98.382	-0.186	-0.047
-195.260	289.968	-0.105	-0.188
-194.246	37.582	-0.134	0.117
-193.231	-200.000	-0.038	0.201
-192.217	-200.000	0.048	-0.214
-191.202	-200.000	0.025	-0.126
-190.187	-200.000	0.035	-0.189
-189.173	-200.000	0.057	0.268
-188.158	46.283	-0.094	0.086
-187.144	139.011	-0.111	0.143
-186.129	172.984	0.062	-0.088
-185.114	670.875	0.102	-0.260
-184.100	9.663	0.142	0.106
-183.085	6.178	-0.201	0.147
-182.071	-147.310	-0.130	-0.011
-181.056	-109.278	0.377	0.079
-180.042	561.590	-0.118	-0.281
-179.027	-29.274	0.333	0.188
-178.012	23.326	0.194	0.157
-176.998	-26.566	-0.321	-0.185
-175.983	-200.000	0.025	-0.354
-174.969	-61.801	0.213	0.088
-173.954	-138.522	-0.108	0.012
-172.939	48.671	-0.181	-0.167
-171.925	106.814	-0.074	-0.087
-170.910	-165.468	-0.151	-0.007
-169.896	800.000	0.106	0.320
-168.881	643.116	0.089	-0.223
-167.866	-55.632	-0.459	-0.202
-166.852	81.213	0.117	-0.125
-165.837	-200.000	0.016	-0.134
-164.823	108.360	-0.251	-0.295
-163.808	-200.000	-0.013	0.081
-162.793	-134.316	-0.055	0.007
-161.779	-200.000	0.002	-0.047
-160.764	-134.105	0.202	0.024
-159.750	-200.000	0.052	-0.270
-158.735	-162.389	-0.091	-0.004
-157.720	327.930	0.069	0.131
-156.706	-12.693	0.208	0.133
-155.691	-200.000	-0.035	-0.315
-154.677	-22.585	0.333	-0.198
-153.662	156.528	0.119	0.162
-152.647	-196.736	0.179	-0.001
-151.633	-74.677	0.259	0.091
-150.618	-200.000	-0.017	-0.079
-149.604	800.000	0.034	0.113
-148.589	396.317	-0.177	-0.364
-147.574	-22.244	-0.457	0.272
-146.560	31.880	-0.412	0.349
-145.545	-200.000	-0.002	0.065
-144.531	-86.161	-0.357	-0.108
-143.516	800.000	-0.065	-0.195
-142.502	9.875	-0.029	-0.022
-141.487	376.439	-0.138	0.276
-140.472	127.798	0.134	-0.168
-139.458	-47.472	0.575	-0.275
-138.443	800.000	-0.109	-0.351
-137.429	-118.792	-0.130	-0.022
-136.414	350.453	-0.130	-0.253
-135.399	-173.348	-0.556	0.017
-134.385	89.020	0.069	0.076
-133.370	-44.400	-0.108	-0.053
-132.356	341.419	-0.163	0.312
-131.341	29.069	0.108	0.090
-130.326	-163.186	-0.205	0.010
-129.312	284.190	0.074	0.131
-128.297	263.404	-0.230	0.392
-127.283	-48.924	-0.188	0.089
-126.268	-42.529	0.317	0.159
-125.253	-200.000	-0.004	-0.090
-124.239	-104.061	-0.261	-0.060
-123.224	19.769	0.189	0.150
-122.210	-38.304	0.056	-0.029
-121.195	800.000	0.102	-0.308
-120.180	800.000	-0.183	0.513
-119.166	65.577	0.067	-0.067
-118.151	-177.208	-0.293	0.007
-117.137	-78.394	0.071	-0.024
-116.122	-147.540	0.206	-0.017
-115.107	-113.749	0.064	-0.012
-114.093	302.663	0.191	0.347
-113.078	38.790	0.150	-0.131
-112.064	-128.979	-0.295	0.041
-111.049	118.865	0.298	-0.361
-110.034	-200.000	0.022	0.183
-109.020	75.835	-0.241	-0.250
-108.005	800.000	0.103	0.366
-106.991	-46.411	0.247	0.119
-105.976	-43.721	-0.366	0.181
-104.962	177.796	-0.140	0.200
-103.947	-148.996	-0.217	-0.017
-102.932	-200.000	0.074	0.397
-101.918	73.880	-0.042	-0.044
-100.903	743.790	0.095	-0.251
-99.889	69.083	0.060	-0.061
-98.874	-26.640	-0.370	-0.212
-97.859	-152.246	0.161	0.011
-96.845	-200.000	-0.033	-0.155
-95.830	800.000	0.076	-0.255
-94.816	-24.705	-0.181	0.106
-93.801	-110.116	0.232	-0.048
-92.786	318.138	-0.140	-0.260
-91.772	-200.000	-0.006	-0.205
-90.757	-132.816	-0.356	0.045
-89.743	-200.000	0.018	0.118
-88.728	-29.248	-0.175	-0.098
-87.713	-200.000	0.014	-0.117
-86.699	-27.508	0.202	0.115
-85.684	-200.000	-0.010	0.056
-84.670	103.569	0.047	-0.054
-83.655	14.836	-0.019	0.015
-82.640	800.000	0.024	0.067
-81.626	591.256	-0.224	0.543
-80.611	480.677	0.156	0.346
-79.597	-111.987	0.350	-0.069
-78.582	-33.460	-0.173	0.094
-77.567	336.745	-0.057	-0.109
-76.553	-200.000	0.046	-0.261
-75.538	-71.687	-0.114	0.042
-74.524	43.099	0.140	0.125
-73.509	-200.000	-0.049	-0.445
-72.494	176.126	-0.079	-0.113
-71.480	322.078	0.184	-0.344
-70.465	-159.706	0.135	-0.007
-69.451	-19.672	0.225	0.137
-68.436	800.000	-0.062	-0.190
-67.422	800.000	-0.090	0.376
-66.407	-56.451	-0.284	-0.124
-65.392	-110.887	-0.013	-0.003
-64.378	-200.000	-0.012	-0.214
-63.363	-55.450	-0.199	-0.087
-62.349	596.540	-0.065	0.157
-61.334	120.220	-0.896	-1.090
-60.319	-0.753	0.587	0.407
-59.305	-200.000	-0.308	-1.377
-58.290	436.417	0.581	1.240
-57.276	800.000	0.438	1.667
-56.261	-200.000	106.981	626.703
-55.246	523.592	1513.106	3483.216
-54.232	174.962	2713.032	3846.927
-53.217	105.011	2297.400	2654.116
-52.203	38.474	1902.297	1660.600
-51.188	32.368	1688.146	1427.441
-50.173	29.772	1644.364	1371.151
-49.159	48.802	1699.304	1560.958
-48.144	49.100	1713.977	1576.620
-47.130	31.917	1671.393	1409.667
-46.115	29.238	1656.898	1377.388
-45.100	29.136	1652.266	1372.725
-44.086	29.123	1649.226	1370.044
-43.071	29.074	1646.607	1367.452
-42.057	28.972	1644.222	1364.662
-41.042	29.119	1641.879	1363.756
-40.027	29.112	1640.462	1362.468
-39.013	29.077	1638.325	1360.383
-37.998	29.012	1636.950	1358.705
-36.984	29.055	1635.532	1357.790
-35.969	29.193	1633.768	1357.290
-34.954	29.232	1632.120	1356.157
-33.940	29.178	1630.424	1354.297
-32.925	29.225	1628.722	1353.175
-31.911	29.163	1627.121	1351.334
-30.896	29.153	1625.370	1349.750
-29.881	29.103	1623.943	1348.145
-28.867	29.200	1621.649	1346.897
-27.852	29.236	1620.312	1345.997
-26.838	29.282	1618.993	1345.183
-25.823	29.237	1617.649	1343.685
-24.809	29.166	1616.605	1342.248
-23.794	29.148	1614.830	1340.592
-22.779	29.202	1613.766	1340.044
-21.765	29.243	1611.618	1338.511
-20.750	29.203	1610.431	1337.181
-19.736	29.229	1608.891	1336.039
-18.721	29.177	1607.747	1334.659
-17.706	29.123	1606.114	1332.855
-16.692	29.215	1604.279	1331.946
-15.677	29.171	1603.187	1330.669
-14.663	29.263	1601.813	1330.136
-13.648	29.214	1600.614	1328.734
-12.633	29.221	1599.285	1327.632
-11.619	29.222	1597.439	1326.053
-10.604	29.249	1595.670	1324.728
-9.590	29.229	1594.202	1323.310
-8.575	29.232	1593.312	1322.545
-7.560	29.256	1592.436	1321.938
-6.546	29.261	1591.392	1321.050
-5.531	29.238	1589.996	1319.676
-4.517	29.172	1589.262	1318.544
-3.502	29.217	1587.904	1317.688
-2.487	29.282	1586.408	1316.858
-1.473	28.999	1573.963	1304.470
-0.458	26.107	1555.504	1268.820
0.556	20.559	1556.581	1239.661
1.571	18.396	1581.808	1243.950
2.586	18.173	1595.089	1252.651
3.600	16.394	1543.228	1199.201
4.615	8.751	1433.432	1063.213
5.629	1.247	1369.564	968.014
6.644	-0.161	1361.286	953.142
7.659	-0.296	1360.134	951.400
8.673	-0.310	1359.087	950.496
9.688	-0.463	1357.493	948.325
10.702	-0.540	1354.269	945.500
11.717	2.563	1360.161	969.186
12.731	11.625	1378.313	1039.917
13.746	19.196	1391.117	1097.927
14.761	21.288	1393.676	1113.194
15.775	21.562	1393.352	1114.584
16.790	21.694	1392.267	1114.457
17.804	21.679	1392.420	1114.385
18.819	21.894	1391.895	1115.233
19.834	21.939	1391.281	1114.926
20.848	21.962	1390.473	1114.330
21.863	22.138	1389.238	1114.353
22.877	21.998	1388.718	1112.952
23.892	21.956	1388.148	1112.129
24.907	22.101	1386.953	1111.993
25.921	21.998	1386.292	1110.711
26.936	22.004	1385.661	1110.146
27.950	22.132	1383.679	1109.270
28.965	22.067	1382.783	1108.042
29.980	22.138	1381.204	1107.124
30.994	22.027	1380.243	1105.562
32.009	22.021	1379.426	1104.770
33.023	22.136	1377.971	1104.231
34.038	22.052	1377.008	1102.833
35.053	22.057	1376.545	1102.396
36.067	22.038	1375.365	1101.232
37.082	22.001	1374.382	1100.117
38.096	21.941	1373.346	1098.813
39.111	22.094	1372.607	1099.086
40.126	22.068	1372.151	1098.461
41.140	22.129	1371.238	1098.011
42.155	22.082	1371.027	1097.452
43.169	22.000	1371.235	1097.009
44.184	22.059	1370.753	1096.898
45.199	22.038	1370.517	1096.477
46.213	22.031	1369.945	1095.880
47.228	22.016	1368.572	1094.590
48.242	22.136	1367.059	1094.033
49.257	22.107	1365.849	1092.786
50.271	22.035	1364.457	1091.125
51.286	22.080	1363.210	1090.314
52.301	21.942	1362.175	1088.534
53.315	21.964	1361.421	1087.968
54.330	22.067	1360.874	1088.076
55.344	21.961	1359.177	1085.969
56.359	21.982	1357.988	1085.053
57.374	22.072	1357.447	1085.077
58.388	22.200	1356.529	1085.040
59.403	22.058	1356.425	1083.981
60.417	22.080	1355.344	1083.159
61.432	21.939	1354.880	1081.821
62.447	22.118	1353.693	1081.879
63.461	22.067	1353.009	1080.928
64.476	22.046	1352.017	1079.909
65.490	22.047	1350.666	1078.739
66.505	22.103	1349.589	1078.130
67.520	22.127	1347.947	1076.870
68.534	22.160	1346.792	1076.049
69.549	22.125	1345.911	1075.038
70.563	22.099	1344.994	1074.054
71.578	22.137	1343.973	1073.373
72.593	22.145	1342.981	1072.533
73.607	22.198	1342.414	1072.314
74.622	22.039	1341.839	1070.787
75.636	22.048	1341.171	1070.213
76.651	22.048	1340.324	1069.445
77.666	22.196	1339.665	1069.726
78.680	22.143	1339.286	1069.005
79.695	22.005	1338.932	1067.787
80.709	22.088	1337.697	1067.215
81.724	22.232	1336.121	1066.737
82.739	22.144	1335.535	1065.639
83.753	22.012	1335.090	1064.387
84.768	21.938	1334.451	1063.336
85.782	22.077	1332.753	1062.729
86.797	22.176	1331.075	1061.900
87.812	22.040	1330.536	1060.553
88.826	22.243	1328.799	1060.299
89.841	22.063	1328.278	1058.706
90.855	22.098	1327.498	1058.197
91.870	22.104	1326.699	1057.502
92.884	22.226	1325.246	1056.986
93.899	22.171	1324.727	1056.150
94.914	22.079	1324.215	1055.096
95.928	22.106	1323.273	1054.409
96.943	22.168	1322.606	1054.162
97.957	22.082	1322.135	1053.174
98.972	22.187	1320.431	1052.350
99.987	22.268	1319.261	1051.810
101.001	22.129	1318.776	1050.498
102.016	22.177	1317.460	1049.649
103.030	22.202	1316.300	1048.776
104.045	22.136	1315.773	1047.873
105.060	22.064	1315.227	1046.915
106.074	22.228	1313.589	1046.495
107.089	22.105	1313.287	1045.429
108.103	22.194	1311.570	1044.503
109.118	22.263	1310.691	1044.119
110.133	22.263	1309.190	1042.829
111.147	22.245	1308.556	1042.124
112.162	22.219	1307.331	1040.905
113.176	22.232	1305.850	1039.711
114.191	22.211	1305.625	1039.312
115.206	22.212	1304.811	1038.577
116.220	22.163	1303.155	1036.883
117.235	22.136	1302.481	1036.093
118.249	22.172	1301.852	1035.716
119.264	22.218	1300.510	1034.827
120.279	22.147	1299.894	1033.826
121.293	22.086	1299.176	1032.807
122.308	22.219	1297.798	1032.398
123.322	22.173	1297.244	1031.599
124.337	22.390	1295.849	1031.670
125.352	22.199	1295.392	1030.097
126.366	22.257	1294.148	1029.351
127.381	22.288	1293.484	1028.915
128.395	22.370	1292.443	1028.475
129.410	22.344	1291.102	1027.168
130.424	22.304	1290.224	1026.143
131.439	22.308	1289.688	1025.649
132.454	22.325	1288.485	1024.702
133.468	22.349	1287.806	1024.210
134.483	22.241	1287.711	1023.416
135.497	22.282	1286.865	1022.891
136.512	22.207	1285.944	1021.633
137.527	22.195	1284.778	1020.544
138.541	22.174	1283.599	1019.397
139.556	22.186	1281.999	1018.104
140.570	22.358	1280.766	1018.029
141.585	22.178	1280.201	1016.450
142.600	22.185	1278.996	1015.443
143.614	22.276	1278.321	1015.344
144.629	22.198	1277.187	1013.901
145.643	22.125	1276.149	1012.567
146.658	22.108	1274.975	1011.450
147.673	22.242	1274.096	1011.437
148.687	22.159	1273.169	1010.135
149.702	22.222	1271.551	1009.122
150.716	22.140	1270.777	1007.950
151.731	22.278	1269.901	1007.957
152.746	22.236	1268.850	1006.790
153.760	22.253	1267.775	1005.943
154.775	22.196	1267.238	1005.105
155.789	22.202	1266.056	1004.114
156.804	22.259	1265.019	1003.525
157.819	22.324	1264.171	1003.138
158.833	22.246	1264.001	1002.469
159.848	22.339	1262.558	1001.764
160.862	22.364	1261.957	1001.338
161.877	22.313	1260.985	1000.191
162.892	22.253	1260.299	999.214
163.906	22.362	1259.457	999.078
164.921	22.441	1258.478	998.662
165.935	22.401	1257.712	997.741
166.950	22.232	1257.514	996.537
167.964	22.435	1256.535	996.823
168.979	22.331	1256.324	995.977
169.994	22.327	1255.795	995.449
171.008	22.458	1254.697	995.227
172.023	22.360	1254.392	994.346
173.037	22.407	1253.793	994.050
174.052	22.456	1252.715	993.382
175.067	22.432	1251.938	992.542
176.081	22.442	1250.911	991.696
177.096	22.460	1249.974	990.968
178.110	22.430	1249.392	990.248
179.125	22.485	1247.907	989.297
180.140	22.358	1247.482	988.159
181.154	22.318	1246.423	987.006
182.169	22.354	1245.279	986.213
183.183	22.459	1243.874	985.605
184.198	22.371	1243.244	984.522
185.213	22.494	1242.184	984.283
186.227	22.530	1241.357	983.746
187.242	22.547	1240.529	983.096
188.256	22.542	1239.424	982.106
189.271	22.453	1238.508	980.796
190.286	22.390	1237.973	979.937
191.300	22.390	1237.377	979.376
192.315	22.430	1236.858	979.101
193.329	22.498	1236.384	979.018
194.344	22.457	1236.035	978.424
195.359	22.448	1235.384	977.775
196.373	22.528	1234.698	977.589
197.388	22.491	1234.700	977.298
198.402	22.431	1234.448	976.680
199.417	22.502	1233.805	976.476
200.432	22.391	1233.306	975.384
201.446	22.517	1232.283	975.184
202.461	22.484	1231.595	974.369
203.475	22.441	1230.484	973.166
204.490	22.451	1229.582	972.426
205.504	22.407	1229.455	971.996
206.519	22.551	1228.015	971.564
207.534	22.506	1226.812	970.279
208.548	22.555	1225.924	969.761
209.563	22.552	1225.338	969.194
210.577	22.532	1224.183	968.086
211.592	22.472	1223.622	967.226
212.607	22.588	1222.852	967.168
213.621	22.568	1221.887	966.212
214.636	22.600	1221.348	965.873
215.650	22.637	1220.542	965.353
216.665	22.524	1219.381	963.732
217.680	22.565	1219.087	963.637
218.694	22.728	1217.591	963.259
219.709	22.628	1217.292	962.394
220.723	22.604	1216.644	961.666
221.738	22.558	1215.922	960.756
222.753	22.473	1215.399	959.799
223.767	22.656	1214.616	960.089
224.782	22.706	1214.231	959.972
225.796	22.743	1213.311	959.363
226.811	22.625	1213.017	958.406
227.826	22.659	1212.355	957.978
228.840	22.664	1211.914	957.573
229.855	22.612	1211.302	956.724
230.869	22.698	1210.122	956.172
231.884	22.636	1209.821	955.514
232.899	22.718	1209.153	955.346
233.913	22.781	1208.201	954.851
234.928	22.833	1207.394	954.407
235.942	22.779	1207.136	953.830
236.957	22.709	1206.800	953.098
237.972	22.870	1205.356	952.743
238.986	22.777	1205.031	951.902
240.001	22.820	1204.666	951.762
241.015	22.916	1203.306	951.119
242.030	22.865	1202.525	950.141
243.045	22.871	1201.855	949.565
244.059	22.817	1201.484	948.896
245.074	22.919	1200.709	948.749
246.088	22.798	1200.034	947.480
247.103	22.820	1199.153	946.817
248.117	22.883	1198.353	946.442
249.132	22.874	1197.440	945.590
250.147	23.011	1196.524	945.515
251.161	22.995	1196.025	944.949
252.176	22.975	1195.428	944.290
253.190	22.988	1194.667	943.672
254.205	22.848	1193.972	942.295
255.220	22.962	1193.353	942.330
256.234	22.942	1193.074	941.917
257.249	22.998	1192.213	941.454
258.263	22.935	1191.883	940.774
259.278	23.020	1190.810	940.296
260.293	23.061	1190.543	940.223
261.307	23.080	1189.655	939.536
262.322	22.985	1189.132	938.537
263.336	22.925	1188.883	937.936
264.351	22.893	1189.031	937.805
265.366	22.954	1187.873	937.128
266.380	22.948	1187.406	936.646
267.395	22.937	1186.410	935.720
268.409	22.945	1186.119	935.451
269.424	23.089	1185.189	935.396
270.439	23.028	1184.882	934.746
271.453	23.154	1183.729	934.421
272.468	22.971	1183.495	933.185
273.482	23.011	1182.660	932.658
274.497	23.023	1182.399	932.432
275.512	23.218	1180.994	932.267
276.526	23.038	1180.909	931.169
277.541	23.142	1179.942	930.875
278.555	23.095	1179.489	930.185
279.570	23.078	1178.624	929.335
280.585	23.053	1178.001	928.629
281.599	23.071	1176.931	927.797
282.614	23.029	1176.275	926.976
283.628	23.205	1175.208	926.975
284.643	23.229	1174.027	926.089
285.657	23.215	1173.555	925.563
286.672	23.246	1172.985	925.190
287.687	23.201	1171.995	924.092
288.701	23.266	1171.458	923.930
289.716	23.278	1170.394	923.069
290.730	23.218	1170.156	922.486
291.745	23.274	1169.579	922.241
292.760	23.276	1168.675	921.457
293.774	23.235	1168.269	920.845
294.789	23.225	1168.095	920.571
295.803	23.300	1167.304	920.258
296.818	23.174	1166.605	918.969
297.833	23.343	1165.634	919.004
298.847	23.298	1165.275	918.401
299.862	23.303	1164.561	917.784
300.876	23.317	1163.772	917.158
301.891	23.316	1163.279	916.680
302.906	23.406	1162.621	916.545
303.920	23.423	1161.564	915.722
304.935	23.349	1161.159	914.937
305.949	23.401	1160.342	914.481
306.964	23.468	1159.673	914.218
307.979	23.453	1159.218	913.699
308.993	23.501	1158.570	913.357
310.008	23.382	1158.062	912.265
311.022	23.485	1157.305	912.116
312.037	23.483	1156.131	911.097
313.052	23.397	1155.439	910.030
314.066	23.455	1154.422	909.447
315.081	23.441	1153.953	908.924
316.095	23.512	1153.692	909.003
317.110	23.442	1152.631	907.727
318.125	23.516	1152.045	907.567
319.139	23.558	1151.325	907.136
320.154	23.520	1151.194	906.755
321.168	23.553	1150.227	906.080
322.183	23.530	1149.922	905.646
323.197	23.553	1148.695	904.716
324.212	23.438	1148.832	904.154
325.227	23.546	1148.048	904.008
326.241	23.634	1147.331	903.813
327.256	23.558	1146.775	902.910
328.270	23.565	1145.849	902.134
329.285	23.548	1144.859	901.189
330.300	23.700	1144.386	901.507
331.314	23.574	1143.664	900.222
332.329	23.681	1142.556	899.814
333.343	23.695	1142.237	899.552
334.358	23.678	1141.268	898.625
335.373	23.754	1140.140	898.040
336.387	23.736	1139.845	897.635
337.402	23.711	1139.062	896.815
338.416	23.701	1138.701	896.399
339.431	23.664	1138.295	895.815
340.446	23.555	1137.882	894.863
341.460	23.691	1136.879	894.679
342.475	23.848	1136.050	894.735
343.489	23.726	1134.978	893.201
344.504	23.779	1134.315	892.865
345.519	23.859	1133.368	892.442
346.533	23.746	1132.603	891.193
347.548	23.804	1131.855	890.816
348.562	23.852	1131.198	890.462
349.577	23.755	1130.692	889.499
350.592	23.753	1129.688	888.620
351.606	23.755	1129.105	888.093
352.621	23.855	1128.453	888.001
353.635	23.806	1128.128	887.422
354.650	23.875	1127.162	886.930
355.665	23.844	1126.528	886.195
356.679	23.971	1125.762	886.148
357.694	23.899	1125.248	885.306
358.708	23.875	1124.644	884.635
359.723	23.869	1124.118	884.115
360.738	23.815	1123.898	883.593
361.752	23.874	1122.989	883.095
362.767	23.881	1122.484	882.651
363.781	24.067	1121.893	883.030
364.796	23.964	1121.431	882.081
365.810	24.033	1120.518	881.624
366.825	24.067	1120.203	881.467
367.840	24.195	1119.287	881.304
368.854	24.079	1118.644	880.145
369.869	24.134	1117.751	879.636
370.883	24.087	1117.379	879.032
371.898	24.184	1116.822	878.994
372.913	24.066	1116.203	877.851
373.927	24.094	1115.951	877.713
374.942	24.137	1115.061	877.143
375.956	24.189	1114.310	876.733
376.971	24.193	1114.344	876.701
377.986	24.147	1113.924	876.068
379.000	24.166	1113.144	875.468
380.015	24.154	1112.702	874.984
381.029	24.156	1111.676	874.110
382.044	24.149	1110.956	873.436
383.059	24.359	1110.104	873.714
384.073	24.177	1109.681	872.412
385.088	24.327	1108.879	872.440
386.102	24.330	1107.950	871.648
387.117	24.142	1107.513	870.305
388.132	24.115	1106.693	869.453
389.146	24.206	1105.712	869.051
390.161	24.284	1105.035	868.821
391.175	24.334	1104.346	868.448
392.190	24.276	1104.250	868.012
393.205	24.316	1102.997	867.142
394.219	24.399	1102.230	866.866
395.234	24.379	1101.429	866.063
396.248	24.396	1100.592	865.412
397.263	24.430	1099.880	864.941
398.278	24.237	1099.600	863.708
399.292	24.522	1098.730	864.327
400.307	24.406	1098.455	863.473
401.321	24.348	1097.858	862.645
402.336	24.543	1096.650	862.562
403.350	24.429	1096.351	861.703
404.365	24.547	1095.297	861.367
405.380	24.484	1094.850	860.632
406.394	24.527	1094.148	860.214
407.409	24.547	1093.416	859.659
408.423	24.601	1092.351	859.007
409.438	24.552	1092.016	858.432
410.453	24.533	1091.350	857.740
411.467	24.609	1090.158	857.090
412.482	24.639	1089.577	856.702
413.496	24.659	1089.203	856.430
414.511	24.544	1088.473	855.229
415.526	24.577	1088.130	855.039
416.540	24.613	1087.841	854.911
417.555	24.507	1087.727	854.235
418.569	24.501	1087.231	853.744
419.584	24.755	1086.244	854.106
420.599	24.750	1086.056	853.859
421.613	149.086	1402.256	1800.310
422.628	137.844	1448.269	1800.402
