DTS Sentinel unit serial number:	SN413079Multiplexer serial number:	ORYXHardware model number:	OX4-SRSoftware version number:	ORYX F/W v4.00 Oryx Data Collector v3.7.2.0data status	okinstallation	princeton_trtdifferential loss correction	single-endedforward channel	channel 2reverse channel	N/Adate	2019/09/11time	12:09:11forward acquisition time	60.00reverse acquisition time	0.00gamma	496.2192k internal	0.2297k external	0.2297temperature offset calibration	0.9967default loss term (dB/km)	0.3790temperature slope calibration	1.0000multiplexer offset coefficient	1.0000multiplexer slope coefficient	1.0000fibre end	0.00T internal ref (°C)	39.64T ext. ref 1 (°C)	0.20T ext. ref 2 (°C)	37.69length (m)	temperature (°C)	Stokes	anti-Stokes-747.200	496.116	0.046	-0.108
-746.185	-30.809	0.284	0.164
-745.171	-200.000	0.038	-0.211
-744.156	74.578	-0.336	0.361
-743.142	-83.802	-0.402	0.131
-742.127	-200.000	0.046	0.291
-741.112	-161.259	0.072	-0.004
-740.098	-23.028	-0.049	0.030
-739.083	-111.184	-0.367	-0.077
-738.069	162.098	0.088	-0.126
-737.054	3.660	-0.184	0.137
-736.039	-142.846	0.153	0.015
-735.025	20.221	0.070	0.058
-734.010	-200.000	0.022	-0.189
-732.996	-137.715	-0.372	-0.043
-731.981	96.742	-0.255	-0.298
-730.966	649.863	0.049	-0.128
-729.952	113.470	-0.231	-0.287
-728.937	-200.000	-0.040	-0.433
-727.923	-82.326	-0.013	0.004
-726.908	55.319	-0.068	-0.067
-725.894	120.764	0.105	0.133
-724.879	12.117	-0.128	-0.100
-723.864	-173.213	-0.256	-0.008
-722.850	502.207	0.102	-0.240
-721.835	-20.035	0.349	-0.219
-720.821	47.461	-0.176	0.168
-719.806	-82.022	-0.141	-0.047
-718.791	496.197	0.042	0.099
-717.777	606.811	-0.059	0.150
-716.762	-147.008	0.422	-0.037
-715.748	493.978	0.056	-0.132
-714.733	-200.000	-0.021	0.131
-713.718	-31.755	-0.252	-0.144
-712.704	-137.541	0.136	-0.016
-711.689	169.528	0.099	-0.144
-710.675	-35.540	-0.366	-0.203
-709.660	28.459	0.300	-0.258
-708.645	393.587	0.042	-0.090
-707.631	-163.200	-0.094	0.005
-706.616	-80.168	-0.142	-0.049
-705.602	-107.630	0.232	-0.052
-704.587	-200.000	-0.043	-0.269
-703.572	800.000	-0.102	-0.379
-702.558	-87.601	-0.374	-0.115
-701.543	-128.391	0.098	-0.014
-700.529	-200.000	-0.038	0.240
-699.514	-200.000	0.043	-0.230
-698.499	-200.000	0.034	-0.235
-697.485	160.053	-0.106	-0.151
-696.470	69.070	-0.128	-0.134
-695.456	450.763	-0.051	-0.114
-694.441	106.648	0.255	-0.308
-693.426	-122.938	0.088	-0.015
-692.412	789.018	-0.044	0.123
-691.397	800.000	0.113	-0.357
-690.383	85.948	-0.107	-0.119
-689.368	244.392	0.088	0.150
-688.354	-78.380	0.328	-0.115
-687.339	-200.000	0.012	-0.169
-686.324	-22.309	0.158	-0.098
-685.310	1.746	0.208	-0.153
-684.295	800.000	0.074	-0.300
-683.281	63.104	-0.116	-0.119
-682.266	87.414	0.059	0.067
-681.251	-11.084	-0.169	-0.113
-680.237	52.739	-0.218	-0.212
-679.222	-20.098	0.199	-0.125
-678.208	-36.467	0.116	-0.064
-677.193	148.006	-0.095	0.130
-676.178	-200.000	0.083	-0.415
-675.164	-2.431	-0.107	-0.076
-674.149	-130.151	0.213	-0.030
-673.135	167.986	-0.057	0.082
-672.120	-68.603	-0.268	-0.106
-671.105	-99.208	0.189	0.049
-670.091	800.000	-0.040	-0.170
-669.076	796.596	-0.049	-0.138
-668.062	-18.914	-0.162	0.102
-667.047	61.540	-0.198	-0.200
-666.032	-200.000	0.006	-0.328
-665.018	-70.844	-0.191	0.073
-664.003	123.510	-0.281	-0.359
-662.989	-53.201	-0.094	0.044
-661.974	299.871	-0.241	-0.452
-660.959	-96.647	-0.126	-0.034
-659.945	-200.000	-0.004	-0.111
-658.930	-200.000	0.050	-0.361
-657.916	-4.282	-0.292	-0.205
-656.901	-21.840	0.173	0.107
-655.886	-61.580	-0.337	-0.144
-654.872	236.037	0.042	-0.071
-653.857	59.836	-0.228	-0.229
-652.843	-107.255	-0.026	0.006
-651.828	-53.485	0.244	0.113
-650.814	22.818	0.136	0.113
-649.799	363.779	-0.040	0.081
-648.784	572.727	0.131	0.326
-647.770	33.509	-0.166	-0.146
-646.755	-109.543	0.160	0.034
-645.741	10.367	-0.245	-0.190
-644.726	-27.216	-0.105	-0.062
-643.711	-100.771	0.172	-0.043
-642.697	155.680	0.138	-0.193
-641.682	312.074	0.195	-0.372
-640.668	-200.000	-0.006	-0.206
-639.653	387.406	-0.072	-0.151
-638.638	27.597	0.142	0.121
-637.624	83.662	0.068	-0.076
-636.609	69.346	-0.193	0.202
-635.595	-86.656	-0.153	0.047
-634.580	-76.179	0.108	0.039
-633.565	338.518	0.087	-0.172
-632.551	-200.000	-0.005	0.163
-631.536	-46.166	0.190	0.095
-630.522	53.589	-0.149	0.146
-629.507	23.543	-0.218	-0.183
-628.492	-61.966	0.374	-0.159
-627.478	800.000	0.025	0.086
-626.463	347.273	-0.050	0.100
-625.449	-40.326	0.151	-0.080
-624.434	-54.723	0.207	0.095
-623.419	305.716	-0.074	0.139
-622.405	-97.368	-0.262	-0.069
-621.390	-33.262	0.164	-0.092
-620.376	800.000	-0.052	-0.172
-619.361	-200.000	0.016	-0.119
-618.346	800.000	-0.047	-0.202
-617.332	-144.778	-0.125	-0.012
-616.317	213.824	-0.078	0.125
-615.303	3.804	0.236	0.175
-614.288	10.306	-0.286	-0.221
-613.273	-64.418	-0.032	0.013
-612.259	-27.076	0.178	0.105
-611.244	-40.399	-0.205	0.108
-610.230	-200.000	0.002	0.024
-609.215	243.044	-0.160	0.272
-608.201	-155.196	0.282	0.019
-607.186	-127.929	0.293	0.043
-606.171	253.341	-0.126	-0.218
-605.157	213.566	-0.042	0.068
-604.142	800.000	-0.059	0.193
-603.128	24.457	0.111	-0.093
-602.113	800.000	-0.054	-0.159
-601.098	-105.071	-0.190	0.044
-600.084	-200.000	0.028	-0.128
-599.069	-21.482	-0.192	-0.119
-598.055	-3.645	0.120	0.085
-597.040	-57.374	0.103	-0.046
-596.025	-95.415	0.131	-0.036
-595.011	482.810	-0.041	0.094
-593.996	492.139	0.058	-0.134
-592.982	-200.000	0.059	0.425
-591.967	-77.043	-0.075	-0.027
-590.952	94.247	-0.122	-0.140
-589.938	-100.218	-0.158	0.040
-588.923	133.848	-0.177	0.233
-587.909	-200.000	-0.035	0.209
-586.894	187.176	0.237	-0.359
-585.879	22.126	-0.084	0.070
-584.865	-200.000	-0.047	0.246
-583.850	800.000	-0.101	-0.360
-582.836	800.000	0.132	-0.376
-581.821	-129.832	0.173	-0.024
-580.806	800.000	0.031	-0.112
-579.792	-36.546	0.170	0.093
-578.777	17.168	0.102	0.082
-577.763	800.000	0.125	-0.416
-576.748	505.054	0.090	-0.212
-575.733	189.485	-0.043	0.065
-574.719	-65.106	-0.453	0.186
-573.704	-200.000	-0.028	0.160
-572.690	-88.467	0.101	0.030
-571.675	17.403	0.163	-0.132
-570.661	265.435	0.099	-0.176
-569.646	-91.942	-0.281	0.081
-568.631	800.000	-0.136	-0.466
-567.617	-200.000	-0.006	-0.223
-566.602	-92.393	0.133	-0.038
-565.588	2.720	-0.228	-0.168
-564.573	-200.000	-0.040	-0.302
-563.558	-200.000	-0.012	-0.488
-562.544	200.685	0.072	-0.112
-561.529	800.000	0.021	0.076
-560.515	-200.000	-0.030	-0.391
-559.500	-110.309	-0.528	0.111
-558.485	-200.000	0.003	-0.157
-557.471	717.493	0.109	0.293
-556.456	23.533	-0.225	0.188
-555.442	-131.360	-0.277	-0.037
-554.427	104.493	-0.157	0.187
-553.412	-108.195	0.333	0.073
-552.398	-106.994	-0.385	-0.086
-551.383	85.603	0.332	-0.370
-550.369	505.228	-0.020	0.047
-549.354	-70.682	0.271	0.104
-548.339	-96.574	-0.217	-0.058
-547.325	-183.290	0.300	-0.005
-546.310	169.852	0.114	0.166
-545.296	261.672	-0.101	0.177
-544.281	-70.581	-0.042	0.016
-543.266	-86.325	-0.273	-0.085
-542.252	186.153	-0.167	-0.251
-541.237	-200.000	-0.038	0.252
-540.223	-46.280	0.270	0.135
-539.208	800.000	-0.060	-0.252
-538.193	-25.284	0.157	-0.094
-537.179	369.152	-0.121	0.248
-536.164	82.641	0.244	0.268
-535.150	-70.641	0.183	-0.070
-534.135	-200.000	-0.004	0.281
-533.121	-98.094	0.266	0.069
-532.106	-66.996	-0.286	0.114
-531.091	-46.367	-0.106	0.053
-530.077	42.312	-0.026	-0.024
-529.062	-125.897	0.186	-0.028
-528.048	-75.422	0.230	0.083
-527.033	-90.522	0.217	-0.064
-526.018	800.000	-0.053	-0.198
-525.004	-91.086	-0.412	0.120
-523.989	800.000	-0.135	0.459
-522.975	15.862	0.131	-0.104
-521.960	-60.612	-0.135	-0.058
-520.945	56.448	0.160	0.158
-519.931	-106.223	-0.184	0.042
-518.916	-169.885	-0.119	0.004
-517.902	325.505	-0.244	-0.473
-516.887	-85.289	-0.426	-0.135
-515.872	-36.638	-0.257	0.140
-514.858	528.022	0.044	0.106
-513.843	-200.000	0.038	-0.176
-512.829	-96.681	-0.144	-0.038
-511.814	-4.425	-0.143	-0.100
-510.799	-72.644	0.101	-0.038
-509.785	123.093	-0.067	0.085
-508.770	800.000	0.071	0.253
-507.756	-76.444	-0.232	0.083
-506.741	-92.032	-0.158	0.045
-505.726	800.000	0.017	0.069
-504.712	-85.180	0.476	-0.151
-503.697	-200.000	0.003	0.251
-502.683	-76.036	-0.079	-0.028
-501.668	129.631	0.084	-0.108
-500.653	-107.827	0.118	-0.026
-499.639	800.000	-0.068	-0.215
-498.624	-62.852	0.368	-0.154
-497.610	127.671	0.071	-0.091
-496.595	495.624	-0.057	-0.133
-495.581	229.604	0.090	-0.149
-494.566	-147.679	0.056	-0.005
-493.551	-66.904	-0.373	0.149
-492.537	173.499	-0.060	-0.088
-491.522	375.965	-0.164	-0.339
-490.508	305.377	-0.188	-0.354
-489.493	-73.532	-0.091	0.034
-488.478	108.501	-0.107	-0.130
-487.464	-77.915	0.342	-0.119
-486.449	207.971	0.143	-0.225
-485.435	368.782	0.121	0.248
-484.420	519.170	-0.126	0.299
-483.405	81.755	-0.055	0.060
-482.391	-200.000	-0.004	-0.345
-481.376	327.958	0.074	-0.144
-480.362	-9.860	0.143	0.096
-479.347	179.692	0.133	0.197
-478.332	505.044	-0.056	-0.131
-477.318	20.649	-0.045	0.037
-476.303	-200.000	-0.006	0.202
-475.289	161.124	0.132	-0.187
-474.274	-144.186	-0.240	-0.023
-473.259	-105.332	0.338	0.078
-472.245	-120.503	0.173	-0.030
-471.230	-200.000	-0.044	0.209
-470.216	14.776	-0.085	-0.067
-469.201	-51.731	-0.023	0.011
-468.186	-111.744	0.185	0.038
-467.172	-43.278	-0.327	0.167
-466.157	-83.296	0.053	0.017
-465.143	-51.740	-0.293	0.138
-464.128	-77.291	0.051	-0.018
-463.113	52.255	-0.194	0.187
-462.099	-70.091	0.067	0.026
-461.084	174.530	0.114	-0.167
-460.070	-200.000	-0.003	0.023
-459.055	-146.941	-0.108	0.009
-458.040	528.033	-0.107	-0.256
-457.026	-107.688	0.129	-0.028
-456.011	-141.540	-0.287	0.029
-454.997	-78.791	-0.249	-0.086
-453.982	-80.480	-0.332	-0.112
-452.968	-49.027	0.369	-0.178
-451.953	-178.270	0.312	-0.007
-450.938	519.159	-0.131	0.310
-449.924	27.222	0.266	-0.226
-448.909	373.957	-0.082	0.169
-447.895	83.921	0.057	0.062
-446.880	170.416	-0.056	-0.080
-445.865	-50.261	-0.141	-0.067
-444.851	36.616	-0.099	-0.088
-443.836	2.558	-0.008	0.006
-442.822	-15.070	0.024	-0.015
-441.807	-26.623	-0.259	0.153
-440.792	-52.823	0.358	-0.166
-439.778	297.471	-0.100	0.186
-438.763	194.453	0.217	0.332
-437.749	-200.000	-0.013	0.263
-436.734	-200.000	0.021	0.163
-435.719	-108.350	-0.268	-0.058
-434.705	-98.875	-0.245	-0.063
-433.690	-163.248	0.214	-0.010
-432.676	-68.456	0.256	-0.100
-431.661	800.000	-0.033	-0.130
-430.646	120.807	0.161	0.202
-429.632	311.274	0.117	0.221
-428.617	800.000	0.021	0.085
-427.603	-200.000	-0.044	-0.647
-426.588	-67.912	0.232	-0.091
-425.573	98.098	-0.054	-0.063
-424.559	-139.383	-0.248	0.027
-423.544	-156.566	-0.325	0.020
-422.530	-9.634	0.246	0.165
-421.515	-200.000	0.028	0.134
-420.500	-200.000	-0.019	-0.187
-419.486	153.485	0.035	-0.049
-418.471	-125.053	0.089	0.014
-417.457	93.678	-0.117	0.134
-416.442	-41.850	0.284	-0.147
-415.428	-9.427	-0.093	0.063
-414.413	150.185	-0.201	-0.275
-413.398	-200.000	-0.013	0.291
-412.384	-132.216	-0.158	0.021
-411.369	186.592	0.013	-0.019
-410.355	800.000	0.058	-0.202
-409.340	-138.419	0.225	0.025
-408.325	116.590	-0.073	-0.090
-407.311	-114.548	-0.140	-0.027
-406.296	-85.042	0.192	-0.061
-405.282	-25.441	-0.045	0.027
-404.267	800.000	-0.077	0.272
-403.252	63.656	0.075	0.076
-402.238	-200.000	-0.048	0.296
-401.223	-200.000	-0.045	-0.387
-400.209	-200.000	0.024	0.400
-399.194	-3.948	-0.240	-0.168
-398.179	201.040	0.146	0.226
-397.165	202.118	0.083	-0.129
-396.150	489.882	0.056	-0.128
-395.136	-200.000	-0.043	0.195
-394.121	-200.000	0.008	0.301
-393.106	84.055	-0.168	0.185
-392.092	-200.000	-0.080	-0.364
-391.077	800.000	-0.023	-0.083
-390.063	104.356	-0.130	-0.154
-389.048	675.460	0.161	-0.422
-388.033	272.058	-0.121	-0.216
-387.019	-139.477	0.363	0.039
-386.004	800.000	-0.081	-0.248
-384.990	-167.438	0.521	-0.021
-383.975	-200.000	0.034	-0.200
-382.960	-121.003	-0.317	-0.054
-381.946	88.867	0.130	-0.146
-380.931	-0.072	-0.179	-0.128
-379.917	-22.161	-0.142	-0.087
-378.902	253.321	0.038	-0.065
-377.888	33.743	-0.209	0.183
-376.873	800.000	-0.034	-0.130
-375.858	-93.112	-0.254	0.071
-374.844	-200.000	-0.006	-0.056
-373.829	41.121	-0.113	-0.102
-372.815	-200.000	0.032	0.141
-371.800	-198.160	0.209	0.001
-370.785	516.473	0.043	-0.101
-369.771	800.000	-0.021	-0.074
-368.756	3.595	0.210	-0.154
-367.742	-200.000	0.006	0.068
-366.727	-46.899	-0.137	-0.067
-365.712	-159.578	-0.468	0.026
-364.698	-200.000	-0.013	0.144
-363.683	57.366	0.215	-0.211
-362.669	800.000	-0.086	0.286
-361.654	537.371	0.070	-0.166
-360.639	-200.000	0.012	-0.228
-359.625	143.001	-0.088	-0.118
-358.610	189.119	0.178	0.269
-357.596	-55.795	0.162	0.073
-356.581	-71.721	0.249	0.094
-355.566	-96.016	0.494	0.132
-354.552	800.000	0.114	0.394
-353.537	583.679	-0.061	0.151
-352.523	-168.199	-0.163	-0.006
-351.508	800.000	-0.044	-0.158
-350.493	-141.898	-0.354	0.036
-349.479	-51.443	0.123	0.058
-348.464	116.742	-0.210	0.259
-347.450	-200.000	0.014	0.133
-346.435	-200.000	0.031	-0.141
-345.420	267.950	-0.134	-0.236
-344.406	-111.361	-0.295	-0.060
-343.391	-86.729	-0.256	0.079
-342.377	-166.091	-0.072	-0.003
-341.362	800.000	-0.072	-0.235
-340.348	800.000	-0.042	0.159
-339.333	-75.080	0.046	-0.017
-338.318	424.804	-0.112	0.243
-337.304	-137.572	-0.140	-0.016
-336.289	-200.000	0.097	-0.000
-335.275	-81.425	-0.093	-0.031
-334.260	-114.810	-0.059	-0.011
-333.245	-48.380	0.182	-0.088
-332.231	188.295	-0.116	-0.174
-331.216	-159.626	-0.283	0.016
-330.202	-10.067	-0.145	0.097
-329.187	57.413	0.053	-0.052
-328.172	-200.000	-0.043	-0.242
-327.158	5.559	-0.042	-0.031
-326.143	-164.222	0.260	0.012
-325.129	-200.000	-0.004	-0.038
-324.114	800.000	-0.040	0.147
-323.099	-200.000	-0.011	0.187
-322.085	-23.123	0.093	0.057
-321.070	-69.998	-0.028	0.011
-320.056	-200.000	0.004	0.231
-319.041	-82.034	0.311	0.102
-318.026	26.168	0.153	0.129
-317.012	-44.086	0.265	0.134
-315.997	800.000	0.068	-0.298
-314.983	33.257	0.218	-0.190
-313.968	-200.000	0.007	0.176
-312.953	-200.000	-0.076	0.400
-311.939	29.745	-0.008	-0.007
-310.924	124.575	0.109	0.138
-309.910	-200.000	-0.018	-0.226
-308.895	638.514	0.089	0.226
-307.880	-200.000	0.006	-0.297
-306.866	9.113	0.214	-0.163
-305.851	800.000	-0.074	0.210
-304.837	347.116	0.032	-0.063
-303.822	87.358	-0.230	0.256
-302.807	-125.692	-0.129	-0.020
-301.793	-200.000	0.024	0.558
-300.778	-9.796	-0.029	-0.019
-299.764	-200.000	0.001	0.253
-298.749	0.330	0.133	0.096
-297.735	426.053	-0.095	0.205
-296.720	800.000	-0.034	0.103
-295.705	-22.133	-0.107	0.065
-294.691	138.179	0.153	-0.201
-293.676	-200.000	-0.000	0.471
-292.662	283.904	-0.165	0.298
-291.647	71.468	0.078	0.082
-290.632	449.460	-0.173	0.382
-289.618	207.415	-0.168	0.263
-288.603	99.118	0.235	0.272
-287.589	-200.000	-0.021	0.310
-286.574	-36.333	0.259	-0.140
-285.559	-42.164	0.107	-0.055
-284.545	800.000	-0.070	0.223
-283.530	-200.000	0.011	0.176
-282.516	800.000	0.040	0.151
-281.501	800.000	-0.072	-0.309
-280.486	-73.988	-0.175	-0.064
-279.472	-143.417	0.376	-0.036
-278.457	404.831	-0.096	0.202
-277.443	-82.253	-0.372	0.121
-276.428	206.873	0.122	-0.191
-275.413	-200.000	0.016	0.087
-274.399	-50.037	-0.230	0.109
-273.384	800.000	0.073	-0.213
-272.370	-91.493	0.391	0.112
-271.355	-48.957	-0.154	-0.074
-270.340	-122.945	0.104	-0.017
-269.326	184.121	0.109	-0.162
-268.311	177.109	-0.062	0.090
-267.297	800.000	0.098	-0.300
-266.282	-49.529	0.291	0.139
-265.267	-105.628	0.156	0.035
-264.253	-129.897	-0.223	-0.031
-263.238	-19.112	-0.398	0.248
-262.224	-56.944	0.302	-0.134
-261.209	-138.741	-0.149	-0.016
-260.195	470.011	-0.038	0.086
-259.180	-182.715	0.066	0.001
-258.165	0.576	0.229	-0.164
-257.151	800.000	0.077	0.221
-256.136	-200.000	0.019	0.196
-255.122	-85.406	-0.184	-0.057
-254.107	-200.000	0.001	-0.108
-253.092	-200.000	-0.018	-0.156
-252.078	505.559	-0.172	-0.400
-251.063	-163.691	-0.317	-0.015
-250.049	-142.646	-0.047	0.005
-249.034	-16.419	0.121	0.077
-248.019	-22.602	0.071	-0.043
-247.005	-29.645	0.120	-0.069
-245.990	90.683	0.024	0.027
-244.976	-94.531	0.159	0.043
-243.961	97.348	-0.117	0.134
-242.946	-113.039	-0.284	0.056
-241.932	90.451	-0.353	0.396
-240.917	-124.912	0.137	0.021
-239.903	142.755	0.113	0.151
-238.888	3.600	0.185	0.135
-237.873	-136.831	0.239	0.027
-236.859	15.618	0.106	-0.083
-235.844	-200.000	-0.001	-0.190
-234.830	240.056	0.113	-0.188
-233.815	-115.906	0.133	-0.025
-232.800	-34.528	-0.342	-0.187
-231.786	-120.946	-0.409	0.069
-230.771	-33.420	0.228	0.126
-229.757	800.000	0.046	-0.137
-228.742	74.705	0.140	0.147
-227.727	-104.969	0.380	0.087
-226.713	-129.860	-0.127	-0.017
-225.698	-63.574	-0.174	-0.071
-224.684	-7.442	0.296	0.200
-223.669	-200.000	-0.001	-0.302
-222.655	800.000	0.057	-0.162
-221.640	771.102	-0.065	0.176
-220.625	-39.596	0.258	-0.135
-219.611	-72.293	-0.257	-0.095
-218.596	-59.835	0.197	-0.085
-217.582	-96.132	0.130	0.034
-216.567	800.000	-0.089	-0.312
-215.552	-55.908	-0.145	0.065
-214.538	-96.579	-0.169	-0.044
-213.523	800.000	0.054	-0.189
-212.509	-45.510	-0.197	-0.098
-211.494	-200.000	-0.037	-0.321
-210.479	82.097	0.219	0.237
-209.465	800.000	0.070	0.226
-208.450	657.027	-0.188	0.482
-207.436	384.838	0.094	0.193
-206.421	629.210	0.119	-0.301
-205.406	143.951	-0.116	-0.154
-204.392	800.000	0.051	-0.163
-203.377	-200.000	-0.033	-0.232
-202.363	-200.000	0.000	-0.096
-201.348	-200.000	-0.007	-0.162
-200.333	800.000	-0.054	-0.163
-199.319	216.803	-0.085	0.135
-198.304	-61.993	0.094	0.039
-197.290	-4.684	0.433	0.298
-196.275	-125.808	-0.250	0.038
-195.260	-82.722	-0.262	0.085
-194.246	-2.270	-0.168	0.117
-193.231	134.910	0.057	0.074
-192.217	-37.264	0.191	0.102
-191.202	-200.000	0.039	-0.215
-190.187	800.000	0.079	0.305
-189.173	-80.949	0.280	-0.093
-188.158	257.198	0.119	-0.204
-187.144	761.365	-0.054	0.146
-186.129	9.784	-0.038	-0.029
-185.114	212.737	0.187	0.296
-184.100	-200.000	-0.000	0.438
-183.085	33.562	0.172	0.149
-182.071	67.273	0.084	-0.085
-181.056	13.877	-0.132	0.102
-180.042	55.612	0.069	0.066
-179.027	90.077	0.078	0.087
-178.012	800.000	0.026	-0.109
-176.998	271.400	-0.164	0.288
-175.983	439.170	-0.064	-0.140
-174.969	-9.629	0.282	-0.188
-173.954	9.310	-0.256	-0.193
-172.939	54.442	-0.165	0.159
-171.925	-71.695	-0.157	0.058
-170.910	141.778	-0.060	-0.079
-169.896	379.443	-0.130	0.265
-168.881	-159.710	-0.352	-0.019
-167.866	-99.117	0.550	-0.139
-166.852	800.000	-0.028	-0.119
-165.837	-200.000	0.032	0.282
-164.823	233.811	0.186	0.306
-163.808	-200.000	-0.002	-0.259
-162.793	800.000	0.119	-0.424
-161.779	-148.168	0.279	0.023
-160.764	-112.931	0.195	-0.039
-159.750	-200.000	0.060	-0.317
-158.735	-200.000	-0.013	-0.278
-157.720	23.681	0.147	0.121
-156.706	-200.000	0.026	-0.136
-155.691	59.915	-0.236	-0.232
-154.677	13.250	0.229	0.177
-153.662	-95.765	0.050	0.013
-152.647	-119.539	-0.196	0.034
-151.633	-200.000	-0.037	0.190
-150.618	-200.000	-0.006	0.030
-149.604	-53.800	0.377	0.171
-148.589	45.675	0.110	0.102
-147.574	-200.000	0.018	-0.193
-146.560	-139.416	0.042	0.004
-145.545	-94.810	0.266	-0.072
-144.531	34.017	0.115	-0.100
-143.516	294.301	0.134	0.244
-142.502	-35.274	-0.121	-0.066
-141.487	-200.000	0.046	0.208
-140.472	-4.375	0.374	0.258
-139.458	-113.371	0.372	0.073
-138.443	-106.265	-0.350	-0.078
-137.429	169.253	-0.180	0.256
-136.414	-159.273	-0.436	-0.024
-135.399	114.893	0.070	-0.085
-134.385	-40.231	-0.395	0.205
-133.370	404.756	-0.049	-0.102
-132.356	-74.498	0.465	-0.167
-131.341	-124.907	0.347	0.053
-130.326	-89.291	0.102	0.030
-129.312	646.379	0.049	-0.125
-128.297	163.950	-0.129	0.180
-127.283	800.000	-0.007	0.023
-126.268	431.164	0.206	0.444
-125.253	-91.594	0.112	-0.032
-124.239	-191.159	-0.097	-0.001
-123.224	-200.000	0.006	0.088
-122.210	11.898	0.156	-0.120
-121.195	28.051	0.114	0.096
-120.180	-55.169	0.279	-0.125
-119.166	-87.780	-0.107	0.032
-118.151	-92.992	-0.247	-0.069
-117.137	-43.785	0.089	0.045
-116.122	-47.678	-0.086	-0.041
-115.107	154.459	-0.093	0.128
-114.093	800.000	-0.064	0.261
-113.078	-200.000	0.040	-0.200
-112.064	-200.000	-0.056	-0.314
-111.049	-67.855	-0.222	-0.086
-110.034	-154.701	-0.097	0.006
-109.020	800.000	-0.058	-0.192
-108.005	102.768	-0.129	0.151
-106.991	-130.223	0.325	0.044
-105.976	-200.000	0.037	0.314
-104.962	-200.000	-0.022	-0.113
-103.947	-123.137	0.249	-0.040
-102.932	-116.033	0.220	-0.041
-101.918	318.516	-0.099	0.186
-100.903	-151.655	0.082	-0.006
-99.889	-118.772	0.136	0.024
-98.874	-200.000	-0.010	-0.065
-97.859	800.000	0.081	0.333
-96.845	156.972	0.026	-0.036
-95.830	-56.661	-0.123	-0.054
-94.816	-23.400	-0.082	-0.049
-93.801	124.429	0.177	-0.221
-92.786	-14.604	-0.181	-0.116
-91.772	800.000	-0.053	-0.193
-90.757	488.116	0.054	-0.122
-89.743	-150.100	0.078	-0.006
-88.728	21.181	0.078	0.063
-87.713	800.000	-0.092	0.373
-86.699	-4.968	-0.024	-0.016
-85.684	-200.000	0.058	-0.342
-84.670	331.377	0.092	-0.177
-83.655	-119.819	0.096	0.017
-82.640	800.000	-0.034	0.106
-81.626	-200.000	0.005	-0.048
-80.611	17.752	0.276	0.218
-79.597	-174.693	-0.133	0.004
-78.582	-54.551	0.066	0.030
-77.567	152.020	0.041	0.055
-76.553	-130.313	-0.136	-0.018
-75.538	-38.551	0.216	-0.114
-74.524	550.870	-0.094	0.225
-73.509	800.000	-0.086	0.250
-72.494	-200.000	-0.022	-0.160
-71.480	345.391	0.042	-0.082
-70.465	146.878	0.111	0.148
-69.451	585.529	0.118	0.288
-68.436	-69.604	0.217	0.082
-67.422	800.000	-0.064	0.199
-66.407	-38.059	0.113	-0.060
-65.392	-85.762	0.497	-0.153
-64.378	-200.000	-0.034	0.237
-63.363	-38.473	0.210	0.111
-62.349	-23.659	0.280	-0.167
-61.334	85.154	-0.801	-0.873
-60.319	687.036	0.185	0.480
-59.305	-200.000	-0.145	-0.663
-58.290	157.966	0.602	0.830
-57.276	800.000	0.570	1.758
-56.261	-200.000	76.392	488.919
-55.246	573.677	1356.499	3288.112
-54.232	178.483	2610.808	3789.673
-53.217	117.616	2373.535	2903.214
-52.203	48.940	1983.958	1851.013
-51.188	42.960	1770.748	1604.572
-50.173	40.031	1724.980	1540.257
-49.159	54.180	1759.288	1682.185
-48.144	59.240	1777.256	1738.964
-47.130	42.738	1742.462	1576.945
-46.115	39.798	1727.959	1540.851
-45.100	39.574	1724.044	1535.556
-44.086	39.494	1721.470	1532.579
-43.071	39.455	1719.368	1530.342
-42.057	39.398	1716.771	1527.530
-41.042	39.495	1713.927	1525.691
-40.027	39.471	1712.387	1524.076
-39.013	39.512	1709.918	1522.131
-37.998	39.460	1709.113	1520.954
-36.984	39.511	1708.007	1520.302
-35.969	39.732	1705.608	1519.810
-34.954	39.664	1704.238	1518.005
-33.940	39.744	1701.742	1516.336
-32.925	39.673	1700.448	1514.582
-31.911	39.632	1699.291	1513.177
-30.896	39.640	1697.278	1511.385
-29.881	39.598	1695.467	1509.385
-28.867	39.670	1693.695	1508.301
-27.852	39.617	1692.779	1507.019
-26.838	39.688	1690.322	1505.319
-25.823	39.716	1689.284	1504.543
-24.809	39.680	1688.324	1503.356
-23.794	39.654	1686.831	1501.771
-22.779	39.658	1685.242	1500.326
-21.765	39.681	1683.430	1498.828
-20.750	39.603	1682.160	1497.047
-19.736	39.654	1680.473	1495.871
-18.721	39.742	1678.557	1494.772
-17.706	39.685	1677.060	1492.946
-16.692	39.654	1675.791	1491.525
-15.677	39.611	1674.352	1489.857
-14.663	39.714	1672.602	1489.019
-13.648	39.708	1670.831	1487.342
-12.633	39.572	1669.841	1485.376
-11.619	39.611	1668.072	1484.041
-10.604	39.600	1666.574	1482.563
-9.590	39.692	1664.846	1481.657
-8.575	39.720	1663.208	1480.351
-7.560	39.747	1662.229	1479.625
-6.546	39.625	1661.771	1478.244
-5.531	39.572	1660.662	1476.799
-4.517	39.560	1659.585	1475.691
-3.502	39.685	1657.685	1474.879
-2.487	39.744	1656.614	1474.306
-1.473	39.782	1645.219	1464.395
-0.458	37.658	1625.855	1431.502
0.556	32.406	1625.744	1399.411
1.571	29.838	1651.565	1402.078
2.586	28.935	1665.714	1407.057
3.600	24.996	1609.944	1330.635
4.615	13.121	1487.398	1147.240
5.629	2.285	1412.283	1017.407
6.644	0.328	1401.992	996.963
7.659	0.243	1400.958	995.581
8.673	0.124	1399.930	993.973
9.688	0.116	1397.533	992.129
10.702	-0.155	1395.005	988.470
11.717	3.687	1403.380	1019.715
12.731	14.897	1425.372	1110.420
13.746	22.785	1438.709	1173.375
14.761	23.599	1438.597	1178.585
15.775	23.628	1438.363	1178.487
16.790	23.647	1437.944	1178.162
17.804	23.659	1437.268	1177.583
18.819	23.721	1437.242	1177.867
19.834	24.000	1436.333	1178.871
20.848	23.949	1435.522	1177.764
21.863	23.849	1434.935	1176.516
22.877	23.852	1433.946	1175.621
23.892	23.867	1432.595	1174.507
24.907	23.953	1431.896	1174.394
25.921	23.958	1430.931	1173.533
26.936	23.849	1429.839	1171.820
27.950	23.899	1428.600	1171.028
28.965	23.920	1427.210	1169.923
29.980	23.822	1426.722	1168.776
30.994	24.024	1424.474	1168.159
32.009	23.904	1423.357	1166.347
33.023	23.856	1422.412	1165.158
34.038	23.944	1421.315	1164.734
35.053	23.921	1420.434	1163.754
36.067	23.784	1419.627	1162.098
37.082	23.924	1418.303	1161.824
38.096	23.898	1417.382	1160.794
39.111	23.966	1416.551	1160.456
40.126	23.909	1415.889	1159.440
41.140	23.893	1415.497	1158.910
42.155	23.954	1415.104	1158.888
43.169	23.966	1414.994	1158.772
44.184	23.916	1414.720	1158.119
45.199	23.859	1414.070	1157.114
46.213	23.842	1413.851	1156.718
47.228	23.924	1412.268	1155.853
48.242	23.900	1411.424	1154.908
49.257	23.920	1409.900	1153.691
50.271	23.924	1408.524	1152.483
51.286	23.839	1407.238	1150.782
52.301	23.860	1406.253	1150.012
53.315	23.910	1405.025	1149.228
54.330	23.859	1404.591	1148.442
55.344	23.900	1402.703	1147.061
56.359	23.881	1401.943	1146.213
57.374	23.869	1401.343	1145.547
58.388	23.843	1400.524	1144.608
59.403	23.854	1400.178	1144.291
60.417	23.801	1399.525	1143.319
61.432	23.878	1398.284	1142.700
62.447	23.873	1397.518	1141.941
63.461	23.937	1396.758	1141.626
64.476	23.924	1395.504	1140.421
65.490	23.812	1394.433	1138.727
66.505	23.921	1392.581	1137.807
67.520	23.960	1391.093	1136.740
68.534	23.996	1390.061	1136.028
69.549	23.856	1389.234	1134.358
70.563	23.929	1388.058	1133.765
71.578	23.948	1387.127	1133.021
72.593	23.954	1386.492	1132.445
73.607	23.996	1385.525	1131.821
74.622	23.912	1384.917	1130.685
75.636	23.896	1384.663	1130.277
76.651	23.919	1383.590	1129.448
77.666	23.911	1382.901	1128.737
78.680	23.931	1382.569	1128.490
79.695	23.973	1381.199	1127.538
80.709	23.893	1380.735	1126.556
81.724	23.949	1379.783	1126.034
82.739	23.912	1378.892	1124.973
83.753	23.867	1377.959	1123.829
84.768	23.827	1376.893	1122.603
85.782	23.942	1375.538	1122.127
86.797	23.889	1374.430	1120.787
87.812	23.883	1373.588	1119.969
88.826	23.968	1371.867	1119.000
89.841	23.877	1371.691	1118.181
90.855	23.946	1370.288	1117.372
91.870	23.938	1369.339	1116.450
92.884	23.971	1368.588	1115.948
93.899	23.863	1367.971	1114.668
94.914	24.010	1366.742	1114.488
95.928	24.012	1366.129	1113.907
96.943	23.996	1365.259	1112.997
97.957	24.045	1364.184	1112.323
98.972	23.954	1363.703	1111.266
99.987	24.016	1362.511	1110.582
101.001	23.942	1361.509	1109.211
102.016	23.785	1360.935	1107.667
103.030	23.935	1359.939	1107.688
104.045	23.993	1359.182	1107.335
105.060	23.941	1358.016	1105.967
106.074	23.930	1357.034	1104.998
107.089	23.955	1356.147	1104.332
108.103	23.909	1354.739	1102.804
109.118	24.043	1353.309	1102.373
110.133	23.995	1352.411	1101.246
111.147	24.104	1351.080	1100.737
112.162	24.159	1349.489	1099.684
113.176	24.090	1348.707	1098.525
114.191	23.969	1348.134	1097.218
115.206	24.047	1347.132	1096.783
116.220	24.040	1346.030	1095.746
117.235	24.155	1344.906	1095.441
118.249	24.018	1343.935	1093.709
119.264	24.080	1343.340	1093.514
120.279	24.058	1342.728	1092.783
121.293	24.078	1341.620	1091.906
122.308	24.110	1340.576	1091.155
123.322	24.110	1339.781	1090.413
124.337	24.130	1338.759	1089.609
125.352	24.115	1338.280	1089.027
126.366	24.053	1337.403	1087.839
127.381	24.048	1336.411	1086.903
128.395	24.037	1335.622	1086.103
129.410	24.045	1334.997	1085.545
130.424	24.160	1333.560	1084.980
131.439	24.155	1332.650	1084.116
132.454	24.112	1332.219	1083.408
133.468	24.061	1331.756	1082.623
134.483	24.144	1330.998	1082.418
135.497	24.074	1330.087	1081.156
136.512	24.068	1329.067	1080.195
137.527	24.144	1327.776	1079.511
138.541	24.048	1326.777	1078.021
139.556	24.090	1325.161	1076.863
140.570	24.066	1324.627	1076.193
141.585	24.142	1323.480	1075.625
142.600	24.156	1322.461	1074.783
143.614	24.069	1321.657	1073.510
144.629	24.052	1320.524	1072.393
145.643	24.103	1319.141	1071.484
146.658	23.985	1318.253	1069.955
147.673	24.042	1317.465	1069.564
148.687	24.038	1316.011	1068.263
149.702	23.987	1315.046	1067.082
150.716	24.053	1313.762	1066.343
151.731	24.065	1312.758	1065.505
152.746	23.982	1311.977	1064.282
153.760	24.097	1310.935	1064.024
154.775	24.036	1310.137	1062.922
155.789	23.979	1309.323	1061.827
156.804	24.015	1308.360	1061.169
157.819	24.067	1307.152	1060.401
158.833	24.057	1306.807	1059.970
159.848	24.115	1305.750	1059.360
160.862	24.115	1304.934	1058.606
161.877	24.055	1304.478	1057.786
162.892	24.055	1303.326	1056.757
163.906	24.169	1302.242	1056.463
164.921	24.133	1301.697	1055.716
165.935	24.087	1301.143	1054.900
166.950	24.119	1300.024	1054.085
167.964	24.172	1299.208	1053.647
168.979	24.203	1298.952	1053.526
169.994	24.122	1298.537	1052.618
171.008	24.213	1297.652	1052.346
172.023	24.204	1296.512	1051.278
173.037	24.212	1296.404	1051.141
174.052	24.147	1295.878	1050.238
175.067	24.245	1294.670	1049.744
176.081	24.207	1293.511	1048.486
177.096	24.192	1292.910	1047.820
178.110	24.208	1292.234	1047.272
179.125	24.267	1290.893	1046.439
180.140	24.291	1289.677	1045.501
181.154	24.295	1288.801	1044.724
182.169	24.158	1287.700	1042.938
183.183	24.132	1286.633	1041.832
184.198	24.122	1285.743	1040.957
185.213	24.224	1284.738	1040.645
186.227	24.170	1283.544	1039.275
187.242	24.216	1282.685	1038.756
188.256	24.203	1282.018	1038.044
189.271	24.300	1280.646	1037.411
190.286	24.325	1280.001	1036.940
191.300	24.290	1279.794	1036.473
192.315	24.155	1279.448	1035.317
193.329	24.187	1278.719	1034.826
194.344	24.344	1278.022	1035.077
195.359	24.217	1277.537	1033.858
196.373	24.221	1277.003	1033.360
197.388	24.240	1276.723	1033.148
198.402	24.114	1276.347	1032.023
199.417	24.221	1276.050	1032.310
200.432	24.215	1275.330	1031.602
201.446	24.303	1274.300	1031.187
202.461	24.240	1273.812	1030.336
203.475	24.306	1272.627	1029.667
204.490	24.263	1271.895	1028.738
205.504	24.319	1270.861	1028.132
206.519	24.460	1269.724	1027.934
207.534	24.292	1269.001	1026.292
208.548	24.415	1267.897	1026.014
209.563	24.258	1267.422	1024.639
210.577	24.286	1266.308	1023.807
211.592	24.309	1265.763	1023.411
212.607	24.389	1264.754	1022.962
213.621	24.365	1264.113	1022.215
214.636	24.279	1263.504	1021.136
215.650	24.448	1262.147	1020.918
216.665	24.383	1261.180	1019.674
217.680	24.383	1260.548	1019.070
218.694	24.468	1259.199	1018.378
219.709	24.417	1258.951	1017.793
220.723	24.416	1258.282	1017.160
221.738	24.436	1257.437	1016.497
222.753	24.395	1256.814	1015.672
223.767	24.412	1256.104	1015.105
224.782	24.539	1255.661	1015.378
225.796	24.418	1255.354	1014.355
226.811	24.528	1254.696	1014.355
227.826	24.469	1253.994	1013.366
228.840	24.465	1253.409	1012.779
229.855	24.434	1252.673	1011.919
230.869	24.518	1251.899	1011.678
231.884	24.480	1251.155	1010.775
232.899	24.431	1250.524	1009.900
233.913	24.496	1249.664	1009.482
234.928	24.559	1249.407	1009.544
235.942	24.549	1248.563	1008.712
236.957	24.528	1248.094	1008.129
237.972	24.595	1247.266	1007.748
238.986	24.551	1246.696	1006.947
240.001	24.639	1245.556	1006.437
241.015	24.588	1244.683	1005.355
242.030	24.622	1244.205	1005.070
243.045	24.744	1243.339	1004.968
244.059	24.637	1242.542	1003.634
245.074	24.714	1241.805	1003.379
246.088	24.639	1241.352	1002.503
247.103	24.676	1240.198	1001.690
248.117	24.629	1239.334	1000.640
249.132	24.728	1238.738	1000.625
250.147	24.646	1238.124	999.581
251.161	24.686	1237.547	999.255
252.176	24.658	1236.710	998.334
253.190	24.750	1236.312	998.433
254.205	24.721	1235.440	997.481
255.220	24.715	1235.209	997.172
256.234	24.723	1234.284	996.385
257.249	24.687	1233.485	995.448
258.263	24.713	1232.942	995.070
259.278	24.729	1232.524	994.732
260.293	24.833	1231.430	994.338
261.307	24.736	1231.291	993.601
262.322	24.882	1230.328	993.543
263.336	24.932	1229.731	993.253
264.351	24.822	1229.015	991.978
265.366	24.776	1228.125	990.918
266.380	24.755	1227.800	990.446
267.395	24.868	1227.292	990.579
268.409	24.740	1226.734	989.333
269.424	24.783	1226.471	989.271
270.439	24.784	1225.611	988.493
271.453	24.780	1225.232	988.080
272.468	24.811	1223.998	987.168
273.482	24.724	1223.788	986.431
274.497	24.815	1223.042	986.240
275.512	24.749	1222.588	985.425
276.526	24.834	1221.603	985.015
277.541	24.854	1220.531	984.171
278.555	24.843	1220.400	983.918
279.570	24.988	1219.205	983.662
280.585	24.876	1218.710	982.565
281.599	24.921	1217.526	981.765
282.614	24.915	1216.536	980.848
283.628	24.812	1216.385	980.078
284.643	25.014	1215.123	980.079
285.657	24.883	1214.217	978.544
286.672	24.916	1213.207	977.823
287.687	24.953	1212.438	977.319
288.701	25.065	1211.755	977.296
289.716	24.983	1211.340	976.428
290.730	24.966	1210.664	975.703
291.745	24.992	1209.810	975.069
292.760	25.040	1209.364	974.883
293.774	25.004	1208.602	973.988
294.789	25.029	1208.348	973.833
295.803	25.133	1207.465	973.601
296.818	25.053	1207.206	972.871
297.833	25.074	1206.014	971.939
298.847	25.095	1205.049	971.188
299.862	25.178	1204.369	971.004
300.876	25.054	1203.815	969.800
301.891	25.071	1203.682	969.699
302.906	25.187	1202.647	969.407
303.920	25.184	1202.508	969.193
304.935	25.188	1201.579	968.381
305.949	25.144	1200.694	967.341
306.964	25.289	1200.138	967.592
307.979	25.167	1199.636	966.441
308.993	25.320	1198.640	966.377
310.008	25.196	1198.161	965.241
311.022	25.172	1197.486	964.480
312.037	25.234	1196.486	963.925
313.052	25.138	1195.793	962.768
314.066	25.269	1194.702	962.503
315.081	25.276	1193.943	961.846
316.095	25.216	1193.764	961.296
317.110	25.190	1193.389	960.769
318.125	25.253	1192.207	960.068
319.139	25.267	1191.645	959.606
320.154	25.315	1190.823	959.115
321.168	25.260	1190.267	958.287
322.183	25.296	1189.671	957.914
323.197	25.291	1188.945	957.218
324.212	25.147	1188.788	956.243
325.227	25.283	1188.213	956.418
326.241	25.431	1187.217	956.322
327.256	25.404	1186.657	955.641
328.270	25.412	1185.893	954.984
329.285	25.357	1184.974	953.868
330.300	25.406	1184.289	953.495
331.314	25.337	1183.309	952.253
332.329	25.413	1182.472	951.897
333.343	25.525	1181.784	951.853
334.358	25.549	1180.628	950.964
335.373	25.509	1180.505	950.572
336.387	25.477	1179.362	949.394
337.402	25.506	1178.736	948.961
338.416	25.522	1178.280	948.596
339.431	25.558	1177.659	948.199
340.446	25.563	1176.856	947.498
341.460	25.544	1176.401	946.946
342.475	25.543	1175.633	946.236
343.489	25.581	1174.698	945.602
344.504	25.615	1173.603	944.816
345.519	25.577	1172.784	943.871
346.533	25.535	1172.343	943.213
347.548	25.551	1171.586	942.606
348.562	25.675	1170.405	942.221
349.577	25.571	1169.657	940.990
350.592	25.557	1169.353	940.589
351.606	25.638	1168.476	940.227
352.621	25.580	1167.959	939.424
353.635	25.707	1167.401	939.552
354.650	25.683	1166.655	938.744
355.665	25.669	1165.959	938.028
356.679	25.797	1165.320	938.102
357.694	25.772	1164.684	937.376
358.708	25.648	1163.741	935.886
359.723	25.711	1163.346	935.814
360.738	25.653	1162.747	934.950
361.752	25.788	1162.246	935.165
362.767	25.780	1161.728	934.620
363.781	25.823	1160.999	934.177
364.796	25.762	1160.707	933.543
365.810	25.715	1159.819	932.503
366.825	25.785	1159.173	932.263
367.840	25.948	1158.736	932.672
368.854	25.765	1158.022	931.071
369.869	25.860	1157.301	930.898
370.883	25.798	1156.485	929.840
371.898	25.790	1156.102	929.407
372.913	25.911	1155.389	929.374
373.927	25.935	1154.678	928.843
374.942	25.875	1154.236	928.096
375.956	25.802	1154.087	927.521
376.971	25.960	1153.008	927.384
377.986	25.910	1152.427	926.577
379.000	25.912	1152.233	926.352
380.015	26.035	1151.458	926.276
381.029	25.949	1150.602	925.063
382.044	26.046	1150.093	925.072
383.059	26.063	1149.277	924.418
384.073	26.030	1148.596	923.621
385.088	26.053	1147.605	922.860
386.102	26.030	1146.910	922.104
387.117	26.031	1145.693	921.048
388.132	26.103	1145.074	920.835
389.146	26.102	1144.822	920.544
390.161	26.157	1143.873	919.982
391.175	26.093	1142.932	918.818
392.190	26.202	1142.299	918.786
393.205	26.110	1142.043	918.027
394.219	26.108	1141.228	917.280
395.234	26.120	1140.402	916.595
396.248	26.183	1139.355	915.993
397.263	26.150	1138.621	915.158
398.278	26.241	1137.792	914.869
399.292	26.335	1136.886	914.538
400.307	26.285	1137.036	914.324
401.321	26.136	1136.194	912.812
402.336	26.140	1135.537	912.223
403.350	26.220	1134.784	911.939
404.365	26.222	1134.218	911.413
405.380	26.316	1133.298	911.069
406.394	26.346	1132.492	910.490
407.409	26.400	1131.799	910.126
408.423	26.382	1130.772	909.131
409.438	26.486	1130.100	909.033
410.453	26.401	1129.381	907.943
411.467	26.433	1128.673	907.458
412.482	26.365	1128.577	906.958
413.496	26.415	1127.590	906.334
414.511	26.433	1126.903	905.791
415.526	26.376	1126.353	904.987
416.540	26.396	1126.119	904.816
417.555	26.335	1125.549	903.972
418.569	26.426	1125.050	903.948
419.584	26.404	1124.497	903.313
420.599	26.437	1124.376	903.299
421.613	135.557	1393.339	1741.785
422.628	126.481	1432.524	1741.916
