DTS Sentinel unit serial number:	SN413079Multiplexer serial number:	ORYXHardware model number:	OX4-SRSoftware version number:	ORYX F/W v4.00 Oryx Data Collector v3.7.2.0data status	okinstallation	princeton_trtdifferential loss correction	single-endedforward channel	channel 2reverse channel	N/Adate	2019/09/12time	07:29:11forward acquisition time	60.00reverse acquisition time	0.00gamma	496.2192k internal	0.2323k external	0.2323temperature offset calibration	1.0062default loss term (dB/km)	0.3790temperature slope calibration	1.0000multiplexer offset coefficient	1.0000multiplexer slope coefficient	1.0000fibre end	0.00T internal ref (°C)	32.48T ext. ref 1 (°C)	1.62T ext. ref 2 (°C)	29.06length (m)	temperature (°C)	Stokes	anti-Stokes-747.200	24.227	-0.092	-0.077
-746.185	-46.140	0.075	0.037
-745.171	-28.892	0.249	-0.145
-744.156	99.997	0.058	-0.068
-743.142	-71.849	0.117	-0.044
-742.127	7.329	-0.208	0.157
-741.112	136.122	-0.198	-0.260
-740.098	-95.653	-0.242	0.065
-739.083	131.883	0.158	0.206
-738.069	-200.000	-0.002	-0.134
-737.054	263.962	0.082	0.145
-736.039	26.916	-0.175	-0.148
-735.025	-100.371	-0.052	0.013
-734.010	4.439	-0.102	-0.076
-732.996	-191.797	-0.314	0.003
-731.981	9.890	-0.253	0.194
-730.966	91.746	-0.117	-0.132
-729.952	77.893	-0.017	-0.018
-728.937	45.846	0.370	-0.345
-727.923	73.505	-0.071	0.075
-726.908	117.903	0.102	0.127
-725.894	-62.247	-0.224	-0.094
-724.879	123.652	-0.139	-0.176
-723.864	-67.622	0.135	-0.053
-722.850	80.249	-0.071	0.078
-721.835	-200.000	0.001	-0.181
-720.821	31.793	0.044	0.038
-719.806	205.136	0.092	0.144
-718.791	274.530	-0.254	-0.453
-717.777	-140.330	-0.154	-0.016
-716.762	-3.322	0.066	-0.047
-715.748	-200.000	0.014	-0.451
-714.733	800.000	-0.049	-0.203
-713.718	-86.960	0.132	-0.041
-712.704	-134.966	0.285	-0.035
-711.689	307.145	-0.170	-0.320
-710.675	-74.947	-0.472	-0.171
-709.660	-117.019	0.252	0.046
-708.645	-67.171	-0.317	-0.126
-707.631	-200.000	0.045	-0.252
-706.616	186.533	0.137	-0.206
-705.602	-200.000	-0.045	-0.225
-704.587	85.522	0.282	-0.313
-703.572	-22.348	-0.310	-0.189
-702.558	-200.000	-0.022	0.111
-701.543	-103.824	0.314	-0.074
-700.529	-123.661	-0.240	-0.038
-699.514	-65.905	0.183	0.074
-698.499	-43.963	0.139	-0.070
-697.485	667.620	0.154	0.401
-696.470	-200.000	0.001	-0.008
-695.456	800.000	0.033	-0.140
-694.441	-81.724	0.252	0.083
-693.426	-108.312	-0.383	-0.083
-692.412	58.825	0.160	-0.158
-691.397	-200.000	-0.023	-0.165
-690.383	800.000	-0.010	-0.030
-689.368	163.267	0.050	-0.071
-688.354	72.630	0.141	-0.148
-687.339	356.338	0.194	-0.389
-686.324	-39.934	0.240	-0.126
-685.310	197.882	0.243	0.374
-684.295	-33.207	-0.291	-0.162
-683.281	-71.317	-0.318	-0.120
-682.266	800.000	0.044	-0.133
-681.251	-200.000	-0.025	-0.219
-680.237	542.204	-0.036	-0.086
-679.222	-99.602	0.381	-0.096
-678.208	800.000	-0.097	-0.354
-677.193	-200.000	0.012	-0.056
-676.178	-200.000	0.007	-0.171
-675.164	800.000	0.040	-0.120
-674.149	311.618	0.131	-0.248
-673.135	800.000	-0.031	-0.121
-672.120	-200.000	-0.038	0.182
-671.105	168.426	0.021	-0.031
-670.091	341.029	0.171	0.337
-669.076	64.305	-0.135	-0.137
-668.062	151.857	-0.064	-0.088
-667.047	-68.674	-0.081	-0.031
-666.032	190.055	-0.158	-0.238
-665.018	800.000	-0.102	0.313
-664.003	800.000	-0.036	0.150
-662.989	-106.434	0.162	0.036
-661.974	-152.016	-0.164	0.012
-660.959	22.604	0.205	-0.169
-659.945	140.336	-0.155	-0.205
-658.930	-72.817	0.093	-0.035
-657.916	461.999	-0.044	0.098
-656.901	18.518	-0.085	0.069
-655.886	-200.000	-0.044	0.234
-654.872	-38.411	0.244	-0.130
-653.857	76.095	0.052	-0.055
-652.843	122.001	0.197	-0.248
-651.828	122.167	0.123	-0.154
-650.814	177.835	-0.034	-0.051
-649.799	-22.831	-0.078	0.047
-648.784	-200.000	-0.037	-0.202
-647.770	-79.273	-0.126	0.043
-646.755	-151.456	-0.264	-0.020
-645.741	271.921	-0.152	-0.270
-644.726	448.128	-0.090	0.200
-643.711	12.268	0.107	-0.083
-642.697	87.407	-0.166	0.185
-641.682	647.231	0.064	0.165
-640.668	-200.000	-0.064	-0.378
-639.653	-25.194	-0.061	0.037
-638.638	800.000	0.098	0.307
-637.624	114.071	-0.110	0.135
-636.609	800.000	0.037	0.163
-635.595	97.893	0.058	0.068
-634.580	-15.967	0.345	0.221
-633.565	57.463	0.101	0.099
-632.551	5.215	0.274	-0.203
-631.536	16.234	0.119	-0.094
-630.522	-171.106	0.114	-0.004
-629.507	195.299	-0.090	0.137
-628.492	160.208	0.198	-0.278
-627.478	-200.000	0.053	-0.342
-626.463	21.465	-0.123	0.101
-625.449	6.153	-0.163	0.122
-624.434	-120.317	-0.199	-0.034
-623.419	235.840	0.140	-0.232
-622.405	98.188	0.167	-0.194
-621.390	-142.268	0.131	-0.013
-620.376	124.403	0.194	-0.245
-619.361	-73.032	0.097	-0.036
-618.346	74.456	0.344	0.363
-617.332	100.858	-0.048	0.056
-616.317	-58.422	0.225	0.098
-615.303	279.560	-0.022	0.039
-614.288	-147.562	-0.375	-0.032
-613.273	57.893	0.197	-0.194
-612.259	224.625	-0.127	-0.206
-611.244	-87.373	-0.306	0.093
-610.230	505.987	0.130	0.302
-609.215	800.000	0.033	0.144
-608.201	-6.289	-0.143	0.098
-607.186	131.736	-0.073	-0.095
-606.171	481.104	-0.043	0.099
-605.157	-140.584	0.090	-0.009
-604.142	-139.244	0.258	-0.028
-603.128	90.043	0.028	0.031
-602.113	-152.815	0.087	0.006
-601.098	-40.201	0.188	0.098
-600.084	43.871	-0.077	0.071
-599.069	183.750	-0.146	-0.216
-598.055	-200.000	0.092	-0.496
-597.040	-28.587	-0.126	0.073
-596.025	800.000	-0.073	-0.266
-595.011	360.300	0.130	0.261
-593.996	-197.503	0.115	0.001
-592.982	-15.698	0.068	-0.044
-591.967	-200.000	-0.003	-0.238
-590.952	170.941	-0.129	-0.185
-589.938	-200.000	-0.021	0.202
-588.923	-200.000	-0.045	-0.206
-587.909	198.251	-0.149	0.229
-586.894	-10.383	-0.207	0.138
-585.879	-19.775	0.303	0.188
-584.865	350.944	0.066	0.131
-583.850	-147.378	0.212	0.018
-582.836	467.596	0.161	-0.362
-581.821	84.614	0.095	-0.104
-580.806	-121.327	-0.428	-0.072
-579.792	-79.590	-0.196	0.066
-578.777	394.155	-0.230	-0.481
-577.763	106.894	0.096	0.115
-576.748	-2.574	0.193	-0.136
-575.733	44.144	-0.207	-0.190
-574.719	43.315	-0.021	-0.019
-573.704	-120.551	0.197	-0.034
-572.690	-29.314	-0.313	-0.180
-571.675	-200.000	0.052	0.416
-570.661	378.749	-0.088	-0.181
-569.646	-60.207	-0.161	-0.069
-568.631	20.671	0.151	0.123
-567.617	-200.000	0.076	-0.454
-566.602	129.997	0.064	-0.082
-565.588	-170.246	-0.122	-0.004
-564.573	34.191	-0.098	0.085
-563.558	-91.106	-0.248	0.071
-562.544	44.032	-0.053	-0.048
-561.529	-160.216	-0.036	-0.002
-560.515	211.629	-0.110	0.173
-559.500	-67.047	0.116	0.046
-558.485	-179.421	0.168	0.004
-557.471	625.555	-0.084	-0.212
-556.456	179.474	0.086	-0.126
-555.442	305.185	0.167	-0.310
-554.427	-32.970	-0.361	0.201
-553.412	-177.132	0.244	-0.006
-552.398	-200.000	-0.034	0.233
-551.383	-68.872	0.229	0.088
-550.369	17.888	0.268	-0.214
-549.354	-42.410	0.138	-0.071
-548.339	800.000	0.062	0.237
-547.325	-16.264	0.100	0.063
-546.310	-52.991	0.039	-0.018
-545.296	-96.621	0.180	-0.047
-544.281	71.281	-0.099	-0.102
-543.266	-17.093	0.088	-0.056
-542.252	32.712	0.099	0.086
-541.237	-131.965	0.166	0.022
-540.223	-161.614	0.211	0.011
-539.208	800.000	-0.084	0.256
-538.193	-16.728	-0.072	-0.045
-537.179	325.249	0.159	0.305
-536.164	-56.259	0.163	0.073
-535.150	-119.161	-0.112	-0.020
-534.135	182.787	-0.132	-0.195
-533.121	117.278	0.137	-0.169
-532.106	-200.000	-0.037	-0.422
-531.091	551.576	0.083	-0.199
-530.077	27.597	0.074	0.062
-529.062	409.101	-0.213	0.452
-528.048	266.585	0.159	-0.278
-527.033	440.715	-0.120	-0.262
-526.018	76.574	0.170	0.181
-525.004	800.000	0.071	-0.252
-523.989	233.096	0.039	0.064
-522.975	-67.594	-0.315	0.124
-521.960	-105.181	0.028	0.006
-520.945	800.000	0.039	0.114
-519.931	44.614	0.227	0.209
-518.916	-145.329	0.336	0.030
-517.902	198.572	0.101	0.155
-516.887	-47.625	0.178	-0.086
-515.872	535.622	0.140	-0.332
-514.858	800.000	-0.045	0.135
-513.843	-44.396	-0.094	0.047
-512.829	-200.000	-0.077	0.432
-511.814	-66.453	-0.161	-0.064
-510.799	-200.000	0.016	-0.125
-509.785	3.179	-0.144	-0.105
-508.770	-150.508	0.016	-0.001
-507.756	-200.000	-0.029	-0.223
-506.741	-200.000	0.031	-0.514
-505.726	-104.465	-0.182	0.042
-504.712	194.375	0.098	-0.149
-503.697	-111.639	-0.113	0.023
-502.683	131.223	0.091	-0.117
-501.668	246.385	-0.081	-0.136
-500.653	-85.346	-0.407	-0.127
-499.639	148.683	-0.082	0.110
-498.624	-4.151	-0.135	-0.094
-497.610	-200.000	-0.005	0.034
-496.595	73.366	-0.180	-0.189
-495.581	-122.996	-0.257	0.041
-494.566	-9.813	-0.336	-0.224
-493.551	-60.700	-0.126	0.054
-492.537	117.912	-0.084	-0.103
-491.522	-200.000	0.002	-0.405
-490.508	-106.479	-0.132	-0.030
-489.493	762.953	-0.084	-0.228
-488.478	336.326	0.073	0.141
-487.464	-167.802	0.316	-0.012
-486.449	698.463	-0.151	0.397
-485.435	95.928	-0.309	0.353
-484.420	166.441	-0.297	0.420
-483.405	-165.806	-0.086	0.004
-482.391	-140.840	-0.372	-0.038
-481.376	359.369	-0.251	-0.501
-480.362	218.154	-0.045	-0.072
-479.347	-86.064	0.101	-0.031
-478.332	96.164	-0.167	-0.191
-477.318	242.503	-0.077	0.128
-476.303	58.058	-0.121	-0.119
-475.289	800.000	0.075	-0.316
-474.274	-86.236	0.176	-0.054
-473.259	495.647	0.119	0.272
-472.245	-150.931	-0.108	-0.008
-471.230	6.437	-0.108	0.080
-470.216	70.158	0.091	0.094
-469.201	-177.243	0.305	-0.008
-468.186	173.881	0.136	0.196
-467.172	156.342	0.170	-0.234
-466.157	-79.977	0.242	0.081
-465.143	-200.000	-0.052	-0.268
-464.128	501.231	-0.150	-0.345
-463.113	81.081	-0.186	0.201
-462.099	-200.000	0.028	-0.167
-461.084	769.781	-0.091	0.249
-460.070	560.024	-0.092	0.222
-459.055	-200.000	0.032	0.198
-458.040	-200.000	0.005	-0.206
-457.026	61.701	0.405	0.403
-456.011	-22.231	-0.152	-0.092
-454.997	-143.482	-0.048	0.005
-453.982	-93.869	-0.304	-0.084
-452.968	800.000	0.116	-0.344
-451.953	400.851	-0.092	0.192
-450.938	-200.000	-0.016	-0.106
-449.924	0.143	0.053	0.038
-448.909	241.827	0.111	-0.185
-447.895	753.190	-0.103	-0.278
-446.880	-200.000	-0.019	-0.341
-445.865	-106.213	-0.129	-0.029
-444.851	-6.296	0.057	0.039
-443.836	-60.363	0.156	-0.066
-442.822	-101.454	-0.072	0.018
-441.807	-161.791	-0.202	-0.010
-440.792	-2.413	0.060	0.042
-439.778	-19.191	-0.228	0.141
-438.763	-69.644	-0.232	0.089
-437.749	-98.528	0.327	-0.084
-436.734	14.526	0.334	0.260
-435.719	-53.295	0.338	0.155
-434.705	-8.367	0.087	0.058
-433.690	-131.499	0.223	0.029
-432.676	121.415	-0.061	-0.076
-431.661	337.139	0.116	0.224
-430.646	-0.316	0.178	0.126
-429.632	185.820	-0.234	-0.347
-428.617	407.067	0.026	-0.054
-427.603	-93.853	-0.080	0.022
-426.588	-153.465	0.452	0.031
-425.573	186.830	0.003	0.005
-424.559	-200.000	-0.019	-0.390
-423.544	128.280	-0.252	-0.320
-422.530	191.402	-0.035	-0.052
-421.515	401.760	0.132	-0.277
-420.500	458.733	0.050	-0.111
-419.486	181.719	0.271	0.398
-418.471	-110.818	-0.100	0.020
-417.457	315.161	-0.116	0.218
-416.442	800.000	-0.081	0.225
-415.428	-56.576	0.152	-0.067
-414.413	-63.648	-0.128	-0.052
-413.398	190.654	0.254	0.380
-412.384	-67.129	-0.262	0.103
-411.369	-131.449	0.107	0.014
-410.355	-21.723	-0.173	0.105
-409.340	654.724	-0.086	-0.220
-408.325	-200.000	-0.014	-0.164
-407.311	800.000	0.050	0.156
-406.296	132.093	-0.246	0.316
-405.282	-187.280	0.287	-0.004
-404.267	-53.579	0.039	0.018
-403.252	130.332	-0.034	-0.043
-402.238	321.884	0.014	0.026
-401.223	456.858	-0.061	0.134
-400.209	64.469	-0.232	-0.232
-399.194	-82.025	-0.357	-0.116
-398.179	-66.358	0.499	-0.197
-397.165	158.150	0.262	-0.362
-396.150	83.246	0.078	-0.085
-395.136	-17.104	-0.278	0.174
-394.121	-4.568	0.080	0.055
-393.106	-91.603	0.155	-0.044
-392.092	180.069	0.150	0.219
-391.077	-126.508	-0.225	-0.033
-390.063	-135.580	-0.138	-0.016
-389.048	-126.020	0.057	0.009
-388.033	226.570	0.033	0.053
-387.019	800.000	-0.050	0.215
-386.004	-19.981	0.241	0.148
-384.990	575.117	0.115	0.279
-383.975	-152.855	0.252	0.018
-382.960	-184.464	-0.285	-0.005
-381.946	29.945	-0.117	0.099
-380.931	-79.800	-0.314	0.105
-379.917	87.822	0.109	-0.120
-378.902	196.351	0.187	-0.283
-377.888	-148.457	-0.167	0.014
-376.873	-127.156	0.405	-0.059
-375.858	597.357	-0.105	-0.260
-374.844	464.029	-0.097	-0.216
-373.829	231.607	0.179	-0.291
-372.815	205.035	0.103	0.159
-371.800	55.304	-0.284	0.273
-370.785	-81.899	0.224	-0.073
-369.771	174.443	-0.066	-0.095
-368.756	19.015	-0.286	-0.228
-367.742	7.208	-0.139	-0.103
-366.727	90.262	0.138	-0.153
-365.712	-92.751	0.035	-0.010
-364.698	-200.000	0.021	-0.323
-363.683	-200.000	0.020	-0.090
-362.669	-117.297	0.131	-0.024
-361.654	800.000	0.030	-0.093
-360.639	467.226	-0.170	-0.380
-359.625	-200.000	0.012	-0.082
-358.610	-52.494	0.361	-0.166
-357.596	80.781	0.045	0.048
-356.581	-200.000	0.065	-0.359
-355.566	-200.000	0.036	0.205
-354.552	-52.955	-0.198	-0.091
-353.537	-53.293	-0.094	0.043
-352.523	-200.000	0.019	-0.188
-351.508	130.380	-0.034	-0.044
-350.493	6.747	0.208	0.154
-349.479	-63.994	-0.107	0.044
-348.464	-200.000	0.020	0.139
-347.450	13.417	0.085	0.066
-346.435	-3.936	-0.119	-0.082
-345.420	-64.838	0.111	0.045
-344.406	248.395	0.122	-0.205
-343.391	-69.407	-0.246	-0.094
-342.377	-164.321	-0.198	0.009
-341.362	-164.410	-0.483	0.022
-340.348	800.000	-0.167	0.610
-339.333	-35.371	0.343	0.185
-338.318	-33.721	-0.272	-0.149
-337.304	-59.501	-0.350	-0.150
-336.289	253.741	0.059	-0.100
-335.275	-28.820	0.211	0.120
-334.260	70.491	0.390	0.401
-333.245	520.016	0.116	-0.270
-332.231	442.510	-0.159	0.345
-331.216	-105.285	0.139	-0.032
-330.202	166.937	0.093	-0.131
-329.187	-34.505	-0.068	0.037
-328.172	-125.084	-0.226	0.035
-327.158	154.370	-0.146	-0.200
-326.143	-15.232	0.074	0.047
-325.129	-200.000	-0.027	0.272
-324.114	-14.407	0.039	0.025
-323.099	282.614	-0.046	0.082
-322.085	-191.574	0.057	0.001
-321.070	-86.019	0.175	-0.054
-320.056	-4.415	0.318	0.218
-319.041	-200.000	-0.026	0.301
-318.026	-3.541	-0.138	0.096
-317.012	7.207	0.129	0.096
-315.997	265.224	-0.056	0.097
-314.983	403.062	0.084	0.176
-313.968	-10.971	-0.127	0.083
-312.953	-200.000	0.029	-0.134
-311.939	-95.418	-0.570	0.152
-310.924	6.396	0.255	-0.188
-309.910	-131.134	-0.171	-0.023
-308.895	800.000	-0.098	0.288
-307.880	-56.276	-0.083	0.037
-306.866	80.080	-0.220	-0.235
-305.851	-200.000	0.074	-0.473
-304.837	-19.058	0.231	0.143
-303.822	-21.085	-0.134	-0.081
-302.807	-200.000	0.011	0.245
-301.793	-84.870	-0.204	-0.063
-300.778	-153.124	-0.155	-0.011
-299.764	799.657	-0.120	0.330
-298.749	99.203	-0.193	0.221
-297.735	217.449	0.021	0.034
-296.720	-200.000	0.070	-0.326
-295.705	800.000	0.060	-0.250
-294.691	-57.653	0.419	0.182
-293.676	-103.595	-0.070	0.016
-292.662	271.830	0.192	0.336
-291.647	-34.282	0.251	-0.137
-290.632	800.000	0.091	-0.375
-289.618	800.000	0.067	-0.262
-288.603	187.267	0.031	0.046
-287.589	273.160	-0.068	0.119
-286.574	294.916	0.127	-0.230
-285.559	-173.271	-0.176	0.005
-284.545	42.820	0.293	0.265
-283.530	217.690	0.074	-0.117
-282.516	19.918	-0.073	0.058
-281.501	-163.136	0.094	-0.004
-280.486	-22.181	-0.166	0.100
-279.472	-90.112	0.057	-0.016
-278.457	18.355	-0.023	-0.018
-277.443	-71.129	0.495	-0.184
-276.428	-157.580	0.107	-0.006
-275.413	787.989	0.143	0.389
-274.399	-82.757	0.246	-0.079
-273.384	5.976	0.042	0.031
-272.370	16.465	0.098	-0.077
-271.355	-200.000	-0.033	-0.325
-270.340	-200.000	0.006	-0.035
-269.326	526.741	0.030	-0.070
-268.311	475.158	0.073	0.163
-267.297	675.312	0.082	0.211
-266.282	-77.246	-0.164	0.056
-265.267	-200.000	-0.043	-0.349
-264.253	800.000	0.076	0.289
-263.238	56.810	-0.316	-0.305
-262.224	-47.635	0.277	0.133
-261.209	-83.403	0.226	-0.072
-260.195	800.000	-0.038	0.113
-259.180	190.068	0.129	-0.191
-258.165	337.825	-0.068	0.131
-257.151	-78.269	-0.265	0.090
-256.136	-142.884	0.186	-0.018
-255.122	-17.261	0.353	0.220
-254.107	-121.688	-0.182	-0.030
-253.092	622.616	-0.053	0.133
-252.078	-200.000	-0.001	0.200
-251.063	-104.559	-0.554	-0.127
-250.049	800.000	0.116	-0.393
-249.034	-149.902	0.122	0.009
-248.019	-129.302	0.042	0.006
-247.005	122.029	0.136	-0.168
-245.990	8.558	0.127	0.095
-244.976	-114.910	-0.450	0.085
-243.961	65.555	0.045	0.045
-242.946	-200.000	0.009	0.148
-241.932	645.576	-0.046	0.116
-240.917	619.530	0.171	-0.426
-239.903	-143.136	-0.314	0.030
-238.888	-52.715	0.395	0.181
-237.873	-62.668	0.040	-0.016
-236.859	254.187	0.165	-0.280
-235.844	300.745	0.132	-0.240
-234.830	19.667	-0.161	-0.129
-233.815	-200.000	-0.016	-0.289
-232.800	72.749	-0.235	-0.243
-231.786	69.341	0.038	0.039
-230.771	-200.000	0.065	0.304
-229.757	800.000	0.055	-0.214
-228.742	10.631	0.057	0.043
-227.727	148.559	0.041	-0.055
-226.713	800.000	0.040	-0.141
-225.698	-200.000	-0.016	-0.218
-224.684	234.567	-0.027	0.044
-223.669	-148.612	0.380	-0.031
-222.655	-79.850	0.169	0.056
-221.640	170.784	-0.155	0.220
-220.625	800.000	-0.114	0.341
-219.611	290.130	0.080	0.144
-218.596	-25.674	-0.262	0.153
-217.582	-43.097	-0.286	0.144
-216.567	85.384	0.065	-0.071
-215.552	800.000	0.015	-0.055
-214.538	-30.741	-0.052	-0.029
-213.523	116.541	-0.185	0.224
-212.509	164.283	0.232	0.324
-211.494	333.889	-0.080	0.152
-210.479	800.000	0.045	-0.138
-209.465	562.119	-0.110	-0.263
-208.450	798.214	0.025	0.067
-207.436	-135.808	-0.100	-0.012
-206.421	-70.219	-0.105	-0.039
-205.406	16.026	-0.265	0.207
-204.392	151.891	0.060	0.081
-203.377	251.657	-0.138	-0.232
-202.363	58.202	-0.256	0.248
-201.348	-130.967	-0.187	-0.025
-200.333	-124.529	0.252	-0.039
-199.319	-92.282	-0.209	0.058
-198.304	194.688	-0.162	0.243
-197.290	125.911	0.123	-0.154
-196.275	-92.074	-0.152	0.042
-195.260	-200.000	-0.006	-0.109
-194.246	-122.949	0.306	0.049
-193.231	-185.682	-0.169	-0.003
-192.217	147.597	0.310	0.413
-191.202	800.000	-0.051	0.186
-190.187	-121.260	-0.209	-0.034
-189.173	-116.136	0.141	0.026
-188.158	96.381	-0.129	0.146
-187.144	-200.000	0.020	0.190
-186.129	-32.019	-0.021	-0.011
-185.114	-31.123	-0.187	-0.104
-184.100	720.749	-0.069	0.182
-183.085	-200.000	-0.037	-0.197
-182.071	-145.749	0.219	0.019
-181.056	8.792	-0.125	0.093
-180.042	306.244	0.043	0.079
-179.027	71.851	0.168	-0.172
-178.012	81.907	0.077	0.083
-176.998	219.910	-0.114	0.180
-175.983	-80.405	0.300	-0.099
-174.969	-55.916	0.192	-0.085
-173.954	30.907	-0.043	0.036
-172.939	-200.000	0.006	-0.155
-171.925	-200.000	0.052	0.414
-170.910	-200.000	-0.054	0.308
-169.896	4.952	0.137	0.099
-168.881	266.216	0.139	0.240
-167.866	61.198	-0.310	-0.304
-166.852	253.547	0.086	0.145
-165.837	787.857	-0.022	0.059
-164.823	288.765	-0.073	-0.130
-163.808	-113.254	-0.228	-0.044
-162.793	-115.912	-0.171	0.031
-161.779	211.948	-0.183	0.285
-160.764	-200.000	-0.006	0.203
-159.750	-120.869	-0.153	-0.025
-158.735	-200.000	0.004	0.598
-157.720	146.627	0.176	0.234
-156.706	-101.274	0.125	-0.030
-155.691	33.107	0.070	-0.060
-154.677	-10.067	-0.123	0.081
-153.662	127.397	-0.079	0.099
-152.647	-200.000	0.009	0.288
-151.633	232.191	-0.299	0.485
-150.618	-113.939	-0.171	-0.033
-149.604	106.541	-0.163	0.191
-148.589	296.992	0.153	-0.277
-147.574	98.158	-0.066	0.075
-146.560	-141.908	0.304	-0.030
-145.545	17.149	0.252	0.197
-144.531	248.502	-0.236	-0.394
-143.516	-45.981	-0.127	-0.062
-142.502	800.000	0.038	-0.124
-141.487	41.716	0.027	-0.024
-140.472	-120.671	0.079	-0.013
-139.458	-197.983	-0.147	0.001
-138.443	-31.284	0.162	0.090
-137.429	-140.539	-0.017	0.002
-136.414	-200.000	-0.024	-0.173
-135.399	-105.998	0.269	-0.060
-134.385	153.523	-0.061	0.083
-133.370	50.120	-0.048	-0.045
-132.356	-200.000	0.070	-0.308
-131.341	800.000	-0.070	-0.278
-130.326	-136.314	0.090	0.010
-129.312	-39.641	-0.244	0.126
-128.297	-132.745	0.487	-0.061
-127.283	-200.000	0.046	0.316
-126.268	217.202	0.129	-0.203
-125.253	-99.444	0.263	0.065
-124.239	642.671	0.139	-0.350
-123.224	398.130	-0.086	-0.178
-122.210	-50.783	0.274	-0.127
-121.195	581.766	-0.052	-0.126
-120.180	800.000	-0.060	-0.173
-119.166	-48.569	0.122	-0.058
-118.151	-127.265	-0.206	-0.030
-117.137	-47.297	-0.150	0.072
-116.122	32.733	-0.263	0.224
-115.107	296.125	-0.057	-0.103
-114.093	-137.123	-0.182	0.020
-113.078	129.800	-0.187	-0.235
-112.064	471.195	-0.057	0.125
-111.049	14.790	0.046	0.035
-110.034	491.457	-0.050	0.112
-109.020	372.567	0.099	0.197
-108.005	216.075	-0.013	0.021
-106.991	-50.095	0.222	-0.104
-105.976	-200.000	-0.002	-0.283
-104.962	122.621	-0.079	-0.097
-103.947	-182.996	0.093	-0.002
-102.932	-58.784	-0.178	-0.076
-101.918	6.875	0.405	0.297
-100.903	-13.377	-0.336	0.215
-99.889	152.744	0.072	-0.097
-98.874	-10.712	0.319	-0.207
-97.859	-21.585	0.108	0.065
-96.845	74.818	0.103	0.107
-95.830	-99.391	0.318	-0.079
-94.816	800.000	-0.072	-0.310
-93.801	800.000	-0.072	-0.304
-92.786	-60.920	0.068	0.028
-91.772	633.851	0.023	-0.057
-90.757	-200.000	0.014	0.127
-89.743	24.838	0.127	0.103
-88.728	-157.972	-0.224	0.013
-87.713	538.365	-0.100	0.233
-86.699	173.163	-0.056	-0.079
-85.684	-8.928	0.116	0.077
-84.670	-200.000	-0.004	-0.084
-83.655	-200.000	-0.005	-0.211
-82.640	70.298	0.140	-0.143
-81.626	474.474	-0.155	-0.343
-80.611	-71.741	-0.031	-0.011
-79.597	-91.310	-0.284	-0.080
-78.582	800.000	0.040	0.157
-77.567	-200.000	0.030	-0.157
-76.553	-129.349	-0.213	-0.029
-75.538	-134.536	0.318	0.038
-74.524	32.765	0.185	0.157
-73.509	-128.397	0.339	0.047
-72.494	-114.956	-0.215	0.040
-71.480	-200.000	0.065	0.369
-70.465	165.151	-0.242	0.336
-69.451	-200.000	-0.091	0.438
-68.436	1.062	0.266	0.187
-67.422	30.981	-0.263	-0.222
-66.407	-200.000	-0.013	-0.250
-65.392	-83.156	0.163	0.051
-64.378	17.775	-0.212	0.166
-63.363	-125.247	0.178	-0.027
-62.349	-200.000	-0.008	0.114
-61.334	259.112	-0.583	-0.988
-60.319	693.763	0.139	0.359
-59.305	800.000	-0.233	-0.971
-58.290	564.357	0.263	0.625
-57.276	670.634	0.601	1.529
-56.261	-200.000	97.642	589.595
-55.246	549.259	1396.638	3290.122
-54.232	156.186	2585.473	3505.437
-53.217	106.554	2281.256	2659.180
-52.203	42.043	1902.140	1696.816
-51.188	35.856	1692.227	1462.661
-50.173	32.961	1648.130	1403.026
-49.159	51.068	1693.398	1578.094
-48.144	52.572	1710.379	1605.158
-47.130	35.499	1670.798	1441.237
-46.115	32.543	1656.414	1406.729
-45.100	32.499	1651.024	1401.770
-44.086	32.288	1649.187	1398.586
-43.071	32.346	1646.132	1396.366
-42.057	32.382	1643.739	1394.547
-41.042	32.421	1641.821	1393.157
-40.027	32.396	1639.848	1391.245
-39.013	32.325	1637.743	1388.874
-37.998	32.230	1636.867	1387.375
-36.984	32.334	1635.586	1387.003
-35.969	32.457	1633.984	1386.497
-34.954	32.462	1632.067	1384.849
-33.940	32.463	1630.658	1383.604
-32.925	32.454	1628.682	1381.813
-31.911	32.550	1626.585	1380.682
-30.896	32.486	1624.817	1378.654
-29.881	32.475	1623.386	1377.308
-28.867	32.412	1621.719	1375.378
-27.852	32.446	1620.543	1374.571
-26.838	32.403	1619.160	1373.029
-25.823	32.488	1617.462	1372.159
-24.809	32.497	1616.155	1371.063
-23.794	32.520	1614.355	1369.649
-22.779	32.579	1612.781	1368.683
-21.765	32.507	1611.092	1366.677
-20.750	32.481	1609.714	1365.264
-19.736	32.493	1608.160	1363.979
-18.721	32.529	1606.603	1362.860
-17.706	32.646	1604.959	1362.260
-16.692	32.517	1604.381	1360.781
-15.677	32.540	1602.275	1359.108
-14.663	32.567	1601.200	1358.341
-13.648	32.622	1599.355	1357.112
-12.633	32.498	1598.887	1355.769
-11.619	32.471	1596.938	1353.868
-10.604	32.562	1595.346	1353.124
-9.590	32.511	1594.102	1351.649
-8.575	32.514	1593.184	1350.834
-7.560	32.593	1591.481	1349.906
-6.546	32.474	1591.007	1348.593
-5.531	32.619	1589.038	1347.910
-4.517	32.516	1588.181	1346.396
-3.502	32.514	1587.127	1345.430
-2.487	32.570	1585.349	1344.273
-1.473	32.403	1574.071	1333.472
-0.458	29.998	1555.331	1300.681
0.556	26.697	1557.002	1272.825
1.571	24.558	1580.971	1277.027
2.586	24.157	1594.562	1285.005
3.600	20.933	1539.646	1218.141
4.615	11.323	1426.728	1066.167
5.629	3.112	1361.353	965.831
6.644	1.790	1353.483	951.903
7.659	1.656	1352.106	950.015
8.673	1.483	1351.130	948.167
9.688	1.551	1348.815	946.879
10.702	1.277	1345.924	943.063
11.717	4.768	1352.785	969.559
12.731	15.039	1371.903	1047.772
13.746	23.611	1386.905	1113.146
14.761	25.998	1390.064	1130.566
15.775	26.440	1389.811	1133.030
16.790	26.389	1389.753	1132.561
17.804	26.443	1389.344	1132.469
18.819	26.825	1388.441	1134.022
19.834	26.852	1388.036	1133.759
20.848	26.843	1387.464	1133.136
21.863	26.752	1386.722	1131.864
22.877	26.763	1385.816	1131.092
23.892	26.846	1384.655	1130.560
24.907	26.841	1383.883	1129.798
25.921	26.860	1383.309	1129.348
26.936	26.789	1382.208	1127.907
27.950	26.862	1380.436	1126.814
28.965	26.857	1379.597	1126.001
29.980	26.848	1378.267	1124.758
30.994	26.922	1377.484	1124.481
32.009	26.805	1376.671	1122.992
33.023	26.840	1375.059	1121.795
34.038	26.964	1373.967	1121.569
35.053	26.849	1373.110	1120.063
36.067	26.765	1372.499	1118.945
37.082	26.774	1371.327	1117.945
38.096	26.708	1370.412	1116.697
39.111	26.822	1369.819	1116.817
40.126	26.841	1368.956	1116.131
41.140	26.829	1368.420	1115.521
42.155	26.908	1367.995	1115.558
43.169	26.835	1368.268	1115.233
44.184	26.800	1368.060	1114.749
45.199	26.799	1367.758	1114.400
46.213	26.839	1366.548	1113.564
47.228	26.754	1365.830	1112.354
48.242	26.911	1364.687	1112.291
49.257	26.854	1362.955	1110.434
50.271	26.845	1361.695	1109.250
51.286	26.848	1360.201	1107.952
52.301	26.824	1359.122	1106.834
53.315	26.751	1358.846	1106.060
54.330	26.837	1357.730	1105.578
55.344	26.818	1356.413	1104.298
56.359	26.735	1355.748	1103.148
57.374	26.901	1354.617	1103.142
58.388	26.924	1353.659	1102.401
59.403	26.858	1353.467	1101.748
60.417	26.919	1352.968	1101.615
61.432	26.832	1352.703	1100.775
62.447	26.803	1351.388	1099.428
63.461	26.849	1350.338	1098.757
64.476	26.831	1349.486	1097.861
65.490	26.878	1347.615	1096.523
66.505	26.855	1346.857	1095.673
67.520	26.889	1345.244	1094.464
68.534	26.868	1344.484	1093.627
69.549	26.801	1343.667	1092.458
70.563	26.869	1342.630	1091.930
71.578	26.860	1341.435	1090.807
72.593	26.827	1340.640	1089.868
73.607	26.827	1340.490	1089.645
74.622	26.792	1339.536	1088.564
75.636	26.892	1338.843	1088.506
76.651	26.877	1338.236	1087.824
77.666	26.894	1337.730	1087.419
78.680	26.993	1336.935	1087.274
79.695	26.886	1336.248	1085.976
80.709	26.882	1335.563	1085.296
81.724	26.906	1335.004	1084.891
82.739	26.983	1333.204	1083.791
83.753	26.820	1333.221	1082.741
84.768	26.796	1331.602	1081.183
85.782	26.879	1330.745	1080.887
86.797	26.900	1329.463	1079.878
87.812	26.964	1328.423	1079.317
88.826	26.968	1327.135	1078.198
89.841	26.817	1326.452	1076.650
90.855	26.958	1325.183	1076.359
91.870	26.853	1324.704	1075.255
92.884	26.955	1323.865	1075.085
93.899	26.900	1322.583	1073.621
94.914	26.917	1322.054	1073.196
95.928	26.898	1321.640	1072.651
96.943	26.910	1320.880	1072.015
97.957	26.920	1320.089	1071.335
98.972	26.833	1319.176	1069.985
99.987	26.897	1318.497	1069.718
101.001	26.797	1317.690	1068.378
102.016	26.932	1316.220	1067.886
103.030	26.893	1315.526	1066.999
104.045	26.934	1314.779	1066.539
105.060	26.966	1313.775	1065.819
106.074	26.905	1313.146	1064.857
107.089	26.923	1311.708	1063.704
108.103	26.973	1310.432	1062.868
109.118	27.084	1309.213	1062.434
110.133	27.004	1308.199	1061.051
111.147	26.986	1307.369	1060.178
112.162	27.053	1306.060	1059.414
113.176	27.006	1305.741	1058.789
114.191	27.008	1304.400	1057.617
115.206	27.075	1303.159	1056.909
116.220	27.021	1302.573	1056.026
117.235	27.012	1301.358	1054.893
118.249	26.879	1301.009	1053.747
119.264	27.018	1299.808	1053.483
120.279	26.954	1299.351	1052.650
121.293	27.100	1298.445	1052.667
122.308	26.939	1298.062	1051.330
123.322	27.076	1296.481	1050.751
124.337	27.089	1295.892	1050.256
125.352	27.161	1294.708	1049.621
126.366	27.083	1294.326	1048.766
127.381	27.064	1293.246	1047.691
128.395	27.149	1292.133	1047.185
129.410	27.080	1291.830	1046.449
130.424	27.137	1290.663	1045.741
131.439	27.009	1290.092	1044.445
132.454	26.990	1289.444	1043.721
133.468	27.182	1288.369	1043.862
134.483	27.024	1288.019	1042.581
135.497	27.084	1286.983	1041.994
136.512	27.040	1286.301	1041.098
137.527	27.107	1284.713	1040.102
138.541	27.017	1283.823	1038.776
139.556	26.952	1282.564	1037.294
140.570	26.960	1281.777	1036.610
141.585	26.958	1280.500	1035.472
142.600	27.025	1279.507	1034.962
143.614	27.069	1278.997	1034.707
144.629	26.888	1278.236	1032.972
145.643	26.885	1277.199	1032.022
146.658	26.853	1276.140	1030.896
147.673	26.912	1274.819	1030.072
148.687	26.930	1274.252	1029.625
149.702	26.940	1272.981	1028.565
150.716	26.975	1272.146	1027.995
151.731	26.987	1271.109	1027.137
152.746	27.060	1269.821	1026.416
153.760	26.995	1268.929	1025.236
154.775	27.104	1267.719	1024.784
155.789	27.076	1266.903	1023.876
156.804	27.040	1266.046	1022.887
157.819	27.143	1264.915	1022.463
158.833	27.098	1264.242	1021.577
159.848	27.106	1263.795	1021.171
160.862	27.141	1263.065	1020.685
161.877	27.129	1261.987	1019.655
162.892	27.112	1261.279	1018.900
163.906	27.146	1260.806	1018.616
164.921	27.059	1260.186	1017.543
165.935	27.178	1259.098	1017.240
166.950	27.149	1258.539	1016.532
167.964	27.157	1258.176	1016.193
168.979	27.241	1257.389	1015.938
169.994	27.058	1256.882	1014.416
171.008	27.188	1256.064	1014.396
172.023	27.144	1256.075	1014.067
173.037	27.217	1254.752	1013.314
174.052	27.148	1254.456	1012.603
175.067	27.177	1253.581	1011.965
176.081	27.041	1252.713	1010.420
177.096	27.271	1251.616	1010.727
178.110	27.263	1250.748	1009.892
179.125	27.239	1249.827	1008.922
180.140	27.220	1248.902	1007.983
181.154	27.163	1248.062	1006.902
182.169	27.176	1246.795	1005.862
183.183	27.141	1245.931	1004.883
184.198	27.168	1244.746	1003.985
185.213	27.214	1244.116	1003.644
186.227	27.236	1243.227	1002.960
187.242	27.201	1242.115	1001.780
188.256	27.288	1241.405	1001.597
189.271	27.261	1240.322	1000.484
190.286	27.316	1239.741	1000.231
191.300	27.226	1239.158	999.175
192.315	27.161	1238.849	998.481
193.329	27.173	1238.457	998.144
194.344	27.228	1238.195	998.148
195.359	27.293	1237.306	997.698
196.373	27.269	1236.851	997.113
197.388	27.234	1236.309	996.396
198.402	27.168	1236.378	996.002
199.417	27.152	1236.028	995.544
200.432	27.285	1235.051	995.396
201.446	27.326	1234.337	994.955
202.461	27.256	1233.579	993.875
203.475	27.229	1232.684	992.920
204.490	27.380	1231.599	992.779
205.504	27.333	1230.564	991.601
206.519	27.387	1230.125	991.456
207.534	27.374	1229.235	990.577
208.548	27.276	1228.344	989.238
209.563	27.232	1227.716	988.405
210.577	27.320	1226.568	987.874
211.592	27.354	1225.745	987.307
212.607	27.370	1225.049	986.744
213.621	27.328	1224.405	985.913
214.636	27.335	1223.870	985.434
215.650	27.361	1222.847	984.662
216.665	27.383	1221.489	983.599
217.680	27.339	1221.174	983.021
218.694	27.443	1220.210	982.720
219.709	27.399	1219.717	982.000
220.723	27.416	1218.902	981.348
221.738	27.540	1217.835	981.070
222.753	27.387	1217.048	979.529
223.767	27.392	1216.717	979.202
224.782	27.478	1216.414	979.333
225.796	27.481	1215.837	978.797
226.811	27.501	1215.143	978.261
227.826	27.452	1214.923	977.733
228.840	27.414	1214.265	976.911
229.855	27.503	1213.082	976.349
230.869	27.462	1212.606	975.663
231.884	27.506	1212.005	975.326
232.899	27.402	1211.506	974.286
233.913	27.518	1210.321	973.864
234.928	27.619	1209.766	973.873
235.942	27.589	1209.158	973.137
236.957	27.531	1208.571	972.269
237.972	27.457	1208.487	971.717
238.986	27.453	1207.538	970.849
240.001	27.630	1206.712	971.042
241.015	27.620	1206.060	970.375
242.030	27.771	1205.185	970.392
243.045	27.590	1205.015	969.208
244.059	27.689	1203.688	968.578
245.074	27.707	1203.217	968.210
246.088	27.725	1202.411	967.568
247.103	27.646	1201.690	966.487
248.117	27.693	1200.767	965.907
249.132	27.682	1200.195	965.304
250.147	27.788	1199.191	964.972
251.161	27.755	1198.535	964.184
252.176	27.616	1198.146	963.051
253.190	27.731	1197.446	963.011
254.205	27.658	1197.162	962.313
255.220	27.671	1196.328	961.623
256.234	27.786	1195.934	961.827
257.249	27.795	1195.018	961.051
258.263	27.719	1194.286	959.980
259.278	27.821	1193.752	960.000
260.293	27.902	1193.059	959.784
261.307	27.892	1192.493	959.191
262.322	27.817	1191.776	958.136
263.336	27.819	1191.042	957.470
264.351	27.807	1191.027	957.314
265.366	27.831	1190.567	956.985
266.380	27.759	1189.400	955.587
267.395	27.800	1188.508	954.998
268.409	27.752	1188.426	954.596
269.424	27.707	1187.816	953.787
270.439	27.804	1187.510	953.962
271.453	27.813	1186.718	953.287
272.468	27.809	1185.587	952.274
273.482	27.829	1184.940	951.777
274.497	27.856	1184.765	951.694
275.512	27.826	1184.355	951.122
276.526	27.806	1183.665	950.379
277.541	27.937	1182.808	950.288
278.555	27.893	1182.057	949.374
279.570	27.870	1181.405	948.648
280.585	27.890	1180.324	947.797
281.599	27.967	1179.627	947.555
282.614	27.938	1178.829	946.678
283.628	28.017	1177.709	946.104
284.643	28.061	1177.054	945.721
285.657	27.884	1176.458	944.245
286.672	27.903	1175.497	943.489
287.687	27.965	1174.711	943.091
288.701	28.132	1174.156	943.428
289.716	27.969	1173.162	941.702
290.730	28.188	1172.601	942.300
291.745	27.985	1171.928	940.627
292.760	28.042	1171.434	940.445
293.774	28.113	1171.063	940.427
294.789	28.073	1170.392	939.601
295.803	28.197	1169.686	939.587
296.818	28.096	1169.306	938.677
297.833	28.080	1168.535	937.894
298.847	28.161	1167.836	937.667
299.862	28.169	1167.157	937.081
300.876	28.090	1166.241	935.858
301.891	28.166	1165.903	935.889
302.906	28.225	1165.580	935.853
303.920	28.190	1164.787	934.952
304.935	28.167	1164.385	934.431
305.949	28.144	1163.385	933.429
306.964	28.258	1162.775	933.438
307.979	28.238	1162.217	932.803
308.993	28.171	1162.059	932.251
310.008	28.261	1161.013	931.790
311.022	28.292	1160.138	931.162
312.037	28.261	1159.158	930.139
313.052	28.227	1158.343	929.228
314.066	28.236	1157.476	928.497
315.081	28.268	1156.932	928.137
316.095	28.329	1155.795	927.455
317.110	28.213	1155.780	926.774
318.125	28.224	1155.454	926.484
319.139	28.230	1154.535	925.696
320.154	28.317	1153.894	925.542
321.168	28.334	1153.200	924.988
322.183	28.359	1152.516	924.482
323.197	28.374	1151.834	923.931
324.212	28.252	1151.652	923.086
325.227	28.323	1150.807	922.687
326.241	28.471	1150.271	922.920
327.256	28.336	1149.865	921.830
328.270	28.377	1149.248	921.461
329.285	28.447	1148.314	920.985
330.300	28.457	1147.643	920.413
331.314	28.371	1146.712	919.154
332.329	28.481	1145.685	918.803
333.343	28.448	1145.063	918.057
334.358	28.498	1144.320	917.631
335.373	28.509	1143.864	917.238
336.387	28.467	1143.312	916.501
337.402	28.628	1142.000	916.176
338.416	28.589	1141.670	915.635
339.431	28.520	1141.197	914.832
340.446	28.581	1140.726	914.677
341.460	28.751	1139.408	914.384
342.475	28.686	1139.167	913.787
343.489	28.523	1138.481	912.342
344.504	28.560	1137.466	911.634
345.519	28.498	1136.531	910.494
346.533	28.560	1136.097	910.374
347.548	28.647	1135.109	909.934
348.562	28.620	1134.461	909.202
349.577	28.615	1133.772	908.542
350.592	28.404	1133.291	907.034
351.606	28.560	1132.282	906.915
352.621	28.733	1131.914	907.395
353.635	28.677	1131.141	906.420
354.650	28.588	1130.371	905.283
355.665	28.571	1130.245	905.018
356.679	28.648	1129.811	904.969
357.694	28.781	1129.036	904.925
358.708	28.695	1128.190	903.746
359.723	28.810	1127.300	903.516
360.738	28.751	1126.806	902.752
361.752	28.793	1126.230	902.414
362.767	28.745	1126.090	901.988
363.781	28.828	1125.531	901.867
364.796	28.801	1124.812	901.077
365.810	28.731	1124.283	900.234
366.825	28.814	1123.603	900.017
367.840	28.929	1123.019	900.032
368.854	29.019	1122.331	899.838
369.869	28.930	1121.337	898.526
370.883	28.885	1120.630	897.664
371.898	28.827	1120.228	896.975
372.913	28.877	1119.907	896.886
373.927	28.982	1118.975	896.573
374.942	28.981	1118.736	896.295
375.956	29.077	1117.551	895.735
376.971	28.998	1117.604	895.311
377.986	29.025	1116.530	894.503
379.000	28.964	1116.701	894.265
380.015	28.975	1116.005	893.681
381.029	29.137	1114.945	893.539
382.044	29.090	1114.375	892.779
383.059	29.023	1113.749	891.870
384.073	29.112	1113.245	891.822
385.088	29.111	1112.585	891.208
386.102	29.030	1111.512	889.879
387.117	29.045	1110.582	889.126
388.132	29.178	1109.873	889.122
389.146	29.159	1109.017	888.266
390.161	29.028	1109.000	887.542
391.175	29.134	1108.050	887.213
392.190	29.002	1107.441	886.015
393.205	29.146	1106.428	885.819
394.219	29.075	1105.974	885.036
395.234	29.157	1105.049	884.608
396.248	29.336	1104.226	884.731
397.263	29.262	1103.335	883.586
398.278	29.291	1103.246	883.571
399.292	29.184	1102.666	882.520
400.307	29.280	1101.903	882.286
401.321	29.311	1101.194	881.790
402.336	29.203	1100.541	880.676
403.350	29.297	1100.144	880.730
404.365	29.233	1099.743	880.024
405.380	29.305	1098.558	879.342
406.394	29.532	1097.532	879.523
407.409	29.300	1097.047	877.952
408.423	29.402	1096.421	877.860
409.438	29.414	1095.562	877.151
410.453	29.469	1095.117	876.977
411.467	29.426	1094.340	876.072
412.482	29.469	1093.633	875.635
413.496	29.462	1092.955	874.981
414.511	29.391	1092.493	874.199
415.526	29.332	1092.424	873.784
416.540	29.419	1092.046	873.818
417.555	29.521	1091.177	873.527
418.569	29.444	1090.762	872.756
419.584	29.463	1090.683	872.704
420.599	29.517	1090.191	872.488
421.613	102.833	1322.889	1457.416
422.628	95.814	1356.773	1457.556
