DTS Sentinel unit serial number:	SN413079Multiplexer serial number:	ORYXHardware model number:	OX4-SRSoftware version number:	ORYX F/W v4.00 Oryx Data Collector v3.7.2.0data status	okinstallation	princeton_trtdifferential loss correction	single-endedforward channel	channel 2reverse channel	N/Adate	2019/09/11time	10:37:11forward acquisition time	60.00reverse acquisition time	0.00gamma	496.2192k internal	0.2310k external	0.2310temperature offset calibration	0.9967default loss term (dB/km)	0.3790temperature slope calibration	1.0000multiplexer offset coefficient	1.0000multiplexer slope coefficient	1.0000fibre end	0.00T internal ref (°C)	36.56T ext. ref 1 (°C)	0.14T ext. ref 2 (°C)	33.92length (m)	temperature (°C)	Stokes	anti-Stokes-747.200	416.596	-0.056	-0.121
-746.185	-200.000	-0.072	0.356
-745.171	-200.000	-0.069	0.324
-744.156	-40.421	0.204	0.108
-743.142	-67.418	-0.190	-0.076
-742.127	-80.038	-0.477	0.163
-741.112	36.519	0.100	-0.090
-740.098	167.097	-0.154	0.221
-739.083	-200.000	0.032	0.163
-738.069	-200.000	-0.006	0.175
-737.054	374.078	-0.076	-0.157
-736.039	800.000	-0.036	0.148
-735.025	800.000	-0.041	0.123
-734.010	156.164	0.026	0.037
-732.996	-117.676	-0.288	-0.053
-731.981	207.669	-0.174	0.276
-730.966	105.714	-0.160	-0.192
-729.952	-28.059	-0.423	0.249
-728.937	800.000	0.122	-0.359
-727.923	-117.422	-0.329	-0.061
-726.908	800.000	-0.091	-0.267
-725.894	-200.000	-0.018	0.153
-724.879	336.455	0.093	0.184
-723.864	-200.000	-0.012	0.270
-722.850	-50.838	0.113	0.054
-721.835	450.126	0.099	-0.222
-720.821	-96.827	-0.230	-0.061
-719.806	458.641	-0.085	-0.193
-718.791	379.990	-0.067	-0.140
-717.777	618.326	0.080	-0.204
-716.762	800.000	-0.081	-0.269
-715.748	80.542	-0.323	-0.353
-714.733	322.651	0.039	-0.075
-713.718	-200.000	-0.009	0.135
-712.704	2.715	-0.142	-0.104
-711.689	-19.797	0.224	-0.140
-710.675	45.153	-0.057	0.053
-709.660	197.797	0.085	0.132
-708.645	-200.000	-0.048	0.238
-707.631	321.061	0.095	0.184
-706.616	800.000	0.030	-0.084
-705.602	800.000	0.074	0.252
-704.587	-89.361	0.210	0.063
-703.572	-22.633	-0.152	-0.093
-702.558	186.115	-0.026	0.039
-701.543	-79.065	-0.270	-0.093
-700.529	123.070	-0.155	0.197
-699.514	-151.157	0.191	0.015
-698.499	447.197	0.065	-0.144
-697.485	-200.000	0.039	-0.336
-696.470	64.964	-0.077	-0.079
-695.456	29.858	0.193	0.167
-694.441	-8.210	-0.274	-0.187
-693.426	-0.945	0.164	-0.117
-692.412	-69.498	0.115	0.045
-691.397	143.234	0.048	0.064
-690.383	-129.078	-0.632	0.090
-689.368	-15.208	0.378	-0.245
-688.354	73.367	0.229	-0.242
-687.339	154.748	-0.084	-0.116
-686.324	-144.337	0.283	-0.027
-685.310	-181.627	-0.143	0.003
-684.295	153.152	0.069	-0.095
-683.281	563.575	-0.015	0.036
-682.266	10.665	-0.274	-0.211
-681.251	307.734	-0.193	-0.364
-680.237	-65.930	-0.187	0.076
-679.222	127.410	-0.138	-0.177
-678.208	-200.000	-0.033	0.254
-677.193	52.729	0.110	0.107
-676.178	11.615	-0.110	0.085
-675.164	140.666	-0.165	-0.220
-674.149	12.765	0.102	0.080
-673.135	-85.320	-0.127	0.040
-672.120	-146.559	-0.205	-0.018
-671.105	-97.912	0.360	-0.094
-670.091	447.944	0.105	0.234
-669.076	-45.408	0.195	-0.098
-668.062	41.042	-0.207	-0.189
-667.047	-200.000	0.021	0.376
-666.032	522.094	0.081	-0.193
-665.018	216.026	-0.140	-0.225
-664.003	81.285	0.206	-0.225
-662.989	-82.227	-0.370	-0.122
-661.974	795.452	0.089	0.248
-660.959	-76.833	0.177	-0.063
-659.945	-200.000	0.026	-0.234
-658.930	20.393	-0.366	-0.299
-657.916	-54.729	0.067	-0.030
-656.901	-113.712	0.334	0.066
-655.886	29.157	-0.287	-0.246
-654.872	-40.838	-0.175	-0.092
-653.857	-16.495	-0.040	0.026
-652.843	-60.387	0.167	-0.072
-651.828	28.847	-0.041	-0.035
-650.814	98.659	-0.063	0.073
-649.799	-64.771	0.261	0.107
-648.784	22.430	0.293	-0.242
-647.770	231.278	0.120	-0.199
-646.755	287.328	-0.147	-0.270
-645.741	-61.276	0.028	0.012
-644.726	200.771	-0.092	-0.142
-643.711	-56.337	0.043	-0.019
-642.697	800.000	0.081	-0.245
-641.682	-116.660	0.382	-0.071
-640.668	-80.980	-0.319	-0.107
-639.653	532.867	0.105	-0.252
-638.638	-200.000	0.091	-0.519
-637.624	10.511	-0.466	-0.359
-636.609	604.506	-0.154	0.388
-635.595	-200.000	-0.052	0.349
-634.580	339.637	-0.049	0.097
-633.565	-53.062	-0.251	-0.117
-632.551	800.000	0.020	-0.082
-631.536	-90.501	-0.205	0.060
-630.522	89.500	-0.167	0.188
-629.507	-131.928	0.258	0.034
-628.492	-165.977	0.158	0.007
-627.478	800.000	0.030	0.091
-626.463	-200.000	-0.059	-0.265
-625.449	-60.670	-0.403	-0.173
-624.434	-18.357	0.229	-0.145
-623.419	106.052	0.052	0.062
-622.405	47.519	-0.137	0.129
-621.390	578.651	0.067	0.166
-620.376	800.000	0.057	-0.225
-619.361	-200.000	0.035	-0.273
-618.346	52.553	-0.107	0.103
-617.332	175.324	-0.202	0.295
-616.317	-57.245	0.064	-0.028
-615.303	698.832	-0.034	0.089
-614.288	-45.504	-0.089	0.045
-613.273	-65.859	0.151	0.061
-612.259	-64.369	-0.377	-0.155
-611.244	157.191	0.134	0.188
-610.230	0.492	0.196	0.142
-609.215	105.379	0.141	-0.169
-608.201	271.973	0.214	-0.382
-607.186	46.274	0.281	-0.263
-606.171	150.260	0.247	-0.338
-605.157	1.467	0.086	-0.062
-604.142	-83.616	0.199	-0.064
-603.128	10.678	0.201	-0.155
-602.113	-200.000	-0.026	-0.277
-601.098	-112.421	0.227	0.046
-600.084	-29.535	0.279	-0.161
-599.069	108.090	-0.094	-0.113
-598.055	73.708	0.243	-0.258
-597.040	763.772	-0.078	-0.214
-596.025	166.511	0.222	0.317
-595.011	282.061	-0.079	0.143
-593.996	-49.682	0.216	0.104
-592.982	45.088	0.094	0.087
-591.967	-200.000	-0.018	-0.086
-590.952	-7.194	0.069	0.047
-589.938	-66.943	-0.150	0.060
-588.923	800.000	0.148	-0.420
-587.909	-200.000	-0.033	-0.388
-586.894	52.076	-0.065	-0.062
-585.879	-117.123	-0.502	0.092
-584.865	800.000	-0.081	-0.257
-583.850	401.107	-0.126	-0.268
-582.836	231.700	0.021	0.035
-581.821	-139.882	-0.032	-0.003
-580.806	175.129	0.058	0.085
-579.792	-85.661	-0.048	0.015
-578.777	7.559	0.218	-0.164
-577.763	-9.712	0.193	0.130
-576.748	-200.000	-0.031	0.203
-575.733	54.815	0.173	0.168
-574.719	800.000	-0.041	0.170
-573.704	-200.000	-0.006	0.235
-572.690	-29.219	-0.097	-0.056
-571.675	-200.000	0.013	0.165
-570.661	-200.000	0.039	-0.398
-569.646	-200.000	0.006	0.270
-568.631	800.000	-0.083	0.261
-567.617	-91.481	-0.216	0.062
-566.602	-49.358	0.291	0.140
-565.588	205.872	-0.254	0.398
-564.573	-49.899	-0.130	0.062
-563.558	-200.000	-0.004	-0.093
-562.544	34.565	-0.092	0.081
-561.529	92.844	0.213	0.243
-560.515	-140.972	0.078	0.008
-559.500	102.470	-0.215	-0.253
-558.485	800.000	0.013	0.040
-557.471	-60.600	0.132	0.057
-556.456	-131.976	-0.477	-0.063
-555.442	800.000	0.062	-0.216
-554.427	237.314	0.093	-0.156
-553.412	213.445	0.090	0.143
-552.398	-69.739	0.132	0.051
-551.383	-170.111	-0.303	-0.011
-550.369	20.136	0.212	-0.172
-549.354	-111.621	0.220	0.045
-548.339	800.000	0.104	0.290
-547.325	224.274	-0.079	0.128
-546.310	-69.594	-0.271	-0.104
-545.296	-37.237	-0.083	0.045
-544.281	800.000	-0.112	0.379
-543.266	-200.000	0.013	-0.106
-542.252	8.155	0.205	-0.155
-541.237	-126.148	-0.223	0.034
-540.223	-8.922	0.208	-0.140
-539.208	259.049	0.027	-0.047
-538.193	-200.000	0.022	0.109
-537.179	-25.666	-0.177	0.105
-536.164	1.050	-0.287	0.208
-535.150	-200.000	-0.003	0.104
-534.135	125.895	0.073	0.093
-533.121	218.212	0.114	0.183
-532.106	27.067	0.052	-0.044
-531.091	-81.503	0.025	0.008
-530.077	244.318	-0.088	0.148
-529.062	-148.397	0.102	-0.008
-528.048	187.429	0.061	0.092
-527.033	57.129	-0.060	0.059
-526.018	480.268	-0.086	-0.197
-525.004	-200.000	0.022	-0.125
-523.989	566.413	-0.046	-0.112
-522.975	308.068	0.089	0.166
-521.960	204.102	0.052	0.081
-520.945	91.860	-0.183	0.207
-519.931	-11.054	-0.166	0.110
-518.916	439.606	0.061	-0.134
-517.902	-131.934	-0.099	0.013
-516.887	474.552	0.134	0.304
-515.872	196.013	-0.070	0.108
-514.858	16.640	-0.325	-0.259
-513.843	357.254	-0.144	0.289
-512.829	-43.370	0.122	-0.062
-511.814	85.808	0.029	-0.032
-510.799	-65.776	-0.033	0.013
-509.785	-120.616	-0.221	-0.038
-508.770	-101.801	-0.504	0.123
-507.756	106.901	-0.149	-0.178
-506.741	-92.644	0.105	-0.030
-505.726	800.000	-0.099	0.421
-504.712	726.370	-0.120	-0.322
-503.697	-27.649	-0.141	0.082
-502.683	-133.288	0.098	-0.012
-501.668	232.365	0.183	-0.303
-500.653	-200.000	0.026	-0.157
-499.639	-82.623	-0.167	0.054
-498.624	-100.148	0.368	0.092
-497.610	800.000	-0.081	-0.268
-496.595	-4.995	0.281	-0.194
-495.581	-200.000	-0.028	0.164
-494.566	20.632	-0.247	-0.201
-493.551	57.885	-0.156	-0.153
-492.537	-200.000	0.006	0.136
-491.522	23.585	0.347	-0.287
-490.508	-200.000	-0.213	-0.001
-489.493	-200.000	0.286	-0.000
-488.478	235.765	-0.221	0.367
-487.464	131.918	0.134	0.173
-486.449	-200.000	0.020	0.315
-485.435	-131.090	0.245	-0.033
-484.420	202.642	-0.230	-0.356
-483.405	262.218	0.070	0.123
-482.391	-152.261	0.420	0.031
-481.376	-200.000	0.001	0.106
-480.362	-133.613	0.128	-0.016
-479.347	800.000	0.028	-0.101
-478.332	206.309	-0.147	0.230
-477.318	303.929	0.091	0.170
-476.303	-126.829	0.086	-0.013
-475.289	-75.846	0.336	-0.120
-474.274	800.000	-0.091	-0.400
-473.259	109.997	0.142	-0.171
-472.245	-60.331	-0.089	-0.038
-471.230	-126.666	-0.461	0.069
-470.216	-200.000	0.010	-0.103
-469.201	-133.749	-0.060	0.007
-468.186	-10.393	-0.114	0.076
-467.172	65.619	-0.217	-0.221
-466.157	-200.000	0.021	-0.350
-465.143	9.461	0.128	0.097
-464.128	-104.437	-0.345	-0.080
-463.113	287.119	-0.101	-0.183
-462.099	-200.000	0.025	-0.146
-461.084	155.134	0.330	-0.456
-460.070	-200.000	-0.021	0.122
-459.055	272.259	0.104	-0.184
-458.040	-84.545	-0.322	0.102
-457.026	343.395	0.058	-0.113
-456.011	-200.000	0.051	-0.294
-454.997	246.853	-0.034	-0.058
-453.982	-200.000	0.070	0.368
-452.968	60.261	-0.106	0.105
-451.953	-200.000	0.002	-0.172
-450.938	0.443	0.242	-0.174
-449.924	-48.447	0.098	0.047
-448.909	-200.000	0.026	-0.174
-447.895	523.737	-0.103	-0.244
-446.880	142.285	-0.298	0.397
-445.865	194.968	-0.127	0.193
-444.851	-32.691	-0.341	0.190
-443.836	567.738	-0.080	-0.196
-442.822	420.209	0.106	0.228
-441.807	-155.176	-0.199	-0.013
-440.792	-127.457	-0.190	-0.028
-439.778	-91.822	0.397	-0.113
-438.763	-200.000	-0.040	-0.261
-437.749	31.457	0.310	0.267
-436.734	214.506	0.172	-0.273
-435.719	-2.436	-0.099	-0.070
-434.705	-200.000	-0.043	0.215
-433.690	74.502	0.177	-0.187
-432.676	471.708	-0.031	0.070
-431.661	-90.038	-0.374	-0.109
-430.646	22.299	0.320	0.262
-429.632	-200.000	0.039	0.358
-428.617	-67.336	-0.071	-0.028
-427.603	119.258	-0.241	0.299
-426.588	-166.062	-0.130	0.006
-425.573	-122.060	-0.302	0.050
-424.559	215.942	0.172	-0.274
-423.544	-134.589	-0.233	-0.028
-422.530	-200.000	-0.250	-0.000
-421.515	789.388	-0.057	0.156
-420.500	-200.000	-0.025	-0.182
-419.486	-165.850	-0.382	-0.016
-418.471	-42.363	-0.283	0.145
-417.457	-200.000	-0.002	-0.077
-416.442	41.230	0.114	0.104
-415.428	794.726	0.025	-0.069
-414.413	102.167	-0.073	-0.086
-413.398	-153.895	-0.052	0.004
-412.384	-101.585	0.218	0.053
-411.369	-28.375	0.193	-0.112
-410.355	-148.918	0.067	-0.005
-409.340	-93.022	-0.207	0.058
-408.325	771.941	-0.183	-0.501
-407.311	-122.684	0.449	0.073
-406.296	800.000	-0.057	-0.190
-405.282	421.247	0.027	0.059
-404.267	-95.445	0.331	0.089
-403.252	42.126	-0.145	-0.132
-402.238	250.329	0.118	-0.200
-401.223	-145.543	-0.421	-0.038
-400.209	-81.415	-0.238	0.079
-399.194	96.702	0.052	-0.059
-398.179	-143.553	0.211	-0.020
-397.165	800.000	-0.118	-0.377
-396.150	348.919	-0.211	-0.416
-395.136	82.533	0.263	0.286
-394.121	438.079	-0.124	0.270
-393.106	279.483	0.066	0.117
-392.092	-195.047	-0.318	0.002
-391.077	-200.000	-0.024	-0.196
-390.063	-200.000	-0.051	-0.364
-389.048	166.183	-0.225	-0.319
-388.033	-123.400	-0.097	-0.016
-387.019	800.000	-0.086	0.289
-386.004	-68.984	0.069	-0.026
-384.990	-200.000	0.042	0.199
-383.975	410.886	0.100	-0.212
-382.960	-86.414	0.160	0.049
-381.946	800.000	0.065	0.263
-380.931	-31.726	-0.250	-0.140
-379.917	-136.999	-0.269	-0.031
-378.902	-24.592	-0.161	0.096
-377.888	451.198	0.030	-0.066
-376.873	-163.671	0.139	-0.007
-375.858	93.029	0.194	0.220
-374.844	376.777	-0.199	-0.406
-373.829	-143.112	-0.110	0.011
-372.815	-200.000	0.001	0.131
-371.800	-91.016	-0.046	0.013
-370.785	74.683	0.141	0.148
-369.771	-155.382	-0.225	-0.015
-368.756	-161.209	0.208	0.011
-367.742	800.000	-0.042	-0.118
-366.727	11.479	0.165	-0.126
-365.712	149.711	0.134	-0.182
-364.698	24.690	0.089	0.074
-363.683	-0.401	-0.274	0.195
-362.669	-200.000	0.018	-0.220
-361.654	-200.000	-0.040	-0.365
-360.639	-126.695	0.257	0.038
-359.625	-33.072	-0.545	-0.303
-358.610	-45.322	0.445	-0.221
-357.596	-34.107	0.054	0.030
-356.581	417.807	0.031	0.066
-355.566	204.667	-0.149	0.231
-354.552	382.597	0.110	-0.226
-353.537	-200.000	0.035	0.210
-352.523	-200.000	-0.041	0.304
-351.508	-99.099	0.243	0.061
-350.493	800.000	0.022	0.090
-349.479	-200.000	0.011	0.156
-348.464	70.531	0.158	0.163
-347.450	94.958	0.230	0.262
-346.435	-200.000	0.042	0.245
-345.420	-200.000	0.067	0.344
-344.406	-66.557	-0.245	-0.097
-343.391	126.363	0.120	-0.152
-342.377	800.000	0.079	-0.221
-341.362	-155.886	0.127	0.008
-340.348	-145.318	0.040	-0.004
-339.333	155.372	-0.091	-0.125
-338.318	800.000	-0.053	0.177
-337.304	-82.715	-0.344	0.111
-336.289	108.913	-0.119	-0.143
-335.275	-35.272	-0.215	-0.117
-334.260	156.349	-0.168	-0.232
-333.245	315.123	0.070	-0.131
-332.231	75.700	0.171	-0.181
-331.216	-94.104	0.244	-0.067
-330.202	282.653	0.211	0.378
-329.187	800.000	0.064	-0.215
-328.172	-96.436	-0.209	0.055
-327.158	37.484	-0.065	0.058
-326.143	800.000	-0.059	0.244
-325.129	376.914	0.093	0.189
-324.114	-92.820	0.427	-0.119
-323.099	383.800	0.150	0.309
-322.085	-10.205	-0.173	0.114
-321.070	149.096	-0.027	0.037
-320.056	-129.135	0.071	-0.010
-319.041	-93.936	0.270	-0.074
-318.026	-48.866	0.170	-0.082
-317.012	-200.000	0.001	0.081
-315.997	-200.000	0.041	0.250
-314.983	453.579	-0.161	0.356
-313.968	-200.000	-0.033	0.166
-312.953	307.034	-0.031	0.058
-311.939	328.991	0.127	0.244
-310.924	-200.000	0.018	0.109
-309.910	-54.530	0.112	-0.051
-308.895	66.207	-0.243	-0.247
-307.880	-83.496	-0.303	0.097
-306.866	-148.639	0.074	-0.006
-305.851	65.589	-0.178	-0.179
-304.837	-162.331	0.145	-0.007
-303.822	800.000	0.072	0.200
-302.807	402.621	0.176	0.370
-301.793	-30.229	0.275	-0.156
-300.778	-147.402	0.122	-0.010
-299.764	141.804	-0.119	0.157
-298.749	66.830	0.308	-0.313
-297.735	186.268	0.075	0.111
-296.720	-181.997	0.177	-0.003
-295.705	6.605	0.301	-0.224
-294.691	279.492	-0.074	-0.132
-293.676	89.468	0.183	0.204
-292.662	-179.303	0.407	-0.009
-291.647	27.120	0.170	0.143
-290.632	-47.583	-0.212	0.103
-289.618	-200.000	-0.030	0.151
-288.603	-95.630	-0.196	0.052
-287.589	-40.536	0.140	-0.072
-286.574	-155.332	0.234	0.015
-285.559	206.774	-0.040	0.062
-284.545	-200.000	-0.008	-0.129
-283.530	-200.000	-0.017	0.268
-282.516	-67.109	-0.265	-0.104
-281.501	-34.624	0.423	-0.231
-280.486	-30.316	0.159	-0.090
-279.472	-10.974	-0.240	0.158
-278.457	-93.124	0.233	-0.065
-277.443	-143.527	-0.117	-0.011
-276.428	288.521	0.021	0.037
-275.413	156.218	-0.178	-0.245
-274.399	451.873	0.071	-0.156
-273.384	-148.685	0.342	-0.028
-272.370	-200.000	0.023	0.151
-271.355	275.297	-0.113	-0.200
-270.340	800.000	-0.119	0.331
-269.326	800.000	0.013	0.047
-268.311	123.623	-0.237	-0.296
-267.297	-200.000	0.020	-0.180
-266.282	-200.000	-0.020	0.441
-265.267	20.732	0.044	0.036
-264.253	-126.644	-0.453	-0.067
-263.238	-19.370	0.164	0.101
-262.224	106.827	-0.029	-0.035
-261.209	-4.446	0.161	0.111
-260.195	-76.553	-0.089	0.031
-259.180	586.099	0.079	0.195
-258.165	-74.537	0.072	0.026
-257.151	409.128	-0.159	0.336
-256.136	-200.000	-0.014	0.123
-255.122	-67.586	0.041	0.016
-254.107	252.123	0.105	-0.178
-253.092	284.216	-0.070	0.126
-252.078	306.743	-0.165	-0.305
-251.063	-73.520	-0.045	0.016
-250.049	289.661	0.079	0.143
-249.034	269.937	-0.069	0.120
-248.019	44.369	0.114	-0.105
-247.005	-14.200	-0.404	0.260
-245.990	-129.085	0.020	-0.003
-244.976	209.549	-0.129	0.202
-243.961	-43.924	0.200	0.100
-242.946	77.305	-0.113	-0.120
-241.932	-61.546	0.336	-0.141
-240.917	98.141	0.189	0.216
-239.903	155.674	-0.133	0.183
-238.888	125.894	0.013	0.016
-237.873	142.582	0.145	0.192
-236.859	-6.112	-0.149	-0.101
-235.844	-200.000	-0.009	0.339
-234.830	-97.959	0.219	0.056
-233.815	-115.129	0.225	-0.043
-232.800	800.000	-0.124	0.445
-231.786	91.534	0.109	0.121
-230.771	-200.000	0.019	0.324
-229.757	174.623	0.208	0.299
-228.742	-155.351	0.133	0.009
-227.727	-151.452	0.366	0.027
-226.713	-73.714	-0.175	-0.063
-225.698	-189.027	-0.442	-0.005
-224.684	93.068	0.132	0.149
-223.669	-17.495	0.478	0.299
-222.655	228.549	-0.127	-0.207
-221.640	-80.331	-0.373	-0.124
-220.625	-20.166	0.061	-0.038
-219.611	50.080	-0.107	0.100
-218.596	298.688	0.104	0.190
-217.582	-113.412	0.161	0.031
-216.567	-200.000	-0.007	-0.242
-215.552	-90.348	0.067	0.019
-214.538	-8.232	-0.039	0.026
-213.523	-108.402	0.153	0.033
-212.509	800.000	-0.051	0.211
-211.494	-176.460	-0.198	0.005
-210.479	-16.083	0.242	-0.153
-209.465	-200.000	0.046	-0.226
-208.450	-16.462	-0.201	-0.127
-207.436	-24.413	-0.201	0.119
-206.421	-65.753	0.148	-0.059
-205.406	-74.206	-0.307	-0.110
-204.392	-57.603	0.143	0.062
-203.377	86.211	-0.141	-0.154
-202.363	800.000	-0.142	-0.407
-201.348	99.158	0.172	-0.198
-200.333	389.943	0.132	0.273
-199.319	800.000	-0.039	0.122
-198.304	328.855	0.138	-0.263
-197.290	-62.676	-0.315	0.130
-196.275	800.000	-0.064	-0.205
-195.260	-47.772	-0.138	-0.067
-194.246	-200.000	0.009	0.159
-193.231	-82.687	0.322	-0.104
-192.217	-200.000	0.027	0.210
-191.202	81.270	-0.089	0.095
-190.187	800.000	-0.073	0.219
-189.173	-183.250	0.065	-0.001
-188.158	209.384	-0.091	-0.141
-187.144	800.000	0.096	0.306
-186.129	-88.550	0.096	-0.028
-185.114	-107.675	0.229	-0.050
-184.100	-52.562	0.574	-0.264
-183.085	137.603	0.117	-0.152
-182.071	298.493	-0.062	-0.113
-181.056	-141.393	-0.391	-0.039
-180.042	322.553	-0.141	-0.266
-179.027	-106.157	0.144	-0.032
-178.012	800.000	0.038	0.117
-176.998	-191.953	-0.098	0.001
-175.983	-107.033	0.352	0.077
-174.969	800.000	-0.073	0.259
-173.954	70.262	-0.201	-0.206
-172.939	-150.682	-0.185	0.014
-171.925	-200.000	0.020	-0.382
-170.910	337.184	-0.059	-0.114
-169.896	800.000	-0.095	-0.334
-168.881	-125.536	-0.160	0.024
-167.866	-200.000	-0.010	0.134
-166.852	-56.574	-0.044	0.019
-165.837	168.566	-0.031	-0.043
-164.823	246.775	0.091	0.152
-163.808	258.490	-0.090	-0.154
-162.793	-104.195	-0.455	-0.105
-161.779	-133.537	0.137	0.017
-160.764	-81.646	-0.187	0.061
-159.750	-57.174	0.170	-0.074
-158.735	-200.000	-0.005	0.043
-157.720	-31.085	-0.260	0.145
-156.706	299.290	0.121	0.221
-155.691	-52.899	-0.341	0.156
-154.677	-11.667	0.061	-0.040
-153.662	29.578	0.174	0.147
-152.647	-200.000	0.011	0.169
-151.633	150.882	-0.234	0.316
-150.618	41.718	-0.294	0.264
-149.604	201.527	0.131	-0.200
-148.589	-200.000	0.009	-0.074
-147.574	800.000	0.020	0.082
-146.560	-200.000	-0.002	0.110
-145.545	-29.966	-0.030	0.017
-144.531	800.000	-0.025	-0.091
-143.516	-144.084	0.034	-0.003
-142.502	117.581	-0.104	-0.127
-141.487	-200.000	-0.034	-0.167
-140.472	451.590	0.048	-0.104
-139.458	-106.025	-0.181	0.040
-138.443	-184.434	-0.123	0.002
-137.429	-150.697	-0.141	0.011
-136.414	387.576	-0.058	0.119
-135.399	470.711	0.038	-0.084
-134.385	306.901	-0.077	0.142
-133.370	-200.000	0.086	0.412
-132.356	512.849	0.073	-0.169
-131.341	-142.812	0.109	-0.011
-130.326	2.809	0.401	0.288
-129.312	-200.000	0.007	0.184
-128.297	-200.000	0.000	0.484
-127.283	-98.341	-0.094	0.024
-126.268	99.436	0.204	0.234
-125.253	183.715	0.107	0.157
-124.239	-200.000	-0.043	0.568
-123.224	-200.000	-0.033	0.332
-122.210	-200.000	-0.046	0.478
-121.195	-200.000	-0.010	0.119
-120.180	186.047	0.189	0.278
-119.166	272.797	0.103	-0.181
-118.151	336.524	-0.049	0.095
-117.137	308.479	0.045	-0.083
-116.122	-33.946	0.118	0.064
-115.107	-117.371	-0.068	0.012
-114.093	-24.649	-0.072	-0.043
-113.078	-200.000	0.069	-0.382
-112.064	-47.281	0.312	0.150
-111.049	-200.000	0.003	0.112
-110.034	465.045	0.074	-0.163
-109.020	257.144	0.255	-0.434
-108.005	265.341	0.029	-0.050
-106.991	22.414	-0.060	0.049
-105.976	24.786	-0.187	0.153
-104.962	322.334	-0.075	0.141
-103.947	-23.745	-0.071	-0.042
-102.932	-102.448	-0.197	0.047
-101.918	-200.000	-0.056	0.365
-100.903	-159.323	-0.176	0.010
-99.889	25.390	0.199	0.164
-98.874	543.110	-0.031	0.074
-97.859	255.651	-0.112	0.190
-96.845	-200.000	-0.057	0.537
-95.830	-158.309	0.207	-0.012
-94.816	-139.008	-0.200	0.021
-93.801	-60.042	-0.066	0.028
-92.786	122.101	-0.159	0.196
-91.772	-131.966	-0.327	-0.042
-90.757	-70.326	-0.159	0.060
-89.743	516.139	-0.121	0.279
-88.728	243.663	-0.201	0.334
-87.713	-200.000	0.232	-0.001
-86.699	48.867	-0.155	0.144
-85.684	-58.570	0.347	-0.149
-84.670	333.156	0.103	-0.197
-83.655	800.000	0.117	0.333
-82.640	65.081	-0.180	0.180
-81.626	176.703	-0.138	-0.198
-80.611	-200.000	0.002	0.216
-79.597	-35.632	0.066	-0.035
-78.582	-1.108	0.229	0.160
-77.567	-11.258	0.216	0.141
-76.553	333.885	0.024	0.045
-75.538	-8.660	0.130	0.087
-74.524	21.153	0.034	-0.027
-73.509	-200.000	0.024	0.274
-72.494	-51.346	-0.207	0.096
-71.480	-44.599	-0.156	-0.077
-70.465	800.000	-0.100	0.293
-69.451	167.386	-0.229	0.321
-68.436	-200.000	0.188	0.000
-67.422	51.919	0.096	-0.091
-66.407	-200.000	-0.025	-0.172
-65.392	98.376	-0.109	-0.124
-64.378	118.642	0.031	0.038
-63.363	800.000	0.029	0.116
-62.349	-52.638	-0.316	0.144
-61.334	32.644	-1.046	-0.894
-60.319	89.148	0.150	0.165
-59.305	-200.000	0.019	-0.598
-58.290	123.247	0.806	0.999
-57.276	546.928	0.614	1.453
-56.261	-200.000	87.721	500.646
-55.246	540.632	1377.196	3241.599
-54.232	184.333	2618.862	3833.635
-53.217	111.118	2354.365	2802.866
-52.203	45.428	1964.107	1791.577
-51.188	39.851	1747.010	1549.875
-50.173	36.997	1701.844	1487.876
-49.159	52.453	1743.930	1644.911
-48.144	55.908	1762.027	1688.723
-47.130	39.625	1722.005	1525.702
-46.115	36.626	1707.742	1489.938
-45.100	36.442	1702.672	1484.043
-44.086	36.403	1700.155	1481.491
-43.071	36.405	1697.451	1479.096
-42.057	36.438	1694.326	1476.564
-41.042	36.428	1692.693	1475.009
-40.027	36.421	1690.773	1473.217
-39.013	36.421	1688.643	1471.304
-37.998	36.395	1686.889	1469.524
-36.984	36.509	1685.051	1468.727
-35.969	36.645	1683.769	1468.588
-34.954	36.605	1682.439	1467.063
-33.940	36.480	1680.830	1464.653
-32.925	36.508	1679.040	1463.251
-31.911	36.562	1677.319	1462.101
-30.896	36.564	1675.175	1460.188
-29.881	36.549	1673.500	1458.558
-28.867	36.529	1672.061	1457.091
-27.852	36.561	1670.402	1455.834
-26.838	36.472	1669.379	1454.215
-25.823	36.572	1667.511	1453.280
-24.809	36.624	1665.867	1452.180
-23.794	36.665	1664.339	1451.099
-22.779	36.579	1663.241	1449.436
-21.765	36.602	1661.481	1448.017
-20.750	36.537	1660.010	1446.191
-19.736	36.598	1658.133	1444.959
-18.721	36.626	1656.629	1443.799
-17.706	36.695	1654.932	1442.773
-16.692	36.603	1653.199	1440.521
-15.677	36.603	1652.404	1439.771
-14.663	36.573	1650.914	1438.191
-13.648	36.568	1649.895	1437.211
-12.633	36.604	1647.991	1435.760
-11.619	36.607	1645.955	1433.952
-10.604	36.598	1644.790	1432.814
-9.590	36.558	1643.339	1431.198
-8.575	36.666	1642.049	1430.818
-7.560	36.630	1641.341	1429.880
-6.546	36.553	1640.147	1428.212
-5.531	36.508	1639.122	1426.934
-4.517	36.612	1637.234	1425.998
-3.502	36.592	1636.692	1425.318
-2.487	36.748	1633.987	1424.060
-1.473	36.545	1624.087	1413.885
-0.458	34.486	1604.637	1381.998
0.556	29.350	1605.639	1351.947
1.571	27.166	1630.634	1356.593
2.586	26.586	1644.913	1363.979
3.600	23.186	1588.456	1292.270
4.615	11.932	1468.955	1118.506
5.629	2.050	1397.853	999.790
6.644	0.306	1387.837	981.188
7.659	0.102	1386.629	978.923
8.673	0.173	1385.384	978.420
9.688	-0.001	1384.249	976.399
10.702	-0.232	1381.350	972.768
11.717	3.426	1388.771	1001.713
12.731	14.048	1409.820	1086.564
13.746	22.072	1423.153	1149.476
14.761	23.171	1424.117	1157.346
15.775	23.391	1423.605	1158.266
16.790	23.433	1423.278	1158.171
17.804	23.553	1422.340	1158.089
18.819	23.638	1422.210	1158.434
19.834	23.740	1421.559	1158.466
20.848	23.701	1420.796	1157.489
21.863	23.697	1420.245	1156.909
22.877	23.772	1418.719	1156.053
23.892	23.821	1417.548	1155.313
24.907	23.812	1417.088	1154.783
25.921	23.810	1416.022	1153.798
26.936	23.710	1415.351	1152.496
27.950	23.784	1414.250	1151.979
28.965	23.726	1413.161	1150.615
29.980	23.709	1411.604	1149.139
30.994	23.722	1410.523	1148.236
32.009	23.794	1409.389	1147.676
33.023	23.713	1407.986	1145.909
34.038	23.737	1407.379	1145.471
35.053	23.779	1406.149	1144.638
36.067	23.749	1404.842	1143.280
37.082	23.697	1404.225	1142.342
38.096	23.725	1403.018	1141.438
39.111	23.761	1402.279	1140.969
40.126	23.734	1401.590	1140.135
41.140	23.770	1400.867	1139.674
42.155	23.782	1400.603	1139.437
43.169	23.695	1400.901	1139.019
44.184	23.749	1399.822	1138.387
45.199	23.754	1399.546	1138.097
46.213	23.794	1398.748	1137.605
47.228	23.814	1397.823	1136.876
48.242	23.776	1396.794	1135.696
49.257	23.823	1395.309	1134.691
50.271	23.797	1394.254	1133.562
51.286	23.702	1393.121	1131.938
52.301	23.744	1391.563	1130.840
53.315	23.735	1390.637	1129.928
54.330	23.778	1390.230	1129.773
55.344	23.792	1388.681	1128.502
56.359	23.848	1387.176	1127.533
57.374	23.733	1386.821	1126.418
58.388	23.700	1386.089	1125.514
59.403	23.756	1386.021	1125.714
60.417	23.786	1384.962	1124.942
61.432	23.716	1384.741	1124.222
62.447	23.715	1383.761	1123.324
63.461	23.731	1382.128	1121.996
64.476	23.737	1381.754	1121.628
65.490	23.780	1380.374	1120.682
66.505	23.781	1378.710	1119.243
67.520	23.771	1377.500	1118.095
68.534	23.783	1376.437	1117.209
69.549	23.729	1375.276	1115.827
70.563	23.841	1374.153	1115.523
71.578	23.775	1373.128	1114.178
72.593	23.759	1372.883	1113.780
73.607	23.763	1371.839	1112.860
74.622	23.771	1371.798	1112.780
75.636	23.798	1371.006	1112.208
76.651	23.754	1370.098	1111.093
77.666	23.766	1369.275	1110.403
78.680	23.617	1369.047	1109.192
79.695	23.746	1368.026	1109.073
80.709	23.646	1367.272	1107.738
81.724	23.736	1366.273	1107.391
82.739	23.762	1365.353	1106.708
83.753	23.740	1364.260	1105.587
84.768	23.709	1363.233	1104.466
85.782	23.707	1362.061	1103.408
86.797	23.769	1360.656	1102.553
87.812	23.800	1359.489	1101.705
88.826	23.688	1358.525	1100.130
89.841	23.792	1357.358	1099.735
90.855	23.894	1356.211	1099.338
91.870	23.770	1355.775	1098.119
92.884	23.910	1354.751	1098.057
93.899	23.779	1353.878	1096.445
94.914	23.846	1353.113	1096.139
95.928	23.682	1352.840	1094.812
96.943	23.867	1351.254	1094.569
97.957	23.909	1350.477	1094.101
98.972	23.806	1349.842	1092.856
99.987	23.843	1348.941	1092.261
101.001	23.746	1348.122	1090.905
102.016	23.778	1346.943	1090.047
103.030	23.803	1346.014	1089.357
104.045	23.811	1345.028	1088.506
105.060	23.838	1344.302	1087.988
106.074	23.790	1343.126	1086.652
107.089	23.887	1342.150	1086.355
108.103	23.857	1341.327	1085.410
109.118	23.856	1340.297	1084.476
110.133	23.904	1338.866	1083.513
111.147	23.932	1337.486	1082.472
112.162	23.895	1336.513	1081.365
113.176	23.845	1335.457	1080.113
114.191	23.806	1335.236	1079.595
115.206	23.903	1333.794	1078.922
116.220	23.802	1332.816	1077.424
117.235	23.875	1331.515	1076.720
118.249	23.768	1330.942	1075.516
119.264	23.848	1329.963	1075.114
120.279	23.957	1328.784	1074.725
121.293	23.975	1328.185	1074.253
122.308	23.945	1327.368	1073.316
123.322	23.886	1326.648	1072.283
124.337	23.935	1325.637	1071.668
125.352	23.965	1324.335	1070.700
126.366	24.067	1323.512	1070.553
127.381	23.899	1322.627	1068.734
128.395	23.879	1321.843	1067.884
129.410	23.985	1321.099	1067.824
130.424	23.855	1320.473	1066.445
131.439	23.844	1319.543	1065.534
132.454	23.903	1318.833	1065.219
133.468	23.943	1317.992	1064.684
134.483	23.971	1317.184	1064.106
135.497	23.999	1316.223	1063.400
136.512	23.930	1315.278	1062.132
137.527	23.918	1314.432	1061.280
138.541	23.899	1313.232	1060.106
139.556	23.934	1311.572	1058.885
140.570	23.899	1310.815	1057.970
141.585	23.889	1309.713	1056.927
142.600	23.908	1308.564	1056.019
143.614	23.918	1307.914	1055.461
144.629	23.880	1306.863	1054.290
145.643	23.878	1305.407	1053.012
146.658	23.775	1304.985	1051.971
147.673	23.911	1303.994	1051.881
148.687	23.848	1302.963	1050.583
149.702	23.858	1301.040	1049.004
150.716	23.899	1300.150	1048.435
151.731	23.919	1298.665	1047.261
152.746	23.855	1298.110	1046.342
153.760	23.909	1297.169	1045.812
154.775	23.846	1296.449	1044.767
155.789	23.885	1295.145	1043.852
156.804	23.838	1294.771	1043.181
157.819	23.884	1293.905	1042.664
158.833	23.975	1292.771	1042.189
159.848	23.991	1291.820	1041.425
160.862	23.875	1291.052	1040.036
161.877	23.961	1290.303	1039.839
162.892	24.050	1289.461	1039.588
163.906	24.010	1288.873	1038.790
164.921	24.054	1288.363	1038.542
165.935	23.923	1287.839	1037.266
166.950	24.064	1286.784	1037.147
167.964	23.951	1286.071	1035.821
168.979	23.994	1285.666	1035.653
169.994	24.116	1284.774	1035.555
171.008	24.070	1284.297	1034.810
172.023	24.045	1283.375	1033.832
173.037	24.103	1282.650	1033.493
174.052	24.061	1282.223	1032.811
175.067	24.005	1281.597	1031.894
176.081	24.124	1280.407	1031.530
177.096	24.011	1279.530	1030.079
178.110	24.060	1278.621	1029.538
179.125	24.129	1277.579	1029.010
180.140	24.177	1276.483	1028.312
181.154	24.017	1275.625	1026.605
182.169	23.955	1274.439	1025.203
183.183	24.083	1273.347	1024.975
184.198	24.125	1272.360	1024.326
185.213	24.048	1271.417	1023.036
186.227	24.165	1270.384	1022.788
187.242	24.073	1269.465	1021.429
188.256	24.237	1268.512	1021.514
189.271	24.190	1267.737	1020.528
190.286	24.150	1267.144	1019.730
191.300	24.110	1266.569	1018.947
192.315	24.042	1266.309	1018.263
193.329	24.042	1265.909	1017.850
194.344	24.081	1265.173	1017.391
195.359	24.115	1264.781	1017.181
196.373	24.122	1264.160	1016.630
197.388	24.128	1263.991	1016.440
198.402	24.028	1263.691	1015.534
199.417	24.157	1262.950	1015.584
200.432	24.129	1262.417	1014.906
201.446	24.073	1261.777	1013.983
202.461	24.164	1260.745	1013.586
203.475	24.076	1260.414	1012.724
204.490	24.097	1259.127	1011.722
205.504	24.090	1257.851	1010.568
206.519	24.181	1257.087	1010.384
207.534	24.175	1256.260	1009.594
208.548	24.145	1255.291	1008.554
209.563	24.118	1254.421	1007.617
210.577	24.220	1253.721	1007.538
211.592	24.168	1252.508	1006.181
212.607	24.233	1251.745	1005.848
213.621	24.368	1250.893	1005.836
214.636	24.264	1250.383	1004.752
215.650	24.268	1249.288	1003.801
216.665	24.235	1248.145	1002.611
217.680	24.226	1247.591	1002.023
218.694	24.219	1247.099	1001.505
219.709	24.266	1246.086	1000.867
220.723	24.344	1245.411	1000.672
221.738	24.275	1244.641	999.580
222.753	24.106	1243.861	997.913
223.767	24.294	1243.272	998.408
224.782	24.343	1242.871	998.273
225.796	24.376	1242.183	997.815
226.811	24.351	1241.709	997.206
227.826	24.361	1241.517	997.017
228.840	24.342	1240.452	995.971
229.855	24.341	1239.910	995.441
230.869	24.315	1239.233	994.668
231.884	24.336	1238.571	994.165
232.899	24.361	1237.574	993.413
233.913	24.337	1237.072	992.792
234.928	24.363	1236.890	992.697
235.942	24.452	1235.693	992.144
236.957	24.356	1235.525	991.389
237.972	24.372	1234.599	990.648
238.986	24.371	1233.444	989.627
240.001	24.404	1233.072	989.426
241.015	24.498	1232.364	989.290
242.030	24.342	1231.908	987.972
243.045	24.481	1230.864	987.816
244.059	24.573	1230.015	987.556
245.074	24.569	1229.258	986.839
246.088	24.553	1228.656	986.179
247.103	24.627	1227.439	985.526
248.117	24.425	1226.884	983.878
249.132	24.532	1226.252	983.874
250.147	24.545	1225.572	983.313
251.161	24.361	1225.235	981.944
252.176	24.640	1223.828	982.264
253.190	24.497	1223.455	981.091
254.205	24.520	1223.189	980.918
255.220	24.629	1222.407	980.799
256.234	24.650	1221.793	980.337
257.249	24.613	1221.169	979.546
258.263	24.615	1220.512	978.942
259.278	24.637	1219.913	978.497
260.293	24.652	1219.228	977.944
261.307	24.686	1218.955	977.822
262.322	24.647	1217.849	976.637
263.336	24.641	1217.604	976.323
264.351	24.679	1217.160	976.085
265.366	24.627	1216.547	975.223
266.380	24.580	1215.518	974.055
267.395	24.750	1214.680	974.226
268.409	24.579	1214.333	972.927
269.424	24.626	1213.873	972.730
270.439	24.707	1213.334	972.652
271.453	24.660	1212.460	971.612
272.468	24.678	1211.382	970.757
273.482	24.684	1211.200	970.559
274.497	24.665	1210.824	970.068
275.512	24.755	1210.285	970.040
276.526	24.634	1209.492	968.665
277.541	24.692	1208.712	968.264
278.555	24.804	1207.971	968.195
279.570	24.795	1207.451	967.644
280.585	24.813	1206.424	966.829
281.599	24.783	1205.720	966.019
282.614	24.804	1204.749	965.269
283.628	24.880	1203.581	964.658
284.643	24.788	1202.853	963.490
285.657	24.864	1202.032	963.160
286.672	24.815	1201.142	962.098
287.687	24.880	1200.520	961.860
288.701	24.829	1200.164	961.221
289.716	24.855	1199.568	960.796
290.730	24.954	1198.109	960.073
291.745	24.950	1197.448	959.439
292.760	24.882	1197.459	958.997
293.774	24.929	1196.586	958.463
294.789	24.897	1196.537	958.169
295.803	24.950	1195.356	957.422
296.818	24.994	1194.429	956.829
297.833	24.958	1194.022	956.227
298.847	24.961	1193.399	955.661
299.862	25.024	1192.350	955.069
300.876	25.052	1191.603	954.534
301.891	25.095	1191.137	954.307
302.906	25.091	1190.501	953.692
303.920	25.008	1189.839	952.637
304.935	25.090	1189.322	952.576
305.949	25.028	1189.019	951.920
306.964	24.923	1188.615	950.952
307.979	25.090	1187.539	950.894
308.993	25.077	1186.898	950.226
310.008	25.075	1186.102	949.497
311.022	25.086	1185.396	948.906
312.037	25.148	1184.716	948.605
313.052	24.980	1183.730	946.842
314.066	25.126	1182.691	946.701
315.081	25.106	1182.258	946.162
316.095	25.092	1181.599	945.477
317.110	25.106	1181.109	945.075
318.125	25.175	1180.372	944.768
319.139	25.156	1180.098	944.361
320.154	25.144	1179.201	943.499
321.168	25.237	1178.440	943.293
322.183	25.080	1178.343	942.308
323.197	25.191	1177.433	942.082
324.212	25.101	1176.856	941.061
325.227	25.158	1176.601	941.073
326.241	25.114	1176.067	940.335
327.256	25.217	1175.191	940.092
328.270	25.211	1174.015	939.032
329.285	25.205	1173.183	938.256
330.300	25.251	1172.317	937.722
331.314	25.297	1171.467	937.199
332.329	25.335	1170.832	936.801
333.343	25.323	1170.641	936.506
334.358	25.300	1169.234	935.179
335.373	25.357	1168.668	934.937
336.387	25.359	1167.914	934.263
337.402	25.380	1167.204	933.722
338.416	25.324	1166.637	932.894
339.431	25.401	1166.081	932.767
340.446	25.396	1165.788	932.422
341.460	25.487	1164.645	931.897
342.475	25.395	1163.937	930.772
343.489	25.448	1162.939	930.169
344.504	25.509	1162.109	929.739
345.519	25.583	1161.063	929.199
346.533	25.516	1160.611	928.410
347.548	25.436	1160.034	927.456
348.562	25.516	1159.266	927.171
349.577	25.411	1158.579	925.997
350.592	25.391	1157.747	925.149
351.606	25.365	1157.224	924.516
352.621	25.533	1156.645	924.836
353.635	25.499	1156.101	924.144
354.650	25.603	1154.788	923.542
355.665	25.563	1154.474	923.005
356.679	25.622	1153.774	922.666
357.694	25.528	1153.560	921.932
358.708	25.548	1152.512	921.118
359.723	25.633	1151.622	920.757
360.738	25.532	1151.258	919.871
361.752	25.633	1150.652	919.819
362.767	25.666	1149.881	919.291
363.781	25.664	1149.597	918.974
364.796	25.631	1149.404	918.567
365.810	25.650	1148.682	918.006
366.825	25.579	1147.964	916.991
367.840	25.697	1147.576	917.200
368.854	25.695	1146.583	916.315
369.869	25.802	1145.495	915.909
370.883	25.832	1144.782	915.412
371.898	25.720	1144.572	914.594
372.913	25.782	1143.536	913.999
373.927	25.779	1143.204	913.638
374.942	25.877	1142.534	913.520
375.956	25.881	1142.042	913.063
376.971	25.889	1141.536	912.617
377.986	25.909	1141.079	912.276
379.000	25.845	1140.782	911.633
380.015	25.931	1140.229	911.546
381.029	25.851	1139.505	910.483
382.044	25.787	1138.783	909.501
383.059	25.866	1137.829	909.055
384.073	26.019	1136.911	909.012
385.088	25.884	1136.647	908.040
386.102	26.007	1135.455	907.627
387.117	25.955	1134.742	906.717
388.132	25.915	1133.673	905.579
389.146	25.892	1133.380	905.153
390.161	26.006	1132.578	905.001
391.175	25.906	1131.832	903.826
392.190	25.958	1131.262	903.551
393.205	25.988	1130.728	903.195
394.219	25.877	1130.062	902.029
395.234	25.986	1129.021	901.661
396.248	26.086	1127.817	901.121
397.263	26.106	1126.852	900.368
398.278	26.019	1126.943	899.928
399.292	26.061	1126.353	899.584
400.307	26.145	1125.489	899.235
401.321	26.094	1124.885	898.418
402.336	26.068	1124.383	897.810
403.350	26.072	1123.808	897.292
404.365	26.104	1122.974	896.703
405.380	26.068	1122.251	895.866
406.394	26.133	1121.361	895.401
407.409	26.217	1120.550	895.088
408.423	26.254	1119.661	894.485
409.438	26.259	1119.189	894.051
410.453	26.265	1118.840	893.725
411.467	26.310	1117.680	892.941
412.482	26.283	1117.054	892.228
413.496	26.416	1116.189	892.117
414.511	26.354	1115.711	891.348
415.526	26.213	1115.191	890.161
416.540	26.327	1114.608	890.177
417.555	26.334	1113.917	889.579
418.569	26.286	1113.934	889.278
419.584	26.391	1113.328	889.233
420.599	26.285	1112.967	888.345
421.613	143.959	1402.683	1786.745
422.628	133.871	1444.893	1786.877
