DTS Sentinel unit serial number:	SN413079Multiplexer serial number:	ORYXHardware model number:	OX4-SRSoftware version number:	ORYX F/W v4.00 Oryx Data Collector v3.7.2.0data status	okinstallation	princeton_trtdifferential loss correction	single-endedforward channel	channel 2reverse channel	N/Adate	2019/09/12time	01:25:11forward acquisition time	60.00reverse acquisition time	0.00gamma	496.2192k internal	0.2326k external	0.2326temperature offset calibration	1.0088default loss term (dB/km)	0.3790temperature slope calibration	1.0000multiplexer offset coefficient	1.0000multiplexer slope coefficient	1.0000fibre end	0.00T internal ref (°C)	32.97T ext. ref 1 (°C)	2.12T ext. ref 2 (°C)	27.92length (m)	temperature (°C)	Stokes	anti-Stokes-747.200	-165.416	0.137	-0.006
-746.185	800.000	0.134	0.433
-745.171	339.203	-0.134	0.263
-744.156	-200.000	0.036	0.223
-743.142	-87.527	0.161	-0.049
-742.127	604.778	0.033	0.083
-741.112	-53.427	-0.322	0.149
-740.098	-127.739	-0.160	0.023
-739.083	234.352	0.128	0.213
-738.069	-146.928	-0.223	-0.019
-737.054	93.196	-0.075	0.086
-736.039	-40.866	0.220	0.115
-735.025	103.441	0.101	0.120
-734.010	441.608	-0.070	0.155
-732.996	-126.095	-0.386	0.058
-731.981	44.999	0.067	0.062
-730.966	-89.701	0.066	-0.019
-729.952	160.201	-0.137	-0.193
-728.937	40.546	-0.124	0.113
-727.923	108.705	-0.165	0.199
-726.908	49.156	0.151	-0.143
-725.894	-123.080	0.199	0.032
-724.879	-157.654	0.112	0.007
-723.864	156.317	0.073	0.102
-722.850	800.000	-0.123	0.441
-721.835	-51.295	0.309	-0.146
-720.821	17.643	-0.186	-0.149
-719.806	216.432	-0.138	0.222
-718.791	765.867	0.020	-0.055
-717.777	-146.780	-0.071	0.006
-716.762	-200.000	0.015	-0.206
-715.748	-200.000	0.068	0.405
-714.733	-189.925	0.056	0.001
-713.718	535.553	0.136	0.324
-712.704	800.000	-0.084	-0.244
-711.689	494.919	0.043	-0.100
-710.675	-20.864	-0.198	-0.122
-709.660	22.075	-0.200	0.164
-708.645	-200.000	-0.008	-0.202
-707.631	-61.037	0.045	-0.019
-706.616	-5.778	-0.233	-0.161
-705.602	-200.000	0.022	-0.169
-704.587	36.813	-0.239	0.212
-703.572	-139.168	0.218	0.024
-702.558	-200.000	-0.103	0.520
-701.543	-42.660	0.073	0.037
-700.529	4.697	0.237	-0.175
-699.514	-28.385	0.070	0.041
-698.499	-90.315	-0.151	0.044
-697.485	5.750	0.206	-0.153
-696.470	-200.000	0.052	0.368
-695.456	-200.000	0.015	0.086
-694.441	157.217	0.189	0.263
-693.426	-135.538	0.188	0.022
-692.412	-49.213	0.117	0.056
-691.397	800.000	0.033	-0.101
-690.383	-200.000	-0.064	0.288
-689.368	-18.210	-0.158	-0.100
-688.354	-200.000	0.018	-0.132
-687.339	-40.406	0.216	-0.113
-686.324	4.302	-0.073	-0.053
-685.310	43.939	-0.209	0.193
-684.295	-200.000	-0.026	0.243
-683.281	680.449	0.109	0.285
-682.266	215.459	0.154	-0.246
-681.251	144.240	0.030	-0.040
-680.237	-160.581	-0.289	-0.016
-679.222	188.489	0.072	-0.109
-678.208	-69.069	0.137	0.053
-677.193	269.974	0.050	-0.088
-676.178	51.580	-0.113	-0.109
-675.164	-97.953	-0.160	0.041
-674.149	-200.000	-0.047	0.362
-673.135	-200.000	0.023	0.224
-672.120	-200.000	-0.048	-0.260
-671.105	66.707	-0.043	0.044
-670.091	16.430	-0.188	-0.149
-669.076	-13.967	-0.094	-0.061
-668.062	-15.425	0.065	-0.042
-667.047	403.078	-0.085	0.180
-666.032	35.729	-0.078	-0.069
-665.018	-200.000	-0.008	-0.323
-664.003	-200.000	0.062	-0.289
-662.989	303.847	-0.149	-0.277
-661.974	-135.080	-0.337	0.041
-660.959	-200.000	-0.059	-0.272
-659.945	235.226	-0.085	-0.142
-658.930	-200.000	0.059	-0.349
-657.916	-27.338	0.161	0.094
-656.901	118.768	-0.082	0.102
-655.886	800.000	-0.041	0.135
-654.872	362.450	-0.057	-0.115
-653.857	-200.000	0.026	0.217
-652.843	-144.892	0.204	-0.019
-651.828	761.793	0.037	-0.102
-650.814	800.000	-0.097	0.278
-649.799	449.581	-0.174	0.386
-648.784	391.477	-0.105	-0.220
-647.770	-109.122	0.399	0.085
-646.755	198.610	-0.150	-0.231
-645.741	-131.250	0.470	-0.063
-644.726	231.568	0.106	-0.174
-643.711	132.587	0.091	-0.118
-642.697	47.413	0.204	-0.191
-641.682	361.990	0.138	0.278
-640.668	-200.000	0.011	0.271
-639.653	-200.000	-0.070	-0.413
-638.638	800.000	0.059	-0.223
-637.624	200.374	-0.020	-0.031
-636.609	-48.734	0.193	-0.093
-635.595	-124.166	-0.135	-0.021
-634.580	-123.687	0.273	-0.044
-633.565	-95.732	-0.199	0.053
-632.551	-95.788	-0.245	0.066
-631.536	253.221	0.192	-0.328
-630.522	258.717	0.050	0.086
-629.507	-4.633	0.285	0.198
-628.492	-123.791	-0.333	-0.053
-627.478	800.000	-0.089	-0.340
-626.463	-30.922	-0.151	-0.086
-625.449	181.422	0.096	-0.142
-624.434	-168.913	-0.340	-0.013
-623.419	-200.000	-0.013	-0.197
-622.405	-136.578	-0.391	-0.045
-621.390	165.223	0.125	-0.177
-620.376	-113.742	-0.128	-0.025
-619.361	-106.980	-0.127	-0.028
-618.346	-200.000	-0.003	0.116
-617.332	14.487	-0.215	0.168
-616.317	86.210	-0.175	-0.194
-615.303	-200.000	0.010	-0.251
-614.288	-200.000	0.059	-0.314
-613.273	-200.000	-0.090	0.423
-612.259	-114.811	0.311	0.060
-611.244	-114.243	0.113	0.022
-610.230	-72.285	-0.205	-0.076
-609.215	-77.043	-0.453	-0.158
-608.201	-200.000	-0.075	-0.343
-607.186	-104.430	0.211	-0.049
-606.171	-95.893	-0.259	-0.069
-605.157	-37.288	-0.029	0.016
-604.142	35.448	-0.188	0.166
-603.128	742.267	0.058	-0.155
-602.113	92.025	-0.177	-0.200
-601.098	-44.428	0.297	-0.149
-600.084	-200.000	-0.034	-0.171
-599.069	-58.858	-0.198	0.086
-598.055	26.321	-0.374	0.314
-597.040	-58.177	0.466	-0.204
-596.025	375.715	0.061	0.125
-595.011	-61.897	0.183	0.077
-593.996	-178.946	0.238	-0.005
-592.982	-86.800	-0.291	0.089
-591.967	-22.694	-0.455	0.275
-590.952	800.000	0.075	0.261
-589.938	201.391	-0.127	0.196
-588.923	61.078	0.165	0.164
-587.909	224.135	0.221	-0.358
-586.894	41.577	0.131	-0.119
-585.879	-200.000	0.002	0.036
-584.865	-32.024	-0.131	-0.073
-583.850	81.195	-0.312	-0.338
-582.836	800.000	-0.017	-0.064
-581.821	-120.994	0.323	-0.054
-580.806	453.821	-0.134	-0.297
-579.792	-151.067	0.302	-0.023
-578.777	800.000	-0.011	0.038
-577.763	265.782	0.088	0.153
-576.748	-48.651	0.053	-0.025
-575.733	-67.727	0.280	0.110
-574.719	-143.160	-0.037	0.004
-573.704	-200.000	0.005	-0.206
-572.690	412.503	-0.194	-0.413
-571.675	90.874	0.280	0.315
-570.661	117.182	0.161	-0.198
-569.646	305.814	-0.135	-0.252
-568.631	104.489	-0.097	0.115
-567.617	-63.438	-0.278	0.114
-566.602	-24.047	-0.028	-0.017
-565.588	107.578	-0.039	-0.046
-564.573	-71.996	0.407	0.152
-563.558	-65.421	-0.287	0.116
-562.544	-46.080	0.247	0.122
-561.529	-129.294	0.101	-0.014
-560.515	800.000	-0.053	-0.155
-559.500	334.769	-0.172	-0.334
-558.485	-23.450	0.221	-0.133
-557.471	25.851	-0.058	0.048
-556.456	-28.039	0.241	-0.140
-555.442	800.000	0.029	0.113
-554.427	-28.373	0.232	0.134
-553.412	-95.353	-0.189	0.051
-552.398	-153.627	-0.167	-0.012
-551.383	302.455	-0.075	-0.138
-550.369	585.055	-0.148	0.364
-549.354	-200.000	0.031	0.375
-548.339	34.476	0.156	-0.137
-547.325	-200.000	-0.001	0.244
-546.310	800.000	0.044	0.159
-545.296	421.815	-0.041	-0.088
-544.281	-25.949	-0.056	0.033
-543.266	-74.512	0.154	0.056
-542.252	-35.688	0.134	0.073
-541.237	323.896	0.131	-0.250
-540.223	800.000	-0.075	0.211
-539.208	357.642	-0.233	0.464
-538.193	-68.875	-0.021	-0.008
-537.179	153.702	-0.327	-0.448
-536.164	-200.000	0.008	-0.195
-535.150	-126.103	-0.205	-0.031
-534.135	800.000	-0.082	-0.259
-533.121	19.949	-0.142	0.114
-532.106	23.315	0.045	-0.037
-531.091	11.620	0.229	0.176
-530.077	-200.000	-0.003	-0.127
-529.062	-153.290	0.175	-0.012
-528.048	-186.035	-0.048	-0.001
-527.033	270.334	0.084	0.148
-526.018	-90.609	-0.073	-0.021
-525.004	27.948	0.146	-0.123
-523.989	148.815	0.167	-0.225
-522.975	-88.370	0.437	0.131
-521.960	-200.000	0.037	0.175
-520.945	77.906	-0.178	0.189
-519.931	231.366	0.091	0.149
-518.916	48.860	0.066	0.062
-517.902	800.000	-0.062	0.194
-516.887	715.648	0.045	0.120
-515.872	23.037	0.239	0.196
-514.858	241.654	-0.239	-0.399
-513.843	-122.881	-0.318	-0.051
-512.829	-175.355	0.155	0.004
-511.814	406.135	0.083	-0.176
-510.799	345.346	-0.073	0.142
-509.785	-102.210	-0.415	-0.100
-508.770	-200.000	0.014	0.197
-507.756	-54.900	-0.315	-0.142
-506.741	-30.767	0.111	0.063
-505.726	-161.325	0.153	0.008
-504.712	41.262	0.057	0.052
-503.697	100.772	-0.187	0.217
-502.683	235.284	-0.119	-0.196
-501.668	-101.660	0.125	0.030
-500.653	-121.524	0.133	-0.022
-499.639	800.000	-0.022	0.066
-498.624	-101.489	-0.301	0.073
-497.610	800.000	0.077	-0.307
-496.595	-51.027	-0.286	0.134
-495.581	35.193	-0.156	0.136
-494.566	-200.000	0.067	0.329
-493.551	-71.182	-0.128	-0.048
-492.537	-64.033	0.089	-0.036
-491.522	800.000	-0.090	0.323
-490.508	-27.096	0.154	0.090
-489.493	36.478	-0.117	-0.103
-488.478	733.584	0.122	0.326
-487.464	638.541	0.114	-0.290
-486.449	-64.895	0.083	-0.033
-485.435	10.757	-0.317	-0.242
-484.420	-84.454	0.171	-0.054
-483.405	-200.000	0.020	0.198
-482.391	-200.000	0.007	0.086
-481.376	-149.318	-0.092	0.007
-480.362	-200.000	0.004	0.043
-479.347	-8.673	-0.009	-0.006
-478.332	163.620	-0.301	0.422
-477.318	-115.222	0.133	-0.025
-476.303	746.963	0.118	0.318
-475.289	-5.068	0.187	0.129
-474.274	238.427	0.176	-0.292
-473.259	315.757	0.166	0.312
-472.245	800.000	-0.113	0.339
-471.230	23.733	0.075	-0.062
-470.216	800.000	0.089	-0.250
-469.201	50.625	0.183	-0.173
-468.186	-200.000	0.007	-0.117
-467.172	-200.000	0.042	-0.251
-466.157	-19.053	-0.245	-0.152
-465.143	-45.047	-0.363	0.180
-464.128	-38.599	-0.175	0.092
-463.113	4.666	-0.337	0.247
-462.099	110.725	0.169	-0.203
-461.084	-166.360	-0.043	0.002
-460.070	-98.723	-0.186	-0.047
-459.055	277.385	-0.143	-0.254
-458.040	251.598	-0.119	0.201
-457.026	800.000	-0.106	0.312
-456.011	-89.940	-0.066	0.019
-454.997	110.343	-0.178	-0.213
-453.982	161.381	-0.323	-0.450
-452.968	-140.937	-0.111	-0.011
-451.953	305.763	0.072	-0.133
-450.938	519.026	0.003	0.007
-449.924	-71.153	-0.157	0.059
-448.909	800.000	-0.047	0.160
-447.895	-200.000	0.002	0.108
-446.880	152.701	-0.190	0.259
-445.865	-200.000	-0.012	0.120
-444.851	800.000	-0.051	0.161
-443.836	-135.222	-0.243	0.029
-442.822	16.968	0.020	-0.016
-441.807	-94.602	-0.203	-0.055
-440.792	800.000	0.021	0.069
-439.778	-200.000	0.018	0.138
-438.763	235.601	-0.142	-0.234
-437.749	94.091	0.147	-0.166
-436.734	109.761	-0.331	0.396
-435.719	-106.090	-0.159	-0.035
-434.705	346.740	-0.084	0.166
-433.690	-97.851	0.117	0.030
-432.676	7.754	-0.155	-0.115
-431.661	140.844	-0.161	-0.212
-430.646	88.926	0.086	-0.095
-429.632	-200.000	0.022	0.103
-428.617	42.398	-0.090	0.081
-427.603	-200.000	0.028	0.183
-426.588	800.000	0.063	0.175
-425.573	114.757	0.121	0.148
-424.559	-200.000	-0.009	-0.131
-423.544	118.527	-0.052	-0.064
-422.530	-76.500	-0.100	0.035
-421.515	800.000	0.082	0.257
-420.500	-200.000	0.044	0.259
-419.486	800.000	0.005	0.021
-418.471	-111.629	0.462	0.093
-417.457	-30.466	0.283	-0.160
-416.442	-114.862	-0.048	-0.009
-415.428	-146.868	0.148	0.013
-414.413	377.450	-0.121	-0.245
-413.398	-110.824	0.193	-0.040
-412.384	-101.976	0.216	-0.052
-411.369	11.239	0.104	0.079
-410.355	431.974	0.031	0.067
-409.340	-40.224	0.280	0.145
-408.325	-134.662	-0.196	0.024
-407.311	-121.859	0.252	-0.041
-406.296	46.033	-0.173	-0.159
-405.282	109.461	0.131	-0.156
-404.267	504.304	-0.187	-0.432
-403.252	-139.970	0.163	0.017
-402.238	-53.739	0.281	-0.127
-401.223	-109.653	-0.276	0.058
-400.209	114.098	-0.125	0.152
-399.194	800.000	-0.067	-0.187
-398.179	53.153	-0.163	0.156
-397.165	-200.000	-0.071	0.347
-396.150	-200.000	0.027	0.194
-395.136	-200.000	0.040	-0.274
-394.121	140.105	-0.124	-0.163
-393.106	-151.378	0.051	-0.004
-392.092	11.897	-0.209	-0.160
-391.077	325.868	-0.084	-0.159
-390.063	189.079	-0.089	-0.132
-389.048	-26.980	0.318	-0.185
-388.033	-44.278	-0.237	0.118
-387.019	-22.157	-0.109	0.066
-386.004	-59.675	0.011	0.005
-384.990	-200.000	-0.003	-0.163
-383.975	-29.805	0.349	0.198
-382.960	-8.435	0.299	0.200
-381.946	-89.251	0.094	0.027
-380.931	212.433	0.179	0.281
-379.917	-16.239	-0.307	0.194
-378.902	-43.064	0.206	0.104
-377.888	-26.291	-0.084	-0.049
-376.873	-200.000	0.011	0.133
-375.858	-200.000	0.054	0.261
-374.844	-129.640	-0.184	0.025
-373.829	152.598	0.094	-0.128
-372.815	-131.890	0.238	0.031
-371.800	176.755	0.180	-0.260
-370.785	185.639	-0.187	0.277
-369.771	-68.579	0.366	-0.141
-368.756	-31.819	0.312	0.174
-367.742	145.017	0.075	-0.099
-366.727	-196.300	-0.275	0.002
-365.712	-45.082	0.105	0.052
-364.698	143.056	0.148	0.196
-363.683	-200.000	-0.314	-0.001
-362.669	-200.000	-0.047	-0.259
-361.654	-200.000	0.040	0.268
-360.639	50.816	0.221	-0.208
-359.625	-58.158	-0.079	-0.034
-358.610	-128.980	-0.468	-0.065
-357.596	-174.383	-0.128	-0.004
-356.581	-42.504	-0.211	-0.107
-355.566	6.674	0.239	0.177
-354.552	-64.280	0.333	-0.135
-353.537	-200.000	0.031	0.180
-352.523	-84.955	-0.206	-0.064
-351.508	-68.457	0.148	0.057
-350.493	-144.697	-0.134	-0.012
-349.479	-85.615	-0.184	-0.057
-348.464	-200.000	-0.023	-0.225
-347.450	-200.000	-0.064	0.368
-346.435	230.871	0.117	0.190
-345.420	420.645	-0.173	-0.368
-344.406	800.000	-0.049	-0.182
-343.391	-60.211	-0.150	-0.064
-342.377	-80.987	-0.231	-0.076
-341.362	117.467	0.149	0.182
-340.348	-123.900	-0.226	-0.035
-339.333	-200.000	0.024	0.267
-338.318	384.983	0.123	0.252
-337.304	-200.000	0.015	0.085
-336.289	-138.538	0.188	-0.021
-335.275	-49.874	0.216	0.102
-334.260	107.151	0.130	0.154
-333.245	-61.864	-0.185	0.077
-332.231	-122.928	-0.047	-0.007
-331.216	14.432	0.157	-0.122
-330.202	98.563	-0.102	0.116
-329.187	13.893	-0.317	0.245
-328.172	-107.701	0.197	-0.043
-327.158	800.000	-0.097	-0.381
-326.143	-177.318	-0.202	-0.005
-325.129	-200.000	-0.007	-0.055
-324.114	800.000	0.029	0.092
-323.099	-200.000	0.023	-0.426
-322.085	34.914	0.227	-0.197
-321.070	32.303	0.144	0.123
-320.056	65.116	-0.347	-0.348
-319.041	-89.693	0.239	-0.070
-318.026	-113.046	0.191	-0.037
-317.012	-200.000	-0.032	0.248
-315.997	-200.000	0.022	0.125
-314.983	553.469	-0.123	-0.293
-313.968	-115.952	0.262	0.048
-312.953	-200.000	-0.005	-0.173
-311.939	259.053	-0.150	-0.256
-310.924	-72.687	-0.307	-0.112
-309.910	195.682	0.138	0.208
-308.895	-200.000	-0.035	0.290
-307.880	800.000	-0.027	0.110
-306.866	-89.975	0.129	-0.037
-305.851	-67.013	0.015	-0.006
-304.837	52.112	-0.070	0.066
-303.822	-200.000	-0.031	-0.464
-302.807	51.199	0.209	-0.197
-301.793	-109.263	0.197	0.041
-300.778	106.804	0.040	0.047
-299.764	-82.528	-0.184	-0.059
-298.749	-62.899	-0.305	0.125
-297.735	-8.167	-0.196	-0.131
-296.720	-40.348	0.233	0.120
-295.705	-200.000	0.004	0.079
-294.691	-200.000	0.004	0.092
-293.676	37.251	-0.216	0.190
-292.662	11.549	-0.122	0.092
-291.647	158.757	-0.215	-0.296
-290.632	-6.831	0.110	0.074
-289.618	-200.000	-0.026	0.376
-288.603	-105.363	0.386	0.087
-287.589	282.017	0.187	0.333
-286.574	-96.391	0.078	0.021
-285.559	-83.434	0.329	0.104
-284.545	-88.388	0.199	0.059
-283.530	-200.000	0.022	0.133
-282.516	448.680	-0.086	0.187
-281.501	142.686	0.145	-0.191
-280.486	-200.000	0.367	0.002
-279.472	13.826	-0.156	0.120
-278.457	-123.619	-0.088	-0.014
-277.443	60.382	-0.113	0.111
-276.428	-139.733	-0.259	-0.027
-275.413	82.635	0.124	-0.134
-274.399	203.230	-0.040	0.061
-273.384	-200.000	-0.052	0.236
-272.370	-144.142	-0.066	0.006
-271.355	-4.012	0.416	0.286
-270.340	415.704	-0.132	0.279
-269.326	-130.473	-0.124	0.017
-268.311	-32.457	0.391	-0.216
-267.297	98.204	0.149	-0.169
-266.282	-98.520	-0.280	-0.071
-265.267	20.277	-0.099	0.079
-264.253	-200.000	0.044	0.277
-263.238	216.208	-0.059	-0.093
-262.224	-200.000	0.036	0.210
-261.209	-15.486	-0.162	-0.103
-260.195	-18.095	0.129	-0.080
-259.180	312.020	0.233	0.432
-258.165	200.758	-0.149	0.227
-257.151	225.812	-0.029	-0.046
-256.136	749.985	-0.089	-0.238
-255.122	-134.373	0.135	-0.016
-254.107	800.000	0.041	0.139
-253.092	159.671	-0.163	-0.225
-252.078	101.460	0.074	-0.085
-251.063	156.896	-0.015	0.021
-250.049	-8.643	0.372	-0.247
-249.034	-62.316	-0.055	-0.023
-248.019	40.171	-0.038	-0.034
-247.005	-200.000	-0.045	-0.211
-245.990	26.992	-0.059	0.049
-244.976	-55.979	-0.420	-0.185
-243.961	-92.882	-0.286	-0.079
-242.946	-200.000	-0.089	0.416
-241.932	800.000	-0.053	0.167
-240.917	-76.960	-0.132	0.045
-239.903	-54.165	0.145	0.065
-238.888	0.914	0.260	-0.185
-237.873	-200.000	0.010	-0.232
-236.859	-200.000	-0.009	-0.065
-235.844	-49.296	-0.310	-0.146
-234.830	140.139	0.048	0.062
-233.815	-66.557	-0.320	0.126
-232.800	-56.823	0.203	-0.089
-231.786	26.803	-0.145	0.120
-230.771	-152.154	-0.073	-0.005
-229.757	343.683	0.231	-0.447
-228.742	-115.667	0.167	-0.031
-227.727	-94.038	-0.101	0.027
-226.713	-200.000	0.059	-0.266
-225.698	262.189	-0.175	-0.300
-224.684	200.887	0.127	-0.193
-223.669	377.673	-0.120	-0.242
-222.655	800.000	0.103	-0.335
-221.640	518.665	0.081	-0.187
-220.625	-15.843	-0.104	-0.066
-219.611	-135.789	-0.157	-0.018
-218.596	47.212	-0.156	0.143
-217.582	-95.717	-0.217	-0.057
-216.567	800.000	0.090	-0.315
-215.552	-140.873	0.249	-0.025
-214.538	-39.764	-0.134	0.069
-213.523	-76.767	-0.256	-0.088
-212.509	-200.000	0.003	0.032
-211.494	188.354	0.122	0.181
-210.479	800.000	0.084	0.253
-209.465	-53.083	0.311	-0.141
-208.450	50.070	0.091	-0.085
-207.436	-200.000	0.040	0.176
-206.421	36.172	-0.167	0.145
-205.406	-200.000	-0.016	0.171
-204.392	800.000	-0.112	-0.435
-203.377	98.991	-0.170	-0.193
-202.363	-44.233	-0.124	-0.061
-201.348	147.812	0.029	-0.039
-200.333	95.330	0.154	0.173
-199.319	105.661	0.177	0.207
-198.304	-88.526	0.248	0.073
-197.290	-54.325	0.329	-0.147
-196.275	-200.000	0.118	-0.555
-195.260	-90.775	0.062	-0.018
-194.246	-119.014	0.194	0.033
-193.231	-24.547	-0.054	0.032
-192.217	800.000	-0.050	-0.170
-191.202	-100.439	-0.128	-0.031
-190.187	214.290	0.064	0.100
-189.173	-200.000	-0.011	-0.179
-188.158	-20.365	0.051	-0.031
-187.144	126.605	0.103	0.128
-186.129	-13.473	0.192	0.123
-185.114	-49.780	-0.071	0.033
-184.100	-200.000	-0.013	-0.069
-183.085	326.223	0.109	-0.206
-182.071	33.424	0.218	0.187
-181.056	-200.000	0.024	0.265
-180.042	325.585	0.098	0.185
-179.027	-7.568	-0.052	-0.035
-178.012	452.685	-0.070	0.153
-176.998	395.534	-0.104	0.215
-175.983	-189.011	0.208	0.002
-174.969	-200.000	0.007	-0.105
-173.954	-131.757	0.299	-0.039
-172.939	6.428	0.194	0.142
-171.925	800.000	0.059	0.202
-170.910	-56.027	0.241	0.106
-169.896	83.966	0.090	0.097
-168.881	800.000	-0.034	0.100
-167.866	92.704	-0.065	-0.072
-166.852	-21.756	-0.149	-0.089
-165.837	324.512	0.162	0.305
-164.823	-66.300	0.077	0.030
-163.808	216.055	0.174	-0.273
-162.793	-18.746	-0.147	-0.091
-161.779	9.246	-0.196	-0.146
-160.764	-200.000	0.015	0.091
-159.750	-200.000	-0.053	0.369
-158.735	-41.688	0.022	-0.011
-157.720	-200.000	-0.037	0.204
-156.706	-200.000	0.029	0.266
-155.691	-10.387	-0.330	0.216
-154.677	-44.781	0.178	-0.088
-153.662	232.607	0.135	-0.218
-152.647	-48.645	0.331	-0.157
-151.633	800.000	-0.108	-0.415
-150.618	-65.896	0.227	-0.090
-149.604	-61.283	0.129	0.053
-148.589	102.710	0.087	0.100
-147.574	-133.281	0.279	0.035
-146.560	427.128	-0.188	0.399
-145.545	-56.990	0.077	-0.033
-144.531	-18.281	-0.110	0.068
-143.516	-87.176	0.446	-0.134
-142.502	-200.000	-0.058	0.382
-141.487	-122.116	-0.110	-0.018
-140.472	76.953	-0.273	-0.285
-139.458	-75.394	0.563	-0.198
-138.443	-144.472	0.241	0.022
-137.429	-131.569	0.290	0.038
-136.414	-3.781	0.366	-0.250
-135.399	-200.000	0.025	0.129
-134.385	-76.315	-0.168	-0.058
-133.370	-58.525	0.371	0.159
-132.356	-200.000	0.006	0.361
-131.341	-145.479	-0.132	0.012
-130.326	-5.754	-0.157	-0.106
-129.312	108.987	-0.348	0.410
-128.297	103.118	-0.215	0.248
-127.283	-130.715	-0.257	0.034
-126.268	-132.623	-0.333	-0.042
-125.253	-200.000	0.059	0.412
-124.239	-111.344	0.331	0.066
-123.224	-200.000	0.018	-0.110
-122.210	489.075	-0.039	0.088
-121.195	196.741	0.085	0.127
-120.180	800.000	-0.080	0.229
-119.166	181.674	-0.112	0.163
-118.151	-113.571	-0.041	-0.008
-117.137	-106.119	-0.148	-0.033
-116.122	-78.258	-0.095	-0.032
-115.107	163.093	-0.057	0.079
-114.093	-144.559	0.100	0.009
-113.078	800.000	-0.024	0.066
-112.064	800.000	-0.145	0.505
-111.049	-18.737	0.055	-0.034
-110.034	-127.879	0.082	0.012
-109.020	596.385	0.077	0.187
-108.005	12.752	0.294	-0.223
-106.991	-200.000	0.029	-0.346
-105.976	800.000	-0.061	-0.208
-104.962	-127.800	0.388	-0.055
-103.947	228.589	-0.174	-0.279
-102.932	204.058	-0.094	0.143
-101.918	92.161	0.025	-0.028
-100.903	587.307	0.040	0.098
-99.889	800.000	0.079	-0.227
-98.874	-7.461	-0.177	0.118
-97.859	-96.498	-0.225	-0.059
-96.845	459.252	0.112	0.244
-95.830	59.823	-0.198	0.192
-94.816	-23.081	-0.107	-0.063
-93.801	-200.000	0.027	0.302
-92.786	630.451	0.025	0.062
-91.772	-60.985	0.132	-0.055
-90.757	4.529	0.127	0.092
-89.743	800.000	0.060	0.256
-88.728	-172.417	0.320	-0.010
-87.713	-183.269	0.351	-0.006
-86.699	41.244	0.263	-0.234
-85.684	67.787	-0.459	-0.461
-84.670	-5.440	-0.125	0.084
-83.655	800.000	0.015	-0.051
-82.640	800.000	0.069	-0.255
-81.626	-200.000	0.034	-0.201
-80.611	35.900	-0.077	0.066
-79.597	-108.504	0.064	0.014
-78.582	341.053	-0.260	-0.498
-77.567	-200.000	-0.034	0.170
-76.553	377.149	-0.060	0.121
-75.538	123.251	0.134	0.165
-74.524	231.348	0.127	-0.205
-73.509	-94.486	0.199	-0.053
-72.494	-159.049	0.140	-0.008
-71.480	-200.000	0.023	0.256
-70.465	599.644	-0.065	0.159
-69.451	35.318	-0.215	-0.185
-68.436	-27.591	-0.127	0.072
-67.422	-149.336	0.423	0.033
-66.407	99.865	0.125	0.143
-65.392	-58.124	-0.142	0.061
-64.378	171.415	0.078	0.111
-63.363	-89.622	0.274	0.079
-62.349	15.773	-0.241	-0.186
-61.334	66.315	-1.055	-1.052
-60.319	108.519	0.587	0.689
-59.305	800.000	-0.258	-0.771
-58.290	179.434	0.556	0.799
-57.276	441.554	0.677	1.454
-56.261	-200.000	96.036	576.419
-55.246	560.449	1376.784	3265.419
-54.232	159.862	2561.813	3502.982
-53.217	106.261	2268.977	2638.718
-52.203	42.276	1893.222	1688.602
-51.188	36.353	1683.473	1456.931
-50.173	33.553	1639.210	1397.956
-49.159	50.934	1685.303	1567.485
-48.144	52.644	1701.372	1595.142
-47.130	35.810	1662.021	1434.090
-46.115	33.056	1647.580	1401.187
-45.100	32.989	1642.866	1396.628
-44.086	32.910	1640.063	1393.610
-43.071	32.879	1637.372	1391.038
-42.057	32.819	1635.112	1388.623
-41.042	32.859	1633.470	1387.463
-40.027	32.920	1631.035	1385.786
-39.013	32.876	1629.263	1383.910
-37.998	32.821	1627.561	1382.005
-36.984	32.887	1626.450	1381.483
-35.969	33.003	1624.839	1380.915
-34.954	33.017	1623.305	1379.655
-33.940	32.915	1621.523	1377.344
-32.925	32.946	1620.104	1376.305
-31.911	32.916	1617.983	1374.233
-30.896	32.925	1616.092	1372.636
-29.881	32.927	1614.633	1371.359
-28.867	32.989	1612.967	1370.337
-27.852	33.016	1611.070	1368.867
-26.838	32.923	1610.115	1367.332
-25.823	33.002	1608.811	1366.742
-24.809	33.021	1607.023	1365.301
-23.794	33.045	1605.174	1363.853
-22.779	32.963	1604.318	1362.481
-21.765	32.935	1602.767	1360.910
-20.750	32.887	1601.374	1359.327
-19.736	33.005	1599.516	1358.538
-18.721	33.042	1597.872	1357.355
-17.706	32.999	1596.895	1356.163
-16.692	32.986	1595.117	1354.505
-15.677	33.020	1593.827	1353.600
-14.663	32.947	1592.599	1351.981
-13.648	32.976	1591.436	1351.151
-12.633	32.992	1589.546	1349.607
-11.619	32.978	1588.318	1348.406
-10.604	33.029	1586.533	1347.203
-9.590	32.996	1585.572	1346.103
-8.575	33.036	1583.978	1344.979
-7.560	33.071	1582.544	1343.957
-6.546	33.040	1581.664	1342.937
-5.531	33.056	1580.301	1341.836
-4.517	32.986	1579.507	1340.615
-3.502	32.990	1578.260	1339.532
-2.487	33.127	1576.097	1338.611
-1.473	32.771	1564.567	1326.261
-0.458	30.250	1545.128	1292.195
0.556	27.280	1546.050	1263.019
1.571	25.128	1570.262	1267.486
2.586	24.769	1583.920	1275.842
3.600	22.254	1530.771	1215.556
4.615	12.542	1420.401	1065.220
5.629	3.765	1353.636	960.689
6.644	2.191	1344.938	944.702
7.659	2.167	1343.374	943.370
8.673	2.117	1342.446	942.329
9.688	1.995	1340.836	940.362
10.702	1.735	1337.285	936.190
11.717	5.272	1344.493	962.988
12.731	15.488	1363.886	1040.391
13.746	23.929	1378.533	1104.109
14.761	26.113	1380.981	1119.536
15.775	26.469	1380.873	1121.556
16.790	26.544	1380.543	1121.652
17.804	26.653	1379.763	1121.597
18.819	26.843	1379.666	1122.592
19.834	26.878	1379.154	1122.290
20.848	26.969	1378.367	1122.118
21.863	27.047	1377.050	1121.429
22.877	26.927	1376.855	1120.425
23.892	26.999	1375.525	1119.692
24.907	27.021	1374.694	1119.049
25.921	26.987	1374.012	1118.185
26.936	26.887	1372.897	1116.563
27.950	27.002	1371.859	1116.327
28.965	26.959	1370.908	1115.191
29.980	27.024	1368.941	1113.892
30.994	26.956	1368.306	1112.861
32.009	26.954	1367.177	1111.830
33.023	27.019	1365.717	1110.943
34.038	26.914	1365.073	1109.681
35.053	27.048	1363.540	1109.156
36.067	26.945	1362.944	1107.945
37.082	27.031	1361.653	1107.317
38.096	27.000	1360.649	1106.216
39.111	26.939	1360.492	1105.616
40.126	26.921	1359.896	1104.924
41.140	27.018	1359.026	1104.710
42.155	26.890	1358.757	1103.618
43.169	26.928	1358.777	1103.766
44.184	26.968	1358.443	1103.637
45.199	26.906	1358.042	1102.839
46.213	26.912	1357.365	1102.231
47.228	26.934	1356.615	1101.656
48.242	27.000	1355.275	1100.874
49.257	26.935	1353.898	1099.259
50.271	26.975	1352.458	1098.239
51.286	26.948	1351.123	1096.894
52.301	26.929	1350.321	1096.027
53.315	26.891	1349.129	1094.738
54.330	27.030	1348.213	1094.737
55.344	26.946	1347.267	1093.361
56.359	27.027	1345.988	1092.716
57.374	26.965	1345.255	1091.652
58.388	26.924	1345.192	1091.255
59.403	27.002	1344.616	1091.160
60.417	27.004	1343.682	1090.319
61.432	27.047	1343.266	1090.144
62.447	26.870	1342.680	1088.509
63.461	26.861	1341.317	1087.252
64.476	26.932	1340.373	1086.819
65.490	26.970	1339.090	1085.909
66.505	27.019	1337.205	1084.577
67.520	26.976	1336.843	1083.930
68.534	27.044	1335.343	1083.026
69.549	26.943	1334.545	1081.681
70.563	26.962	1333.689	1081.002
71.578	26.994	1332.341	1080.006
72.593	27.036	1331.907	1079.810
73.607	26.945	1331.312	1078.686
74.622	26.857	1330.543	1077.448
75.636	26.936	1329.962	1077.347
76.651	26.893	1328.897	1076.134
77.666	26.886	1328.547	1075.717
78.680	26.942	1328.347	1075.793
79.695	26.968	1327.349	1075.044
80.709	27.028	1326.603	1074.695
81.724	26.957	1326.056	1073.742
82.739	27.011	1324.123	1072.399
83.753	26.888	1324.114	1071.571
84.768	26.955	1322.929	1070.914
85.782	26.975	1321.594	1069.851
86.797	26.950	1320.607	1068.812
87.812	26.899	1319.780	1067.751
88.826	26.980	1318.508	1067.102
89.841	26.951	1317.551	1066.065
90.855	27.015	1316.342	1065.365
91.870	26.920	1315.681	1064.177
92.884	26.995	1314.590	1063.644
93.899	27.005	1313.871	1063.027
94.914	26.939	1313.465	1062.218
95.928	27.037	1312.565	1061.965
96.943	27.123	1311.263	1061.321
97.957	27.009	1310.872	1060.244
98.972	27.046	1309.951	1059.621
99.987	27.086	1308.855	1058.876
101.001	27.040	1307.660	1057.545
102.016	27.002	1306.730	1056.479
103.030	26.979	1306.129	1055.769
104.045	27.100	1305.335	1055.736
105.060	26.969	1304.765	1054.419
106.074	27.023	1303.432	1053.561
107.089	27.083	1302.705	1053.230
108.103	27.102	1301.618	1052.366
109.118	27.099	1300.232	1051.138
110.133	27.222	1299.112	1050.848
111.147	27.223	1297.995	1049.858
112.162	27.111	1297.102	1048.399
113.176	27.069	1296.465	1047.548
114.191	27.018	1295.586	1046.451
115.206	27.178	1294.253	1046.205
116.220	27.059	1293.143	1044.528
117.235	27.039	1292.492	1043.798
118.249	27.066	1291.622	1043.156
119.264	27.076	1290.498	1042.215
120.279	27.150	1289.927	1042.084
121.293	27.201	1288.942	1041.486
122.308	26.993	1288.873	1040.147
123.322	27.233	1287.466	1040.293
124.337	27.123	1287.152	1039.317
125.352	27.132	1286.265	1038.561
126.366	27.211	1285.291	1038.133
127.381	27.201	1284.069	1037.000
128.395	27.175	1283.541	1036.330
129.410	27.186	1282.767	1035.679
130.424	27.116	1282.140	1034.684
131.439	27.110	1281.296	1033.875
132.454	27.185	1280.266	1033.379
133.468	27.132	1279.944	1032.727
134.483	27.238	1278.909	1032.404
135.497	27.152	1278.269	1031.307
136.512	27.111	1277.277	1030.184
137.527	27.135	1275.913	1029.130
138.541	27.190	1274.714	1028.382
139.556	27.220	1273.775	1027.701
140.570	27.061	1272.866	1025.979
141.585	27.066	1271.837	1025.086
142.600	27.102	1271.069	1024.580
143.614	27.161	1270.153	1024.085
144.629	27.040	1268.985	1022.369
145.643	27.059	1268.098	1021.674
146.658	27.037	1267.025	1020.592
147.673	27.006	1265.970	1019.481
148.687	27.057	1265.082	1018.959
149.702	27.082	1263.754	1017.937
150.716	27.098	1263.096	1017.408
151.731	27.120	1261.993	1016.555
152.746	27.080	1261.362	1015.730
153.760	27.143	1259.875	1014.799
154.775	27.121	1259.435	1014.231
155.789	27.166	1258.168	1013.370
156.804	27.181	1257.107	1012.510
157.819	27.119	1256.571	1011.645
158.833	27.092	1256.438	1011.296
159.848	27.199	1255.457	1011.010
160.862	27.244	1254.392	1010.314
161.877	27.248	1253.137	1009.237
162.892	27.293	1252.544	1008.919
163.906	27.312	1251.761	1008.306
164.921	27.299	1251.036	1007.561
165.935	27.225	1250.596	1006.706
166.950	27.293	1249.687	1006.264
167.964	27.319	1249.015	1005.775
168.979	27.243	1248.864	1005.147
169.994	27.254	1248.087	1004.493
171.008	27.306	1247.457	1004.185
172.023	27.388	1246.620	1003.871
173.037	27.360	1246.005	1003.134
174.052	27.269	1245.532	1002.165
175.067	27.350	1244.538	1001.721
176.081	27.207	1243.684	1000.160
177.096	27.225	1243.192	999.772
178.110	27.398	1242.141	999.791
179.125	27.367	1240.862	998.502
180.140	27.254	1240.037	997.128
181.154	27.319	1239.236	996.756
182.169	27.331	1237.777	995.556
183.183	27.302	1236.652	994.406
184.198	27.287	1236.132	993.816
185.213	27.295	1234.934	992.812
186.227	27.361	1234.425	992.676
187.242	27.373	1233.041	991.538
188.256	27.299	1232.613	990.706
189.271	27.317	1231.542	989.854
190.286	27.399	1230.849	989.652
191.300	27.332	1230.548	988.960
192.315	27.344	1229.927	988.440
193.329	27.423	1229.839	988.711
194.344	27.332	1229.339	987.729
195.359	27.335	1229.087	987.454
196.373	27.343	1228.134	986.644
197.388	27.348	1227.499	986.072
198.402	27.291	1227.520	985.693
199.417	27.320	1227.132	985.452
200.432	27.430	1226.218	985.225
201.446	27.389	1225.772	984.559
202.461	27.345	1225.002	983.616
203.475	27.475	1223.888	983.338
204.490	27.331	1223.221	981.936
205.504	27.327	1222.378	981.150
206.519	27.411	1221.468	980.788
207.534	27.387	1220.336	979.659
208.548	27.413	1219.266	978.854
209.563	27.376	1218.825	978.217
210.577	27.402	1217.920	977.544
211.592	27.499	1217.059	977.283
212.607	27.426	1216.607	976.446
213.621	27.447	1216.061	976.031
214.636	27.660	1214.671	975.972
215.650	27.495	1213.769	974.275
216.665	27.427	1213.144	973.323
217.680	27.564	1212.459	973.424
218.694	27.595	1211.100	972.412
219.709	27.524	1210.793	971.701
220.723	27.581	1210.042	971.315
221.738	27.468	1209.706	970.358
222.753	27.499	1208.668	969.601
223.767	27.456	1208.390	969.066
224.782	27.534	1208.109	969.168
225.796	27.762	1207.036	969.433
226.811	27.640	1206.500	968.267
227.826	27.570	1206.296	967.646
228.840	27.625	1205.678	967.360
229.855	27.604	1204.391	966.127
230.869	27.651	1203.683	965.726
231.884	27.587	1203.107	964.837
232.899	27.551	1202.529	964.101
233.913	27.608	1201.939	963.843
234.928	27.647	1201.505	963.617
235.942	27.684	1200.825	963.182
236.957	27.704	1199.868	962.432
237.972	27.544	1199.843	961.484
238.986	27.732	1199.008	961.718
240.001	27.727	1198.384	961.106
241.015	27.774	1197.657	960.686
242.030	27.815	1196.921	960.227
243.045	27.719	1196.039	958.930
244.059	27.739	1195.343	958.393
245.074	27.826	1194.423	958.026
246.088	27.791	1193.681	957.165
247.103	27.787	1192.966	956.483
248.117	27.832	1192.175	956.002
249.132	27.768	1191.634	955.147
250.147	27.741	1190.823	954.271
251.161	27.862	1190.184	954.309
252.176	27.873	1189.115	953.422
253.190	27.835	1188.937	952.997
254.205	27.761	1188.326	952.040
255.220	27.792	1187.635	951.564
256.234	27.836	1187.183	951.343
257.249	27.745	1186.898	950.559
258.263	27.932	1185.653	950.452
259.278	27.941	1185.294	950.124
260.293	27.897	1184.884	949.485
261.307	27.857	1184.188	948.632
262.322	27.901	1183.689	948.376
263.336	27.876	1183.095	947.689
264.351	27.876	1182.427	947.072
265.366	27.861	1181.933	946.515
266.380	27.974	1181.076	946.326
267.395	27.970	1180.383	945.670
268.409	27.935	1179.612	944.784
269.424	28.019	1178.996	944.640
270.439	27.877	1178.997	943.827
271.453	28.031	1178.113	943.832
272.468	27.988	1177.407	942.959
273.482	27.899	1176.761	941.902
274.497	27.948	1176.114	941.553
275.512	28.065	1175.535	941.607
276.526	28.141	1174.743	941.278
277.541	27.994	1174.263	940.058
278.555	27.949	1173.834	939.397
279.570	28.017	1173.061	939.047
280.585	27.948	1172.031	937.782
281.599	28.011	1171.104	937.282
282.614	27.969	1170.536	936.529
283.628	28.026	1169.178	935.652
284.643	28.001	1168.774	935.116
285.657	28.129	1167.809	934.917
286.672	28.063	1167.140	933.963
287.687	28.007	1166.892	933.398
288.701	28.092	1165.691	932.786
289.716	28.146	1164.999	932.424
290.730	28.171	1164.273	931.888
291.745	28.152	1163.859	931.376
292.760	28.120	1163.404	930.771
293.774	28.207	1162.744	930.601
294.789	28.307	1162.177	930.570
295.803	28.323	1161.368	929.923
296.818	28.150	1161.031	928.694
297.833	28.147	1160.334	928.037
298.847	28.245	1159.320	927.640
299.862	28.181	1158.909	926.904
300.876	28.297	1158.333	926.953
301.891	28.332	1157.695	926.534
302.906	28.329	1156.877	925.784
303.920	28.379	1155.944	925.209
304.935	28.276	1155.550	924.290
305.949	28.346	1154.719	923.898
306.964	28.418	1154.452	923.963
307.979	28.325	1153.630	922.755
308.993	28.357	1153.176	922.473
310.008	28.399	1152.583	922.129
311.022	28.388	1151.430	921.070
312.037	28.413	1150.798	920.607
313.052	28.344	1150.284	919.768
314.066	28.305	1149.723	919.042
315.081	28.299	1148.570	918.011
316.095	28.301	1148.378	917.786
317.110	28.315	1147.892	917.384
318.125	28.446	1146.681	916.990
319.139	28.506	1146.091	916.740
320.154	28.418	1145.359	915.633
321.168	28.429	1145.359	915.606
322.183	28.449	1144.644	915.055
323.197	28.424	1144.152	914.456
324.212	28.428	1143.221	913.649
325.227	28.580	1142.978	914.131
326.241	28.510	1142.431	913.265
327.256	28.423	1141.474	911.985
328.270	28.558	1140.537	911.828
329.285	28.563	1140.038	911.372
330.300	28.585	1139.241	910.767
331.314	28.555	1138.391	909.858
332.329	28.626	1137.554	909.460
333.343	28.580	1137.122	908.804
334.358	28.670	1136.313	908.525
335.373	28.526	1135.483	907.068
336.387	28.687	1134.901	907.317
337.402	28.693	1134.215	906.719
338.416	28.790	1133.370	906.443
339.431	28.706	1132.863	905.543
340.446	28.698	1132.178	904.876
341.460	28.678	1131.776	904.374
342.475	28.717	1130.795	903.701
343.489	28.781	1130.117	903.393
344.504	28.769	1129.217	902.538
345.519	28.685	1128.440	901.422
346.533	28.698	1127.826	900.915
347.548	28.786	1127.049	900.646
348.562	28.710	1126.252	899.557
349.577	28.625	1125.937	898.812
350.592	28.658	1124.876	898.049
351.606	28.611	1124.305	897.282
352.621	28.826	1123.361	897.501
353.635	28.953	1123.031	897.776
354.650	28.783	1122.268	896.258
355.665	28.874	1121.840	896.278
356.679	28.819	1121.747	895.859
357.694	28.912	1120.846	895.512
358.708	28.865	1120.104	894.612
359.723	28.861	1119.301	893.873
360.738	28.814	1118.342	892.798
361.752	28.959	1117.966	893.122
362.767	29.001	1117.517	892.887
363.781	28.790	1117.467	891.746
364.796	28.891	1116.405	891.312
365.810	28.897	1116.073	890.994
366.825	28.874	1115.407	890.271
367.840	28.989	1115.183	890.573
368.854	29.101	1114.213	890.261
369.869	28.948	1113.858	889.158
370.883	29.056	1113.121	889.011
371.898	28.969	1112.246	887.818
372.913	29.048	1111.368	887.414
373.927	29.140	1111.203	887.651
374.942	29.109	1110.932	887.204
375.956	29.113	1110.462	886.773
376.971	29.144	1109.302	885.915
377.986	29.115	1109.151	885.579
379.000	29.037	1108.828	884.863
380.015	29.351	1107.601	885.317
381.029	29.216	1107.066	884.160
382.044	29.209	1106.460	883.565
383.059	29.186	1105.929	882.956
384.073	29.250	1105.411	882.770
385.088	29.240	1104.521	881.934
386.102	29.216	1104.103	881.404
387.117	29.189	1103.053	880.362
388.132	29.117	1102.054	879.140
389.146	29.203	1101.294	878.869
390.161	29.297	1100.651	878.726
391.175	29.235	1100.166	877.965
392.190	29.188	1099.785	877.361
393.205	29.229	1099.193	877.002
394.219	29.258	1098.279	876.337
395.234	29.242	1097.696	875.716
396.248	29.266	1096.430	874.743
397.263	29.414	1095.271	874.442
398.278	29.313	1094.960	873.638
399.292	29.506	1094.418	874.043
400.307	29.468	1094.123	873.548
401.321	29.326	1093.465	872.273
402.336	29.348	1092.903	871.852
403.350	29.466	1092.118	871.707
404.365	29.424	1091.407	870.866
405.380	29.387	1090.680	870.035
406.394	29.500	1089.668	869.681
407.409	29.515	1089.174	869.281
408.423	29.491	1088.369	868.448
409.438	29.484	1088.213	868.212
410.453	29.568	1087.203	867.724
411.467	29.626	1086.259	867.168
412.482	29.482	1085.934	866.154
413.496	29.689	1084.965	866.276
414.511	29.516	1084.981	865.400
415.526	29.636	1084.177	865.245
416.540	29.561	1083.867	864.572
417.555	29.628	1082.972	864.096
418.569	29.526	1083.191	863.717
419.584	29.631	1082.692	863.730
420.599	29.642	1081.998	863.151
421.613	104.035	1320.319	1455.050
422.628	96.779	1355.039	1455.143
