DTS Sentinel unit serial number:	SN413079Multiplexer serial number:	ORYXHardware model number:	OX4-SRSoftware version number:	ORYX F/W v4.00 Oryx Data Collector v3.7.2.0data status	okinstallation	princeton_trtdifferential loss correction	single-endedforward channel	channel 2reverse channel	N/Adate	2019/09/10time	20:17:11forward acquisition time	60.00reverse acquisition time	0.00gamma	496.2192k internal	0.2329k external	0.2329temperature offset calibration	0.9947default loss term (dB/km)	0.3790temperature slope calibration	1.0000multiplexer offset coefficient	1.0000multiplexer slope coefficient	1.0000fibre end	0.00T internal ref (°C)	32.25T ext. ref 1 (°C)	-0.30T ext. ref 2 (°C)	25.34length (m)	temperature (°C)	Stokes	anti-Stokes-747.200	-79.569	0.115	-0.039
-746.185	-106.300	0.340	0.077
-745.171	253.655	0.125	0.215
-744.156	-200.000	-0.035	0.207
-743.142	-132.293	-0.266	-0.035
-742.127	-200.000	0.015	-0.169
-741.112	-65.561	0.252	0.102
-740.098	800.000	-0.041	0.147
-739.083	12.004	0.304	-0.235
-738.069	800.000	-0.081	0.251
-737.054	-188.427	-0.158	0.002
-736.039	-200.000	0.010	-0.237
-735.025	-200.000	-0.007	0.318
-734.010	-122.754	-0.677	-0.110
-732.996	-200.000	0.027	-0.252
-731.981	-19.191	-0.143	0.089
-730.966	-71.467	-0.336	0.127
-729.952	142.874	0.145	-0.194
-728.937	323.511	-0.094	-0.180
-727.923	22.462	0.073	0.060
-726.908	-42.681	0.208	0.106
-725.894	-82.098	-0.151	-0.049
-724.879	-86.199	-0.378	-0.117
-723.864	-91.018	0.317	0.092
-722.850	-28.078	-0.275	0.160
-721.835	560.571	-0.050	0.121
-720.821	-7.637	-0.339	0.231
-719.806	-88.319	-0.288	0.087
-718.791	674.196	-0.060	-0.157
-717.777	-35.942	-0.335	0.183
-716.762	0.194	-0.226	0.162
-715.748	-48.351	-0.127	-0.062
-714.733	-200.000	-0.078	-0.400
-713.718	-40.875	-0.123	0.064
-712.704	417.106	0.053	0.113
-711.689	69.367	-0.034	0.035
-710.675	-200.000	-0.066	-0.477
-709.660	-200.000	-0.063	-0.300
-708.645	64.948	-0.233	-0.237
-707.631	-64.754	0.145	-0.059
-706.616	-155.496	-0.159	-0.010
-705.602	-200.000	0.041	0.243
-704.587	-62.896	0.383	-0.159
-703.572	-200.000	-0.008	-0.092
-702.558	-77.824	-0.069	0.024
-701.543	-119.841	-0.027	-0.005
-700.529	-200.000	-0.030	-0.232
-699.514	36.146	0.169	-0.149
-698.499	-115.198	-0.186	-0.035
-697.485	631.824	0.109	0.276
-696.470	333.225	0.043	-0.084
-695.456	-151.593	-0.220	0.016
-694.441	-157.235	0.121	0.007
-693.426	252.531	0.137	-0.235
-692.412	81.997	0.331	0.360
-691.397	-10.324	-0.142	0.095
-690.383	138.430	0.098	-0.129
-689.368	-1.545	0.073	-0.052
-688.354	374.493	0.069	-0.140
-687.339	383.503	-0.152	-0.315
-686.324	99.074	0.104	0.120
-685.310	25.001	0.087	0.073
-684.295	-200.000	-0.030	0.205
-683.281	-200.000	0.000	-0.061
-682.266	13.573	0.097	-0.075
-681.251	442.578	-0.197	-0.434
-680.237	800.000	-0.124	0.369
-679.222	-105.706	0.080	0.018
-678.208	187.003	0.028	0.042
-677.193	486.491	0.167	-0.383
-676.178	-73.725	0.147	-0.054
-675.164	-85.991	-0.248	0.077
-674.149	-60.090	0.107	0.046
-673.135	800.000	-0.059	0.189
-672.120	-200.000	-0.027	0.151
-671.105	800.000	-0.006	-0.020
-670.091	-200.000	-0.011	0.062
-669.076	-200.000	0.061	-0.364
-668.062	92.665	-0.285	-0.322
-667.047	-48.205	-0.198	-0.096
-666.032	160.656	-0.310	0.435
-665.018	-200.000	0.006	-0.451
-664.003	-40.733	0.092	0.048
-662.989	-0.773	0.248	-0.177
-661.974	-118.376	-0.304	-0.054
-660.959	35.952	0.125	-0.110
-659.945	-16.633	0.141	0.090
-658.930	130.147	0.113	0.145
-657.916	127.734	0.142	-0.182
-656.901	-45.735	0.212	-0.105
-655.886	-31.116	-0.320	-0.181
-654.872	-8.201	-0.249	-0.168
-653.857	-95.482	-0.378	0.102
-652.843	613.480	0.017	0.043
-651.828	-200.000	-0.008	0.184
-650.814	-200.000	-0.001	0.175
-649.799	1.888	0.058	-0.042
-648.784	-76.966	0.136	-0.048
-647.770	800.000	-0.068	-0.213
-646.755	-2.013	-0.354	-0.250
-645.741	94.702	0.186	0.212
-644.726	-200.000	0.023	-0.191
-643.711	-6.374	-0.237	0.162
-642.697	-149.821	-0.225	0.018
-641.682	-54.848	0.235	-0.107
-640.668	-200.000	-0.004	0.047
-639.653	101.458	-0.139	-0.162
-638.638	271.056	-0.098	0.174
-637.624	-135.465	0.246	-0.029
-636.609	-200.000	0.009	0.080
-635.595	-152.049	-0.347	-0.025
-634.580	80.772	-0.115	0.124
-633.565	-37.037	-0.155	0.083
-632.551	-133.778	-0.162	-0.020
-631.536	48.561	-0.132	0.124
-630.522	-93.586	-0.106	-0.029
-629.507	-200.000	0.008	-0.378
-628.492	43.093	-0.183	-0.167
-627.478	-52.485	0.100	0.046
-626.463	-56.624	0.305	-0.136
-625.449	90.673	0.185	-0.208
-624.434	-101.093	0.259	-0.064
-623.419	-138.868	-0.403	-0.044
-622.405	-200.000	0.028	-0.174
-621.390	103.063	0.080	-0.094
-620.376	-33.410	0.101	-0.056
-619.361	-200.000	0.002	0.109
-618.346	175.324	0.148	-0.215
-617.332	-200.000	-0.056	0.296
-616.317	-101.849	-0.108	0.026
-615.303	194.787	0.249	-0.379
-614.288	800.000	-0.059	0.216
-613.273	-200.000	0.019	0.183
-612.259	69.056	0.075	-0.077
-611.244	-10.874	-0.119	-0.079
-610.230	-200.000	-0.028	-0.305
-609.215	-200.000	-0.051	-0.236
-608.201	-38.691	-0.281	0.149
-607.186	800.000	0.078	0.218
-606.171	-200.000	0.032	0.518
-605.157	800.000	0.035	-0.112
-604.142	400.755	0.171	-0.359
-603.128	-102.370	-0.101	-0.024
-602.113	297.128	-0.122	0.225
-601.098	0.120	-0.095	-0.068
-600.084	-86.136	-0.252	0.078
-599.069	-16.425	-0.140	-0.089
-598.055	236.345	0.152	0.252
-597.040	-150.380	0.313	0.024
-596.025	-200.000	-0.030	-0.219
-595.011	-91.676	-0.123	0.035
-593.996	422.814	-0.098	-0.210
-592.982	-48.732	-0.393	0.189
-591.967	-200.000	-0.004	0.279
-590.952	-200.000	-0.003	0.140
-589.938	-26.241	-0.366	-0.215
-588.923	69.714	-0.035	0.036
-587.909	137.276	0.121	-0.158
-586.894	-200.000	-0.026	-0.341
-585.879	-200.000	-0.011	-0.134
-584.865	-137.431	-0.424	-0.048
-583.850	324.644	0.135	0.259
-582.836	-17.904	-0.002	-0.001
-581.821	800.000	-0.014	0.051
-580.806	-132.098	-0.193	0.025
-579.792	140.631	0.158	0.209
-578.777	154.746	0.160	0.220
-577.763	8.170	0.210	0.157
-576.748	800.000	-0.034	-0.095
-575.733	326.652	0.139	-0.267
-574.719	64.405	0.121	0.122
-573.704	-14.395	0.167	0.108
-572.690	94.520	0.292	-0.332
-571.675	-17.136	-0.172	0.109
-570.661	47.560	-0.094	0.088
-569.646	-100.154	0.339	-0.084
-568.631	106.987	0.075	-0.090
-567.617	31.803	-0.220	-0.190
-566.602	-128.892	0.149	-0.021
-565.588	21.163	0.341	-0.277
-564.573	-67.319	0.156	-0.061
-563.558	161.041	-0.068	-0.095
-562.544	-200.000	0.006	0.218
-561.529	-42.822	-0.254	0.129
-560.515	97.067	0.136	-0.156
-559.500	265.213	-0.074	-0.129
-558.485	524.582	-0.126	-0.296
-557.471	277.664	-0.026	0.047
-556.456	146.305	-0.166	0.223
-555.442	202.574	-0.186	-0.287
-554.427	96.035	0.126	-0.144
-553.412	271.483	0.112	0.197
-552.398	-54.338	0.209	0.095
-551.383	800.000	0.069	0.293
-550.369	-31.015	-0.079	0.044
-549.354	275.311	0.059	-0.104
-548.339	800.000	-0.020	-0.059
-547.325	-200.000	0.008	0.323
-546.310	171.982	-0.176	0.253
-545.296	-114.291	0.157	-0.030
-544.281	198.101	0.206	0.315
-543.266	-200.000	0.027	0.176
-542.252	61.500	-0.060	-0.060
-541.237	-86.226	0.134	-0.041
-540.223	-31.654	0.056	0.031
-539.208	247.396	-0.099	0.168
-538.193	516.633	0.015	-0.036
-537.179	-121.965	-0.320	-0.053
-536.164	11.483	0.104	-0.080
-535.150	-145.862	0.164	0.015
-534.135	-42.286	-0.125	-0.064
-533.121	-200.000	0.034	-0.175
-532.106	161.156	-0.049	-0.069
-531.091	-68.060	0.239	-0.093
-530.077	-159.611	-0.025	0.001
-529.062	195.929	-0.119	0.180
-528.048	-148.402	-0.175	-0.014
-527.033	-48.776	0.175	-0.084
-526.018	-77.308	0.158	0.055
-525.004	-55.736	0.136	0.061
-523.989	-81.486	-0.450	-0.148
-522.975	-66.571	0.228	0.090
-521.960	-177.416	-0.336	-0.008
-520.945	319.177	-0.026	-0.050
-519.931	800.000	0.062	0.201
-518.916	-149.617	-0.230	-0.018
-517.902	44.318	0.313	0.287
-516.887	215.163	-0.119	-0.188
-515.872	229.254	-0.127	-0.206
-514.858	-148.661	-0.402	0.033
-513.843	-47.881	-0.160	0.077
-512.829	193.221	0.097	0.146
-511.814	800.000	-0.039	0.166
-510.799	411.969	-0.114	0.242
-509.785	373.900	-0.089	-0.180
-508.770	-200.000	0.010	-0.270
-507.756	-200.000	0.004	-0.213
-506.741	-200.000	-0.129	-0.604
-505.726	-123.802	-0.141	0.022
-504.712	-111.857	-0.420	-0.085
-503.697	55.372	0.144	0.139
-502.683	-114.273	0.196	0.038
-501.668	35.076	-0.029	-0.025
-500.653	504.419	0.105	0.242
-499.639	-176.816	-0.097	-0.002
-498.624	77.214	-0.204	-0.216
-497.610	31.863	-0.143	-0.123
-496.595	134.522	0.126	0.163
-495.581	152.431	0.091	0.124
-494.566	-200.000	-0.090	0.406
-493.551	-143.325	0.052	0.005
-492.537	71.549	0.079	0.081
-491.522	-200.000	0.041	-0.215
-490.508	433.876	-0.114	-0.246
-489.493	46.804	-0.029	-0.027
-488.478	-39.413	-0.246	0.129
-487.464	52.592	0.030	0.028
-486.449	-6.568	0.143	-0.097
-485.435	-4.143	0.276	0.190
-484.420	-200.000	-0.197	-0.000
-483.405	115.974	-0.083	-0.101
-482.391	303.297	-0.099	-0.183
-481.376	800.000	0.059	-0.197
-480.362	170.445	0.239	-0.341
-479.347	-200.000	-0.066	-0.326
-478.332	-100.512	-0.139	-0.034
-477.318	-149.236	0.102	0.008
-476.303	-166.915	-0.156	0.006
-475.289	-108.697	-0.181	0.039
-474.274	-63.262	0.261	0.107
-473.259	-161.103	-0.352	0.018
-472.245	-78.095	0.066	0.023
-471.230	-200.000	-0.015	0.147
-470.216	-200.000	0.045	-0.312
-469.201	-124.391	-0.201	-0.031
-468.186	64.511	0.247	-0.248
-467.172	800.000	0.068	0.267
-466.157	236.132	0.094	0.155
-465.143	-84.293	-0.319	-0.101
-464.128	592.137	-0.156	-0.383
-463.113	227.131	-0.049	0.080
-462.099	93.285	0.227	0.256
-461.084	-54.063	-0.639	-0.290
-460.070	-48.767	0.017	-0.008
-459.055	37.589	-0.163	0.144
-458.040	800.000	-0.052	0.147
-457.026	800.000	-0.106	0.409
-456.011	-200.000	0.022	0.196
-454.997	-200.000	-0.006	-0.108
-453.982	357.691	0.171	-0.340
-452.968	309.937	-0.110	0.205
-451.953	800.000	0.048	0.161
-450.938	-69.181	0.304	-0.117
-449.924	-128.657	0.110	0.015
-448.909	-200.000	-0.031	-0.176
-447.895	800.000	0.066	-0.273
-446.880	-35.938	-0.181	-0.098
-445.865	-16.740	0.266	0.167
-444.851	800.000	0.011	-0.037
-443.836	-167.517	0.414	-0.016
-442.822	16.634	-0.201	-0.158
-441.807	-95.574	0.125	-0.033
-440.792	-118.319	0.085	-0.015
-439.778	-7.262	0.130	0.088
-438.763	-6.518	-0.154	-0.104
-437.749	30.767	0.108	0.092
-436.734	171.530	0.085	-0.121
-435.719	375.064	0.091	-0.184
-434.705	-200.000	-0.031	0.225
-433.690	23.462	0.306	0.251
-432.676	-27.128	-0.330	-0.191
-431.661	-71.321	0.263	-0.098
-430.646	-153.684	-0.203	0.014
-429.632	800.000	-0.032	0.100
-428.617	-124.287	-0.097	-0.015
-427.603	-200.000	0.016	0.168
-426.588	-200.000	-0.029	-0.190
-425.573	347.540	0.018	-0.036
-424.559	-170.689	0.141	-0.005
-423.544	-200.000	-0.001	0.135
-422.530	800.000	-0.037	0.139
-421.515	356.675	-0.206	0.408
-420.500	-91.300	-0.115	-0.033
-419.486	-28.583	0.277	0.159
-418.471	-138.646	0.128	-0.014
-417.457	478.383	0.113	-0.254
-416.442	-145.704	0.106	0.009
-415.428	-152.161	-0.183	0.013
-414.413	800.000	0.034	0.101
-413.398	-180.103	0.162	0.003
-412.384	-64.042	-0.145	0.059
-411.369	112.487	-0.129	0.155
-410.355	-82.913	0.334	0.107
-409.340	800.000	0.029	0.102
-408.325	-193.935	-0.152	0.001
-407.311	-94.098	-0.051	-0.014
-406.296	27.109	-0.192	0.160
-405.282	-200.000	0.011	-0.152
-404.267	-22.199	0.284	0.171
-403.252	342.196	0.109	0.212
-402.238	-150.115	0.543	0.042
-401.223	183.924	0.065	0.096
-400.209	14.230	0.098	0.076
-399.194	470.108	0.093	-0.208
-398.179	475.318	0.085	-0.191
-397.165	212.691	0.082	0.129
-396.150	246.275	-0.162	0.272
-395.136	-182.317	-0.177	-0.003
-394.121	222.132	0.242	-0.387
-393.106	-142.905	0.152	-0.015
-392.092	800.000	0.062	0.182
-391.077	-67.959	0.168	-0.065
-390.063	-200.000	-0.138	0.000
-389.048	133.788	0.135	0.174
-388.033	800.000	-0.024	0.090
-387.019	256.062	-0.047	-0.079
-386.004	136.426	0.149	-0.193
-384.990	-46.232	-0.071	-0.035
-383.975	-47.912	0.176	-0.085
-382.960	800.000	-0.099	0.284
-381.946	75.530	0.179	0.188
-380.931	-129.399	0.047	0.007
-379.917	119.250	0.029	-0.036
-378.902	800.000	-0.059	-0.199
-377.888	108.117	0.270	-0.320
-376.873	800.000	-0.049	0.166
-375.858	-75.442	0.129	-0.045
-374.844	296.346	0.159	0.290
-373.829	41.770	0.168	-0.151
-372.815	-200.000	-0.057	0.257
-371.800	-200.000	0.095	-0.433
-370.785	16.663	-0.370	-0.291
-369.771	-131.372	0.272	0.036
-368.756	-200.000	-0.005	-0.127
-367.742	-64.561	0.209	0.084
-366.727	174.855	0.077	0.111
-365.712	176.963	0.061	-0.088
-364.698	274.636	0.084	0.147
-363.683	800.000	0.041	0.138
-362.669	50.044	0.224	0.210
-361.654	51.385	0.055	-0.052
-360.639	-157.742	0.123	0.007
-359.625	24.960	0.123	0.101
-358.610	0.164	-0.081	0.057
-357.596	-200.000	-0.052	-0.237
-356.581	27.272	-0.322	0.269
-355.566	-72.509	0.213	-0.078
-354.552	-200.000	-0.001	0.175
-353.537	-188.985	-0.106	-0.001
-352.523	275.639	-0.128	0.226
-351.508	28.581	0.114	0.096
-350.493	282.222	-0.143	0.254
-349.479	-200.000	0.019	0.110
-348.464	87.479	0.103	-0.114
-347.450	-72.707	0.199	0.073
-346.435	-22.076	0.355	0.214
-345.420	-200.000	-0.056	-0.255
-344.406	-200.000	0.034	0.228
-343.391	255.257	0.109	0.185
-342.377	226.545	-0.194	0.312
-341.362	-195.518	0.071	0.001
-340.348	13.401	0.037	0.029
-339.333	800.000	0.065	0.200
-338.318	-0.835	0.156	-0.110
-337.304	-89.633	-0.115	0.033
-336.289	574.949	-0.180	0.437
-335.275	51.482	-0.126	0.119
-334.260	800.000	-0.080	0.250
-333.245	-14.735	-0.264	0.168
-332.231	145.373	0.099	-0.131
-331.216	335.996	0.038	0.072
-330.202	293.199	-0.056	0.101
-329.187	-8.083	0.280	-0.187
-328.172	336.523	0.117	-0.225
-327.158	-51.497	0.064	0.030
-326.143	490.470	0.070	0.159
-325.129	-15.185	-0.237	-0.150
-324.114	-106.795	0.041	-0.009
-323.099	-200.000	0.007	-0.098
-322.085	-128.056	0.169	-0.024
-321.070	781.982	-0.043	-0.117
-320.056	800.000	-0.104	-0.302
-319.041	-200.000	0.016	0.071
-318.026	-200.000	-0.036	-0.306
-317.012	-35.384	0.199	-0.107
-315.997	140.186	0.022	0.029
-314.983	-200.000	-0.005	-0.056
-313.968	-118.940	0.105	-0.018
-312.953	800.000	0.043	0.133
-311.939	800.000	0.022	-0.066
-310.924	-22.923	0.211	0.126
-309.910	202.616	-0.202	0.309
-308.895	-200.000	-0.042	-0.183
-307.880	368.164	0.124	-0.248
-306.866	198.773	0.071	-0.107
-305.851	405.214	0.085	-0.177
-304.837	-23.102	0.179	0.107
-303.822	-60.583	-0.147	0.062
-302.807	-200.000	0.041	0.191
-301.793	-51.145	0.235	-0.109
-300.778	738.988	-0.167	0.442
-299.764	122.166	-0.029	-0.036
-298.749	225.614	0.028	0.045
-297.735	108.727	0.119	0.141
-296.720	168.514	0.247	-0.348
-295.705	-170.041	-0.261	-0.009
-294.691	800.000	0.064	-0.214
-293.676	31.392	-0.308	-0.262
-292.662	426.065	-0.135	0.288
-291.647	-16.525	-0.167	-0.105
-290.632	-200.000	0.019	0.120
-289.618	-6.135	-0.192	-0.130
-288.603	499.846	0.140	-0.318
-287.589	232.700	-0.014	-0.023
-286.574	800.000	-0.044	-0.143
-285.559	-200.000	0.034	-0.147
-284.545	-27.715	-0.279	0.160
-283.530	-18.675	-0.376	-0.232
-282.516	-7.033	0.227	0.152
-281.501	-103.336	0.270	0.063
-280.486	65.126	-0.148	-0.148
-279.472	442.113	-0.118	-0.256
-278.457	98.672	-0.110	-0.126
-277.443	90.988	-0.182	-0.202
-276.428	299.852	0.104	0.190
-275.413	360.626	0.128	-0.254
-274.399	800.000	-0.112	0.396
-273.384	-200.000	0.004	0.572
-272.370	800.000	0.074	0.247
-271.355	-110.255	0.296	-0.061
-270.340	100.759	0.135	0.155
-269.326	319.563	-0.049	0.092
-268.311	16.502	-0.217	0.169
-267.297	-11.715	-0.045	0.029
-266.282	-8.311	-0.141	-0.094
-265.267	43.158	0.087	0.078
-264.253	-1.807	0.428	0.298
-263.238	-82.939	0.075	-0.024
-262.224	-200.000	0.011	-0.306
-261.209	474.614	-0.114	0.255
-260.195	-200.000	-0.002	0.236
-259.180	-71.697	-0.036	0.013
-258.165	-200.000	-0.069	-0.359
-257.151	158.527	-0.269	-0.369
-256.136	-200.000	-0.033	0.421
-255.122	-35.085	-0.085	-0.046
-254.107	8.176	-0.078	-0.058
-253.092	-32.381	0.300	-0.165
-252.078	163.064	0.068	0.094
-251.063	-143.427	-0.143	-0.014
-250.049	-200.000	0.022	-0.217
-249.034	753.601	0.069	-0.183
-248.019	-106.433	0.365	-0.081
-247.005	3.461	-0.228	-0.164
-245.990	-200.000	-0.074	-0.422
-244.976	-22.004	0.096	-0.057
-243.961	18.765	0.098	0.077
-242.946	37.550	-0.211	0.185
-241.932	-59.254	-0.212	0.090
-240.917	590.231	-0.176	-0.428
-239.903	800.000	-0.025	-0.096
-238.888	800.000	0.091	0.293
-237.873	747.153	0.118	-0.314
-236.859	-85.135	-0.075	-0.023
-235.844	109.204	-0.148	-0.174
-234.830	145.408	0.191	-0.252
-233.815	800.000	-0.049	0.200
-232.800	800.000	0.026	0.090
-231.786	1.316	0.192	0.136
-230.771	-111.827	-0.286	-0.057
-229.757	322.798	0.169	-0.318
-228.742	151.842	-0.126	-0.169
-227.727	108.421	-0.150	-0.176
-226.713	-107.559	-0.302	0.065
-225.698	616.733	-0.137	0.338
-224.684	-22.761	0.265	-0.158
-223.669	-33.428	0.265	-0.145
-222.655	-44.739	-0.079	0.039
-221.640	72.474	-0.095	-0.098
-220.625	8.353	0.131	-0.097
-219.611	-23.257	-0.226	-0.134
-218.596	-200.000	0.067	-0.373
-217.582	800.000	-0.027	0.089
-216.567	-200.000	-0.001	0.060
-215.552	-37.506	0.206	-0.109
-214.538	25.934	-0.355	-0.292
-213.523	214.673	-0.326	0.510
-212.509	-200.000	-0.012	-0.064
-211.494	800.000	0.080	0.305
-210.479	-200.000	0.013	0.151
-209.465	237.360	-0.120	0.196
-208.450	24.176	0.062	0.050
-207.436	-123.857	-0.357	0.056
-206.421	-80.378	0.111	-0.037
-205.406	-75.273	0.413	0.145
-204.392	62.217	0.176	-0.173
-203.377	112.371	-0.122	0.146
-202.363	-3.044	-0.168	0.116
-201.348	279.787	0.107	0.189
-200.333	116.039	-0.082	0.099
-199.319	-159.779	0.184	0.010
-198.304	177.224	0.046	0.066
-197.290	-200.000	0.005	-0.171
-196.275	-148.856	0.225	-0.018
-195.260	-200.000	0.015	-0.110
-194.246	592.584	-0.108	0.263
-193.231	-165.661	0.214	-0.009
-192.217	-200.000	-0.020	0.132
-191.202	-133.081	0.140	0.017
-190.187	381.768	-0.079	0.161
-189.173	-200.000	0.096	-0.548
-188.158	-149.339	-0.138	0.011
-187.144	-200.000	-0.001	0.032
-186.129	-200.000	0.065	0.553
-185.114	-5.730	0.297	-0.200
-184.100	127.786	-0.161	-0.202
-183.085	-123.058	-0.121	0.019
-182.071	-15.417	0.129	0.081
-181.056	126.883	-0.167	-0.208
-180.042	-117.860	-0.166	0.029
-179.027	-112.736	-0.040	0.008
-178.012	23.785	-0.429	-0.349
-176.998	-36.157	0.151	0.081
-175.983	81.695	0.103	-0.110
-174.969	543.265	-0.033	0.078
-173.954	-22.718	0.304	0.181
-172.939	-93.856	0.113	0.030
-171.925	165.074	0.054	-0.076
-170.910	-200.000	-0.035	0.441
-169.896	-200.000	-0.039	0.173
-168.881	-75.117	-0.088	-0.031
-167.866	800.000	-0.066	0.200
-166.852	-72.881	-0.099	-0.036
-165.837	-200.000	-0.023	-0.156
-164.823	208.216	-0.248	0.382
-163.808	625.144	-0.139	-0.346
-162.793	87.231	-0.106	-0.116
-161.779	-71.705	0.367	-0.135
-160.764	-200.000	0.015	0.083
-159.750	-30.881	-0.112	0.062
-158.735	214.108	-0.088	0.138
-157.720	-4.499	0.051	0.035
-156.706	302.405	0.024	0.045
-155.691	-86.151	-0.133	-0.040
-154.677	-33.837	-0.312	0.169
-153.662	-200.000	-0.002	-0.011
-152.647	55.658	0.231	-0.220
-151.633	-19.031	-0.171	0.104
-150.618	563.841	0.181	0.431
-149.604	800.000	-0.057	-0.241
-148.589	-122.813	0.226	-0.036
-147.574	-38.988	0.546	0.283
-146.560	-98.146	-0.075	-0.019
-145.545	254.715	-0.147	0.247
-144.531	-200.000	0.001	0.427
-143.516	-175.093	0.320	-0.009
-142.502	-68.534	-0.236	0.090
-141.487	-84.500	-0.198	0.061
-140.472	-200.000	0.560	0.002
-139.458	-200.000	0.001	0.141
-138.443	31.707	-0.118	-0.100
-137.429	-127.833	0.115	0.016
-136.414	462.084	-0.114	0.250
-135.399	800.000	0.018	-0.055
-134.385	-80.396	-0.155	0.051
-133.370	78.377	0.086	-0.090
-132.356	-18.149	-0.092	0.057
-131.341	-62.080	0.122	-0.050
-130.326	58.222	-0.354	0.342
-129.312	609.027	-0.066	0.161
-128.297	545.686	-0.137	-0.322
-127.283	-99.907	-0.299	0.073
-126.268	-157.812	0.238	-0.014
-125.253	-200.000	-0.025	-0.197
-124.239	-200.000	-0.011	0.288
-123.224	-48.167	0.479	-0.227
-122.210	65.921	0.205	-0.204
-121.195	53.827	-0.231	-0.218
-120.180	-200.000	-0.013	-0.164
-119.166	430.968	0.076	-0.162
-118.151	9.451	-0.331	0.246
-117.137	-145.526	-0.303	-0.027
-116.122	-63.635	-0.335	-0.135
-115.107	269.796	0.096	0.166
-114.093	67.600	-0.021	-0.021
-113.078	1.686	-0.247	-0.175
-112.064	94.892	0.182	0.203
-111.049	318.139	0.197	0.367
-110.034	255.333	-0.042	0.071
-109.020	-200.000	0.101	0.439
-108.005	800.000	-0.021	0.089
-106.991	-185.784	0.313	-0.005
-105.976	-200.000	-0.109	-0.517
-104.962	-3.202	-0.142	-0.097
-103.947	-43.287	0.099	0.049
-102.932	-155.772	-0.307	-0.019
-101.918	-200.000	0.061	-0.284
-100.903	-61.997	-0.169	-0.069
-99.889	800.000	-0.084	-0.271
-98.874	-37.608	0.152	0.080
-97.859	136.325	0.063	0.080
-96.845	189.381	0.097	-0.143
-95.830	-200.000	-0.024	-0.114
-94.816	723.093	-0.109	-0.285
-93.801	238.165	0.067	-0.109
-92.786	159.817	-0.260	0.356
-91.772	-200.000	-0.009	-0.046
-90.757	691.055	-0.058	-0.150
-89.743	-2.953	0.216	0.148
-88.728	48.893	0.223	-0.205
-87.713	-42.724	0.109	0.055
-86.699	800.000	0.029	0.079
-85.684	4.587	0.119	-0.086
-84.670	475.446	-0.069	0.152
-83.655	27.035	-0.215	0.177
-82.640	-93.709	-0.028	0.008
-81.626	800.000	-0.015	0.052
-80.611	-27.936	0.188	0.107
-79.597	-166.641	0.250	-0.010
-78.582	14.249	0.073	-0.056
-77.567	35.275	-0.195	-0.168
-76.553	581.868	-0.142	-0.343
-75.538	-162.302	-0.229	-0.011
-74.524	-200.000	-0.080	-0.374
-73.509	270.926	0.085	0.147
-72.494	-114.811	0.232	-0.043
-71.480	800.000	0.036	-0.107
-70.465	-14.700	0.053	0.033
-69.451	130.540	-0.192	0.242
-68.436	800.000	-0.035	0.130
-67.422	-131.921	0.041	0.005
-66.407	-47.519	0.288	0.137
-65.392	487.629	-0.077	0.173
-64.378	501.057	-0.035	-0.080
-63.363	-8.933	-0.248	0.163
-62.349	800.000	-0.123	0.486
-61.334	289.571	-0.703	-1.251
-60.319	86.344	0.400	0.432
-59.305	800.000	-0.344	-1.144
-58.290	8.272	0.890	0.656
-57.276	336.520	0.882	1.679
-56.261	-200.000	98.231	597.856
-55.246	606.118	1406.768	3436.852
-54.232	190.474	2607.605	3840.884
-53.217	111.184	2280.522	2693.456
-52.203	41.741	1898.235	1686.370
-51.188	35.576	1686.991	1452.215
-50.173	32.848	1642.535	1393.774
-49.159	50.264	1691.144	1565.909
-48.144	51.843	1707.116	1592.466
-47.130	35.097	1667.091	1431.281
-46.115	32.286	1652.971	1398.228
-45.100	32.177	1647.819	1393.005
-44.086	32.146	1644.729	1390.114
-43.071	32.123	1642.463	1387.969
-42.057	32.123	1639.614	1385.508
-41.042	32.117	1638.131	1384.156
-40.027	32.078	1636.470	1382.411
-39.013	32.086	1634.303	1380.584
-37.998	32.073	1632.504	1378.915
-36.984	32.125	1631.040	1378.006
-35.969	32.249	1629.667	1377.699
-34.954	32.266	1628.064	1376.413
-33.940	32.362	1625.900	1375.234
-32.925	32.221	1624.698	1373.132
-31.911	32.171	1622.791	1371.099
-30.896	32.288	1620.759	1370.180
-29.881	32.231	1619.342	1368.509
-28.867	32.316	1617.079	1367.165
-27.852	32.187	1616.052	1365.301
-26.838	32.165	1614.774	1364.011
-25.823	32.201	1613.261	1362.936
-24.809	32.256	1611.680	1361.948
-23.794	32.242	1610.993	1361.210
-22.779	32.189	1609.501	1359.515
-21.765	32.276	1607.072	1358.034
-20.750	32.221	1605.752	1356.473
-19.736	32.298	1603.981	1355.479
-18.721	32.313	1602.609	1354.373
-17.706	32.294	1601.322	1353.095
-16.692	32.275	1599.775	1351.594
-15.677	32.248	1598.563	1350.320
-14.663	32.365	1596.685	1349.525
-13.648	32.248	1595.682	1347.781
-12.633	32.230	1594.565	1346.660
-11.619	32.296	1593.215	1345.938
-10.604	32.390	1591.068	1344.738
-9.590	32.287	1590.132	1343.157
-8.575	32.377	1588.459	1342.339
-7.560	32.319	1587.464	1341.027
-6.546	32.322	1586.539	1340.216
-5.531	32.370	1585.076	1339.267
-4.517	32.236	1584.393	1337.687
-3.502	32.304	1583.259	1337.157
-2.487	32.435	1581.083	1336.199
-1.473	31.916	1569.663	1322.830
-0.458	28.862	1549.817	1284.750
0.556	22.781	1549.812	1250.541
1.571	20.350	1573.619	1252.126
2.586	19.899	1587.854	1260.058
3.600	18.149	1536.169	1206.598
4.615	9.902	1426.249	1065.920
5.629	1.563	1360.320	963.878
6.644	-0.166	1351.684	946.779
7.659	-0.290	1350.669	945.199
8.673	-0.371	1349.837	944.025
9.688	-0.372	1348.078	942.704
10.702	-0.539	1344.799	939.286
11.717	2.878	1351.147	965.136
12.731	12.098	1368.570	1035.982
13.746	18.712	1379.299	1085.987
14.761	19.730	1379.834	1092.753
15.775	19.785	1379.543	1092.770
16.790	19.887	1378.841	1092.762
17.804	19.852	1378.452	1092.136
18.819	20.067	1378.257	1093.243
19.834	20.217	1376.981	1093.076
20.848	20.159	1376.830	1092.494
21.863	20.135	1376.020	1091.604
22.877	20.183	1375.097	1091.078
23.892	20.047	1374.513	1089.665
24.907	20.162	1373.157	1089.212
25.921	20.097	1372.505	1088.195
26.936	20.090	1371.499	1087.254
27.950	20.196	1370.118	1086.727
28.965	20.185	1368.769	1085.494
29.980	20.109	1368.011	1084.321
30.994	20.201	1366.574	1083.659
32.009	20.230	1365.612	1082.980
33.023	20.162	1364.249	1081.381
34.038	20.080	1363.532	1080.205
35.053	20.096	1362.299	1079.236
36.067	20.068	1361.426	1078.274
37.082	20.104	1360.431	1077.613
38.096	20.132	1359.435	1076.901
39.111	20.112	1358.679	1076.084
40.126	20.135	1358.087	1075.664
41.140	20.097	1357.528	1074.888
42.155	20.290	1356.657	1075.301
43.169	20.144	1356.861	1074.462
44.184	20.049	1356.946	1073.848
45.199	20.103	1356.530	1073.756
46.213	20.131	1355.942	1073.367
47.228	20.079	1355.041	1072.241
48.242	20.050	1353.388	1070.657
49.257	20.152	1351.679	1069.841
50.271	20.030	1350.782	1068.282
51.286	20.133	1349.359	1067.700
52.301	20.219	1347.829	1066.922
53.315	20.071	1347.457	1065.625
54.330	20.053	1346.630	1064.766
55.344	20.135	1344.796	1063.722
56.359	20.113	1344.433	1063.209
57.374	20.139	1343.146	1062.251
58.388	20.145	1343.024	1062.100
59.403	20.070	1342.399	1061.055
60.417	20.143	1341.742	1060.888
61.432	20.098	1340.870	1059.828
62.447	20.188	1339.425	1059.142
63.461	20.137	1338.866	1058.295
64.476	20.276	1337.059	1057.617
65.490	20.116	1336.231	1055.899
66.505	20.122	1334.537	1054.498
67.520	20.153	1333.377	1053.679
68.534	20.052	1333.010	1052.685
69.549	20.212	1331.645	1052.482
70.563	20.237	1330.802	1051.874
71.578	20.143	1329.785	1050.408
72.593	20.109	1329.042	1049.522
73.607	20.170	1328.062	1049.027
74.622	20.090	1327.622	1048.102
75.636	20.189	1327.118	1048.209
76.651	20.218	1325.840	1047.281
77.666	20.118	1325.577	1046.379
78.680	20.251	1324.677	1046.375
79.695	20.161	1323.879	1045.114
80.709	20.077	1323.040	1043.851
81.724	20.150	1322.149	1043.497
82.739	20.188	1321.040	1042.757
83.753	20.120	1320.322	1041.689
84.768	20.244	1318.896	1041.217
85.782	20.174	1318.203	1040.153
86.797	20.230	1316.831	1039.315
87.812	20.153	1315.892	1038.020
88.826	20.147	1315.242	1037.383
89.841	20.110	1314.103	1036.171
90.855	20.157	1312.578	1035.159
91.870	20.258	1311.836	1035.081
92.884	20.252	1311.076	1034.359
93.899	20.255	1310.308	1033.676
94.914	20.211	1309.431	1032.629
95.928	20.196	1308.531	1031.742
96.943	20.182	1307.881	1031.054
97.957	20.208	1307.104	1030.507
98.972	20.209	1306.093	1029.624
99.987	20.314	1304.690	1029.045
101.001	20.168	1303.999	1027.549
102.016	20.193	1303.347	1027.090
103.030	20.211	1302.409	1026.364
104.045	20.151	1301.443	1025.160
105.060	20.153	1300.358	1024.227
106.074	20.218	1299.281	1023.673
107.089	20.271	1297.999	1022.882
108.103	20.269	1297.187	1022.139
109.118	20.353	1295.726	1021.395
110.133	20.321	1294.680	1020.288
111.147	20.311	1293.079	1018.879
112.162	20.395	1291.675	1018.178
113.176	20.268	1290.956	1016.774
114.191	20.251	1290.290	1016.059
115.206	20.368	1288.630	1015.346
116.220	20.310	1287.759	1014.235
117.235	20.199	1287.033	1012.922
118.249	20.338	1286.063	1012.879
119.264	20.281	1284.707	1011.388
120.279	20.353	1283.626	1010.872
121.293	20.392	1283.270	1010.729
122.308	20.274	1282.727	1009.526
123.322	20.258	1281.344	1008.252
124.337	20.355	1280.429	1008.009
125.352	20.327	1279.313	1006.875
126.366	20.387	1278.635	1006.603
127.381	20.449	1277.362	1005.869
128.395	20.364	1276.144	1004.329
129.410	20.378	1275.301	1003.658
130.424	20.341	1275.076	1003.178
131.439	20.338	1273.913	1002.157
132.454	20.290	1273.064	1001.122
133.468	20.381	1272.684	1001.263
134.483	20.259	1271.767	999.749
135.497	20.434	1270.631	999.775
136.512	20.257	1269.691	997.930
137.527	20.386	1268.256	997.453
138.541	20.336	1266.858	995.976
139.556	20.338	1265.484	994.824
140.570	20.265	1264.794	993.772
141.585	20.284	1263.516	992.790
142.600	20.269	1262.358	991.706
143.614	20.355	1261.594	991.509
144.629	20.335	1260.367	990.344
145.643	20.336	1259.158	989.311
146.658	20.255	1258.219	988.023
147.673	20.264	1256.771	986.852
148.687	20.193	1256.311	986.002
149.702	20.318	1255.167	985.723
150.716	20.194	1254.647	984.522
151.731	20.365	1252.778	983.941
152.746	20.279	1252.271	982.967
153.760	20.396	1251.093	982.620
154.775	20.395	1249.995	981.664
155.789	20.356	1249.196	980.727
156.804	20.300	1248.202	979.545
157.819	20.286	1247.424	978.769
158.833	20.412	1246.039	978.305
159.848	20.333	1245.954	977.707
160.862	20.439	1244.988	977.460
161.877	20.451	1243.700	976.431
162.892	20.408	1243.247	975.748
163.906	20.338	1242.744	974.873
164.921	20.409	1242.039	974.632
165.935	20.409	1241.179	973.868
166.950	20.428	1240.501	973.357
167.964	20.560	1239.657	973.346
168.979	20.439	1239.229	972.249
169.994	20.473	1238.569	971.836
171.008	20.398	1237.794	970.720
172.023	20.515	1237.142	970.779
173.037	20.506	1236.264	969.951
174.052	20.397	1235.852	968.937
175.067	20.498	1234.802	968.588
176.081	20.444	1234.115	967.664
177.096	20.420	1233.367	966.860
178.110	20.526	1232.068	966.342
179.125	20.621	1231.266	966.160
180.140	20.472	1230.382	964.554
181.154	20.455	1229.205	963.451
182.169	20.575	1227.672	962.829
183.183	20.443	1227.050	961.525
184.198	20.426	1226.086	960.587
185.213	20.613	1224.880	960.594
186.227	20.523	1224.357	959.601
187.242	20.529	1223.252	958.685
188.256	20.683	1222.216	958.636
189.271	20.623	1221.490	957.651
190.286	20.690	1220.661	957.281
191.300	20.614	1220.351	956.538
192.315	20.520	1220.027	955.680
193.329	20.581	1219.889	955.823
194.344	20.557	1218.731	954.700
195.359	20.572	1218.530	954.539
196.373	20.581	1218.208	954.254
197.388	20.526	1217.325	953.177
198.402	20.384	1217.525	952.468
199.417	20.455	1216.922	952.303
200.432	20.504	1216.106	951.851
201.446	20.567	1215.321	951.493
202.461	20.595	1214.261	950.735
203.475	20.539	1213.851	950.021
204.490	20.609	1212.631	949.367
205.504	20.574	1211.566	948.258
206.519	20.617	1210.954	947.927
207.534	20.611	1209.701	946.830
208.548	20.602	1209.277	946.368
209.563	20.706	1208.152	945.966
210.577	20.590	1207.791	944.969
211.592	20.571	1206.540	943.807
212.607	20.680	1205.775	943.717
213.621	20.598	1205.612	943.058
214.636	20.660	1204.407	942.371
215.650	20.658	1203.564	941.618
216.665	20.579	1202.571	940.329
217.680	20.697	1201.498	940.043
218.694	20.700	1200.969	939.560
219.709	20.643	1200.328	938.672
220.723	20.678	1199.950	938.481
221.738	20.586	1199.002	937.158
222.753	20.620	1198.232	936.658
223.767	20.686	1197.245	936.160
224.782	20.773	1196.682	936.104
225.796	20.758	1196.677	935.935
226.811	20.684	1196.160	935.051
227.826	20.726	1195.318	934.537
228.840	20.825	1194.780	934.562
229.855	20.809	1193.775	933.608
230.869	20.793	1192.880	932.740
231.884	20.760	1192.527	932.207
232.899	20.702	1191.749	931.205
233.913	20.782	1191.338	931.230
234.928	20.789	1191.042	930.955
235.942	20.814	1190.016	930.204
236.957	20.734	1189.483	929.278
237.972	20.790	1188.493	928.717
238.986	20.799	1188.063	928.349
240.001	20.901	1187.276	928.194
241.015	20.984	1186.493	927.942
242.030	20.898	1185.755	926.825
243.045	20.982	1184.883	926.507
244.059	20.904	1184.371	925.612
245.074	20.907	1183.668	924.997
246.088	20.822	1182.930	923.888
247.103	20.932	1182.054	923.704
248.117	20.891	1181.126	922.680
249.132	20.966	1180.319	922.364
250.147	20.888	1179.514	921.239
251.161	20.998	1178.871	921.239
252.176	20.871	1178.375	920.101
253.190	20.901	1177.791	919.722
254.205	20.986	1177.554	919.904
255.220	20.874	1176.768	918.619
256.234	21.090	1175.914	919.004
257.249	21.026	1175.642	918.378
258.263	20.969	1174.981	917.476
259.278	21.018	1174.608	917.365
260.293	21.053	1173.875	916.894
261.307	21.070	1173.298	916.449
262.322	21.018	1172.903	915.789
263.336	20.996	1171.959	914.855
264.351	21.037	1171.252	914.438
265.366	21.059	1170.921	914.214
266.380	21.023	1170.094	913.297
267.395	21.101	1169.089	912.842
268.409	21.029	1168.800	912.160
269.424	21.066	1167.993	911.638
270.439	21.110	1167.473	911.385
271.453	21.066	1167.303	910.944
272.468	21.079	1166.287	910.132
273.482	21.015	1165.764	909.313
274.497	21.035	1165.045	908.778
275.512	21.237	1164.328	909.187
276.526	21.200	1163.577	908.328
277.541	21.158	1163.362	907.863
278.555	21.206	1162.127	907.067
279.570	21.223	1161.987	906.967
280.585	21.206	1160.614	905.726
281.599	21.218	1160.065	905.279
282.614	21.171	1159.297	904.358
283.628	21.227	1158.482	903.929
284.643	21.242	1157.136	902.877
285.657	21.307	1156.514	902.646
286.672	21.180	1155.706	901.285
287.687	21.237	1155.031	900.968
288.701	21.381	1154.328	901.086
289.716	21.218	1153.663	899.644
290.730	21.321	1152.667	899.320
291.745	21.395	1152.248	899.296
292.760	21.323	1152.049	898.691
293.774	21.369	1151.458	898.383
294.789	21.347	1150.309	897.296
295.803	21.324	1150.489	897.238
296.818	21.382	1149.448	896.646
297.833	21.313	1148.697	895.627
298.847	21.473	1148.206	895.981
299.862	21.381	1147.095	894.569
300.876	21.346	1146.921	894.174
301.891	21.478	1146.331	894.308
302.906	21.437	1145.439	893.324
303.920	21.561	1144.660	893.270
304.935	21.412	1144.228	892.096
305.949	21.366	1143.621	891.305
306.964	21.554	1143.253	891.902
307.979	21.528	1142.269	890.922
308.993	21.539	1141.493	890.295
310.008	21.567	1140.985	889.959
311.022	21.398	1140.573	888.700
312.037	21.536	1139.454	888.449
313.052	21.457	1138.587	887.294
314.066	21.508	1137.705	886.789
315.081	21.510	1137.117	886.263
316.095	21.512	1136.438	885.665
317.110	21.394	1136.072	884.701
318.125	21.510	1135.530	884.790
319.139	21.475	1134.464	883.705
320.154	21.554	1134.351	883.935
321.168	21.547	1133.488	883.150
322.183	21.629	1132.804	882.954
323.197	21.525	1132.275	881.940
324.212	21.511	1131.791	881.413
325.227	21.563	1131.044	881.014
326.241	21.634	1130.634	880.977
327.256	21.639	1129.988	880.419
328.270	21.738	1128.980	880.055
329.285	21.627	1128.425	878.986
330.300	21.666	1127.198	878.146
331.314	21.588	1126.782	877.353
332.329	21.685	1125.850	877.038
333.343	21.832	1124.373	876.544
334.358	21.724	1124.406	875.953
335.373	21.674	1124.022	875.325
336.387	21.701	1122.958	874.553
337.402	21.692	1122.366	873.971
338.416	21.684	1121.928	873.512
339.431	21.745	1120.855	872.902
340.446	21.832	1120.161	872.717
341.460	21.870	1119.690	872.464
342.475	21.872	1118.590	871.538
343.489	21.723	1117.921	870.201
344.504	21.799	1117.278	870.001
345.519	21.793	1116.500	869.285
346.533	21.805	1115.603	868.572
347.548	21.847	1114.715	868.010
348.562	21.783	1114.142	867.173
349.577	21.785	1113.626	866.704
350.592	21.780	1112.935	866.066
351.606	21.842	1112.299	865.799
352.621	21.975	1111.314	865.614
353.635	21.957	1110.770	865.024
354.650	21.880	1110.114	864.058
355.665	21.939	1109.386	863.704
356.679	21.999	1109.126	863.720
357.694	21.879	1108.793	862.795
358.708	21.901	1107.782	862.038
359.723	21.963	1107.102	861.739
360.738	21.903	1106.462	860.870
361.752	21.956	1106.141	860.805
362.767	21.946	1105.617	860.269
363.781	22.010	1104.908	859.957
364.796	21.951	1104.370	859.171
365.810	22.006	1103.624	858.786
366.825	22.061	1103.258	858.694
367.840	22.071	1102.719	858.247
368.854	22.135	1101.934	857.874
369.869	22.143	1101.353	857.381
370.883	22.193	1100.384	856.794
371.898	22.158	1099.551	855.900
372.913	22.178	1099.241	855.681
373.927	22.145	1098.411	854.797
374.942	22.230	1098.121	854.910
375.956	22.116	1097.741	853.985
376.971	22.182	1096.873	853.556
377.986	22.143	1096.553	853.041
379.000	22.260	1095.924	853.044
380.015	22.279	1095.497	852.727
381.029	22.227	1095.020	852.030
382.044	22.262	1094.192	851.480
383.059	22.229	1093.814	850.950
384.073	22.275	1092.749	850.268
385.088	22.396	1091.609	849.892
386.102	22.283	1091.036	848.824
387.117	22.227	1090.134	847.779
388.132	22.262	1089.239	847.175
389.146	22.313	1088.761	846.973
390.161	22.308	1088.304	846.520
391.175	22.284	1087.461	845.673
392.190	22.344	1086.552	845.180
393.205	22.384	1085.748	844.673
394.219	22.309	1085.525	844.065
395.234	22.429	1084.525	843.787
396.248	22.345	1083.746	842.701
397.263	22.478	1083.135	842.792
398.278	22.464	1082.324	842.018
399.292	22.518	1081.462	841.532
400.307	22.514	1080.897	840.996
401.321	22.427	1080.482	840.183
402.336	22.362	1079.821	839.288
403.350	22.406	1079.024	838.804
404.365	22.518	1078.471	838.833
405.380	22.538	1077.687	838.241
406.394	22.514	1076.958	837.485
407.409	22.522	1076.452	837.059
408.423	22.549	1075.400	836.296
409.438	22.609	1074.926	836.136
410.453	22.580	1074.063	835.252
411.467	22.625	1073.485	834.940
412.482	22.672	1072.548	834.365
413.496	22.663	1072.067	833.870
414.511	22.645	1071.542	833.304
415.526	22.587	1071.185	832.679
416.540	22.680	1070.503	832.514
417.555	22.665	1069.945	831.934
418.569	22.755	1069.490	831.935
419.584	22.709	1069.426	831.591
420.599	22.803	1068.489	831.235
421.613	148.848	1397.641	1793.929
422.628	137.124	1445.600	1794.019
