DTS Sentinel unit serial number:	SN413079Multiplexer serial number:	ORYXHardware model number:	OX4-SRSoftware version number:	ORYX F/W v4.00 Oryx Data Collector v3.7.2.0data status	okinstallation	princeton_trtdifferential loss correction	single-endedforward channel	channel 2reverse channel	N/Adate	2019/09/11time	23:53:11forward acquisition time	60.00reverse acquisition time	0.00gamma	496.2192k internal	0.2325k external	0.2325temperature offset calibration	1.0086default loss term (dB/km)	0.3790temperature slope calibration	1.0000multiplexer offset coefficient	1.0000multiplexer slope coefficient	1.0000fibre end	0.00T internal ref (°C)	33.87T ext. ref 1 (°C)	2.00T ext. ref 2 (°C)	27.98length (m)	temperature (°C)	Stokes	anti-Stokes-747.200	-76.562	0.107	0.038
-746.185	-200.000	0.003	-0.155
-745.171	266.653	0.119	0.210
-744.156	800.000	-0.037	0.145
-743.142	302.665	0.121	-0.226
-742.127	-83.936	-0.255	-0.082
-741.112	-200.000	0.019	-0.278
-740.098	421.090	-0.157	0.339
-739.083	-200.000	-0.013	0.113
-738.069	358.629	-0.049	0.099
-737.054	-200.000	0.032	0.300
-736.039	91.810	-0.087	-0.099
-735.025	176.686	-0.100	-0.146
-734.010	-200.000	0.014	0.368
-732.996	-200.000	0.011	-0.252
-731.981	-93.152	0.199	0.056
-730.966	13.815	-0.167	-0.131
-729.952	-200.000	-0.042	-0.285
-728.937	211.735	0.070	-0.111
-727.923	-63.106	-0.234	-0.097
-726.908	-49.946	0.302	0.144
-725.894	68.912	0.206	-0.213
-724.879	800.000	-0.038	-0.120
-723.864	-200.000	-0.009	-0.151
-722.850	-4.726	-0.276	0.192
-721.835	-94.149	-0.151	0.042
-720.821	-200.000	0.009	0.099
-719.806	192.465	-0.212	-0.323
-718.791	-185.695	0.168	-0.003
-717.777	-26.719	-0.218	-0.129
-716.762	-113.875	-0.217	-0.042
-715.748	-157.372	0.126	-0.008
-714.733	-41.242	-0.239	0.124
-713.718	112.265	0.119	-0.145
-712.704	-200.000	-0.011	0.171
-711.689	84.213	-0.251	0.277
-710.675	390.887	-0.093	-0.194
-709.660	-108.218	-0.189	0.041
-708.645	-55.137	0.204	0.092
-707.631	222.490	0.088	0.143
-706.616	-52.003	0.243	-0.114
-705.602	15.563	0.062	-0.049
-704.587	1.281	-0.137	0.099
-703.572	138.011	0.108	-0.142
-702.558	212.057	0.083	-0.132
-701.543	-165.491	-0.414	-0.018
-700.529	-114.829	0.202	-0.039
-699.514	-56.443	-0.067	0.030
-698.499	800.000	-0.116	0.334
-697.485	-200.000	-0.022	0.125
-696.470	-114.221	-0.149	-0.029
-695.456	55.511	-0.124	-0.121
-694.441	-188.257	-0.311	0.004
-693.426	-200.000	-0.007	0.061
-692.412	641.578	0.059	0.151
-691.397	61.441	0.246	0.246
-690.383	468.935	-0.023	-0.053
-689.368	7.090	0.224	0.169
-688.354	32.145	0.200	0.174
-687.339	271.642	-0.214	0.380
-686.324	6.490	-0.059	0.044
-685.310	-55.640	-0.446	-0.201
-684.295	47.723	0.070	-0.066
-683.281	-49.351	0.021	0.010
-682.266	-196.159	0.132	-0.001
-681.251	-139.594	-0.227	0.024
-680.237	-149.186	0.302	0.024
-679.222	-200.000	0.002	0.262
-678.208	71.823	-0.099	-0.104
-677.193	800.000	-0.061	0.216
-676.178	101.043	0.188	-0.220
-675.164	-58.062	-0.196	-0.086
-674.149	800.000	-0.064	0.277
-673.135	-43.440	-0.098	0.050
-672.120	800.000	-0.042	0.183
-671.105	-43.973	0.121	0.061
-670.091	-54.922	-0.201	-0.091
-669.076	68.451	-0.086	-0.088
-668.062	140.209	-0.079	0.105
-667.047	507.004	0.174	-0.405
-666.032	343.303	0.088	-0.174
-665.018	-36.175	0.051	0.027
-664.003	-96.949	-0.244	0.064
-662.989	54.614	0.106	-0.103
-661.974	800.000	-0.038	-0.142
-660.959	-200.000	0.010	-0.268
-659.945	-66.847	-0.166	0.066
-658.930	129.183	0.106	0.136
-657.916	670.025	-0.069	0.181
-656.901	230.260	-0.233	-0.383
-655.886	-90.113	-0.272	-0.080
-654.872	800.000	0.034	0.121
-653.857	-17.852	0.011	-0.007
-652.843	-43.287	0.112	-0.057
-651.828	-29.411	0.195	0.112
-650.814	-200.000	0.026	-0.147
-649.799	-109.851	-0.333	-0.070
-648.784	-52.884	-0.107	-0.049
-647.770	-200.000	-0.018	0.211
-646.755	-20.615	0.133	-0.082
-645.741	800.000	0.106	-0.310
-644.726	48.479	-0.211	0.198
-643.711	-93.926	0.185	-0.051
-642.697	-200.000	0.046	-0.286
-641.682	351.399	-0.007	0.014
-640.668	-37.919	0.083	0.045
-639.653	-200.000	-0.019	-0.441
-638.638	115.710	0.065	-0.080
-637.624	800.000	-0.022	0.081
-636.609	207.726	0.155	0.243
-635.595	63.762	-0.209	-0.211
-634.580	77.387	-0.037	-0.039
-633.565	-8.870	0.195	-0.131
-632.551	-200.000	0.015	0.252
-631.536	31.871	0.081	-0.070
-630.522	81.815	-0.065	0.071
-629.507	100.983	-0.073	0.085
-628.492	162.497	-0.093	-0.131
-627.478	-200.000	0.024	-0.180
-626.463	186.759	0.104	-0.156
-625.449	-45.567	-0.153	-0.076
-624.434	-89.687	0.293	-0.086
-623.419	109.304	0.052	0.063
-622.405	44.996	-0.130	-0.120
-621.390	41.426	-0.504	-0.458
-620.376	-100.872	0.107	0.026
-619.361	104.063	-0.440	-0.519
-618.346	-112.730	-0.185	0.037
-617.332	-142.742	0.161	-0.016
-616.317	375.663	-0.086	-0.176
-615.303	35.977	-0.052	-0.046
-614.288	800.000	0.015	-0.051
-613.273	-200.000	0.021	-0.184
-612.259	-63.041	0.144	-0.060
-611.244	275.529	0.078	0.138
-610.230	-178.242	0.080	-0.002
-609.215	-5.375	-0.112	-0.077
-608.201	-19.930	0.081	-0.050
-607.186	681.570	-0.080	0.209
-606.171	800.000	-0.015	-0.042
-605.157	80.537	0.163	0.176
-604.142	61.491	0.124	-0.124
-603.128	-200.000	0.035	-0.310
-602.113	800.000	0.035	0.131
-601.098	17.662	0.068	0.054
-600.084	41.816	-0.079	-0.072
-599.069	790.185	-0.081	-0.222
-598.055	800.000	-0.073	-0.285
-597.040	-126.841	-0.198	-0.029
-596.025	-115.639	-0.195	0.037
-595.011	800.000	0.083	-0.334
-593.996	-100.002	0.228	-0.057
-592.982	800.000	-0.071	-0.236
-591.967	-66.904	-0.144	-0.057
-590.952	-140.422	0.305	-0.032
-589.938	-200.000	-0.054	0.276
-588.923	-200.000	-0.036	0.171
-587.909	149.279	-0.168	0.227
-586.894	800.000	0.062	-0.217
-585.879	-200.000	-0.068	-0.313
-584.865	-43.371	-0.058	0.030
-583.850	-28.089	-0.385	0.223
-582.836	-1.265	-0.053	0.037
-581.821	59.190	0.155	-0.153
-580.806	-23.399	0.284	-0.171
-579.792	-74.925	0.309	-0.111
-578.777	125.931	-0.197	-0.250
-577.763	376.558	-0.123	-0.251
-576.748	-200.000	-0.001	0.153
-575.733	511.844	-0.099	-0.230
-574.719	306.451	0.077	-0.143
-573.704	-128.390	0.298	-0.043
-572.690	136.519	-0.196	0.256
-571.675	180.847	-0.052	-0.076
-570.661	-108.213	0.105	-0.023
-569.646	214.149	-0.096	0.153
-568.631	-46.951	-0.182	-0.089
-567.617	317.251	-0.224	-0.425
-566.602	669.255	-0.144	-0.373
-565.588	-44.964	0.186	0.093
-564.573	17.896	-0.276	0.220
-563.558	-67.225	0.274	0.108
-562.544	-60.604	-0.146	-0.062
-561.529	800.000	0.025	-0.078
-560.515	-106.877	0.039	0.009
-559.500	800.000	0.059	0.189
-558.485	-200.000	-0.015	-0.130
-557.471	-118.514	0.278	-0.049
-556.456	-72.781	-0.151	-0.056
-555.442	-146.570	-0.224	0.019
-554.427	82.800	-0.170	0.185
-553.412	330.745	-0.096	-0.185
-552.398	-32.952	-0.096	0.053
-551.383	-200.000	0.027	-0.323
-550.369	244.703	-0.045	-0.076
-549.354	10.736	0.240	0.183
-548.339	89.920	0.069	0.077
-547.325	800.000	-0.088	0.305
-546.310	316.351	0.120	-0.226
-545.296	-99.175	0.086	-0.022
-544.281	157.187	0.279	-0.386
-543.266	156.560	0.056	0.078
-542.252	12.111	-0.163	0.125
-541.237	280.990	0.096	0.172
-540.223	-200.000	-0.019	0.297
-539.208	489.633	0.101	0.232
-538.193	-200.000	0.010	0.043
-537.179	-200.000	0.082	-0.617
-536.164	-109.229	0.253	-0.054
-535.150	-14.938	-0.219	-0.140
-534.135	-36.157	-0.240	-0.130
-533.121	575.990	-0.123	-0.301
-532.106	-20.726	-0.300	0.184
-531.091	61.990	-0.075	0.074
-530.077	-60.051	0.045	0.019
-529.062	6.590	-0.332	-0.247
-528.048	157.728	-0.038	0.052
-527.033	153.407	0.083	0.113
-526.018	-200.000	0.041	-0.351
-525.004	-76.602	-0.423	-0.149
-523.989	104.713	-0.078	-0.092
-522.975	-116.017	0.191	-0.036
-521.960	-11.369	0.224	0.147
-520.945	-200.000	0.075	-0.376
-519.931	399.767	0.101	-0.212
-518.916	-30.329	-0.297	0.168
-517.902	800.000	-0.031	-0.131
-516.887	-200.000	0.037	-0.289
-515.872	-7.627	0.208	0.141
-514.858	178.890	0.077	-0.112
-513.843	35.272	-0.123	0.108
-512.829	617.372	-0.105	0.264
-511.814	-200.000	-0.025	0.156
-510.799	-124.961	-0.067	-0.010
-509.785	33.711	0.223	-0.194
-508.770	-34.120	0.004	-0.002
-507.756	-15.795	-0.312	-0.199
-506.741	800.000	0.045	0.173
-505.726	-27.906	0.217	-0.126
-504.712	71.698	0.218	0.227
-503.697	408.294	0.086	-0.182
-502.683	273.300	0.111	-0.196
-501.668	-60.973	0.185	0.078
-500.653	116.819	-0.036	-0.044
-499.639	-61.928	-0.280	-0.117
-498.624	65.085	0.107	0.108
-497.610	0.011	0.292	-0.208
-496.595	0.439	-0.310	-0.221
-495.581	-103.256	0.255	0.060
-494.566	-140.909	-0.170	-0.017
-493.551	-200.000	0.006	0.076
-492.537	-200.000	-0.014	-0.171
-491.522	-200.000	0.011	-0.188
-490.508	800.000	0.112	-0.357
-489.493	-2.881	-0.313	0.219
-488.478	-154.732	0.354	0.023
-487.464	-200.000	0.001	0.134
-486.449	102.202	0.167	0.195
-485.435	-187.338	-0.240	0.003
-484.420	109.735	0.225	-0.269
-483.405	53.043	0.326	0.312
-482.391	-200.000	-0.062	-0.304
-481.376	-198.820	0.274	-0.002
-480.362	730.230	-0.082	-0.219
-479.347	-169.776	-0.256	-0.009
-478.332	39.505	-0.310	0.278
-477.318	-9.402	0.076	-0.051
-476.303	-67.635	0.261	0.102
-475.289	138.339	-0.171	0.224
-474.274	-24.430	0.354	-0.211
-473.259	245.413	-0.143	0.240
-472.245	-69.337	-0.388	-0.149
-471.230	-16.246	-0.143	0.091
-470.216	19.659	0.073	-0.059
-469.201	-111.382	-0.167	-0.034
-468.186	-200.000	-0.060	-0.273
-467.172	107.602	0.177	0.211
-466.157	-200.000	0.046	0.281
-465.143	-145.434	0.350	0.031
-464.128	78.777	-0.186	0.198
-463.113	-148.662	-0.120	0.010
-462.099	172.446	-0.222	-0.319
-461.084	800.000	-0.137	-0.500
-460.070	426.163	0.061	-0.131
-459.055	145.389	-0.139	-0.185
-458.040	-83.241	-0.392	-0.126
-457.026	-39.179	0.396	-0.208
-456.011	-26.389	-0.274	0.161
-454.997	-152.697	-0.032	-0.002
-453.982	120.863	-0.014	-0.018
-452.968	-200.000	0.009	0.361
-451.953	-79.322	-0.267	0.090
-450.938	-63.588	-0.176	-0.072
-449.924	-64.652	0.276	-0.112
-448.909	62.487	-0.199	-0.199
-447.895	-200.000	0.002	0.549
-446.880	487.828	-0.084	0.191
-445.865	800.000	-0.111	-0.349
-444.851	-106.331	0.207	0.046
-443.836	207.783	-0.131	0.204
-442.822	73.177	-0.300	-0.312
-441.807	-64.106	0.180	-0.073
-440.792	126.066	-0.217	-0.273
-439.778	800.000	-0.069	-0.218
-438.763	212.852	0.169	-0.266
-437.749	98.990	0.065	-0.075
-436.734	-166.188	-0.257	-0.011
-435.719	-45.067	0.284	0.141
-434.705	154.024	0.244	0.334
-433.690	128.457	-0.072	0.092
-432.676	258.884	0.157	0.271
-431.661	-75.568	-0.179	0.064
-430.646	271.086	0.089	0.156
-429.632	203.500	0.233	0.360
-428.617	1.283	-0.218	0.156
-427.603	-181.849	0.353	0.007
-426.588	800.000	-0.112	-0.357
-425.573	-65.730	-0.134	-0.053
-424.559	164.122	-0.142	-0.200
-423.544	-169.945	-0.313	0.011
-422.530	739.137	-0.058	-0.155
-421.515	-200.000	0.052	-0.233
-420.500	-120.973	-0.180	0.030
-419.486	-200.000	-0.029	-0.213
-418.471	96.806	-0.040	-0.046
-417.457	-10.096	0.047	0.031
-416.442	-40.550	-0.260	0.135
-415.428	145.371	-0.113	-0.151
-414.413	99.982	0.134	-0.155
-413.398	487.906	-0.034	0.076
-412.384	-28.655	-0.174	0.100
-411.369	-158.443	0.153	-0.009
-410.355	800.000	0.068	-0.223
-409.340	261.491	-0.331	0.571
-408.325	454.831	0.037	0.082
-407.311	246.589	-0.069	-0.116
-406.296	-129.549	0.220	0.030
-405.282	-28.745	0.046	0.026
-404.267	-60.448	-0.087	-0.037
-403.252	101.494	0.241	0.279
-402.238	-68.989	0.214	0.082
-401.223	800.000	0.047	-0.196
-400.209	-200.000	-0.018	0.255
-399.194	251.755	0.043	0.073
-398.179	38.807	-0.233	-0.207
-397.165	-200.000	-0.018	-0.184
-396.150	-123.381	-0.135	0.021
-395.136	-54.483	0.215	0.097
-394.121	199.947	0.053	-0.081
-393.106	-200.000	0.014	-0.152
-392.092	-200.000	0.031	0.333
-391.077	173.459	0.081	0.116
-390.063	-29.190	0.113	-0.065
-389.048	-85.135	-0.150	-0.047
-388.033	-140.132	0.281	-0.029
-387.019	-127.763	-0.219	0.031
-386.004	14.920	-0.284	0.221
-384.990	435.554	0.036	0.077
-383.975	-200.000	-0.063	0.464
-382.960	16.133	0.198	-0.156
-381.946	59.002	-0.137	-0.134
-380.931	-129.541	-0.368	-0.051
-379.917	-24.805	0.352	-0.208
-378.902	-92.368	-0.025	-0.007
-377.888	-7.850	-0.200	0.134
-376.873	28.519	-0.094	0.079
-375.858	-0.660	0.054	-0.038
-374.844	-200.000	-0.062	0.279
-373.829	-116.598	-0.086	-0.016
-372.815	325.031	0.036	0.069
-371.800	-159.411	-0.302	-0.017
-370.785	134.568	0.132	-0.170
-369.771	-200.000	-0.102	-0.000
-368.756	-144.785	0.271	-0.025
-367.742	134.277	-0.205	0.265
-366.727	98.255	-0.231	-0.265
-365.712	-120.893	0.368	-0.062
-364.698	195.120	0.197	-0.298
-363.683	83.178	-0.241	-0.260
-362.669	-75.290	0.178	-0.063
-361.654	355.678	-0.151	-0.298
-360.639	14.851	-0.099	0.077
-359.625	-89.496	-0.326	0.095
-358.610	800.000	0.097	-0.389
-357.596	800.000	-0.102	-0.406
-356.581	-56.918	0.077	0.034
-355.566	-200.000	-0.031	0.271
-354.552	-200.000	-0.073	0.330
-353.537	273.628	-0.050	0.087
-352.523	290.233	0.167	0.301
-351.508	-32.457	0.115	0.064
-350.493	-59.433	0.295	0.126
-349.479	-60.683	0.061	-0.026
-348.464	-147.027	-0.366	0.031
-347.450	800.000	0.147	0.433
-346.435	346.288	0.035	-0.069
-345.420	149.883	-0.133	-0.179
-344.406	791.243	-0.104	-0.283
-343.391	64.839	-0.158	0.158
-342.377	-171.586	0.152	-0.005
-341.362	-2.565	0.278	0.194
-340.348	-43.501	-0.189	-0.095
-339.333	-17.460	-0.188	0.117
-338.318	93.938	-0.293	0.330
-337.304	21.192	0.181	-0.146
-336.289	211.455	-0.104	0.162
-335.275	6.159	0.189	0.139
-334.260	-25.555	-0.225	-0.132
-333.245	-200.000	-0.013	0.382
-332.231	3.758	0.451	-0.327
-331.216	-200.000	0.010	0.156
-330.202	141.160	0.045	0.059
-329.187	-100.986	0.167	0.041
-328.172	236.230	-0.145	0.237
-327.158	477.101	0.173	0.389
-326.143	-136.641	-0.270	-0.031
-325.129	156.004	0.098	-0.133
-324.114	-104.737	-0.193	0.044
-323.099	-118.320	0.119	0.021
-322.085	-200.000	0.021	0.216
-321.070	-110.058	0.299	-0.062
-320.056	-200.000	-0.008	-0.039
-319.041	-200.000	-0.022	-0.106
-318.026	-200.000	0.305	0.001
-317.012	800.000	0.003	-0.014
-315.997	470.112	-0.030	-0.067
-314.983	-124.841	0.172	0.026
-313.968	-200.000	-0.005	-0.060
-312.953	-29.403	-0.133	-0.076
-311.939	-119.292	-0.516	-0.089
-310.924	500.715	-0.159	0.365
-309.910	165.705	0.161	0.226
-308.895	800.000	0.042	0.154
-307.880	-176.311	-0.139	0.004
-306.866	-34.409	0.077	-0.042
-305.851	87.596	-0.200	0.220
-304.837	-86.787	-0.427	-0.129
-303.822	-116.507	0.144	-0.026
-302.807	315.509	0.075	-0.140
-301.793	-200.000	0.022	0.245
-300.778	-69.270	-0.157	0.060
-299.764	25.798	0.085	0.070
-298.749	89.595	0.109	0.120
-297.735	-200.000	0.022	-0.186
-296.720	404.699	0.041	-0.085
-295.705	-164.351	0.295	0.013
-294.691	-44.821	0.189	-0.093
-293.676	154.184	-0.206	-0.281
-292.662	114.864	0.327	-0.395
-291.647	-92.285	0.270	-0.075
-290.632	-200.000	0.031	0.211
-289.618	-127.585	0.519	-0.075
-288.603	266.315	0.260	0.450
-287.589	148.102	-0.335	0.447
-286.574	-78.150	-0.330	0.113
-285.559	-2.166	-0.176	-0.123
-284.545	800.000	0.078	0.253
-283.530	-74.172	-0.306	-0.110
-282.516	79.638	0.280	0.297
-281.501	356.320	0.163	-0.323
-280.486	186.637	0.181	-0.268
-279.472	-73.113	-0.215	-0.078
-278.457	-94.975	-0.501	-0.134
-277.443	347.412	0.053	0.103
-276.428	148.000	0.195	0.260
-275.413	-200.000	-0.090	0.515
-274.399	459.651	0.218	0.480
-273.384	224.221	0.260	0.416
-272.370	800.000	0.046	-0.128
-271.355	257.688	0.045	0.077
-270.340	-200.000	0.098	0.461
-269.326	476.895	0.137	0.308
-268.311	7.949	-0.257	0.191
-267.297	-94.745	0.026	-0.007
-266.282	800.000	0.102	0.345
-265.267	-200.000	-0.021	0.179
-264.253	48.882	0.229	0.212
-263.238	-200.000	0.019	0.116
-262.224	200.149	0.047	-0.071
-261.209	-128.901	0.049	-0.007
-260.195	117.114	0.128	-0.156
-259.180	7.019	0.151	0.111
-258.165	147.489	0.029	0.039
-257.151	-105.703	0.209	-0.047
-256.136	255.913	0.083	0.141
-255.122	-188.115	0.086	0.001
-254.107	-139.567	0.145	-0.015
-253.092	173.817	0.119	0.170
-252.078	161.244	-0.113	0.156
-251.063	-200.000	0.063	0.322
-250.049	274.361	0.321	-0.562
-249.034	20.928	-0.146	-0.117
-248.019	-200.000	-0.020	0.144
-247.005	-200.000	-0.030	0.134
-245.990	169.430	-0.062	0.088
-244.976	325.130	-0.061	0.116
-243.961	-86.495	0.207	-0.063
-242.946	305.874	-0.183	0.337
-241.932	98.047	-0.084	0.096
-240.917	-37.252	-0.063	-0.033
-239.903	-200.000	0.063	0.300
-238.888	-59.922	0.136	-0.057
-237.873	-63.242	-0.108	0.044
-236.859	-200.000	0.016	0.084
-235.844	-11.791	0.336	0.218
-234.830	86.379	0.143	0.156
-233.815	-200.000	0.002	-0.192
-232.800	90.751	0.069	-0.076
-231.786	561.843	-0.056	0.134
-230.771	-200.000	0.024	-0.141
-229.757	111.101	0.122	-0.146
-228.742	-200.000	-0.010	-0.062
-227.727	331.225	0.060	0.114
-226.713	161.174	0.170	-0.235
-225.698	55.494	-0.065	-0.063
-224.684	-16.256	0.180	-0.113
-223.669	311.896	0.069	-0.128
-222.655	-74.660	-0.428	-0.152
-221.640	117.742	-0.125	0.153
-220.625	359.613	0.125	0.248
-219.611	-0.245	-0.243	-0.171
-218.596	486.522	0.013	0.029
-217.582	9.830	-0.090	0.067
-216.567	-200.000	0.030	0.468
-215.552	-113.071	-0.226	0.044
-214.538	554.217	0.064	-0.152
-213.523	8.633	0.137	0.102
-212.509	217.271	0.060	0.094
-211.494	800.000	-0.049	-0.148
-210.479	-200.000	-0.033	0.250
-209.465	-162.760	0.187	0.009
-208.450	-18.188	0.132	-0.082
-207.436	261.571	0.130	0.223
-206.421	-30.291	0.277	0.156
-205.406	-46.251	-0.345	0.168
-204.392	-26.360	0.175	0.101
-203.377	-53.207	-0.391	0.177
-202.363	215.297	-0.223	0.349
-201.348	537.477	-0.119	-0.278
-200.333	-86.220	0.072	0.022
-199.319	308.024	0.098	-0.181
-198.304	168.799	-0.056	0.079
-197.290	-147.778	-0.103	-0.008
-196.275	-153.503	0.278	0.019
-195.260	-50.160	-0.330	-0.154
-194.246	-109.827	0.304	-0.063
-193.231	139.176	0.064	-0.083
-192.217	320.295	-0.212	0.398
-191.202	-144.213	0.418	0.039
-190.187	28.897	0.124	0.104
-189.173	56.948	0.106	0.102
-188.158	32.931	-0.052	-0.045
-187.144	-187.995	0.305	-0.004
-186.129	-133.398	0.103	0.013
-185.114	-165.502	-0.092	0.004
-184.100	82.387	-0.227	-0.243
-183.085	12.500	-0.160	-0.121
-182.071	-84.259	-0.092	-0.029
-181.056	58.218	0.107	-0.104
-180.042	17.322	0.224	-0.175
-179.027	189.184	-0.116	0.171
-178.012	195.173	-0.018	0.027
-176.998	-29.316	-0.165	0.093
-175.983	-150.819	-0.297	-0.022
-174.969	800.000	-0.084	0.242
-173.954	-50.730	0.277	-0.129
-172.939	-200.000	0.035	0.175
-171.925	700.451	-0.110	-0.287
-170.910	-16.337	0.143	0.089
-169.896	-102.811	-0.270	-0.063
-168.881	279.465	-0.163	0.287
-167.866	-200.000	0.000	-0.071
-166.852	-200.000	0.085	-0.436
-165.837	106.206	-0.178	-0.208
-164.823	382.769	0.071	-0.144
-163.808	77.061	0.056	0.058
-162.793	-77.948	0.181	-0.062
-161.779	134.457	-0.088	0.113
-160.764	148.742	0.205	0.273
-159.750	-6.362	-0.088	-0.059
-158.735	800.000	0.043	0.186
-157.720	65.484	0.225	0.225
-156.706	-75.257	0.559	-0.197
-155.691	93.923	-0.168	0.188
-154.677	715.841	0.080	-0.208
-153.662	-164.456	-0.235	0.011
-152.647	-52.420	0.259	-0.118
-151.633	271.905	0.068	0.118
-150.618	123.949	0.037	0.046
-149.604	800.000	0.020	0.085
-148.589	19.310	0.199	-0.158
-147.574	68.880	-0.093	0.094
-146.560	157.471	0.056	-0.077
-145.545	-200.000	0.060	-0.456
-144.531	-200.000	-0.017	0.309
-143.516	-144.877	0.498	-0.045
-142.502	-122.642	0.141	-0.023
-141.487	-14.990	0.163	-0.103
-140.472	19.373	-0.162	-0.128
-139.458	-111.501	-0.188	0.038
-138.443	-140.434	-0.244	0.025
-137.429	-200.000	-0.020	0.256
-136.414	-160.863	0.145	0.008
-135.399	-200.000	0.008	-0.238
-134.385	149.669	-0.222	-0.297
-133.370	22.691	-0.220	0.177
-132.356	-200.000	-0.024	0.224
-131.341	456.366	-0.211	-0.462
-130.326	-78.932	0.144	-0.048
-129.312	-200.000	0.013	0.420
-128.297	86.364	-0.045	-0.049
-127.283	-99.820	0.291	0.072
-126.268	-132.171	0.201	-0.026
-125.253	-80.214	0.257	0.085
-124.239	691.396	-0.123	0.317
-123.224	28.451	-0.228	-0.190
-122.210	29.803	0.137	0.115
-121.195	800.000	0.050	-0.203
-120.180	168.811	-0.111	0.156
-119.166	108.947	0.195	-0.230
-118.151	304.433	0.083	-0.151
-117.137	41.014	-0.200	-0.178
-116.122	230.807	0.224	0.362
-115.107	134.490	0.133	0.170
-114.093	-46.290	-0.244	-0.118
-113.078	290.029	-0.135	-0.242
-112.064	-178.581	-0.308	-0.007
-111.049	800.000	-0.036	-0.142
-110.034	-113.953	0.273	-0.052
-109.020	-80.248	0.356	0.117
-108.005	-200.000	-0.005	-0.099
-106.991	32.285	0.184	-0.156
-105.976	-200.000	-0.032	0.295
-104.962	-200.000	-0.052	-0.241
-103.947	-200.000	-0.041	0.235
-102.932	-2.033	-0.281	0.194
-101.918	-22.601	0.405	-0.241
-100.903	795.906	-0.046	0.126
-99.889	-151.711	0.065	0.005
-98.874	53.230	0.247	0.233
-97.859	-74.220	0.026	-0.009
-96.845	800.000	0.035	0.124
-95.830	-38.976	0.231	-0.120
-94.816	-200.000	0.007	0.106
-93.801	-32.390	0.193	0.106
-92.786	-98.659	-0.163	0.041
-91.772	715.373	0.131	-0.342
-90.757	99.160	-0.195	-0.221
-89.743	-7.238	-0.356	-0.237
-88.728	-107.036	0.136	-0.029
-87.713	27.297	-0.105	-0.087
-86.699	-63.230	0.281	-0.114
-85.684	455.465	0.102	0.222
-84.670	143.428	0.290	0.380
-83.655	-39.485	-0.235	-0.121
-82.640	-66.865	0.154	0.060
-81.626	19.991	-0.103	-0.082
-80.611	-37.963	-0.255	-0.133
-79.597	337.882	0.109	-0.208
-78.582	-200.000	-0.036	0.190
-77.567	-17.284	-0.173	-0.107
-76.553	-99.833	-0.138	0.034
-75.538	-74.247	-0.146	0.052
-74.524	486.146	-0.033	0.073
-73.509	-42.505	-0.106	-0.053
-72.494	452.452	0.132	0.288
-71.480	124.664	0.040	0.049
-70.465	13.003	0.144	-0.109
-69.451	-6.781	-0.122	0.081
-68.436	415.186	0.068	-0.142
-67.422	-182.984	0.573	0.010
-66.407	-8.368	0.251	0.166
-65.392	-200.000	0.044	-0.284
-64.378	-141.385	-0.300	0.030
-63.363	-75.769	-0.151	0.053
-62.349	-200.000	0.010	0.175
-61.334	55.461	-1.000	-0.951
-60.319	75.488	0.418	0.433
-59.305	800.000	-0.314	-1.079
-58.290	800.000	0.406	1.187
-57.276	800.000	0.426	1.501
-56.261	-200.000	96.900	584.838
-55.246	550.517	1387.064	3267.727
-54.232	155.743	2585.827	3498.678
-53.217	106.189	2277.803	2649.502
-52.203	43.029	1898.744	1700.642
-51.188	37.125	1689.927	1469.019
-50.173	34.501	1645.388	1410.864
-49.159	52.171	1692.650	1584.217
-48.144	54.134	1709.695	1614.816
-47.130	36.716	1668.379	1446.999
-46.115	33.892	1653.750	1413.281
-45.100	33.725	1648.698	1407.674
-44.086	33.704	1646.364	1405.468
-43.071	33.757	1643.455	1403.320
-42.057	33.702	1641.180	1400.914
-41.042	33.783	1638.685	1399.329
-40.027	33.777	1636.896	1397.698
-39.013	33.754	1634.951	1395.816
-37.998	33.739	1633.862	1394.717
-36.984	33.727	1632.567	1393.474
-35.969	33.814	1630.582	1392.363
-34.954	33.942	1629.259	1392.113
-33.940	33.833	1627.096	1389.411
-32.925	33.800	1626.010	1388.189
-31.911	33.848	1623.812	1386.610
-30.896	33.758	1622.661	1384.909
-29.881	33.857	1620.509	1383.739
-28.867	33.830	1618.671	1381.923
-27.852	33.946	1616.940	1381.232
-26.838	33.930	1615.457	1379.792
-25.823	33.930	1614.347	1378.788
-24.809	33.916	1612.783	1377.299
-23.794	33.865	1611.214	1375.535
-22.779	33.867	1610.020	1374.476
-21.765	33.849	1608.152	1372.699
-20.750	33.878	1606.730	1371.637
-19.736	33.906	1605.497	1370.732
-18.721	33.978	1603.460	1369.454
-17.706	33.954	1602.415	1368.338
-16.692	33.922	1600.850	1366.717
-15.677	33.899	1599.760	1365.566
-14.663	33.936	1598.103	1364.363
-13.648	33.987	1596.549	1363.353
-12.633	33.996	1595.213	1362.215
-11.619	33.921	1593.760	1360.388
-10.604	33.945	1591.992	1358.995
-9.590	33.815	1590.990	1357.154
-8.575	33.922	1589.826	1356.871
-7.560	33.900	1588.808	1355.798
-6.546	33.976	1587.160	1354.877
-5.531	33.871	1586.449	1353.467
-4.517	33.931	1585.219	1352.788
-3.502	33.885	1584.011	1351.377
-2.487	33.925	1582.749	1350.533
-1.473	33.659	1570.443	1338.102
-0.458	30.846	1550.780	1301.668
0.556	27.752	1552.064	1271.991
1.571	25.662	1576.783	1277.317
2.586	25.234	1591.205	1285.819
3.600	22.741	1538.334	1225.693
4.615	12.923	1426.830	1073.165
5.629	3.864	1359.621	966.140
6.644	2.112	1350.867	948.952
7.659	1.977	1349.308	946.935
8.673	2.056	1347.905	946.356
9.688	1.835	1346.290	943.772
10.702	1.729	1343.086	940.786
11.717	5.290	1350.678	968.114
12.731	15.600	1370.479	1046.754
13.746	24.038	1383.978	1109.822
14.761	26.069	1387.264	1125.035
15.775	26.426	1386.165	1126.269
16.790	26.436	1386.048	1126.136
17.804	26.455	1385.456	1125.673
18.819	26.686	1385.530	1127.070
19.834	26.766	1384.650	1126.752
20.848	26.815	1383.983	1126.414
21.863	26.791	1383.357	1125.656
22.877	26.878	1382.064	1125.046
23.892	26.768	1381.816	1124.060
24.907	26.890	1380.571	1123.707
25.921	26.874	1379.786	1122.869
26.936	26.864	1378.419	1121.594
27.950	26.883	1376.958	1120.424
28.965	26.954	1376.247	1120.187
29.980	26.747	1375.456	1118.163
30.994	26.875	1373.733	1117.454
32.009	26.792	1373.034	1116.277
33.023	26.836	1371.803	1115.445
34.038	26.870	1370.301	1114.334
35.053	26.851	1369.306	1113.311
36.067	26.872	1368.561	1112.733
37.082	26.866	1367.677	1111.883
38.096	26.895	1366.831	1111.276
39.111	26.869	1366.142	1110.455
40.126	26.806	1365.291	1109.280
41.140	26.805	1364.921	1108.877
42.155	26.934	1364.376	1109.123
43.169	26.925	1364.334	1108.933
44.184	26.873	1364.216	1108.426
45.199	26.768	1363.596	1107.183
46.213	26.846	1363.280	1107.301
47.228	26.906	1362.032	1106.558
48.242	26.892	1360.815	1105.383
49.257	26.929	1359.318	1104.294
50.271	26.830	1358.165	1102.662
51.286	26.868	1356.872	1101.741
52.301	26.874	1355.870	1100.867
53.315	26.783	1354.826	1099.373
54.330	26.843	1354.222	1099.148
55.344	26.840	1353.067	1098.095
56.359	26.916	1351.705	1097.351
57.374	26.788	1350.841	1095.778
58.388	26.873	1350.555	1095.962
59.403	26.858	1350.098	1095.407
60.417	26.886	1349.395	1094.909
61.432	26.866	1348.245	1093.756
62.447	26.825	1347.690	1092.966
63.461	26.847	1346.357	1091.916
64.476	26.902	1345.718	1091.631
65.490	26.786	1344.881	1090.163
66.505	26.848	1343.059	1088.961
67.520	26.741	1342.249	1087.563
68.534	26.879	1340.956	1087.246
69.549	26.851	1340.233	1086.397
70.563	26.834	1339.097	1085.279
71.578	26.810	1337.964	1084.122
72.593	26.840	1337.269	1083.645
73.607	26.908	1336.580	1083.395
74.622	26.875	1335.656	1082.352
75.636	26.841	1335.458	1081.890
76.651	26.866	1334.758	1081.379
77.666	26.919	1334.038	1081.014
78.680	26.898	1333.449	1080.321
79.695	26.859	1332.945	1079.580
80.709	26.879	1331.987	1078.829
81.724	26.867	1330.700	1077.622
82.739	26.844	1330.165	1076.957
83.753	26.876	1328.890	1076.019
84.768	26.898	1327.990	1075.323
85.782	27.008	1326.926	1075.017
86.797	26.954	1326.360	1074.146
87.812	26.844	1324.980	1072.280
88.826	26.918	1323.702	1071.590
89.841	26.845	1322.714	1070.266
90.855	26.985	1321.441	1069.963
91.870	26.902	1320.795	1068.861
92.884	26.821	1320.111	1067.735
93.899	26.864	1319.327	1067.259
94.914	26.960	1318.722	1067.236
95.928	26.877	1317.941	1066.027
96.943	26.899	1317.399	1065.623
97.957	26.919	1316.228	1064.698
98.972	26.943	1315.424	1064.091
99.987	26.994	1314.103	1063.229
101.001	26.878	1313.500	1061.967
102.016	26.900	1312.467	1061.167
103.030	26.915	1312.140	1060.898
104.045	26.837	1311.613	1059.921
105.060	26.931	1310.092	1059.146
106.074	26.894	1309.237	1058.145
107.089	26.910	1307.946	1057.105
108.103	26.934	1307.251	1056.587
109.118	26.935	1306.247	1055.685
110.133	26.939	1305.172	1054.747
111.147	26.882	1304.094	1053.453
112.162	26.974	1302.550	1052.646
113.176	26.986	1301.534	1051.803
114.191	27.000	1300.794	1051.194
115.206	27.002	1299.838	1050.340
116.220	27.135	1298.304	1049.773
117.235	26.950	1298.040	1048.400
118.249	27.025	1297.154	1048.023
119.264	27.046	1296.171	1047.255
120.279	26.976	1295.784	1046.448
121.293	27.004	1294.653	1045.607
122.308	26.973	1294.152	1044.928
123.322	27.048	1293.087	1044.406
124.337	27.069	1292.734	1044.152
125.352	27.045	1291.678	1043.065
126.366	27.042	1291.083	1042.477
127.381	26.984	1290.034	1041.203
128.395	27.052	1288.958	1040.632
129.410	27.107	1287.856	1039.966
130.424	26.968	1287.714	1038.967
131.439	26.976	1286.616	1038.032
132.454	27.073	1285.628	1037.699
133.468	27.125	1285.181	1037.544
134.483	27.042	1285.018	1036.843
135.497	26.918	1284.377	1035.530
136.512	27.049	1283.153	1035.195
137.527	26.978	1281.930	1033.713
138.541	27.021	1280.395	1032.633
139.556	26.895	1279.141	1030.813
140.570	27.042	1278.312	1030.886
141.585	26.995	1277.238	1029.663
142.600	26.970	1276.759	1029.045
143.614	26.969	1275.687	1028.080
144.629	27.022	1274.334	1027.203
145.643	26.851	1273.688	1025.623
146.658	26.916	1272.583	1025.008
147.673	27.043	1271.156	1024.489
148.687	26.938	1270.191	1023.026
149.702	26.895	1269.505	1022.139
150.716	26.945	1268.347	1021.397
151.731	26.920	1267.585	1020.554
152.746	26.925	1266.630	1019.725
153.760	26.901	1265.729	1018.772
154.775	27.096	1264.170	1018.520
155.789	27.066	1263.916	1018.059
156.804	26.990	1262.873	1016.701
157.819	26.904	1262.629	1015.935
158.833	27.023	1261.463	1015.570
159.848	27.067	1260.734	1015.139
160.862	27.150	1259.801	1014.762
161.877	27.065	1259.110	1013.643
162.892	27.102	1258.327	1013.128
163.906	27.272	1257.298	1013.156
164.921	27.182	1256.597	1012.001
165.935	27.135	1255.869	1011.064
166.950	27.111	1255.442	1010.499
167.964	27.056	1255.297	1009.988
168.979	27.189	1254.597	1010.076
169.994	27.258	1253.593	1009.557
171.008	27.123	1253.085	1008.313
172.023	27.123	1252.292	1007.584
173.037	27.176	1251.665	1007.284
174.052	27.094	1251.032	1006.230
175.067	27.276	1249.752	1006.118
176.081	27.199	1249.332	1005.264
177.096	27.091	1248.483	1003.900
178.110	27.170	1247.624	1003.554
179.125	27.114	1246.767	1002.465
180.140	27.273	1245.315	1002.088
181.154	27.157	1244.102	1000.383
182.169	27.097	1243.183	999.226
183.183	27.141	1242.453	998.794
184.198	27.219	1241.389	998.277
185.213	27.085	1240.927	997.085
186.227	27.237	1239.622	996.779
187.242	27.227	1238.795	995.971
188.256	27.249	1237.959	995.329
189.271	27.274	1237.200	994.772
190.286	27.220	1236.584	993.891
191.300	27.241	1235.742	993.240
192.315	27.118	1235.606	992.370
193.329	27.365	1234.589	992.816
194.344	27.357	1234.225	992.389
195.359	27.221	1233.977	991.365
196.373	27.130	1233.403	990.317
197.388	27.191	1233.347	990.515
198.402	27.300	1232.565	990.393
199.417	27.214	1232.104	989.471
200.432	27.181	1231.570	988.774
201.446	27.286	1230.693	988.550
202.461	27.290	1230.527	988.352
203.475	27.338	1229.353	987.583
204.490	27.308	1228.307	986.494
205.504	27.256	1227.564	985.526
206.519	27.330	1226.563	985.039
207.534	27.239	1225.635	983.711
208.548	27.262	1224.602	982.922
209.563	27.230	1224.482	982.562
210.577	27.274	1223.548	981.963
211.592	27.304	1222.600	981.278
212.607	27.248	1222.192	980.564
213.621	27.376	1220.574	979.870
214.636	27.330	1220.065	979.125
215.650	27.393	1219.384	978.827
216.665	27.334	1218.150	977.435
217.680	27.451	1217.288	977.288
218.694	27.414	1216.818	976.625
219.709	27.426	1215.896	975.864
220.723	27.375	1215.527	975.206
221.738	27.300	1214.923	974.231
222.753	27.309	1213.891	973.367
223.767	27.351	1213.364	973.084
224.782	27.465	1212.941	973.270
225.796	27.476	1212.197	972.643
226.811	27.521	1211.711	972.405
227.826	27.465	1210.995	971.448
228.840	27.408	1210.463	970.631
229.855	27.401	1209.916	970.070
230.869	27.504	1208.845	969.673
231.884	27.576	1208.293	969.529
232.899	27.514	1207.554	968.521
233.913	27.402	1207.092	967.469
234.928	27.557	1206.719	967.909
235.942	27.619	1205.837	967.442
236.957	27.502	1205.240	966.258
237.972	27.461	1204.642	965.477
238.986	27.535	1204.126	965.369
240.001	27.507	1203.625	964.730
241.015	27.650	1202.242	964.298
242.030	27.641	1201.705	963.734
243.045	27.656	1200.953	963.122
244.059	27.600	1200.503	962.381
245.074	27.588	1199.672	961.567
246.088	27.555	1198.726	960.550
247.103	27.672	1197.806	960.342
248.117	27.689	1197.447	960.060
249.132	27.641	1196.512	958.970
250.147	27.739	1195.699	958.752
251.161	27.809	1194.935	958.421
252.176	27.802	1194.376	957.850
253.190	27.680	1193.989	956.817
254.205	27.753	1193.300	956.562
255.220	27.654	1192.955	955.680
256.234	27.677	1192.177	955.093
257.249	27.635	1191.432	954.193
258.263	27.668	1191.219	954.109
259.278	27.774	1190.281	953.828
260.293	27.819	1189.780	953.579
261.307	27.770	1189.308	952.861
262.322	27.759	1188.462	952.042
263.336	27.780	1188.104	951.779
264.351	27.740	1187.609	951.091
265.366	27.819	1186.704	950.695
266.380	27.843	1185.822	950.028
267.395	27.758	1185.268	949.059
268.409	27.850	1184.610	948.926
269.424	27.867	1184.182	948.588
270.439	27.906	1183.626	948.260
271.453	27.869	1182.924	947.423
272.468	27.893	1182.337	946.993
273.482	27.815	1181.584	945.901
274.497	27.830	1181.374	945.723
275.512	27.820	1180.948	945.251
276.526	27.796	1180.133	944.389
277.541	27.931	1179.453	944.458
278.555	27.994	1178.246	943.736
279.570	27.943	1177.627	942.890
280.585	27.951	1176.796	942.183
281.599	27.888	1176.174	941.280
282.614	27.925	1175.361	940.733
283.628	27.938	1174.398	939.950
284.643	28.123	1173.431	940.041
285.657	27.932	1172.655	938.354
286.672	27.960	1171.859	937.777
287.687	27.906	1171.211	936.903
288.701	28.031	1170.434	936.836
289.716	27.935	1170.104	935.998
290.730	27.900	1169.516	935.264
291.745	27.964	1168.530	934.721
292.760	27.995	1167.918	934.309
293.774	28.064	1167.662	934.375
294.789	28.130	1166.672	933.837
295.803	28.101	1166.783	933.691
296.818	28.074	1165.511	932.457
297.833	28.138	1165.146	932.406
298.847	28.124	1164.194	931.493
299.862	28.163	1163.674	931.189
300.876	28.079	1162.819	929.997
301.891	28.102	1162.587	929.847
302.906	28.195	1161.606	929.453
303.920	28.151	1161.365	928.951
304.935	28.234	1160.547	928.638
305.949	28.127	1159.852	927.459
306.964	28.205	1159.339	927.360
307.979	28.215	1158.745	926.853
308.993	28.163	1157.885	925.821
310.008	28.312	1157.098	925.864
311.022	28.208	1156.751	924.979
312.037	28.193	1155.982	924.203
313.052	28.135	1155.020	923.063
314.066	28.297	1154.174	923.119
315.081	28.234	1153.472	922.161
316.095	28.250	1152.885	921.692
317.110	28.274	1152.329	921.286
318.125	28.303	1151.542	920.720
319.139	28.254	1150.763	919.771
320.154	28.363	1150.194	919.781
321.168	28.285	1150.149	919.274
322.183	28.357	1149.333	918.900
323.197	28.370	1148.327	918.077
324.212	28.315	1148.034	917.487
325.227	28.307	1147.678	917.083
326.241	28.426	1146.992	917.047
327.256	28.339	1146.233	915.926
328.270	28.340	1145.637	915.372
329.285	28.409	1144.627	914.828
330.300	28.342	1143.946	913.871
331.314	28.386	1142.911	913.180
332.329	28.441	1142.249	912.847
333.343	28.369	1141.953	912.172
334.358	28.551	1140.829	912.096
335.373	28.448	1140.125	910.942
336.387	28.575	1139.602	911.072
337.402	28.548	1138.739	910.166
338.416	28.494	1138.435	909.578
339.431	28.497	1137.623	908.865
340.446	28.499	1137.345	908.569
341.460	28.500	1136.680	907.965
342.475	28.520	1135.869	907.334
343.489	28.499	1134.916	906.391
344.504	28.569	1133.885	905.833
345.519	28.610	1133.123	905.345
346.533	28.667	1132.300	904.890
347.548	28.683	1131.329	904.111
348.562	28.729	1130.537	903.622
349.577	28.717	1129.829	902.919
350.592	28.549	1129.538	901.779
351.606	28.519	1128.854	901.007
352.621	28.557	1128.517	900.844
353.635	28.576	1127.888	900.358
354.650	28.769	1126.879	900.418
355.665	28.610	1126.314	899.109
356.679	28.719	1125.849	899.190
357.694	28.825	1125.220	899.126
358.708	28.620	1124.677	897.612
359.723	28.635	1123.767	896.879
360.738	28.839	1122.934	897.129
361.752	28.760	1122.646	896.435
362.767	28.846	1121.974	896.237
363.781	28.840	1121.346	895.627
364.796	28.777	1121.194	895.123
365.810	28.821	1120.270	894.519
366.825	28.818	1119.786	894.038
367.840	28.883	1119.319	893.904
368.854	28.936	1118.866	893.719
369.869	28.937	1118.170	893.091
370.883	28.779	1117.591	891.778
371.898	29.060	1116.381	892.098
372.913	28.984	1115.784	891.176
373.927	28.934	1115.662	890.755
374.942	28.883	1115.264	890.112
375.956	28.987	1114.824	890.187
376.971	28.889	1114.098	889.055
377.986	29.011	1113.520	889.102
379.000	28.978	1113.435	888.797
380.015	28.888	1112.747	887.736
381.029	28.961	1112.222	887.589
382.044	28.987	1111.182	886.808
383.059	29.028	1110.573	886.440
384.073	29.070	1109.723	885.884
385.088	28.996	1109.088	884.943
386.102	29.121	1108.258	884.803
387.117	28.909	1107.559	883.150
388.132	29.090	1106.352	882.976
389.146	29.076	1105.845	882.425
390.161	29.101	1105.319	882.048
391.175	29.065	1104.613	881.234
392.190	29.221	1103.727	881.196
393.205	29.153	1103.096	880.291
394.219	29.174	1102.387	879.747
395.234	29.197	1101.789	879.300
396.248	29.185	1101.045	878.571
397.263	29.194	1100.356	877.986
398.278	29.280	1099.415	877.570
399.292	29.266	1098.982	877.081
400.307	29.242	1098.669	876.638
401.321	29.302	1097.968	876.286
402.336	29.172	1097.071	874.875
403.350	29.343	1096.362	875.045
404.365	29.253	1095.990	874.241
405.380	29.359	1094.882	873.784
406.394	29.342	1094.631	873.426
407.409	29.410	1093.617	872.861
408.423	29.395	1093.208	872.385
409.438	29.416	1092.293	871.679
410.453	29.481	1091.788	871.505
411.467	29.505	1090.903	870.833
412.482	29.351	1090.515	869.723
413.496	29.330	1089.860	869.024
414.511	29.344	1089.390	868.639
415.526	29.355	1088.616	867.995
416.540	29.463	1088.207	868.098
417.555	29.377	1087.957	867.419
418.569	29.542	1087.079	867.415
419.584	29.461	1086.877	866.797
420.599	29.634	1086.560	867.281
421.613	103.182	1319.527	1450.726
422.628	96.124	1353.443	1450.852
