DTS Sentinel unit serial number:	SN413079Multiplexer serial number:	ORYXHardware model number:	OX4-SRSoftware version number:	ORYX F/W v4.00 Oryx Data Collector v3.7.2.0data status	okinstallation	princeton_trtdifferential loss correction	single-endedforward channel	channel 2reverse channel	N/Adate	2019/09/11time	17:49:10forward acquisition time	60.00reverse acquisition time	0.00gamma	496.2192k internal	0.2284k external	0.2284temperature offset calibration	1.0022default loss term (dB/km)	0.3790temperature slope calibration	1.0000multiplexer offset coefficient	1.0000multiplexer slope coefficient	1.0000fibre end	0.00T internal ref (°C)	43.94T ext. ref 1 (°C)	1.13T ext. ref 2 (°C)	39.58length (m)	temperature (°C)	Stokes	anti-Stokes-747.200	17.417	-0.132	0.107
-746.185	800.000	-0.163	0.519
-745.171	-39.117	0.151	0.081
-744.156	73.328	-0.273	0.294
-743.142	-200.000	-0.013	0.130
-742.127	200.188	-0.096	0.152
-741.112	440.435	-0.109	-0.245
-740.098	-200.000	0.006	-0.253
-739.083	800.000	0.077	0.273
-738.069	-200.000	0.011	0.064
-737.054	800.000	0.068	-0.210
-736.039	22.117	0.031	-0.026
-735.025	9.819	0.155	-0.120
-734.010	800.000	-0.021	-0.066
-732.996	133.540	-0.115	-0.153
-731.981	-125.594	-0.229	0.036
-730.966	725.742	0.043	0.118
-729.952	73.508	0.303	-0.326
-728.937	-40.197	-0.541	-0.289
-727.923	800.000	-0.032	0.104
-726.908	24.583	-0.171	0.145
-725.894	571.777	0.124	-0.310
-724.879	130.216	-0.023	0.031
-723.864	163.468	0.047	-0.068
-722.850	-102.872	0.223	-0.054
-721.835	-158.810	-0.203	-0.012
-720.821	-86.560	-0.270	0.085
-719.806	-200.000	-0.073	-0.457
-718.791	-137.824	-0.295	0.034
-717.777	-200.000	-0.014	0.130
-716.762	575.422	-0.041	-0.102
-715.748	-55.987	-0.243	-0.111
-714.733	-128.116	-0.296	0.043
-713.718	-200.000	-0.014	-0.366
-712.704	332.953	-0.105	-0.207
-711.689	144.744	0.091	-0.125
-710.675	-100.421	-0.239	-0.061
-709.660	38.693	0.162	-0.148
-708.645	-111.959	-0.170	0.035
-707.631	800.000	0.034	-0.137
-706.616	-200.000	-0.012	-0.337
-705.602	53.112	-0.121	-0.118
-704.587	-200.000	-0.010	0.126
-703.572	-111.438	0.205	-0.043
-702.558	179.756	0.064	-0.097
-701.543	-116.937	-0.228	0.043
-700.529	-134.559	-0.319	-0.040
-699.514	800.000	0.088	0.282
-698.499	13.801	-0.253	-0.202
-697.485	98.062	0.110	-0.130
-696.470	247.167	-0.086	-0.148
-695.456	-200.000	0.037	-0.240
-694.441	377.781	0.144	0.301
-693.426	-200.000	-0.009	0.098
-692.412	-141.534	-0.329	-0.034
-691.397	185.775	-0.052	-0.079
-690.383	473.747	0.215	0.497
-689.368	231.148	-0.276	0.463
-688.354	-107.739	0.315	0.070
-687.339	-134.680	-0.309	0.038
-686.324	23.587	-0.362	0.305
-685.310	-56.661	-0.114	-0.052
-684.295	150.959	-0.146	0.204
-683.281	800.000	-0.041	0.161
-682.266	283.727	-0.029	0.054
-681.251	-200.000	-0.009	0.127
-680.237	21.154	-0.058	0.048
-679.222	143.109	-0.134	-0.182
-678.208	800.000	-0.069	-0.201
-677.193	30.254	-0.289	-0.253
-676.178	-140.199	0.502	0.054
-675.164	9.786	0.118	0.092
-674.149	-200.000	0.025	0.360
-673.135	-200.000	0.013	-0.072
-672.120	-200.000	0.032	-0.323
-671.105	-115.103	0.228	0.044
-670.091	-123.340	0.604	0.099
-669.076	216.493	-0.049	0.079
-668.062	800.000	-0.025	0.104
-667.047	161.362	-0.016	0.023
-666.032	48.533	0.090	-0.086
-665.018	192.202	0.145	-0.223
-664.003	800.000	-0.056	0.245
-662.989	-133.629	-0.328	0.042
-661.974	10.014	0.058	-0.045
-660.959	-110.142	-0.508	-0.108
-659.945	-94.014	-0.183	0.052
-658.930	800.000	0.086	-0.353
-657.916	-59.130	-0.224	-0.099
-656.901	83.424	-0.011	0.012
-655.886	75.646	-0.059	-0.064
-654.872	246.200	-0.177	0.306
-653.857	-34.731	0.077	-0.043
-652.843	-176.287	-0.125	0.003
-651.828	-123.596	-0.372	-0.060
-650.814	2.031	0.115	0.085
-649.799	-42.120	-0.199	-0.104
-648.784	115.434	-0.085	-0.107
-647.770	764.891	0.054	-0.149
-646.755	-17.735	-0.139	-0.089
-645.741	-200.000	0.006	-0.181
-644.726	129.768	0.068	-0.089
-643.711	-200.000	0.031	-0.304
-642.697	87.480	-0.115	0.130
-641.682	-57.426	-0.402	-0.181
-640.668	-137.276	-0.230	-0.027
-639.653	-82.090	-0.219	-0.073
-638.638	49.954	0.102	-0.099
-637.624	188.483	0.124	0.189
-636.609	-200.000	-0.069	0.441
-635.595	-161.604	0.271	0.014
-634.580	-200.000	0.071	0.406
-633.565	152.836	-0.118	0.165
-632.551	-121.728	-0.106	-0.018
-631.536	-156.540	-0.368	0.023
-630.522	42.932	0.173	-0.162
-629.507	-65.346	0.345	-0.142
-628.492	-36.019	0.067	0.037
-627.478	255.517	-0.275	0.482
-626.463	-134.209	-0.103	0.013
-625.449	800.000	0.029	-0.107
-624.434	-7.728	0.278	-0.192
-623.419	413.223	0.129	-0.281
-622.405	-193.962	-0.043	-0.000
-621.390	-109.706	0.188	-0.041
-620.376	-200.000	0.018	-0.246
-619.361	113.612	0.104	0.129
-618.346	-192.645	-0.024	0.000
-617.332	299.873	-0.130	0.245
-616.317	-200.000	-0.025	0.221
-615.303	108.444	0.287	0.350
-614.288	-200.000	0.009	-0.114
-613.273	800.000	-0.067	-0.259
-612.259	320.314	-0.054	0.105
-611.244	284.383	-0.118	0.216
-610.230	-13.187	0.135	-0.090
-609.215	-200.000	0.002	0.025
-608.201	-26.178	0.262	-0.157
-607.186	-92.789	0.191	-0.055
-606.171	189.966	0.083	0.127
-605.157	-200.000	0.030	0.162
-604.142	-88.124	-0.222	0.068
-603.128	-30.410	-0.236	0.137
-602.113	-200.000	-0.038	-0.243
-601.098	-73.056	0.241	-0.090
-600.084	152.301	-0.130	0.182
-599.069	346.992	-0.136	-0.273
-598.055	-10.638	0.120	0.081
-597.040	172.812	-0.169	-0.249
-596.025	104.776	0.114	-0.137
-595.011	50.653	0.129	0.125
-593.996	519.680	0.086	-0.206
-592.982	46.629	0.178	-0.169
-591.967	-78.322	-0.241	-0.085
-590.952	2.974	0.169	-0.125
-589.938	-157.269	-0.263	0.016
-588.923	-108.868	-0.027	-0.006
-587.909	-118.325	-0.147	-0.027
-586.894	122.872	0.128	0.163
-585.879	95.323	-0.009	0.011
-584.865	370.878	0.043	-0.090
-583.850	-48.655	-0.294	0.144
-582.836	-62.370	0.203	0.086
-581.821	-96.026	-0.118	-0.032
-580.806	-48.461	-0.184	0.091
-579.792	128.121	-0.064	0.083
-578.777	800.000	0.031	0.121
-577.763	-48.532	0.192	0.094
-576.748	800.000	-0.121	0.369
-575.733	261.735	0.090	-0.159
-574.719	-5.300	-0.464	0.325
-573.704	115.122	-0.102	0.127
-572.690	-91.998	0.241	-0.070
-571.675	42.922	-0.040	-0.037
-570.661	132.485	-0.043	-0.057
-569.646	245.289	0.053	0.091
-568.631	744.789	0.010	-0.028
-567.617	-100.693	0.024	-0.006
-566.602	163.161	-0.200	-0.286
-565.588	-30.383	-0.313	0.181
-564.573	-40.385	0.212	-0.112
-563.558	35.330	-0.135	-0.120
-562.544	-200.000	0.008	0.072
-561.529	228.276	-0.100	-0.166
-560.515	-76.091	-0.155	-0.056
-559.500	-55.676	-0.141	0.064
-558.485	800.000	0.060	-0.210
-557.471	199.815	0.026	0.041
-556.456	100.789	-0.174	-0.206
-555.442	-49.550	-0.098	0.048
-554.427	-161.462	-0.482	0.025
-553.412	-162.297	-0.273	-0.014
-552.398	466.689	0.128	0.292
-551.383	-112.433	0.243	-0.049
-550.369	15.142	0.280	-0.224
-549.354	372.617	-0.050	0.104
-548.339	-200.000	-0.019	-0.177
-547.325	125.777	0.102	-0.131
-546.310	-200.000	0.002	0.088
-545.296	800.000	-0.084	0.290
-544.281	321.407	0.157	-0.304
-543.266	-184.370	-0.387	0.006
-542.252	-97.258	0.245	0.065
-541.237	-76.743	0.308	-0.110
-540.223	20.485	0.065	0.054
-539.208	-200.000	-0.010	-0.442
-538.193	-88.365	-0.123	-0.037
-537.179	-164.015	-0.130	0.006
-536.164	-163.698	-0.252	-0.012
-535.150	484.446	0.105	0.244
-534.135	-45.077	-0.218	-0.111
-533.121	-151.588	0.529	-0.040
-532.106	-28.854	0.040	0.024
-531.091	800.000	0.015	-0.065
-530.077	12.576	0.171	0.135
-529.062	563.167	-0.017	0.042
-528.048	-198.310	-0.218	0.001
-527.033	-200.000	0.013	0.130
-526.018	800.000	0.012	-0.053
-525.004	800.000	-0.112	0.357
-523.989	800.000	-0.043	-0.122
-522.975	10.449	0.130	-0.101
-521.960	-99.272	-0.123	-0.032
-520.945	-64.675	0.247	0.102
-519.931	-200.000	0.059	0.368
-518.916	-148.613	0.289	-0.024
-517.902	149.969	0.196	0.270
-516.887	-29.838	-0.252	-0.146
-515.872	95.262	0.018	0.021
-514.858	576.475	-0.034	0.086
-513.843	-200.000	0.043	0.202
-512.829	-8.415	0.050	-0.034
-511.814	43.473	0.380	-0.354
-510.799	194.687	0.143	-0.221
-509.785	-83.813	-0.170	-0.055
-508.770	800.000	0.015	-0.058
-507.756	-126.289	-0.057	-0.009
-506.741	-200.000	-0.009	-0.146
-505.726	77.307	0.151	0.164
-504.712	-200.000	-0.059	0.287
-503.697	425.586	0.113	-0.247
-502.683	150.093	0.094	0.129
-501.668	-36.409	-0.152	-0.084
-500.653	-118.986	0.186	0.033
-499.639	-200.000	-0.003	-0.166
-498.624	163.557	0.198	0.284
-497.610	800.000	-0.104	-0.311
-496.595	-135.309	-0.378	-0.046
-495.581	-1.015	-0.130	-0.093
-494.566	-7.000	0.423	0.292
-493.551	-200.000	-0.002	0.031
-492.537	270.243	-0.131	0.234
-491.522	187.632	-0.026	0.039
-490.508	-161.170	-0.228	-0.012
-489.493	785.700	0.061	-0.171
-488.478	54.380	-0.169	0.166
-487.464	91.550	-0.092	0.105
-486.449	140.108	-0.078	0.105
-485.435	-4.171	-0.202	-0.142
-484.420	-143.055	0.186	0.018
-483.405	-135.967	0.193	0.023
-482.391	-92.133	-0.145	0.042
-481.376	-148.859	-0.443	-0.036
-480.362	800.000	0.076	0.318
-479.347	-200.000	-0.001	0.008
-478.332	-78.623	0.062	-0.021
-477.318	100.271	0.180	0.212
-476.303	1.536	0.207	0.151
-475.289	-200.000	0.050	-0.272
-474.274	-167.267	0.132	-0.005
-473.259	-200.000	0.007	0.046
-472.245	-106.762	0.394	-0.089
-471.230	-133.498	0.451	0.057
-470.216	-200.000	-0.039	0.208
-469.201	23.845	-0.129	-0.108
-468.186	639.789	-0.081	-0.209
-467.172	-200.000	-0.014	0.119
-466.157	320.304	0.046	0.089
-465.143	-200.000	0.015	0.088
-464.128	39.494	0.230	0.209
-463.113	-64.842	0.069	-0.029
-462.099	-97.401	0.036	-0.010
-461.084	-200.000	0.035	0.186
-460.070	233.931	0.074	0.123
-459.055	49.548	-0.056	-0.054
-458.040	-80.086	0.220	0.075
-457.026	134.314	0.200	0.264
-456.011	109.374	0.263	0.320
-454.997	483.370	0.073	0.169
-453.982	-200.000	0.023	0.239
-452.968	35.916	-0.268	-0.239
-451.953	795.964	-0.105	-0.292
-450.938	116.451	0.053	-0.066
-449.924	-148.862	-0.035	0.003
-448.909	-200.000	-0.028	-0.153
-447.895	-63.617	-0.094	-0.039
-446.880	-70.837	-0.400	-0.153
-445.865	-5.290	-0.075	-0.052
-444.851	218.440	-0.138	0.224
-443.836	86.541	0.113	-0.126
-442.822	775.600	-0.051	0.141
-441.807	239.247	0.090	0.153
-440.792	7.133	0.367	0.278
-439.778	-175.715	-0.448	-0.012
-438.763	370.552	-0.064	0.132
-437.749	-102.822	-0.304	-0.073
-436.734	-200.000	0.318	-0.001
-435.719	-200.000	0.018	0.256
-434.705	800.000	-0.162	-0.471
-433.690	551.082	-0.203	-0.494
-432.676	426.579	0.042	0.091
-431.661	-200.000	-0.051	-0.226
-430.646	-200.000	-0.005	-0.067
-429.632	-172.863	-0.040	0.001
-428.617	-200.000	-0.089	-0.512
-427.603	-15.852	0.393	-0.254
-426.588	-200.000	0.007	-0.370
-425.573	800.000	0.027	-0.077
-424.559	-67.993	-0.129	0.051
-423.544	214.888	0.100	0.160
-422.530	-20.392	-0.257	0.160
-421.515	86.582	-0.125	0.140
-420.500	427.559	0.059	0.128
-419.486	-79.530	-0.216	-0.074
-418.471	-82.600	0.337	0.111
-417.457	-36.731	0.163	-0.089
-416.442	78.995	-0.243	-0.264
-415.428	-89.891	0.019	-0.006
-414.413	-1.363	0.104	-0.074
-413.398	-11.109	0.096	-0.064
-412.384	181.879	-0.109	0.162
-411.369	506.582	-0.091	-0.214
-410.355	66.671	0.059	-0.061
-409.340	139.523	-0.121	0.162
-408.325	339.875	-0.151	-0.299
-407.311	668.395	0.032	0.085
-406.296	-86.851	-0.116	-0.036
-405.282	-200.000	0.015	0.308
-404.267	-25.511	0.129	0.077
-403.252	212.524	0.175	0.280
-402.238	-90.758	0.265	-0.077
-401.223	53.037	-0.033	-0.032
-400.209	-87.368	-0.181	-0.056
-399.194	172.893	-0.195	0.285
-398.179	800.000	0.018	0.070
-397.165	-200.000	-0.005	-0.103
-396.150	800.000	-0.068	0.244
-395.136	586.267	0.052	0.129
-394.121	-200.000	0.014	-0.220
-393.106	-130.369	-0.191	0.026
-392.092	-40.975	-0.107	0.056
-391.077	-200.000	-0.029	0.328
-390.063	-200.000	-0.004	0.148
-389.048	-43.973	0.269	-0.137
-388.033	380.071	0.101	0.209
-387.019	73.593	-0.259	-0.275
-386.004	-47.723	-0.172	0.084
-384.990	51.456	0.165	-0.159
-383.975	7.123	0.251	0.190
-382.960	41.812	-0.102	0.094
-381.946	-109.956	0.212	0.045
-380.931	800.000	-0.131	-0.475
-379.917	77.573	-0.166	-0.179
-378.902	-200.000	0.013	0.447
-377.888	42.729	-0.314	0.290
-376.873	-200.000	0.277	0.000
-375.858	-200.000	-0.016	-0.169
-374.844	-88.352	-0.221	-0.067
-373.829	-51.645	-0.343	-0.162
-372.815	-99.898	-0.246	-0.062
-371.800	-86.776	-0.416	-0.129
-370.785	-23.430	-0.224	0.136
-369.771	-200.000	-0.009	0.213
-368.756	-123.491	0.146	0.024
-367.742	127.055	0.082	-0.105
-366.727	800.000	-0.020	-0.069
-365.712	-81.465	-0.163	-0.054
-364.698	153.984	0.128	-0.178
-363.683	-66.990	0.138	0.055
-362.669	25.368	-0.168	0.141
-361.654	22.993	-0.250	0.208
-360.639	38.895	0.167	0.151
-359.625	-200.000	-0.068	0.327
-358.610	-86.152	-0.106	0.033
-357.596	-38.923	0.157	0.083
-356.581	-200.000	-0.053	0.350
-355.566	-79.128	-0.186	-0.064
-354.552	309.578	-0.162	0.307
-353.537	12.191	-0.083	-0.065
-352.523	-134.157	0.094	-0.012
-351.508	162.283	-0.125	0.177
-350.493	127.437	0.071	0.092
-349.479	-14.346	0.277	0.181
-348.464	-1.859	-0.184	-0.131
-347.450	800.000	0.045	-0.134
-346.435	54.776	0.227	-0.221
-345.420	-200.000	-0.020	-0.177
-344.406	238.133	0.270	-0.453
-343.391	51.332	0.176	-0.169
-342.377	-54.610	-0.314	-0.143
-341.362	143.072	0.171	-0.230
-340.348	-49.294	0.337	-0.163
-339.333	-26.839	0.073	0.043
-338.318	-69.890	-0.279	-0.108
-337.304	774.473	-0.095	-0.261
-336.289	58.057	0.093	-0.092
-335.275	800.000	-0.047	0.186
-334.260	164.993	-0.251	-0.358
-333.245	-200.000	-0.058	0.273
-332.231	-19.869	0.227	-0.142
-331.216	241.321	0.122	-0.206
-330.202	-198.774	0.276	-0.002
-329.187	-200.000	-0.038	0.305
-328.172	666.219	0.121	0.316
-327.158	-200.000	-0.017	-0.265
-326.143	648.268	-0.071	0.183
-325.129	185.138	-0.116	-0.174
-324.114	-70.989	-0.282	0.107
-323.099	-150.623	0.151	-0.012
-322.085	-77.149	-0.218	0.077
-321.070	-96.612	-0.300	-0.080
-320.056	-71.190	0.114	0.043
-319.041	168.938	-0.173	0.249
-318.026	567.509	0.092	-0.226
-317.012	800.000	-0.072	0.308
-315.997	800.000	-0.085	0.343
-314.983	-200.000	-0.020	0.141
-313.968	-200.000	-0.018	0.269
-312.953	-181.530	0.221	-0.004
-311.939	464.447	0.118	-0.266
-310.924	-174.113	-0.112	-0.003
-309.910	-200.000	-0.003	-0.016
-308.895	-113.252	-0.286	-0.057
-307.880	63.283	-0.137	-0.139
-306.866	127.223	0.107	0.138
-305.851	90.957	0.148	-0.167
-304.837	-1.866	0.115	-0.082
-303.822	-77.208	-0.088	0.031
-302.807	560.646	-0.086	0.210
-301.793	-200.000	-0.016	0.088
-300.778	42.378	0.271	-0.249
-299.764	-18.806	-0.219	-0.138
-298.749	-93.601	0.134	-0.037
-297.735	800.000	0.028	0.078
-296.720	800.000	0.037	-0.116
-295.705	-96.077	0.151	0.041
-294.691	-115.735	-0.091	0.017
-293.676	-119.443	0.127	-0.022
-292.662	-200.000	0.068	-0.334
-291.647	18.236	-0.052	-0.042
-290.632	-200.000	-0.034	-0.262
-289.618	800.000	0.050	0.158
-288.603	800.000	-0.028	-0.082
-287.589	395.626	-0.119	-0.250
-286.574	-81.571	-0.219	-0.073
-285.559	-200.000	-0.011	-0.347
-284.545	-43.064	0.255	0.131
-283.530	800.000	-0.045	0.159
-282.516	800.000	0.045	-0.149
-281.501	2.315	-0.319	0.233
-280.486	636.105	-0.017	-0.043
-279.472	-200.000	0.012	-0.200
-278.457	44.706	-0.116	-0.107
-277.443	800.000	-0.037	-0.124
-276.428	-187.856	0.289	0.004
-275.413	-48.001	0.177	0.087
-274.399	-13.606	-0.163	0.106
-273.384	118.694	0.131	-0.163
-272.370	800.000	0.044	0.137
-271.355	141.591	-0.174	0.233
-270.340	800.000	-0.102	-0.366
-269.326	79.732	0.080	0.087
-268.311	-162.424	0.103	0.005
-267.297	503.825	0.040	-0.093
-266.282	110.452	-0.130	0.158
-265.267	-38.236	0.072	0.039
-264.253	-200.000	0.020	0.169
-263.238	141.814	0.259	-0.346
-262.224	-166.487	0.290	-0.012
-261.209	-148.171	0.189	-0.016
-260.195	-66.312	0.089	-0.036
-259.180	628.557	0.107	-0.271
-258.165	800.000	0.023	-0.074
-257.151	-125.016	-0.151	-0.023
-256.136	29.028	0.093	-0.080
-255.122	236.831	-0.140	-0.234
-254.107	-72.541	0.202	0.075
-253.092	270.727	-0.041	-0.073
-252.078	451.322	0.152	0.338
-251.063	-17.536	-0.154	-0.097
-250.049	144.611	0.052	0.070
-249.034	-124.776	-0.166	-0.026
-248.019	166.947	-0.141	0.202
-247.005	-91.017	0.162	0.047
-245.990	19.540	0.096	0.078
-244.976	162.732	0.113	0.159
-243.961	30.319	0.117	0.101
-242.946	-197.356	0.411	0.003
-241.932	-85.883	0.188	-0.059
-240.917	-80.203	0.323	-0.109
-239.903	-57.501	0.117	0.052
-238.888	634.770	0.144	0.368
-237.873	-40.003	-0.061	-0.032
-236.859	-161.136	0.154	-0.008
-235.844	800.000	0.093	0.311
-234.830	-109.443	-0.200	-0.043
-233.815	6.694	0.053	-0.040
-232.800	-200.000	-0.002	0.256
-231.786	2.107	0.195	-0.142
-230.771	67.633	0.067	0.069
-229.757	-71.633	-0.249	-0.093
-228.742	-200.000	-0.013	-0.362
-227.727	-19.651	-0.075	-0.047
-226.713	213.641	0.102	0.162
-225.698	-43.401	0.364	0.185
-224.684	800.000	-0.082	0.358
-223.669	-59.952	-0.375	-0.161
-222.655	271.142	-0.060	-0.106
-221.640	-16.200	0.244	-0.156
-220.625	-59.942	-0.144	0.062
-219.611	31.045	0.040	0.035
-218.596	6.108	-0.263	0.196
-217.582	-200.000	-0.021	-0.228
-216.567	208.866	0.169	-0.266
-215.552	618.310	-0.091	0.230
-214.538	-200.000	0.032	-0.224
-213.523	-0.320	-0.132	0.094
-212.509	619.998	0.060	-0.151
-211.494	-200.000	-0.011	0.189
-210.479	-94.873	0.166	0.045
-209.465	174.730	0.164	0.238
-208.450	68.833	-0.305	-0.315
-207.436	138.550	0.075	0.099
-206.421	800.000	0.083	-0.244
-205.406	-66.342	-0.111	-0.045
-204.392	286.817	0.044	0.079
-203.377	-139.307	0.328	-0.035
-202.363	66.051	-0.142	0.145
-201.348	160.081	0.174	-0.244
-200.333	-162.614	0.166	-0.008
-199.319	-73.190	0.202	-0.074
-198.304	-134.215	0.051	-0.006
-197.290	-200.000	-0.018	0.159
-196.275	355.371	-0.096	-0.192
-195.260	94.613	0.030	-0.034
-194.246	-55.722	-0.046	-0.021
-193.231	262.836	-0.289	-0.504
-192.217	-167.615	0.455	0.018
-191.202	44.629	-0.106	0.098
-190.187	307.604	0.059	-0.110
-189.173	-48.149	-0.213	-0.103
-188.158	7.784	0.060	-0.045
-187.144	800.000	0.086	0.326
-186.129	800.000	0.098	0.397
-185.114	-200.000	0.036	0.363
-184.100	-53.854	-0.199	-0.091
-183.085	-66.387	-0.299	-0.119
-182.071	-144.375	0.298	-0.028
-181.056	140.458	0.227	-0.301
-180.042	-200.000	-0.024	-0.245
-179.027	-164.360	-0.050	-0.002
-178.012	-129.955	-0.396	0.054
-176.998	800.000	-0.033	0.093
-175.983	791.657	-0.131	-0.363
-174.969	-124.201	0.243	0.038
-173.954	102.299	0.167	0.196
-172.939	800.000	-0.079	0.234
-171.925	688.291	0.067	-0.176
-170.910	20.009	-0.261	-0.211
-169.896	88.031	-0.174	-0.193
-168.881	-200.000	-0.035	0.262
-167.866	122.408	0.038	-0.047
-166.852	-200.000	0.011	0.193
-165.837	-200.000	-0.438	0.001
-164.823	20.328	0.332	-0.270
-163.808	27.053	-0.099	0.084
-162.793	-200.000	0.015	0.212
-161.779	-29.278	-0.150	0.086
-160.764	55.899	0.116	-0.113
-159.750	-200.000	0.003	-0.491
-158.735	97.256	0.089	0.103
-157.720	-200.000	-0.006	-0.111
-156.706	-200.000	-0.064	0.293
-155.691	-200.000	-0.039	0.246
-154.677	45.170	-0.131	0.122
-153.662	341.790	0.145	0.284
-152.647	-125.938	0.117	-0.018
-151.633	421.470	0.040	-0.086
-150.618	391.639	0.103	-0.214
-149.604	-34.785	0.265	0.145
-148.589	243.678	0.118	-0.198
-147.574	800.000	0.052	0.190
-146.560	-1.127	0.285	-0.202
-145.545	69.616	0.047	-0.049
-144.531	-95.467	0.147	-0.040
-143.516	209.338	0.079	-0.125
-142.502	-13.930	0.175	-0.113
-141.487	-200.000	0.019	-0.220
-140.472	800.000	0.096	-0.337
-139.458	-62.436	0.060	0.025
-138.443	23.972	0.196	-0.162
-137.429	-7.293	-0.123	0.083
-136.414	247.548	0.054	0.091
-135.399	800.000	0.031	-0.130
-134.385	38.034	-0.127	-0.113
-133.370	-78.108	-0.093	-0.032
-132.356	-200.000	-0.003	0.146
-131.341	35.391	-0.043	0.038
-130.326	218.608	-0.033	-0.052
-129.312	-109.008	-0.185	0.040
-128.297	44.027	0.220	0.202
-127.283	-55.886	-0.166	-0.074
-126.268	-10.677	0.156	-0.103
-125.253	-73.473	0.129	0.047
-124.239	-112.390	-0.105	-0.021
-123.224	800.000	-0.117	0.352
-122.210	-200.000	0.007	0.306
-121.195	635.170	0.060	-0.153
-120.180	-200.000	-0.010	0.198
-119.166	11.465	-0.179	0.138
-118.151	555.317	0.164	0.395
-117.137	296.644	0.021	0.039
-116.122	-161.603	0.207	0.011
-115.107	-16.108	-0.140	-0.089
-114.093	-200.000	0.043	-0.245
-113.078	209.639	-0.109	-0.171
-112.064	-139.957	-0.421	-0.045
-111.049	-116.190	-0.040	-0.007
-110.034	-200.000	0.001	0.212
-109.020	-200.000	-0.005	0.252
-108.005	-153.246	-0.230	0.016
-106.991	-176.666	0.234	-0.006
-105.976	765.890	0.132	0.360
-104.962	-25.852	-0.119	0.070
-103.947	-135.294	-0.191	0.023
-102.932	1.503	0.271	-0.195
-101.918	-144.591	-0.164	-0.015
-100.903	800.000	-0.108	0.334
-99.889	-60.584	-0.315	0.134
-98.874	-67.665	-0.131	0.052
-97.859	-56.013	-0.219	-0.098
-96.845	79.997	-0.220	-0.237
-95.830	-40.283	0.207	0.108
-94.816	-35.910	0.151	-0.082
-93.801	-39.731	0.203	0.106
-92.786	80.932	0.179	0.193
-91.772	412.640	0.147	-0.313
-90.757	119.530	0.211	-0.262
-89.743	-94.942	-0.221	-0.060
-88.728	-136.714	-0.319	0.037
-87.713	120.249	0.259	0.322
-86.699	-82.055	0.049	-0.016
-85.684	800.000	0.065	-0.185
-84.670	-84.136	0.327	-0.104
-83.655	484.407	-0.007	0.017
-82.640	-114.347	0.775	-0.149
-81.626	601.270	0.130	0.324
-80.611	800.000	-0.005	-0.014
-79.597	-134.161	0.354	-0.044
-78.582	-26.076	-0.287	-0.169
-77.567	-53.327	-0.198	-0.091
-76.553	-149.540	-0.218	-0.017
-75.538	-200.000	-0.009	-0.189
-74.524	75.630	0.062	0.066
-73.509	800.000	0.037	-0.117
-72.494	-46.094	0.194	-0.096
-71.480	-64.745	0.239	0.097
-70.465	-200.000	0.034	0.176
-69.451	338.720	-0.095	0.185
-68.436	-111.774	0.175	-0.036
-67.422	800.000	-0.049	-0.144
-66.407	800.000	-0.018	0.057
-65.392	-60.793	-0.265	0.112
-64.378	800.000	0.054	0.168
-63.363	-200.000	0.001	0.207
-62.349	-95.491	0.258	0.069
-61.334	82.087	-0.475	-0.515
-60.319	32.988	-0.225	0.195
-59.305	800.000	0.161	-0.646
-58.290	125.824	0.383	0.484
-57.276	661.082	0.741	1.908
-56.261	-200.000	71.083	518.367
-55.246	601.306	1267.388	3147.492
-54.232	146.217	2493.313	3344.858
-53.217	114.342	2342.491	2850.951
-52.203	53.781	1961.792	1883.321
-51.188	47.609	1748.893	1630.545
-50.173	44.558	1701.016	1562.463
-49.159	57.751	1732.179	1693.248
-48.144	64.526	1750.683	1763.541
-47.130	47.339	1715.750	1597.309
-46.115	43.956	1702.109	1558.590
-45.100	43.764	1697.452	1552.791
-44.086	43.793	1694.657	1550.398
-43.071	43.821	1691.897	1548.024
-42.057	43.615	1690.463	1545.076
-41.042	43.799	1688.112	1544.268
-40.027	43.857	1686.014	1542.728
-39.013	43.760	1683.982	1540.073
-37.998	43.789	1682.082	1538.497
-36.984	43.810	1680.727	1537.355
-35.969	44.000	1678.891	1537.052
-34.954	43.953	1677.682	1535.526
-33.940	44.025	1675.486	1534.005
-32.925	43.943	1673.878	1531.853
-31.911	43.933	1671.965	1529.962
-30.896	43.959	1669.705	1528.033
-29.881	43.948	1668.461	1526.751
-28.867	43.886	1666.898	1524.790
-27.852	43.865	1665.494	1523.291
-26.838	43.926	1663.371	1521.744
-25.823	43.990	1662.402	1521.280
-24.809	43.936	1660.842	1519.383
-23.794	44.007	1659.062	1518.225
-22.779	44.022	1657.795	1517.122
-21.765	43.966	1656.269	1515.245
-20.750	43.947	1654.077	1513.041
-19.736	43.936	1653.138	1512.040
-18.721	43.992	1651.397	1510.798
-17.706	44.007	1649.127	1508.775
-16.692	43.862	1648.200	1506.789
-15.677	43.915	1646.753	1505.803
-14.663	44.003	1645.557	1505.303
-13.648	43.930	1644.642	1503.866
-12.633	43.970	1642.663	1502.293
-11.619	43.999	1641.172	1501.078
-10.604	43.904	1639.747	1499.016
-9.590	43.967	1637.973	1497.801
-8.575	44.094	1636.691	1497.509
-7.560	43.957	1636.239	1496.022
-6.546	43.936	1634.336	1494.065
-5.531	43.991	1633.077	1493.266
-4.517	44.028	1631.954	1492.451
-3.502	43.988	1630.739	1490.983
-2.487	44.052	1629.339	1490.116
-1.473	43.958	1618.666	1479.606
-0.458	41.615	1598.190	1443.917
0.556	36.783	1595.279	1405.275
1.571	33.583	1618.298	1401.815
2.586	32.495	1632.449	1405.830
3.600	28.417	1578.935	1330.098
4.615	15.501	1457.741	1140.739
5.629	3.695	1380.591	1003.907
6.644	1.297	1369.859	980.536
7.659	1.140	1368.077	978.165
8.673	1.036	1367.483	976.984
9.688	1.037	1365.437	975.439
10.702	0.768	1363.005	971.888
11.717	4.642	1371.310	1002.740
12.731	15.853	1392.677	1091.334
13.746	23.796	1406.122	1153.553
14.761	24.840	1406.130	1160.231
15.775	24.937	1405.616	1160.335
16.790	24.984	1405.588	1160.511
17.804	25.049	1404.940	1160.292
18.819	25.231	1404.544	1161.043
19.834	25.198	1404.151	1160.402
20.848	25.267	1403.188	1159.953
21.863	25.290	1401.981	1158.995
22.877	25.245	1401.377	1158.105
23.892	25.268	1401.032	1157.868
24.907	25.324	1399.523	1156.877
25.921	25.191	1399.153	1155.612
26.936	25.342	1397.817	1155.381
27.950	25.363	1396.663	1154.457
28.965	25.299	1395.542	1153.016
29.980	25.340	1393.672	1151.634
30.994	25.345	1392.697	1150.760
32.009	25.278	1391.591	1149.312
33.023	25.243	1389.986	1147.662
34.038	25.294	1389.520	1147.500
35.053	25.262	1388.595	1146.432
36.067	25.330	1387.530	1145.888
37.082	25.246	1386.564	1144.449
38.096	25.312	1385.564	1143.944
39.111	25.340	1384.608	1143.235
40.126	25.322	1383.791	1142.341
41.140	25.314	1383.538	1141.984
42.155	25.200	1383.403	1141.045
43.169	25.334	1383.280	1141.693
44.184	25.223	1382.807	1140.497
45.199	25.184	1382.558	1139.941
46.213	25.324	1381.893	1140.185
47.228	25.295	1381.055	1139.207
48.242	25.259	1379.732	1137.783
49.257	25.296	1378.209	1136.661
50.271	25.238	1376.927	1135.139
51.286	25.198	1375.550	1133.649
52.301	25.310	1374.129	1133.086
53.315	25.328	1373.412	1132.506
54.330	25.254	1372.803	1131.441
55.344	25.219	1371.544	1130.080
56.359	25.313	1370.230	1129.486
57.374	25.231	1369.248	1128.064
58.388	25.347	1368.738	1128.271
59.403	25.304	1368.601	1127.788
60.417	25.215	1367.912	1126.565
61.432	25.268	1366.917	1125.978
62.447	25.383	1365.834	1125.708
63.461	25.327	1364.775	1124.384
64.476	25.353	1363.865	1123.695
65.490	25.303	1362.902	1122.492
66.505	25.292	1361.218	1120.937
67.520	25.283	1359.991	1119.770
68.534	25.194	1359.141	1118.416
69.549	25.249	1358.363	1118.018
70.563	25.286	1357.193	1117.188
71.578	25.289	1356.502	1116.544
72.593	25.296	1355.475	1115.641
73.607	25.306	1354.606	1114.890
74.622	25.309	1353.983	1114.297
75.636	25.431	1353.156	1114.276
76.651	25.283	1352.544	1112.750
77.666	25.285	1351.934	1112.162
78.680	25.233	1351.767	1111.608
79.695	25.334	1350.538	1111.123
80.709	25.347	1349.804	1110.503
81.724	25.376	1348.878	1109.819
82.739	25.330	1347.784	1108.538
83.753	25.320	1347.036	1107.764
84.768	25.335	1345.757	1106.708
85.782	25.285	1344.909	1105.602
86.797	25.255	1343.939	1104.523
87.812	25.294	1342.736	1103.677
88.826	25.331	1341.402	1102.710
89.841	25.428	1340.173	1102.193
90.855	25.313	1339.574	1100.898
91.870	25.336	1338.394	1099.975
92.884	25.340	1337.643	1099.282
93.899	25.257	1337.287	1098.387
94.914	25.323	1336.374	1097.941
95.928	25.414	1335.221	1097.455
96.943	25.357	1334.738	1096.613
97.957	25.401	1333.624	1095.868
98.972	25.324	1332.984	1094.777
99.987	25.403	1331.961	1094.318
101.001	25.307	1331.193	1093.006
102.016	25.333	1330.299	1092.335
103.030	25.355	1329.469	1091.690
104.045	25.333	1328.591	1090.737
105.060	25.372	1328.008	1090.404
106.074	25.388	1326.764	1089.382
107.089	25.406	1325.617	1088.453
108.103	25.322	1324.865	1087.230
109.118	25.439	1323.379	1086.624
110.133	25.449	1322.323	1085.715
111.147	25.360	1321.091	1084.074
112.162	25.539	1319.964	1084.132
113.176	25.487	1319.149	1083.052
114.191	25.379	1318.273	1081.587
115.206	25.367	1317.399	1080.701
116.220	25.431	1315.856	1079.727
117.235	25.422	1315.014	1078.888
118.249	25.407	1314.407	1078.202
119.264	25.438	1313.752	1077.755
120.279	25.463	1313.018	1077.207
121.293	25.386	1312.131	1075.923
122.308	25.497	1310.787	1075.393
123.322	25.528	1310.176	1074.979
124.337	25.491	1309.435	1074.058
125.352	25.545	1308.663	1073.648
126.366	25.478	1307.931	1072.554
127.381	25.591	1306.792	1072.201
128.395	25.550	1306.005	1071.214
129.410	25.530	1305.248	1070.380
130.424	25.490	1304.578	1069.501
131.439	25.576	1303.656	1069.157
132.454	25.468	1302.814	1067.729
133.468	25.558	1302.402	1067.835
134.483	25.561	1301.427	1066.958
135.497	25.500	1300.615	1065.837
136.512	25.579	1299.749	1065.500
137.527	25.549	1298.886	1064.523
138.541	25.506	1297.250	1062.834
139.556	25.474	1296.342	1061.807
140.570	25.437	1295.391	1060.711
141.585	25.585	1293.945	1060.307
142.600	25.549	1293.056	1059.273
143.614	25.490	1292.279	1058.194
144.629	25.536	1290.943	1057.280
145.643	25.424	1290.267	1055.975
146.658	25.405	1289.613	1055.232
147.673	25.373	1288.124	1053.732
148.687	25.506	1287.067	1053.554
149.702	25.411	1285.937	1051.978
150.716	25.520	1284.638	1051.462
151.731	25.588	1283.405	1050.759
152.746	25.443	1282.937	1049.435
153.760	25.511	1281.802	1048.811
154.775	25.437	1280.548	1047.257
155.789	25.434	1279.981	1046.683
156.804	25.422	1279.358	1046.017
157.819	25.380	1278.360	1044.862
158.833	25.378	1277.661	1044.184
159.848	25.521	1276.681	1044.123
160.862	25.595	1275.754	1043.704
161.877	25.678	1275.009	1043.481
162.892	25.565	1274.388	1042.226
163.906	25.519	1273.522	1041.162
164.921	25.568	1272.622	1040.615
165.935	25.468	1272.066	1039.490
166.950	25.547	1271.613	1039.486
167.964	25.598	1270.942	1039.136
168.979	25.503	1270.834	1038.411
169.994	25.555	1269.160	1037.248
171.008	25.671	1268.858	1037.583
172.023	25.647	1267.975	1036.628
173.037	25.602	1267.260	1035.693
174.052	25.620	1266.240	1034.873
175.067	25.600	1265.646	1034.177
176.081	25.533	1265.281	1033.403
177.096	25.424	1264.735	1032.242
178.110	25.663	1263.052	1032.149
179.125	25.636	1262.380	1031.351
180.140	25.517	1261.481	1029.845
181.154	25.657	1260.066	1029.401
182.169	25.591	1259.067	1028.117
183.183	25.577	1258.217	1027.248
184.198	25.630	1256.818	1026.319
185.213	25.663	1256.010	1025.758
186.227	25.755	1255.365	1025.663
187.242	25.671	1254.289	1024.214
188.256	25.660	1253.581	1023.485
189.271	25.667	1252.799	1022.795
190.286	25.738	1252.476	1022.841
191.300	25.658	1251.484	1021.487
192.315	25.629	1251.201	1021.003
193.329	25.730	1250.586	1020.982
194.344	25.625	1250.350	1020.108
195.359	25.665	1249.772	1019.771
196.373	25.742	1249.314	1019.742
197.388	25.632	1248.780	1018.594
198.402	25.548	1248.654	1017.925
199.417	25.717	1247.946	1018.213
200.432	25.647	1247.582	1017.432
201.446	25.621	1246.989	1016.708
202.461	25.698	1246.073	1016.308
203.475	25.666	1245.077	1015.226
204.490	25.827	1243.740	1014.954
205.504	25.773	1242.813	1013.800
206.519	25.664	1242.598	1012.923
207.534	25.794	1241.242	1012.457
208.548	25.642	1240.589	1010.982
209.563	25.749	1239.685	1010.757
210.577	25.676	1239.103	1009.785
211.592	25.784	1237.865	1009.289
212.607	25.808	1237.486	1009.026
213.621	25.790	1236.421	1007.966
214.636	25.776	1235.901	1007.378
215.650	25.790	1234.543	1006.257
216.665	25.785	1233.539	1005.324
217.680	25.765	1233.155	1004.813
218.694	25.771	1232.435	1004.167
219.709	25.751	1231.664	1003.342
220.723	25.821	1230.679	1002.838
221.738	25.721	1230.331	1001.907
222.753	25.848	1229.064	1001.493
223.767	25.808	1228.714	1000.897
224.782	25.876	1228.364	1000.904
225.796	25.902	1227.896	1000.576
226.811	25.845	1226.831	999.306
227.826	25.970	1226.280	999.463
228.840	25.783	1226.107	998.196
229.855	25.879	1225.206	997.906
230.869	25.868	1224.372	997.077
231.884	25.898	1223.844	996.726
232.899	25.905	1223.112	996.079
233.913	25.885	1222.493	995.378
234.928	25.966	1221.996	995.327
235.942	26.008	1221.552	995.112
236.957	25.910	1220.947	993.988
237.972	25.878	1220.216	993.130
238.986	25.980	1219.081	992.681
240.001	25.991	1218.972	992.563
241.015	26.153	1217.819	992.428
242.030	26.136	1216.883	991.486
243.045	26.093	1216.469	990.823
244.059	26.132	1215.295	989.994
245.074	26.097	1214.722	989.247
246.088	26.005	1214.071	988.128
247.103	26.079	1213.172	987.711
248.117	25.976	1212.792	986.752
249.132	26.060	1211.726	986.257
250.147	26.039	1211.249	985.666
251.161	26.212	1210.305	985.755
252.176	26.146	1209.483	984.640
253.190	26.188	1208.938	984.334
254.205	26.103	1208.234	983.213
255.220	26.095	1207.858	982.779
256.234	26.140	1207.582	982.711
257.249	26.177	1206.613	982.038
258.263	26.103	1206.108	981.137
259.278	26.212	1205.509	981.154
260.293	26.200	1204.886	980.495
261.307	26.194	1204.562	980.114
262.322	26.233	1203.807	979.620
263.336	26.189	1203.026	978.662
264.351	26.194	1202.389	978.085
265.366	26.130	1202.127	977.438
266.380	26.097	1201.708	976.832
267.395	26.229	1200.587	976.548
268.409	26.184	1200.306	975.988
269.424	26.292	1199.121	975.520
270.439	26.288	1198.913	975.243
271.453	26.217	1198.396	974.357
272.468	26.216	1197.438	973.483
273.482	26.182	1196.724	972.634
274.497	26.297	1196.297	972.820
275.512	26.261	1195.980	972.286
276.526	26.305	1195.052	971.680
277.541	26.408	1193.882	971.195
278.555	26.346	1193.453	970.429
279.570	26.371	1192.771	969.922
280.585	26.386	1191.857	969.174
281.599	26.327	1191.220	968.255
282.614	26.324	1190.546	967.604
283.628	26.362	1189.589	966.943
284.643	26.338	1188.790	966.081
285.657	26.332	1188.037	965.351
286.672	26.433	1186.633	964.664
287.687	26.425	1186.263	964.236
288.701	26.572	1185.260	964.115
289.716	26.447	1184.648	962.869
290.730	26.416	1184.293	962.332
291.745	26.443	1183.685	961.893
292.760	26.449	1183.065	961.338
293.774	26.337	1182.545	960.235
294.789	26.408	1182.042	960.117
295.803	26.418	1181.588	959.719
296.818	26.490	1180.839	959.403
297.833	26.550	1180.112	959.048
298.847	26.530	1179.470	958.334
299.862	26.510	1178.512	957.365
300.876	26.421	1177.886	956.302
301.891	26.594	1177.421	956.757
302.906	26.658	1176.509	956.270
303.920	26.620	1175.770	955.383
304.935	26.643	1175.309	955.043
305.949	26.600	1174.457	954.042
306.964	26.668	1174.060	953.991
307.979	26.679	1173.227	953.290
308.993	26.609	1173.096	952.731
310.008	26.735	1171.702	952.177
311.022	26.658	1171.038	951.148
312.037	26.675	1170.422	950.651
313.052	26.647	1169.411	949.597
314.066	26.702	1168.754	949.268
315.081	26.637	1168.022	948.252
316.095	26.713	1167.615	948.236
317.110	26.648	1167.334	947.584
318.125	26.671	1166.337	946.811
319.139	26.687	1165.563	946.178
320.154	26.671	1164.981	945.539
321.168	26.674	1164.838	945.355
322.183	26.641	1164.106	944.504
323.197	26.614	1163.562	943.841
324.212	26.666	1162.898	943.491
325.227	26.712	1162.210	943.086
326.241	26.783	1161.907	943.129
327.256	26.876	1160.800	942.627
328.270	26.827	1159.764	941.451
329.285	26.790	1159.260	940.768
330.300	26.854	1158.410	940.324
331.314	26.860	1157.142	939.243
332.329	26.807	1156.796	938.604
333.343	26.738	1156.615	938.020
334.358	26.880	1155.261	937.570
335.373	26.886	1154.664	937.036
336.387	26.877	1154.168	936.502
337.402	26.989	1153.389	936.367
338.416	26.966	1152.731	935.630
339.431	26.964	1151.743	934.735
340.446	27.016	1151.244	934.514
341.460	27.063	1150.605	934.155
342.475	27.000	1149.781	933.081
343.489	27.012	1149.162	932.556
344.504	26.954	1148.311	931.487
345.519	27.027	1147.298	930.957
346.533	27.079	1146.398	930.408
347.548	26.951	1146.087	929.418
348.562	27.092	1145.645	929.698
349.577	26.978	1144.585	928.172
350.592	26.928	1143.904	927.285
351.606	26.993	1143.162	926.934
352.621	27.062	1142.298	926.501
353.635	26.984	1141.903	925.705
354.650	27.060	1141.582	925.749
355.665	27.062	1140.647	924.916
356.679	27.107	1140.437	924.894
357.694	27.142	1139.522	924.251
358.708	27.248	1138.171	923.609
359.723	27.088	1138.063	922.628
360.738	27.030	1137.297	921.632
361.752	27.160	1137.192	922.124
362.767	27.260	1136.084	921.653
363.781	27.208	1135.733	921.023
364.796	27.249	1135.048	920.593
365.810	27.238	1134.791	920.248
366.825	27.310	1134.048	919.923
367.840	27.292	1133.742	919.506
368.854	27.285	1132.879	918.690
369.869	27.371	1131.999	918.325
370.883	27.313	1131.593	917.625
371.898	27.249	1130.953	916.700
372.913	27.431	1130.198	916.927
373.927	27.264	1130.079	915.905
374.942	27.319	1129.467	915.606
375.956	27.193	1128.711	914.281
376.971	27.228	1128.523	914.220
377.986	27.295	1127.699	913.811
379.000	27.507	1126.935	914.176
380.015	27.462	1126.469	913.487
381.029	27.415	1125.872	912.688
382.044	27.435	1125.186	912.152
383.059	27.379	1124.387	911.144
384.073	27.490	1123.659	911.026
385.088	27.465	1123.038	910.319
386.102	27.546	1122.399	910.125
387.117	27.502	1121.033	908.717
388.132	27.481	1120.265	907.907
389.146	27.428	1119.536	906.973
390.161	27.462	1119.240	906.824
391.175	27.514	1118.197	906.157
392.190	27.434	1118.106	905.606
393.205	27.512	1117.194	905.172
394.219	27.513	1116.451	904.495
395.234	27.657	1115.559	904.410
396.248	27.641	1114.425	903.330
397.263	27.696	1113.799	903.015
398.278	27.529	1113.823	902.130
399.292	27.583	1113.070	901.703
400.307	27.634	1112.474	901.395
401.321	27.676	1111.304	900.573
402.336	27.614	1111.034	899.967
403.350	27.705	1110.305	899.750
404.365	27.700	1109.606	899.080
405.380	27.635	1109.212	898.361
406.394	27.721	1108.376	898.026
407.409	27.719	1107.469	897.203
408.423	27.826	1106.715	897.035
409.438	27.713	1106.023	895.841
410.453	27.790	1105.633	895.826
411.467	27.817	1104.668	895.096
412.482	27.726	1104.265	894.245
413.496	27.936	1103.137	894.279
414.511	27.765	1102.685	892.997
415.526	27.909	1102.268	893.285
416.540	27.795	1101.984	892.417
417.555	27.902	1101.394	892.384
418.569	27.878	1101.013	891.878
419.584	27.986	1100.324	891.770
420.599	27.922	1099.767	890.928
421.613	75.742	1277.198	1296.789
422.628	70.935	1303.073	1296.919
