DTS Sentinel unit serial number:	SN413079Multiplexer serial number:	ORYXHardware model number:	OX4-SRSoftware version number:	ORYX F/W v4.00 Oryx Data Collector v3.7.2.0data status	okinstallation	princeton_trtdifferential loss correction	single-endedforward channel	channel 2reverse channel	N/Adate	2019/09/11time	16:05:11forward acquisition time	60.00reverse acquisition time	0.00gamma	496.2192k internal	0.2287k external	0.2287temperature offset calibration	1.0017default loss term (dB/km)	0.3790temperature slope calibration	1.0000multiplexer offset coefficient	1.0000multiplexer slope coefficient	1.0000fibre end	0.00T internal ref (°C)	43.12T ext. ref 1 (°C)	1.03T ext. ref 2 (°C)	38.56length (m)	temperature (°C)	Stokes	anti-Stokes-747.200	-196.246	0.303	0.002
-746.185	-200.000	0.010	0.106
-745.171	179.426	0.140	0.211
-744.156	15.307	0.164	0.132
-743.142	33.669	0.172	0.153
-742.127	195.936	0.161	-0.252
-741.112	-102.565	-0.305	-0.075
-740.098	-200.000	0.045	0.308
-739.083	18.962	-0.135	0.111
-738.069	-200.000	0.031	0.335
-737.054	-118.569	0.294	-0.053
-736.039	756.202	0.091	-0.253
-735.025	-25.832	0.130	0.079
-734.010	777.695	0.064	-0.179
-732.996	-94.999	0.217	0.060
-731.981	-71.931	0.401	-0.153
-730.966	317.562	-0.093	0.181
-729.952	-88.265	-0.148	-0.045
-728.937	212.350	-0.097	-0.156
-727.923	386.828	-0.089	-0.189
-726.908	125.097	-0.124	0.161
-725.894	237.376	0.201	-0.341
-724.879	-101.392	0.155	-0.039
-723.864	5.189	0.054	-0.040
-722.850	725.999	0.163	0.446
-721.835	-51.389	-0.294	-0.141
-720.821	163.617	0.181	0.261
-719.806	-65.683	0.100	-0.041
-718.791	-90.027	0.373	0.111
-717.777	490.899	0.101	-0.238
-716.762	7.976	-0.134	0.103
-715.748	-89.333	0.227	-0.069
-714.733	800.000	-0.023	-0.069
-713.718	-77.508	-0.226	-0.080
-712.704	-46.953	-0.222	0.111
-711.689	491.640	0.190	-0.445
-710.675	421.873	0.111	-0.244
-709.660	411.452	0.075	0.163
-708.645	-35.896	0.118	-0.065
-707.631	-58.642	0.355	0.157
-706.616	-118.416	0.502	0.091
-705.602	-20.384	-0.310	-0.195
-704.587	-200.000	0.053	0.263
-703.572	64.654	0.133	-0.137
-702.558	-67.417	0.410	-0.165
-701.543	-27.480	0.091	-0.054
-700.529	-10.001	-0.069	0.047
-699.514	-139.353	-0.205	-0.023
-698.499	-200.000	-0.025	-0.138
-697.485	-144.585	-0.100	0.009
-696.470	-82.388	0.201	-0.067
-695.456	800.000	0.109	-0.350
-694.441	-200.000	0.113	-0.547
-693.426	-200.000	-0.001	-0.074
-692.412	-78.626	0.137	-0.048
-691.397	-108.634	-0.183	-0.040
-690.383	-107.543	0.174	0.039
-689.368	-26.791	-0.051	0.030
-688.354	769.318	-0.090	-0.251
-687.339	-200.000	-0.022	0.243
-686.324	-158.755	-0.343	0.020
-685.310	-46.504	-0.184	0.093
-684.295	800.000	0.020	-0.086
-683.281	295.666	0.128	0.241
-682.266	-51.562	0.062	0.030
-681.251	-200.000	-0.048	0.299
-680.237	-142.188	0.341	-0.035
-679.222	-9.149	-0.089	-0.061
-678.208	-64.907	-0.315	0.130
-677.193	39.658	0.030	0.027
-676.178	1.400	-0.026	-0.019
-675.164	800.000	-0.101	-0.284
-674.149	41.798	-0.114	0.106
-673.135	-200.000	-0.027	0.131
-672.120	-162.211	0.097	0.005
-671.105	140.579	0.173	-0.234
-670.091	-200.000	-0.010	0.214
-669.076	-200.000	0.023	0.105
-668.062	-200.000	0.013	-0.126
-667.047	-170.664	0.205	0.007
-666.032	-118.834	0.040	0.007
-665.018	20.784	0.293	0.243
-664.003	-200.000	0.005	-0.026
-662.989	-10.722	-0.308	0.208
-661.974	-72.098	0.226	-0.086
-660.959	-104.137	-0.117	-0.028
-659.945	165.946	0.083	-0.119
-658.930	-86.784	-0.208	0.065
-657.916	283.135	0.105	0.192
-656.901	-200.000	-0.037	-0.222
-655.886	-200.000	0.030	-0.232
-654.872	-200.000	-0.008	-0.139
-653.857	-112.507	0.117	-0.024
-652.843	48.037	0.215	0.205
-651.828	800.000	-0.034	0.096
-650.814	-8.724	0.200	-0.137
-649.799	-51.859	0.218	-0.104
-648.784	274.036	0.121	0.218
-647.770	6.362	-0.106	0.081
-646.755	-21.224	0.138	0.086
-645.741	-200.000	0.038	0.237
-644.726	-11.895	-0.186	0.125
-643.711	157.885	-0.211	0.298
-642.697	800.000	0.096	0.281
-641.682	224.853	-0.129	-0.214
-640.668	-133.995	0.336	0.043
-639.653	156.694	0.194	0.273
-638.638	-49.342	-0.146	0.071
-637.624	364.989	-0.140	-0.289
-636.609	113.646	0.344	0.427
-635.595	-54.777	-0.190	0.088
-634.580	-200.000	-0.001	-0.128
-633.565	800.000	-0.052	0.188
-632.551	468.866	-0.094	0.215
-631.536	800.000	0.064	0.205
-630.522	237.483	-0.092	-0.156
-629.507	-72.649	-0.192	-0.072
-628.492	-143.705	-0.071	-0.007
-627.478	69.660	-0.174	-0.183
-626.463	-45.210	-0.260	-0.132
-625.449	124.390	-0.086	-0.111
-624.434	-24.393	-0.070	0.043
-623.419	84.239	-0.307	0.343
-622.405	84.829	-0.253	0.283
-621.390	-161.970	-0.085	-0.004
-620.376	-200.000	0.019	0.308
-619.361	-80.433	-0.129	-0.044
-618.346	-48.898	0.100	-0.049
-617.332	465.685	-0.112	0.257
-616.317	-200.000	-0.001	-0.015
-615.303	253.659	-0.193	-0.337
-614.288	-200.000	-0.005	-0.335
-613.273	800.000	0.087	-0.253
-612.259	-43.548	-0.145	0.075
-611.244	498.538	-0.214	-0.504
-610.230	46.715	0.274	-0.259
-609.215	-200.000	0.023	-0.121
-608.201	800.000	0.113	-0.344
-607.186	-200.000	-0.037	-0.346
-606.171	724.580	-0.062	0.170
-605.157	-17.797	0.108	0.069
-604.142	-60.568	-0.177	-0.077
-603.128	673.653	0.106	-0.279
-602.113	-200.000	-0.005	-0.040
-601.098	-12.423	-0.377	-0.251
-600.084	126.749	-0.060	-0.078
-599.069	56.068	-0.236	0.233
-598.055	-200.000	0.004	-0.151
-597.040	-148.161	-0.293	-0.025
-596.025	157.933	-0.054	-0.077
-595.011	800.000	0.068	-0.216
-593.996	-75.421	0.289	0.105
-592.982	-89.626	0.275	-0.082
-591.967	-28.095	-0.069	0.041
-590.952	800.000	-0.093	-0.294
-589.938	-119.169	-0.376	0.067
-588.923	800.000	0.076	-0.261
-587.909	-200.000	-0.028	0.231
-586.894	-200.000	-0.003	-0.306
-585.879	453.705	0.088	-0.199
-584.865	800.000	0.050	-0.169
-583.850	800.000	-0.119	-0.506
-582.836	-111.357	-0.283	0.059
-581.821	40.328	0.151	0.139
-580.806	4.738	-0.101	-0.076
-579.792	-21.862	0.166	0.103
-578.777	5.209	0.170	-0.128
-577.763	-1.971	-0.261	-0.187
-576.748	-9.115	-0.185	-0.126
-575.733	-200.000	-0.029	-0.351
-574.719	-82.060	0.330	0.110
-573.704	-200.000	0.053	-0.299
-572.690	800.000	0.164	-0.510
-571.675	-34.051	0.219	-0.123
-570.661	-31.688	-0.116	-0.067
-569.646	58.028	0.167	0.166
-568.631	34.663	-0.207	0.184
-567.617	59.203	0.276	-0.277
-566.602	15.545	0.123	-0.099
-565.588	-4.383	-0.306	-0.216
-564.573	-200.000	0.045	-0.323
-563.558	-200.000	-0.002	-0.302
-562.544	800.000	-0.132	-0.415
-561.529	-200.000	-0.026	-0.190
-560.515	-200.000	-0.016	-0.274
-559.500	653.823	0.146	-0.383
-558.485	-107.704	0.344	0.076
-557.471	331.316	0.045	0.088
-556.456	-200.000	0.033	0.182
-555.442	-200.000	0.002	0.070
-554.427	-73.408	0.273	-0.102
-553.412	800.000	0.074	0.284
-552.398	-50.868	-0.126	-0.060
-551.383	12.764	0.233	0.183
-550.369	157.593	0.218	0.308
-549.354	22.756	-0.233	0.194
-548.339	40.890	-0.089	-0.082
-547.325	233.620	0.128	-0.215
-546.310	-116.643	0.244	0.046
-545.296	46.340	-0.072	0.068
-544.281	429.662	-0.061	-0.134
-543.266	-111.751	0.152	0.031
-542.252	103.886	0.104	-0.125
-541.237	-151.329	-0.166	0.013
-540.223	113.951	-0.250	0.310
-539.208	50.642	0.239	-0.230
-538.193	-4.341	0.085	0.060
-537.179	-27.537	0.025	-0.015
-536.164	182.223	0.126	0.189
-535.150	-17.475	-0.311	0.199
-534.135	753.660	-0.068	-0.188
-533.121	27.781	0.038	0.032
-532.106	-115.579	0.249	0.048
-531.091	-200.000	-0.019	-0.311
-530.077	63.461	-0.138	-0.141
-529.062	625.939	0.025	-0.065
-528.048	-200.000	-0.006	0.232
-527.033	118.875	0.185	0.232
-526.018	35.067	0.129	-0.115
-525.004	-50.008	-0.169	0.081
-523.989	88.240	-0.152	0.172
-522.975	150.455	0.232	-0.321
-521.960	116.320	-0.136	-0.169
-520.945	-200.000	-0.017	-0.130
-519.931	221.591	-0.043	0.070
-518.916	-125.895	-0.165	-0.025
-517.902	-56.735	0.100	0.045
-516.887	42.102	-0.209	0.193
-515.872	119.138	-0.061	0.077
-514.858	200.330	-0.051	0.079
-513.843	57.855	-0.281	0.279
-512.829	-200.000	-0.002	-0.245
-511.814	-162.199	-0.273	-0.014
-510.799	-162.490	-0.419	-0.021
-509.785	800.000	0.093	0.377
-508.770	-80.168	-0.095	-0.032
-507.756	10.200	0.362	-0.280
-506.741	270.473	0.141	-0.252
-505.726	-87.961	0.318	0.097
-504.712	498.170	-0.068	0.159
-503.697	-94.045	0.197	-0.055
-502.683	-158.139	0.025	-0.001
-501.668	-51.164	-0.309	-0.147
-500.653	-149.435	-0.134	-0.011
-499.639	129.209	0.097	-0.126
-498.624	140.868	0.214	-0.288
-497.610	-20.069	0.079	-0.049
-496.595	-115.487	-0.155	0.030
-495.581	-35.600	0.127	-0.070
-494.566	19.491	-0.164	-0.134
-493.551	-97.026	0.159	-0.042
-492.537	217.834	-0.062	0.101
-491.522	-200.000	-0.008	0.169
-490.508	-200.000	0.015	0.172
-489.493	127.151	0.208	0.268
-488.478	-138.583	-0.158	-0.018
-487.464	-160.146	0.141	-0.008
-486.449	118.431	-0.115	-0.144
-485.435	-70.514	-0.124	-0.048
-484.420	103.023	0.088	-0.105
-483.405	-44.622	0.055	-0.028
-482.391	90.209	-0.121	0.137
-481.376	223.689	-0.177	-0.290
-480.362	501.989	0.052	-0.122
-479.347	362.986	-0.060	-0.122
-478.332	-108.552	-0.164	-0.036
-477.318	2.268	-0.151	0.111
-476.303	-200.000	-0.025	0.206
-475.289	800.000	0.095	0.284
-474.274	32.620	0.033	-0.029
-473.259	156.703	0.173	0.243
-472.245	-110.086	-0.139	-0.030
-471.230	93.860	-0.063	-0.073
-470.216	64.944	-0.194	0.199
-469.201	-200.000	0.020	-0.324
-468.186	93.405	0.153	-0.176
-467.172	800.000	-0.102	0.290
-466.157	-38.151	0.080	0.043
-465.143	118.329	-0.163	0.204
-464.128	-156.809	-0.221	-0.014
-463.113	-200.000	-0.047	0.233
-462.099	-13.733	0.092	0.060
-461.084	800.000	-0.095	0.323
-460.070	-36.125	-0.198	-0.108
-459.055	-74.765	-0.164	-0.060
-458.040	-38.600	-0.410	0.220
-457.026	6.889	0.147	-0.111
-456.011	-71.309	-0.211	0.080
-454.997	612.063	-0.086	-0.219
-453.982	800.000	0.065	-0.192
-452.968	-119.303	0.459	-0.081
-451.953	-49.927	-0.357	-0.172
-450.938	800.000	-0.079	0.291
-449.924	-148.948	0.276	0.023
-448.909	800.000	0.069	0.283
-447.895	-70.362	-0.404	0.155
-446.880	380.075	0.100	0.209
-445.865	-63.861	-0.139	0.058
-444.851	-200.000	-0.007	-0.081
-443.836	410.432	-0.121	0.260
-442.822	-106.140	-0.143	-0.033
-441.807	622.319	-0.133	-0.339
-440.792	-36.959	-0.117	0.064
-439.778	261.618	-0.107	-0.188
-438.763	262.191	-0.022	0.038
-437.749	63.162	0.119	0.121
-436.734	-155.829	0.276	0.018
-435.719	-179.544	0.080	0.002
-434.705	-3.843	0.320	0.225
-433.690	-127.439	-0.453	-0.067
-432.676	-200.000	-0.028	0.146
-431.661	800.000	0.034	-0.106
-430.646	-47.958	-0.215	-0.105
-429.632	800.000	0.080	-0.239
-428.617	255.900	0.154	-0.267
-427.603	93.267	0.109	-0.125
-426.588	-33.881	-0.268	0.150
-425.573	-200.000	0.055	0.282
-424.559	99.060	0.153	0.179
-423.544	20.083	0.085	-0.069
-422.530	282.104	0.134	-0.244
-421.515	276.148	-0.160	-0.288
-420.500	-76.501	0.120	-0.043
-419.486	800.000	0.084	-0.259
-418.471	-193.783	-0.182	0.002
-417.457	-7.100	0.220	0.151
-416.442	-43.082	-0.164	0.084
-415.428	-124.172	0.272	0.043
-414.413	-99.140	0.276	-0.071
-413.398	-200.000	-0.021	0.183
-412.384	545.693	-0.045	0.110
-411.369	30.439	-0.099	-0.085
-410.355	-29.543	-0.012	0.007
-409.340	76.842	0.199	0.214
-408.325	-132.577	0.139	-0.018
-407.311	-132.517	0.181	-0.024
-406.296	251.226	-0.015	-0.026
-405.282	800.000	-0.052	0.189
-404.267	5.871	0.040	-0.030
-403.252	481.692	-0.154	0.353
-402.238	462.241	0.022	0.049
-401.223	-72.380	0.167	-0.063
-400.209	-16.478	-0.292	0.187
-399.194	-200.000	0.024	-0.396
-398.179	585.583	-0.136	-0.338
-397.165	324.952	-0.045	-0.087
-396.150	800.000	-0.044	-0.132
-395.136	-91.998	0.086	-0.025
-394.121	-122.812	0.142	0.023
-393.106	2.165	-0.187	-0.137
-392.092	-76.625	-0.392	-0.139
-391.077	-29.069	-0.200	-0.116
-390.063	196.163	0.097	0.149
-389.048	-129.285	0.296	-0.042
-388.033	35.914	0.097	-0.087
-387.019	-200.000	-0.057	0.527
-386.004	3.643	-0.161	0.119
-384.990	-49.087	-0.150	0.073
-383.975	224.244	-0.057	0.093
-382.960	733.519	-0.055	0.149
-381.946	629.793	0.094	0.241
-380.931	-200.000	-0.043	0.271
-379.917	-59.608	-0.360	-0.156
-378.902	-187.617	0.066	0.001
-377.888	-1.705	0.087	0.062
-376.873	79.627	-0.108	0.118
-375.858	-78.044	0.092	0.032
-374.844	-84.454	0.130	0.042
-373.829	398.341	-0.174	0.368
-372.815	-0.532	-0.192	0.138
-371.800	154.003	0.098	0.136
-370.785	128.853	0.218	-0.281
-369.771	-41.351	-0.356	0.185
-368.756	24.061	-0.162	0.135
-367.742	514.387	0.072	0.170
-366.727	118.534	-0.148	-0.185
-365.712	148.165	0.097	0.132
-364.698	-200.000	0.000	-0.135
-363.683	-200.000	0.018	0.162
-362.669	-200.000	-0.026	0.414
-361.654	353.035	0.101	-0.202
-360.639	-110.837	0.103	0.021
-359.625	-200.000	0.032	0.247
-358.610	31.126	0.205	-0.178
-357.596	247.426	-0.128	-0.218
-356.581	-200.000	0.006	-0.239
-355.566	-141.285	0.464	0.048
-354.552	-101.162	-0.194	0.048
-353.537	373.916	0.109	0.224
-352.523	160.122	-0.055	0.078
-351.508	-152.637	-0.172	0.012
-350.493	108.713	-0.339	0.410
-349.479	-51.792	0.304	-0.143
-348.464	-37.901	-0.142	-0.076
-347.450	-45.599	-0.320	-0.160
-346.435	89.302	-0.103	0.116
-345.420	-135.067	0.177	0.022
-344.406	-68.656	-0.069	0.027
-343.391	-88.329	-0.465	0.140
-342.377	-74.897	0.217	0.079
-341.362	-149.331	0.104	-0.008
-340.348	-80.941	-0.094	-0.032
-339.333	-31.106	-0.151	0.086
-338.318	-122.335	-0.373	0.062
-337.304	-188.062	0.108	0.001
-336.289	-100.807	-0.307	-0.076
-335.275	124.128	0.227	-0.288
-334.260	-200.000	0.007	0.070
-333.245	230.482	-0.219	0.362
-332.231	-15.536	-0.218	0.140
-331.216	593.105	-0.123	0.306
-330.202	-25.768	0.385	0.229
-329.187	-133.704	0.161	0.020
-328.172	18.011	-0.039	0.031
-327.158	800.000	0.065	0.209
-326.143	-54.282	0.295	-0.135
-325.129	-39.345	0.169	0.090
-324.114	-105.911	-0.251	-0.057
-323.099	17.065	0.170	0.136
-322.085	-10.152	0.089	-0.059
-321.070	330.981	0.160	-0.310
-320.056	59.475	-0.283	-0.281
-319.041	-49.058	0.072	0.035
-318.026	-32.646	0.402	-0.226
-317.012	25.600	0.199	-0.167
-315.997	-54.382	0.135	0.062
-314.983	222.373	-0.036	-0.058
-313.968	-85.564	-0.067	0.021
-312.953	-106.033	-0.119	-0.027
-311.939	161.608	-0.108	-0.152
-310.924	800.000	-0.036	-0.149
-309.910	253.073	0.178	0.306
-308.895	44.517	0.283	0.263
-307.880	3.189	0.220	-0.161
-306.866	323.108	0.189	0.363
-305.851	649.205	0.139	0.357
-304.837	-118.337	0.282	0.050
-303.822	741.388	-0.009	-0.026
-302.807	36.745	0.129	0.115
-301.793	219.941	0.229	-0.371
-300.778	-200.000	-0.037	0.362
-299.764	108.613	0.159	0.191
-298.749	422.385	-0.186	-0.402
-297.735	-4.996	0.104	-0.073
-296.720	-1.671	-0.156	-0.111
-295.705	246.982	0.108	-0.184
-294.691	3.892	0.245	0.180
-293.676	-2.528	0.197	-0.139
-292.662	-163.101	-0.215	-0.010
-291.647	-180.530	0.364	-0.008
-290.632	373.268	0.091	0.186
-289.618	146.246	-0.199	-0.269
-288.603	-200.000	-0.004	0.127
-287.589	306.173	-0.262	0.491
-286.574	-118.061	-0.092	-0.017
-285.559	-200.000	-0.024	-0.322
-284.545	-131.520	0.209	-0.028
-283.530	-168.126	0.280	0.011
-282.516	58.145	0.082	-0.081
-281.501	-142.899	-0.223	-0.022
-280.486	483.421	-0.066	0.152
-279.472	800.000	-0.022	0.089
-278.457	-200.000	-0.038	-0.172
-277.443	591.858	-0.082	0.204
-276.428	-200.000	-0.035	0.214
-275.413	-200.000	0.028	0.164
-274.399	-200.000	0.022	-0.137
-273.384	389.179	-0.157	0.327
-272.370	121.843	0.122	-0.153
-271.355	-148.197	0.162	-0.013
-270.340	800.000	-0.065	0.246
-269.326	-29.991	0.295	0.169
-268.311	155.814	-0.071	0.099
-267.297	-54.361	0.144	-0.066
-266.282	-109.481	0.297	0.063
-265.267	-200.000	0.049	-0.429
-264.253	-200.000	-0.001	0.099
-263.238	732.713	0.080	-0.215
-262.224	218.681	-0.031	-0.051
-261.209	49.129	-0.095	0.089
-260.195	-84.346	-0.246	0.078
-259.180	-200.000	-0.002	0.087
-258.165	20.160	0.241	-0.196
-257.151	-50.340	0.083	-0.040
-256.136	67.442	-0.104	0.107
-255.122	101.995	0.148	0.174
-254.107	62.604	0.123	-0.124
-253.092	-78.909	0.219	0.075
-252.078	-46.578	0.108	-0.053
-251.063	25.757	-0.230	0.192
-250.049	224.715	0.070	0.114
-249.034	412.881	0.156	-0.334
-248.019	-144.319	-0.197	0.018
-247.005	-200.000	-0.001	0.269
-245.990	-200.000	0.043	-0.207
-244.976	-200.000	0.022	0.123
-243.961	77.355	0.163	-0.174
-242.946	-8.061	0.118	-0.080
-241.932	-64.171	0.427	-0.175
-240.917	-149.973	0.246	-0.019
-239.903	800.000	0.096	-0.334
-238.888	-107.319	-0.331	-0.073
-237.873	-200.000	0.031	-0.214
-236.859	-23.586	-0.441	-0.266
-235.844	-191.778	-0.127	-0.001
-234.830	241.016	0.136	0.228
-233.815	-200.000	0.002	0.161
-232.800	800.000	-0.029	-0.091
-231.786	-5.632	-0.091	0.063
-230.771	-200.000	0.031	0.341
-229.757	-200.000	-0.084	-0.442
-228.742	-200.000	-0.018	0.084
-227.727	278.359	0.145	-0.259
-226.713	800.000	0.044	0.132
-225.698	-142.882	-0.147	0.014
-224.684	-16.957	0.209	0.132
-223.669	76.404	0.137	0.145
-222.655	-50.371	0.207	-0.098
-221.640	-123.472	0.250	0.040
-220.625	800.000	-0.011	-0.033
-219.611	-45.413	0.292	-0.145
-218.596	-117.399	0.090	-0.016
-217.582	-12.260	-0.127	-0.083
-216.567	800.000	-0.018	0.078
-215.552	113.808	-0.174	-0.212
-214.538	264.346	0.122	0.213
-213.523	39.374	-0.137	0.124
-212.509	-106.562	-0.388	-0.087
-211.494	-200.000	-0.049	0.223
-210.479	-151.841	0.407	0.030
-209.465	353.333	0.019	0.037
-208.450	71.455	0.040	0.041
-207.436	-70.762	-0.482	-0.183
-206.421	-85.219	0.470	0.148
-205.406	150.251	-0.093	0.126
-204.392	-136.441	0.203	0.024
-203.377	-29.016	0.154	0.089
-202.363	-119.225	0.066	-0.012
-201.348	-200.000	0.023	0.359
-200.333	37.597	-0.315	0.281
-199.319	690.516	0.197	-0.519
-198.304	-145.009	0.214	0.020
-197.290	-200.000	0.049	-0.257
-196.275	800.000	-0.005	-0.020
-195.260	-200.000	-0.060	0.417
-194.246	55.746	-0.124	0.121
-193.231	-97.585	-0.214	-0.056
-192.217	800.000	-0.078	0.306
-191.202	800.000	0.024	-0.099
-190.187	17.950	-0.271	-0.216
-189.173	-104.137	0.134	0.031
-188.158	-77.307	0.345	0.120
-187.144	-127.331	0.036	-0.005
-186.129	-200.000	0.034	-0.238
-185.114	-71.394	-0.206	0.077
-184.100	-82.907	0.113	0.037
-183.085	687.848	-0.095	0.249
-182.071	681.962	0.065	-0.171
-181.056	98.132	-0.103	-0.119
-180.042	-116.245	-0.109	-0.020
-179.027	-200.000	0.007	-0.166
-178.012	-200.000	-0.002	0.189
-176.998	-16.895	-0.233	-0.148
-175.983	-27.882	-0.145	0.085
-174.969	-113.883	0.107	0.021
-173.954	-76.150	-0.245	-0.087
-172.939	-108.595	-0.169	0.036
-171.925	205.842	-0.014	0.022
-170.910	-108.274	0.149	-0.032
-169.896	-200.000	-0.028	-0.186
-168.881	55.498	-0.357	0.346
-167.866	-93.268	0.349	0.097
-166.852	129.003	-0.093	0.120
-165.837	202.783	-0.115	0.179
-164.823	-163.998	-0.288	0.013
-163.808	348.279	0.254	0.502
-162.793	144.629	0.163	0.219
-161.779	109.705	0.177	-0.212
-160.764	27.355	-0.284	-0.240
-159.750	800.000	-0.105	-0.359
-158.735	-33.355	0.147	-0.081
-157.720	800.000	-0.071	-0.263
-156.706	-30.217	-0.046	-0.026
-155.691	-92.759	0.168	-0.047
-154.677	-26.522	0.076	-0.045
-153.662	-192.052	0.215	-0.002
-152.647	-107.698	0.418	0.092
-151.633	-200.000	0.002	-0.022
-150.618	-124.860	0.341	0.053
-149.604	-200.000	0.038	0.257
-148.589	800.000	-0.024	-0.092
-147.574	800.000	0.088	0.305
-146.560	-200.000	0.008	-0.115
-145.545	-145.120	-0.202	0.018
-144.531	64.118	0.124	0.125
-143.516	334.815	-0.121	-0.234
-142.502	364.003	0.052	-0.104
-141.487	-124.479	-0.238	-0.037
-140.472	-186.774	0.185	-0.003
-139.458	67.024	-0.182	0.186
-138.443	-1.866	-0.280	0.197
-137.429	121.023	0.152	0.189
-136.414	116.325	0.053	-0.065
-135.399	-35.667	0.130	0.070
-134.385	30.530	0.314	-0.269
-133.370	-200.000	-0.024	-0.346
-132.356	187.057	0.114	-0.171
-131.341	74.950	0.147	0.155
-130.326	24.570	0.217	0.180
-129.312	406.573	0.132	0.279
-128.297	-39.500	-0.173	0.091
-127.283	-41.549	-0.136	0.070
-126.268	800.000	-0.075	-0.233
-125.253	800.000	-0.057	-0.208
-124.239	-162.864	-0.129	0.006
-123.224	800.000	0.074	0.291
-122.210	-200.000	-0.024	-0.146
-121.195	138.192	0.270	-0.354
-120.180	208.994	-0.122	-0.192
-119.166	-25.879	-0.183	-0.108
-118.151	-129.960	0.479	-0.066
-117.137	-93.489	0.256	-0.071
-116.122	128.150	0.168	0.214
-115.107	-159.280	-0.148	0.008
-114.093	800.000	-0.062	0.251
-113.078	75.310	0.076	-0.080
-112.064	9.963	0.232	0.176
-111.049	66.937	0.142	0.145
-110.034	-21.769	0.116	0.071
-109.020	329.388	-0.059	-0.113
-108.005	423.899	0.207	-0.445
-106.991	490.813	0.114	0.261
-105.976	-1.013	-0.236	0.167
-104.962	3.428	-0.178	-0.130
-103.947	-110.164	0.275	-0.057
-102.932	42.534	0.242	-0.220
-101.918	-94.189	0.201	0.055
-100.903	800.000	-0.083	-0.304
-99.889	-151.408	0.326	-0.024
-98.874	-130.613	-0.194	-0.026
-97.859	-200.000	-0.035	-0.342
-96.845	193.685	0.094	-0.143
-95.830	-200.000	-0.003	0.201
-94.816	345.580	0.034	0.067
-93.801	325.134	-0.158	-0.303
-92.786	607.579	0.124	0.310
-91.772	800.000	-0.035	0.144
-90.757	-200.000	0.040	0.264
-89.743	-136.430	0.166	0.019
-88.728	196.719	0.036	-0.055
-87.713	76.167	0.094	0.099
-86.699	300.727	0.109	-0.201
-85.684	213.252	-0.188	0.297
-84.670	135.145	0.326	-0.423
-83.655	-200.000	0.004	0.154
-82.640	-94.954	-0.374	-0.101
-81.626	197.955	-0.113	0.172
-80.611	371.382	0.164	0.332
-79.597	-200.000	0.000	-0.113
-78.582	800.000	-0.070	-0.196
-77.567	-113.531	0.234	-0.046
-76.553	516.351	-0.078	-0.182
-75.538	49.111	-0.104	0.098
-74.524	-83.877	0.136	0.043
-73.509	561.522	0.067	0.163
-72.494	-98.429	-0.099	0.025
-71.480	198.098	-0.038	-0.058
-70.465	-49.696	-0.091	-0.043
-69.451	-40.740	0.157	0.081
-68.436	265.394	-0.151	-0.263
-67.422	-73.448	-0.286	0.104
-66.407	-22.593	0.180	-0.109
-65.392	-78.420	0.125	0.043
-64.378	494.226	-0.062	-0.143
-63.363	36.664	0.222	-0.195
-62.349	-200.000	0.037	-0.220
-61.334	80.326	-0.763	-0.820
-60.319	-200.000	0.047	0.243
-59.305	-200.000	-0.090	-0.484
-58.290	490.321	0.438	1.001
-57.276	324.289	0.794	1.514
-56.261	-200.000	74.051	537.152
-55.246	593.171	1290.027	3183.024
-54.232	146.353	2514.153	3370.230
-53.217	115.514	2342.412	2858.590
-52.203	53.199	1959.062	1873.458
-51.188	46.743	1746.934	1620.049
-50.173	43.694	1699.291	1552.457
-49.159	57.848	1730.867	1690.765
-48.144	64.090	1750.097	1757.580
-47.130	46.560	1714.235	1588.060
-46.115	43.137	1700.835	1549.343
-45.100	42.948	1695.964	1543.395
-44.086	42.983	1693.324	1541.202
-43.071	42.868	1691.109	1538.245
-42.057	42.847	1688.834	1535.957
-41.042	42.965	1686.125	1534.330
-40.027	42.979	1684.184	1532.603
-39.013	42.971	1682.382	1530.845
-37.998	42.927	1680.995	1529.189
-36.984	42.999	1679.243	1528.079
-35.969	43.082	1678.056	1527.571
-34.954	43.162	1676.433	1526.636
-33.940	43.259	1673.982	1525.075
-32.925	43.205	1672.279	1523.054
-31.911	43.156	1670.912	1521.384
-30.896	43.158	1668.911	1519.512
-29.881	43.174	1667.093	1517.924
-28.867	43.135	1665.519	1516.130
-27.852	43.099	1664.104	1514.512
-26.838	43.167	1662.500	1513.502
-25.823	43.136	1661.360	1512.177
-24.809	43.275	1659.564	1511.524
-23.794	43.191	1658.306	1509.685
-22.779	43.114	1656.936	1507.800
-21.765	43.159	1655.120	1506.428
-20.750	43.128	1653.097	1504.296
-19.736	43.153	1652.081	1503.497
-18.721	43.136	1650.477	1501.851
-17.706	43.112	1648.915	1500.195
-16.692	43.095	1647.236	1498.475
-15.677	43.140	1646.057	1497.680
-14.663	43.173	1644.677	1496.610
-13.648	43.158	1643.280	1495.171
-12.633	43.093	1641.806	1493.290
-11.619	43.139	1640.224	1492.128
-10.604	43.104	1638.815	1490.526
-9.590	43.087	1637.365	1489.027
-8.575	43.164	1636.274	1488.544
-7.560	43.188	1634.595	1487.131
-6.546	43.032	1633.512	1484.940
-5.531	43.249	1631.562	1484.704
-4.517	43.085	1631.428	1483.317
-3.502	43.190	1629.789	1482.540
-2.487	43.200	1628.244	1481.152
-1.473	43.119	1617.694	1470.903
-0.458	40.993	1597.998	1437.594
0.556	36.214	1595.644	1400.532
1.571	33.282	1618.857	1399.139
2.586	32.383	1633.181	1404.686
3.600	28.505	1579.328	1330.179
4.615	15.497	1458.586	1140.606
5.629	3.499	1381.143	1002.363
6.644	1.237	1370.459	979.923
7.659	1.006	1368.830	977.182
8.673	0.928	1367.851	975.892
9.688	0.940	1366.287	974.772
10.702	0.620	1363.473	970.620
11.717	4.598	1371.573	1001.977
12.731	16.063	1393.320	1092.471
13.746	23.972	1406.503	1154.239
14.761	24.648	1407.110	1159.023
15.775	24.733	1406.531	1158.994
16.790	24.796	1405.670	1158.588
17.804	24.995	1404.961	1159.191
18.819	25.062	1405.035	1159.579
19.834	25.159	1404.093	1159.326
20.848	25.097	1403.425	1158.274
21.863	25.185	1402.199	1157.728
22.877	25.091	1401.909	1156.775
23.892	25.117	1400.763	1155.898
24.907	25.099	1400.049	1155.092
25.921	25.028	1399.108	1153.756
26.936	25.074	1398.074	1153.095
27.950	25.134	1396.903	1152.414
28.965	25.217	1395.126	1151.380
29.980	25.119	1394.274	1149.941
30.994	25.128	1392.903	1148.768
32.009	25.147	1391.793	1147.875
33.023	25.120	1390.886	1146.851
34.038	25.086	1390.168	1145.941
35.053	25.116	1388.750	1144.859
36.067	25.120	1387.655	1143.886
37.082	25.165	1386.577	1143.181
38.096	25.147	1385.466	1142.047
39.111	25.130	1385.031	1141.483
40.126	25.125	1384.278	1140.728
41.140	25.170	1383.937	1140.632
42.155	25.147	1383.203	1139.782
43.169	25.221	1382.885	1139.886
44.184	25.135	1383.212	1139.509
45.199	25.065	1383.051	1138.833
46.213	25.127	1381.795	1138.088
47.228	25.225	1380.684	1137.693
48.242	25.061	1379.752	1135.786
49.257	25.172	1378.746	1135.563
50.271	25.148	1377.056	1133.919
51.286	25.114	1375.514	1132.334
52.301	25.157	1374.265	1131.475
53.315	25.150	1373.642	1130.818
54.330	25.121	1372.801	1129.844
55.344	25.101	1371.797	1128.788
56.359	25.193	1370.336	1128.069
57.374	25.146	1369.779	1127.214
58.388	25.124	1369.269	1126.556
59.403	25.126	1368.801	1126.085
60.417	25.154	1368.155	1125.631
61.432	25.124	1367.108	1124.477
62.447	25.188	1366.030	1123.894
63.461	25.125	1365.421	1122.899
64.476	25.127	1364.106	1121.730
65.490	25.184	1362.760	1120.883
66.505	25.129	1361.132	1119.097
67.520	25.089	1359.967	1117.793
68.534	25.155	1358.952	1117.269
69.549	25.190	1358.121	1116.706
70.563	25.133	1357.024	1115.353
71.578	25.263	1355.878	1115.119
72.593	25.173	1355.259	1113.952
73.607	25.199	1354.611	1113.484
74.622	25.194	1354.122	1112.951
75.636	25.230	1353.289	1112.393
76.651	25.133	1352.684	1111.193
77.666	25.068	1352.252	1110.339
78.680	25.093	1351.905	1110.113
79.695	25.099	1350.842	1109.176
80.709	25.222	1349.524	1108.756
81.724	25.125	1348.650	1107.340
82.739	25.153	1347.754	1106.681
83.753	25.150	1347.073	1106.003
84.768	25.148	1345.767	1104.821
85.782	25.197	1344.613	1104.080
86.797	25.154	1343.965	1103.187
87.812	25.173	1342.270	1101.810
88.826	25.141	1341.527	1100.906
89.841	25.189	1340.319	1100.116
90.855	25.129	1339.507	1098.984
91.870	25.118	1338.830	1098.264
92.884	25.133	1337.746	1097.370
93.899	25.245	1336.440	1096.884
94.914	25.199	1335.905	1096.065
95.928	25.215	1335.105	1095.413
96.943	25.277	1334.117	1094.881
97.957	25.118	1333.969	1093.691
98.972	25.145	1333.255	1093.174
99.987	25.210	1331.624	1092.138
101.001	25.174	1331.035	1091.338
102.016	25.103	1330.094	1090.038
103.030	25.150	1329.274	1089.557
104.045	25.140	1328.558	1088.810
105.060	25.192	1327.477	1088.148
106.074	25.200	1326.455	1087.260
107.089	25.292	1325.321	1086.792
108.103	25.227	1324.505	1085.633
109.118	25.441	1322.953	1085.558
110.133	25.274	1322.279	1083.901
111.147	25.277	1320.957	1082.736
112.162	25.327	1319.619	1081.848
113.176	25.265	1319.128	1080.976
114.191	25.257	1318.345	1080.188
115.206	25.261	1317.302	1079.261
116.220	25.288	1316.121	1078.362
117.235	25.166	1315.399	1076.946
118.249	25.192	1314.111	1075.948
119.264	25.201	1313.596	1075.485
120.279	25.239	1312.738	1074.919
121.293	25.338	1311.627	1074.502
122.308	25.354	1310.879	1073.890
123.322	25.319	1310.025	1072.886
124.337	25.257	1309.354	1071.877
125.352	25.333	1308.266	1071.343
126.366	25.385	1307.655	1071.056
127.381	25.370	1306.539	1069.957
128.395	25.313	1305.686	1068.826
129.410	25.356	1304.845	1068.299
130.424	25.318	1304.613	1067.788
131.439	25.339	1303.765	1067.127
132.454	25.301	1302.413	1065.698
133.468	25.355	1301.995	1065.584
134.483	25.326	1301.593	1064.985
135.497	25.304	1300.593	1063.942
136.512	25.290	1299.810	1063.125
137.527	25.309	1298.543	1062.111
138.541	25.324	1297.101	1060.925
139.556	25.300	1296.411	1060.124
140.570	25.281	1295.183	1058.916
141.585	25.376	1293.695	1058.162
142.600	25.230	1293.445	1057.004
143.614	25.346	1292.427	1056.765
144.629	25.349	1291.304	1055.771
145.643	25.272	1290.377	1054.466
146.658	25.205	1289.185	1053.003
147.673	25.211	1288.547	1052.427
148.687	25.206	1287.438	1051.400
149.702	25.180	1286.191	1050.135
150.716	25.273	1284.752	1049.406
151.731	25.265	1284.134	1048.766
152.746	25.312	1282.991	1048.015
153.760	25.302	1281.931	1046.996
154.775	25.384	1280.711	1046.384
155.789	25.348	1279.655	1045.222
156.804	25.327	1279.192	1044.628
157.819	25.385	1278.210	1044.070
158.833	25.182	1277.779	1042.447
159.848	25.354	1276.664	1042.441
160.862	25.270	1276.125	1041.423
161.877	25.429	1274.862	1041.223
162.892	25.261	1274.646	1039.977
163.906	25.354	1273.605	1039.579
164.921	25.403	1273.018	1039.286
165.935	25.416	1272.015	1038.450
166.950	25.401	1271.103	1037.530
167.964	25.208	1271.303	1036.489
168.979	25.476	1270.072	1036.941
169.994	25.463	1269.437	1036.253
171.008	25.372	1269.052	1035.321
172.023	25.419	1268.307	1034.896
173.037	25.469	1267.362	1034.317
174.052	25.411	1266.589	1033.260
175.067	25.415	1265.581	1032.372
176.081	25.383	1265.100	1031.706
177.096	25.307	1264.366	1030.578
178.110	25.440	1263.279	1030.364
179.125	25.453	1262.271	1029.527
180.140	25.528	1261.032	1028.849
181.154	25.503	1260.118	1027.871
182.169	25.332	1259.145	1026.013
183.183	25.409	1258.063	1025.481
184.198	25.513	1257.144	1025.230
185.213	25.488	1256.246	1024.265
186.227	25.522	1255.101	1023.434
187.242	25.325	1254.425	1021.672
188.256	25.544	1253.155	1021.791
189.271	25.439	1253.005	1020.981
190.286	25.464	1252.030	1020.240
191.300	25.413	1251.377	1019.331
192.315	25.480	1251.012	1019.321
193.329	25.421	1250.453	1018.440
194.344	25.523	1249.811	1018.405
195.359	25.451	1249.671	1017.794
196.373	25.509	1248.516	1017.090
197.388	25.438	1248.347	1016.459
198.402	25.359	1248.258	1015.852
199.417	25.468	1247.917	1016.103
200.432	25.505	1247.071	1015.531
201.446	25.540	1246.197	1014.927
202.461	25.508	1245.768	1014.307
203.475	25.583	1244.712	1013.782
204.490	25.501	1243.883	1012.554
205.504	25.443	1242.850	1011.300
206.519	25.503	1242.182	1011.001
207.534	25.501	1241.279	1010.168
208.548	25.470	1240.686	1009.421
209.563	25.543	1239.732	1008.965
210.577	25.497	1238.957	1007.989
211.592	25.490	1237.980	1007.065
212.607	25.701	1236.599	1007.033
213.621	25.690	1236.073	1006.450
214.636	25.534	1235.506	1005.029
215.650	25.624	1234.546	1004.665
216.665	25.506	1233.655	1003.192
217.680	25.567	1232.700	1002.663
218.694	25.607	1232.240	1002.426
219.709	25.720	1231.143	1002.073
220.723	25.698	1230.545	1001.378
221.738	25.612	1229.905	1000.285
222.753	25.581	1228.715	999.062
223.767	25.573	1228.237	998.537
224.782	25.726	1228.066	999.160
225.796	25.802	1227.306	998.872
226.811	25.639	1226.920	997.565
227.826	25.611	1226.534	997.008
228.840	25.738	1225.587	996.859
229.855	25.592	1225.000	995.484
230.869	25.688	1224.082	995.180
231.884	25.705	1223.295	994.547
232.899	25.648	1222.868	993.793
233.913	25.723	1222.055	993.460
234.928	25.829	1221.677	993.648
235.942	25.783	1221.062	992.807
236.957	25.748	1220.401	991.989
237.972	25.736	1219.575	991.163
238.986	25.714	1219.457	990.860
240.001	25.810	1218.343	990.397
241.015	25.914	1217.667	990.330
242.030	25.914	1216.470	989.269
243.045	25.945	1215.824	988.824
244.059	25.849	1215.131	987.647
245.074	25.883	1214.550	987.277
246.088	25.933	1213.721	986.785
247.103	25.972	1212.658	986.047
248.117	25.956	1211.864	985.231
249.132	25.932	1211.272	984.531
250.147	25.982	1210.603	984.174
251.161	25.981	1209.935	983.534
252.176	25.891	1209.129	982.303
253.190	25.970	1208.664	982.266
254.205	25.981	1208.354	981.991
255.220	25.899	1207.809	981.015
256.234	25.922	1207.050	980.434
257.249	25.930	1206.342	979.815
258.263	25.940	1205.816	979.355
259.278	26.158	1205.099	979.871
260.293	26.024	1204.619	978.669
261.307	26.040	1204.393	978.482
262.322	26.066	1203.230	977.595
263.336	25.969	1202.812	976.643
264.351	26.061	1202.014	976.406
265.366	26.014	1201.574	975.705
266.380	26.043	1200.590	974.980
267.395	25.958	1200.292	974.192
268.409	25.920	1199.837	973.529
269.424	25.932	1199.269	973.048
270.439	26.003	1198.875	973.026
271.453	26.009	1198.127	972.366
272.468	25.991	1197.100	971.348
273.482	26.028	1196.343	970.847
274.497	26.012	1195.691	970.145
275.512	26.228	1195.073	970.722
276.526	26.126	1194.862	969.912
277.541	26.165	1193.919	969.274
278.555	26.054	1193.467	968.223
279.570	26.076	1192.433	967.415
280.585	26.241	1191.409	967.385
281.599	26.237	1190.547	966.577
282.614	26.049	1190.298	965.284
283.628	26.187	1189.390	965.202
284.643	26.195	1188.359	964.319
285.657	26.232	1187.244	963.530
286.672	26.133	1186.323	962.168
287.687	26.192	1185.623	961.827
288.701	26.210	1185.419	961.677
289.716	26.184	1184.417	960.637
290.730	26.154	1183.911	959.983
291.745	26.282	1182.854	959.721
292.760	26.246	1182.549	959.195
293.774	26.287	1181.961	958.852
294.789	26.322	1181.383	958.488
295.803	26.305	1180.766	957.808
296.818	26.340	1180.234	957.481
297.833	26.396	1179.364	956.987
298.847	26.292	1179.221	956.231
299.862	26.371	1177.922	955.515
300.876	26.343	1177.267	954.751
301.891	26.399	1176.864	954.636
302.906	26.366	1176.461	954.048
303.920	26.493	1175.468	953.830
304.935	26.496	1174.846	953.254
305.949	26.334	1174.311	951.882
306.964	26.282	1173.943	951.228
307.979	26.433	1172.809	951.019
308.993	26.431	1172.359	950.558
310.008	26.499	1171.381	950.037
311.022	26.544	1171.071	949.938
312.037	26.469	1170.128	948.695
313.052	26.496	1169.179	947.987
314.066	26.383	1168.621	946.855
315.081	26.433	1167.738	946.319
316.095	26.407	1166.957	945.467
317.110	26.535	1166.524	945.702
318.125	26.515	1165.805	944.928
319.139	26.565	1165.253	944.659
320.154	26.423	1164.977	943.611
321.168	26.490	1164.399	943.410
322.183	26.522	1163.503	942.768
323.197	26.415	1163.054	941.762
324.212	26.516	1162.374	941.652
325.227	26.439	1162.102	940.951
326.241	26.611	1161.205	941.035
327.256	26.580	1160.500	940.219
328.270	26.647	1159.521	939.691
329.285	26.640	1158.943	939.104
330.300	26.664	1158.030	938.405
331.314	26.500	1157.448	936.997
332.329	26.684	1156.193	936.854
333.343	26.673	1155.369	936.047
334.358	26.693	1154.989	935.756
335.373	26.757	1154.165	935.336
336.387	26.617	1153.927	934.338
337.402	26.753	1152.897	934.124
338.416	26.806	1152.197	933.747
339.431	26.776	1151.446	932.904
340.446	26.742	1151.435	932.636
341.460	26.739	1150.612	931.872
342.475	26.892	1149.752	931.879
343.489	26.793	1149.021	930.692
344.504	26.710	1147.871	929.256
345.519	26.816	1147.153	929.136
346.533	26.849	1146.076	928.349
347.548	26.901	1145.601	928.148
348.562	26.942	1144.962	927.757
349.577	26.796	1144.455	926.520
350.592	26.826	1143.382	925.724
351.606	26.847	1142.704	925.196
352.621	26.785	1142.465	924.605
353.635	26.883	1141.351	924.123
354.650	26.833	1140.931	923.445
355.665	26.935	1140.000	923.130
356.679	26.902	1139.687	922.626
357.694	26.923	1139.013	922.105
358.708	26.962	1138.017	921.416
359.723	27.005	1137.464	921.107
360.738	26.949	1136.877	920.263
361.752	26.841	1136.786	919.559
362.767	26.922	1136.094	919.330
363.781	27.156	1135.007	919.554
364.796	27.122	1134.968	919.268
365.810	27.123	1133.956	918.372
366.825	27.090	1133.644	917.873
367.840	27.121	1133.465	917.801
368.854	27.119	1132.615	917.023
369.869	27.084	1131.828	916.127
370.883	27.132	1131.231	915.803
371.898	27.060	1130.520	914.788
372.913	27.023	1129.875	914.000
373.927	27.067	1129.301	913.672
374.942	27.243	1128.484	913.817
375.956	27.128	1128.072	912.825
376.971	27.130	1127.917	912.630
377.986	27.126	1127.332	912.052
379.000	27.293	1126.226	911.915
380.015	27.273	1126.365	911.846
381.029	27.207	1125.542	910.772
382.044	27.374	1124.751	910.887
383.059	27.235	1124.263	909.712
384.073	27.221	1123.407	908.870
385.088	27.286	1122.583	908.447
386.102	27.259	1121.528	907.379
387.117	27.243	1120.893	906.706
388.132	27.298	1119.838	906.046
389.146	27.149	1119.689	905.105
390.161	27.402	1118.686	905.470
391.175	27.277	1117.994	904.210
392.190	27.289	1117.477	903.773
393.205	27.405	1116.693	903.631
394.219	27.284	1116.325	902.656
395.234	27.400	1115.383	902.388
396.248	27.431	1114.424	901.684
397.263	27.508	1113.379	901.140
398.278	27.431	1113.201	900.537
399.292	27.548	1112.388	900.377
400.307	27.464	1111.912	899.496
401.321	27.425	1111.374	898.789
402.336	27.400	1110.677	898.023
403.350	27.499	1110.009	897.892
404.365	27.444	1109.427	897.072
405.380	27.580	1108.471	896.886
406.394	27.538	1108.124	896.319
407.409	27.603	1107.235	895.843
408.423	27.612	1106.432	895.160
409.438	27.658	1105.314	894.399
410.453	27.585	1105.000	893.706
411.467	27.616	1104.130	893.075
412.482	27.668	1103.497	892.739
413.496	27.621	1103.191	892.184
414.511	27.550	1102.597	891.276
415.526	27.463	1102.295	890.530
416.540	27.645	1101.701	890.858
417.555	27.683	1100.927	890.341
418.569	27.686	1100.810	890.181
419.584	27.780	1099.993	889.900
420.599	27.766	1099.923	889.699
421.613	79.197	1285.003	1322.151
422.628	74.119	1311.972	1322.272
