DTS Sentinel unit serial number:	SN413079Multiplexer serial number:	ORYXHardware model number:	OX4-SRSoftware version number:	ORYX F/W v4.00 Oryx Data Collector v3.7.2.0data status	okinstallation	princeton_trtdifferential loss correction	single-endedforward channel	channel 2reverse channel	N/Adate	2019/09/11time	23:13:11forward acquisition time	60.00reverse acquisition time	0.00gamma	496.2192k internal	0.2325k external	0.2325temperature offset calibration	1.0077default loss term (dB/km)	0.3790temperature slope calibration	1.0000multiplexer offset coefficient	1.0000multiplexer slope coefficient	1.0000fibre end	0.00T internal ref (°C)	34.44T ext. ref 1 (°C)	1.86T ext. ref 2 (°C)	28.26length (m)	temperature (°C)	Stokes	anti-Stokes-747.200	23.418	-0.097	0.081
-746.185	800.000	0.161	0.451
-745.171	168.254	-0.051	0.073
-744.156	8.918	0.169	-0.129
-743.142	107.587	-0.060	0.072
-742.127	7.175	-0.211	0.159
-741.112	-200.000	0.006	0.047
-740.098	-125.655	0.359	0.055
-739.083	-156.704	0.142	-0.009
-738.069	-200.000	0.038	0.233
-737.054	-57.774	-0.197	-0.087
-736.039	-200.000	0.038	-0.193
-735.025	584.820	0.117	0.291
-734.010	-153.881	-0.449	-0.031
-732.996	-122.220	-0.301	0.050
-731.981	-74.657	0.030	-0.011
-730.966	-187.802	-0.143	-0.002
-729.952	-2.162	-0.194	0.137
-728.937	95.020	-0.042	-0.048
-727.923	644.392	0.169	-0.435
-726.908	570.786	0.098	-0.241
-725.894	-4.745	0.070	-0.049
-724.879	-127.200	-0.213	0.031
-723.864	-200.000	0.011	0.152
-722.850	800.000	-0.095	-0.295
-721.835	-126.301	0.207	0.031
-720.821	-9.098	0.498	0.336
-719.806	338.579	-0.069	0.136
-718.791	800.000	-0.064	-0.238
-717.777	42.871	0.220	-0.202
-716.762	-200.000	-0.026	-0.210
-715.748	127.296	-0.070	0.089
-714.733	800.000	0.063	0.259
-713.718	22.973	-0.158	-0.131
-712.704	-200.000	-0.004	0.131
-711.689	-7.612	0.304	-0.207
-710.675	-97.335	-0.193	0.051
-709.660	-89.908	-0.136	0.040
-708.645	-117.128	0.279	0.051
-707.631	-67.825	0.182	0.072
-706.616	470.874	-0.066	0.149
-705.602	800.000	0.059	0.215
-704.587	349.661	-0.226	0.450
-703.572	-152.891	-0.469	0.033
-702.558	146.210	0.211	-0.285
-701.543	800.000	0.076	0.251
-700.529	800.000	-0.101	0.408
-699.514	-55.436	0.196	0.089
-698.499	-149.102	-0.131	0.011
-697.485	-21.231	-0.091	-0.056
-696.470	-110.199	0.672	-0.141
-695.456	-200.000	0.024	0.127
-694.441	-183.094	-0.102	0.002
-693.426	800.000	-0.211	0.608
-692.412	-40.198	0.083	0.044
-691.397	359.531	0.112	-0.225
-690.383	-200.000	-0.020	-0.128
-689.368	-93.934	0.150	-0.042
-688.354	-81.811	0.170	-0.056
-687.339	-131.915	0.375	-0.049
-686.324	72.758	-0.031	0.032
-685.310	-103.425	0.276	-0.065
-684.295	-200.000	-0.269	-0.001
-683.281	136.571	0.074	-0.098
-682.266	-200.000	0.018	0.289
-681.251	-102.957	-0.313	0.075
-680.237	3.303	0.216	-0.158
-679.222	-35.357	-0.084	0.046
-678.208	553.963	-0.046	0.111
-677.193	87.215	-0.070	0.078
-676.178	363.277	-0.093	0.188
-675.164	-200.000	0.041	-0.258
-674.149	-200.000	0.032	0.165
-673.135	4.658	-0.255	-0.188
-672.120	-48.468	0.089	0.043
-671.105	160.706	-0.146	-0.205
-670.091	-18.226	-0.246	-0.155
-669.076	-28.929	0.384	-0.222
-668.062	2.775	0.198	0.145
-667.047	28.324	-0.169	0.143
-666.032	800.000	0.110	0.412
-665.018	230.526	-0.083	-0.137
-664.003	194.257	-0.061	-0.094
-662.989	-142.614	0.329	-0.032
-661.974	-68.562	-0.090	0.035
-660.959	234.362	-0.201	0.334
-659.945	-200.000	0.079	0.366
-658.930	238.865	-0.129	-0.215
-657.916	-159.439	0.155	-0.009
-656.901	11.755	-0.197	-0.152
-655.886	17.982	0.270	0.217
-654.872	225.718	0.075	0.123
-653.857	-58.680	-0.208	-0.091
-652.843	-129.355	-0.381	-0.053
-651.828	-30.677	-0.166	0.095
-650.814	-75.773	0.181	0.064
-649.799	10.396	-0.045	0.035
-648.784	17.040	-0.216	0.172
-647.770	-44.542	-0.335	0.169
-646.755	-11.313	0.119	0.079
-645.741	-106.172	-0.159	-0.036
-644.726	-41.888	0.037	0.019
-643.711	-68.794	0.179	-0.069
-642.697	164.621	-0.036	0.051
-641.682	11.911	0.073	-0.057
-640.668	-87.692	-0.278	0.084
-639.653	99.009	0.080	-0.093
-638.638	171.746	0.096	0.139
-637.624	-117.923	0.080	-0.014
-636.609	12.826	-0.209	-0.162
-635.595	-99.144	-0.081	-0.021
-634.580	-118.304	0.341	-0.061
-633.565	9.392	-0.068	-0.052
-632.551	285.335	-0.106	-0.193
-631.536	155.622	-0.212	0.293
-630.522	-200.000	-0.016	0.184
-629.507	-147.670	-0.101	0.008
-628.492	-126.272	0.258	0.039
-627.478	-81.648	-0.077	-0.025
-626.463	-160.348	-0.065	-0.004
-625.449	-40.245	-0.300	0.157
-624.434	-200.000	0.027	-0.381
-623.419	-53.517	-0.224	-0.103
-622.405	428.809	0.171	-0.372
-621.390	800.000	-0.038	-0.118
-620.376	-88.860	0.043	0.013
-619.361	33.776	-0.285	-0.249
-618.346	-200.000	-0.007	-0.122
-617.332	-88.362	-0.188	0.057
-616.317	-52.637	0.202	0.094
-615.303	-74.378	0.410	-0.149
-614.288	208.247	0.118	-0.185
-613.273	556.680	-0.041	0.100
-612.259	-44.877	0.364	0.182
-611.244	-81.716	0.310	0.102
-610.230	116.064	-0.048	0.059
-609.215	422.513	-0.159	-0.343
-608.201	64.225	0.109	-0.110
-607.186	1.341	-0.248	0.179
-606.171	-168.127	0.193	-0.008
-605.157	117.746	0.171	0.211
-604.142	-200.000	-0.019	0.297
-603.128	2.912	0.198	-0.144
-602.113	800.000	-0.045	0.175
-601.098	-96.422	-0.207	0.055
-600.084	-128.925	-0.179	0.025
-599.069	31.617	0.222	-0.192
-598.055	-166.225	0.176	0.007
-597.040	-117.758	0.166	0.030
-596.025	42.249	-0.217	-0.197
-595.011	-73.970	-0.049	-0.018
-593.996	-140.792	0.140	-0.014
-592.982	-50.534	-0.425	-0.201
-591.967	225.644	0.178	0.290
-590.952	-200.000	-0.009	0.183
-589.938	-120.380	0.213	-0.036
-588.923	195.801	-0.083	-0.126
-587.909	273.514	0.033	0.059
-586.894	82.761	0.107	0.117
-585.879	-116.019	-0.246	-0.046
-584.865	-200.000	0.026	0.178
-583.850	-200.000	-0.005	0.296
-582.836	-132.920	-0.169	-0.022
-581.821	-87.808	0.164	-0.050
-580.806	-100.628	-0.057	-0.014
-579.792	162.717	-0.026	-0.036
-578.777	-162.835	0.163	-0.008
-577.763	-61.198	-0.317	-0.134
-576.748	-179.983	0.095	-0.002
-575.733	-8.423	-0.097	-0.065
-574.719	693.726	-0.045	0.118
-573.704	-200.000	-0.078	-0.408
-572.690	-200.000	0.007	-0.141
-571.675	-102.295	0.234	-0.056
-570.661	-111.630	-0.353	0.072
-569.646	386.219	0.110	0.227
-568.631	27.400	-0.342	0.288
-567.617	133.848	-0.193	-0.250
-566.602	-200.000	0.037	0.195
-565.588	156.188	0.225	0.311
-564.573	-115.781	0.112	0.021
-563.558	-7.617	0.311	-0.210
-562.544	55.351	-0.123	0.119
-561.529	180.373	0.093	-0.137
-560.515	800.000	0.042	0.135
-559.500	-50.675	-0.463	0.219
-558.485	16.433	0.347	0.275
-557.471	-158.231	-0.092	0.005
-556.456	295.335	0.105	-0.192
-555.442	-61.247	-0.270	0.114
-554.427	-66.991	-0.193	0.076
-553.412	-200.000	0.035	0.259
-552.398	-142.871	0.367	-0.036
-551.383	-110.692	-0.184	0.038
-550.369	274.385	-0.100	-0.178
-549.354	-130.434	-0.378	0.051
-548.339	-17.454	0.138	0.087
-547.325	800.000	0.037	0.133
-546.310	-98.917	-0.461	-0.117
-545.296	-149.405	0.043	0.003
-544.281	-200.000	-0.028	-0.254
-543.266	38.356	0.027	0.024
-542.252	800.000	-0.031	0.097
-541.237	-99.799	-0.120	-0.030
-540.223	-200.000	0.031	0.298
-539.208	-67.269	-0.093	-0.037
-538.193	101.180	-0.270	-0.314
-537.179	-187.087	0.101	0.001
-536.164	-35.923	0.185	-0.100
-535.150	800.000	0.040	0.131
-534.135	45.406	0.074	0.068
-533.121	387.912	0.092	-0.191
-532.106	-200.000	-0.038	-0.246
-531.091	-125.738	0.230	0.035
-530.077	-20.955	0.146	0.089
-529.062	-149.197	0.114	0.009
-528.048	0.403	0.283	0.202
-527.033	96.693	-0.138	0.158
-526.018	153.631	0.119	0.164
-525.004	-113.199	0.126	-0.025
-523.989	-88.380	-0.268	0.080
-522.975	186.402	-0.108	-0.161
-521.960	747.204	0.142	0.383
-520.945	-133.877	-0.086	0.011
-519.931	153.083	0.108	-0.148
-518.916	-10.222	-0.156	0.104
-517.902	258.016	-0.203	0.349
-516.887	-200.000	-0.000	-0.239
-515.872	33.975	-0.119	0.104
-514.858	139.791	-0.087	0.114
-513.843	63.621	0.205	-0.206
-512.829	-94.706	-0.300	-0.082
-511.814	-50.472	-0.161	0.076
-510.799	-45.537	0.193	0.095
-509.785	22.273	-0.099	-0.081
-508.770	75.850	-0.091	-0.096
-507.756	188.437	0.169	-0.253
-506.741	-131.153	-0.059	0.008
-505.726	-7.300	0.334	-0.226
-504.712	215.567	-0.148	-0.234
-503.697	-32.148	-0.406	-0.227
-502.683	338.046	0.082	-0.159
-501.668	800.000	0.087	-0.307
-500.653	-200.000	0.028	-0.171
-499.639	800.000	0.038	0.114
-498.624	220.423	-0.118	-0.189
-497.610	94.550	0.019	0.021
-496.595	206.156	-0.102	0.159
-495.581	266.200	0.042	-0.074
-494.566	-200.000	0.031	0.182
-493.551	351.437	-0.032	-0.064
-492.537	-123.318	0.352	-0.056
-491.522	-135.597	0.300	-0.036
-490.508	-7.827	-0.140	-0.094
-489.493	684.072	0.097	0.254
-488.478	-16.388	0.138	-0.088
-487.464	188.795	-0.071	0.106
-486.449	38.692	-0.152	0.136
-485.435	-158.640	0.125	0.007
-484.420	-40.633	-0.109	-0.057
-483.405	327.349	-0.100	0.192
-482.391	800.000	-0.088	0.252
-481.376	454.263	-0.099	-0.218
-480.362	800.000	-0.053	-0.212
-479.347	-131.333	-0.200	0.026
-478.332	238.986	-0.188	0.312
-477.318	0.657	-0.021	0.015
-476.303	-145.352	0.242	-0.022
-475.289	276.972	-0.041	0.073
-474.274	-57.837	0.301	0.131
-473.259	3.195	-0.232	0.168
-472.245	90.041	-0.199	0.222
-471.230	149.101	0.165	0.223
-470.216	-129.630	0.220	-0.030
-469.201	32.150	0.023	0.020
-468.186	35.928	-0.179	-0.157
-467.172	800.000	-0.041	-0.172
-466.157	-200.000	0.032	-0.184
-465.143	-153.819	-0.309	0.021
-464.128	-200.000	-0.002	-0.096
-463.113	731.635	0.077	-0.207
-462.099	-92.115	0.101	-0.029
-461.084	59.884	-0.127	0.126
-460.070	292.817	-0.110	0.201
-459.055	-200.000	-0.038	-0.181
-458.040	357.760	0.066	0.131
-457.026	-150.314	-0.281	-0.022
-456.011	-12.787	-0.014	-0.009
-454.997	800.000	0.112	0.330
-453.982	-82.305	-0.096	-0.031
-452.968	-33.334	-0.122	-0.067
-451.953	9.840	0.155	0.117
-450.938	103.731	-0.363	0.425
-449.924	31.794	-0.120	0.103
-448.909	-84.275	0.187	-0.059
-447.895	-200.000	0.010	-0.285
-446.880	-200.000	-0.015	-0.170
-445.865	800.000	-0.067	-0.195
-444.851	-200.000	0.008	-0.122
-443.836	-41.444	0.276	0.142
-442.822	-200.000	0.231	-0.000
-441.807	-1.806	-0.066	0.047
-440.792	-71.598	-0.273	-0.102
-439.778	-21.843	-0.287	0.174
-438.763	-132.529	0.272	-0.035
-437.749	-53.982	-0.122	-0.055
-436.734	-65.894	0.131	0.052
-435.719	135.213	-0.023	0.030
-434.705	800.000	-0.038	0.139
-433.690	74.519	0.026	-0.028
-432.676	-88.160	-0.184	0.055
-431.661	800.000	0.119	0.329
-430.646	152.966	0.211	-0.287
-429.632	-100.595	0.038	0.009
-428.617	800.000	-0.021	0.070
-427.603	-97.994	0.137	-0.035
-426.588	234.442	-0.175	-0.288
-425.573	-3.550	-0.220	-0.152
-424.559	-107.880	-0.211	-0.046
-423.544	486.358	0.058	-0.131
-422.530	-112.175	0.094	-0.019
-421.515	-73.913	0.014	-0.005
-420.500	87.571	0.256	0.282
-419.486	-160.655	-0.169	0.009
-418.471	89.669	-0.233	-0.260
-417.457	-13.329	0.503	0.325
-416.442	167.343	-0.199	0.281
-415.428	800.000	-0.081	-0.314
-414.413	-200.000	0.012	0.057
-413.398	-163.615	0.131	-0.006
-412.384	-200.000	0.035	0.307
-411.369	-133.272	0.148	-0.019
-410.355	-144.401	0.274	-0.025
-409.340	213.129	-0.096	0.150
-408.325	357.198	0.050	-0.100
-407.311	-140.805	-0.096	0.010
-406.296	-183.623	0.185	0.003
-405.282	-10.247	-0.234	-0.155
-404.267	-75.236	0.185	-0.066
-403.252	9.799	0.133	0.100
-402.238	-100.393	0.336	0.083
-401.223	-200.000	0.069	0.000
-400.209	-200.000	0.056	0.251
-399.194	95.910	-0.094	0.106
-398.179	39.383	-0.166	0.148
-397.165	27.654	0.146	0.123
-396.150	800.000	-0.103	-0.309
-395.136	-25.445	0.032	0.019
-394.121	61.483	-0.272	0.269
-393.106	-200.000	-0.073	0.622
-392.092	-92.546	0.080	0.022
-391.077	800.000	0.054	0.194
-390.063	-18.400	-0.213	-0.132
-389.048	167.863	-0.055	-0.077
-388.033	140.022	0.086	0.113
-387.019	259.118	-0.120	0.206
-386.004	-9.086	-0.015	-0.010
-384.990	-74.544	0.162	-0.058
-383.975	222.122	0.141	0.226
-382.960	-200.000	-0.012	0.185
-381.946	378.521	-0.205	-0.418
-380.931	-200.000	0.088	-0.495
-379.917	33.429	0.230	-0.199
-378.902	800.000	-0.064	-0.182
-377.888	-57.153	0.226	0.099
-376.873	16.162	0.240	-0.188
-375.858	800.000	0.068	0.291
-374.844	-200.000	0.075	0.451
-373.829	110.983	0.071	0.085
-372.815	-200.000	0.008	-0.203
-371.800	-68.274	-0.055	-0.021
-370.785	-6.442	-0.238	-0.161
-369.771	77.286	0.025	-0.026
-368.756	295.454	-0.188	-0.343
-367.742	-91.321	-0.076	0.022
-366.727	4.195	0.189	-0.138
-365.712	640.042	0.089	-0.226
-364.698	86.871	-0.316	0.347
-363.683	-55.121	0.263	-0.118
-362.669	231.250	-0.170	0.276
-361.654	-63.783	0.017	-0.007
-360.639	740.157	0.043	0.115
-359.625	248.491	-0.211	-0.356
-358.610	273.403	-0.119	-0.209
-357.596	-27.063	0.422	-0.245
-356.581	-27.940	-0.111	0.064
-355.566	-200.000	-0.016	0.136
-354.552	-31.160	-0.287	0.161
-353.537	97.482	0.094	0.108
-352.523	169.921	0.156	0.222
-351.508	214.933	0.067	0.105
-350.493	27.885	-0.141	-0.118
-349.479	-147.746	-0.397	-0.033
-348.464	800.000	-0.080	0.299
-347.450	360.682	0.156	-0.311
-346.435	-160.928	-0.390	0.020
-345.420	-99.009	-0.296	-0.075
-344.406	22.804	0.322	-0.262
-343.391	-200.000	0.001	0.213
-342.377	-92.292	-0.443	0.124
-341.362	-4.384	0.146	-0.100
-340.348	70.667	-0.266	-0.274
-339.333	92.101	-0.082	0.092
-338.318	-75.053	0.107	0.038
-337.304	-200.000	0.010	0.095
-336.289	-123.241	0.117	-0.019
-335.275	800.000	-0.057	-0.165
-334.260	195.383	-0.143	0.216
-333.245	-36.035	-0.157	0.084
-332.231	37.656	0.092	-0.081
-331.216	177.066	-0.187	-0.270
-330.202	-200.000	0.041	0.207
-329.187	-145.755	0.251	-0.022
-328.172	501.387	0.056	-0.129
-327.158	800.000	0.028	0.095
-326.143	-200.000	-0.013	0.113
-325.129	-200.000	0.031	0.223
-324.114	-152.155	-0.085	0.006
-323.099	-165.616	0.152	0.007
-322.085	119.080	-0.124	0.153
-321.070	126.914	-0.145	0.183
-320.056	-52.869	0.268	-0.122
-319.041	-119.028	-0.110	-0.019
-318.026	-67.722	0.104	-0.040
-317.012	192.739	0.134	-0.201
-315.997	-47.939	0.160	-0.077
-314.983	-57.876	-0.215	-0.093
-313.968	-4.787	-0.200	0.137
-312.953	375.035	-0.202	0.409
-311.939	537.652	0.073	-0.172
-310.924	-200.000	-0.054	0.257
-309.910	507.746	-0.026	-0.060
-308.895	144.308	-0.068	-0.090
-307.880	9.077	0.128	0.096
-306.866	-53.814	0.132	0.060
-305.851	-200.000	0.004	0.096
-304.837	-0.812	0.087	0.061
-303.822	655.890	-0.045	-0.115
-302.807	-154.034	0.167	-0.011
-301.793	800.000	0.013	-0.042
-300.778	800.000	0.042	-0.117
-299.764	800.000	-0.051	-0.175
-298.749	-130.856	0.251	-0.033
-297.735	284.206	0.026	-0.047
-296.720	640.554	-0.092	0.233
-295.705	-200.000	0.001	-0.035
-294.691	-97.075	0.200	0.052
-293.676	66.989	0.196	0.198
-292.662	-200.000	-0.007	0.194
-291.647	-94.110	-0.114	-0.031
-290.632	-78.314	0.172	-0.059
-289.618	800.000	0.035	-0.102
-288.603	-68.289	-0.249	-0.096
-287.589	-200.000	0.006	-0.141
-286.574	-170.806	0.103	-0.004
-285.559	-200.000	0.011	-0.285
-284.545	103.887	-0.150	-0.174
-283.530	-166.893	0.296	0.012
-282.516	-122.783	0.102	-0.016
-281.501	214.430	0.073	-0.114
-280.486	-34.238	0.064	0.035
-279.472	-200.000	-0.012	-0.062
-278.457	735.815	0.079	-0.210
-277.443	43.460	0.166	0.151
-276.428	-200.000	-0.010	-0.139
-275.413	800.000	-0.007	-0.023
-274.399	-126.874	0.099	0.014
-273.384	159.992	0.313	-0.431
-272.370	-200.000	0.034	-0.318
-271.355	188.711	0.112	-0.167
-270.340	800.000	-0.020	0.065
-269.326	575.052	-0.082	0.198
-268.311	-27.621	0.134	-0.077
-267.297	-48.249	0.105	0.050
-266.282	-200.000	-0.007	0.044
-265.267	-140.069	-0.052	-0.005
-264.253	523.647	0.123	0.287
-263.238	398.631	0.153	0.317
-262.224	-200.000	-0.008	-0.124
-261.209	-138.173	-0.284	0.031
-260.195	177.223	0.246	-0.355
-259.180	-49.810	-0.206	-0.097
-258.165	33.865	-0.246	-0.212
-257.151	-94.960	-0.389	-0.104
-256.136	333.075	0.086	0.164
-255.122	800.000	0.062	0.195
-254.107	-86.370	-0.126	-0.038
-253.092	263.128	-0.078	0.135
-252.078	800.000	0.100	-0.289
-251.063	-28.008	-0.112	0.064
-250.049	29.492	-0.108	0.091
-249.034	-200.000	0.104	-0.508
-248.019	-200.000	0.035	-0.168
-247.005	40.667	0.063	0.056
-245.990	-18.848	0.086	0.053
-244.976	-87.898	0.462	0.138
-243.961	-200.000	0.084	-0.389
-242.946	-135.630	0.031	-0.004
-241.932	-125.671	0.165	0.025
-240.917	800.000	-0.047	-0.141
-239.903	800.000	0.077	0.278
-238.888	252.089	0.102	0.172
-237.873	6.899	-0.494	-0.364
-236.859	8.541	-0.424	0.315
-235.844	-132.761	0.386	0.049
-234.830	-84.418	0.320	0.100
-233.815	-121.944	-0.065	0.011
-232.800	-200.000	0.025	0.166
-231.786	-82.881	-0.115	-0.037
-230.771	-200.000	-0.024	-0.229
-229.757	-200.000	0.026	-0.157
-228.742	454.612	0.046	-0.101
-227.727	-28.470	0.206	0.118
-226.713	406.273	0.037	-0.076
-225.698	-49.161	-0.235	-0.111
-224.684	-45.350	0.359	-0.176
-223.669	-200.000	0.029	0.273
-222.655	-183.674	-0.143	0.002
-221.640	223.308	-0.069	-0.111
-220.625	357.790	-0.144	0.285
-219.611	259.312	0.282	0.481
-218.596	-38.278	-0.240	0.126
-217.582	8.804	-0.102	-0.076
-216.567	211.473	-0.290	-0.452
-215.552	-33.091	-0.151	0.083
-214.538	-64.385	0.163	-0.066
-213.523	177.079	0.054	0.078
-212.509	506.134	-0.036	-0.083
-211.494	-48.364	-0.434	0.207
-210.479	170.270	0.189	-0.267
-209.465	-129.552	0.587	-0.080
-208.450	-115.868	-0.124	0.023
-207.436	-106.425	-0.287	0.063
-206.421	-200.000	-0.046	0.245
-205.406	800.000	0.066	0.231
-204.392	-200.000	-0.013	-0.176
-203.377	33.012	0.160	0.137
-202.363	168.097	0.045	0.063
-201.348	-200.000	0.004	0.154
-200.333	39.556	-0.024	-0.021
-199.319	7.421	-0.155	-0.115
-198.304	-98.072	-0.171	-0.043
-197.290	109.068	0.180	0.212
-196.275	800.000	0.042	0.142
-195.260	277.221	0.154	-0.271
-194.246	29.341	0.229	-0.192
-193.231	-82.923	0.125	-0.040
-192.217	50.670	0.149	0.140
-191.202	-200.000	0.029	0.445
-190.187	-141.944	-0.344	0.034
-189.173	-200.000	0.026	-0.254
-188.158	800.000	-0.042	0.138
-187.144	800.000	-0.050	0.178
-186.129	-126.340	0.425	-0.063
-185.114	116.094	-0.077	-0.094
-184.100	-33.118	-0.260	-0.142
-183.085	479.275	-0.105	0.234
-182.071	-113.751	-0.230	-0.044
-181.056	-200.000	0.047	-0.238
-180.042	800.000	-0.051	0.182
-179.027	-200.000	-0.033	0.200
-178.012	618.613	-0.130	0.321
-176.998	-128.185	0.191	0.027
-175.983	663.501	0.070	0.178
-174.969	-200.000	-0.021	0.344
-173.954	-106.639	0.270	-0.059
-172.939	115.705	0.086	0.104
-171.925	-89.677	0.191	-0.055
-170.910	108.970	0.188	-0.222
-169.896	800.000	0.021	0.063
-168.881	800.000	-0.099	-0.373
-167.866	182.888	0.188	-0.273
-166.852	-128.369	0.306	-0.043
-165.837	101.231	-0.087	-0.100
-164.823	-200.000	0.007	-0.076
-163.808	26.575	0.139	-0.115
-162.793	800.000	-0.114	-0.316
-161.779	51.090	0.091	0.085
-160.764	-200.000	0.032	-0.400
-159.750	42.924	0.131	-0.118
-158.735	14.285	-0.055	-0.042
-157.720	-200.000	-0.026	-0.165
-156.706	-200.000	-0.005	-0.239
-155.691	114.519	0.132	-0.159
-154.677	-120.759	-0.295	0.049
-153.662	-106.205	-0.164	0.036
-152.647	800.000	0.044	0.143
-151.633	-74.615	-0.113	-0.040
-150.618	165.790	0.104	0.146
-149.604	23.277	-0.102	0.083
-148.589	-101.123	0.220	-0.053
-147.574	800.000	0.071	0.246
-146.560	11.755	-0.179	0.135
-145.545	-200.000	-0.031	0.163
-144.531	800.000	0.067	0.246
-143.516	800.000	-0.046	-0.136
-142.502	-90.996	-0.224	0.064
-141.487	561.060	0.094	0.225
-140.472	-200.000	-0.013	0.105
-139.458	20.446	0.157	0.125
-138.443	800.000	0.060	-0.249
-137.429	9.740	0.273	-0.204
-136.414	-179.109	-0.143	0.003
-135.399	-66.962	0.479	0.186
-134.385	-32.680	0.246	-0.135
-133.370	223.125	0.213	-0.339
-132.356	-200.000	0.053	0.328
-131.341	-200.000	-0.008	-0.161
-130.326	260.509	-0.054	0.092
-129.312	-84.434	0.254	0.079
-128.297	-172.970	0.218	-0.007
-127.283	-200.000	-0.003	-0.201
-126.268	64.893	-0.118	0.117
-125.253	255.859	0.268	0.452
-124.239	-139.610	0.258	-0.027
-123.224	84.941	-0.128	0.138
-122.210	800.000	0.031	-0.099
-121.195	-106.841	0.308	0.067
-120.180	25.830	0.202	0.166
-119.166	-200.000	0.008	-0.049
-118.151	800.000	-0.086	0.325
-117.137	656.445	0.088	0.222
-116.122	-45.723	0.110	0.054
-115.107	-200.000	0.472	0.002
-114.093	4.789	0.008	0.006
-113.078	106.911	-0.269	-0.315
-112.064	-81.558	0.292	0.094
-111.049	-132.468	-0.208	-0.026
-110.034	501.206	0.021	0.048
-109.020	-132.865	0.053	-0.007
-108.005	-44.333	-0.099	-0.049
-106.991	282.837	0.065	-0.115
-105.976	-111.435	0.248	0.050
-104.962	-77.874	-0.234	-0.080
-103.947	64.717	0.306	0.304
-102.932	290.425	-0.185	0.330
-101.918	800.000	-0.097	0.378
-100.903	12.484	-0.095	0.072
-99.889	-19.588	0.312	0.190
-98.874	78.920	0.144	-0.152
-97.859	217.541	0.164	-0.257
-96.845	-82.636	-0.050	-0.016
-95.830	626.933	-0.119	0.296
-94.816	545.073	0.076	-0.180
-93.801	-151.418	-0.115	-0.008
-92.786	660.319	-0.066	0.167
-91.772	800.000	-0.067	-0.189
-90.757	-37.002	0.295	0.155
-89.743	800.000	-0.036	-0.120
-88.728	344.348	-0.060	0.115
-87.713	-200.000	-0.016	0.147
-86.699	558.381	-0.114	0.272
-85.684	-200.000	0.034	0.178
-84.670	-200.000	0.034	0.175
-83.655	800.000	0.021	0.077
-82.640	65.098	0.170	-0.169
-81.626	721.998	-0.072	-0.188
-80.611	-132.601	0.228	0.029
-79.597	182.198	0.067	-0.097
-78.582	800.000	0.003	-0.011
-77.567	30.247	0.175	-0.147
-76.553	1.833	0.210	-0.149
-75.538	99.938	-0.066	-0.075
-74.524	151.563	-0.040	-0.053
-73.509	157.437	-0.117	0.159
-72.494	55.110	0.333	0.316
-71.480	180.272	0.211	0.304
-70.465	-22.413	0.194	-0.116
-69.451	559.868	-0.132	-0.313
-68.436	4.346	0.056	0.040
-67.422	-17.096	-0.159	-0.099
-66.407	-200.000	-0.055	-0.353
-65.392	196.723	-0.111	-0.166
-64.378	-200.000	0.020	-0.165
-63.363	99.830	0.113	0.128
-62.349	15.242	0.219	-0.169
-61.334	56.853	-0.941	-0.901
-60.319	-25.887	0.405	0.235
-59.305	-200.000	-0.059	-0.686
-58.290	419.803	0.611	1.284
-57.276	800.000	0.458	1.718
-56.261	-200.000	97.590	590.039
-55.246	562.550	1390.820	3305.498
-54.232	153.331	2599.309	3494.386
-53.217	109.266	2284.058	2685.195
-52.203	43.976	1899.919	1709.879
-51.188	37.803	1689.035	1473.540
-50.173	34.915	1644.745	1413.540
-49.159	53.228	1694.079	1593.588
-48.144	56.440	1712.211	1634.627
-47.130	37.412	1667.252	1451.387
-46.115	34.497	1652.312	1416.713
-45.100	34.350	1647.267	1411.245
-44.086	34.237	1645.076	1408.476
-43.071	34.309	1642.235	1406.519
-42.057	34.278	1639.985	1404.305
-41.042	34.245	1637.878	1402.203
-40.027	34.323	1635.695	1400.853
-39.013	34.348	1633.775	1399.333
-37.998	34.250	1632.434	1397.409
-36.984	34.233	1631.112	1396.098
-35.969	34.382	1629.323	1395.604
-34.954	34.503	1627.765	1395.100
-33.940	34.427	1625.828	1392.826
-32.925	34.419	1623.853	1391.022
-31.911	34.315	1622.692	1389.217
-30.896	34.437	1620.622	1388.276
-29.881	34.343	1619.242	1386.353
-28.867	34.466	1617.056	1385.325
-27.852	34.407	1615.882	1383.832
-26.838	34.475	1614.298	1382.916
-25.823	34.363	1613.590	1381.445
-24.809	34.424	1612.200	1380.639
-23.794	34.452	1610.541	1379.368
-22.779	34.561	1608.592	1378.431
-21.765	34.462	1607.530	1376.749
-20.750	34.436	1605.719	1374.954
-19.736	34.461	1604.085	1373.684
-18.721	34.496	1602.874	1372.842
-17.706	34.550	1601.101	1371.658
-16.692	34.545	1599.112	1369.865
-15.677	34.483	1598.205	1368.585
-14.663	34.463	1596.898	1367.271
-13.648	34.497	1595.248	1366.047
-12.633	34.467	1594.178	1364.860
-11.619	34.469	1592.648	1363.512
-10.604	34.493	1590.962	1362.185
-9.590	34.521	1589.486	1361.069
-8.575	34.538	1588.372	1360.180
-7.560	34.481	1587.477	1358.957
-6.546	34.489	1586.136	1357.807
-5.531	34.466	1585.173	1356.765
-4.517	34.456	1583.963	1355.607
-3.502	34.463	1582.608	1354.443
-2.487	34.528	1581.353	1353.775
-1.473	34.055	1570.202	1340.846
-0.458	31.300	1549.910	1304.257
0.556	27.898	1550.615	1273.125
1.571	25.548	1574.361	1275.859
2.586	24.903	1587.753	1281.976
3.600	21.982	1534.913	1218.952
4.615	12.408	1424.139	1068.894
5.629	3.642	1356.762	963.713
6.644	2.022	1348.121	947.438
7.659	1.875	1346.753	945.480
8.673	1.782	1345.734	944.103
9.688	1.752	1343.918	942.560
10.702	1.503	1341.295	939.103
11.717	5.031	1347.767	965.417
12.731	15.358	1367.680	1044.185
13.746	23.828	1381.801	1107.909
14.761	25.878	1384.276	1122.577
15.775	26.216	1383.708	1124.122
16.790	26.196	1383.643	1123.848
17.804	26.241	1383.142	1123.618
18.819	26.465	1382.704	1124.557
19.834	26.603	1382.020	1124.760
20.848	26.659	1381.072	1124.233
21.863	26.624	1380.522	1123.471
22.877	26.591	1379.576	1122.393
23.892	26.597	1378.266	1121.267
24.907	26.643	1378.041	1121.270
25.921	26.654	1376.631	1120.094
26.936	26.539	1375.773	1118.582
27.950	26.607	1375.034	1118.306
28.965	26.515	1373.920	1116.732
29.980	26.683	1372.496	1116.511
30.994	26.697	1370.836	1115.145
32.009	26.590	1370.733	1114.308
33.023	26.626	1368.932	1112.965
34.038	26.630	1367.584	1111.797
35.053	26.615	1366.783	1110.954
36.067	26.627	1365.714	1110.060
37.082	26.703	1364.698	1109.603
38.096	26.636	1363.830	1108.386
39.111	26.513	1363.222	1107.044
40.126	26.645	1362.501	1107.168
41.140	26.620	1362.143	1106.627
42.155	26.605	1361.653	1106.036
43.169	26.555	1361.815	1105.767
44.184	26.564	1361.893	1105.790
45.199	26.575	1361.039	1105.061
46.213	26.664	1360.319	1104.922
47.228	26.637	1359.456	1103.962
48.242	26.497	1359.199	1102.797
49.257	26.579	1357.175	1101.560
50.271	26.729	1355.160	1100.739
51.286	26.584	1354.473	1099.202
52.301	26.586	1353.131	1098.025
53.315	26.671	1351.912	1097.459
54.330	26.697	1351.044	1096.813
55.344	26.589	1350.108	1095.303
56.359	26.569	1349.112	1094.273
57.374	26.682	1348.583	1094.432
58.388	26.665	1347.507	1093.357
59.403	26.566	1347.922	1093.005
60.417	26.547	1347.225	1092.227
61.432	26.679	1346.169	1092.069
62.447	26.613	1345.033	1090.654
63.461	26.551	1344.168	1089.483
64.476	26.488	1343.204	1088.227
65.490	26.596	1341.977	1087.783
66.505	26.626	1340.379	1086.572
67.520	26.649	1339.162	1085.627
68.534	26.606	1338.401	1084.653
69.549	26.555	1337.182	1083.270
70.563	26.596	1336.542	1082.899
71.578	26.658	1335.496	1082.327
72.593	26.655	1334.808	1081.656
73.607	26.602	1334.559	1081.040
74.622	26.610	1333.735	1080.326
75.636	26.692	1332.843	1079.995
76.651	26.605	1331.934	1078.648
77.666	26.618	1331.593	1078.354
78.680	26.658	1331.098	1078.094
79.695	26.551	1329.906	1076.399
80.709	26.525	1329.597	1075.898
81.724	26.581	1328.559	1075.295
82.739	26.674	1327.379	1074.797
83.753	26.597	1326.529	1073.557
84.768	26.611	1325.803	1072.954
85.782	26.571	1324.875	1071.875
86.797	26.708	1323.385	1071.383
87.812	26.675	1322.200	1070.131
88.826	26.532	1321.503	1068.631
89.841	26.674	1319.803	1067.999
90.855	26.730	1318.912	1067.513
91.870	26.670	1318.577	1066.796
92.884	26.627	1318.115	1066.072
93.899	26.731	1316.995	1065.683
94.914	26.742	1316.098	1064.928
95.928	26.690	1315.018	1063.653
96.943	26.650	1314.786	1063.139
97.957	26.665	1314.071	1062.553
98.972	26.741	1312.936	1061.991
99.987	26.791	1311.942	1061.385
101.001	26.580	1311.748	1059.895
102.016	26.584	1310.168	1058.550
103.030	26.678	1309.461	1058.434
104.045	26.603	1309.071	1057.585
105.060	26.792	1307.297	1057.163
106.074	26.813	1306.488	1056.540
107.089	26.638	1305.980	1055.015
108.103	26.709	1304.754	1054.343
109.118	26.750	1303.533	1053.503
110.133	26.787	1302.425	1052.728
111.147	26.779	1301.025	1051.457
112.162	26.895	1300.172	1051.348
113.176	26.805	1299.456	1050.155
114.191	26.810	1298.406	1049.238
115.206	26.817	1297.348	1048.332
116.220	26.839	1296.306	1047.525
117.235	26.765	1295.737	1046.548
118.249	26.797	1294.928	1045.987
119.264	26.694	1294.443	1044.909
120.279	26.821	1293.019	1044.395
121.293	26.765	1292.313	1043.411
122.308	26.748	1291.272	1042.378
123.322	26.757	1290.781	1041.941
124.337	26.848	1289.628	1041.442
125.352	26.811	1288.553	1040.273
126.366	26.761	1287.902	1039.366
127.381	26.838	1286.998	1038.988
128.395	26.834	1286.107	1038.154
129.410	26.934	1285.088	1037.812
130.424	26.888	1284.844	1037.256
131.439	26.811	1283.875	1035.946
132.454	26.814	1283.136	1035.270
133.468	26.881	1282.417	1034.982
134.483	26.762	1282.397	1034.194
135.497	26.800	1281.194	1033.351
136.512	26.838	1279.996	1032.508
137.527	26.799	1279.004	1031.397
138.541	26.840	1277.471	1030.301
139.556	26.709	1276.848	1028.965
140.570	26.809	1275.926	1028.697
141.585	26.777	1274.715	1027.448
142.600	26.792	1273.629	1026.568
143.614	26.796	1273.233	1026.179
144.629	26.631	1272.336	1024.432
145.643	26.682	1270.831	1023.418
146.658	26.682	1269.658	1022.381
147.673	26.668	1268.901	1021.603
148.687	26.680	1267.989	1020.847
149.702	26.744	1266.608	1020.008
150.716	26.732	1265.333	1018.824
151.731	26.723	1264.690	1018.164
152.746	26.733	1263.870	1017.470
153.760	26.850	1262.679	1017.078
154.775	26.798	1261.600	1015.828
155.789	26.777	1260.932	1015.083
156.804	26.787	1260.385	1014.604
157.819	26.832	1259.311	1013.907
158.833	26.834	1258.551	1013.216
159.848	26.920	1257.941	1013.111
160.862	26.781	1257.477	1011.876
161.877	26.759	1256.129	1010.579
162.892	26.742	1255.480	1009.872
163.906	26.982	1254.197	1010.083
164.921	26.899	1254.025	1009.398
165.935	26.933	1253.258	1008.876
166.950	26.880	1252.762	1008.093
167.964	26.955	1252.203	1007.973
168.979	26.841	1251.446	1006.638
169.994	26.925	1250.617	1006.352
171.008	26.966	1249.893	1005.906
172.023	26.993	1249.146	1005.367
173.037	26.808	1248.606	1003.819
174.052	27.015	1247.876	1004.289
175.067	26.960	1247.292	1003.422
176.081	26.964	1246.403	1002.644
177.096	26.833	1246.025	1001.528
178.110	27.014	1244.217	1000.983
179.125	26.878	1243.760	999.778
180.140	27.030	1242.317	999.367
181.154	26.904	1241.528	997.950
182.169	27.057	1240.353	997.756
183.183	26.998	1239.428	996.603
184.198	26.938	1238.925	995.778
185.213	26.943	1237.563	994.621
186.227	27.024	1237.014	994.537
187.242	27.073	1235.899	993.822
188.256	26.983	1235.101	992.599
189.271	27.092	1234.127	992.326
190.286	27.009	1233.860	991.569
191.300	27.005	1232.973	990.745
192.315	26.994	1232.383	990.126
193.329	27.011	1232.379	990.125
194.344	27.057	1231.754	989.788
195.359	27.064	1231.526	989.553
196.373	26.918	1230.808	988.096
197.388	26.901	1230.548	987.704
198.402	26.932	1230.286	987.576
199.417	26.944	1229.423	986.863
200.432	27.020	1228.874	986.749
201.446	26.920	1228.552	985.858
202.461	27.029	1227.366	985.410
203.475	27.032	1226.940	984.999
204.490	27.028	1225.741	983.925
205.504	27.056	1224.830	983.260
206.519	27.097	1223.816	982.583
207.534	27.084	1223.058	981.815
208.548	27.100	1221.865	980.859
209.563	27.062	1221.440	980.226
210.577	27.057	1220.302	979.194
211.592	27.122	1219.679	978.958
212.607	27.201	1218.729	978.536
213.621	27.099	1218.549	977.757
214.636	27.101	1217.689	976.990
215.650	27.133	1216.482	976.110
216.665	27.188	1215.315	975.378
217.680	27.097	1214.835	974.418
218.694	27.167	1213.866	973.933
219.709	27.192	1212.994	973.278
220.723	27.107	1212.757	972.550
221.738	27.228	1211.733	972.287
222.753	27.066	1211.510	971.159
223.767	27.083	1210.937	970.704
224.782	27.277	1210.102	970.986
225.796	27.167	1209.675	969.967
226.811	27.239	1208.743	969.520
227.826	27.275	1208.217	969.202
228.840	27.234	1207.989	968.714
229.855	27.168	1207.231	967.669
230.869	27.217	1206.557	967.307
231.884	27.237	1205.738	966.672
232.899	27.214	1205.157	965.995
233.913	27.180	1205.163	965.734
234.928	27.418	1203.644	965.696
235.942	27.382	1203.337	965.171
236.957	27.282	1202.526	963.907
237.972	27.175	1201.997	962.828
238.986	27.229	1201.515	962.647
240.001	27.270	1200.941	962.317
241.015	27.398	1200.094	962.233
242.030	27.451	1198.820	961.402
243.045	27.497	1197.971	960.878
244.059	27.432	1197.531	960.097
245.074	27.462	1196.645	959.461
246.088	27.399	1196.299	958.769
247.103	27.432	1195.256	958.022
248.117	27.453	1194.283	957.268
249.132	27.432	1193.523	956.463
250.147	27.474	1193.126	956.279
251.161	27.529	1192.415	955.915
252.176	27.449	1191.868	954.969
253.190	27.530	1191.497	955.011
254.205	27.525	1190.499	954.101
255.220	27.534	1190.129	953.769
256.234	27.620	1189.426	953.572
257.249	27.553	1188.867	952.688
258.263	27.531	1188.030	951.821
259.278	27.549	1187.643	951.518
260.293	27.545	1187.603	951.381
261.307	27.534	1186.800	950.595
262.322	27.519	1186.065	949.847
263.336	27.597	1185.286	949.545
264.351	27.502	1184.692	948.489
265.366	27.458	1184.189	947.775
266.380	27.533	1183.639	947.638
267.395	27.566	1182.974	947.194
268.409	27.477	1182.196	946.028
269.424	27.410	1181.810	945.288
270.439	27.530	1181.429	945.521
271.453	27.590	1180.572	945.059
272.468	27.591	1179.282	943.949
273.482	27.443	1179.173	943.013
274.497	27.588	1178.777	943.363
275.512	27.685	1178.147	943.279
276.526	27.624	1177.547	942.396
277.541	27.677	1176.609	941.838
278.555	27.666	1175.794	941.046
279.570	27.622	1175.230	940.285
280.585	27.636	1174.376	939.592
281.599	27.574	1173.608	938.574
282.614	27.598	1172.434	937.675
283.628	27.695	1171.821	937.598
284.643	27.749	1170.900	937.056
285.657	27.728	1170.185	936.295
286.672	27.864	1169.073	936.019
287.687	27.801	1168.364	935.043
288.701	27.827	1168.016	934.815
289.716	27.815	1167.202	934.022
290.730	27.729	1166.907	933.263
291.745	27.777	1166.192	932.856
292.760	27.778	1165.757	932.430
293.774	27.871	1165.128	932.321
294.789	27.863	1164.261	931.502
295.803	27.797	1164.091	930.946
296.818	27.781	1163.247	930.107
297.833	27.777	1162.786	929.634
298.847	27.822	1161.757	928.961
299.862	27.930	1160.889	928.735
300.876	27.773	1160.681	927.686
301.891	27.814	1160.181	927.413
302.906	28.074	1158.994	927.702
303.920	27.904	1158.858	926.649
304.935	27.754	1158.429	925.464
305.949	27.936	1157.242	925.356
306.964	27.851	1157.180	924.792
307.979	28.008	1156.178	924.704
308.993	28.110	1154.913	924.126
310.008	27.979	1154.703	923.215
311.022	28.104	1153.734	922.987
312.037	27.995	1153.342	922.045
313.052	27.965	1152.393	921.053
314.066	27.989	1151.409	920.306
315.081	27.923	1150.847	919.441
316.095	28.034	1150.239	919.435
317.110	28.023	1149.607	918.793
318.125	28.117	1149.049	918.737
319.139	28.051	1148.312	917.736
320.154	28.037	1148.025	917.353
321.168	28.075	1147.703	917.208
322.183	28.126	1146.781	916.644
323.197	27.966	1146.699	915.697
324.212	28.038	1145.784	915.243
325.227	28.128	1145.062	915.039
326.241	28.154	1144.444	914.591
327.256	28.230	1143.587	914.205
328.270	28.207	1142.859	913.430
329.285	28.244	1142.000	912.846
330.300	28.150	1141.313	911.748
331.314	28.142	1140.488	910.966
332.329	28.210	1139.730	910.617
333.343	28.392	1138.648	910.576
334.358	28.278	1138.183	909.559
335.373	28.202	1138.018	908.972
336.387	28.312	1136.992	908.613
337.402	28.233	1136.506	907.756
338.416	28.285	1135.643	907.241
339.431	28.373	1134.903	907.006
340.446	28.240	1134.864	906.237
341.460	28.350	1134.394	906.329
342.475	28.350	1133.169	905.267
343.489	28.347	1132.101	904.319
344.504	28.395	1131.413	903.925
345.519	28.316	1130.539	902.758
346.533	28.409	1129.971	902.682
347.548	28.340	1129.333	901.753
348.562	28.372	1128.792	901.398
349.577	28.379	1127.856	900.609
350.592	28.328	1127.128	899.695
351.606	28.281	1126.623	898.981
352.621	28.432	1125.879	899.051
353.635	28.470	1125.297	898.693
354.650	28.461	1124.930	898.275
355.665	28.417	1124.009	897.245
356.679	28.399	1123.724	896.848
357.694	28.442	1122.864	896.293
358.708	28.513	1122.004	895.875
359.723	28.369	1121.470	894.666
360.738	28.510	1120.634	894.607
361.752	28.560	1119.955	894.232
362.767	28.561	1119.791	894.027
363.781	28.476	1119.461	893.271
364.796	28.632	1118.466	893.155
365.810	28.728	1117.948	893.130
366.825	28.621	1117.301	892.016
367.840	28.702	1117.038	892.118
368.854	28.630	1116.898	891.578
369.869	28.658	1115.767	890.731
370.883	28.692	1115.059	890.254
371.898	28.696	1114.312	889.597
372.913	28.701	1113.825	889.153
373.927	28.785	1112.917	888.754
374.942	28.755	1112.546	888.239
375.956	28.723	1112.229	887.751
376.971	28.696	1111.778	887.180
377.986	28.681	1111.275	886.626
379.000	28.830	1110.436	886.600
380.015	28.762	1110.118	885.941
381.029	28.883	1109.203	885.713
382.044	28.656	1109.045	884.418
383.059	28.793	1108.314	884.412
384.073	28.888	1107.544	884.179
385.088	28.851	1106.665	883.220
386.102	28.891	1105.625	882.505
387.117	28.836	1104.798	881.503
388.132	28.734	1104.549	880.737
389.146	28.766	1103.895	880.289
390.161	28.990	1103.006	880.577
391.175	28.961	1102.387	879.864
392.190	28.910	1101.865	879.129
393.205	28.840	1101.000	878.025
394.219	28.927	1100.099	877.641
395.234	28.925	1099.741	877.271
396.248	28.907	1098.910	876.446
397.263	29.034	1097.737	876.036
398.278	28.985	1097.357	875.423
399.292	29.070	1096.817	875.318
400.307	28.998	1095.924	874.188
401.321	29.003	1095.248	873.594
402.336	29.079	1094.777	873.502
403.350	29.027	1094.300	872.797
404.365	29.012	1093.714	872.179
405.380	29.032	1092.795	871.466
406.394	29.097	1092.278	871.283
407.409	29.065	1091.599	870.515
408.423	29.227	1090.673	870.465
409.438	29.146	1090.144	869.581
410.453	29.124	1089.544	868.922
411.467	29.239	1088.711	868.724
412.482	29.223	1087.720	867.779
413.496	29.140	1087.410	867.064
414.511	29.223	1086.531	866.677
415.526	29.203	1086.448	866.442
416.540	29.278	1085.871	866.258
417.555	29.150	1085.617	865.376
418.569	29.277	1084.942	865.360
419.584	29.292	1084.268	864.813
420.599	29.215	1083.920	864.098
421.613	102.472	1317.487	1446.360
422.628	95.405	1351.486	1446.447
