DTS Sentinel unit serial number:	SN413079Multiplexer serial number:	ORYXHardware model number:	OX4-SRSoftware version number:	ORYX F/W v4.00 Oryx Data Collector v3.7.2.0data status	okinstallation	princeton_trtdifferential loss correction	single-endedforward channel	channel 2reverse channel	N/Adate	2019/09/12time	00:01:10forward acquisition time	60.00reverse acquisition time	0.00gamma	496.2192k internal	0.2325k external	0.2325temperature offset calibration	1.0084default loss term (dB/km)	0.3790temperature slope calibration	1.0000multiplexer offset coefficient	1.0000multiplexer slope coefficient	1.0000fibre end	0.00T internal ref (°C)	33.75T ext. ref 1 (°C)	2.00T ext. ref 2 (°C)	28.29length (m)	temperature (°C)	Stokes	anti-Stokes-747.200	75.761	0.198	0.211
-746.185	-200.000	-0.016	0.212
-745.171	79.524	-0.212	0.229
-744.156	800.000	-0.042	0.176
-743.142	-44.927	-0.362	0.182
-742.127	67.165	-0.103	0.106
-741.112	-147.374	0.227	0.019
-740.098	800.000	-0.014	-0.062
-739.083	800.000	-0.085	0.298
-738.069	305.660	0.151	0.283
-737.054	-68.399	-0.323	-0.127
-736.039	671.576	-0.139	0.364
-735.025	-200.000	-0.037	0.225
-734.010	-200.000	-0.003	0.184
-732.996	-200.000	-0.087	0.395
-731.981	-117.791	-0.101	-0.018
-730.966	-75.947	0.012	-0.004
-729.952	-200.000	0.008	0.204
-728.937	800.000	0.061	0.195
-727.923	-95.623	-0.338	0.091
-726.908	256.483	0.126	0.218
-725.894	-57.203	-0.019	-0.008
-724.879	-93.203	0.181	-0.051
-723.864	69.213	0.295	0.306
-722.850	-137.279	-0.239	-0.027
-721.835	516.756	-0.075	0.177
-720.821	-55.413	0.232	-0.105
-719.806	0.345	-0.405	-0.291
-718.791	139.047	-0.226	0.300
-717.777	-200.000	0.008	0.119
-716.762	-147.827	-0.255	0.021
-715.748	543.985	-0.062	0.148
-714.733	707.291	0.063	0.168
-713.718	-191.158	-0.097	0.001
-712.704	52.296	-0.210	-0.202
-711.689	-105.312	-0.178	-0.041
-710.675	-112.000	-0.258	0.052
-709.660	-200.000	0.009	-0.168
-708.645	104.630	0.146	-0.173
-707.631	-200.000	-0.006	0.059
-706.616	800.000	-0.081	0.241
-705.602	800.000	-0.055	0.230
-704.587	-83.784	0.259	-0.083
-703.572	-33.671	0.156	-0.086
-702.558	-39.280	-0.221	-0.117
-701.543	-98.126	0.093	0.024
-700.529	-109.075	0.275	-0.059
-699.514	-40.267	0.370	-0.194
-698.499	272.827	-0.004	0.007
-697.485	208.179	-0.174	-0.273
-696.470	-103.371	-0.252	-0.060
-695.456	-200.000	0.010	0.162
-694.441	800.000	-0.063	0.178
-693.426	44.636	-0.238	0.221
-692.412	493.906	-0.068	0.157
-691.397	-87.017	0.415	-0.127
-690.383	-62.929	0.119	-0.050
-689.368	-36.751	-0.295	-0.160
-688.354	800.000	-0.020	-0.066
-687.339	-71.437	-0.045	0.017
-686.324	-200.000	-0.003	-0.420
-685.310	274.263	-0.128	-0.229
-684.295	-200.000	0.016	0.210
-683.281	-105.538	0.208	0.048
-682.266	-53.552	0.180	0.083
-681.251	72.966	-0.143	0.151
-680.237	-21.049	-0.137	0.084
-679.222	118.515	-0.105	-0.130
-678.208	113.328	0.119	0.145
-677.193	-153.558	0.143	-0.010
-676.178	-133.873	-0.275	0.034
-675.164	48.038	0.101	0.095
-674.149	280.514	-0.177	0.319
-673.135	22.270	0.054	0.045
-672.120	-56.959	0.074	-0.033
-671.105	-177.654	0.157	0.004
-670.091	56.962	-0.213	-0.209
-669.076	-21.266	0.073	0.045
-668.062	-60.884	0.182	-0.077
-667.047	62.655	0.144	0.145
-666.032	542.317	0.145	0.348
-665.018	62.725	-0.169	0.170
-664.003	800.000	0.043	0.127
-662.989	140.522	0.132	-0.175
-661.974	-128.552	0.261	0.037
-660.959	329.764	0.082	-0.160
-659.945	197.184	-0.158	-0.243
-658.930	42.520	-0.178	0.163
-657.916	399.844	-0.096	0.203
-656.901	-110.174	-0.482	-0.101
-655.886	-58.902	-0.192	-0.083
-654.872	-159.178	0.188	0.011
-653.857	2.899	0.217	0.159
-652.843	-200.000	0.038	0.210
-651.828	-44.794	-0.199	0.100
-650.814	-124.090	-0.257	-0.041
-649.799	-86.609	0.240	0.074
-648.784	-200.000	-0.006	-0.101
-647.770	-123.662	0.113	0.018
-646.755	239.295	0.031	0.053
-645.741	70.221	0.108	0.112
-644.726	509.463	0.014	-0.032
-643.711	-39.052	-0.217	-0.115
-642.697	800.000	0.059	0.215
-641.682	-161.630	0.363	0.019
-640.668	-200.000	-0.004	0.159
-639.653	239.205	0.089	-0.149
-638.638	-53.047	-0.192	-0.089
-637.624	68.513	-0.278	0.287
-636.609	92.556	-0.107	-0.121
-635.595	-159.114	-0.165	-0.009
-634.580	274.107	0.088	0.156
-633.565	-200.000	-0.008	-0.179
-632.551	119.493	-0.053	-0.066
-631.536	112.458	-0.112	-0.136
-630.522	-120.039	0.369	-0.064
-629.507	49.089	-0.129	-0.121
-628.492	-200.000	-0.005	-0.544
-627.478	800.000	-0.099	0.317
-626.463	-78.105	0.238	-0.082
-625.449	102.093	0.155	-0.182
-624.434	20.513	0.122	-0.099
-623.419	136.305	-0.194	0.255
-622.405	257.587	-0.115	-0.199
-621.390	-200.000	-0.050	0.276
-620.376	305.747	-0.213	-0.398
-619.361	31.213	-0.019	-0.016
-618.346	-25.736	-0.297	0.176
-617.332	-200.000	-0.013	-0.086
-616.317	-63.146	-0.195	-0.081
-615.303	-200.000	-0.023	-0.218
-614.288	91.201	0.045	-0.050
-613.273	-145.194	-0.210	0.019
-612.259	167.012	0.031	-0.045
-611.244	12.200	0.337	-0.260
-610.230	-200.000	-0.065	0.600
-609.215	262.936	0.116	-0.202
-608.201	457.104	-0.141	0.314
-607.186	304.169	-0.074	0.137
-606.171	-116.629	-0.315	-0.058
-605.157	186.583	-0.232	0.347
-604.142	-155.532	0.262	-0.017
-603.128	-61.828	-0.268	0.113
-602.113	-21.438	-0.322	-0.197
-601.098	-102.170	-0.257	-0.062
-600.084	-105.963	-0.306	0.069
-599.069	497.745	-0.057	0.131
-598.055	-160.684	-0.372	0.020
-597.040	144.997	0.026	-0.035
-596.025	-200.000	-0.050	-0.225
-595.011	75.153	0.203	0.215
-593.996	153.525	0.127	-0.174
-592.982	40.828	-0.237	-0.214
-591.967	94.624	-0.097	-0.110
-590.952	698.992	0.066	-0.175
-589.938	-200.000	-0.044	0.218
-588.923	236.358	0.081	-0.134
-587.909	153.190	0.076	0.104
-586.894	240.018	0.290	0.484
-585.879	800.000	-0.052	-0.159
-584.865	385.993	0.118	-0.245
-583.850	185.305	-0.066	0.098
-582.836	570.159	0.029	0.071
-581.821	657.417	-0.093	-0.238
-580.806	415.385	-0.060	-0.128
-579.792	-120.789	0.350	0.059
-578.777	-200.000	0.004	0.023
-577.763	-124.696	0.240	0.037
-576.748	-86.310	0.186	-0.057
-575.733	322.833	-0.029	-0.055
-574.719	-109.071	0.150	-0.032
-573.704	-200.000	0.071	-0.342
-572.690	-92.616	-0.076	-0.022
-571.675	-131.643	0.180	-0.024
-570.661	367.697	0.196	0.397
-569.646	-200.000	-0.050	-0.293
-568.631	-62.175	-0.339	0.142
-567.617	-61.642	0.299	0.126
-566.602	-148.312	0.210	-0.017
-565.588	-72.492	-0.211	0.078
-564.573	-108.084	-0.154	-0.033
-563.558	2.672	-0.087	0.063
-562.544	-200.000	0.106	0.520
-561.529	-200.000	-0.028	-0.252
-560.515	-200.000	0.021	-0.389
-559.500	511.715	-0.071	0.166
-558.485	-153.054	0.173	-0.012
-557.471	-188.874	0.173	-0.002
-556.456	3.077	-0.102	-0.075
-555.442	-47.157	-0.271	0.132
-554.427	34.135	-0.211	0.184
-553.412	-200.000	-0.001	-0.328
-552.398	-200.000	0.026	0.281
-551.383	800.000	0.082	-0.258
-550.369	767.687	0.099	-0.269
-549.354	150.704	-0.043	0.058
-548.339	-65.546	-0.143	-0.057
-547.325	800.000	-0.024	0.069
-546.310	-64.269	0.173	-0.071
-545.296	-200.000	0.027	-0.235
-544.281	800.000	-0.066	0.231
-543.266	-133.293	-0.182	0.023
-542.252	-187.890	-0.126	-0.002
-541.237	-160.905	-0.287	-0.015
-540.223	-200.000	-0.011	-0.085
-539.208	-28.522	-0.394	0.227
-538.193	418.673	-0.139	-0.298
-537.179	-31.306	0.338	-0.191
-536.164	181.628	0.204	-0.300
-535.150	-51.597	0.040	-0.019
-534.135	275.783	-0.198	-0.351
-533.121	800.000	0.121	0.405
-532.106	-11.532	0.203	0.133
-531.091	-44.533	-0.102	-0.051
-530.077	-200.000	-0.052	0.401
-529.062	153.495	-0.059	-0.081
-528.048	164.913	0.105	-0.149
-527.033	-136.915	0.425	-0.049
-526.018	-130.658	-0.288	-0.039
-525.004	800.000	0.092	-0.354
-523.989	800.000	-0.080	0.258
-522.975	175.107	0.161	-0.234
-521.960	-2.212	0.241	-0.169
-520.945	12.959	-0.178	0.137
-519.931	95.100	0.158	-0.180
-518.916	249.807	-0.083	0.141
-517.902	-200.000	0.070	-0.453
-516.887	296.043	-0.087	0.159
-515.872	-67.421	0.089	0.035
-514.858	171.495	-0.175	0.251
-513.843	-109.534	-0.281	-0.059
-512.829	-48.912	-0.159	0.076
-511.814	605.636	0.141	-0.350
-510.799	-100.692	0.131	0.032
-509.785	800.000	-0.098	0.350
-508.770	-126.997	0.028	0.004
-507.756	-112.131	0.269	-0.054
-506.741	773.246	-0.052	-0.141
-505.726	-86.242	0.341	-0.105
-504.712	320.272	0.121	-0.230
-503.697	-15.851	0.421	-0.268
-502.683	11.384	0.237	-0.181
-501.668	-132.544	-0.195	-0.025
-500.653	23.713	-0.364	-0.299
-499.639	-200.000	-0.042	0.391
-498.624	-49.584	0.180	0.086
-497.610	-17.994	-0.382	-0.239
-496.595	179.094	-0.035	0.051
-495.581	38.855	-0.136	-0.122
-494.566	800.000	0.028	-0.102
-493.551	3.306	-0.135	-0.098
-492.537	-200.000	0.037	0.199
-491.522	-200.000	0.000	0.086
-490.508	-42.589	-0.198	-0.101
-489.493	-200.000	0.013	-0.172
-488.478	438.941	0.139	0.303
-487.464	-200.000	0.087	0.417
-486.449	-138.547	0.151	0.017
-485.435	800.000	-0.036	-0.120
-484.420	110.782	-0.168	0.202
-483.405	-200.000	-0.027	0.262
-482.391	800.000	-0.053	-0.147
-481.376	-200.000	-0.009	-0.181
-480.362	-59.243	0.402	0.173
-479.347	-200.000	-0.079	0.496
-478.332	344.076	0.202	0.395
-477.318	-177.616	-0.110	-0.003
-476.303	-35.704	0.342	-0.185
-475.289	800.000	-0.085	-0.303
-474.274	-109.557	0.028	-0.006
-473.259	-200.000	0.037	0.188
-472.245	-99.444	-0.168	0.042
-471.230	-47.995	0.105	0.051
-470.216	-200.000	-0.028	-0.402
-469.201	800.000	0.049	-0.183
-468.186	-200.000	0.008	-0.308
-467.172	-61.886	-0.270	-0.113
-466.157	-41.236	0.308	0.159
-465.143	736.375	0.084	0.224
-464.128	-200.000	0.006	-0.030
-463.113	800.000	0.076	0.240
-462.099	-26.771	-0.323	-0.188
-461.084	-20.546	-0.290	-0.178
-460.070	30.543	0.142	0.121
-459.055	-200.000	-0.030	-0.421
-458.040	-118.240	-0.134	-0.024
-457.026	448.633	0.112	-0.246
-456.011	57.998	0.170	0.166
-454.997	-200.000	0.033	0.232
-453.982	-81.669	-0.081	0.026
-452.968	-114.691	0.053	0.010
-451.953	-7.615	0.138	0.093
-450.938	-105.782	-0.292	-0.066
-449.924	800.000	-0.049	-0.151
-448.909	-91.408	-0.168	0.048
-447.895	98.868	0.139	0.160
-446.880	547.600	-0.063	0.150
-445.865	-155.227	0.193	0.013
-444.851	31.449	0.303	-0.260
-443.836	-51.374	-0.292	-0.136
-442.822	12.681	0.330	0.254
-441.807	95.267	0.089	0.101
-440.792	-128.047	0.210	-0.030
-439.778	-62.882	0.106	-0.044
-438.763	656.819	-0.041	0.106
-437.749	33.771	0.049	-0.043
-436.734	9.550	-0.026	-0.020
-435.719	-140.821	0.221	-0.023
-434.705	-71.297	-0.228	-0.085
-433.690	389.111	0.084	0.172
-432.676	412.117	0.158	-0.334
-431.661	3.063	-0.151	-0.109
-430.646	38.341	-0.153	-0.136
-429.632	154.936	-0.168	0.230
-428.617	301.949	-0.176	-0.325
-427.603	423.125	0.104	-0.222
-426.588	-200.000	0.057	0.354
-425.573	-104.905	-0.306	0.070
-424.559	-30.646	0.230	0.130
-423.544	-137.543	-0.076	0.009
-422.530	-200.000	-0.001	0.085
-421.515	257.522	-0.006	0.011
-420.500	296.548	-0.257	-0.470
-419.486	-55.314	0.160	-0.072
-418.471	-24.929	-0.349	0.206
-417.457	-200.000	0.024	0.284
-416.442	-61.537	0.125	0.052
-415.428	20.396	-0.108	-0.087
-414.413	-103.302	-0.109	0.026
-413.398	-41.217	-0.326	0.168
-412.384	-31.095	-0.262	-0.147
-411.369	252.536	-0.184	-0.312
-410.355	-117.262	0.163	-0.030
-409.340	-200.000	-0.088	0.474
-408.325	85.602	0.115	-0.125
-407.311	800.000	-0.101	0.300
-406.296	354.990	0.085	-0.169
-405.282	800.000	-0.030	0.098
-404.267	27.455	-0.004	0.003
-403.252	72.105	-0.077	0.079
-402.238	135.547	-0.052	0.067
-401.223	-155.448	0.134	-0.009
-400.209	-40.267	-0.100	-0.052
-399.194	1.489	0.032	0.023
-398.179	-38.374	0.156	-0.082
-397.165	108.748	-0.120	0.143
-396.150	101.477	-0.128	0.149
-395.136	-35.468	0.066	-0.036
-394.121	-139.393	-0.267	0.028
-393.106	-119.849	0.239	-0.041
-392.092	800.000	0.059	-0.210
-391.077	-11.700	0.037	0.024
-390.063	96.877	0.078	-0.089
-389.048	179.429	-0.076	-0.110
-388.033	542.053	-0.009	0.021
-387.019	-200.000	-0.050	0.246
-386.004	-10.472	0.271	0.179
-384.990	-27.766	-0.176	0.101
-383.975	-151.449	-0.088	0.007
-382.960	225.012	0.115	-0.186
-381.946	800.000	0.046	0.181
-380.931	-64.840	0.476	0.192
-379.917	-112.268	-0.168	0.034
-378.902	-200.000	-0.064	-0.347
-377.888	-87.327	0.027	0.008
-376.873	-116.803	0.197	-0.036
-375.858	-113.542	-0.230	0.045
-374.844	-9.900	-0.191	-0.126
-373.829	97.015	-0.267	-0.305
-372.815	73.561	-0.194	-0.202
-371.800	-200.000	0.010	-0.213
-370.785	-133.199	-0.062	0.008
-369.771	270.401	-0.149	-0.261
-368.756	-96.151	0.121	-0.032
-367.742	315.653	0.022	-0.041
-366.727	250.298	-0.103	-0.174
-365.712	-17.596	0.088	0.055
-364.698	-200.000	-0.005	0.135
-363.683	-13.096	0.105	0.068
-362.669	-169.768	0.069	0.002
-361.654	-42.407	0.186	-0.094
-360.639	-135.591	0.089	0.010
-359.625	-130.509	-0.232	0.031
-358.610	121.549	-0.059	-0.073
-357.596	800.000	0.056	-0.215
-356.581	181.517	0.076	-0.112
-355.566	-71.099	-0.037	0.014
-354.552	64.628	0.112	0.113
-353.537	-200.000	-0.025	0.234
-352.523	49.881	0.126	0.118
-351.508	70.933	0.110	0.113
-350.493	37.503	0.222	-0.196
-349.479	-71.698	-0.208	-0.077
-348.464	-200.000	-0.025	0.115
-347.450	-166.871	-0.178	0.007
-346.435	24.477	0.179	0.147
-345.420	165.404	0.235	0.330
-344.406	433.522	0.063	0.136
-343.391	-200.000	-0.007	-0.210
-342.377	-200.000	-0.010	-0.196
-341.362	-75.785	0.080	0.028
-340.348	242.699	-0.126	-0.210
-339.333	-200.000	0.017	-0.086
-338.318	-37.096	-0.242	-0.128
-337.304	-174.359	-0.238	0.007
-336.289	-200.000	0.050	-0.301
-335.275	128.026	-0.234	-0.296
-334.260	800.000	-0.112	-0.358
-333.245	-16.340	0.251	-0.158
-332.231	-142.050	-0.120	-0.012
-331.216	446.752	-0.042	-0.092
-330.202	800.000	0.067	-0.225
-329.187	-158.491	-0.057	-0.003
-328.172	800.000	0.080	0.275
-327.158	196.142	0.158	-0.239
-326.143	-200.000	-0.029	-0.267
-325.129	-200.000	-0.012	-0.215
-324.114	68.489	0.022	0.023
-323.099	-41.987	-0.082	-0.042
-322.085	-200.000	-0.021	-0.226
-321.070	33.106	-0.075	0.065
-320.056	800.000	-0.070	-0.272
-319.041	-150.219	-0.375	-0.029
-318.026	-200.000	0.018	-0.123
-317.012	237.625	-0.108	0.178
-315.997	800.000	0.050	0.169
-314.983	-200.000	0.060	0.261
-313.968	116.780	-0.101	-0.123
-312.953	128.225	0.137	-0.173
-311.939	160.004	0.191	0.265
-310.924	155.091	0.208	-0.284
-309.910	-200.000	-0.025	-0.216
-308.895	-114.824	0.164	0.031
-307.880	800.000	0.058	-0.243
-306.866	321.585	0.037	0.070
-305.851	502.591	-0.097	-0.221
-304.837	122.191	-0.230	0.285
-303.822	-21.210	-0.020	0.012
-302.807	-120.643	0.185	-0.031
-301.793	-28.246	0.127	0.072
-300.778	195.252	0.076	-0.114
-299.764	-34.330	0.050	0.027
-298.749	-200.000	0.053	-0.250
-297.735	-49.925	-0.222	0.105
-296.720	10.741	0.054	-0.041
-295.705	-26.273	-0.215	-0.125
-294.691	161.293	0.111	-0.154
-293.676	257.433	-0.098	0.166
-292.662	343.036	0.100	-0.194
-291.647	122.327	0.121	-0.149
-290.632	-8.969	-0.105	0.070
-289.618	-200.000	0.040	0.191
-288.603	204.079	0.195	0.299
-287.589	54.654	0.016	-0.016
-286.574	55.640	-0.182	0.175
-285.559	62.262	0.232	-0.229
-284.545	58.001	0.222	0.216
-283.530	224.395	-0.191	0.307
-282.516	336.656	0.170	0.327
-281.501	-64.719	0.275	0.110
-280.486	-23.202	-0.217	0.129
-279.472	800.000	0.145	0.502
-278.457	300.203	0.100	-0.182
-277.443	-47.167	-0.287	-0.139
-276.428	30.992	0.107	-0.091
-275.413	800.000	0.025	0.071
-274.399	-57.776	-0.093	-0.040
-273.384	613.604	0.073	0.180
-272.370	6.301	-0.066	-0.048
-271.355	-125.008	0.175	0.027
-270.340	8.585	-0.205	-0.153
-269.326	160.364	0.291	-0.402
-268.311	449.362	-0.160	-0.349
-267.297	-90.562	0.185	0.053
-266.282	-12.453	0.196	0.127
-265.267	-95.270	-0.295	0.079
-264.253	8.885	-0.141	-0.105
-263.238	296.713	0.030	0.055
-262.224	800.000	-0.025	0.090
-261.209	707.938	-0.044	0.115
-260.195	26.513	-0.207	-0.172
-259.180	234.033	0.093	0.152
-258.165	-112.455	-0.284	0.056
-257.151	-29.471	0.164	0.093
-256.136	97.306	0.075	0.085
-255.122	-78.493	-0.425	0.144
-254.107	25.182	-0.111	-0.092
-253.092	800.000	-0.070	-0.191
-252.078	552.652	0.038	0.091
-251.063	-134.878	0.190	0.023
-250.049	144.763	0.140	0.186
-249.034	-154.150	0.171	-0.011
-248.019	-7.157	-0.068	-0.045
-247.005	-50.345	-0.145	-0.068
-245.990	-60.147	0.311	0.131
-244.976	800.000	0.070	-0.223
-243.961	-200.000	-0.048	0.307
-242.946	-200.000	0.029	0.133
-241.932	36.983	0.092	0.080
-240.917	-73.019	-0.041	-0.015
-239.903	-71.710	0.154	0.057
-238.888	-38.012	0.223	-0.117
-237.873	619.857	0.135	0.335
-236.859	-63.666	-0.271	0.110
-235.844	24.759	-0.130	-0.107
-234.830	-27.013	-0.185	0.107
-233.815	-158.027	-0.130	-0.008
-232.800	-136.004	0.063	0.007
-231.786	36.011	-0.095	-0.083
-230.771	-62.100	-0.397	-0.164
-229.757	-41.284	0.233	0.119
-228.742	526.263	-0.082	-0.191
-227.727	-93.297	0.241	0.066
-226.713	-141.849	0.290	0.029
-225.698	-200.000	0.027	-0.119
-224.684	-200.000	0.004	0.080
-223.669	-200.000	-0.027	-0.207
-222.655	800.000	0.029	0.106
-221.640	-96.349	-0.194	-0.051
-220.625	-36.099	-0.197	-0.105
-219.611	-63.671	0.096	0.039
-218.596	94.625	0.112	-0.125
-217.582	227.941	-0.138	0.223
-216.567	-200.000	0.054	-0.309
-215.552	-92.057	0.334	-0.093
-214.538	-188.215	-0.186	0.002
-213.523	-200.000	0.010	-0.334
-212.509	401.320	-0.153	-0.318
-211.494	-85.447	0.378	0.116
-210.479	800.000	0.032	0.131
-209.465	800.000	0.058	0.164
-208.450	-200.000	0.021	0.307
-207.436	213.670	0.037	0.058
-206.421	-200.000	-0.055	0.242
-205.406	-200.000	0.007	0.252
-204.392	800.000	0.034	-0.118
-203.377	356.183	-0.021	-0.042
-202.363	132.343	-0.086	0.109
-201.348	175.867	-0.046	-0.066
-200.333	-200.000	0.029	0.337
-199.319	-16.353	-0.078	0.049
-198.304	-17.626	0.207	0.128
-197.290	601.028	0.148	0.362
-196.275	-200.000	0.053	0.266
-195.260	20.282	-0.185	0.148
-194.246	333.710	0.144	-0.275
-193.231	21.552	0.191	0.153
-192.217	101.671	-0.124	0.143
-191.202	-200.000	0.013	0.175
-190.187	-200.000	-0.002	0.057
-189.173	33.927	0.167	-0.144
-188.158	95.921	0.024	-0.028
-187.144	800.000	-0.035	0.097
-186.129	-90.962	0.188	0.053
-185.114	-200.000	0.051	0.374
-184.100	253.291	-0.169	0.284
-183.085	-80.022	0.073	-0.024
-182.071	-37.462	-0.237	-0.125
-181.056	-200.000	0.004	0.145
-180.042	-200.000	0.053	0.366
-179.027	-85.873	-0.534	0.163
-178.012	-200.000	0.037	0.357
-176.998	800.000	0.063	-0.203
-175.983	-200.000	-0.050	0.290
-174.969	-153.445	-0.253	0.017
-173.954	-142.449	0.365	0.035
-172.939	275.544	-0.031	-0.054
-171.925	-200.000	0.070	0.355
-170.910	-130.162	0.112	0.015
-169.896	5.227	-0.254	-0.185
-168.881	256.074	-0.049	-0.083
-167.866	-157.662	-0.250	-0.015
-166.852	55.458	0.260	0.249
-165.837	-65.452	0.252	0.100
-164.823	48.185	-0.157	0.145
-163.808	-33.141	0.283	0.155
-162.793	-30.276	0.223	-0.125
-161.779	-71.114	0.405	0.150
-160.764	-161.354	0.128	0.007
-159.750	509.882	0.101	0.233
-158.735	-161.654	0.103	0.005
-157.720	27.455	0.100	-0.083
-156.706	-68.007	0.154	0.059
-155.691	-46.752	-0.144	-0.069
-154.677	-200.000	0.000	0.025
-153.662	-53.717	-0.254	-0.114
-152.647	63.018	0.108	0.106
-151.633	44.016	-0.174	0.157
-150.618	-200.000	0.067	0.384
-149.604	-107.759	-0.338	0.073
-148.589	22.417	0.065	0.052
-147.574	-200.000	-0.025	0.331
-146.560	68.875	0.141	0.143
-145.545	114.100	-0.048	-0.057
-144.531	800.000	-0.056	-0.191
-143.516	-39.777	0.143	-0.074
-142.502	-200.000	-0.032	-0.209
-141.487	-200.000	0.007	-0.110
-140.472	800.000	0.040	-0.156
-139.458	141.258	-0.099	-0.129
-138.443	-123.824	0.052	0.008
-137.429	35.523	-0.048	-0.042
-136.414	800.000	0.066	0.197
-135.399	36.763	0.050	0.043
-134.385	-77.469	-0.209	-0.071
-133.370	-146.914	0.047	0.004
-132.356	-43.866	0.124	-0.062
-131.341	-48.563	-0.197	-0.093
-130.326	800.000	0.049	0.180
-129.312	-38.261	0.383	0.200
-128.297	483.964	-0.146	0.327
-127.283	746.613	-0.102	0.270
-126.268	-131.550	-0.333	-0.043
-125.253	-30.107	0.407	0.228
-124.239	-68.587	0.217	-0.083
-123.224	-148.621	-0.202	-0.016
-122.210	431.732	-0.168	0.359
-121.195	616.911	0.159	0.392
-120.180	-200.000	0.024	0.274
-119.166	-200.000	-0.022	-0.103
-118.151	-132.498	0.159	0.020
-117.137	3.087	-0.086	0.062
-116.122	-157.398	0.040	0.002
-115.107	800.000	0.053	0.213
-114.093	153.278	0.138	0.186
-113.078	-24.000	0.121	-0.072
-112.064	160.867	-0.186	-0.256
-111.049	800.000	0.052	-0.209
-110.034	348.573	-0.078	0.152
-109.020	-100.998	-0.344	0.083
-108.005	-39.684	-0.181	-0.093
-106.991	438.284	0.131	0.281
-105.976	298.650	0.151	0.273
-104.962	-200.000	0.012	0.095
-103.947	315.552	-0.075	0.139
-102.932	149.876	-0.162	-0.216
-101.918	-12.133	-0.241	-0.155
-100.903	-68.912	-0.108	0.041
-99.889	800.000	-0.069	0.209
-98.874	178.038	0.094	0.135
-97.859	-34.415	0.030	0.016
-96.845	-200.000	-0.059	-0.343
-95.830	-29.840	-0.185	0.104
-94.816	800.000	0.075	0.246
-93.801	151.022	-0.312	-0.418
-92.786	444.347	0.116	-0.250
-91.772	-79.605	-0.243	0.081
-90.757	800.000	-0.054	0.169
-89.743	-200.000	0.003	0.144
-88.728	-46.385	0.201	0.097
-87.713	253.725	-0.177	-0.297
-86.699	-9.253	0.109	-0.072
-85.684	593.600	0.085	0.206
-84.670	-3.550	0.166	0.114
-83.655	-64.097	0.154	-0.062
-82.640	113.608	-0.196	0.234
-81.626	98.538	0.158	-0.180
-80.611	-32.155	-0.313	-0.172
-79.597	-3.163	-0.329	0.226
-78.582	149.456	-0.136	0.182
-77.567	188.259	0.081	-0.120
-76.553	-79.028	0.172	0.058
-75.538	800.000	0.122	0.383
-74.524	-144.609	-0.219	0.020
-73.509	348.827	-0.115	0.222
-72.494	-32.964	-0.152	0.083
-71.480	602.563	-0.053	-0.129
-70.465	-96.444	0.033	-0.009
-69.451	-49.351	-0.083	-0.039
-68.436	-71.578	0.275	-0.101
-67.422	-200.000	0.004	-0.113
-66.407	75.505	-0.257	0.267
-65.392	40.810	-0.100	0.089
-64.378	-100.545	0.231	0.056
-63.363	403.273	-0.133	0.274
-62.349	-24.506	0.255	0.149
-61.334	103.056	-0.960	-1.105
-60.319	-4.076	0.541	0.368
-59.305	-200.000	-0.175	-0.790
-58.290	296.257	0.589	1.061
-57.276	565.188	0.743	1.770
-56.261	-200.000	96.667	582.791
-55.246	551.290	1386.723	3269.404
-54.232	155.847	2583.970	3497.825
-53.217	106.527	2275.277	2650.162
-52.203	42.791	1897.752	1698.072
-51.188	37.027	1688.757	1467.548
-50.173	34.305	1644.272	1408.738
-49.159	52.175	1691.293	1583.286
-48.144	53.965	1707.977	1612.241
-47.130	36.677	1666.702	1445.532
-46.115	33.848	1652.231	1411.930
-45.100	33.650	1647.572	1406.429
-44.086	33.589	1645.346	1404.020
-43.071	33.664	1642.175	1401.810
-42.057	33.612	1639.678	1399.243
-41.042	33.641	1637.214	1397.297
-40.027	33.622	1636.012	1396.075
-39.013	33.633	1633.827	1394.235
-37.998	33.541	1632.429	1392.312
-36.984	33.624	1631.260	1391.867
-35.969	33.765	1629.342	1391.213
-34.954	33.815	1627.970	1390.350
-33.940	33.728	1626.345	1388.271
-32.925	33.693	1624.512	1386.396
-31.911	33.640	1622.868	1384.548
-30.896	33.805	1620.625	1383.783
-29.881	33.681	1619.857	1382.169
-28.867	33.634	1617.590	1379.843
-27.852	33.834	1615.655	1379.590
-26.838	33.675	1614.510	1377.403
-25.823	33.713	1613.219	1376.519
-24.809	33.808	1611.487	1375.674
-23.794	33.738	1610.282	1374.084
-22.779	33.795	1608.555	1372.968
-21.765	33.700	1607.336	1371.193
-20.750	33.850	1605.180	1370.381
-19.736	33.779	1604.116	1368.903
-18.721	33.778	1602.970	1367.863
-17.706	33.787	1601.252	1366.406
-16.692	33.831	1599.444	1365.131
-15.677	33.801	1598.344	1363.922
-14.663	33.751	1597.141	1362.482
-13.648	33.782	1595.474	1361.223
-12.633	33.953	1593.578	1360.778
-11.619	33.775	1592.604	1358.617
-10.604	33.878	1590.563	1357.563
-9.590	33.786	1589.636	1356.059
-8.575	33.749	1588.994	1355.194
-7.560	33.821	1587.359	1354.260
-6.546	33.872	1586.021	1353.429
-5.531	33.747	1585.280	1351.849
-4.517	33.775	1583.792	1350.723
-3.502	33.816	1582.661	1349.997
-2.487	33.949	1580.560	1349.098
-1.473	33.578	1569.259	1336.781
-0.458	30.794	1550.682	1301.476
0.556	27.688	1551.860	1271.923
1.571	25.601	1576.360	1277.085
2.586	25.171	1590.347	1285.225
3.600	22.548	1537.147	1223.926
4.615	12.927	1425.319	1072.513
5.629	3.786	1358.505	965.269
6.644	2.130	1349.290	948.358
7.659	2.027	1348.211	946.878
8.673	1.907	1347.209	945.347
9.688	1.927	1345.184	943.968
10.702	1.683	1342.337	940.377
11.717	5.173	1349.235	966.768
12.731	15.503	1368.924	1045.410
13.746	23.936	1383.018	1108.893
14.761	26.075	1385.512	1124.136
15.775	26.428	1384.785	1125.644
16.790	26.472	1384.680	1125.733
17.804	26.480	1384.239	1125.319
18.819	26.682	1383.994	1126.280
19.834	26.763	1383.225	1126.059
20.848	26.736	1382.670	1125.336
21.863	26.861	1381.942	1125.418
22.877	26.807	1380.877	1124.119
23.892	26.822	1379.783	1123.222
24.907	26.794	1379.386	1122.629
25.921	26.797	1378.404	1121.744
26.936	26.801	1377.576	1120.998
27.950	26.897	1376.114	1120.301
28.965	26.769	1375.145	1118.623
29.980	26.847	1373.723	1117.851
30.994	26.841	1372.609	1116.810
32.009	26.862	1371.554	1115.980
33.023	26.894	1370.259	1115.025
34.038	26.858	1368.895	1113.592
35.053	26.832	1368.765	1113.231
36.067	26.793	1367.464	1111.835
37.082	26.812	1366.372	1110.964
38.096	26.716	1365.645	1109.687
39.111	26.810	1364.619	1109.333
40.126	26.794	1364.425	1108.974
41.140	26.771	1363.854	1108.275
42.155	26.809	1362.854	1107.596
43.169	26.727	1363.744	1107.719
44.184	26.785	1363.413	1107.704
45.199	26.884	1362.249	1107.265
46.213	26.866	1361.694	1106.605
47.228	26.838	1361.058	1105.824
48.242	26.775	1360.069	1104.536
49.257	26.820	1358.712	1103.613
50.271	26.822	1357.135	1102.248
51.286	26.742	1356.055	1100.785
52.301	26.873	1354.415	1100.152
53.315	26.751	1353.965	1098.947
54.330	26.795	1352.650	1098.049
55.344	26.848	1351.982	1097.729
56.359	26.892	1350.312	1096.543
57.374	26.815	1350.092	1095.801
58.388	26.780	1349.338	1094.884
59.403	26.769	1348.952	1094.407
60.417	26.712	1348.727	1093.784
61.432	26.811	1347.559	1093.336
62.447	26.759	1346.896	1092.391
63.461	26.775	1345.867	1091.552
64.476	26.771	1344.953	1090.691
65.490	26.722	1343.892	1089.440
66.505	26.844	1342.177	1088.688
67.520	26.891	1340.768	1087.730
68.534	26.814	1340.155	1086.672
69.549	26.828	1338.932	1085.669
70.563	26.821	1338.229	1084.960
71.578	26.728	1337.316	1083.570
72.593	26.849	1336.248	1083.330
73.607	26.855	1335.382	1082.567
74.622	26.972	1334.400	1082.375
75.636	26.812	1334.050	1081.043
76.651	26.881	1333.182	1080.652
77.666	26.778	1333.164	1079.931
78.680	26.853	1332.065	1079.390
79.695	26.849	1331.525	1078.832
80.709	26.804	1331.067	1078.100
81.724	26.833	1330.484	1077.702
82.739	26.803	1329.072	1076.286
83.753	26.708	1328.630	1075.270
84.768	26.815	1327.080	1074.552
85.782	26.826	1325.937	1073.598
86.797	26.882	1325.295	1073.313
87.812	26.889	1323.947	1072.170
88.826	26.848	1322.651	1070.782
89.841	26.765	1322.246	1069.870
90.855	26.954	1320.463	1069.445
91.870	26.858	1320.184	1068.558
92.884	26.952	1319.070	1068.117
93.899	26.898	1318.440	1067.197
94.914	26.917	1317.686	1066.603
95.928	26.837	1317.478	1065.867
96.943	26.777	1316.456	1064.598
97.957	26.854	1315.457	1064.148
98.972	26.943	1314.353	1063.681
99.987	26.915	1313.643	1062.846
101.001	26.881	1312.562	1061.679
102.016	26.822	1311.602	1060.466
103.030	26.943	1311.045	1060.629
104.045	26.923	1310.125	1059.675
105.060	26.883	1309.196	1058.596
106.074	26.880	1308.132	1057.620
107.089	26.902	1307.230	1056.928
108.103	26.906	1306.311	1056.116
109.118	26.930	1304.637	1054.810
110.133	26.967	1304.098	1054.494
111.147	26.976	1302.804	1053.406
112.162	27.004	1301.894	1052.736
113.176	26.915	1301.043	1051.441
114.191	26.893	1300.483	1050.768
115.206	27.021	1299.068	1050.275
116.220	26.924	1298.325	1049.021
117.235	26.939	1297.374	1048.247
118.249	27.033	1296.290	1047.818
119.264	26.915	1295.827	1046.673
120.279	26.931	1295.041	1046.036
121.293	27.011	1294.371	1045.862
122.308	26.989	1293.951	1045.306
123.322	26.935	1292.858	1044.015
124.337	26.984	1291.829	1043.378
125.352	26.902	1291.001	1042.145
126.366	27.027	1289.881	1041.866
127.381	27.089	1289.296	1041.654
128.395	26.972	1288.700	1040.409
129.410	27.059	1287.640	1039.961
130.424	26.929	1287.080	1038.676
131.439	26.972	1286.534	1038.386
132.454	26.960	1285.772	1037.614
133.468	26.938	1284.894	1036.684
134.483	26.988	1284.096	1036.237
135.497	27.013	1283.421	1035.744
136.512	26.922	1282.776	1034.613
137.527	26.921	1281.327	1033.342
138.541	26.916	1280.280	1032.378
139.556	26.947	1278.499	1031.031
140.570	26.896	1278.044	1030.282
141.585	27.021	1276.517	1029.668
142.600	26.985	1275.649	1028.675
143.614	26.992	1274.714	1027.866
144.629	26.887	1274.280	1026.830
145.643	26.890	1273.088	1025.797
146.658	26.886	1272.386	1025.117
147.673	27.018	1270.436	1024.201
148.687	27.006	1269.560	1023.335
149.702	26.930	1268.883	1022.274
150.716	26.983	1267.658	1021.494
151.731	26.960	1266.558	1020.389
152.746	26.967	1265.712	1019.655
153.760	27.076	1264.422	1019.140
154.775	27.050	1263.794	1018.398
155.789	26.955	1262.957	1017.098
156.804	27.008	1262.054	1016.577
157.819	27.009	1261.108	1015.733
158.833	26.937	1260.807	1014.998
159.848	26.969	1260.039	1014.465
160.862	27.060	1259.007	1014.056
161.877	27.039	1258.392	1013.351
162.892	27.110	1257.623	1013.039
163.906	27.061	1256.818	1012.030
164.921	27.012	1256.363	1011.299
165.935	27.162	1255.308	1011.197
166.950	27.071	1254.735	1010.137
167.964	27.085	1254.241	1009.728
168.979	27.025	1253.649	1008.833
169.994	27.144	1253.015	1008.893
171.008	27.136	1252.545	1008.379
172.023	27.206	1251.354	1007.717
173.037	27.110	1250.853	1006.695
174.052	27.177	1249.799	1006.128
175.067	27.103	1248.882	1004.893
176.081	27.121	1248.147	1004.313
177.096	27.023	1247.652	1003.285
178.110	27.167	1246.541	1003.096
179.125	27.165	1245.360	1002.045
180.140	27.225	1244.277	1001.416
181.154	27.148	1243.472	1000.255
182.169	27.034	1242.657	998.883
183.183	27.109	1241.504	998.282
184.198	27.078	1240.818	997.472
185.213	27.144	1239.633	996.794
186.227	27.147	1238.826	996.070
187.242	27.195	1237.898	995.499
188.256	27.249	1237.291	995.219
189.271	27.295	1236.311	994.592
190.286	27.307	1235.389	993.832
191.300	27.195	1235.387	993.127
192.315	27.096	1234.742	991.980
193.329	27.220	1234.291	992.207
194.344	27.230	1233.816	991.795
195.359	27.242	1233.265	991.326
196.373	27.169	1233.031	990.655
197.388	27.143	1232.653	990.122
198.402	27.140	1232.167	989.628
199.417	27.196	1231.684	989.457
200.432	27.155	1231.177	988.739
201.446	27.355	1230.033	988.820
202.461	27.206	1229.304	987.335
203.475	27.139	1229.106	986.724
204.490	27.218	1227.875	986.079
205.504	27.183	1227.114	985.193
206.519	27.316	1225.606	984.613
207.534	27.232	1225.061	983.636
208.548	27.326	1224.047	983.241
209.563	27.241	1223.620	982.350
210.577	27.307	1222.557	981.769
211.592	27.378	1221.588	981.285
212.607	27.392	1221.058	980.846
213.621	27.286	1220.065	979.394
214.636	27.383	1219.470	979.353
215.650	27.307	1218.395	977.989
216.665	27.293	1217.651	977.234
217.680	27.360	1216.972	976.961
218.694	27.338	1216.126	976.077
219.709	27.367	1215.549	975.682
220.723	27.369	1214.935	975.116
221.738	27.376	1213.821	974.171
222.753	27.314	1213.562	973.548
223.767	27.301	1212.923	972.881
224.782	27.528	1211.699	973.024
225.796	27.452	1211.793	972.606
226.811	27.433	1211.039	971.815
227.826	27.479	1210.603	971.622
228.840	27.495	1209.626	970.837
229.855	27.424	1208.791	969.703
230.869	27.373	1208.553	969.157
231.884	27.419	1207.738	968.661
232.899	27.351	1207.363	967.915
233.913	27.398	1206.860	967.676
234.928	27.409	1206.247	967.153
235.942	27.534	1205.523	967.151
236.957	27.514	1204.624	966.241
237.972	27.507	1204.029	965.640
238.986	27.405	1203.688	964.741
240.001	27.545	1202.665	964.577
241.015	27.556	1202.195	964.173
242.030	27.543	1201.335	963.326
243.045	27.627	1200.389	962.926
244.059	27.603	1199.610	962.091
245.074	27.649	1198.778	961.584
246.088	27.714	1197.979	961.198
247.103	27.637	1197.494	960.318
248.117	27.672	1196.202	959.382
249.132	27.601	1196.000	958.759
250.147	27.763	1195.064	958.775
251.161	27.739	1194.378	958.018
252.176	27.700	1193.754	957.224
253.190	27.631	1193.268	956.393
254.205	27.631	1192.686	955.837
255.220	27.687	1192.198	955.657
256.234	27.713	1191.410	955.077
257.249	27.689	1190.883	954.442
258.263	27.703	1190.838	954.398
259.278	27.682	1189.667	953.265
260.293	27.584	1189.574	952.593
261.307	27.718	1188.604	952.434
262.322	27.726	1188.069	951.959
263.336	27.807	1187.023	951.458
264.351	27.813	1186.564	951.037
265.366	27.711	1185.920	949.906
266.380	27.720	1185.867	949.830
267.395	27.792	1184.655	949.146
268.409	27.879	1183.982	948.978
269.424	27.868	1183.389	948.361
270.439	27.868	1182.901	947.886
271.453	27.762	1182.734	947.118
272.468	27.763	1181.631	946.156
273.482	27.750	1181.415	945.831
274.497	27.765	1180.952	945.455
275.512	27.852	1180.161	945.186
276.526	27.867	1179.234	944.440
277.541	27.853	1178.785	943.924
278.555	27.810	1178.404	943.312
279.570	27.854	1177.108	942.417
280.585	27.918	1176.398	942.099
281.599	27.855	1175.819	941.225
282.614	27.865	1174.493	940.132
283.628	27.918	1173.657	939.656
284.643	27.927	1173.169	939.224
285.657	27.881	1172.194	938.125
286.672	27.920	1171.186	937.437
287.687	27.952	1170.443	936.922
288.701	28.020	1169.981	936.817
289.716	28.119	1168.834	936.321
290.730	27.978	1168.571	935.311
291.745	28.094	1167.820	935.218
292.760	27.972	1167.448	934.211
293.774	28.026	1167.387	934.361
294.789	28.040	1166.833	933.902
295.803	28.047	1166.113	933.281
296.818	27.983	1165.263	932.190
297.833	28.090	1164.540	932.075
298.847	28.197	1163.579	931.769
299.862	28.157	1162.870	930.914
300.876	27.987	1162.567	929.727
301.891	28.072	1161.992	929.614
302.906	28.272	1161.314	930.009
303.920	28.178	1160.584	928.865
304.935	28.201	1160.093	928.506
305.949	28.194	1159.271	927.729
306.964	28.129	1158.941	927.054
307.979	28.152	1158.086	926.405
308.993	28.216	1157.380	926.078
310.008	28.176	1156.571	925.151
311.022	28.096	1156.054	924.251
312.037	28.170	1155.016	923.712
313.052	28.156	1154.108	922.830
314.066	28.224	1153.686	922.756
315.081	28.177	1153.051	921.930
316.095	28.199	1152.426	921.460
317.110	28.218	1151.781	920.959
318.125	28.296	1150.615	920.339
319.139	28.272	1150.249	919.840
320.154	28.312	1149.834	919.629
321.168	28.131	1149.643	918.487
322.183	28.235	1148.648	918.130
323.197	28.266	1147.794	917.523
324.212	28.282	1147.361	917.178
325.227	28.302	1147.155	917.028
326.241	28.372	1146.585	916.843
327.256	28.398	1145.387	915.932
328.270	28.418	1145.254	915.848
329.285	28.334	1143.953	914.306
330.300	28.407	1143.139	913.939
331.314	28.328	1142.590	913.027
332.329	28.432	1141.459	912.561
333.343	28.392	1140.791	911.744
334.358	28.347	1140.387	911.119
335.373	28.454	1139.696	911.018
336.387	28.582	1138.766	910.830
337.402	28.455	1138.038	909.536
338.416	28.511	1137.440	909.252
339.431	28.511	1136.686	908.573
340.446	28.568	1136.515	908.635
341.460	28.616	1135.665	908.115
342.475	28.675	1134.680	907.535
343.489	28.516	1134.130	906.232
344.504	28.554	1133.146	905.555
345.519	28.704	1132.338	905.566
346.533	28.659	1131.814	904.847
347.548	28.535	1131.047	903.543
348.562	28.565	1130.214	902.946
349.577	28.616	1129.603	902.625
350.592	28.616	1128.546	901.701
351.606	28.458	1128.440	900.763
352.621	28.499	1127.927	900.474
353.635	28.571	1127.480	900.390
354.650	28.566	1126.717	899.676
355.665	28.688	1125.795	899.460
356.679	28.736	1125.221	899.157
357.694	28.681	1124.854	898.512
358.708	28.574	1123.891	897.140
359.723	28.612	1123.404	896.858
360.738	28.692	1122.371	896.348
361.752	28.722	1122.040	896.149
362.767	28.852	1121.728	896.457
363.781	28.720	1121.610	895.639
364.796	28.847	1120.376	895.193
365.810	28.798	1120.094	894.646
366.825	28.857	1119.187	894.133
367.840	28.721	1119.243	893.434
368.854	28.764	1118.393	892.886
369.869	28.859	1117.396	892.471
370.883	28.934	1116.682	892.187
371.898	28.826	1115.993	891.033
372.913	28.795	1115.553	890.456
373.927	29.123	1114.424	891.060
374.942	28.955	1114.516	890.243
375.956	28.945	1114.059	889.750
376.971	28.943	1113.857	889.502
377.986	28.839	1113.583	888.702
379.000	29.018	1112.518	888.637
380.015	28.922	1112.566	888.135
381.029	29.081	1111.260	887.778
382.044	29.044	1110.364	886.807
383.059	29.003	1110.019	886.256
384.073	28.996	1109.274	885.549
385.088	29.073	1108.454	885.185
386.102	29.037	1107.480	884.155
387.117	29.010	1106.978	883.548
388.132	28.894	1106.332	882.399
389.146	29.048	1105.650	882.516
390.161	29.135	1104.572	881.992
391.175	29.108	1104.253	881.530
392.190	29.031	1103.786	880.709
393.205	29.162	1102.880	880.535
394.219	29.054	1102.113	879.332
395.234	29.223	1101.036	879.197
396.248	29.238	1100.224	878.545
397.263	29.171	1099.905	877.892
398.278	29.112	1099.406	877.137
399.292	29.134	1098.701	876.599
400.307	29.338	1097.914	876.866
401.321	29.253	1097.265	875.863
402.336	29.155	1096.814	874.963
403.350	29.273	1096.164	874.929
404.365	29.172	1095.466	873.813
405.380	29.191	1094.827	873.317
406.394	29.224	1093.708	872.503
407.409	29.338	1093.175	872.539
408.423	29.359	1092.383	871.930
409.438	29.418	1091.637	871.534
410.453	29.444	1091.090	871.145
411.467	29.461	1090.163	870.408
412.482	29.382	1089.460	869.397
413.496	29.376	1089.058	868.973
414.511	29.355	1088.740	868.540
415.526	29.394	1088.320	868.314
416.540	29.519	1087.495	868.166
417.555	29.507	1087.177	867.780
418.569	29.368	1086.915	866.839
419.584	29.568	1086.382	867.278
420.599	29.525	1086.003	866.698
421.613	102.773	1320.048	1449.838
422.628	95.694	1354.143	1449.953
