DTS Sentinel unit serial number:	SN413079Multiplexer serial number:	ORYXHardware model number:	OX4-SRSoftware version number:	ORYX F/W v4.00 Oryx Data Collector v3.7.2.0data status	okinstallation	princeton_trtdifferential loss correction	single-endedforward channel	channel 2reverse channel	N/Adate	2019/09/11time	09:05:11forward acquisition time	60.00reverse acquisition time	0.00gamma	496.2192k internal	0.2318k external	0.2318temperature offset calibration	0.9972default loss term (dB/km)	0.3790temperature slope calibration	1.0000multiplexer offset coefficient	1.0000multiplexer slope coefficient	1.0000fibre end	0.00T internal ref (°C)	34.19T ext. ref 1 (°C)	0.10T ext. ref 2 (°C)	30.31length (m)	temperature (°C)	Stokes	anti-Stokes-747.200	34.840	0.107	0.094
-746.185	-44.146	0.063	-0.032
-745.171	86.319	0.035	-0.039
-744.156	619.698	-0.120	-0.304
-743.142	169.135	0.113	0.163
-742.127	-109.651	-0.100	-0.021
-741.112	-132.346	0.188	0.025
-740.098	417.428	-0.076	-0.164
-739.083	-22.930	-0.017	0.010
-738.069	-71.835	-0.043	0.016
-737.054	100.766	-0.142	0.167
-736.039	83.345	-0.286	0.316
-735.025	-200.000	0.021	0.373
-734.010	-63.262	-0.225	-0.094
-732.996	-58.617	-0.141	-0.062
-731.981	-151.789	-0.181	0.013
-730.966	107.198	0.065	0.078
-729.952	-55.786	-0.114	-0.052
-728.937	72.668	-0.144	0.152
-727.923	75.173	-0.126	0.134
-726.908	-51.791	-0.040	0.019
-725.894	-200.000	-0.030	-0.194
-724.879	-52.417	-0.296	-0.138
-723.864	-10.109	-0.203	0.136
-722.850	108.540	-0.254	-0.307
-721.835	-200.000	0.000	-0.187
-720.821	61.210	0.159	-0.159
-719.806	-56.208	-0.315	0.142
-718.791	-12.464	0.155	-0.102
-717.777	79.984	-0.276	-0.300
-716.762	171.245	-0.083	-0.120
-715.748	-58.867	-0.177	-0.077
-714.733	32.976	0.249	0.218
-713.718	30.668	0.390	-0.337
-712.704	215.181	0.078	0.125
-711.689	44.295	-0.173	-0.160
-710.675	-200.000	-0.033	-0.259
-709.660	161.086	0.177	-0.251
-708.645	-200.000	-0.078	-0.434
-707.631	-13.784	0.209	0.137
-706.616	141.497	0.236	0.316
-705.602	77.471	0.184	-0.198
-704.587	-58.105	-0.297	-0.131
-703.572	-14.116	-0.246	-0.160
-702.558	245.697	0.145	-0.247
-701.543	-200.000	-0.054	0.332
-700.529	-5.716	0.181	-0.126
-699.514	-36.783	-0.599	-0.325
-698.499	-52.282	0.078	-0.037
-697.485	-49.608	0.041	0.020
-696.470	-190.664	0.281	0.003
-695.456	88.633	-0.396	-0.445
-694.441	-144.664	0.302	-0.028
-693.426	-92.050	0.152	-0.043
-692.412	-200.000	-0.007	-0.173
-691.397	102.022	-0.171	0.201
-690.383	-183.936	-0.275	-0.005
-689.368	800.000	0.088	-0.266
-688.354	800.000	0.089	0.269
-687.339	-125.002	0.166	-0.026
-686.324	800.000	0.076	-0.291
-685.310	-200.000	-0.199	0.000
-684.295	-200.000	-0.021	0.191
-683.281	7.887	0.069	-0.052
-682.266	-200.000	-0.001	0.055
-681.251	81.022	-0.021	0.022
-680.237	-168.907	-0.338	0.013
-679.222	-18.682	0.144	0.091
-678.208	434.445	-0.069	-0.152
-677.193	290.482	0.100	-0.183
-676.178	99.276	-0.220	-0.257
-675.164	296.091	-0.073	0.135
-674.149	-95.253	-0.236	-0.064
-673.135	800.000	0.121	-0.391
-672.120	35.480	0.068	0.060
-671.105	-98.703	-0.067	-0.017
-670.091	-91.606	-0.109	-0.031
-669.076	-200.000	-0.053	-0.256
-668.062	-200.000	-0.023	-0.387
-667.047	-63.555	0.070	-0.029
-666.032	295.290	-0.104	0.192
-665.018	-200.000	0.200	-0.000
-664.003	-25.013	0.092	0.055
-662.989	403.280	-0.013	-0.028
-661.974	-200.000	-0.050	-0.000
-660.959	-79.895	-0.261	0.089
-659.945	420.330	-0.119	-0.258
-658.930	0.365	0.027	0.020
-657.916	75.160	-0.175	-0.187
-656.901	-54.719	-0.337	-0.154
-655.886	-108.400	-0.079	-0.017
-654.872	-200.000	0.006	-0.333
-653.857	-60.322	-0.370	0.159
-652.843	-24.469	-0.231	-0.139
-651.828	52.862	0.063	0.061
-650.814	200.754	0.223	-0.346
-649.799	200.951	0.243	-0.378
-648.784	760.445	-0.029	-0.078
-647.770	181.648	-0.126	-0.187
-646.755	-90.427	-0.301	-0.088
-645.741	61.283	0.144	-0.144
-644.726	-89.526	0.090	-0.027
-643.711	-200.000	-0.058	-0.288
-642.697	800.000	0.112	-0.345
-641.682	5.079	0.063	0.047
-640.668	275.873	0.122	0.219
-639.653	-22.740	0.340	-0.207
-638.638	15.642	0.193	0.153
-637.624	-12.681	-0.171	0.113
-636.609	153.258	-0.144	0.198
-635.595	-22.155	0.274	0.168
-634.580	-79.138	-0.194	0.066
-633.565	-140.910	0.230	-0.024
-632.551	308.773	0.160	0.301
-631.536	-145.612	0.326	0.029
-630.522	84.688	-0.094	0.104
-629.507	23.524	-0.194	0.160
-628.492	9.763	0.167	0.128
-627.478	-47.039	-0.140	-0.069
-626.463	-158.607	-0.392	-0.023
-625.449	421.449	-0.066	-0.143
-624.434	-71.505	-0.246	0.093
-623.419	-106.133	0.106	0.024
-622.405	-34.989	0.142	-0.078
-621.390	97.240	0.115	-0.133
-620.376	43.508	0.109	0.101
-619.361	-157.698	0.177	0.011
-618.346	800.000	-0.117	0.357
-617.332	-200.000	0.014	-0.254
-616.317	800.000	-0.095	0.314
-615.303	-200.000	0.005	0.405
-614.288	-9.755	0.103	-0.069
-613.273	3.531	0.246	-0.180
-612.259	-200.000	0.005	-0.541
-611.244	-200.000	-0.015	-0.140
-610.230	189.457	-0.178	0.268
-609.215	-101.265	-0.190	0.047
-608.201	-71.689	0.444	-0.167
-607.186	140.275	0.280	-0.373
-606.171	58.144	0.324	-0.319
-605.157	-87.480	0.066	-0.020
-604.142	134.339	-0.102	-0.133
-603.128	6.046	-0.126	-0.094
-602.113	109.819	0.245	-0.296
-601.098	-74.110	-0.165	-0.060
-600.084	-81.517	-0.377	0.125
-599.069	-13.594	0.176	-0.115
-598.055	129.326	0.135	-0.173
-597.040	-70.469	-0.174	-0.066
-596.025	-200.000	0.004	-0.019
-595.011	-161.376	0.440	0.023
-593.996	101.329	-0.030	0.035
-592.982	-84.766	0.064	-0.020
-591.967	800.000	-0.098	-0.350
-590.952	800.000	0.055	-0.209
-589.938	-200.000	0.009	0.059
-588.923	118.771	0.043	0.053
-587.909	-200.000	0.015	0.090
-586.894	-200.000	0.023	0.168
-585.879	-200.000	0.060	0.406
-584.865	800.000	-0.082	0.246
-583.850	21.123	0.135	-0.110
-582.836	300.223	-0.091	0.170
-581.821	-117.228	-0.549	-0.100
-580.806	-64.981	0.045	-0.018
-579.792	61.244	-0.116	0.116
-578.777	-200.000	0.016	0.086
-577.763	512.102	0.014	0.034
-576.748	-170.985	-0.080	0.003
-575.733	800.000	-0.012	0.049
-574.719	-180.274	-0.334	0.007
-573.704	2.139	0.146	0.106
-572.690	800.000	-0.127	-0.468
-571.675	502.784	-0.020	0.046
-570.661	-50.137	-0.391	-0.186
-569.646	9.646	0.135	0.103
-568.631	-112.144	0.139	0.028
-567.617	-2.191	-0.141	0.100
-566.602	-113.715	-0.338	-0.066
-565.588	168.089	-0.025	0.036
-564.573	71.796	0.240	-0.251
-563.558	60.685	0.094	-0.094
-562.544	21.419	-0.350	0.286
-561.529	140.238	-0.067	-0.088
-560.515	81.703	0.064	0.070
-559.500	296.903	0.069	-0.127
-558.485	3.356	-0.201	0.147
-557.471	-118.038	-0.057	0.010
-556.456	800.000	-0.064	-0.225
-555.442	-144.338	-0.275	-0.026
-554.427	-141.585	-0.226	-0.023
-553.412	-52.006	-0.017	-0.008
-552.398	16.174	-0.214	0.170
-551.383	20.178	-0.300	0.243
-550.369	-182.834	0.159	0.003
-549.354	59.956	0.255	0.253
-548.339	173.588	-0.263	0.382
-547.325	-71.512	-0.189	-0.071
-546.310	-146.700	-0.161	-0.014
-545.296	-75.389	-0.144	0.052
-544.281	-200.000	0.031	-0.190
-543.266	61.611	0.027	0.027
-542.252	56.431	0.215	0.210
-541.237	128.510	-0.126	0.161
-540.223	460.104	-0.049	0.110
-539.208	100.793	-0.149	0.174
-538.193	-111.271	-0.290	0.060
-537.179	-76.060	-0.253	0.090
-536.164	327.483	-0.099	0.190
-535.150	-135.906	0.014	-0.002
-534.135	-88.747	-0.051	-0.015
-533.121	-200.000	-0.001	0.047
-532.106	52.078	0.174	-0.167
-531.091	103.144	0.127	-0.149
-530.077	234.339	-0.027	0.045
-529.062	-122.544	-0.270	-0.044
-528.048	31.764	0.125	-0.108
-527.033	-170.103	-0.182	0.006
-526.018	361.441	0.176	0.354
-525.004	800.000	0.073	0.228
-523.989	-140.744	-0.361	0.037
-522.975	-47.375	0.216	-0.105
-521.960	47.337	0.205	-0.192
-520.945	800.000	0.019	-0.076
-519.931	800.000	0.084	-0.274
-518.916	37.715	-0.402	0.358
-517.902	113.128	0.094	-0.115
-516.887	115.862	0.026	-0.032
-515.872	-200.000	0.028	0.128
-514.858	135.174	-0.062	0.081
-513.843	673.615	0.082	-0.213
-512.829	144.327	0.233	-0.311
-511.814	-27.145	-0.207	-0.121
-510.799	112.048	0.203	-0.246
-509.785	-200.000	-0.047	-0.327
-508.770	-10.187	-0.096	-0.064
-507.756	472.882	-0.035	0.078
-506.741	634.039	0.038	-0.096
-505.726	800.000	-0.036	-0.142
-504.712	135.773	-0.117	-0.152
-503.697	-200.000	-0.011	0.078
-502.683	-51.258	-0.191	-0.090
-501.668	-122.887	-0.154	-0.025
-500.653	-200.000	0.009	-0.059
-499.639	-200.000	0.003	0.035
-498.624	-164.183	-0.243	0.011
-497.610	800.000	-0.040	0.157
-496.595	-200.000	-0.004	-0.204
-495.581	-75.034	0.344	0.124
-494.566	108.492	-0.100	-0.119
-493.551	45.089	0.177	0.164
-492.537	-109.171	0.345	0.074
-491.522	340.032	-0.174	0.339
-490.508	-200.000	-0.020	0.107
-489.493	183.543	0.064	0.095
-488.478	-200.000	0.098	-0.499
-487.464	-28.924	0.193	0.111
-486.449	4.916	0.186	0.137
-485.435	-43.248	-0.234	-0.119
-484.420	215.340	0.111	0.176
-483.405	-19.004	-0.249	-0.155
-482.391	-16.239	-0.206	-0.131
-481.376	-88.981	-0.157	0.047
-480.362	-0.775	-0.269	0.191
-479.347	-83.347	0.225	0.072
-478.332	158.554	-0.074	0.103
-477.318	178.266	0.121	-0.177
-476.303	-143.994	0.166	-0.016
-475.289	-86.139	-0.107	-0.033
-474.274	-180.805	0.192	-0.004
-473.259	225.091	-0.194	-0.314
-472.245	268.829	-0.165	-0.289
-471.230	76.944	0.138	-0.147
-470.216	41.777	-0.162	-0.147
-469.201	234.519	0.080	-0.132
-468.186	-200.000	-0.039	0.246
-467.172	782.687	0.035	-0.097
-466.157	800.000	0.027	-0.089
-465.143	197.914	0.200	0.306
-464.128	800.000	0.027	0.105
-463.113	233.700	0.231	0.380
-462.099	-11.058	0.150	0.099
-461.084	800.000	-0.029	0.086
-460.070	201.524	-0.049	-0.076
-459.055	-111.747	-0.113	-0.023
-458.040	-147.817	-0.171	-0.014
-457.026	-119.491	-0.346	0.060
-456.011	-169.218	-0.134	-0.005
-454.997	-106.978	0.102	-0.022
-453.982	202.537	-0.203	0.314
-452.968	-88.090	-0.072	0.022
-451.953	-200.000	-0.036	0.300
-450.938	800.000	0.100	-0.412
-449.924	-200.000	0.047	-0.476
-448.909	6.498	-0.292	-0.217
-447.895	-35.044	-0.150	0.082
-446.880	-60.103	0.189	0.080
-445.865	-200.000	-0.019	0.298
-444.851	-96.152	0.232	-0.062
-443.836	800.000	-0.084	0.266
-442.822	18.108	-0.169	0.135
-441.807	800.000	-0.108	0.317
-440.792	-22.918	0.315	0.190
-439.778	-74.317	-0.409	0.148
-438.763	-97.369	-0.249	0.065
-437.749	253.443	-0.069	-0.118
-436.734	-158.597	-0.328	0.019
-435.719	-200.000	-0.072	-0.341
-434.705	243.026	-0.169	-0.283
-433.690	3.980	-0.257	-0.188
-432.676	10.672	0.226	-0.173
-431.661	-27.659	0.221	-0.128
-430.646	-64.452	-0.433	-0.176
-429.632	-25.462	-0.429	0.254
-428.617	-101.115	-0.462	-0.113
-427.603	-200.000	0.001	-0.271
-426.588	-200.000	-0.012	-0.153
-425.573	23.378	0.025	-0.021
-424.559	-135.085	0.169	0.020
-423.544	-42.640	-0.213	-0.109
-422.530	-111.315	-0.122	0.025
-421.515	14.485	0.132	0.103
-420.500	-106.882	-0.236	0.052
-419.486	4.121	0.218	-0.159
-418.471	86.068	0.206	0.226
-417.457	-200.000	0.015	-0.284
-416.442	82.842	0.287	-0.311
-415.428	-58.528	-0.094	0.041
-414.413	281.304	-0.093	-0.167
-413.398	-113.878	0.263	0.051
-412.384	-134.662	-0.177	0.022
-411.369	265.910	0.078	-0.137
-410.355	-200.000	0.022	0.202
-409.340	46.501	-0.213	-0.198
-408.325	-124.092	-0.206	0.032
-407.311	-1.108	0.235	-0.166
-406.296	-28.480	-0.351	-0.202
-405.282	69.066	0.333	0.342
-404.267	209.638	0.243	0.380
-403.252	87.534	0.042	0.046
-402.238	-160.453	0.342	0.018
-401.223	-200.000	-0.007	0.182
-400.209	-200.000	-0.234	0.000
-399.194	-96.337	0.187	-0.049
-398.179	-200.000	-0.085	0.492
-397.165	800.000	-0.119	0.327
-396.150	14.840	-0.218	0.170
-395.136	-74.872	0.356	0.128
-394.121	-98.993	0.212	-0.054
-393.106	-75.469	0.331	-0.118
-392.092	30.179	0.166	0.141
-391.077	28.880	-0.046	-0.039
-390.063	54.369	0.089	-0.085
-389.048	160.148	0.211	0.294
-388.033	-200.000	0.007	-0.143
-387.019	77.410	0.143	-0.151
-386.004	4.246	-0.084	-0.062
-384.990	-32.792	0.309	0.171
-383.975	364.913	-0.041	0.083
-382.960	-200.000	0.011	0.287
-381.946	498.937	0.094	0.215
-380.931	-200.000	-0.173	-0.001
-379.917	-107.107	-0.246	-0.054
-378.902	-0.776	0.445	-0.315
-377.888	240.651	0.166	-0.276
-376.873	55.778	0.197	-0.190
-375.858	169.812	0.175	0.249
-374.844	346.456	-0.136	-0.267
-373.829	-62.956	-0.046	0.019
-372.815	236.987	-0.089	-0.147
-371.800	800.000	-0.055	-0.192
-370.785	481.828	-0.056	-0.126
-369.771	800.000	-0.040	-0.116
-368.756	86.988	-0.195	-0.215
-367.742	-78.476	0.142	0.048
-366.727	-29.824	0.190	-0.108
-365.712	98.511	-0.051	0.058
-364.698	800.000	0.023	-0.064
-363.683	800.000	-0.026	0.082
-362.669	-200.000	-0.016	0.193
-361.654	-16.842	-0.248	0.156
-360.639	230.929	-0.207	-0.338
-359.625	-176.115	0.127	-0.003
-358.610	230.062	0.123	-0.201
-357.596	-26.440	-0.450	-0.263
-356.581	49.262	0.225	0.211
-355.566	800.000	-0.013	0.049
-354.552	-200.000	0.029	-0.250
-353.537	242.562	-0.148	-0.248
-352.523	-200.000	0.012	0.099
-351.508	248.717	0.038	0.065
-350.493	188.476	-0.137	-0.204
-349.479	387.499	-0.045	0.094
-348.464	668.118	-0.051	0.131
-347.450	253.622	0.056	-0.096
-346.435	-200.000	0.003	-0.049
-345.420	-200.000	-0.002	0.138
-344.406	-200.000	0.040	0.211
-343.391	252.303	0.105	-0.178
-342.377	-200.000	0.023	-0.148
-341.362	269.027	0.258	-0.451
-340.348	177.493	-0.160	0.232
-339.333	285.350	-0.116	0.209
-338.318	-140.415	-0.453	-0.047
-337.304	-67.879	0.264	0.103
-336.289	-200.000	-0.022	0.100
-335.275	800.000	0.069	0.201
-334.260	11.873	0.217	-0.166
-333.245	-110.438	-0.221	-0.046
-332.231	-117.088	0.482	-0.087
-331.216	-44.173	0.144	-0.072
-330.202	-200.000	0.056	-0.281
-329.187	-54.017	-0.056	-0.025
-328.172	-159.349	-0.437	-0.024
-327.158	-112.836	0.176	-0.035
-326.143	-56.459	0.161	0.071
-325.129	-58.969	-0.288	-0.124
-324.114	-200.000	0.025	0.381
-323.099	-2.605	0.250	0.174
-322.085	587.938	0.196	-0.480
-321.070	233.237	-0.021	-0.034
-320.056	279.156	-0.249	0.442
-319.041	-136.785	0.496	0.057
-318.026	-200.000	0.002	0.186
-317.012	324.736	-0.152	0.289
-315.997	-200.000	-0.035	0.257
-314.983	-137.930	0.166	0.018
-313.968	159.045	-0.227	-0.315
-312.953	-105.617	-0.406	-0.091
-311.939	-138.907	-0.069	0.008
-310.924	-10.081	-0.169	0.112
-309.910	-104.142	0.221	-0.051
-308.895	386.899	0.215	-0.443
-307.880	800.000	-0.010	-0.027
-306.866	125.966	0.101	0.127
-305.851	306.883	-0.165	-0.306
-304.837	-200.000	-0.074	-0.337
-303.822	-44.073	-0.218	0.109
-302.807	-200.000	-0.086	0.587
-301.793	-200.000	-0.011	-0.203
-300.778	-3.603	-0.159	0.110
-299.764	800.000	-0.112	0.311
-298.749	-118.761	0.139	-0.024
-297.735	-200.000	0.008	0.094
-296.720	8.901	0.102	0.077
-295.705	-200.000	-0.002	-0.030
-294.691	-75.751	-0.428	0.151
-293.676	61.744	-0.152	-0.150
-292.662	0.993	-0.126	0.090
-291.647	-22.983	-0.375	-0.225
-290.632	-127.815	0.269	-0.039
-289.618	-62.215	-0.266	-0.110
-288.603	800.000	0.043	-0.160
-287.589	-107.883	-0.227	0.049
-286.574	-200.000	-0.025	0.194
-285.559	51.171	0.081	0.077
-284.545	-200.000	-0.006	0.316
-283.530	800.000	0.071	0.232
-282.516	800.000	0.062	0.176
-281.501	-138.131	0.365	-0.040
-280.486	-146.415	-0.078	0.007
-279.472	-81.532	0.151	-0.049
-278.457	286.008	-0.192	0.345
-277.443	7.982	0.153	0.114
-276.428	-32.163	0.193	-0.107
-275.413	644.887	-0.092	0.233
-274.399	55.974	0.236	-0.228
-273.384	-200.000	-0.004	0.183
-272.370	-200.000	-0.003	0.117
-271.355	-152.376	0.185	-0.013
-270.340	-163.240	0.192	-0.009
-269.326	558.833	0.124	-0.298
-268.311	79.261	0.173	0.184
-267.297	12.661	0.240	0.184
-266.282	-134.267	0.113	0.014
-265.267	282.294	0.128	-0.228
-264.253	-101.534	0.312	0.075
-263.238	-97.981	0.142	-0.036
-262.224	-102.934	-0.149	0.035
-261.209	543.615	0.064	-0.153
-260.195	-200.000	-0.030	0.222
-259.180	-200.000	-0.018	0.124
-258.165	-141.686	0.111	-0.011
-257.151	39.836	0.348	-0.310
-256.136	612.619	0.049	-0.122
-255.122	-64.530	0.241	0.097
-254.107	-200.000	0.003	-0.117
-253.092	4.969	0.180	-0.132
-252.078	800.000	-0.005	-0.019
-251.063	-118.363	-0.338	-0.060
-250.049	44.126	0.138	0.126
-249.034	-183.659	-0.125	-0.002
-248.019	20.497	0.272	0.219
-247.005	-22.672	-0.218	0.131
-245.990	-9.512	0.280	0.186
-244.976	309.302	0.123	-0.229
-243.961	-200.000	-0.000	-0.360
-242.946	-97.379	0.218	-0.056
-241.932	-200.000	-0.027	0.218
-240.917	-110.851	-0.170	-0.035
-239.903	-200.000	0.009	0.156
-238.888	-200.000	0.001	0.062
-237.873	-200.000	0.023	0.120
-236.859	-15.246	0.295	-0.187
-235.844	-200.000	0.013	0.108
-234.830	491.527	0.110	0.249
-233.815	-137.330	-0.182	0.021
-232.800	-200.000	0.011	0.214
-231.786	-200.000	-0.015	-0.194
-230.771	429.753	0.104	0.223
-229.757	-114.648	0.101	0.019
-228.742	190.464	0.162	-0.241
-227.727	800.000	-0.062	0.228
-226.713	-65.021	-0.109	-0.044
-225.698	-112.176	0.343	-0.068
-224.684	-161.411	0.230	-0.012
-223.669	251.367	0.139	0.234
-222.655	-11.444	-0.037	-0.024
-221.640	-11.870	-0.225	0.146
-220.625	-51.290	0.081	-0.038
-219.611	-200.000	0.048	-0.248
-218.596	364.782	-0.108	0.215
-217.582	-74.961	0.202	0.072
-216.567	257.689	-0.062	0.107
-215.552	-134.338	-0.182	-0.022
-214.538	-190.760	0.343	-0.004
-213.523	602.981	0.091	-0.223
-212.509	221.415	0.118	0.189
-211.494	-6.039	-0.203	0.137
-210.479	-47.991	-0.406	-0.195
-209.465	-200.000	0.033	-0.159
-208.450	800.000	0.076	-0.209
-207.436	-67.027	-0.149	0.058
-206.421	-200.000	0.008	-0.150
-205.406	287.359	0.166	-0.297
-204.392	55.340	0.227	0.218
-203.377	-200.000	-0.023	-0.190
-202.363	800.000	0.020	-0.078
-201.348	-200.000	-0.032	0.309
-200.333	800.000	0.062	-0.237
-199.319	-93.229	-0.178	0.049
-198.304	-200.000	0.021	-0.121
-197.290	800.000	0.073	-0.311
-196.275	112.882	0.061	-0.073
-195.260	71.204	-0.033	-0.034
-194.246	-200.000	0.052	0.370
-193.231	52.762	-0.235	-0.222
-192.217	-80.717	0.394	0.130
-191.202	-50.304	-0.134	-0.063
-190.187	-200.000	-0.030	0.171
-189.173	739.468	0.091	0.241
-188.158	-200.000	-0.009	0.300
-187.144	-87.573	-0.438	0.131
-186.129	255.254	-0.176	-0.298
-185.114	374.032	-0.213	-0.430
-184.100	83.724	0.143	-0.155
-183.085	510.349	0.113	-0.260
-182.071	374.044	0.068	0.137
-181.056	-200.000	0.051	-0.356
-180.042	-41.995	-0.138	0.070
-179.027	69.851	-0.275	0.281
-178.012	800.000	-0.112	0.407
-176.998	-200.000	-0.004	0.182
-175.983	301.961	-0.135	-0.247
-174.969	-99.129	0.149	0.037
-173.954	115.169	0.068	0.082
-172.939	-115.746	0.153	0.028
-171.925	64.868	-0.170	-0.170
-170.910	-200.000	-0.011	0.294
-169.896	29.551	-0.289	0.244
-168.881	-200.000	-0.237	0.001
-167.866	250.589	0.048	-0.080
-166.852	-200.000	0.041	-0.269
-165.837	40.418	0.169	0.150
-164.823	-200.000	-0.013	0.118
-163.808	-177.478	0.371	0.009
-162.793	-178.361	-0.010	-0.000
-161.779	-200.000	0.015	-0.127
-160.764	-200.000	0.009	0.109
-159.750	-200.000	0.026	0.288
-158.735	-164.107	0.024	0.001
-157.720	269.615	0.150	0.261
-156.706	-123.928	0.062	-0.010
-155.691	21.140	0.037	-0.030
-154.677	-157.593	0.392	0.023
-153.662	-91.927	-0.330	-0.092
-152.647	-26.128	0.357	0.207
-151.633	800.000	-0.052	-0.206
-150.618	-89.942	-0.313	0.090
-149.604	-200.000	-0.014	0.162
-148.589	-77.980	-0.244	-0.083
-147.574	80.107	0.120	-0.128
-146.560	-200.000	0.011	0.235
-145.545	192.935	0.147	-0.220
-144.531	49.925	-0.200	-0.187
-143.516	57.542	0.071	0.068
-142.502	-116.141	0.310	0.057
-141.487	79.086	0.062	-0.065
-140.472	-73.508	0.256	0.092
-139.458	16.799	0.135	-0.106
-138.443	-111.076	0.271	-0.055
-137.429	800.000	0.117	0.398
-136.414	-200.000	-0.014	0.151
-135.399	32.212	0.099	-0.085
-134.385	-80.365	0.030	-0.010
-133.370	-99.386	-0.224	0.056
-132.356	-80.289	-0.278	0.092
-131.341	-200.000	-0.030	0.241
-130.326	77.438	0.141	0.148
-129.312	85.658	0.187	-0.203
-128.297	196.792	-0.127	0.191
-127.283	-200.000	-0.009	0.124
-126.268	-118.558	0.184	0.032
-125.253	7.868	0.144	0.106
-124.239	44.420	0.271	0.246
-123.224	569.022	-0.029	0.068
-122.210	-143.908	-0.116	-0.011
-121.195	-200.000	-0.020	0.221
-120.180	127.992	0.060	-0.076
-119.166	126.883	-0.134	-0.167
-118.151	-93.943	0.137	-0.037
-117.137	-162.844	0.070	0.003
-116.122	-200.000	0.035	-0.284
-115.107	-200.000	0.006	0.057
-114.093	105.529	0.124	0.145
-113.078	10.559	-0.234	0.176
-112.064	-0.796	-0.124	-0.087
-111.049	-167.067	-0.205	0.008
-110.034	73.183	0.223	0.230
-109.020	182.967	-0.051	-0.074
-108.005	-200.000	0.006	0.029
-106.991	800.000	-0.049	-0.166
-105.976	-6.493	0.233	0.157
-104.962	270.565	-0.148	0.256
-103.947	56.885	0.218	0.210
-102.932	222.496	-0.096	-0.153
-101.918	800.000	0.073	0.268
-100.903	-50.935	0.215	0.100
-99.889	718.647	0.056	0.148
-98.874	-62.634	0.387	-0.159
-97.859	-157.174	0.108	-0.006
-96.845	-72.851	-0.189	0.069
-95.830	800.000	-0.054	0.182
-94.816	771.696	0.124	0.333
-93.801	800.000	0.074	0.236
-92.786	70.290	0.197	0.201
-91.772	-1.293	-0.284	0.198
-90.757	444.195	-0.053	0.115
-89.743	209.990	-0.124	-0.191
-88.728	-29.726	-0.088	0.050
-87.713	-8.086	-0.321	0.213
-86.699	332.081	0.073	0.138
-85.684	312.457	0.097	0.180
-84.670	645.943	0.095	0.239
-83.655	-124.898	-0.042	-0.006
-82.640	-107.588	-0.365	-0.079
-81.626	166.214	-0.099	-0.138
-80.611	201.944	0.098	-0.149
-79.597	-34.771	0.137	0.074
-78.582	-21.396	-0.317	0.191
-77.567	310.675	0.144	0.267
-76.553	800.000	-0.034	0.118
-75.538	159.234	-0.185	0.254
-74.524	-65.508	0.451	-0.179
-73.509	125.958	0.021	0.026
-72.494	-159.397	0.276	-0.015
-71.480	3.752	-0.164	-0.118
-70.465	-200.000	0.046	-0.217
-69.451	270.802	0.112	0.194
-68.436	293.042	0.052	-0.094
-67.422	-45.829	0.224	0.109
-66.407	-39.728	-0.156	-0.080
-65.392	46.687	0.056	-0.051
-64.378	-130.259	-0.192	-0.026
-63.363	800.000	-0.077	0.288
-62.349	-200.000	0.044	-0.408
-61.334	25.245	-1.286	-1.053
-60.319	-119.203	0.500	0.086
-59.305	-200.000	-0.149	-0.710
-58.290	109.867	0.823	0.973
-57.276	800.000	0.325	1.374
-56.261	-200.000	97.197	545.817
-55.246	586.914	1395.759	3384.330
-54.232	183.047	2639.956	3840.744
-53.217	112.237	2329.868	2775.466
-52.203	43.756	1938.414	1748.223
-51.188	37.512	1722.726	1505.503
-50.173	34.632	1676.603	1443.399
-49.159	51.175	1726.285	1613.493
-48.144	54.160	1743.606	1652.512
-47.130	37.062	1699.166	1481.237
-46.115	34.241	1683.707	1446.313
-45.100	34.037	1679.303	1440.928
-44.086	34.036	1676.672	1438.607
-43.071	33.946	1673.910	1435.501
-42.057	33.880	1671.991	1433.302
-41.042	34.046	1668.991	1431.925
-40.027	33.961	1667.631	1430.056
-39.013	34.017	1665.576	1428.659
-37.998	33.985	1664.236	1427.219
-36.984	34.002	1662.563	1425.851
-35.969	34.188	1661.190	1426.008
-34.954	34.257	1658.831	1424.443
-33.940	34.100	1658.125	1422.606
-32.925	34.235	1655.555	1421.355
-31.911	34.177	1653.848	1419.399
-30.896	34.158	1652.139	1417.736
-29.881	34.153	1650.752	1416.454
-28.867	34.098	1649.015	1414.495
-27.852	34.174	1647.494	1413.699
-26.838	34.268	1645.694	1412.797
-25.823	34.159	1644.903	1411.251
-24.809	34.193	1643.561	1410.295
-23.794	34.256	1641.684	1409.099
-22.779	34.219	1640.361	1407.635
-21.765	34.247	1638.308	1406.024
-20.750	34.065	1637.288	1403.752
-19.736	34.216	1635.596	1403.356
-18.721	34.216	1633.912	1401.858
-17.706	34.249	1632.359	1400.712
-16.692	34.237	1630.686	1399.131
-15.677	34.203	1629.172	1397.527
-14.663	34.220	1628.186	1396.748
-13.648	34.281	1626.254	1395.487
-12.633	34.337	1625.184	1394.917
-11.619	34.244	1623.325	1392.587
-10.604	34.233	1621.846	1391.182
-9.590	34.288	1620.798	1390.634
-8.575	34.250	1619.034	1388.782
-7.560	34.196	1617.961	1387.419
-6.546	34.253	1616.789	1386.775
-5.531	34.248	1615.861	1385.885
-4.517	34.186	1614.616	1384.308
-3.502	34.178	1613.777	1383.479
-2.487	34.199	1612.059	1382.104
-1.473	34.049	1600.787	1371.301
-0.458	31.530	1581.552	1336.797
0.556	26.436	1582.221	1306.476
1.571	24.191	1607.285	1310.558
2.586	23.618	1620.979	1317.358
3.600	20.592	1565.936	1250.783
4.615	10.547	1450.738	1091.393
5.629	1.772	1382.839	983.739
6.644	0.275	1374.090	967.813
7.659	0.047	1373.039	965.523
8.673	0.029	1371.191	964.022
9.688	0.070	1369.134	962.756
10.702	-0.179	1366.449	959.190
11.717	3.199	1373.889	985.996
12.731	13.304	1393.777	1065.587
13.746	21.396	1407.205	1128.192
14.761	22.980	1409.239	1139.950
15.775	23.147	1409.237	1140.922
16.790	23.208	1408.560	1140.665
17.804	23.383	1407.629	1140.936
18.819	23.604	1407.502	1142.157
19.834	23.654	1406.678	1141.707
20.848	23.594	1406.327	1140.939
21.863	23.589	1405.088	1139.799
22.877	23.605	1404.691	1139.475
23.892	23.635	1403.380	1138.505
24.907	23.617	1403.118	1138.077
25.921	23.665	1401.312	1136.819
26.936	23.736	1400.393	1136.426
27.950	23.644	1399.545	1135.048
28.965	23.660	1398.059	1133.847
29.980	23.620	1396.779	1132.455
30.994	23.602	1396.021	1131.626
32.009	23.545	1394.758	1130.137
33.023	23.501	1393.817	1128.992
34.038	23.686	1392.148	1128.720
35.053	23.596	1391.077	1127.179
36.067	23.680	1389.646	1126.449
37.082	23.508	1389.534	1125.169
38.096	23.625	1388.176	1124.711
39.111	23.598	1387.463	1123.863
40.126	23.656	1386.667	1123.485
41.140	23.597	1386.066	1122.530
42.155	23.601	1386.414	1122.737
43.169	23.563	1386.495	1122.461
44.184	23.654	1385.769	1122.353
45.199	23.705	1384.825	1121.807
46.213	23.693	1384.631	1121.477
47.228	23.676	1383.506	1120.360
48.242	23.613	1382.707	1119.217
49.257	23.674	1380.837	1117.989
50.271	23.697	1379.592	1117.022
51.286	23.586	1378.213	1115.108
52.301	23.597	1377.155	1114.224
53.315	23.558	1376.511	1113.365
54.330	23.472	1375.614	1111.998
55.344	23.639	1373.934	1111.590
56.359	23.627	1373.193	1110.818
57.374	23.575	1372.516	1109.846
58.388	23.567	1372.314	1109.533
59.403	23.641	1371.139	1108.944
60.417	23.558	1370.913	1108.145
61.432	23.538	1370.061	1107.233
62.447	23.646	1369.386	1107.262
63.461	23.593	1368.619	1106.217
64.476	23.652	1367.055	1105.225
65.490	23.615	1366.100	1104.123
66.505	23.674	1364.521	1103.116
67.520	23.668	1362.938	1101.702
68.534	23.658	1362.027	1100.801
69.549	23.547	1361.560	1099.640
70.563	23.696	1360.187	1099.360
71.578	23.684	1359.046	1098.263
72.593	23.675	1357.837	1097.136
73.607	23.650	1357.846	1096.891
74.622	23.775	1356.715	1096.648
75.636	23.647	1356.311	1095.439
76.651	23.701	1355.645	1095.138
77.666	23.635	1354.871	1094.007
78.680	23.645	1354.692	1093.829
79.695	23.626	1353.588	1092.720
80.709	23.692	1352.568	1092.205
81.724	23.646	1352.022	1091.390
82.739	23.621	1350.987	1090.302
83.753	23.576	1350.326	1089.392
84.768	23.653	1348.837	1088.570
85.782	23.685	1347.654	1087.714
86.797	23.656	1346.542	1086.547
87.812	23.669	1345.547	1085.723
88.826	23.686	1344.383	1084.794
89.841	23.686	1343.301	1083.824
90.855	23.723	1342.672	1083.446
91.870	23.706	1341.245	1082.094
92.884	23.604	1341.100	1081.263
93.899	23.534	1340.244	1080.049
94.914	23.666	1338.781	1079.579
95.928	23.644	1338.476	1079.102
96.943	23.631	1338.226	1078.727
97.957	23.764	1336.722	1078.226
98.972	23.697	1335.503	1076.739
99.987	23.587	1335.257	1075.782
101.001	23.708	1333.924	1075.343
102.016	23.661	1332.791	1074.049
103.030	23.802	1331.797	1074.010
104.045	23.689	1331.506	1072.992
105.060	23.756	1330.295	1072.326
106.074	23.768	1328.875	1071.158
107.089	23.781	1327.985	1070.429
108.103	23.706	1327.150	1069.208
109.118	23.762	1326.166	1068.654
110.133	23.720	1325.470	1067.747
111.147	23.794	1323.573	1066.568
112.162	23.797	1322.634	1065.739
113.176	23.843	1321.019	1064.620
114.191	23.722	1320.426	1063.320
115.206	23.895	1318.889	1063.025
116.220	23.789	1318.443	1061.937
117.235	23.773	1317.588	1061.059
118.249	23.696	1316.687	1059.778
119.264	23.835	1315.188	1059.309
120.279	23.718	1315.322	1058.625
121.293	23.761	1314.437	1058.077
122.308	23.843	1313.361	1057.605
123.322	23.806	1312.560	1056.643
124.337	23.771	1311.902	1055.811
125.352	23.810	1310.716	1054.999
126.366	23.969	1309.272	1054.683
127.381	23.921	1308.333	1053.549
128.395	23.815	1307.399	1052.076
129.410	23.961	1306.798	1052.364
130.424	23.836	1306.557	1051.340
131.439	23.759	1305.652	1050.060
132.454	23.731	1304.506	1048.883
133.468	23.768	1303.946	1048.557
134.483	23.836	1303.767	1048.719
135.497	23.814	1302.782	1047.708
136.512	23.791	1301.607	1046.533
137.527	23.793	1300.894	1045.877
138.541	23.710	1299.221	1043.955
139.556	23.821	1297.821	1043.389
140.570	23.831	1296.671	1042.432
141.585	23.827	1295.991	1041.769
142.600	23.797	1294.648	1040.419
143.614	23.733	1294.612	1039.923
144.629	23.729	1293.221	1038.695
145.643	23.771	1291.669	1037.601
146.658	23.724	1290.908	1036.621
147.673	23.737	1289.675	1035.616
148.687	23.698	1289.155	1034.880
149.702	23.747	1287.521	1033.763
150.716	23.731	1286.704	1032.923
151.731	23.731	1285.609	1031.951
152.746	23.698	1285.009	1031.183
153.760	23.768	1283.826	1030.553
154.775	23.717	1282.949	1029.462
155.789	23.714	1281.943	1028.544
156.804	23.686	1280.993	1027.528
157.819	23.748	1279.661	1026.728
158.833	23.786	1278.885	1026.233
159.848	23.825	1278.502	1026.063
160.862	23.869	1277.839	1025.690
161.877	23.773	1276.838	1024.247
162.892	23.912	1275.808	1024.128
163.906	23.879	1275.102	1023.282
164.921	23.840	1274.411	1022.414
165.935	23.904	1273.661	1022.086
166.950	23.864	1273.250	1021.437
167.964	23.890	1272.770	1021.110
168.979	23.889	1272.227	1020.579
169.994	23.823	1271.412	1019.458
171.008	23.996	1270.126	1019.327
172.023	23.947	1269.948	1018.811
173.037	23.898	1269.328	1017.946
174.052	23.899	1268.394	1017.112
175.067	23.845	1268.032	1016.421
176.081	23.933	1266.884	1015.915
177.096	23.838	1266.294	1014.811
178.110	23.952	1264.923	1014.270
179.125	24.018	1263.806	1013.663
180.140	23.912	1263.025	1012.344
181.154	23.999	1261.613	1011.615
182.169	24.012	1260.493	1010.704
183.183	23.949	1259.516	1009.473
184.198	24.022	1258.489	1008.971
185.213	24.012	1258.010	1008.440
186.227	24.064	1257.026	1007.857
187.242	24.043	1255.922	1006.766
188.256	24.039	1254.993	1005.910
189.271	23.944	1254.657	1005.012
190.286	24.056	1253.473	1004.609
191.300	23.892	1253.570	1003.673
192.315	23.883	1253.043	1003.111
193.329	23.931	1252.539	1002.889
194.344	24.067	1251.543	1002.771
195.359	23.984	1251.431	1002.126
196.373	23.963	1250.766	1001.385
197.388	23.848	1250.704	1000.597
198.402	23.826	1250.590	1000.296
199.417	23.925	1249.665	1000.021
200.432	23.961	1248.761	999.414
201.446	23.957	1248.136	998.805
202.461	24.007	1247.252	998.289
203.475	23.980	1246.957	997.811
204.490	24.060	1245.745	997.201
205.504	23.934	1244.742	995.605
206.519	24.077	1244.017	995.739
207.534	24.110	1242.920	994.956
208.548	24.032	1242.096	993.774
209.563	23.996	1241.623	993.106
210.577	23.995	1240.660	992.239
211.592	24.094	1239.179	991.519
212.607	24.126	1238.516	991.078
213.621	24.316	1237.441	991.187
214.636	24.093	1237.540	989.939
215.650	24.125	1236.621	989.294
216.665	24.077	1235.530	988.067
217.680	24.137	1234.470	987.465
218.694	24.192	1233.888	987.218
219.709	24.148	1232.937	986.124
220.723	24.212	1232.239	985.837
221.738	24.124	1231.639	984.779
222.753	24.106	1230.829	983.945
223.767	24.238	1230.160	984.051
224.782	24.161	1230.056	983.457
225.796	24.285	1229.299	983.449
226.811	24.137	1228.903	982.229
227.826	24.207	1227.855	981.691
228.840	24.236	1227.032	981.106
229.855	24.234	1226.700	980.741
230.869	24.162	1226.212	979.868
231.884	24.177	1225.480	979.283
232.899	24.230	1224.662	978.831
233.913	24.204	1224.040	978.107
234.928	24.287	1223.353	977.924
235.942	24.411	1222.585	977.904
236.957	24.332	1221.700	976.676
237.972	24.251	1221.639	976.095
238.986	24.271	1221.144	975.723
240.001	24.276	1220.182	974.899
241.015	24.311	1219.677	974.598
242.030	24.296	1218.817	973.745
243.045	24.316	1218.097	973.194
244.059	24.346	1217.195	972.547
245.074	24.307	1216.600	971.775
246.088	24.393	1215.591	971.349
247.103	24.486	1214.662	971.027
248.117	24.413	1214.065	970.071
249.132	24.438	1213.499	969.664
250.147	24.494	1212.591	969.158
251.161	24.424	1212.038	968.249
252.176	24.387	1211.225	967.315
253.190	24.516	1210.715	967.519
254.205	24.484	1209.742	966.486
255.220	24.428	1209.341	965.777
256.234	24.607	1208.852	966.267
257.249	24.456	1208.088	964.758
258.263	24.432	1207.810	964.318
259.278	24.515	1207.140	964.148
260.293	24.550	1206.578	963.800
261.307	24.453	1206.241	962.922
262.322	24.419	1205.633	962.170
263.336	24.566	1204.540	962.002
264.351	24.500	1204.238	961.320
265.366	24.419	1203.758	960.416
266.380	24.513	1202.808	960.083
267.395	24.468	1202.403	959.430
268.409	24.555	1201.245	958.891
269.424	24.523	1200.844	958.314
270.439	24.641	1200.347	958.463
271.453	24.568	1199.828	957.574
272.468	24.575	1198.601	956.545
273.482	24.579	1197.807	955.851
274.497	24.609	1197.475	955.662
275.512	24.641	1197.178	955.511
276.526	24.637	1196.268	954.675
277.541	24.586	1195.862	953.998
278.555	24.722	1194.844	953.824
279.570	24.694	1194.123	953.017
280.585	24.669	1193.447	952.258
281.599	24.636	1192.595	951.319
282.614	24.461	1191.882	949.738
283.628	24.600	1190.983	949.676
284.643	24.686	1189.992	949.255
285.657	24.541	1189.331	947.879
286.672	24.600	1188.316	947.294
287.687	24.769	1187.373	947.357
288.701	24.710	1187.208	946.830
289.716	24.769	1186.193	946.246
290.730	24.813	1185.220	945.621
291.745	24.776	1185.025	945.185
292.760	24.763	1184.443	944.571
293.774	24.790	1183.929	944.217
294.789	24.893	1183.138	944.048
295.803	24.846	1182.578	943.267
296.818	24.818	1181.897	942.493
297.833	24.800	1181.161	941.728
298.847	24.843	1180.632	941.449
299.862	24.838	1179.803	940.679
300.876	24.699	1179.383	939.533
301.891	24.801	1179.081	939.743
302.906	24.974	1177.898	939.627
303.920	24.946	1177.538	939.106
304.935	24.976	1176.926	938.696
305.949	24.964	1175.976	937.791
306.964	24.796	1175.463	936.420
307.979	24.896	1174.738	936.282
308.993	24.912	1174.227	935.875
310.008	24.938	1173.293	935.181
311.022	24.912	1172.792	934.566
312.037	24.983	1171.768	934.039
313.052	25.089	1170.870	933.790
314.066	24.929	1170.147	932.297
315.081	24.914	1169.600	931.701
316.095	25.078	1168.702	931.757
317.110	25.062	1168.054	931.076
318.125	25.113	1167.131	930.522
319.139	25.163	1166.505	930.202
320.154	25.025	1166.271	929.214
321.168	24.999	1165.472	928.359
322.183	25.063	1165.112	928.326
323.197	25.066	1164.528	927.794
324.212	25.043	1164.175	927.311
325.227	25.097	1163.508	926.973
326.241	25.071	1163.155	926.477
327.256	25.157	1161.814	925.770
328.270	25.118	1161.285	925.066
329.285	25.194	1160.199	924.510
330.300	25.202	1159.675	924.055
331.314	25.129	1158.981	923.040
332.329	25.284	1157.883	922.884
333.343	25.203	1156.980	921.666
334.358	25.171	1156.868	921.330
335.373	25.205	1155.938	920.683
336.387	25.196	1155.184	919.955
337.402	25.236	1154.611	919.621
338.416	25.245	1154.071	919.157
339.431	25.250	1153.074	918.308
340.446	25.197	1152.993	917.892
341.460	25.318	1152.042	917.668
342.475	25.357	1151.263	917.167
343.489	25.247	1150.616	916.008
344.504	25.331	1149.209	915.237
345.519	25.272	1148.839	914.564
346.533	25.392	1147.878	914.327
347.548	25.384	1147.284	913.733
348.562	25.314	1146.561	912.716
349.577	25.391	1146.082	912.650
350.592	25.264	1145.036	911.089
351.606	25.235	1144.491	910.428
352.621	25.425	1143.468	910.499
353.635	25.370	1143.304	910.008
354.650	25.413	1142.387	909.416
355.665	25.355	1141.940	908.685
356.679	25.518	1141.219	908.856
357.694	25.409	1140.949	908.008
358.708	25.383	1140.415	907.372
359.723	25.323	1139.822	906.517
360.738	25.447	1138.629	906.111
361.752	25.379	1137.991	905.183
362.767	25.513	1137.313	905.237
363.781	25.582	1136.792	905.090
364.796	25.538	1136.537	904.585
365.810	25.539	1135.963	904.051
366.825	25.663	1134.895	903.746
367.840	25.621	1134.581	903.205
368.854	25.676	1134.299	903.177
369.869	25.462	1133.745	901.581
370.883	25.689	1132.744	901.843
371.898	25.668	1131.945	901.023
372.913	25.691	1131.329	900.571
373.927	25.630	1130.683	899.672
374.942	25.558	1130.693	899.238
375.956	25.615	1130.068	898.946
376.971	25.689	1129.090	898.460
377.986	25.689	1128.531	897.933
379.000	25.724	1128.417	897.937
380.015	25.779	1127.270	897.218
381.029	25.740	1127.083	896.797
382.044	25.753	1126.107	896.008
383.059	25.893	1125.387	896.048
384.073	25.793	1124.995	895.162
385.088	25.665	1123.934	893.603
386.102	25.765	1123.603	893.758
387.117	25.666	1122.380	892.213
388.132	25.643	1121.723	891.500
389.146	25.843	1120.979	891.817
390.161	25.741	1120.404	890.777
391.175	25.800	1119.900	890.592
392.190	25.762	1118.782	889.436
393.205	25.870	1118.126	889.368
394.219	25.865	1117.571	888.822
395.234	25.906	1116.672	888.232
396.248	25.972	1115.228	887.328
397.263	25.935	1114.784	886.716
398.278	25.961	1114.323	886.398
399.292	26.010	1113.453	885.866
400.307	25.957	1113.385	885.475
401.321	25.899	1112.863	884.698
402.336	25.896	1111.888	883.830
403.350	25.944	1111.417	883.609
404.365	26.071	1110.289	883.260
405.380	26.022	1109.663	882.440
406.394	26.084	1109.145	882.254
407.409	26.163	1107.965	881.626
408.423	26.091	1107.559	880.870
409.438	26.160	1106.735	880.476
410.453	26.126	1106.117	879.738
411.467	26.159	1105.332	879.201
412.482	26.128	1104.825	878.564
413.496	26.131	1104.253	878.046
414.511	26.173	1103.441	877.530
415.526	26.109	1103.087	876.859
416.540	26.127	1102.583	876.468
417.555	26.125	1102.338	876.184
418.569	26.173	1101.964	876.043
419.584	26.218	1101.697	875.974
420.599	26.177	1101.052	875.184
421.613	146.505	1402.887	1793.545
422.628	135.876	1446.861	1793.634
