DTS Sentinel unit serial number:	SN413079Multiplexer serial number:	ORYXHardware model number:	OX4-SRSoftware version number:	ORYX F/W v4.00 Oryx Data Collector v3.7.2.0data status	okinstallation	princeton_trtdifferential loss correction	single-endedforward channel	channel 2reverse channel	N/Adate	2019/09/11time	23:29:11forward acquisition time	60.00reverse acquisition time	0.00gamma	496.2192k internal	0.2325k external	0.2325temperature offset calibration	1.0079default loss term (dB/km)	0.3790temperature slope calibration	1.0000multiplexer offset coefficient	1.0000multiplexer slope coefficient	1.0000fibre end	0.00T internal ref (°C)	34.25T ext. ref 1 (°C)	1.89T ext. ref 2 (°C)	28.28length (m)	temperature (°C)	Stokes	anti-Stokes-747.200	-80.343	0.177	-0.060
-746.185	800.000	-0.048	0.171
-745.171	-13.271	0.136	-0.089
-744.156	-200.000	0.010	0.108
-743.142	800.000	-0.071	-0.203
-742.127	-105.044	-0.349	0.081
-741.112	50.659	0.135	0.129
-740.098	-200.000	0.071	0.474
-739.083	-200.000	-0.022	0.133
-738.069	-178.522	-0.221	-0.005
-737.054	130.048	-0.254	-0.328
-736.039	800.000	-0.098	-0.276
-735.025	-66.333	-0.413	-0.166
-734.010	-163.568	-0.171	0.008
-732.996	65.626	-0.097	-0.099
-731.981	800.000	-0.004	-0.014
-730.966	130.325	-0.035	0.045
-729.952	30.504	-0.185	0.160
-728.937	-66.951	0.236	-0.094
-727.923	16.938	-0.111	0.089
-726.908	-200.000	0.005	0.102
-725.894	140.233	0.069	-0.092
-724.879	530.031	-0.098	0.233
-723.864	-109.551	-0.250	-0.053
-722.850	-61.394	-0.197	0.084
-721.835	85.106	0.064	0.070
-720.821	-11.416	-0.409	-0.271
-719.806	-200.000	-0.013	-0.230
-718.791	-200.000	0.003	-0.396
-717.777	-140.053	-0.212	-0.023
-716.762	55.400	-0.169	0.165
-715.748	58.553	-0.116	0.115
-714.733	-200.000	-0.039	0.243
-713.718	800.000	0.026	-0.084
-712.704	-150.664	-0.260	-0.020
-711.689	-77.130	0.165	-0.058
-710.675	378.686	0.067	-0.139
-709.660	658.107	0.045	-0.118
-708.645	-156.406	0.329	0.021
-707.631	-72.435	0.266	0.099
-706.616	-109.933	0.083	-0.017
-705.602	35.118	0.064	-0.057
-704.587	120.637	0.107	-0.134
-703.572	104.261	0.072	0.086
-702.558	-200.000	-0.020	0.193
-701.543	-9.327	-0.350	-0.235
-700.529	160.196	-0.047	0.066
-699.514	31.902	0.068	0.059
-698.499	-117.702	-0.116	-0.021
-697.485	22.120	-0.246	-0.203
-696.470	-3.763	0.035	0.025
-695.456	-89.780	0.321	-0.095
-694.441	-140.442	0.182	0.019
-693.426	-200.000	0.031	-0.224
-692.412	-93.613	0.296	0.082
-691.397	-200.000	0.025	0.352
-690.383	434.014	0.063	-0.137
-689.368	-148.705	-0.162	0.013
-688.354	4.533	-0.114	-0.084
-687.339	-78.973	0.207	0.071
-686.324	-200.000	-0.009	0.204
-685.310	-200.000	-0.002	-0.110
-684.295	-200.000	0.047	-0.257
-683.281	110.520	-0.017	0.020
-682.266	-37.952	0.241	-0.129
-681.251	-97.824	-0.240	0.062
-680.237	-118.437	-0.099	0.018
-679.222	800.000	0.057	0.184
-678.208	62.438	0.165	0.166
-677.193	789.212	0.085	0.235
-676.178	-96.337	0.019	-0.005
-675.164	239.292	0.165	-0.277
-674.149	-200.000	0.046	-0.237
-673.135	13.997	-0.071	-0.055
-672.120	-200.000	0.016	0.175
-671.105	1.251	0.104	0.075
-670.091	-75.777	-0.139	-0.050
-669.076	39.159	-0.251	0.226
-668.062	-97.444	0.153	0.040
-667.047	-57.571	-0.257	-0.113
-666.032	-200.000	0.016	0.085
-665.018	-87.230	0.198	-0.060
-664.003	316.646	0.126	-0.239
-662.989	-183.447	0.341	0.006
-661.974	138.678	-0.082	0.108
-660.959	-63.298	0.370	0.153
-659.945	75.232	-0.423	-0.449
-658.930	-115.675	-0.167	-0.032
-657.916	-22.516	0.169	0.103
-656.901	-36.441	-0.097	-0.052
-655.886	-135.518	0.355	-0.042
-654.872	-27.869	0.231	0.135
-653.857	-200.000	-0.014	-0.129
-652.843	645.018	-0.166	-0.427
-651.828	-200.000	-0.017	-0.129
-650.814	28.813	0.163	0.139
-649.799	-115.121	-0.118	0.022
-648.784	-119.468	-0.215	-0.037
-647.770	-200.000	0.053	-0.273
-646.755	-92.906	0.245	0.069
-645.741	-200.000	-0.007	0.414
-644.726	-137.010	-0.288	0.033
-643.711	-51.258	0.292	-0.137
-642.697	105.673	-0.142	0.169
-641.682	-24.188	0.166	0.100
-640.668	-26.676	-0.182	-0.107
-639.653	800.000	0.032	-0.107
-638.638	-200.000	-0.007	-0.045
-637.624	120.020	0.082	0.102
-636.609	290.958	0.076	-0.139
-635.595	-77.035	-0.431	-0.151
-634.580	-200.000	-0.136	-0.001
-633.565	44.215	-0.034	-0.031
-632.551	-87.639	0.137	-0.042
-631.536	-106.357	-0.142	0.032
-630.522	21.240	0.169	-0.138
-629.507	232.842	0.133	-0.220
-628.492	-104.270	0.356	0.083
-627.478	800.000	0.057	0.216
-626.463	-55.158	0.190	0.086
-625.449	-48.436	-0.125	0.060
-624.434	-151.015	0.117	-0.009
-623.419	241.318	0.141	-0.236
-622.405	-122.915	-0.043	0.007
-621.390	-179.258	-0.429	-0.010
-620.376	296.937	0.012	0.021
-619.361	30.111	0.092	-0.079
-618.346	107.543	-0.105	-0.126
-617.332	134.202	0.106	-0.138
-616.317	-16.158	0.243	-0.155
-615.303	-49.243	0.082	-0.039
-614.288	273.095	0.045	-0.080
-613.273	-48.225	0.422	-0.205
-612.259	-200.000	-0.036	-0.172
-611.244	14.818	-0.229	0.180
-610.230	-125.364	-0.158	0.024
-609.215	-157.714	0.058	-0.003
-608.201	240.952	-0.125	-0.210
-607.186	-185.072	0.373	-0.006
-606.171	-73.094	0.103	-0.038
-605.157	569.151	-0.008	-0.019
-604.142	-90.545	-0.150	-0.043
-603.128	-95.453	-0.159	0.043
-602.113	279.021	-0.186	-0.334
-601.098	-200.000	0.031	0.166
-600.084	-83.956	0.183	-0.058
-599.069	355.844	-0.026	0.051
-598.055	-24.809	-0.140	0.083
-597.040	-200.000	0.024	0.237
-596.025	143.601	0.120	0.160
-595.011	92.314	0.144	-0.163
-593.996	163.756	-0.062	-0.088
-592.982	60.677	0.078	-0.077
-591.967	67.189	0.204	0.209
-590.952	63.896	0.088	-0.089
-589.938	-17.075	-0.176	-0.112
-588.923	-200.000	0.024	-0.243
-587.909	-55.434	-0.324	0.146
-586.894	46.408	-0.316	-0.294
-585.879	84.827	0.131	-0.144
-584.865	800.000	-0.026	-0.094
-583.850	800.000	0.127	-0.374
-582.836	35.818	-0.211	-0.186
-581.821	-109.322	0.139	-0.029
-580.806	-70.240	-0.239	0.091
-579.792	63.580	-0.292	0.294
-578.777	470.649	-0.089	0.202
-577.763	-200.000	-0.003	-0.108
-576.748	-155.445	0.186	0.012
-575.733	800.000	-0.031	-0.132
-574.719	-70.782	0.041	0.015
-573.704	-53.281	0.222	0.102
-572.690	800.000	-0.076	-0.237
-571.675	-9.101	0.149	0.100
-570.661	-56.812	0.019	-0.008
-569.646	-140.556	-0.019	0.002
-568.631	265.525	0.092	-0.160
-567.617	800.000	0.031	-0.109
-566.602	6.728	0.205	-0.153
-565.588	-87.999	-0.378	0.114
-564.573	232.252	0.133	0.218
-563.558	-200.000	0.056	0.368
-562.544	-49.743	0.396	-0.189
-561.529	126.562	0.288	0.366
-560.515	-200.000	0.006	0.110
-559.500	-200.000	-0.009	0.295
-558.485	-59.724	0.094	-0.040
-557.471	-82.324	-0.085	-0.028
-556.456	-200.000	0.013	0.165
-555.442	800.000	0.052	-0.207
-554.427	-68.662	-0.115	0.044
-553.412	146.307	-0.132	0.178
-552.398	155.869	0.088	-0.122
-551.383	-93.321	-0.111	0.031
-550.369	52.275	0.212	-0.202
-549.354	36.336	0.167	-0.148
-548.339	-82.224	0.203	0.066
-547.325	-60.157	0.083	0.035
-546.310	612.973	-0.080	-0.200
-545.296	595.398	-0.017	-0.041
-544.281	443.038	-0.216	0.475
-543.266	-200.000	0.024	-0.165
-542.252	-200.000	0.005	-0.093
-541.237	-130.943	0.153	-0.020
-540.223	210.263	0.032	0.051
-539.208	-159.932	-0.393	0.022
-538.193	31.801	-0.266	0.229
-537.179	70.274	-0.215	-0.223
-536.164	73.808	0.075	0.079
-535.150	800.000	0.048	0.164
-534.135	-134.382	0.367	-0.045
-533.121	-17.347	-0.306	0.193
-532.106	-29.721	0.101	-0.057
-531.091	24.183	0.094	0.078
-530.077	136.833	0.116	-0.152
-529.062	-40.775	-0.030	-0.016
-528.048	91.492	0.037	0.041
-527.033	-40.533	0.198	0.103
-526.018	509.844	0.024	0.056
-525.004	-90.573	0.204	0.059
-523.989	-200.000	-0.011	0.161
-522.975	-200.000	0.018	0.349
-521.960	-144.634	-0.184	-0.017
-520.945	62.990	-0.170	0.170
-519.931	50.623	0.128	0.121
-518.916	12.203	-0.152	0.117
-517.902	800.000	-0.031	-0.115
-516.887	-135.122	-0.197	-0.024
-515.872	-132.434	0.246	-0.032
-514.858	117.540	0.053	0.065
-513.843	800.000	-0.053	-0.159
-512.829	-174.224	-0.139	0.004
-511.814	118.129	-0.112	-0.138
-510.799	-53.571	0.118	-0.054
-509.785	800.000	0.091	-0.277
-508.770	499.145	0.098	-0.225
-507.756	-26.078	0.086	-0.051
-506.741	-54.254	-0.104	-0.047
-505.726	-31.165	-0.131	0.074
-504.712	154.830	-0.026	0.035
-503.697	130.027	-0.192	-0.245
-502.683	-200.000	-0.051	-0.351
-501.668	-59.614	0.243	0.104
-500.653	-91.670	0.220	-0.063
-499.639	-120.269	0.098	0.017
-498.624	-190.427	-0.189	-0.002
-497.610	195.962	-0.182	0.277
-496.595	27.255	-0.081	0.068
-495.581	-200.000	-0.081	-0.454
-494.566	779.917	-0.045	-0.123
-493.551	-200.000	-0.018	0.125
-492.537	-174.114	-0.107	0.003
-491.522	-119.558	-0.203	0.035
-490.508	800.000	0.024	0.074
-489.493	125.066	0.202	0.254
-488.478	-76.709	0.153	-0.054
-487.464	141.178	0.185	0.244
-486.449	146.488	-0.118	0.159
-485.435	-200.000	-0.091	-0.448
-484.420	-74.521	-0.138	-0.050
-483.405	493.806	0.071	0.162
-482.391	800.000	0.090	-0.260
-481.376	-156.520	-0.080	-0.005
-480.362	-117.158	-0.035	0.006
-479.347	196.220	0.252	-0.383
-478.332	203.685	-0.045	-0.070
-477.318	93.527	-0.141	-0.159
-476.303	-200.000	-0.029	-0.187
-475.289	-79.971	0.274	-0.092
-474.274	-39.433	0.063	-0.033
-473.259	10.522	-0.249	-0.189
-472.245	-150.577	-0.342	-0.026
-471.230	-200.000	0.020	-0.338
-470.216	301.422	-0.141	-0.260
-469.201	-57.872	-0.079	0.034
-468.186	-38.423	0.134	-0.071
-467.172	162.021	-0.136	0.190
-466.157	467.471	-0.139	0.311
-465.143	-65.125	-0.099	-0.040
-464.128	93.372	-0.070	-0.080
-463.113	37.893	0.159	0.141
-462.099	56.486	0.189	0.184
-461.084	-200.000	-0.039	-0.194
-460.070	16.314	0.061	-0.048
-459.055	80.889	-0.205	0.221
-458.040	218.538	0.234	0.373
-457.026	800.000	-0.104	0.340
-456.011	-49.269	-0.204	-0.097
-454.997	353.800	-0.098	-0.194
-453.982	-200.000	-0.000	0.071
-452.968	84.878	-0.185	-0.202
-451.953	-49.724	-0.332	0.158
-450.938	-109.100	-0.123	-0.026
-449.924	-15.503	-0.087	0.055
-448.909	-127.477	0.181	0.026
-447.895	168.090	0.145	0.206
-446.880	220.497	-0.199	0.318
-445.865	62.997	0.060	0.060
-444.851	193.226	0.013	-0.019
-443.836	800.000	-0.073	-0.203
-442.822	-69.405	-0.142	0.054
-441.807	375.061	-0.103	0.210
-440.792	12.541	0.286	0.220
-439.778	-200.000	-0.016	0.169
-438.763	185.476	0.138	0.205
-437.749	-200.000	-0.002	0.046
-436.734	800.000	0.049	0.175
-435.719	-182.614	0.376	0.007
-434.705	-126.280	0.330	0.049
-433.690	330.391	0.150	0.288
-432.676	-175.959	0.109	0.003
-431.661	-200.000	0.031	0.273
-430.646	800.000	0.047	0.136
-429.632	-165.560	0.126	-0.005
-428.617	-200.000	-0.127	0.665
-427.603	-200.000	0.033	0.213
-426.588	-200.000	-0.017	-0.410
-425.573	-175.403	0.153	0.004
-424.559	-200.000	-0.353	-0.001
-423.544	-115.265	0.013	0.002
-422.530	-200.000	-0.017	-0.112
-421.515	-57.548	0.189	0.083
-420.500	-200.000	-0.036	0.283
-419.486	388.510	-0.172	0.355
-418.471	53.763	-0.096	-0.092
-417.457	-20.959	0.115	0.070
-416.442	-168.998	-0.356	0.013
-415.428	-98.160	-0.165	0.042
-414.413	-200.000	-0.029	-0.218
-413.398	78.642	-0.115	-0.123
-412.384	205.836	0.091	0.141
-411.369	371.584	0.120	-0.243
-410.355	-200.000	-0.031	-0.186
-409.340	-64.317	0.146	-0.059
-408.325	-200.000	0.077	-0.464
-407.311	-200.000	0.056	-0.311
-406.296	800.000	0.093	0.285
-405.282	-200.000	-0.006	-0.266
-404.267	-155.344	-0.471	-0.030
-403.252	190.280	0.055	-0.082
-402.238	-200.000	0.077	0.437
-401.223	161.639	0.083	0.115
-400.209	-200.000	-0.006	-0.331
-399.194	800.000	-0.030	-0.105
-398.179	800.000	0.065	0.199
-397.165	-200.000	-0.017	-0.308
-396.150	203.393	-0.072	0.111
-395.136	800.000	-0.021	-0.075
-394.121	48.594	-0.464	0.433
-393.106	-114.298	-0.101	0.019
-392.092	-111.279	0.245	0.050
-391.077	-200.000	-0.048	0.244
-390.063	-183.687	0.214	-0.004
-389.048	-130.595	-0.057	-0.008
-388.033	-166.164	0.188	-0.008
-387.019	-200.000	0.034	0.224
-386.004	-28.326	-0.256	-0.147
-384.990	182.812	0.193	-0.284
-383.975	-107.396	-0.116	0.025
-382.960	-111.903	-0.278	0.056
-381.946	115.212	-0.135	-0.164
-380.931	-69.264	0.152	0.058
-379.917	187.797	-0.151	0.224
-378.902	371.141	-0.076	-0.154
-377.888	783.277	-0.134	-0.364
-376.873	-104.320	-0.231	0.053
-375.858	-200.000	-0.056	-0.309
-374.844	641.285	0.071	0.181
-373.829	79.684	0.148	0.158
-372.815	125.652	0.027	0.034
-371.800	212.510	0.045	0.070
-370.785	-7.520	-0.299	0.201
-369.771	73.253	0.107	0.111
-368.756	6.909	0.083	-0.062
-367.742	-119.029	-0.338	0.059
-366.727	-34.557	0.113	0.061
-365.712	-200.000	0.012	-0.146
-364.698	-200.000	0.005	0.059
-363.683	800.000	-0.054	0.150
-362.669	103.688	0.106	-0.123
-361.654	-110.978	-0.465	-0.095
-360.639	-80.435	0.067	-0.022
-359.625	-63.027	0.221	0.091
-358.610	-200.000	-0.049	0.254
-357.596	41.306	-0.056	0.050
-356.581	45.921	0.227	-0.208
-355.566	-93.736	-0.106	-0.029
-354.552	800.000	-0.107	-0.306
-353.537	-77.849	-0.337	-0.116
-352.523	-70.861	0.370	-0.138
-351.508	-126.116	0.212	0.032
-350.493	-139.055	-0.116	-0.012
-349.479	800.000	-0.050	0.142
-348.464	226.464	0.092	0.149
-347.450	-97.216	0.231	0.060
-346.435	-22.024	-0.011	-0.007
-345.420	25.186	-0.027	-0.022
-344.406	-18.716	0.237	-0.147
-343.391	374.614	-0.257	-0.519
-342.377	-200.000	0.009	0.253
-341.362	-132.691	0.284	-0.036
-340.348	800.000	-0.060	-0.251
-339.333	73.950	0.272	-0.283
-338.318	-146.143	0.040	-0.004
-337.304	492.662	-0.078	0.178
-336.289	-153.723	-0.191	0.013
-335.275	800.000	0.022	0.072
-334.260	-54.280	-0.352	-0.159
-333.245	269.813	-0.154	0.269
-332.231	15.602	0.056	0.043
-331.216	219.765	-0.151	0.239
-330.202	9.889	0.156	-0.118
-329.187	79.133	0.088	0.094
-328.172	-112.452	-0.092	-0.018
-327.158	-63.067	0.336	0.138
-326.143	-121.415	0.170	-0.028
-325.129	362.903	0.180	0.359
-324.114	-43.052	-0.220	0.111
-323.099	800.000	-0.086	0.333
-322.085	-200.000	-0.022	-0.289
-321.070	800.000	-0.056	-0.165
-320.056	-92.623	0.082	-0.023
-319.041	263.929	0.047	0.081
-318.026	-114.892	-0.132	0.025
-317.012	708.992	-0.036	0.094
-315.997	-96.910	0.150	-0.039
-314.983	-25.430	-0.055	0.032
-313.968	116.707	-0.212	0.258
-312.953	-200.000	-0.015	-0.137
-311.939	602.082	0.113	-0.280
-310.924	80.990	-0.141	-0.150
-309.910	-200.000	-0.064	-0.356
-308.895	-189.290	-0.107	0.001
-307.880	55.585	0.123	0.118
-306.866	-155.510	-0.142	0.009
-305.851	53.453	0.076	-0.072
-304.837	-88.884	0.224	0.066
-303.822	160.281	-0.108	-0.150
-302.807	9.033	0.153	0.115
-301.793	-47.622	-0.278	-0.134
-300.778	197.277	0.041	-0.062
-299.764	109.763	0.091	0.109
-298.749	-111.042	-0.110	-0.022
-297.735	-71.427	0.105	-0.039
-296.720	-165.430	-0.402	-0.017
-295.705	-22.873	-0.229	0.137
-294.691	93.727	0.170	0.192
-293.676	518.146	0.059	-0.137
-292.662	51.037	0.208	0.196
-291.647	187.447	0.070	0.104
-290.632	-175.001	0.185	0.005
-289.618	158.263	0.200	-0.275
-288.603	17.726	-0.160	0.126
-287.589	-122.083	-0.052	0.008
-286.574	800.000	-0.019	-0.064
-285.559	168.934	0.133	0.188
-284.545	-24.656	0.319	-0.188
-283.530	-8.729	-0.203	0.135
-282.516	-21.745	0.096	0.058
-281.501	-200.000	-0.004	0.349
-280.486	-96.832	0.128	-0.033
-279.472	124.332	0.224	-0.279
-278.457	800.000	-0.081	-0.283
-277.443	-8.030	-0.100	0.067
-276.428	-29.837	-0.104	-0.059
-275.413	252.601	-0.165	-0.279
-274.399	800.000	-0.081	0.269
-273.384	525.146	0.064	0.149
-272.370	-17.598	-0.147	-0.091
-271.355	-45.659	0.254	-0.124
-270.340	800.000	-0.066	0.224
-269.326	44.870	-0.127	-0.116
-268.311	60.835	0.169	0.166
-267.297	-25.898	0.204	-0.119
-266.282	-112.852	-0.472	-0.093
-265.267	411.886	0.029	-0.062
-264.253	293.209	0.106	-0.191
-263.238	-8.186	0.193	0.128
-262.224	3.055	-0.180	-0.130
-261.209	-200.000	-0.005	-0.065
-260.195	-97.374	0.186	0.048
-259.180	-200.000	-0.003	-0.024
-258.165	412.529	-0.166	-0.350
-257.151	-13.140	-0.230	-0.148
-256.136	-181.406	0.111	-0.002
-255.122	-101.982	0.422	0.101
-254.107	-200.000	-0.003	0.038
-253.092	256.680	-0.062	0.105
-252.078	-31.527	0.105	-0.058
-251.063	-83.599	0.074	-0.023
-250.049	-44.587	-0.244	0.121
-249.034	28.931	-0.075	0.063
-248.019	144.630	-0.109	-0.144
-247.005	-90.152	0.328	-0.094
-245.990	555.955	0.084	-0.201
-244.976	237.216	0.169	0.277
-243.961	-170.370	0.220	0.008
-242.946	58.896	0.090	0.088
-241.932	800.000	0.010	-0.045
-240.917	63.766	0.045	-0.045
-239.903	198.267	-0.094	0.142
-238.888	-200.000	0.027	0.227
-237.873	244.391	-0.171	-0.285
-236.859	-200.000	-0.011	-0.190
-235.844	-200.000	0.028	0.245
-234.830	89.907	-0.142	0.157
-233.815	-200.000	0.017	0.173
-232.800	-63.222	-0.141	-0.058
-231.786	209.045	0.124	0.192
-230.771	-89.761	-0.249	-0.072
-229.757	-119.603	0.440	-0.075
-228.742	211.978	-0.102	-0.158
-227.727	-200.000	0.037	0.465
-226.713	-200.000	-0.006	-0.337
-225.698	595.282	0.119	-0.290
-224.684	-200.000	-0.002	-0.308
-223.669	-200.000	-0.004	0.047
-222.655	106.966	-0.118	0.139
-221.640	800.000	0.045	0.138
-220.625	-98.126	0.152	-0.039
-219.611	100.077	0.064	-0.073
-218.596	-200.000	0.019	0.087
-217.582	800.000	-0.013	0.041
-216.567	-74.247	0.106	0.038
-215.552	423.999	0.180	0.382
-214.538	-21.492	-0.201	0.121
-213.523	-65.696	0.215	-0.085
-212.509	-122.399	0.086	-0.014
-211.494	-135.914	-0.216	-0.025
-210.479	800.000	-0.077	-0.269
-209.465	-200.000	0.005	0.073
-208.450	-113.083	0.128	-0.025
-207.436	-200.000	0.014	-0.153
-206.421	-43.123	0.107	-0.053
-205.406	229.386	0.131	0.211
-204.392	-200.000	0.013	0.429
-203.377	-23.836	0.032	-0.019
-202.363	-200.000	0.052	-0.260
-201.348	800.000	0.061	0.262
-200.333	-147.448	-0.394	-0.033
-199.319	-200.000	0.028	-0.185
-198.304	-18.383	-0.177	0.109
-197.290	-114.695	-0.107	0.020
-196.275	-167.960	0.544	-0.021
-195.260	213.286	0.074	-0.116
-194.246	-106.511	-0.231	-0.051
-193.231	25.599	0.161	-0.132
-192.217	-147.795	-0.242	-0.020
-191.202	-126.989	-0.216	-0.031
-190.187	326.431	-0.074	0.141
-189.173	800.000	-0.032	0.098
-188.158	94.075	-0.100	0.112
-187.144	292.945	-0.148	-0.267
-186.129	-121.581	-0.285	-0.047
-185.114	282.313	0.077	0.137
-184.100	150.707	0.194	0.261
-183.085	800.000	0.114	0.361
-182.071	244.711	0.132	0.220
-181.056	-100.020	-0.336	0.083
-180.042	244.387	0.155	-0.256
-179.027	685.398	-0.066	0.170
-178.012	-62.192	-0.113	0.047
-176.998	239.326	-0.062	0.102
-175.983	-118.668	-0.299	0.052
-174.969	-56.375	0.359	-0.157
-173.954	-165.727	-0.275	0.012
-172.939	92.762	-0.175	-0.196
-171.925	-200.000	-0.051	0.327
-170.910	-200.000	-0.016	0.120
-169.896	334.804	0.059	0.113
-168.881	676.132	-0.069	-0.177
-167.866	-49.938	0.416	-0.195
-166.852	14.015	0.185	-0.142
-165.837	104.424	-0.159	0.184
-164.823	-120.350	-0.158	-0.026
-163.808	-110.982	0.161	-0.033
-162.793	16.207	0.142	0.111
-161.779	331.499	0.073	0.139
-160.764	-200.000	-0.010	0.069
-159.750	98.906	0.117	-0.133
-158.735	361.336	-0.015	0.031
-157.720	-99.545	0.373	0.092
-156.706	800.000	-0.104	-0.381
-155.691	-138.805	-0.128	0.014
-154.677	800.000	0.074	-0.214
-153.662	-167.621	-0.105	-0.004
-152.647	659.496	-0.125	-0.317
-151.633	-143.812	0.111	-0.010
-150.618	-200.000	-0.053	-0.307
-149.604	34.870	-0.119	0.103
-148.589	-200.000	-0.006	0.036
-147.574	-85.334	-0.075	0.023
-146.560	-76.812	0.398	-0.137
-145.545	147.392	0.151	0.200
-144.531	15.647	0.217	-0.168
-143.516	13.211	-0.251	-0.191
-142.502	-200.000	0.000	0.361
-141.487	800.000	0.067	-0.185
-140.472	615.820	0.061	0.152
-139.458	35.667	-0.174	0.151
-138.443	196.342	-0.177	0.266
-137.429	45.885	-0.120	-0.109
-136.414	-200.000	0.006	-0.050
-135.399	154.130	0.058	0.079
-134.385	-44.823	0.099	0.049
-133.370	762.443	-0.097	0.259
-132.356	-78.962	0.303	-0.102
-131.341	-109.763	0.161	-0.033
-130.326	25.795	0.101	0.083
-129.312	179.365	-0.211	-0.304
-128.297	332.045	0.085	0.162
-127.283	239.832	0.060	-0.099
-126.268	38.428	-0.084	-0.073
-125.253	-200.000	-0.065	0.296
-124.239	-84.781	-0.144	-0.045
-123.224	62.582	-0.096	0.095
-122.210	-171.415	-0.043	0.001
-121.195	-200.000	0.024	0.322
-120.180	800.000	-0.087	0.333
-119.166	688.392	-0.091	-0.233
-118.151	-68.555	0.143	0.055
-117.137	-200.000	0.018	-0.106
-116.122	-200.000	0.037	0.204
-115.107	378.281	0.121	-0.243
-114.093	-34.053	0.108	0.058
-113.078	45.119	0.244	0.221
-112.064	777.854	-0.089	0.241
-111.049	9.090	0.112	-0.083
-110.034	50.275	-0.108	0.100
-109.020	554.888	0.028	-0.065
-108.005	6.069	0.131	0.096
-106.991	800.000	0.040	0.164
-105.976	-124.970	-0.110	0.017
-104.962	-200.000	0.054	-0.363
-103.947	-52.544	0.094	-0.043
-102.932	-95.346	-0.213	-0.056
-101.918	-200.000	-0.041	-0.248
-100.903	190.498	0.256	0.379
-99.889	-94.737	-0.152	0.041
-98.874	-43.176	-0.073	-0.036
-97.859	-74.153	-0.158	0.056
-96.845	6.882	0.155	0.113
-95.830	-200.000	-0.042	0.237
-94.816	-168.550	-0.110	-0.004
-93.801	231.248	-0.164	-0.265
-92.786	-139.544	0.113	0.012
-91.772	-135.468	0.343	0.040
-90.757	-200.000	-0.016	-0.161
-89.743	-39.265	0.105	0.054
-88.728	-64.248	-0.269	-0.108
-87.713	-119.897	-0.147	-0.025
-86.699	-91.729	0.112	-0.031
-85.684	-154.008	0.085	-0.006
-84.670	-19.494	-0.165	-0.100
-83.655	-4.156	-0.087	0.060
-82.640	-200.000	0.079	0.433
-81.626	800.000	0.097	0.303
-80.611	-63.612	0.122	0.049
-79.597	189.108	-0.156	0.229
-78.582	-200.000	0.051	0.358
-77.567	800.000	-0.061	0.202
-76.553	-200.000	0.021	-0.161
-75.538	17.503	-0.203	-0.158
-74.524	-23.446	0.153	0.090
-73.509	-132.716	-0.245	0.031
-72.494	159.926	0.039	-0.054
-71.480	88.376	-0.057	0.062
-70.465	800.000	-0.079	0.288
-69.451	-200.000	0.019	-0.089
-68.436	800.000	-0.028	-0.105
-67.422	800.000	0.021	0.068
-66.407	126.468	-0.118	-0.146
-65.392	-55.657	0.311	-0.137
-64.378	-200.000	-0.055	0.305
-63.363	-200.000	0.045	-0.197
-62.349	445.258	-0.162	0.350
-61.334	190.535	-0.534	-0.788
-60.319	161.910	0.314	0.433
-59.305	-200.000	-0.019	-0.861
-58.290	162.478	0.446	0.614
-57.276	736.793	0.518	1.364
-56.261	-200.000	97.638	587.621
-55.246	555.512	1393.061	3294.562
-54.232	153.713	2598.160	3496.887
-53.217	107.800	2281.877	2669.586
-52.203	43.564	1899.387	1706.132
-51.188	37.539	1690.219	1472.751
-50.173	34.679	1646.018	1413.054
-49.159	52.576	1694.760	1589.577
-48.144	55.572	1712.170	1628.291
-47.130	37.124	1668.547	1450.537
-46.115	34.330	1653.468	1416.628
-45.100	34.117	1648.578	1410.804
-44.086	34.099	1646.273	1408.647
-43.071	34.139	1643.337	1406.370
-42.057	34.145	1641.367	1404.675
-41.042	34.150	1638.741	1402.411
-40.027	34.066	1637.376	1400.565
-39.013	34.170	1634.533	1398.841
-37.998	34.078	1633.466	1397.196
-36.984	34.115	1631.869	1396.051
-35.969	34.261	1630.685	1396.050
-34.954	34.329	1629.169	1395.196
-33.940	34.302	1627.050	1393.124
-32.925	34.299	1625.542	1391.758
-31.911	34.170	1624.073	1389.504
-30.896	34.222	1621.724	1387.820
-29.881	34.146	1620.838	1386.450
-28.867	34.203	1618.771	1385.040
-27.852	34.223	1617.069	1383.677
-26.838	34.245	1615.820	1382.710
-25.823	34.194	1614.633	1381.269
-24.809	34.239	1613.139	1380.264
-23.794	34.339	1611.476	1379.509
-22.779	34.311	1610.225	1378.184
-21.765	34.293	1608.464	1376.493
-20.750	34.195	1607.258	1374.695
-19.736	34.276	1605.711	1373.908
-18.721	34.331	1604.015	1372.793
-17.706	34.178	1602.731	1370.539
-16.692	34.293	1600.659	1369.544
-15.677	34.260	1599.818	1368.527
-14.663	34.283	1598.095	1367.169
-13.648	34.219	1597.139	1365.835
-12.633	34.295	1595.151	1364.624
-11.619	34.299	1593.468	1363.158
-10.604	34.384	1592.027	1362.481
-9.590	34.370	1590.372	1360.908
-8.575	34.359	1589.390	1359.936
-7.560	34.258	1588.634	1358.518
-6.546	34.313	1587.511	1357.895
-5.531	34.311	1586.226	1356.729
-4.517	34.278	1585.243	1355.594
-3.502	34.260	1584.381	1354.675
-2.487	34.347	1582.474	1353.609
-1.473	33.993	1571.090	1341.322
-0.458	31.150	1551.677	1304.854
0.556	27.863	1551.936	1273.848
1.571	25.607	1576.170	1277.624
2.586	25.237	1589.498	1285.661
3.600	22.266	1536.962	1222.440
4.615	12.508	1425.608	1070.551
5.629	3.621	1358.583	964.785
6.644	2.001	1349.603	948.259
7.659	1.924	1348.218	946.725
8.673	1.858	1346.974	945.357
9.688	1.768	1345.208	943.476
10.702	1.550	1341.886	939.719
11.717	5.161	1349.699	967.519
12.731	15.537	1368.662	1045.947
13.746	23.987	1383.077	1109.818
14.761	25.919	1385.899	1124.045
15.775	26.270	1385.090	1125.475
16.790	26.338	1384.639	1125.434
17.804	26.347	1384.319	1125.129
18.819	26.576	1384.190	1126.351
19.834	26.682	1383.259	1126.153
20.848	26.680	1382.684	1125.574
21.863	26.645	1381.878	1124.599
22.877	26.786	1380.580	1124.320
23.892	26.755	1380.081	1123.621
24.907	26.698	1379.533	1122.723
25.921	26.775	1378.253	1122.058
26.936	26.724	1377.375	1120.926
27.950	26.743	1376.262	1120.040
28.965	26.736	1374.902	1118.787
29.980	26.722	1373.655	1117.588
30.994	26.626	1372.466	1115.931
32.009	26.700	1371.400	1115.419
33.023	26.672	1370.091	1114.088
34.038	26.678	1369.054	1113.179
35.053	26.650	1368.093	1112.128
36.067	26.755	1367.218	1111.962
37.082	26.716	1365.801	1110.476
38.096	26.732	1365.034	1109.848
39.111	26.663	1364.888	1109.213
40.126	26.684	1364.128	1108.625
41.140	26.635	1363.818	1107.972
42.155	26.609	1363.479	1107.444
43.169	26.657	1363.328	1107.512
44.184	26.703	1363.080	1107.495
45.199	26.671	1362.251	1106.531
46.213	26.602	1362.182	1105.957
47.228	26.685	1361.148	1105.525
48.242	26.817	1359.319	1104.742
49.257	26.707	1358.179	1103.053
50.271	26.633	1357.080	1101.608
51.286	26.603	1355.651	1100.167
52.301	26.654	1354.544	1099.485
53.315	26.698	1353.605	1098.890
54.330	26.689	1352.659	1097.972
55.344	26.728	1351.324	1097.025
56.359	26.729	1350.330	1096.127
57.374	26.562	1349.871	1094.647
58.388	26.674	1349.265	1094.737
59.403	26.628	1348.706	1093.908
60.417	26.592	1348.145	1093.140
61.432	26.632	1347.007	1092.365
62.447	26.712	1346.494	1092.334
63.461	26.605	1345.335	1090.651
64.476	26.676	1344.470	1090.278
65.490	26.697	1342.990	1089.111
66.505	26.722	1341.827	1088.222
67.520	26.683	1340.181	1086.557
68.534	26.736	1339.171	1085.959
69.549	26.670	1338.588	1084.994
70.563	26.676	1337.596	1084.132
71.578	26.696	1336.486	1083.251
72.593	26.731	1335.682	1082.717
73.607	26.715	1335.027	1081.992
74.622	26.697	1334.051	1080.998
75.636	26.696	1333.743	1080.649
76.651	26.699	1333.191	1080.125
77.666	26.720	1332.406	1079.517
78.680	26.655	1332.415	1079.041
79.695	26.600	1331.436	1077.823
80.709	26.616	1330.855	1077.354
81.724	26.651	1329.682	1076.518
82.739	26.812	1328.466	1076.391
83.753	26.739	1327.755	1075.287
84.768	26.736	1326.918	1074.500
85.782	26.680	1325.811	1073.177
86.797	26.739	1324.395	1072.285
87.812	26.650	1323.625	1071.037
88.826	26.637	1322.487	1069.948
89.841	26.765	1321.290	1069.638
90.855	26.692	1320.354	1068.354
91.870	26.743	1319.658	1067.996
92.884	26.722	1319.430	1067.596
93.899	26.693	1318.324	1066.439
94.914	26.712	1317.341	1065.657
95.928	26.775	1316.359	1065.140
96.943	26.779	1315.937	1064.728
97.957	26.733	1315.491	1064.002
98.972	26.676	1314.485	1062.761
99.987	26.736	1312.910	1061.747
101.001	26.695	1312.265	1060.890
102.016	26.646	1311.656	1060.018
103.030	26.727	1310.784	1059.694
104.045	26.692	1309.878	1058.663
105.060	26.762	1308.783	1058.090
106.074	26.705	1308.362	1057.324
107.089	26.828	1306.575	1056.504
108.103	26.663	1306.146	1055.104
109.118	26.786	1304.755	1054.603
110.133	26.799	1303.760	1053.779
111.147	26.784	1302.742	1052.773
112.162	26.836	1301.800	1052.224
113.176	26.885	1300.289	1051.192
114.191	26.837	1299.766	1050.396
115.206	26.896	1298.740	1049.816
116.220	26.752	1297.908	1048.219
117.235	26.858	1296.889	1047.916
118.249	26.792	1296.085	1046.792
119.264	26.823	1295.444	1046.361
120.279	26.960	1294.345	1046.172
121.293	26.899	1293.306	1044.885
122.308	26.777	1293.012	1043.851
123.322	26.807	1291.676	1042.855
124.337	26.929	1290.986	1042.907
125.352	26.916	1290.029	1041.968
126.366	26.880	1289.331	1041.106
127.381	26.798	1288.809	1040.120
128.395	26.875	1287.751	1039.614
129.410	26.873	1286.862	1038.797
130.424	26.865	1285.971	1037.940
131.439	26.907	1285.378	1037.607
132.454	26.860	1284.839	1036.813
133.468	26.905	1283.921	1036.235
134.483	26.817	1283.219	1035.076
135.497	26.790	1282.687	1034.402
136.512	26.929	1281.835	1034.416
137.527	26.874	1280.285	1032.759
138.541	26.839	1279.130	1031.540
139.556	26.852	1277.773	1030.427
140.570	26.809	1277.078	1029.530
141.585	26.859	1275.988	1028.847
142.600	26.800	1275.018	1027.636
143.614	26.830	1274.231	1027.084
144.629	26.850	1272.916	1026.042
145.643	26.773	1272.172	1024.915
146.658	26.738	1271.493	1024.085
147.673	26.843	1270.042	1023.414
148.687	26.812	1269.300	1022.552
149.702	26.789	1267.820	1021.141
150.716	26.738	1267.318	1020.358
151.731	26.758	1266.378	1019.626
152.746	26.698	1265.306	1018.334
153.760	26.840	1263.924	1017.931
154.775	26.922	1263.088	1017.628
155.789	26.767	1262.301	1016.031
156.804	26.784	1261.279	1015.212
157.819	26.885	1260.483	1015.051
158.833	26.867	1259.796	1014.306
159.848	26.884	1259.360	1013.961
160.862	26.792	1258.699	1012.822
161.877	26.891	1257.533	1012.348
162.892	26.827	1256.912	1011.401
163.906	26.971	1256.376	1011.683
164.921	26.915	1255.419	1010.512
165.935	27.005	1254.530	1010.210
166.950	26.872	1254.405	1009.280
167.964	27.014	1253.383	1009.154
168.979	27.040	1252.668	1008.637
169.994	27.001	1251.992	1007.788
171.008	26.928	1251.599	1006.972
172.023	26.901	1251.001	1006.252
173.037	27.062	1249.819	1006.105
174.052	26.889	1249.416	1004.736
175.067	27.008	1248.593	1004.642
176.081	26.891	1247.708	1003.193
177.096	26.952	1246.890	1002.788
178.110	26.958	1246.332	1002.280
179.125	27.015	1245.020	1001.454
180.140	27.057	1243.957	1000.741
181.154	27.057	1242.760	999.689
182.169	27.012	1242.043	998.775
183.183	26.950	1241.624	998.011
184.198	26.976	1240.255	996.963
185.213	27.062	1239.035	996.365
186.227	27.134	1238.077	995.903
187.242	26.985	1237.987	994.926
188.256	27.143	1236.644	994.624
189.271	26.992	1236.063	993.244
190.286	27.104	1235.057	992.959
191.300	27.144	1234.364	992.533
192.315	27.045	1234.137	991.719
193.329	27.001	1233.855	991.164
194.344	27.152	1232.884	991.120
195.359	27.058	1232.600	990.293
196.373	27.047	1232.416	989.999
197.388	27.007	1231.706	989.120
198.402	27.115	1231.318	989.310
199.417	27.062	1231.010	988.687
200.432	27.059	1230.359	988.058
201.446	27.028	1230.019	987.531
202.461	27.062	1229.043	986.846
203.475	27.069	1228.118	986.051
204.490	27.060	1227.293	985.257
205.504	26.983	1226.604	984.198
206.519	27.041	1225.637	983.645
207.534	27.070	1224.527	982.826
208.548	27.066	1223.717	982.068
209.563	27.102	1222.838	981.470
210.577	27.191	1221.852	981.073
211.592	27.171	1221.044	980.231
212.607	27.278	1220.596	980.359
213.621	27.218	1219.947	979.428
214.636	27.115	1219.028	978.050
215.650	27.181	1218.098	977.573
216.665	27.149	1217.483	976.817
217.680	27.144	1216.557	975.962
218.694	27.235	1215.445	975.473
219.709	27.229	1214.486	974.584
220.723	27.202	1214.079	974.025
221.738	27.237	1213.147	973.380
222.753	27.118	1212.925	972.477
223.767	27.225	1211.995	972.222
224.782	27.269	1211.648	972.091
225.796	27.299	1210.987	971.637
226.811	27.313	1210.045	970.867
227.826	27.207	1209.799	970.018
228.840	27.293	1208.958	969.719
229.855	27.293	1208.614	969.358
230.869	27.246	1207.969	968.502
231.884	27.062	1207.749	967.260
232.899	27.243	1206.183	966.883
233.913	27.388	1205.897	967.341
234.928	27.416	1205.481	967.070
235.942	27.481	1204.375	966.441
236.957	27.394	1204.244	965.788
237.972	27.395	1203.543	965.145
238.986	27.259	1202.558	963.549
240.001	27.382	1202.222	963.846
241.015	27.560	1200.983	963.710
242.030	27.492	1200.579	962.943
243.045	27.521	1199.412	962.070
244.059	27.415	1198.985	961.084
245.074	27.521	1198.069	960.825
246.088	27.448	1197.520	959.914
247.103	27.529	1196.845	959.718
248.117	27.515	1195.914	958.808
249.132	27.597	1195.063	958.474
250.147	27.502	1194.947	957.799
251.161	27.529	1193.775	956.917
252.176	27.602	1193.169	956.728
253.190	27.593	1192.656	956.185
254.205	27.562	1192.054	955.457
255.220	27.545	1191.477	954.817
256.234	27.624	1190.663	954.496
257.249	27.596	1190.185	953.881
258.263	27.601	1189.797	953.512
259.278	27.593	1189.097	952.825
260.293	27.527	1189.073	952.375
261.307	27.620	1187.906	951.841
262.322	27.620	1187.392	951.346
263.336	27.730	1186.591	951.193
264.351	27.622	1186.556	950.518
265.366	27.603	1185.639	949.600
266.380	27.540	1184.805	948.523
267.395	27.620	1183.846	948.087
268.409	27.487	1183.664	947.165
269.424	27.670	1182.746	947.295
270.439	27.547	1182.855	946.664
271.453	27.582	1182.167	946.207
272.468	27.593	1181.317	945.503
273.482	27.607	1180.289	944.667
274.497	27.686	1180.077	944.825
275.512	27.751	1179.342	944.486
276.526	27.755	1178.737	943.940
277.541	27.768	1177.739	943.128
278.555	27.687	1177.697	942.590
279.570	27.631	1177.290	941.892
280.585	27.722	1175.919	941.183
281.599	27.719	1174.872	940.242
282.614	27.673	1174.564	939.676
283.628	27.758	1173.347	939.057
284.643	27.727	1172.337	938.007
285.657	27.753	1171.536	937.418
286.672	27.722	1171.154	936.869
287.687	27.834	1170.046	936.475
288.701	27.777	1169.756	935.866
289.716	27.837	1168.717	935.258
290.730	27.789	1168.236	934.545
291.745	27.933	1167.159	934.340
292.760	27.783	1167.080	933.428
293.774	27.921	1166.151	933.303
294.789	27.808	1165.961	932.496
295.803	27.804	1165.098	931.699
296.818	27.855	1164.620	931.497
297.833	28.057	1163.371	931.442
298.847	28.032	1162.875	930.835
299.862	27.973	1161.972	929.730
300.876	27.836	1161.807	928.821
301.891	27.906	1161.107	928.535
302.906	27.979	1160.282	928.161
303.920	28.164	1159.572	928.453
304.935	28.136	1158.841	927.642
305.949	27.841	1158.693	925.949
306.964	27.959	1158.454	926.273
307.979	28.067	1157.437	925.924
308.993	27.941	1156.767	924.668
310.008	28.072	1156.053	924.676
311.022	27.985	1155.425	923.651
312.037	28.073	1154.587	923.347
313.052	27.999	1153.736	922.212
314.066	28.075	1152.781	921.752
315.081	28.104	1152.114	921.279
316.095	28.195	1151.389	921.078
317.110	28.082	1151.069	920.173
318.125	28.050	1150.420	919.412
319.139	28.018	1149.653	918.557
320.154	28.136	1149.190	918.696
321.168	28.220	1148.688	918.633
322.183	28.169	1147.749	917.547
323.197	28.127	1147.315	916.906
324.212	28.162	1147.152	916.872
325.227	28.194	1146.478	916.411
326.241	28.305	1145.869	916.400
327.256	28.177	1145.176	915.123
328.270	28.172	1144.831	914.744
329.285	28.305	1143.438	914.213
330.300	28.263	1142.486	913.163
331.314	28.212	1141.913	912.370
332.329	28.281	1141.387	912.213
333.343	28.203	1140.565	911.087
334.358	28.189	1139.682	910.232
335.373	28.257	1138.900	909.862
336.387	28.368	1138.108	909.699
337.402	28.298	1137.983	909.171
338.416	28.275	1137.212	908.361
339.431	28.411	1136.770	908.603
340.446	28.355	1136.195	907.786
341.460	28.409	1135.373	907.314
342.475	28.451	1134.258	906.553
343.489	28.327	1133.821	905.513
344.504	28.349	1132.729	904.668
345.519	28.411	1132.083	904.375
346.533	28.435	1131.292	903.781
347.548	28.536	1130.348	903.448
348.562	28.583	1129.851	903.199
349.577	28.505	1128.996	902.052
350.592	28.504	1127.808	901.019
351.606	28.358	1127.866	900.267
352.621	28.434	1127.304	900.113
353.635	28.503	1126.747	899.927
354.650	28.443	1125.848	898.837
355.665	28.512	1125.273	898.634
356.679	28.612	1124.552	898.471
357.694	28.484	1124.369	897.616
358.708	28.561	1123.477	897.203
359.723	28.560	1122.597	896.414
360.738	28.512	1121.839	895.496
361.752	28.567	1121.537	895.447
362.767	28.600	1121.404	895.420
363.781	28.657	1120.445	894.853
364.796	28.676	1119.989	894.501
365.810	28.686	1119.494	894.076
366.825	28.640	1118.938	893.329
367.840	28.714	1118.580	893.327
368.854	28.679	1118.190	892.764
369.869	28.639	1117.068	891.595
370.883	28.783	1116.254	891.564
371.898	28.733	1115.642	890.756
372.913	28.702	1115.157	890.139
373.927	28.749	1114.696	889.919
374.942	28.706	1114.394	889.390
375.956	28.800	1113.283	888.881
376.971	28.792	1112.989	888.529
377.986	28.836	1112.363	888.161
379.000	28.831	1111.923	887.708
380.015	28.830	1111.488	887.278
381.029	28.807	1110.744	886.495
382.044	28.869	1110.103	886.202
383.059	28.857	1109.504	885.587
384.073	28.804	1108.826	884.716
385.088	28.871	1108.071	884.357
386.102	28.976	1106.680	883.675
387.117	28.872	1106.071	882.610
388.132	28.914	1105.362	882.166
389.146	28.894	1104.747	881.503
390.161	29.002	1104.135	881.452
391.175	28.991	1103.451	880.778
392.190	28.974	1102.745	880.054
393.205	28.928	1102.190	879.313
394.219	28.911	1101.465	878.577
395.234	29.125	1100.656	878.876
396.248	28.920	1099.811	877.144
397.263	29.040	1099.027	877.013
398.278	29.056	1098.428	876.533
399.292	29.099	1097.856	876.204
400.307	29.087	1097.061	875.437
401.321	29.107	1096.546	875.044
402.336	29.034	1096.139	874.290
403.350	29.041	1095.208	873.506
404.365	29.140	1094.665	873.463
405.380	29.122	1094.178	872.915
406.394	29.220	1093.074	872.421
407.409	29.173	1092.308	871.509
408.423	29.227	1092.153	871.564
409.438	29.200	1091.446	870.792
410.453	29.271	1090.872	870.593
411.467	29.201	1090.079	869.556
412.482	29.125	1089.292	868.492
413.496	29.323	1088.474	868.693
414.511	29.251	1087.971	867.877
415.526	29.207	1087.688	867.368
416.540	29.376	1087.035	867.564
417.555	29.333	1086.226	866.640
418.569	29.223	1086.020	865.884
419.584	29.383	1085.712	866.312
420.599	29.365	1085.058	865.629
421.613	102.773	1318.542	1448.918
422.628	95.696	1352.561	1449.003
