DTS Sentinel unit serial number:	SN413079Multiplexer serial number:	ORYXHardware model number:	OX4-SRSoftware version number:	ORYX F/W v4.00 Oryx Data Collector v3.7.2.0data status	okinstallation	princeton_trtdifferential loss correction	single-endedforward channel	channel 2reverse channel	N/Adate	2019/09/11time	04:37:11forward acquisition time	60.00reverse acquisition time	0.00gamma	496.2192k internal	0.2329k external	0.2329temperature offset calibration	0.9940default loss term (dB/km)	0.3790temperature slope calibration	1.0000multiplexer offset coefficient	1.0000multiplexer slope coefficient	1.0000fibre end	0.00T internal ref (°C)	29.53T ext. ref 1 (°C)	-0.31T ext. ref 2 (°C)	23.33length (m)	temperature (°C)	Stokes	anti-Stokes-747.200	78.546	-0.108	-0.117
-746.185	-165.110	-0.216	-0.010
-745.171	800.000	-0.071	0.201
-744.156	-52.490	0.182	-0.085
-743.142	118.638	-0.170	0.212
-742.127	28.730	0.433	0.370
-741.112	271.226	-0.101	0.179
-740.098	82.243	-0.293	0.320
-739.083	-113.072	0.151	0.030
-738.069	584.997	-0.081	0.202
-737.054	-200.000	0.070	0.390
-736.039	800.000	0.087	-0.327
-735.025	80.365	0.072	-0.078
-734.010	-200.000	0.027	-0.488
-732.996	800.000	0.081	0.238
-731.981	224.402	-0.095	-0.155
-730.966	-122.714	0.182	0.030
-729.952	-63.366	-0.188	0.078
-728.937	104.066	0.102	0.121
-727.923	800.000	0.101	-0.322
-726.908	800.000	-0.076	-0.288
-725.894	-117.691	-0.110	0.020
-724.879	-200.000	0.026	-0.135
-723.864	302.568	0.134	0.250
-722.850	96.000	-0.201	0.231
-721.835	800.000	-0.044	-0.140
-720.821	527.847	-0.063	0.150
-719.806	15.038	-0.030	-0.023
-718.791	-105.621	0.084	0.019
-717.777	-200.000	0.003	0.167
-716.762	258.248	-0.101	0.175
-715.748	800.000	-0.014	0.056
-714.733	111.236	-0.142	0.172
-713.718	-200.000	-0.026	0.218
-712.704	800.000	-0.040	0.150
-711.689	800.000	0.053	-0.191
-710.675	-81.370	0.167	0.055
-709.660	208.425	0.079	-0.124
-708.645	-18.624	-0.169	0.106
-707.631	-11.365	0.117	-0.078
-706.616	17.376	-0.211	-0.169
-705.602	168.630	-0.176	0.253
-704.587	32.038	-0.448	0.388
-703.572	157.011	0.047	-0.065
-702.558	195.257	0.078	0.119
-701.543	89.886	0.156	-0.175
-700.529	290.064	-0.119	0.218
-699.514	53.986	0.168	0.163
-698.499	800.000	0.079	0.267
-697.485	656.859	0.037	-0.094
-696.470	75.210	-0.141	0.149
-695.456	59.008	-0.044	-0.043
-694.441	-200.000	-0.036	0.178
-693.426	47.031	-0.026	-0.024
-692.412	160.545	-0.206	0.289
-691.397	112.639	-0.367	0.446
-690.383	-142.051	-0.361	-0.036
-689.368	556.927	-0.076	-0.185
-688.354	412.496	0.099	0.211
-687.339	233.238	-0.118	0.195
-686.324	188.547	-0.133	0.199
-685.310	237.929	-0.235	-0.392
-684.295	244.680	-0.037	0.063
-683.281	74.129	0.172	-0.181
-682.266	-102.400	0.264	0.064
-681.251	112.865	-0.101	0.123
-680.237	175.034	0.224	-0.327
-679.222	-138.484	-0.137	0.015
-678.208	17.068	0.068	-0.054
-677.193	23.364	0.115	0.095
-676.178	-92.464	-0.130	0.037
-675.164	-177.006	0.299	0.008
-674.149	118.415	-0.077	-0.096
-673.135	182.635	-0.313	-0.464
-672.120	-200.000	0.012	0.156
-671.105	253.798	0.143	0.245
-670.091	596.987	-0.080	0.199
-669.076	-127.404	-0.336	-0.049
-668.062	800.000	-0.048	0.212
-667.047	-76.993	0.200	-0.070
-666.032	-181.251	0.228	0.005
-665.018	49.167	-0.120	0.113
-664.003	800.000	0.036	-0.109
-662.989	-200.000	-0.027	0.230
-661.974	-130.081	-0.215	-0.029
-660.959	19.752	-0.145	-0.117
-659.945	-144.813	0.155	-0.014
-658.930	72.533	0.172	-0.180
-657.916	636.000	0.068	-0.174
-656.901	-92.594	-0.082	-0.023
-655.886	59.941	-0.174	-0.173
-654.872	-82.849	0.028	-0.009
-653.857	-15.595	-0.140	0.090
-652.843	-200.000	-0.025	0.175
-651.828	-13.449	0.148	0.096
-650.814	-97.333	0.318	0.083
-649.799	129.776	-0.077	0.099
-648.784	201.064	0.073	-0.113
-647.770	113.059	-0.140	0.170
-646.755	-200.000	-0.003	-0.063
-645.741	-26.978	-0.118	-0.069
-644.726	-87.253	-0.134	-0.041
-643.711	-10.304	-0.190	0.127
-642.697	-200.000	-0.226	-0.000
-641.682	64.743	0.228	-0.231
-640.668	-90.485	0.542	0.158
-639.653	195.003	-0.135	0.206
-638.638	-200.000	0.004	0.068
-637.624	-200.000	-0.009	0.094
-636.609	-105.882	0.386	-0.087
-635.595	800.000	0.062	0.259
-634.580	-44.042	-0.171	-0.086
-633.565	300.010	-0.078	0.144
-632.551	-200.000	-0.045	-0.378
-631.536	-62.115	0.268	0.112
-630.522	-200.000	-0.001	-0.141
-629.507	-103.437	-0.232	0.055
-628.492	-23.109	-0.278	-0.168
-627.478	54.990	0.114	-0.110
-626.463	800.000	0.086	-0.375
-625.449	-200.000	-0.004	0.100
-624.434	-94.054	-0.182	0.050
-623.419	-164.192	0.210	0.010
-622.405	-200.000	0.027	-0.155
-621.390	-137.266	0.318	0.036
-620.376	-200.000	0.015	0.182
-619.361	0.475	-0.330	-0.237
-618.346	507.083	0.089	-0.207
-617.332	-134.516	-0.302	-0.037
-616.317	-81.859	0.324	0.106
-615.303	46.628	-0.072	-0.067
-614.288	-0.383	-0.330	0.235
-613.273	206.147	0.176	-0.274
-612.259	-57.436	-0.209	0.092
-611.244	-171.588	0.279	-0.009
-610.230	-200.000	0.012	-0.164
-609.215	86.993	-0.025	-0.028
-608.201	-10.177	-0.333	-0.221
-607.186	-54.174	0.202	-0.092
-606.171	-92.673	0.118	0.033
-605.157	-200.000	0.010	-0.185
-604.142	634.692	-0.132	-0.334
-603.128	193.000	0.091	0.138
-602.113	-85.540	0.183	-0.057
-601.098	-121.671	-0.288	-0.048
-600.084	249.610	0.064	0.109
-599.069	800.000	-0.130	-0.465
-598.055	-133.388	-0.152	0.019
-597.040	-200.000	-0.022	0.121
-596.025	238.873	-0.046	-0.076
-595.011	-1.368	-0.217	0.154
-593.996	-102.494	-0.096	0.023
-592.982	-47.725	-0.249	-0.121
-591.967	-19.798	-0.123	-0.076
-590.952	800.000	-0.113	0.421
-589.938	1.262	0.232	0.167
-588.923	-153.496	0.093	0.006
-587.909	-200.000	0.011	0.471
-586.894	-82.693	0.165	0.054
-585.879	-0.565	0.092	-0.065
-584.865	-0.970	-0.133	-0.094
-583.850	-200.000	-0.024	0.279
-582.836	260.006	0.080	-0.138
-581.821	-51.806	-0.120	0.056
-580.806	-156.677	-0.344	0.021
-579.792	98.555	-0.086	-0.100
-578.777	-51.805	0.230	0.107
-577.763	240.727	0.246	0.410
-576.748	-127.771	-0.032	0.005
-575.733	97.531	0.063	0.072
-574.719	687.409	0.136	-0.357
-573.704	-58.168	0.107	-0.047
-572.690	800.000	0.058	0.194
-571.675	-91.809	-0.272	-0.077
-570.661	-5.003	0.061	0.042
-569.646	-0.157	0.269	0.192
-568.631	135.962	0.119	0.155
-567.617	306.091	-0.023	0.044
-566.602	-200.000	0.018	0.185
-565.588	-17.228	-0.069	0.043
-564.573	-58.048	-0.261	0.114
-563.558	10.918	0.044	0.033
-562.544	-200.000	-0.001	-0.098
-561.529	-31.630	0.250	-0.140
-560.515	308.873	-0.272	0.509
-559.500	437.002	-0.089	-0.194
-558.485	62.616	-0.302	0.302
-557.471	0.475	-0.200	0.143
-556.456	74.669	-0.134	-0.141
-555.442	-59.613	0.238	0.102
-554.427	-97.857	-0.065	-0.017
-553.412	-200.000	-0.031	0.235
-552.398	-5.418	-0.139	-0.095
-551.383	43.272	-0.110	-0.100
-550.369	-76.213	-0.209	0.074
-549.354	-108.564	-0.349	0.075
-548.339	-6.468	-0.137	-0.093
-547.325	25.942	0.117	0.098
-546.310	392.904	0.043	-0.090
-545.296	-200.000	-0.029	0.184
-544.281	-21.720	0.394	0.240
-543.266	-169.136	-0.219	0.008
-542.252	-155.859	0.085	-0.005
-541.237	-74.901	-0.368	-0.132
-540.223	131.995	0.037	-0.048
-539.208	-117.578	-0.288	0.052
-538.193	158.583	-0.047	-0.065
-537.179	-124.902	-0.085	-0.013
-536.164	-200.000	0.002	0.050
-535.150	-61.691	0.286	-0.120
-534.135	31.190	0.179	-0.153
-533.121	135.104	0.150	-0.195
-532.106	-200.000	-0.058	0.368
-531.091	-200.000	0.026	-0.252
-530.077	88.426	-0.207	-0.230
-529.062	432.877	0.096	-0.207
-528.048	-200.000	0.022	-0.213
-527.033	240.949	0.094	-0.157
-526.018	20.772	0.044	0.035
-525.004	-28.173	0.201	0.116
-523.989	417.061	-0.122	-0.260
-522.975	-200.000	0.010	0.255
-521.960	104.883	0.151	-0.178
-520.945	-200.000	-0.024	0.139
-519.931	26.900	0.175	-0.146
-518.916	-80.749	0.068	-0.022
-517.902	800.000	0.031	0.107
-516.887	252.792	-0.255	-0.435
-515.872	214.385	-0.198	-0.313
-514.858	490.853	-0.042	0.096
-513.843	682.076	0.051	0.132
-512.829	-200.000	0.025	-0.114
-511.814	-38.834	-0.228	-0.120
-510.799	-200.000	0.026	0.172
-509.785	139.702	-0.146	0.192
-508.770	800.000	0.082	0.234
-507.756	405.364	0.115	-0.242
-506.741	301.014	-0.097	-0.178
-505.726	-200.000	0.044	-0.518
-504.712	337.447	-0.036	-0.070
-503.697	-81.401	0.442	-0.145
-502.683	7.909	0.028	0.021
-501.668	-66.769	0.189	0.075
-500.653	-156.476	0.194	-0.012
-499.639	-200.000	-0.011	0.299
-498.624	-164.615	0.201	-0.009
-497.610	-164.966	-0.305	-0.014
-496.595	16.207	0.196	-0.154
-495.581	26.673	-0.161	0.134
-494.566	-200.000	-0.067	0.339
-493.551	63.303	-0.239	-0.239
-492.537	800.000	0.055	-0.170
-491.522	-77.423	-0.392	-0.136
-490.508	-121.408	-0.060	0.010
-489.493	127.338	-0.092	-0.116
-488.478	800.000	-0.048	0.149
-487.464	-49.042	0.211	0.101
-486.449	-200.000	0.029	0.204
-485.435	-150.772	-0.238	-0.018
-484.420	-13.980	0.152	-0.098
-483.405	220.673	0.086	0.137
-482.391	112.767	0.080	0.097
-481.376	-105.592	0.465	-0.105
-480.362	262.972	0.041	0.071
-479.347	-65.540	-0.091	-0.036
-478.332	-40.823	0.331	-0.171
-477.318	-200.000	0.006	0.174
-476.303	-200.000	0.042	-0.249
-475.289	-124.322	0.147	0.023
-474.274	398.053	0.030	-0.062
-473.259	-150.436	0.280	0.021
-472.245	-200.000	-0.069	0.483
-471.230	35.606	0.135	0.118
-470.216	-136.443	0.171	0.020
-469.201	-200.000	-0.028	-0.229
-468.186	-200.000	0.056	-0.270
-467.172	111.381	-0.137	-0.165
-466.157	15.545	-0.202	0.158
-465.143	-104.964	-0.435	-0.099
-464.128	-59.892	0.162	0.069
-463.113	473.594	0.183	-0.412
-462.099	-73.827	0.277	-0.100
-461.084	-200.000	-0.003	0.023
-460.070	-166.912	-0.090	0.004
-459.055	-200.000	-0.003	0.039
-458.040	117.597	-0.123	-0.151
-457.026	-200.000	-0.007	0.264
-456.011	180.347	-0.122	-0.178
-454.997	-79.581	0.222	-0.075
-453.982	-29.343	0.180	-0.102
-452.968	-118.850	0.186	-0.033
-451.953	-55.882	-0.213	-0.095
-450.938	140.519	0.107	-0.141
-449.924	-3.404	0.060	-0.042
-448.909	179.905	-0.058	0.085
-447.895	-200.000	0.039	-0.234
-446.880	-44.399	0.275	0.137
-445.865	-107.769	-0.220	0.048
-444.851	418.829	0.070	0.149
-443.836	579.726	0.092	0.225
-442.822	-200.000	-0.009	0.098
-441.807	-200.000	-0.039	-0.173
-440.792	13.928	0.312	0.241
-439.778	20.970	-0.098	0.079
-438.763	73.558	0.241	0.251
-437.749	800.000	0.066	-0.196
-436.734	298.599	-0.041	-0.076
-435.719	-87.164	0.286	-0.087
-434.705	-200.000	-0.046	-0.388
-433.690	-14.941	-0.196	-0.125
-432.676	-24.035	0.288	-0.171
-431.661	-200.000	-0.013	0.142
-430.646	-200.000	-0.030	0.268
-429.632	800.000	0.097	0.331
-428.617	-60.854	0.447	-0.188
-427.603	-115.312	-0.380	0.071
-426.588	1.796	-0.197	-0.141
-425.573	266.619	0.069	0.121
-424.559	-200.000	0.071	-0.327
-423.544	-36.770	0.200	0.107
-422.530	-149.559	-0.303	0.024
-421.515	223.369	0.126	0.203
-420.500	27.649	-0.019	-0.016
-419.486	-200.000	0.037	-0.166
-418.471	-200.000	0.025	0.159
-417.457	-132.399	-0.171	0.022
-416.442	-200.000	0.062	-0.393
-415.428	-110.948	0.181	-0.037
-414.413	-200.000	0.149	-0.001
-413.398	-34.986	-0.228	0.124
-412.384	-119.641	0.337	0.058
-411.369	800.000	0.039	0.128
-410.355	20.885	-0.073	0.059
-409.340	28.755	-0.248	0.209
-408.325	-200.000	0.017	0.182
-407.311	515.826	-0.147	-0.341
-406.296	-200.000	0.010	0.206
-405.282	-54.411	-0.124	0.056
-404.267	-0.117	0.119	-0.084
-403.252	208.177	0.151	0.235
-402.238	-57.348	-0.121	0.053
-401.223	6.543	-0.187	0.138
-400.209	172.312	0.086	-0.123
-399.194	35.528	0.193	0.168
-398.179	423.212	-0.034	-0.072
-397.165	389.016	-0.110	0.226
-396.150	-200.000	0.011	-0.392
-395.136	399.761	0.047	-0.097
-394.121	-32.220	0.077	-0.043
-393.106	-200.000	0.035	0.161
-392.092	-79.447	-0.099	0.033
-391.077	-164.928	-0.343	0.015
-390.063	800.000	0.032	0.105
-389.048	-132.481	-0.232	-0.030
-388.033	-64.372	0.151	-0.061
-387.019	41.482	-0.265	0.239
-386.004	16.379	-0.204	-0.160
-384.990	425.580	0.054	0.115
-383.975	-151.000	0.122	0.009
-382.960	311.702	0.057	-0.107
-381.946	800.000	0.051	0.148
-380.931	-33.382	0.252	-0.139
-379.917	151.828	-0.056	0.076
-378.902	-41.631	0.305	0.156
-377.888	-19.494	-0.091	-0.056
-376.873	800.000	0.074	-0.211
-375.858	-29.345	0.154	-0.088
-374.844	144.395	0.159	0.210
-373.829	-70.301	-0.171	-0.064
-372.815	344.674	-0.057	-0.110
-371.800	95.916	-0.185	-0.210
-370.785	-38.150	-0.039	-0.020
-369.771	-200.000	-0.033	0.290
-368.756	-121.475	-0.097	-0.016
-367.742	-88.403	0.059	-0.018
-366.727	250.084	0.119	-0.201
-365.712	-200.000	-0.009	-0.090
-364.698	-34.459	0.133	-0.072
-363.683	-25.399	-0.089	-0.052
-362.669	-94.996	0.149	0.040
-361.654	14.887	0.311	0.242
-360.639	800.000	0.056	-0.157
-359.625	130.915	-0.213	-0.272
-358.610	230.506	-0.063	-0.103
-357.596	-110.290	0.259	0.053
-356.581	-132.499	0.173	-0.022
-355.566	-68.453	0.063	-0.024
-354.552	619.928	-0.066	0.165
-353.537	800.000	0.107	0.310
-352.523	-8.691	0.134	0.089
-351.508	3.442	0.093	-0.067
-350.493	800.000	0.103	-0.305
-349.479	47.455	-0.281	0.259
-348.464	13.672	0.071	-0.054
-347.450	-1.300	0.031	0.022
-346.435	41.317	-0.204	0.183
-345.420	800.000	0.073	0.224
-344.406	-200.000	0.021	0.094
-343.391	-200.000	-0.049	0.264
-342.377	-186.700	0.225	-0.003
-341.362	-133.614	-0.222	-0.028
-340.348	-200.000	-0.010	-0.255
-339.333	353.696	0.150	0.294
-338.318	1.575	-0.268	0.191
-337.304	-104.364	-0.207	-0.048
-336.289	800.000	-0.050	0.218
-335.275	-200.000	0.016	0.212
-334.260	-125.406	0.171	0.026
-333.245	-93.646	0.226	-0.062
-332.231	800.000	-0.077	0.232
-331.216	98.148	-0.166	-0.189
-330.202	-146.767	-0.203	-0.017
-329.187	74.322	-0.252	-0.263
-328.172	-104.272	0.176	-0.040
-327.158	-200.000	0.003	0.065
-326.143	-200.000	0.035	-0.194
-325.129	50.283	-0.123	0.115
-324.114	24.225	0.104	0.085
-323.099	-48.125	0.172	-0.082
-322.085	-63.030	0.473	-0.193
-321.070	800.000	-0.065	-0.257
-320.056	676.744	-0.066	0.170
-319.041	23.260	-0.243	0.198
-318.026	36.138	-0.103	-0.090
-317.012	-120.470	0.048	-0.008
-315.997	-200.000	-0.037	0.411
-314.983	159.062	0.069	0.095
-313.968	-72.396	0.200	0.073
-312.953	472.189	0.054	-0.121
-311.939	125.996	0.149	0.187
-310.924	232.191	-0.201	0.326
-309.910	131.394	-0.279	-0.355
-308.895	221.380	0.174	0.277
-307.880	75.420	-0.151	-0.157
-306.866	143.208	0.202	-0.266
-305.851	800.000	0.036	0.122
-304.837	182.263	0.142	-0.207
-303.822	2.899	-0.301	-0.216
-302.807	-122.418	-0.161	0.026
-301.793	-47.582	0.265	0.128
-300.778	121.439	-0.197	-0.243
-299.764	658.360	0.062	0.158
-298.749	-200.000	-0.015	-0.091
-297.735	-200.000	0.000	0.167
-296.720	-200.000	0.055	-0.274
-295.705	-200.000	-0.011	0.380
-294.691	800.000	-0.051	0.150
-293.676	278.871	-0.152	-0.268
-292.662	587.611	0.083	-0.203
-291.647	49.203	-0.232	-0.216
-290.632	-15.510	-0.219	0.138
-289.618	-14.438	-0.288	0.184
-288.603	-12.664	-0.216	-0.139
-287.589	54.131	-0.109	-0.103
-286.574	242.636	-0.045	0.075
-285.559	800.000	-0.128	-0.398
-284.545	-143.015	-0.066	0.006
-283.530	85.547	0.207	0.225
-282.516	-96.899	0.176	0.046
-281.501	24.113	0.110	-0.090
-280.486	-18.277	0.242	0.150
-279.472	60.172	-0.090	-0.088
-278.457	27.317	0.201	0.167
-277.443	150.355	-0.317	-0.426
-276.428	-134.065	-0.138	0.017
-275.413	452.425	-0.085	0.186
-274.399	-4.429	0.218	-0.149
-273.384	-200.000	0.012	-0.126
-272.370	435.444	-0.050	0.107
-271.355	60.654	-0.142	-0.139
-270.340	-130.654	-0.283	0.038
-269.326	22.910	0.066	0.054
-268.311	24.488	-0.256	0.210
-267.297	226.179	-0.044	-0.071
-266.282	561.801	0.064	-0.153
-265.267	511.962	0.076	-0.175
-264.253	-76.295	0.228	-0.079
-263.238	-200.000	0.063	0.397
-262.224	-200.000	-0.018	-0.156
-261.209	42.841	-0.275	-0.248
-260.195	132.920	-0.250	-0.319
-259.180	-3.966	-0.365	0.250
-258.165	-144.318	0.225	0.021
-257.151	-125.951	0.182	-0.027
-256.136	-14.554	-0.143	0.091
-255.122	-74.496	-0.294	-0.105
-254.107	-200.000	0.043	0.256
-253.092	-200.000	-0.043	0.360
-252.078	596.458	-0.046	0.112
-251.063	55.058	0.149	0.143
-250.049	151.737	0.053	0.071
-249.034	550.146	0.134	0.316
-248.019	-200.000	-0.039	-0.208
-247.005	800.000	-0.140	-0.383
-245.990	199.763	0.075	-0.114
-244.976	-123.642	0.245	-0.038
-243.961	-98.887	0.207	0.052
-242.946	215.857	-0.179	-0.280
-241.932	-200.000	-0.004	-0.038
-240.917	42.731	-0.067	-0.060
-239.903	95.097	-0.079	-0.088
-238.888	-200.000	0.012	-0.156
-237.873	-200.000	-0.018	-0.224
-236.859	-200.000	-0.011	-0.288
-235.844	-30.189	-0.096	-0.054
-234.830	800.000	-0.063	-0.244
-233.815	-200.000	0.022	-0.346
-232.800	-200.000	-0.011	-0.291
-231.786	-78.335	0.061	-0.021
-230.771	800.000	-0.117	-0.397
-229.757	142.239	0.239	0.313
-228.742	150.550	-0.167	0.224
-227.727	-200.000	0.030	0.307
-226.713	-109.491	-0.217	0.045
-225.698	22.997	0.094	-0.076
-224.684	800.000	-0.145	-0.473
-223.669	21.552	-0.219	-0.176
-222.655	83.733	0.068	0.073
-221.640	23.832	0.349	0.284
-220.625	125.729	0.097	0.121
-219.611	-27.001	-0.132	0.076
-218.596	-200.000	-0.016	0.372
-217.582	69.201	0.149	0.151
-216.567	-137.351	0.142	-0.016
-215.552	77.330	0.024	0.025
-214.538	-126.632	0.172	0.025
-213.523	56.787	-0.155	-0.149
-212.509	-30.101	-0.042	-0.024
-211.494	-15.948	-0.196	0.123
-210.479	-200.000	-0.056	0.375
-209.465	800.000	0.043	0.181
-208.450	-11.030	0.077	-0.050
-207.436	-179.506	-0.244	-0.005
-206.421	-124.669	0.234	0.036
-205.406	-91.172	0.151	-0.043
-204.392	800.000	-0.041	-0.150
-203.377	-200.000	0.006	0.165
-202.363	372.354	0.075	0.150
-201.348	-29.954	0.078	0.044
-200.333	-95.199	0.277	-0.074
-199.319	137.773	-0.088	-0.113
-198.304	156.183	0.137	0.186
-197.290	325.420	-0.043	0.081
-196.275	-200.000	0.001	-0.022
-195.260	678.261	-0.107	-0.275
-194.246	-60.592	0.072	-0.030
-193.231	-16.064	0.163	-0.102
-192.217	50.136	0.127	-0.118
-191.202	713.257	-0.095	-0.248
-190.187	149.446	0.199	-0.265
-189.173	-164.888	-0.254	0.011
-188.158	-200.000	-0.008	-0.167
-187.144	-119.906	0.259	-0.044
-186.129	800.000	-0.074	0.316
-185.114	-141.860	-0.159	0.016
-184.100	-55.294	-0.057	-0.025
-183.085	-73.876	-0.153	0.055
-182.071	199.729	0.091	-0.137
-181.056	368.788	-0.025	0.050
-180.042	-102.216	0.122	0.029
-179.027	444.537	0.072	-0.156
-178.012	50.925	-0.238	0.223
-176.998	800.000	-0.047	0.146
-175.983	43.921	0.127	0.115
-174.969	-150.573	-0.212	0.016
-173.954	-123.233	-0.261	-0.041
-172.939	142.605	0.105	0.138
-171.925	-0.119	-0.343	0.240
-170.910	0.468	0.226	-0.159
-169.896	-164.147	-0.283	0.013
-168.881	0.384	0.127	0.089
-167.866	-75.801	0.318	0.111
-166.852	-126.012	0.187	-0.028
-165.837	-34.603	-0.128	0.069
-164.823	-200.000	-0.046	0.441
-163.808	120.527	0.279	-0.342
-162.793	-200.000	0.002	0.050
-161.779	57.446	0.135	0.129
-160.764	-41.772	-0.194	0.098
-159.750	415.230	0.213	0.446
-158.735	-200.000	-0.076	0.456
-157.720	800.000	0.053	-0.150
-156.706	-200.000	-0.007	0.077
-155.691	-151.507	0.089	0.006
-154.677	800.000	0.037	0.107
-153.662	-102.186	-0.111	-0.026
-152.647	-200.000	0.034	-0.235
-151.633	381.934	-0.020	0.041
-150.618	-36.155	-0.226	0.120
-149.604	82.833	0.184	-0.197
-148.589	197.980	0.039	0.058
-147.574	294.429	-0.161	0.290
-146.560	119.419	0.150	0.183
-145.545	251.436	0.218	0.365
-144.531	202.980	0.083	0.127
-143.516	-200.000	-0.008	0.221
-142.502	77.561	-0.029	-0.030
-141.487	-200.000	-0.014	-0.121
-140.472	163.398	-0.257	-0.355
-139.458	10.558	0.175	-0.131
-138.443	-200.000	-0.014	-0.195
-137.429	-166.193	-0.202	0.008
-136.414	-98.503	0.055	-0.014
-135.399	-89.418	0.146	0.042
-134.385	92.647	-0.205	-0.228
-133.370	166.483	0.068	0.095
-132.356	518.860	-0.044	0.101
-131.341	159.715	-0.116	0.159
-130.326	-200.000	-0.015	0.211
-129.312	-127.196	0.123	-0.018
-128.297	-114.685	-0.254	-0.048
-127.283	-200.000	0.034	-0.175
-126.268	-47.788	-0.136	0.065
-125.253	-200.000	0.001	-0.054
-124.239	-200.000	0.024	0.240
-123.224	43.144	-0.243	-0.218
-122.210	525.592	0.141	-0.327
-121.195	-26.162	-0.444	0.257
-120.180	501.285	0.063	-0.143
-119.166	256.257	-0.115	0.194
-118.151	-141.865	-0.174	-0.017
-117.137	-48.850	-0.340	-0.160
-116.122	-7.479	-0.215	-0.143
-115.107	800.000	-0.055	0.182
-114.093	311.075	-0.117	-0.216
-113.078	800.000	-0.087	0.244
-112.064	46.082	0.178	-0.162
-111.049	23.729	0.022	0.017
-110.034	-148.757	-0.328	0.026
-109.020	-200.000	0.045	-0.275
-108.005	70.815	0.204	-0.207
-106.991	122.284	0.238	0.292
-105.976	-57.928	0.061	0.026
-104.962	-200.000	-0.019	-0.160
-103.947	123.651	-0.089	0.109
-102.932	-145.905	-0.167	-0.015
-101.918	510.035	-0.060	-0.138
-100.903	-106.957	-0.180	-0.039
-99.889	11.235	0.318	-0.239
-98.874	-98.520	-0.254	-0.064
-97.859	-76.057	-0.339	-0.118
-96.845	800.000	0.024	0.073
-95.830	97.094	-0.119	-0.134
-94.816	-200.000	0.004	0.254
-93.801	435.983	-0.155	-0.332
-92.786	-143.667	0.061	-0.006
-91.772	-101.574	0.269	-0.064
-90.757	136.265	0.184	0.235
-89.743	155.803	0.022	-0.030
-88.728	-4.279	0.044	0.030
-87.713	9.068	0.287	0.213
-86.699	9.053	0.100	0.074
-85.684	800.000	0.062	-0.169
-84.670	-108.971	0.295	0.062
-83.655	142.058	0.148	-0.192
-82.640	668.883	0.051	-0.130
-81.626	302.301	-0.044	-0.079
-80.611	800.000	-0.033	-0.117
-79.597	465.483	0.091	0.201
-78.582	-51.775	0.142	-0.065
-77.567	189.891	-0.130	-0.191
-76.553	-73.646	0.360	0.129
-75.538	-36.408	0.164	0.087
-74.524	-127.574	0.062	0.009
-73.509	379.174	-0.076	-0.152
-72.494	-160.385	-0.205	0.011
-71.480	-59.902	0.236	0.099
-70.465	54.467	0.110	-0.104
-69.451	-200.000	-0.054	-0.259
-68.436	144.285	-0.190	-0.249
-67.422	77.084	-0.151	-0.158
-66.407	-133.688	0.133	-0.016
-65.392	-59.907	-0.351	0.147
-64.378	-73.970	-0.331	-0.118
-63.363	183.124	-0.100	-0.144
-62.349	-3.603	-0.190	0.130
-61.334	75.006	-1.008	-1.041
-60.319	-41.507	0.414	0.209
-59.305	-200.000	-0.172	-0.962
-58.290	197.461	0.873	1.306
-57.276	364.909	0.728	1.437
-56.261	-200.000	106.133	614.727
-55.246	506.143	1507.536	3426.334
-54.232	174.696	2710.403	3845.157
-53.217	104.531	2301.378	2657.381
-52.203	38.673	1905.432	1666.977
-51.188	32.620	1692.208	1434.465
-50.173	30.055	1648.145	1378.014
-49.159	49.126	1702.306	1567.972
-48.144	49.410	1717.175	1583.748
-47.130	32.315	1674.210	1416.687
-46.115	29.577	1659.901	1384.041
-45.100	29.435	1655.154	1378.965
-44.086	29.480	1651.732	1376.393
-43.071	29.395	1649.961	1374.230
-42.057	29.340	1647.435	1371.662
-41.042	29.454	1644.937	1370.376
-40.027	29.473	1643.081	1368.919
-39.013	29.338	1641.907	1366.886
-37.998	29.387	1639.982	1365.592
-36.984	29.435	1638.696	1364.819
-35.969	29.601	1636.481	1364.145
-34.954	29.598	1635.417	1363.188
-33.940	29.568	1633.327	1361.166
-32.925	29.581	1631.687	1359.845
-31.911	29.429	1630.193	1357.422
-30.896	29.544	1628.131	1356.502
-29.881	29.496	1626.417	1354.666
-28.867	29.451	1625.324	1353.370
-27.852	29.454	1623.826	1352.091
-26.838	29.502	1622.325	1351.139
-25.823	29.558	1621.154	1350.522
-24.809	29.568	1619.879	1349.475
-23.794	29.548	1618.134	1347.822
-22.779	29.621	1616.803	1347.196
-21.765	29.548	1614.712	1344.866
-20.750	29.525	1613.260	1343.438
-19.736	29.578	1612.235	1342.912
-18.721	29.534	1610.919	1341.444
-17.706	29.567	1608.952	1339.997
-16.692	29.483	1607.903	1338.459
-15.677	29.509	1606.347	1337.296
-14.663	29.592	1605.438	1337.089
-13.648	29.599	1603.658	1335.603
-12.633	29.522	1602.719	1334.215
-11.619	29.567	1600.422	1332.573
-10.604	29.549	1599.303	1331.456
-9.590	29.600	1598.010	1330.698
-8.575	29.630	1596.688	1329.761
-7.560	29.671	1595.115	1328.694
-6.546	29.599	1594.386	1327.510
-5.531	29.553	1593.485	1326.379
-4.517	29.572	1592.041	1325.263
-3.502	29.648	1590.772	1324.698
-2.487	29.601	1589.479	1323.233
-1.473	29.326	1577.835	1311.533
-0.458	26.411	1558.832	1275.160
0.556	20.746	1559.675	1245.130
1.571	18.597	1584.789	1249.428
2.586	18.213	1598.628	1257.404
3.600	16.620	1545.375	1204.081
4.615	8.767	1436.128	1066.745
5.629	1.245	1372.692	971.509
6.644	-0.155	1363.676	956.133
7.659	-0.343	1363.182	954.508
8.673	-0.306	1361.903	953.765
9.688	-0.416	1360.798	952.207
10.702	-0.537	1357.121	948.782
11.717	3.115	1364.144	976.831
12.731	12.493	1381.354	1049.146
13.746	19.753	1393.887	1105.147
14.761	21.730	1396.380	1119.671
15.775	21.958	1396.451	1121.088
16.790	22.167	1395.735	1121.747
17.804	22.077	1395.573	1120.942
18.819	22.403	1395.005	1122.465
19.834	22.441	1394.621	1122.300
20.848	22.405	1393.749	1121.271
21.863	22.455	1392.837	1120.760
22.877	22.414	1392.393	1120.042
23.892	22.448	1391.442	1119.392
24.907	22.463	1390.400	1118.551
25.921	22.478	1389.379	1117.722
26.936	22.520	1387.942	1116.733
27.950	22.421	1387.458	1115.619
28.965	22.458	1386.190	1114.734
29.980	22.545	1384.723	1114.008
30.994	22.439	1383.972	1112.633
32.009	22.473	1382.647	1111.685
33.023	22.476	1381.967	1111.063
34.038	22.412	1380.987	1109.768
35.053	22.419	1380.121	1109.018
36.067	22.484	1378.616	1108.125
37.082	22.361	1378.547	1107.197
38.096	22.407	1376.981	1106.126
39.111	22.553	1375.908	1106.085
40.126	22.411	1375.946	1105.127
41.140	22.472	1374.987	1104.643
42.155	22.433	1374.482	1103.891
43.169	22.489	1374.421	1104.099
44.184	22.451	1373.853	1103.302
45.199	22.467	1373.696	1103.184
46.213	22.475	1372.941	1102.527
47.228	22.431	1372.312	1101.649
48.242	22.575	1370.414	1100.930
49.257	22.493	1369.555	1099.627
50.271	22.508	1368.138	1098.488
51.286	22.514	1366.796	1097.351
52.301	22.487	1365.449	1096.003
53.315	22.465	1364.653	1095.131
54.330	22.499	1364.173	1094.862
55.344	22.516	1362.263	1093.336
56.359	22.385	1361.997	1092.215
57.374	22.447	1360.872	1091.600
58.388	22.508	1360.289	1091.410
59.403	22.509	1359.780	1090.912
60.417	22.464	1359.008	1089.919
61.432	22.453	1358.536	1089.375
62.447	22.490	1357.423	1088.615
63.461	22.490	1356.405	1087.704
64.476	22.470	1355.459	1086.724
65.490	22.493	1354.011	1085.607
66.505	22.538	1352.464	1084.547
67.520	22.532	1351.157	1083.371
68.534	22.444	1350.597	1082.285
69.549	22.449	1349.629	1081.442
70.563	22.588	1348.260	1081.102
71.578	22.428	1348.151	1079.936
72.593	22.557	1347.098	1079.791
73.607	22.485	1346.181	1078.515
74.622	22.475	1345.704	1077.982
75.636	22.513	1344.782	1077.375
76.651	22.589	1344.152	1077.244
77.666	22.434	1343.906	1076.000
78.680	22.403	1343.247	1075.189
79.695	22.550	1341.893	1074.911
80.709	22.579	1341.322	1074.532
81.724	22.579	1340.415	1073.709
82.739	22.449	1339.485	1072.077
83.753	22.513	1338.291	1071.421
84.768	22.481	1337.425	1070.435
85.782	22.546	1336.404	1069.917
86.797	22.600	1334.945	1068.985
87.812	22.592	1334.169	1068.218
88.826	22.536	1333.015	1066.862
89.841	22.373	1332.331	1065.232
90.855	22.472	1331.430	1065.015
91.870	22.587	1329.722	1064.250
92.884	22.584	1329.419	1063.899
93.899	22.504	1328.692	1062.739
94.914	22.565	1327.655	1062.182
95.928	22.532	1326.942	1061.317
96.943	22.550	1326.451	1060.943
97.957	22.552	1325.840	1060.371
98.972	22.606	1324.533	1059.556
99.987	22.714	1323.203	1059.045
101.001	22.534	1323.110	1057.798
102.016	22.608	1321.678	1057.001
103.030	22.602	1320.844	1056.208
104.045	22.584	1319.871	1055.226
105.060	22.726	1318.588	1054.955
106.074	22.656	1317.533	1053.599
107.089	22.623	1317.289	1053.118
108.103	22.595	1315.953	1051.786
109.118	22.754	1314.314	1051.331
110.133	22.577	1313.636	1049.645
111.147	22.611	1312.335	1048.712
112.162	22.628	1311.009	1047.664
113.176	22.694	1310.013	1047.163
114.191	22.636	1309.407	1046.243
115.206	22.527	1308.721	1044.955
116.220	22.617	1307.180	1044.166
117.235	22.685	1305.903	1043.456
118.249	22.606	1305.250	1042.376
119.264	22.730	1304.371	1042.313
120.279	22.657	1303.577	1041.154
121.293	22.751	1302.325	1040.615
122.308	22.619	1302.216	1039.662
123.322	22.639	1300.931	1038.658
124.337	22.718	1300.108	1038.375
125.352	22.636	1299.395	1037.235
126.366	22.654	1298.249	1036.332
127.381	22.801	1297.059	1036.152
128.395	22.723	1296.574	1035.219
129.410	22.678	1295.982	1034.390
130.424	22.693	1294.972	1033.576
131.439	22.838	1293.739	1033.355
132.454	22.495	1293.403	1030.982
133.468	22.714	1292.482	1031.438
134.483	22.650	1292.183	1030.738
135.497	22.730	1291.063	1030.219
136.512	22.697	1289.919	1029.022
137.527	22.668	1288.663	1027.758
138.541	22.640	1287.282	1026.407
139.556	22.731	1285.946	1025.777
140.570	22.680	1285.012	1024.644
141.585	22.706	1284.454	1024.262
142.600	22.580	1283.130	1022.387
143.614	22.677	1282.119	1022.052
144.629	22.666	1281.585	1021.472
145.643	22.504	1280.446	1019.533
146.658	22.541	1279.481	1018.889
147.673	22.595	1278.075	1017.990
148.687	22.537	1277.369	1017.003
149.702	22.650	1275.885	1016.383
150.716	22.532	1275.166	1015.042
151.731	22.598	1274.224	1014.583
152.746	22.591	1272.946	1013.434
153.760	22.771	1271.977	1013.606
154.775	22.600	1271.178	1011.901
155.789	22.796	1269.659	1011.723
156.804	22.701	1269.242	1010.756
157.819	22.731	1268.203	1010.016
158.833	22.734	1267.798	1009.617
159.848	22.762	1266.825	1008.916
160.862	22.815	1265.790	1008.302
161.877	22.754	1264.971	1007.212
162.892	22.810	1264.134	1006.777
163.906	22.869	1263.589	1006.590
164.921	22.833	1262.680	1005.571
165.935	22.808	1261.936	1004.751
166.950	22.874	1261.134	1004.398
167.964	22.745	1261.039	1003.501
168.979	22.843	1260.471	1003.516
169.994	22.862	1259.481	1002.747
171.008	22.686	1259.093	1001.349
172.023	22.836	1258.341	1001.513
173.037	22.869	1257.866	1001.235
174.052	22.817	1256.751	999.961
175.067	22.820	1255.863	999.188
176.081	22.757	1255.349	998.329
177.096	22.690	1254.661	997.316
178.110	22.828	1253.352	996.967
179.125	22.761	1252.450	995.784
180.140	22.875	1251.471	995.562
181.154	22.844	1250.189	994.276
182.169	22.732	1249.492	993.002
183.183	22.722	1248.302	991.916
184.198	22.802	1247.368	991.533
185.213	22.972	1246.116	991.408
186.227	22.925	1245.436	990.511
187.242	22.939	1244.374	989.661
188.256	22.956	1243.510	988.979
189.271	22.922	1242.938	988.246
190.286	22.951	1242.414	987.905
191.300	22.848	1241.746	986.711
192.315	22.906	1241.128	986.459
193.329	22.971	1240.543	986.269
194.344	22.978	1240.614	986.275
195.359	22.830	1240.446	985.228
196.373	22.842	1239.525	984.479
197.388	22.719	1239.085	983.356
198.402	22.871	1238.851	983.930
199.417	22.840	1238.250	983.194
200.432	22.933	1237.894	983.341
201.446	22.950	1236.457	982.207
202.461	22.967	1235.742	981.646
203.475	22.802	1235.611	980.537
204.490	22.941	1233.899	979.863
205.504	22.922	1233.318	979.211
206.519	22.929	1232.464	978.487
207.534	22.904	1231.154	977.218
208.548	22.955	1230.367	976.788
209.563	22.909	1229.905	976.081
210.577	23.109	1228.565	976.039
211.592	22.969	1227.945	974.687
212.607	23.021	1227.415	974.467
213.621	23.013	1226.538	973.639
214.636	22.940	1225.771	972.544
215.650	23.003	1224.531	971.821
216.665	23.023	1223.754	971.224
217.680	23.024	1223.097	970.623
218.694	23.075	1222.161	970.078
219.709	23.041	1221.718	969.451
220.723	23.076	1220.884	968.895
221.738	22.990	1220.169	967.773
222.753	22.974	1219.604	967.150
223.767	23.019	1218.651	966.554
224.782	23.143	1218.318	966.885
225.796	23.097	1217.863	966.186
226.811	23.150	1217.034	965.734
227.826	23.130	1216.607	965.196
228.840	23.052	1216.056	964.250
229.855	23.115	1215.113	963.758
230.869	23.137	1214.363	963.201
231.884	23.091	1213.683	962.326
232.899	23.098	1213.149	961.853
233.913	23.027	1213.054	961.310
234.928	23.205	1212.233	961.538
235.942	23.238	1211.294	960.890
236.957	23.216	1210.472	960.032
237.972	23.289	1209.758	959.777
238.986	23.161	1209.422	958.729
240.001	23.206	1208.825	958.416
241.015	23.347	1208.009	958.446
242.030	23.259	1207.214	957.255
243.045	23.252	1206.365	956.461
244.059	23.151	1205.969	955.516
245.074	23.295	1205.170	955.574
246.088	23.364	1204.384	955.241
247.103	23.346	1203.458	954.323
248.117	23.286	1202.735	953.344
249.132	23.225	1202.142	952.462
250.147	23.376	1201.553	952.721
251.161	23.387	1200.051	951.505
252.176	23.274	1199.820	950.632
253.190	23.335	1199.188	950.375
254.205	23.232	1198.521	949.212
255.220	23.370	1198.047	949.490
256.234	23.427	1197.448	949.236
257.249	23.392	1196.874	948.511
258.263	23.425	1196.636	948.413
259.278	23.339	1195.961	947.337
260.293	23.343	1194.919	946.448
261.307	23.382	1194.488	946.232
262.322	23.398	1194.338	946.116
263.336	23.499	1193.131	945.614
264.351	23.401	1192.466	944.478
265.366	23.331	1191.906	943.580
266.380	23.416	1191.650	943.745
267.395	23.478	1190.762	943.289
268.409	23.315	1189.886	941.643
269.424	23.440	1189.585	941.989
270.439	23.381	1189.280	941.348
271.453	23.639	1188.282	941.845
272.468	23.427	1187.325	939.881
273.482	23.444	1186.853	939.514
274.497	23.531	1186.427	939.553
275.512	23.552	1185.769	939.062
276.526	23.561	1185.002	938.415
277.541	23.625	1184.047	937.914
278.555	23.543	1183.713	937.134
279.570	23.578	1182.947	936.630
280.585	23.521	1182.004	935.498
281.599	23.615	1180.949	935.076
282.614	23.458	1180.534	933.839
283.628	23.549	1179.542	933.451
284.643	23.598	1178.699	932.959
285.657	23.606	1177.931	932.309
286.672	23.572	1176.894	931.231
287.687	23.537	1176.676	930.792
288.701	23.650	1176.075	930.824
289.716	23.769	1174.877	930.420
290.730	23.600	1174.659	929.278
291.745	23.645	1174.053	928.953
292.760	23.697	1172.987	928.300
293.774	23.708	1172.823	928.143
294.789	23.557	1172.378	926.922
295.803	23.593	1172.014	926.741
296.818	23.744	1170.972	926.622
297.833	23.741	1170.225	925.933
298.847	23.721	1169.483	925.161
299.862	23.778	1168.413	924.525
300.876	23.715	1168.152	923.909
301.891	23.743	1167.698	923.614
302.906	23.817	1166.861	923.256
303.920	23.708	1166.319	922.179
304.935	23.786	1166.241	922.439
305.949	23.787	1165.087	921.455
306.964	23.715	1164.487	920.522
307.979	23.903	1163.382	920.543
308.993	23.906	1163.058	920.220
310.008	23.923	1162.433	919.731
311.022	23.886	1161.428	918.664
312.037	23.906	1161.113	918.436
313.052	23.998	1159.898	917.870
314.066	23.908	1159.280	916.836
315.081	23.843	1158.501	915.801
316.095	23.835	1157.515	914.899
317.110	23.915	1157.309	915.066
318.125	23.916	1156.469	914.327
319.139	24.034	1155.905	914.407
320.154	24.016	1154.920	913.458
321.168	24.017	1154.733	913.231
322.183	24.042	1154.252	912.896
323.197	23.933	1153.588	911.733
324.212	23.922	1153.010	911.139
325.227	24.007	1152.600	911.169
326.241	23.919	1152.285	910.391
327.256	23.937	1151.213	909.557
328.270	23.968	1150.292	908.905
329.285	23.943	1149.867	908.362
330.300	24.053	1148.534	907.790
331.314	24.034	1147.970	907.166
332.329	23.969	1147.469	906.360
333.343	24.030	1146.296	905.663
334.358	24.108	1145.799	905.589
335.373	24.163	1144.912	905.084
336.387	24.091	1144.352	904.195
337.402	24.103	1143.697	903.660
338.416	24.138	1143.140	903.315
339.431	24.071	1142.552	902.431
340.446	24.197	1141.869	902.450
341.460	24.159	1141.416	901.822
342.475	24.248	1140.437	901.417
343.489	24.234	1139.877	900.826
344.504	24.197	1138.416	899.403
345.519	24.156	1137.892	898.701
346.533	24.322	1136.964	898.727
347.548	24.279	1136.203	897.832
348.562	24.353	1135.314	897.422
349.577	24.346	1134.667	896.794
350.592	24.189	1134.315	895.649
351.606	24.255	1133.209	895.028
352.621	24.290	1132.871	894.858
353.635	24.236	1132.617	894.304
354.650	24.358	1131.485	893.946
355.665	24.300	1131.320	893.443
356.679	24.184	1130.843	892.406
357.694	24.400	1129.881	892.651
358.708	24.501	1129.024	892.398
359.723	24.346	1128.510	891.140
360.738	24.343	1127.731	890.431
361.752	24.358	1127.399	890.164
362.767	24.426	1126.570	889.768
363.781	24.360	1126.499	889.305
364.796	24.393	1125.629	888.705
365.810	24.518	1124.901	888.671
366.825	24.399	1124.396	887.604
367.840	24.536	1124.159	888.020
368.854	24.527	1123.438	887.329
369.869	24.408	1122.851	886.196
370.883	24.522	1121.991	886.001
371.898	24.529	1121.194	885.330
372.913	24.499	1120.810	884.797
373.927	24.480	1120.520	884.397
374.942	24.520	1119.761	883.920
375.956	24.654	1119.022	883.920
376.971	24.628	1118.659	883.426
377.986	24.628	1117.772	882.647
379.000	24.639	1117.246	882.209
380.015	24.672	1116.892	882.013
381.029	24.869	1115.593	881.879
382.044	24.587	1115.473	880.317
383.059	24.678	1115.077	880.374
384.073	24.700	1114.590	880.023
385.088	24.739	1113.475	879.256
386.102	24.749	1112.400	878.376
387.117	24.600	1112.225	877.430
388.132	24.641	1110.717	876.367
389.146	24.634	1110.570	876.135
390.161	24.694	1109.708	875.672
391.175	24.730	1109.025	875.232
392.190	24.680	1108.406	874.423
393.205	24.651	1107.586	873.555
394.219	24.717	1106.946	873.298
395.234	24.850	1106.180	873.264
396.248	24.795	1105.423	872.318
397.263	24.794	1104.229	871.299
398.278	24.864	1103.753	871.184
399.292	24.912	1103.257	870.950
400.307	24.926	1102.475	870.323
401.321	24.856	1102.152	869.653
402.336	24.772	1101.157	868.381
403.350	24.880	1100.587	868.379
404.365	24.890	1099.877	867.788
405.380	24.910	1098.973	867.096
406.394	24.953	1098.443	866.809
407.409	24.955	1097.772	866.215
408.423	24.952	1097.270	865.726
409.438	25.056	1096.445	865.503
410.453	24.975	1096.173	864.819
411.467	25.097	1095.049	864.444
412.482	25.020	1094.005	863.170
413.496	25.090	1093.566	863.086
414.511	25.082	1093.032	862.551
415.526	25.065	1092.566	862.023
416.540	25.044	1092.274	861.619
417.555	24.994	1092.180	861.224
418.569	25.057	1091.450	860.878
419.584	25.133	1091.173	860.948
420.599	25.047	1090.633	860.030
421.613	147.862	1403.843	1798.604
422.628	136.790	1449.442	1798.684
