DTS Sentinel unit serial number:	SN413079Multiplexer serial number:	ORYXHardware model number:	OX4-SRSoftware version number:	ORYX F/W v4.00 Oryx Data Collector v3.7.2.0data status	okinstallation	princeton_trtdifferential loss correction	single-endedforward channel	channel 2reverse channel	N/Adate	2019/09/11time	06:21:10forward acquisition time	60.00reverse acquisition time	0.00gamma	496.2192k internal	0.2329k external	0.2329temperature offset calibration	0.9939default loss term (dB/km)	0.3790temperature slope calibration	1.0000multiplexer offset coefficient	1.0000multiplexer slope coefficient	1.0000fibre end	0.00T internal ref (°C)	29.55T ext. ref 1 (°C)	-0.19T ext. ref 2 (°C)	24.00length (m)	temperature (°C)	Stokes	anti-Stokes-747.200	6.531	-0.230	0.172
-746.185	-200.000	0.067	0.324
-745.171	453.357	0.143	0.320
-744.156	-16.886	0.240	-0.153
-743.142	800.000	-0.023	0.085
-742.127	-14.698	-0.122	-0.079
-741.112	3.829	0.088	0.065
-740.098	-200.000	-0.029	0.349
-739.083	-118.356	-0.103	-0.018
-738.069	-103.170	-0.198	-0.047
-737.054	-50.257	0.172	0.082
-736.039	185.776	0.068	-0.102
-735.025	496.377	0.022	-0.050
-734.010	467.425	-0.072	-0.163
-732.996	2.172	-0.029	-0.021
-731.981	753.857	-0.040	0.110
-730.966	-113.363	0.139	0.027
-729.952	-61.217	0.281	0.119
-728.937	-113.062	-0.435	0.087
-727.923	800.000	0.042	-0.153
-726.908	-94.926	-0.069	0.019
-725.894	-40.617	-0.204	0.106
-724.879	342.995	-0.103	-0.203
-723.864	-64.850	-0.025	-0.010
-722.850	88.395	-0.060	0.068
-721.835	163.172	-0.019	0.027
-720.821	59.122	0.209	0.207
-719.806	-200.000	-0.027	-0.167
-718.791	800.000	-0.108	-0.418
-717.777	-200.000	0.000	-0.103
-716.762	-182.644	0.197	0.004
-715.748	629.631	0.122	-0.310
-714.733	-158.519	-0.326	-0.019
-713.718	-200.000	-0.026	-0.284
-712.704	-72.654	0.256	0.095
-711.689	-71.966	0.323	0.121
-710.675	238.540	-0.147	-0.246
-709.660	12.486	0.109	0.084
-708.645	62.145	-0.186	-0.186
-707.631	800.000	0.111	0.311
-706.616	499.175	-0.096	0.222
-705.602	-200.000	0.042	-0.341
-704.587	189.962	0.033	-0.050
-703.572	59.818	-0.253	0.251
-702.558	-87.046	-0.162	-0.049
-701.543	-2.091	-0.155	0.110
-700.529	253.042	0.131	-0.226
-699.514	-185.431	-0.143	0.002
-698.499	614.645	-0.080	0.202
-697.485	113.354	0.184	0.225
-696.470	-36.802	-0.209	0.113
-695.456	344.062	-0.108	-0.213
-694.441	-200.000	0.006	-0.237
-693.426	-200.000	0.019	-0.246
-692.412	-178.811	-0.225	-0.005
-691.397	-60.201	0.325	-0.139
-690.383	50.960	-0.031	0.030
-689.368	40.733	-0.094	0.085
-688.354	575.152	-0.102	-0.249
-687.339	-200.000	0.019	-0.343
-686.324	-194.268	-0.170	0.001
-685.310	91.786	-0.145	-0.163
-684.295	-146.671	-0.161	0.014
-683.281	57.034	0.176	-0.172
-682.266	800.000	0.116	-0.357
-681.251	-86.178	-0.405	-0.125
-680.237	174.823	-0.126	0.183
-679.222	-26.422	0.302	-0.178
-678.208	800.000	-0.066	-0.266
-677.193	-92.815	-0.197	0.055
-676.178	-200.000	-0.038	-0.278
-675.164	800.000	-0.072	-0.259
-674.149	-118.728	0.087	0.015
-673.135	-99.661	-0.107	-0.027
-672.120	544.222	-0.009	-0.021
-671.105	84.447	0.345	-0.379
-670.091	535.744	-0.147	-0.351
-669.076	-168.205	0.248	-0.010
-668.062	18.548	-0.178	0.143
-667.047	173.090	0.063	0.091
-666.032	-90.080	-0.070	0.020
-665.018	800.000	-0.034	0.101
-664.003	-200.000	-0.054	-0.256
-662.989	103.671	0.240	-0.283
-661.974	-200.000	0.017	-0.376
-660.959	5.594	0.205	0.152
-659.945	-200.000	0.017	-0.113
-658.930	800.000	-0.023	-0.096
-657.916	42.799	-0.206	-0.189
-656.901	72.144	0.314	-0.329
-655.886	-48.550	0.225	0.109
-654.872	146.306	-0.063	0.085
-653.857	-137.157	0.435	-0.050
-652.843	-78.272	0.302	-0.104
-651.828	-200.000	0.040	-0.336
-650.814	-103.630	0.188	-0.044
-649.799	-26.566	0.087	-0.051
-648.784	10.161	0.094	-0.072
-647.770	-142.048	-0.078	-0.008
-646.755	800.000	0.025	0.070
-645.741	-200.000	0.024	-0.144
-644.726	-52.154	0.168	-0.078
-643.711	-200.000	0.002	-0.450
-642.697	-32.140	0.325	-0.182
-641.682	800.000	0.108	-0.319
-640.668	83.901	-0.099	-0.108
-639.653	-96.270	-0.271	-0.072
-638.638	-41.529	0.210	-0.108
-637.624	515.498	0.098	-0.229
-636.609	277.423	0.122	0.217
-635.595	-95.083	-0.153	0.041
-634.580	-31.088	-0.082	0.046
-633.565	-122.557	-0.271	0.044
-632.551	-200.000	0.002	-0.454
-631.536	-200.000	-0.026	0.211
-630.522	-3.886	-0.101	0.070
-629.507	800.000	-0.035	-0.133
-628.492	553.413	0.053	-0.127
-627.478	-62.954	-0.132	0.055
-626.463	-139.889	-0.320	0.034
-625.449	59.179	0.096	0.095
-624.434	-200.000	0.001	-0.019
-623.419	85.521	0.095	-0.105
-622.405	-157.647	-0.173	0.010
-621.390	-145.102	-0.392	-0.036
-620.376	37.256	0.140	-0.125
-619.361	-25.150	0.066	0.039
-618.346	-112.181	0.128	-0.026
-617.332	51.676	0.083	-0.079
-616.317	250.324	0.068	0.116
-615.303	33.012	0.344	0.299
-614.288	-170.763	-0.095	-0.003
-613.273	133.806	0.177	-0.230
-612.259	-200.000	0.019	0.345
-611.244	-109.213	0.216	-0.046
-610.230	324.339	0.014	-0.027
-609.215	-124.770	-0.207	0.032
-608.201	65.116	-0.129	0.131
-607.186	800.000	-0.027	0.116
-606.171	289.299	0.087	0.158
-605.157	-109.582	0.125	-0.026
-604.142	-167.197	0.262	0.011
-603.128	-112.642	-0.031	0.006
-602.113	509.308	0.053	0.124
-601.098	124.424	-0.144	0.182
-600.084	354.325	0.017	-0.035
-599.069	800.000	-0.128	-0.500
-598.055	800.000	-0.026	-0.105
-597.040	-200.000	0.046	-0.435
-596.025	-200.000	0.032	0.156
-595.011	-138.468	0.157	0.017
-593.996	-61.902	0.028	0.012
-592.982	-65.131	-0.346	-0.140
-591.967	-69.807	-0.248	0.095
-590.952	40.404	0.268	0.242
-589.938	800.000	0.060	0.186
-588.923	46.530	0.034	0.032
-587.909	528.181	0.082	0.194
-586.894	-181.054	0.365	0.007
-585.879	120.675	-0.157	0.196
-584.865	-190.753	0.260	-0.003
-583.850	-86.717	-0.314	0.096
-582.836	41.607	0.135	-0.122
-581.821	34.936	-0.087	-0.076
-580.806	41.188	0.151	-0.137
-579.792	-200.000	0.002	0.295
-578.777	-99.829	-0.122	-0.030
-577.763	184.921	-0.139	-0.206
-576.748	329.785	0.253	-0.487
-575.733	-6.348	-0.061	-0.042
-574.719	-200.000	-0.026	-0.191
-573.704	-48.650	-0.295	0.142
-572.690	-200.000	-0.047	-0.209
-571.675	214.243	-0.094	-0.149
-570.661	-154.480	0.209	0.014
-569.646	39.730	0.113	0.102
-568.631	65.469	-0.106	0.108
-567.617	10.147	0.215	-0.163
-566.602	-171.042	0.172	0.006
-565.588	185.309	-0.180	-0.267
-564.573	46.071	0.310	0.287
-563.558	614.171	-0.095	-0.238
-562.544	81.713	-0.019	-0.020
-561.529	-200.000	-0.064	-0.303
-560.515	163.695	0.169	0.238
-559.500	-66.826	0.103	-0.041
-558.485	-200.000	-0.048	-0.395
-557.471	615.238	0.032	0.081
-556.456	-200.000	0.011	0.110
-555.442	6.818	0.123	0.092
-554.427	-154.155	-0.111	-0.008
-553.412	-200.000	0.030	0.137
-552.398	-200.000	-0.029	0.449
-551.383	-103.778	0.284	0.067
-550.369	15.185	0.269	0.211
-549.354	120.799	0.056	0.070
-548.339	-129.881	0.233	0.032
-547.325	309.695	-0.056	0.104
-546.310	-200.000	-0.031	0.250
-545.296	124.021	0.158	-0.198
-544.281	29.151	0.230	0.195
-543.266	778.560	-0.028	-0.078
-542.252	-54.493	0.164	-0.074
-541.237	800.000	-0.027	-0.096
-540.223	5.807	-0.315	0.233
-539.208	453.501	-0.074	0.163
-538.193	-157.716	-0.261	-0.016
-537.179	-129.805	-0.169	-0.023
-536.164	115.819	-0.027	-0.033
-535.150	59.123	-0.273	-0.269
-534.135	-200.000	0.006	0.234
-533.121	-89.639	0.174	-0.051
-532.106	-5.047	0.229	-0.157
-531.091	800.000	-0.051	-0.218
-530.077	60.061	-0.303	0.299
-529.062	-195.667	-0.045	-0.000
-528.048	286.102	0.123	0.222
-527.033	-200.000	0.049	-0.257
-526.018	206.804	0.044	-0.068
-525.004	89.930	0.050	-0.056
-523.989	17.178	-0.159	-0.126
-522.975	-200.000	-0.013	-0.237
-521.960	557.209	0.130	-0.312
-520.945	-28.291	-0.363	-0.209
-519.931	-96.136	-0.171	-0.045
-518.916	-149.689	-0.125	-0.010
-517.902	-40.157	-0.146	0.076
-516.887	-123.120	-0.185	-0.030
-515.872	625.980	0.069	-0.173
-514.858	-200.000	-0.041	0.254
-513.843	514.221	-0.113	-0.262
-512.829	-85.244	0.279	0.087
-511.814	404.774	-0.063	-0.132
-510.799	-38.987	-0.010	-0.005
-509.785	-10.212	0.102	0.067
-508.770	-146.260	0.220	-0.019
-507.756	800.000	0.104	0.302
-506.741	772.141	0.084	-0.228
-505.726	-174.999	0.071	0.002
-504.712	-200.000	0.005	-0.030
-503.697	-40.052	-0.298	0.155
-502.683	-117.940	-0.223	-0.040
-501.668	-58.199	-0.197	-0.086
-500.653	-57.956	0.257	0.112
-499.639	212.224	-0.152	-0.239
-498.624	-200.000	-0.029	-0.453
-497.610	-34.293	0.256	0.140
-496.595	192.578	-0.095	0.144
-495.581	-23.246	-0.145	0.087
-494.566	158.953	-0.161	-0.223
-493.551	-2.215	0.073	0.051
-492.537	-200.000	-0.023	0.174
-491.522	-200.000	-0.037	0.282
-490.508	-87.758	0.104	0.031
-489.493	800.000	0.052	0.176
-488.478	-36.984	-0.319	-0.170
-487.464	-71.100	-0.097	-0.036
-486.449	104.721	-0.215	-0.253
-485.435	13.816	-0.174	-0.135
-484.420	-200.000	0.064	-0.387
-483.405	-53.997	0.461	0.209
-482.391	572.313	0.057	0.138
-481.376	-127.914	0.144	0.021
-480.362	-200.000	0.008	0.073
-479.347	800.000	-0.140	0.403
-478.332	217.528	0.135	0.215
-477.318	-200.000	-0.070	-0.000
-476.303	421.396	-0.116	-0.247
-475.289	459.376	-0.115	-0.254
-474.274	-146.248	-0.261	-0.023
-473.259	-76.260	0.130	0.046
-472.245	800.000	0.094	0.267
-471.230	-30.406	-0.102	-0.058
-470.216	-1.788	-0.072	0.051
-469.201	-131.950	0.386	0.050
-468.186	800.000	-0.055	-0.163
-467.172	506.013	-0.193	-0.445
-466.157	-185.461	-0.388	0.006
-465.143	54.719	0.219	0.211
-464.128	-125.067	0.149	0.023
-463.113	-200.000	-0.030	0.371
-462.099	-50.878	0.057	0.027
-461.084	-24.199	-0.127	0.076
-460.070	-200.000	0.008	-0.208
-459.055	10.909	-0.206	-0.157
-458.040	-40.156	0.018	0.009
-457.026	563.865	0.064	0.155
-456.011	-64.851	-0.490	-0.197
-454.997	-200.000	-0.041	0.233
-453.982	800.000	-0.073	0.275
-452.968	-200.000	-0.013	-0.062
-451.953	-200.000	-0.011	-0.068
-450.938	800.000	0.132	-0.402
-449.924	115.789	0.068	0.083
-448.909	125.091	-0.108	0.135
-447.895	721.730	-0.059	0.157
-446.880	-39.365	-0.286	0.150
-445.865	-200.000	0.009	-0.228
-444.851	-177.827	-0.271	-0.006
-443.836	76.352	-0.236	0.249
-442.822	-17.009	-0.061	-0.038
-441.807	-200.000	0.009	-0.305
-440.792	37.055	-0.257	-0.227
-439.778	12.863	0.187	-0.144
-438.763	340.726	-0.043	0.083
-437.749	-71.476	-0.131	-0.049
-436.734	-85.894	0.017	0.005
-435.719	29.546	0.079	-0.067
-434.705	205.925	-0.123	0.191
-433.690	329.177	-0.097	0.186
-432.676	-0.479	-0.059	0.041
-431.661	509.039	0.116	0.267
-430.646	53.468	-0.338	0.322
-429.632	254.091	-0.059	0.100
-428.617	70.033	-0.118	-0.121
-427.603	-200.000	-0.074	0.381
-426.588	-131.434	-0.291	0.038
-425.573	-200.000	-0.027	0.243
-424.559	224.959	-0.209	-0.336
-423.544	253.354	-0.064	0.109
-422.530	252.027	0.241	0.409
-421.515	191.162	0.224	-0.335
-420.500	-200.000	-0.021	-0.253
-419.486	62.900	0.229	-0.228
-418.471	436.874	-0.079	-0.172
-417.457	-200.000	-0.012	0.150
-416.442	129.135	-0.135	-0.171
-415.428	800.000	-0.131	-0.379
-414.413	-142.648	0.044	-0.004
-413.398	547.838	-0.113	0.269
-412.384	131.193	-0.064	-0.082
-411.369	307.064	-0.130	0.240
-410.355	-6.918	-0.184	-0.124
-409.340	-139.562	0.362	0.038
-408.325	-200.000	0.013	0.341
-407.311	-15.211	0.237	0.151
-406.296	800.000	-0.050	0.169
-405.282	30.056	0.031	-0.026
-404.267	-166.489	-0.188	-0.008
-403.252	-104.701	-0.179	0.041
-402.238	172.099	0.147	-0.210
-401.223	7.907	0.062	0.047
-400.209	-110.013	-0.273	0.057
-399.194	-43.954	0.128	0.064
-398.179	-24.758	-0.201	0.119
-397.165	-200.000	0.007	-0.059
-396.150	-116.686	0.138	0.025
-395.136	62.440	-0.192	-0.190
-394.121	-118.414	0.349	0.061
-393.106	800.000	0.057	-0.241
-392.092	-140.471	-0.178	0.018
-391.077	52.206	0.104	-0.098
-390.063	-118.814	0.309	-0.054
-389.048	49.481	0.405	0.379
-388.033	-25.553	0.163	0.096
-387.019	415.190	-0.062	-0.130
-386.004	-124.430	-0.121	0.019
-384.990	-200.000	-0.007	0.074
-383.975	449.672	0.077	-0.169
-382.960	-200.000	-0.003	0.146
-381.946	63.339	0.220	-0.219
-380.931	116.057	0.105	0.128
-379.917	-6.216	-0.174	0.118
-378.902	661.627	-0.115	0.293
-377.888	714.653	0.093	0.245
-376.873	273.498	-0.272	0.477
-375.858	800.000	0.102	-0.325
-374.844	74.715	0.175	-0.183
-373.829	-200.000	0.016	0.143
-372.815	73.635	-0.018	0.019
-371.800	-16.011	-0.253	-0.160
-370.785	-200.000	-0.007	0.126
-369.771	112.817	0.074	0.089
-368.756	43.816	-0.207	0.188
-367.742	-152.752	-0.175	0.012
-366.727	726.432	0.025	0.066
-365.712	0.681	-0.283	-0.201
-364.698	-79.863	0.273	-0.091
-363.683	-93.027	-0.101	-0.028
-362.669	-160.066	0.337	0.018
-361.654	303.721	0.140	-0.257
-360.639	-46.632	-0.155	-0.075
-359.625	72.902	-0.033	0.034
-358.610	-116.376	0.348	-0.064
-357.596	-57.128	0.188	0.082
-356.581	-123.041	-0.147	0.023
-355.566	129.359	-0.045	0.057
-354.552	38.149	0.125	0.110
-353.537	-75.734	0.199	-0.070
-352.523	-200.000	-0.070	0.348
-351.508	-23.692	0.066	-0.039
-350.493	-64.786	0.403	0.162
-349.479	188.368	0.134	0.198
-348.464	800.000	-0.048	-0.193
-347.450	800.000	0.044	-0.164
-346.435	800.000	0.089	0.310
-345.420	47.987	-0.292	0.270
-344.406	324.173	0.067	0.128
-343.391	-79.714	-0.165	0.055
-342.377	800.000	-0.096	-0.272
-341.362	-134.648	0.138	-0.017
-340.348	-167.626	-0.496	0.020
-339.333	2.308	0.127	-0.091
-338.318	99.105	0.121	0.138
-337.304	50.039	0.145	-0.136
-336.289	-12.170	0.291	0.189
-335.275	800.000	-0.022	-0.062
-334.260	-200.000	-0.018	-0.240
-333.245	-112.601	-0.268	0.053
-332.231	60.911	0.289	0.284
-331.216	800.000	-0.015	-0.058
-330.202	-200.000	0.016	-0.114
-329.187	-141.772	-0.351	0.035
-328.172	52.895	-0.331	0.314
-327.158	478.152	-0.132	0.296
-326.143	-154.945	0.262	-0.017
-325.129	-200.000	-0.090	-0.453
-324.114	33.297	-0.244	-0.210
-323.099	800.000	0.130	0.430
-322.085	197.540	-0.173	0.261
-321.070	-89.206	0.302	-0.088
-320.056	-200.000	-0.014	0.254
-319.041	249.183	-0.103	0.172
-318.026	-66.562	-0.136	-0.053
-317.012	-132.815	0.071	-0.009
-315.997	-97.214	-0.092	0.024
-314.983	-92.828	-0.385	-0.107
-313.968	256.736	0.082	-0.140
-312.953	-200.000	-0.026	-0.116
-311.939	-200.000	-0.017	-0.166
-310.924	800.000	-0.074	0.232
-309.910	287.039	0.070	-0.125
-308.895	-143.562	0.130	-0.012
-307.880	73.940	0.141	-0.147
-306.866	-91.282	0.260	0.074
-305.851	800.000	0.033	0.107
-304.837	-40.691	0.205	-0.105
-303.822	44.583	-0.059	0.054
-302.807	-117.839	-0.133	-0.024
-301.793	21.389	-0.197	-0.159
-300.778	170.278	0.204	-0.289
-299.764	309.849	-0.172	-0.318
-298.749	-79.596	0.219	0.073
-297.735	-121.510	-0.360	0.059
-296.720	-58.017	-0.052	0.022
-295.705	2.432	-0.263	0.188
-294.691	-18.149	0.030	0.018
-293.676	800.000	0.052	0.212
-292.662	-188.777	-0.127	0.002
-291.647	-147.200	-0.121	0.010
-290.632	800.000	0.147	-0.437
-289.618	118.055	0.161	-0.197
-288.603	236.241	-0.051	0.083
-287.589	-116.902	-0.210	-0.038
-286.574	-17.852	0.233	-0.145
-285.559	18.084	0.374	-0.295
-284.545	800.000	-0.023	-0.063
-283.530	-167.448	-0.057	-0.002
-282.516	147.147	0.111	0.148
-281.501	-106.036	0.213	0.047
-280.486	149.668	0.222	0.298
-279.472	-115.099	-0.132	0.025
-278.457	382.230	-0.193	0.392
-277.443	-34.980	-0.118	0.063
-276.428	-12.720	-0.089	0.058
-275.413	18.825	0.313	0.248
-274.399	-200.000	0.012	0.085
-273.384	800.000	0.123	0.480
-272.370	117.150	0.120	0.145
-271.355	80.313	-0.201	-0.214
-270.340	379.186	-0.129	0.261
-269.326	562.721	-0.235	0.562
-268.311	-95.321	-0.274	-0.073
-267.297	-179.181	0.324	-0.007
-266.282	-200.000	-0.018	0.133
-265.267	800.000	0.088	-0.263
-264.253	35.195	-0.187	0.162
-263.238	800.000	-0.084	-0.349
-262.224	-200.000	0.001	0.031
-261.209	-12.825	0.106	-0.068
-260.195	-81.128	0.347	-0.114
-259.180	77.698	0.096	-0.101
-258.165	-69.580	0.178	0.067
-257.151	800.000	0.053	0.218
-256.136	-131.016	-0.095	0.013
-255.122	9.026	0.159	-0.119
-254.107	-69.636	-0.461	0.174
-253.092	-135.257	-0.160	-0.019
-252.078	171.284	-0.083	0.118
-251.063	-170.217	-0.434	-0.015
-250.049	-149.357	0.320	-0.025
-249.034	-200.000	0.009	-0.072
-248.019	95.225	0.134	0.151
-247.005	431.628	-0.091	0.194
-245.990	118.819	-0.115	0.140
-244.976	30.694	-0.148	-0.125
-243.961	-200.000	-0.042	-0.377
-242.946	-131.436	0.254	-0.033
-241.932	-26.213	-0.080	-0.047
-240.917	-41.349	-0.107	0.055
-239.903	522.675	-0.130	0.301
-238.888	260.126	0.031	0.052
-237.873	-95.810	-0.175	-0.046
-236.859	-195.231	0.323	-0.002
-235.844	-200.000	-0.072	-0.394
-234.830	-200.000	0.006	-0.396
-233.815	-67.540	0.153	0.059
-232.800	-200.000	0.025	0.120
-231.786	-80.375	0.232	0.076
-230.771	-110.998	0.272	-0.055
-229.757	-146.967	0.183	-0.016
-228.742	-99.147	-0.197	-0.049
-227.727	8.757	-0.070	-0.052
-226.713	-147.428	0.399	0.033
-225.698	-31.264	0.334	-0.186
-224.684	-17.280	0.093	0.058
-223.669	-25.470	-0.032	0.019
-222.655	320.575	0.164	-0.307
-221.640	-200.000	0.007	0.209
-220.625	-200.000	0.032	0.208
-219.611	26.916	0.190	0.157
-218.596	-54.455	0.084	-0.038
-217.582	176.583	-0.148	-0.212
-216.567	38.408	-0.227	0.200
-215.552	47.677	0.243	-0.224
-214.538	800.000	0.028	-0.105
-213.523	15.753	-0.133	0.103
-212.509	139.811	0.171	0.222
-211.494	226.349	0.150	0.240
-210.479	319.530	-0.027	-0.051
-209.465	356.822	-0.092	-0.182
-208.450	191.603	-0.182	-0.270
-207.436	800.000	0.043	-0.185
-206.421	-200.000	-0.007	0.193
-205.406	198.922	-0.068	0.102
-204.392	25.261	-0.038	0.031
-203.377	-200.000	-0.028	-0.278
-202.363	800.000	-0.137	0.391
-201.348	-2.219	-0.088	0.061
-200.333	-200.000	0.023	-0.353
-199.319	-200.000	0.020	-0.189
-198.304	43.779	0.040	-0.036
-197.290	-200.000	0.044	-0.298
-196.275	-102.008	-0.248	-0.059
-195.260	-33.447	-0.257	0.140
-194.246	204.300	0.055	-0.085
-193.231	-64.652	0.115	0.046
-192.217	-66.017	0.126	0.050
-191.202	-13.196	-0.106	0.068
-190.187	800.000	0.033	-0.094
-189.173	-94.043	0.358	-0.097
-188.158	800.000	-0.059	-0.186
-187.144	-200.000	0.040	0.279
-186.129	317.805	-0.045	0.084
-185.114	-169.430	0.064	-0.002
-184.100	-200.000	0.019	0.141
-183.085	800.000	-0.035	-0.130
-182.071	33.723	0.059	0.051
-181.056	-200.000	0.003	-0.020
-180.042	-3.576	0.208	0.143
-179.027	800.000	-0.015	0.059
-178.012	-111.855	0.306	0.061
-176.998	800.000	-0.079	-0.238
-175.983	-30.242	-0.343	-0.192
-174.969	51.208	0.255	-0.239
-173.954	223.912	0.148	-0.235
-172.939	-200.000	-0.011	0.090
-171.925	206.532	0.096	-0.147
-170.910	70.955	0.130	-0.133
-169.896	-29.902	0.334	0.187
-168.881	-140.120	-0.127	-0.013
-167.866	82.130	-0.144	0.154
-166.852	-87.031	0.412	0.124
-165.837	-171.273	-0.050	-0.002
-164.823	84.032	-0.177	-0.191
-163.808	-200.000	0.006	-0.177
-162.793	-200.000	-0.036	0.171
-161.779	-38.623	-0.261	-0.136
-160.764	800.000	0.039	0.160
-159.750	-200.000	0.014	-0.084
-158.735	26.107	-0.142	0.117
-157.720	-200.000	-0.013	-0.132
-156.706	-78.058	-0.327	-0.111
-155.691	148.554	0.144	0.192
-154.677	-200.000	0.009	0.103
-153.662	113.438	0.106	-0.126
-152.647	-125.851	0.284	0.042
-151.633	156.987	-0.049	-0.067
-150.618	678.899	0.080	-0.205
-149.604	800.000	0.027	-0.104
-148.589	388.499	-0.092	-0.188
-147.574	-200.000	0.042	-0.351
-146.560	-127.368	0.166	-0.024
-145.545	-200.000	0.066	-0.307
-144.531	232.666	-0.038	0.061
-143.516	-18.862	-0.147	-0.090
-142.502	800.000	-0.067	-0.264
-141.487	121.505	-0.207	-0.254
-140.472	127.698	0.049	-0.061
-139.458	-162.996	0.183	0.009
-138.443	-61.307	0.156	-0.065
-137.429	416.431	0.124	-0.261
-136.414	-12.222	0.382	0.246
-135.399	-21.527	0.286	-0.172
-134.385	-176.168	-0.392	0.010
-133.370	332.865	0.033	-0.063
-132.356	-200.000	0.007	0.265
-131.341	518.183	0.064	-0.147
-130.326	62.563	-0.023	-0.022
-129.312	800.000	-0.107	-0.292
-128.297	-82.394	0.125	-0.040
-127.283	215.155	-0.059	-0.093
-126.268	340.567	0.143	-0.275
-125.253	191.077	0.255	0.378
-124.239	-71.002	-0.148	-0.055
-123.224	-74.384	0.122	0.043
-122.210	167.911	-0.017	-0.024
-121.195	800.000	0.053	-0.220
-120.180	-200.000	-0.002	0.222
-119.166	800.000	0.081	-0.250
-118.151	-200.000	-0.021	0.278
-117.137	724.617	0.055	-0.144
-116.122	-200.000	-0.006	0.095
-115.107	800.000	-0.034	-0.144
-114.093	-200.000	-0.042	-0.328
-113.078	112.372	0.135	0.160
-112.064	-150.047	0.357	0.027
-111.049	-200.000	0.024	-0.190
-110.034	800.000	0.046	0.168
-109.020	97.414	-0.144	-0.162
-108.005	-151.374	-0.200	-0.015
-106.991	-139.097	-0.161	-0.017
-105.976	-82.445	0.127	0.041
-104.962	13.462	0.258	0.196
-103.947	290.892	-0.156	-0.278
-102.932	-111.228	0.185	-0.037
-101.918	-34.504	-0.369	-0.199
-100.903	-49.929	0.369	-0.172
-99.889	-154.307	-0.214	0.014
-98.874	266.467	-0.109	0.186
-97.859	-66.732	0.354	0.138
-96.845	279.582	-0.084	0.148
-95.830	572.245	0.142	0.341
-94.816	-11.439	0.077	0.050
-93.801	-114.139	-0.157	0.030
-92.786	-200.000	-0.043	-0.209
-91.772	-115.432	-0.296	-0.055
-90.757	168.751	0.123	0.173
-89.743	-200.000	-0.060	0.361
-88.728	-136.189	0.300	-0.034
-87.713	-67.699	-0.323	-0.124
-86.699	255.323	0.095	-0.159
-85.684	-72.241	0.193	0.070
-84.670	-138.845	-0.362	-0.039
-83.655	-200.000	-0.041	-0.254
-82.640	9.648	0.099	0.074
-81.626	-132.844	0.144	-0.018
-80.611	-25.513	0.302	0.175
-79.597	345.474	0.066	-0.127
-78.582	-125.218	0.236	-0.035
-77.567	-200.000	-0.016	0.259
-76.553	75.886	-0.165	0.171
-75.538	52.088	0.179	0.167
-74.524	-81.161	0.283	0.092
-73.509	-80.918	0.097	0.032
-72.494	-132.974	0.126	-0.016
-71.480	-46.408	0.100	-0.048
-70.465	84.782	0.208	-0.224
-69.451	34.972	0.041	-0.035
-68.436	16.114	-0.031	0.024
-67.422	13.231	0.101	0.077
-66.407	-113.136	0.145	0.028
-65.392	-175.709	-0.030	0.001
-64.378	-200.000	0.021	0.117
-63.363	48.070	-0.091	-0.083
-62.349	29.369	0.237	0.198
-61.334	47.217	-0.929	-0.848
-60.319	-6.200	0.765	0.512
-59.305	-200.000	-0.127	-1.005
-58.290	524.796	0.643	1.485
-57.276	244.555	0.671	1.105
-56.261	-200.000	105.901	608.335
-55.246	499.134	1508.190	3408.307
-54.232	174.584	2710.785	3844.901
-53.217	104.350	2302.323	2656.982
-52.203	38.585	1906.125	1666.947
-51.188	32.747	1691.322	1434.785
-50.173	30.126	1648.011	1378.527
-49.159	48.751	1701.835	1564.837
-48.144	49.302	1716.788	1582.685
-47.130	32.303	1674.133	1416.630
-46.115	29.655	1659.849	1384.677
-45.100	29.636	1654.182	1379.751
-44.086	29.391	1652.420	1376.399
-43.071	29.451	1649.370	1374.253
-42.057	29.311	1647.388	1371.505
-41.042	29.410	1645.289	1370.441
-40.027	29.522	1643.392	1369.634
-39.013	29.392	1641.093	1366.705
-37.998	29.325	1639.892	1365.148
-36.984	29.431	1638.388	1364.632
-35.969	29.557	1636.563	1363.988
-34.954	29.540	1635.569	1362.979
-33.940	29.587	1633.131	1361.237
-32.925	29.566	1631.699	1359.834
-31.911	29.522	1629.818	1357.892
-30.896	29.442	1628.338	1356.015
-29.881	29.472	1626.770	1354.874
-28.867	29.554	1624.546	1353.574
-27.852	29.567	1623.536	1352.770
-26.838	29.587	1621.703	1351.337
-25.823	29.574	1620.935	1350.550
-24.809	29.616	1619.535	1349.638
-23.794	29.636	1617.938	1348.399
-22.779	29.520	1617.056	1346.764
-21.765	29.583	1614.913	1345.384
-20.750	29.526	1613.313	1343.585
-19.736	29.572	1612.212	1342.944
-18.721	29.638	1610.760	1342.163
-17.706	29.543	1609.241	1340.151
-16.692	29.547	1607.570	1338.735
-15.677	29.422	1606.938	1337.254
-14.663	29.590	1605.037	1336.834
-13.648	29.622	1603.404	1335.650
-12.633	29.636	1602.009	1334.534
-11.619	29.630	1600.523	1333.201
-10.604	29.593	1598.951	1331.575
-9.590	29.582	1598.166	1330.786
-8.575	29.596	1596.643	1329.572
-7.560	29.660	1595.527	1329.049
-6.546	29.598	1594.490	1327.682
-5.531	29.607	1593.390	1326.778
-4.517	29.585	1592.276	1325.641
-3.502	29.606	1590.917	1324.611
-2.487	29.697	1589.334	1323.894
-1.473	29.501	1577.072	1312.229
-0.458	26.766	1558.579	1277.550
0.556	20.983	1560.842	1247.911
1.571	18.898	1585.768	1252.552
2.586	18.676	1599.567	1261.704
3.600	16.899	1546.874	1207.391
4.615	9.070	1436.425	1069.123
5.629	1.383	1372.504	972.382
6.644	-0.091	1364.432	957.195
7.659	-0.204	1363.436	955.693
8.673	-0.187	1362.611	955.134
9.688	-0.258	1360.398	953.049
10.702	-0.360	1357.010	949.947
11.717	3.120	1364.473	977.223
12.731	12.633	1381.987	1050.652
13.746	19.999	1394.576	1107.407
14.761	22.065	1397.358	1122.741
15.775	22.352	1396.975	1124.168
16.790	22.341	1396.579	1123.681
17.804	22.464	1395.767	1123.713
18.819	22.678	1395.794	1124.998
19.834	22.746	1395.466	1125.066
20.848	22.775	1394.170	1124.111
21.863	22.820	1393.406	1123.681
22.877	22.819	1392.638	1122.952
23.892	22.803	1391.744	1122.034
24.907	22.803	1391.249	1121.536
25.921	22.805	1390.105	1120.528
26.936	22.750	1388.778	1119.011
27.950	22.786	1387.950	1118.469
28.965	22.806	1386.642	1117.444
29.980	22.882	1385.200	1116.665
30.994	22.823	1384.396	1115.542
32.009	22.819	1383.416	1114.628
33.023	22.798	1382.388	1113.569
34.038	22.849	1380.933	1112.623
35.053	22.732	1380.259	1111.240
36.067	22.874	1379.175	1111.167
37.082	22.815	1378.271	1109.970
38.096	22.802	1377.642	1109.279
39.111	22.804	1376.722	1108.454
40.126	22.837	1375.986	1107.971
41.140	22.830	1375.403	1107.361
42.155	22.872	1374.746	1106.995
43.169	22.726	1375.157	1106.312
44.184	22.745	1374.561	1105.854
45.199	22.756	1374.581	1105.846
46.213	22.775	1373.783	1105.224
47.228	22.813	1372.642	1104.441
48.242	22.845	1371.489	1103.618
49.257	22.807	1370.391	1102.403
50.271	22.853	1368.903	1101.390
51.286	22.827	1367.179	1099.744
52.301	22.827	1365.871	1098.597
53.315	22.769	1365.415	1097.775
54.330	22.820	1364.472	1097.233
55.344	22.886	1363.367	1096.657
56.359	22.783	1362.047	1094.858
57.374	22.733	1361.691	1094.165
58.388	22.728	1361.068	1093.541
59.403	22.807	1360.279	1093.299
60.417	22.807	1359.982	1092.962
61.432	22.864	1358.606	1092.111
62.447	22.876	1357.953	1091.567
63.461	22.794	1356.950	1090.156
64.476	22.837	1356.077	1089.620
65.490	22.823	1355.013	1088.588
66.505	22.784	1353.356	1086.919
67.520	22.760	1352.200	1085.744
68.534	22.707	1351.330	1084.622
69.549	22.853	1350.523	1084.777
70.563	22.824	1349.202	1083.444
71.578	22.852	1348.460	1082.922
72.593	22.845	1347.871	1082.311
73.607	22.825	1346.690	1081.146
74.622	22.816	1346.102	1080.523
75.636	22.821	1345.648	1080.090
76.651	22.852	1344.877	1079.570
77.666	22.870	1343.709	1078.645
78.680	22.815	1343.917	1078.381
79.695	22.808	1342.754	1077.310
80.709	22.831	1341.586	1076.414
81.724	22.800	1341.453	1076.028
82.739	22.895	1339.787	1075.171
83.753	22.768	1339.613	1074.166
84.768	22.781	1338.410	1073.183
85.782	22.780	1337.275	1072.175
86.797	22.874	1335.885	1071.534
87.812	22.876	1334.333	1070.203
88.826	22.859	1333.556	1069.387
89.841	22.836	1332.875	1068.607
90.855	22.914	1331.746	1068.080
91.870	22.808	1330.711	1066.510
92.884	22.844	1330.213	1066.239
93.899	22.855	1329.545	1065.676
94.914	22.871	1328.672	1064.974
95.928	22.911	1327.832	1064.448
96.943	22.907	1327.088	1063.737
97.957	22.973	1326.418	1063.503
98.972	22.980	1325.287	1062.541
99.987	22.918	1324.072	1061.103
101.001	22.781	1323.466	1059.697
102.016	22.842	1322.763	1059.408
103.030	22.912	1321.735	1058.908
104.045	22.885	1320.583	1057.734
105.060	22.891	1319.571	1056.863
106.074	23.004	1318.148	1056.304
107.089	23.041	1317.481	1055.900
108.103	23.008	1316.165	1054.553
109.118	22.945	1315.665	1053.683
110.133	23.003	1314.222	1052.781
111.147	22.902	1313.534	1051.539
112.162	23.021	1311.635	1050.628
113.176	23.022	1310.829	1049.896
114.191	22.970	1310.351	1049.115
115.206	22.990	1309.026	1048.079
116.220	22.954	1307.697	1046.710
117.235	22.870	1307.533	1045.987
118.249	22.927	1306.562	1045.457
119.264	22.962	1305.186	1044.467
120.279	22.897	1304.730	1043.628
121.293	22.995	1303.736	1043.319
122.308	23.104	1302.960	1043.247
123.322	23.082	1301.752	1042.060
124.337	23.079	1300.919	1041.283
125.352	22.990	1300.198	1040.090
126.366	22.991	1299.382	1039.347
127.381	23.091	1298.303	1038.980
128.395	23.049	1297.422	1037.940
129.410	22.928	1296.541	1036.432
130.424	23.040	1295.664	1036.296
131.439	23.096	1294.693	1035.758
132.454	22.948	1294.218	1034.420
133.468	22.966	1293.559	1033.902
134.483	23.042	1293.021	1033.827
135.497	22.947	1292.432	1032.708
136.512	22.954	1291.151	1031.635
137.527	23.019	1289.609	1030.693
138.541	22.982	1288.504	1029.503
139.556	23.000	1287.589	1028.786
140.570	22.989	1286.578	1027.818
141.585	23.025	1285.446	1027.036
142.600	23.047	1284.233	1026.105
143.614	23.035	1283.604	1025.439
144.629	22.973	1282.594	1024.181
145.643	22.967	1281.381	1023.087
146.658	22.929	1280.310	1021.922
147.673	22.980	1279.605	1021.567
148.687	22.967	1278.575	1020.577
149.702	22.903	1277.575	1019.321
150.716	22.967	1276.545	1018.776
151.731	22.941	1275.686	1017.849
152.746	23.025	1274.331	1017.166
153.760	23.046	1273.241	1016.327
154.775	23.086	1271.957	1015.436
155.789	22.979	1271.351	1014.249
156.804	23.016	1270.578	1013.760
157.819	22.954	1269.743	1012.646
158.833	23.055	1268.876	1012.443
159.848	23.030	1267.868	1011.405
160.862	23.036	1267.482	1011.040
161.877	23.068	1266.395	1010.271
162.892	23.133	1265.394	1009.752
163.906	23.022	1265.103	1008.795
164.921	23.077	1263.995	1008.136
165.935	23.031	1263.587	1007.461
166.950	23.142	1262.804	1007.380
167.964	23.147	1261.957	1006.643
168.979	23.066	1261.837	1005.997
169.994	23.136	1260.896	1005.556
171.008	23.066	1260.539	1004.784
172.023	23.133	1259.462	1004.219
173.037	23.149	1258.600	1003.535
174.052	23.169	1257.795	1002.918
175.067	23.141	1257.427	1002.377
176.081	23.080	1256.604	1001.286
177.096	23.107	1255.669	1000.606
178.110	23.127	1254.826	999.956
179.125	23.147	1253.862	999.214
180.140	23.206	1252.289	998.206
181.154	23.091	1251.439	996.793
182.169	23.086	1250.122	995.623
183.183	23.215	1249.255	995.573
184.198	23.116	1248.450	994.283
185.213	23.223	1247.722	994.221
186.227	23.252	1246.838	993.588
187.242	23.270	1245.680	992.680
188.256	23.252	1244.495	991.547
189.271	23.269	1243.992	991.152
190.286	23.307	1243.345	990.762
191.300	23.251	1242.919	990.024
192.315	23.264	1242.220	989.452
193.329	23.231	1242.447	989.361
194.344	23.244	1241.585	988.658
195.359	23.341	1240.861	988.537
196.373	23.229	1240.567	987.590
197.388	23.155	1239.922	986.577
198.402	23.199	1239.421	986.335
199.417	23.116	1239.020	985.465
200.432	23.290	1237.894	985.449
201.446	23.218	1237.662	984.781
202.461	23.197	1236.808	983.894
203.475	23.116	1236.352	982.998
204.490	23.182	1234.899	982.122
205.504	23.199	1234.156	981.533
206.519	23.271	1233.377	981.230
207.534	23.258	1232.442	980.326
208.548	23.137	1231.103	978.504
209.563	23.263	1230.719	978.808
210.577	23.321	1229.712	978.242
211.592	23.306	1229.075	977.568
212.607	23.309	1228.474	977.017
213.621	23.428	1227.618	976.910
214.636	23.339	1226.663	975.571
215.650	23.199	1226.156	974.309
216.665	23.400	1224.689	974.163
217.680	23.296	1223.880	972.863
218.694	23.372	1222.971	972.471
219.709	23.315	1222.831	971.964
220.723	23.403	1221.909	971.623
221.738	23.394	1221.042	970.798
222.753	23.251	1220.325	969.362
223.767	23.316	1220.125	969.474
224.782	23.417	1219.753	969.644
225.796	23.601	1218.605	969.648
226.811	23.363	1218.349	968.062
227.826	23.467	1217.545	967.903
228.840	23.386	1216.830	966.806
229.855	23.432	1216.459	966.680
230.869	23.525	1215.380	966.241
231.884	23.508	1215.051	965.804
232.899	23.464	1214.032	964.670
233.913	23.512	1213.386	964.329
234.928	23.506	1213.390	964.213
235.942	23.624	1212.336	963.935
236.957	23.584	1211.635	963.073
237.972	23.504	1211.063	962.099
238.986	23.499	1210.426	961.479
240.001	23.555	1209.858	961.249
241.015	23.705	1208.647	961.011
242.030	23.476	1208.745	959.770
243.045	23.603	1207.887	959.685
244.059	23.645	1206.885	959.035
245.074	23.621	1205.760	957.923
246.088	23.507	1205.524	957.037
247.103	23.689	1204.518	957.133
248.117	23.661	1203.308	955.940
249.132	23.569	1203.251	955.312
250.147	23.663	1202.149	954.857
251.161	23.684	1201.310	954.222
252.176	23.598	1201.316	953.681
253.190	23.742	1199.978	953.305
254.205	23.737	1199.072	952.476
255.220	23.790	1198.870	952.514
256.234	23.739	1198.573	951.919
257.249	23.786	1197.915	951.563
258.263	23.705	1197.172	950.457
259.278	23.700	1196.926	950.154
260.293	23.727	1196.218	949.652
261.307	23.719	1195.338	948.824
262.322	23.709	1195.039	948.452
263.336	23.676	1194.261	947.571
264.351	23.839	1193.375	947.655
265.366	23.766	1192.916	946.818
266.380	23.718	1192.433	946.094
267.395	23.712	1191.386	945.147
268.409	23.698	1191.406	945.008
269.424	23.708	1190.477	944.237
270.439	23.747	1190.033	944.009
271.453	23.815	1189.181	943.614
272.468	23.735	1188.371	942.460
273.482	23.766	1187.734	942.038
274.497	23.802	1187.217	941.736
275.512	23.834	1186.786	941.478
276.526	23.873	1186.104	941.062
277.541	23.822	1185.153	939.954
278.555	23.906	1184.770	940.011
279.570	23.902	1183.797	939.135
280.585	23.867	1182.820	938.090
281.599	23.858	1182.277	937.532
282.614	23.888	1181.911	937.312
283.628	23.822	1180.584	935.831
284.643	23.969	1179.762	935.870
285.657	24.041	1178.646	935.278
286.672	23.924	1177.967	934.045
287.687	23.949	1177.024	933.348
288.701	23.904	1176.955	932.974
289.716	23.989	1176.009	932.584
290.730	24.042	1175.150	932.097
291.745	23.990	1174.835	931.493
292.760	23.840	1174.646	930.476
293.774	23.973	1173.778	930.404
294.789	23.976	1173.566	930.168
295.803	24.050	1172.478	929.608
296.818	24.025	1171.757	928.828
297.833	24.077	1171.128	928.516
298.847	24.038	1170.813	927.979
299.862	24.137	1169.658	927.497
300.876	24.056	1168.768	926.288
301.891	24.145	1168.505	926.463
302.906	24.143	1167.813	925.820
303.920	24.195	1167.126	925.466
304.935	24.212	1166.318	924.832
305.949	24.235	1165.571	924.277
306.964	24.203	1165.607	924.054
307.979	24.221	1164.645	923.303
308.993	24.222	1163.725	922.501
310.008	24.257	1162.874	921.926
311.022	24.233	1162.495	921.418
312.037	24.212	1161.430	920.383
313.052	24.188	1160.786	919.667
314.066	24.194	1160.077	919.058
315.081	24.138	1159.330	918.094
316.095	24.229	1158.610	917.911
317.110	24.188	1158.815	917.782
318.125	24.374	1157.395	917.531
319.139	24.317	1156.721	916.624
320.154	24.233	1156.354	915.820
321.168	24.315	1155.462	915.455
322.183	24.326	1155.193	915.218
323.197	24.171	1154.733	913.978
324.212	24.265	1154.006	913.802
325.227	24.230	1153.721	913.316
326.241	24.443	1152.931	913.698
327.256	24.472	1152.301	913.266
328.270	24.386	1151.143	911.828
329.285	24.267	1150.761	910.836
330.300	24.308	1149.910	910.292
331.314	24.310	1149.031	909.528
332.329	24.397	1147.782	908.904
333.343	24.539	1146.828	908.790
334.358	24.431	1146.400	907.818
335.373	24.505	1145.627	907.505
336.387	24.437	1145.360	906.868
337.402	24.535	1144.402	906.525
338.416	24.426	1144.077	905.634
339.431	24.577	1143.386	905.774
340.446	24.420	1142.990	904.581
341.460	24.569	1142.184	904.620
342.475	24.588	1141.529	904.118
343.489	24.502	1140.512	902.797
344.504	24.562	1139.480	902.202
345.519	24.625	1138.850	901.945
346.533	24.583	1137.838	900.849
347.548	24.624	1136.996	900.310
348.562	24.536	1136.485	899.381
349.577	24.645	1135.958	899.436
350.592	24.398	1135.267	897.562
351.606	24.571	1134.463	897.721
352.621	24.621	1133.888	897.435
353.635	24.749	1133.352	897.575
354.650	24.586	1132.663	896.133
355.665	24.611	1132.057	895.701
356.679	24.704	1131.273	895.464
357.694	24.643	1130.860	894.751
358.708	24.779	1130.025	894.691
359.723	24.713	1129.071	893.530
360.738	24.753	1128.603	893.278
361.752	24.637	1128.568	892.592
362.767	24.787	1127.249	892.217
363.781	24.885	1126.795	892.272
364.796	24.763	1126.575	891.407
365.810	24.713	1126.370	890.917
366.825	24.788	1124.994	890.127
367.840	24.865	1125.084	890.498
368.854	24.814	1124.502	889.708
369.869	24.750	1123.536	888.545
370.883	24.905	1122.593	888.491
371.898	24.665	1122.514	887.161
372.913	24.915	1121.720	887.695
373.927	24.916	1121.135	887.157
374.942	24.947	1120.522	886.746
375.956	24.877	1120.369	886.200
376.971	24.922	1119.366	885.550
377.986	24.941	1118.919	885.213
379.000	24.961	1118.461	884.871
380.015	24.931	1118.055	884.325
381.029	24.959	1117.058	883.594
382.044	24.979	1116.509	883.182
383.059	25.030	1115.616	882.646
384.073	25.023	1115.011	882.054
385.088	25.070	1114.075	881.470
386.102	25.017	1113.386	880.583
387.117	25.061	1112.708	880.189
388.132	24.898	1111.808	878.596
389.146	25.014	1110.938	878.400
390.161	25.096	1110.550	878.419
391.175	25.020	1109.742	877.330
392.190	25.147	1109.118	877.379
393.205	25.144	1108.288	876.633
394.219	25.048	1107.865	875.751
395.234	25.285	1106.388	875.663
396.248	25.280	1105.715	875.027
397.263	25.135	1105.473	874.050
398.278	25.185	1104.809	873.691
399.292	25.259	1104.086	873.403
400.307	25.189	1103.737	872.708
401.321	25.130	1103.216	871.931
402.336	25.127	1102.314	871.126
403.350	25.239	1101.475	870.933
404.365	25.287	1100.652	870.439
405.380	25.210	1100.217	869.644
406.394	25.197	1099.762	869.145
407.409	25.323	1098.696	868.834
408.423	25.421	1098.089	868.751
409.438	25.256	1097.787	867.636
410.453	25.207	1096.977	866.682
411.467	25.302	1096.110	866.378
412.482	25.259	1095.645	865.730
413.496	25.325	1094.752	865.266
414.511	25.430	1093.845	864.977
415.526	25.327	1093.628	864.232
416.540	25.433	1093.050	864.208
417.555	25.249	1092.998	863.206
418.569	25.372	1092.356	863.212
419.584	25.434	1091.558	862.806
420.599	25.397	1090.961	862.079
421.613	147.809	1403.716	1798.403
422.628	136.753	1449.267	1798.496
