DTS Sentinel unit serial number:	SN413079Multiplexer serial number:	ORYXHardware model number:	OX4-SRSoftware version number:	ORYX F/W v4.00 Oryx Data Collector v3.7.2.0data status	okinstallation	princeton_trtdifferential loss correction	single-endedforward channel	channel 2reverse channel	N/Adate	2019/09/11time	03:45:11forward acquisition time	60.00reverse acquisition time	0.00gamma	496.2192k internal	0.2329k external	0.2329temperature offset calibration	0.9936default loss term (dB/km)	0.3790temperature slope calibration	1.0000multiplexer offset coefficient	1.0000multiplexer slope coefficient	1.0000fibre end	0.00T internal ref (°C)	29.55T ext. ref 1 (°C)	-0.31T ext. ref 2 (°C)	23.87length (m)	temperature (°C)	Stokes	anti-Stokes-747.200	326.323	0.126	0.244
-746.185	-127.750	0.191	-0.028
-745.171	120.646	-0.160	0.200
-744.156	-200.000	0.020	0.337
-743.142	-112.722	0.044	0.009
-742.127	-3.227	-0.372	0.261
-741.112	38.659	0.215	-0.193
-740.098	75.987	0.040	-0.043
-739.083	-74.672	-0.397	0.144
-738.069	-200.000	-0.039	0.250
-737.054	349.689	0.057	-0.113
-736.039	416.798	-0.140	0.302
-735.025	-200.000	-0.000	-0.005
-734.010	-137.799	-0.282	-0.032
-732.996	81.375	-0.076	0.082
-731.981	-153.012	-0.202	0.014
-730.966	-88.841	0.174	0.052
-729.952	38.937	0.091	-0.082
-728.937	800.000	-0.115	-0.385
-727.923	-45.022	0.307	-0.154
-726.908	800.000	-0.078	-0.222
-725.894	140.008	0.182	-0.241
-724.879	800.000	-0.132	-0.429
-723.864	495.247	0.091	-0.209
-722.850	-200.000	0.001	-0.060
-721.835	800.000	0.023	0.101
-720.821	217.249	0.149	-0.238
-719.806	37.605	0.167	-0.149
-718.791	194.555	-0.217	-0.331
-717.777	-123.900	-0.314	0.050
-716.762	520.351	0.060	-0.142
-715.748	-200.000	0.001	-0.361
-714.733	-200.000	-0.043	-0.189
-713.718	197.229	0.052	0.081
-712.704	-97.732	0.164	0.043
-711.689	800.000	0.114	-0.356
-710.675	-142.054	0.304	0.030
-709.660	-200.000	-0.067	-0.310
-708.645	-155.797	-0.686	-0.044
-707.631	-58.606	-0.089	-0.039
-706.616	76.774	0.105	0.112
-705.602	-170.757	-0.319	0.011
-704.587	-49.178	0.229	0.110
-703.572	-75.768	-0.159	0.057
-702.558	6.826	-0.189	0.141
-701.543	126.120	0.056	-0.071
-700.529	-103.361	-0.113	-0.027
-699.514	138.789	0.147	0.194
-698.499	-21.025	0.031	0.019
-697.485	84.307	0.234	-0.257
-696.470	-200.000	0.031	0.213
-695.456	-53.370	0.259	0.119
-694.441	-156.733	0.070	-0.004
-693.426	68.007	-0.153	-0.158
-692.412	800.000	0.036	-0.150
-691.397	-112.329	0.363	-0.073
-690.383	800.000	-0.046	0.189
-689.368	-200.000	-0.022	0.149
-688.354	58.648	-0.146	-0.144
-687.339	-56.422	0.286	-0.128
-686.324	127.509	0.121	0.155
-685.310	-96.982	-0.023	-0.006
-684.295	800.000	0.090	0.253
-683.281	419.428	0.119	-0.255
-682.266	31.973	-0.293	0.254
-681.251	-200.000	0.006	-0.049
-680.237	-113.917	-0.355	-0.069
-679.222	13.732	0.215	0.168
-678.208	53.106	0.214	-0.206
-677.193	-17.347	-0.197	-0.125
-676.178	106.755	-0.288	-0.343
-675.164	752.175	0.063	0.172
-674.149	91.810	-0.123	-0.139
-673.135	150.337	0.162	0.220
-672.120	-84.130	-0.168	-0.054
-671.105	268.748	0.215	0.380
-670.091	-115.345	-0.284	-0.054
-669.076	495.392	-0.103	0.237
-668.062	-165.854	-0.282	-0.012
-667.047	-48.713	-0.162	-0.078
-666.032	173.230	0.186	-0.269
-665.018	188.972	-0.077	0.116
-664.003	-200.000	0.014	-0.328
-662.989	-40.217	0.218	0.114
-661.974	93.792	0.237	-0.269
-660.959	-105.309	-0.155	0.035
-659.945	267.757	0.203	-0.357
-658.930	-200.000	-0.013	-0.129
-657.916	-53.617	0.091	0.042
-656.901	800.000	0.135	-0.399
-655.886	5.088	-0.310	-0.229
-654.872	-200.000	-0.068	-0.307
-653.857	-200.000	0.025	-0.160
-652.843	223.307	0.067	-0.108
-651.828	-132.587	-0.260	-0.034
-650.814	45.476	-0.062	0.057
-649.799	-156.631	-0.294	-0.018
-648.784	787.781	-0.042	-0.116
-647.770	-200.000	-0.017	0.095
-646.755	115.370	-0.117	-0.143
-645.741	-159.618	0.237	0.013
-644.726	114.602	-0.072	-0.088
-643.711	2.984	-0.253	-0.184
-642.697	-200.000	-0.031	0.349
-641.682	191.774	0.092	-0.139
-640.668	415.056	-0.044	-0.094
-639.653	28.328	0.211	-0.179
-638.638	382.290	-0.073	0.150
-637.624	200.479	0.028	-0.043
-636.609	-200.000	0.025	-0.120
-635.595	71.240	-0.210	-0.219
-634.580	-169.058	-0.200	0.007
-633.565	318.397	-0.141	0.268
-632.551	-200.000	0.003	-0.052
-631.536	440.720	0.070	0.155
-630.522	249.823	0.169	-0.288
-629.507	225.530	-0.214	-0.348
-628.492	-31.302	-0.133	-0.075
-627.478	-44.954	0.350	-0.175
-626.463	49.537	-0.094	-0.088
-625.449	203.992	0.157	-0.244
-624.434	205.576	-0.039	0.061
-623.419	-200.000	0.029	-0.401
-622.405	31.637	-0.066	-0.057
-621.390	159.455	-0.268	-0.374
-620.376	483.478	-0.120	-0.274
-619.361	424.789	-0.050	0.108
-618.346	73.426	0.231	-0.242
-617.332	393.481	-0.129	0.269
-616.317	-200.000	0.001	-0.218
-615.303	-200.000	-0.022	-0.425
-614.288	-129.596	-0.212	-0.029
-613.273	800.000	-0.029	0.096
-612.259	-33.424	-0.384	-0.213
-611.244	-157.060	-0.206	0.013
-610.230	-63.165	-0.094	-0.039
-609.215	-109.668	-0.339	-0.071
-608.201	-200.000	0.034	-0.202
-607.186	-61.277	0.154	-0.065
-606.171	800.000	-0.034	0.094
-605.157	-69.700	0.071	0.027
-604.142	-152.746	0.168	-0.012
-603.128	32.113	-0.153	-0.132
-602.113	133.496	-0.179	0.232
-601.098	-11.316	0.260	-0.172
-600.084	71.001	0.182	-0.189
-599.069	579.856	0.102	0.251
-598.055	3.513	-0.189	-0.138
-597.040	-24.773	-0.259	-0.154
-596.025	83.494	-0.111	0.121
-595.011	125.378	0.078	0.098
-593.996	296.974	-0.054	-0.100
-592.982	199.641	0.117	-0.179
-591.967	97.094	0.055	0.064
-590.952	433.141	0.064	0.139
-589.938	800.000	0.138	-0.447
-588.923	65.845	-0.171	-0.174
-587.909	-19.391	-0.126	0.078
-586.894	-30.149	-0.166	0.094
-585.879	26.332	-0.236	0.197
-584.865	763.444	0.092	0.249
-583.850	-82.428	0.333	0.108
-582.836	-200.000	-0.025	0.243
-581.821	158.601	-0.178	0.248
-580.806	-18.066	-0.096	0.060
-579.792	615.693	-0.017	-0.042
-578.777	-200.000	-0.014	-0.129
-577.763	415.133	-0.064	0.137
-576.748	267.262	0.106	0.186
-575.733	126.070	-0.296	0.374
-574.719	-138.453	-0.463	0.051
-573.704	-106.905	0.228	-0.051
-572.690	114.042	-0.161	-0.196
-571.675	112.827	-0.343	0.416
-570.661	800.000	-0.105	-0.302
-569.646	800.000	0.037	0.145
-568.631	-200.000	-0.002	0.212
-567.617	14.343	0.141	0.110
-566.602	71.814	0.258	0.268
-565.588	-200.000	0.048	-0.359
-564.573	-200.000	0.003	-0.033
-563.558	-57.885	-0.188	-0.082
-562.544	-12.394	-0.032	-0.021
-561.529	-159.284	0.311	-0.017
-560.515	800.000	0.045	-0.190
-559.500	-17.500	-0.154	-0.097
-558.485	184.546	0.150	0.222
-557.471	-60.507	0.071	-0.030
-556.456	800.000	-0.044	-0.184
-555.442	160.332	-0.110	-0.154
-554.427	116.807	-0.122	-0.150
-553.412	-72.093	-0.305	-0.113
-552.398	-104.161	0.421	0.098
-551.383	445.786	0.034	0.075
-550.369	30.588	-0.082	0.070
-549.354	-200.000	0.013	-0.297
-548.339	433.929	-0.117	-0.255
-547.325	31.739	-0.153	0.132
-546.310	-200.000	-0.000	0.075
-545.296	7.224	0.403	-0.300
-544.281	293.233	-0.243	0.443
-543.266	-196.483	0.430	-0.003
-542.252	-152.075	-0.141	-0.010
-541.237	-61.236	0.168	0.071
-540.223	800.000	0.022	-0.077
-539.208	87.757	-0.285	-0.315
-538.193	109.656	0.158	0.189
-537.179	82.238	-0.050	0.054
-536.164	-61.208	-0.322	0.136
-535.150	-127.399	0.211	0.031
-534.135	800.000	0.109	-0.409
-533.121	127.941	0.200	0.254
-532.106	-200.000	-0.016	-0.153
-531.091	-200.000	0.038	-0.287
-530.077	28.019	-0.089	-0.075
-529.062	-166.521	0.408	-0.017
-528.048	800.000	-0.107	0.349
-527.033	321.502	0.030	-0.057
-526.018	-110.089	0.073	-0.015
-525.004	-200.000	0.018	-0.096
-523.989	38.554	-0.135	-0.120
-522.975	-20.314	-0.181	-0.111
-521.960	-33.522	-0.176	0.097
-520.945	85.697	-0.160	0.176
-519.931	289.182	-0.197	0.356
-518.916	-25.082	0.204	-0.121
-517.902	439.888	0.109	-0.239
-516.887	-39.783	-0.334	-0.174
-515.872	-66.689	0.405	0.160
-514.858	-200.000	-0.006	-0.113
-513.843	53.358	-0.076	0.072
-512.829	800.000	-0.022	0.080
-511.814	-42.990	-0.287	0.145
-510.799	-96.042	0.348	-0.092
-509.785	427.557	-0.051	0.110
-508.770	-26.724	-0.037	0.022
-507.756	103.449	-0.191	0.223
-506.741	-89.498	0.370	0.109
-505.726	-194.690	-0.130	0.001
-504.712	800.000	-0.084	0.356
-503.697	184.471	0.229	0.338
-502.683	220.657	-0.043	-0.069
-501.668	-17.466	0.055	-0.034
-500.653	800.000	-0.024	0.105
-499.639	-200.000	-0.058	0.262
-498.624	-136.404	-0.101	0.012
-497.610	255.614	-0.048	0.082
-496.595	-200.000	0.001	-0.201
-495.581	-20.144	0.130	-0.080
-494.566	165.436	0.066	0.093
-493.551	-200.000	0.035	0.230
-492.537	-87.103	-0.197	0.060
-491.522	-200.000	-0.027	0.192
-490.508	-74.166	-0.267	0.096
-489.493	136.182	-0.078	-0.101
-488.478	-70.421	0.145	0.055
-487.464	318.657	-0.095	0.179
-486.449	-85.884	0.044	0.014
-485.435	-160.661	-0.367	-0.019
-484.420	-200.000	0.034	0.186
-483.405	31.513	0.172	0.148
-482.391	258.000	0.169	0.290
-481.376	-155.303	0.215	-0.014
-480.362	-200.000	0.016	0.080
-479.347	12.272	0.104	-0.080
-478.332	-200.000	-0.022	-0.114
-477.318	800.000	0.027	0.103
-476.303	146.202	0.151	0.202
-475.289	522.944	-0.104	0.243
-474.274	800.000	0.092	0.258
-473.259	-106.114	-0.151	0.034
-472.245	-200.000	-0.001	-0.059
-471.230	75.918	0.253	-0.267
-470.216	-200.000	0.026	-0.214
-469.201	-162.788	-0.170	0.008
-468.186	615.235	-0.092	-0.229
-467.172	-200.000	0.017	-0.202
-466.157	-200.000	0.025	0.306
-465.143	-19.921	0.107	0.066
-464.128	100.849	0.134	-0.155
-463.113	-145.910	0.356	-0.031
-462.099	-107.181	-0.053	0.012
-461.084	-200.000	0.034	-0.345
-460.070	-24.593	0.103	-0.061
-459.055	-60.892	-0.255	-0.108
-458.040	-95.733	-0.156	-0.042
-457.026	22.030	0.120	0.098
-456.011	164.626	0.148	-0.208
-454.997	-61.847	0.408	-0.170
-453.982	-200.000	-0.011	-0.303
-452.968	800.000	-0.084	0.360
-451.953	-51.283	0.142	-0.066
-450.938	-157.666	-0.170	-0.010
-449.924	-62.964	-0.219	0.090
-448.909	-183.472	0.154	0.003
-447.895	-200.000	0.033	-0.225
-446.880	800.000	-0.093	0.326
-445.865	800.000	-0.018	0.054
-444.851	182.213	0.080	0.118
-443.836	306.584	-0.079	-0.147
-442.822	-39.062	-0.216	0.113
-441.807	-94.687	0.298	-0.081
-440.792	-130.111	0.217	0.029
-439.778	-106.950	0.393	0.087
-438.763	192.379	0.138	-0.207
-437.749	-200.000	0.050	-0.298
-436.734	-200.000	0.020	-0.490
-435.719	-200.000	-0.001	-0.138
-434.705	-138.432	-0.263	-0.029
-433.690	-89.680	0.242	-0.071
-432.676	283.776	0.226	-0.405
-431.661	-57.527	-0.072	-0.032
-430.646	77.296	0.357	0.377
-429.632	-200.000	-0.055	0.262
-428.617	16.760	-0.169	0.133
-427.603	-99.251	-0.157	-0.039
-426.588	-61.824	-0.141	0.059
-425.573	78.055	0.244	-0.259
-424.559	191.079	-0.100	-0.150
-423.544	-97.570	0.106	0.027
-422.530	-200.000	-0.010	-0.245
-421.515	-129.622	0.174	0.024
-420.500	-200.000	0.047	0.214
-419.486	-148.467	-0.194	-0.016
-418.471	96.625	-0.064	-0.073
-417.457	1.889	-0.242	0.174
-416.442	-161.840	-0.044	0.002
-415.428	225.248	0.060	-0.097
-414.413	-131.276	0.164	0.022
-413.398	-2.056	-0.150	-0.105
-412.384	190.679	-0.151	0.225
-411.369	506.282	-0.139	0.321
-410.355	492.228	-0.068	0.156
-409.340	-200.000	0.020	0.351
-408.325	800.000	-0.058	0.190
-407.311	800.000	0.063	-0.242
-406.296	43.714	-0.337	-0.306
-405.282	201.617	0.009	0.014
-404.267	36.320	-0.251	-0.220
-403.252	-200.000	0.017	-0.203
-402.238	-200.000	-0.015	-0.069
-401.223	-46.938	-0.149	-0.072
-400.209	-151.784	-0.213	0.016
-399.194	800.000	-0.039	0.108
-398.179	-33.187	-0.201	-0.111
-397.165	800.000	0.036	-0.138
-396.150	19.267	0.191	-0.152
-395.136	-174.291	0.266	-0.008
-394.121	-200.000	-0.010	0.280
-393.106	-76.388	-0.148	-0.052
-392.092	800.000	0.101	0.332
-391.077	217.837	0.177	0.281
-390.063	-34.414	0.210	0.115
-389.048	-200.000	-0.092	0.458
-388.033	207.075	-0.032	0.050
-387.019	20.951	-0.088	0.071
-386.004	384.210	0.164	-0.336
-384.990	201.410	0.254	-0.388
-383.975	-9.412	0.316	-0.209
-382.960	-72.408	-0.277	0.102
-381.946	203.038	-0.161	-0.246
-380.931	172.846	-0.305	-0.437
-379.917	800.000	-0.152	-0.486
-378.902	-200.000	-0.029	0.352
-377.888	170.070	0.200	0.285
-376.873	686.026	-0.042	-0.109
-375.858	633.118	0.110	0.277
-374.844	198.791	-0.122	-0.185
-373.829	800.000	0.020	0.057
-372.815	148.075	-0.166	0.223
-371.800	-20.914	-0.193	0.117
-370.785	-48.224	-0.040	0.019
-369.771	-65.139	-0.168	-0.067
-368.756	139.046	-0.136	0.177
-367.742	-200.000	-0.010	0.186
-366.727	-102.480	-0.233	-0.055
-365.712	-113.201	0.316	-0.062
-364.698	-200.000	-0.036	0.240
-363.683	-80.384	0.252	-0.084
-362.669	262.473	0.058	-0.100
-361.654	800.000	0.070	0.232
-360.639	-26.137	0.056	-0.033
-359.625	64.755	-0.160	-0.160
-358.610	-22.737	-0.129	-0.078
-357.596	0.766	0.207	0.147
-356.581	31.406	-0.180	-0.154
-355.566	293.382	-0.143	-0.259
-354.552	143.182	-0.114	0.151
-353.537	-159.210	0.186	-0.010
-352.523	25.169	-0.347	0.286
-351.508	-200.000	0.003	-0.071
-350.493	463.600	-0.082	0.181
-349.479	690.707	-0.084	0.219
-348.464	800.000	-0.080	0.295
-347.450	800.000	0.096	0.324
-346.435	283.096	-0.115	0.204
-345.420	221.708	0.043	-0.069
-344.406	55.671	-0.176	0.169
-343.391	33.748	0.330	0.285
-342.377	-77.614	-0.249	-0.085
-341.362	-200.000	-0.062	-0.456
-340.348	263.564	0.146	-0.252
-339.333	-149.968	0.144	-0.011
-338.318	-200.000	0.024	0.135
-337.304	-92.030	-0.188	0.053
-336.289	-147.223	0.207	-0.017
-335.275	-97.680	-0.268	-0.069
-334.260	-139.133	0.092	-0.010
-333.245	-71.550	0.205	0.076
-332.231	433.307	-0.063	-0.136
-331.216	53.860	0.221	0.211
-330.202	-58.997	0.159	0.068
-329.187	-42.593	0.262	0.132
-328.172	800.000	0.063	0.219
-327.158	-200.000	0.013	0.222
-326.143	-17.223	0.204	0.128
-325.129	-200.000	0.008	-0.193
-324.114	142.503	0.150	-0.197
-323.099	-18.733	0.197	0.122
-322.085	800.000	-0.088	0.283
-321.070	-200.000	-0.010	0.000
-320.056	12.119	0.134	-0.102
-319.041	-110.667	0.090	-0.018
-318.026	-200.000	0.039	-0.301
-317.012	-29.191	-0.114	-0.065
-315.997	-148.140	0.256	0.021
-314.983	87.853	0.155	-0.170
-313.968	127.529	0.111	0.140
-312.953	160.585	0.115	-0.159
-311.939	-200.000	-0.013	-0.508
-310.924	800.000	-0.104	0.336
-309.910	-38.611	0.134	0.070
-308.895	37.446	0.041	-0.036
-307.880	800.000	0.061	-0.171
-306.866	-13.018	0.286	-0.184
-305.851	-29.292	-0.207	-0.117
-304.837	119.524	-0.091	0.112
-303.822	-122.417	-0.293	0.047
-302.807	-200.000	0.012	-0.067
-301.793	90.811	0.179	-0.199
-300.778	-152.918	0.244	0.017
-299.764	-3.971	-0.127	-0.087
-298.749	430.584	0.118	0.253
-297.735	61.102	0.100	0.098
-296.720	-200.000	-0.019	-0.101
-295.705	255.880	0.051	-0.087
-294.691	199.262	-0.247	-0.375
-293.676	106.719	0.143	-0.167
-292.662	800.000	-0.119	-0.345
-291.647	-36.538	0.260	0.138
-290.632	-200.000	-0.003	-0.188
-289.618	139.198	-0.054	0.071
-288.603	241.941	0.118	0.196
-287.589	-151.645	0.225	-0.016
-286.574	263.760	-0.099	0.170
-285.559	-71.247	-0.142	0.053
-284.545	-10.747	-0.144	-0.094
-283.530	-200.000	-0.007	-0.216
-282.516	8.946	0.294	-0.219
-281.501	-130.043	-0.151	0.020
-280.486	-200.000	0.016	0.201
-279.472	-200.000	-0.033	0.166
-278.457	97.413	-0.166	0.188
-277.443	800.000	-0.045	0.151
-276.428	-200.000	-0.014	-0.070
-275.413	-154.418	-0.055	-0.004
-274.399	-126.755	-0.233	-0.034
-273.384	-200.000	0.054	-0.269
-272.370	17.047	0.155	0.122
-271.355	-17.087	-0.197	0.123
-270.340	-200.000	0.003	-0.116
-269.326	242.677	-0.129	0.214
-268.311	154.093	-0.201	-0.273
-267.297	-28.968	0.106	-0.060
-266.282	-80.167	-0.345	-0.114
-265.267	343.539	0.091	-0.176
-264.253	-200.000	0.013	-0.088
-263.238	214.048	0.089	-0.140
-262.224	-85.464	-0.356	-0.110
-261.209	-162.689	0.146	-0.007
-260.195	-43.142	0.010	-0.005
-259.180	-28.946	-0.187	0.106
-258.165	-49.076	0.034	0.016
-257.151	-121.162	0.173	0.029
-256.136	56.588	-0.091	-0.088
-255.122	196.747	0.167	0.251
-254.107	-79.567	-0.146	0.049
-253.092	800.000	-0.021	-0.073
-252.078	-49.508	0.176	0.083
-251.063	-82.261	0.213	-0.069
-250.049	-200.000	-0.018	0.265
-249.034	-200.000	0.018	-0.146
-248.019	-86.116	-0.183	-0.056
-247.005	548.488	0.086	0.204
-245.990	-73.218	-0.078	0.028
-244.976	337.126	-0.104	0.200
-243.961	-13.295	0.217	-0.139
-242.946	800.000	-0.010	-0.041
-241.932	424.001	-0.069	-0.146
-240.917	739.514	0.056	0.149
-239.903	-42.288	-0.168	0.085
-238.888	-101.917	0.284	0.068
-237.873	800.000	0.051	0.141
-236.859	183.239	0.023	-0.033
-235.844	-103.092	-0.171	0.040
-234.830	-12.652	-0.146	-0.094
-233.815	163.290	0.092	0.127
-232.800	800.000	-0.030	0.088
-231.786	72.314	0.050	0.052
-230.771	-50.566	0.082	0.038
-229.757	-200.000	0.064	-0.450
-228.742	68.206	0.168	0.170
-227.727	-158.439	0.226	-0.013
-226.713	-54.055	0.097	0.043
-225.698	-116.417	-0.328	0.060
-224.684	-85.444	0.059	0.018
-223.669	-200.000	-0.018	0.135
-222.655	134.838	-0.080	-0.103
-221.640	-12.198	0.124	0.080
-220.625	-80.539	0.246	-0.081
-219.611	-108.599	0.150	0.032
-218.596	-121.327	-0.056	0.009
-217.582	58.268	0.237	-0.229
-216.567	181.016	0.170	-0.246
-215.552	-200.000	0.040	0.224
-214.538	494.431	-0.061	0.137
-213.523	404.143	0.040	-0.083
-212.509	-38.382	-0.205	-0.107
-211.494	-200.000	-0.035	0.318
-210.479	29.379	0.159	-0.133
-209.465	-14.754	-0.191	0.121
-208.450	-42.724	0.141	-0.071
-207.436	-97.808	0.289	0.074
-206.421	61.525	0.186	0.182
-205.406	-200.000	-0.013	-0.091
-204.392	161.853	-0.079	0.109
-203.377	338.839	-0.188	-0.362
-202.363	158.320	0.161	0.220
-201.348	800.000	0.092	-0.284
-200.333	90.455	-0.161	0.177
-199.319	244.300	0.074	0.123
-198.304	-49.717	-0.083	-0.039
-197.290	-138.687	0.248	-0.027
-196.275	-102.493	-0.393	0.093
-195.260	-11.422	-0.146	0.095
-194.246	-179.951	0.270	0.006
-193.231	-1.834	0.206	0.143
-192.217	339.415	0.110	0.212
-191.202	800.000	-0.097	0.398
-190.187	384.423	-0.143	-0.289
-189.173	-74.392	-0.059	0.021
-188.158	-200.000	0.011	-0.201
-187.144	127.492	-0.051	-0.064
-186.129	-200.000	0.012	-0.114
-185.114	180.889	0.135	0.196
-184.100	107.378	0.123	-0.144
-183.085	-200.000	0.023	-0.235
-182.071	-200.000	0.055	0.254
-181.056	43.700	-0.190	-0.171
-180.042	-5.115	-0.338	0.229
-179.027	-60.476	-0.270	-0.113
-178.012	800.000	-0.073	0.312
-176.998	-200.000	-0.017	-0.140
-175.983	800.000	-0.022	-0.091
-174.969	-120.964	-0.199	0.033
-173.954	-136.593	-0.359	0.041
-172.939	-99.099	-0.337	0.084
-171.925	-200.000	0.029	0.382
-170.910	117.448	0.252	0.305
-169.896	-200.000	-0.031	0.190
-168.881	-16.282	0.395	-0.247
-167.866	125.684	-0.044	-0.055
-166.852	29.971	0.222	0.186
-165.837	800.000	0.082	0.250
-164.823	-200.000	0.001	0.223
-163.808	39.399	0.308	-0.272
-162.793	-200.000	0.024	-0.237
-161.779	-82.620	0.070	-0.022
-160.764	106.569	-0.165	0.193
-159.750	82.459	0.027	-0.029
-158.735	800.000	0.116	-0.314
-157.720	18.417	0.088	0.069
-156.706	-142.078	0.385	0.038
-155.691	-54.765	-0.130	0.058
-154.677	11.933	0.215	-0.163
-153.662	-39.533	-0.151	0.078
-152.647	232.253	0.120	0.194
-151.633	-200.000	-0.004	0.156
-150.618	-143.434	-0.167	0.016
-149.604	114.606	-0.092	0.110
-148.589	800.000	-0.066	0.258
-147.574	-200.000	0.057	0.255
-146.560	-32.143	0.323	0.178
-145.545	97.645	-0.140	-0.158
-144.531	-32.708	-0.185	-0.101
-143.516	-62.464	-0.122	-0.050
-142.502	161.040	-0.136	0.187
-141.487	-51.793	-0.269	-0.123
-140.472	-127.705	-0.285	-0.041
-139.458	-67.468	-0.073	0.028
-138.443	-200.000	0.022	0.150
-137.429	134.793	-0.102	0.130
-136.414	-47.417	-0.198	-0.095
-135.399	171.460	-0.035	-0.050
-134.385	-64.834	-0.186	0.074
-133.370	-200.000	-0.021	0.229
-132.356	-20.209	0.257	-0.156
-131.341	-111.348	0.004	-0.001
-130.326	-83.181	0.360	-0.114
-129.312	800.000	-0.048	0.134
-128.297	400.723	0.095	0.197
-127.283	-28.859	-0.174	-0.099
-126.268	800.000	0.123	0.373
-125.253	449.574	0.097	-0.210
-124.239	800.000	0.035	-0.138
-123.224	166.834	0.082	0.114
-122.210	800.000	-0.045	0.187
-121.195	271.015	0.079	-0.137
-120.180	-115.962	0.158	0.029
-119.166	30.419	0.148	-0.124
-118.151	-41.165	-0.143	0.072
-117.137	170.735	0.070	0.098
-116.122	15.439	-0.136	-0.105
-115.107	-200.000	-0.009	0.142
-114.093	24.603	-0.183	-0.149
-113.078	71.089	0.180	-0.183
-112.064	800.000	-0.068	0.240
-111.049	-98.934	0.103	0.026
-110.034	-31.810	0.073	-0.040
-109.020	122.013	0.163	-0.200
-108.005	-136.865	0.275	-0.031
-106.991	800.000	0.038	-0.111
-105.976	-12.032	-0.253	0.163
-104.962	-105.956	0.152	0.034
-103.947	481.489	0.089	-0.199
-102.932	-120.479	0.177	0.030
-101.918	136.462	-0.094	-0.120
-100.903	-10.326	-0.166	0.108
-99.889	800.000	-0.098	-0.277
-98.874	-200.000	-0.034	0.243
-97.859	26.094	0.272	0.223
-96.845	116.159	-0.181	-0.218
-95.830	-200.000	-0.090	0.393
-94.816	191.555	0.068	0.101
-93.801	-200.000	0.048	-0.414
-92.786	-74.411	-0.233	-0.083
-91.772	558.191	-0.033	0.078
-90.757	39.982	-0.248	0.219
-89.743	-200.000	-0.013	-0.140
-88.728	150.489	0.168	0.224
-87.713	440.482	0.162	0.348
-86.699	-41.776	-0.320	-0.161
-85.684	-5.571	-0.371	0.250
-84.670	29.230	0.072	0.060
-83.655	-25.816	-0.262	0.151
-82.640	-87.320	-0.286	0.085
-81.626	-95.179	-0.283	0.075
-80.611	-61.337	0.233	-0.096
-79.597	130.230	0.218	-0.274
-78.582	-106.478	-0.153	0.033
-77.567	-174.761	-0.428	-0.012
-76.553	347.671	-0.168	-0.325
-75.538	-119.280	-0.391	-0.067
-74.524	800.000	0.031	-0.134
-73.509	360.651	-0.072	0.141
-72.494	-200.000	-0.053	0.390
-71.480	492.941	-0.017	0.039
-70.465	12.123	-0.078	0.059
-69.451	-200.000	-0.043	-0.349
-68.436	800.000	0.042	-0.124
-67.422	-34.952	-0.355	0.190
-66.407	800.000	-0.015	0.044
-65.392	-200.000	0.006	0.170
-64.378	4.656	-0.309	0.223
-63.363	58.307	-0.151	0.145
-62.349	-47.048	0.339	0.162
-61.334	38.435	-1.142	-0.998
-60.319	-61.442	0.647	0.267
-59.305	800.000	-0.259	-0.961
-58.290	436.821	0.610	1.303
-57.276	800.000	0.490	1.424
-56.261	-200.000	105.699	611.772
-55.246	501.993	1507.824	3415.268
-54.232	174.834	2709.307	3844.851
-53.217	104.437	2300.667	2655.647
-52.203	38.662	1904.787	1666.285
-51.188	32.759	1690.858	1434.356
-50.173	30.225	1647.327	1378.570
-49.159	49.005	1701.337	1566.148
-48.144	49.370	1716.699	1582.982
-47.130	32.312	1673.921	1416.394
-46.115	29.582	1659.482	1383.701
-45.100	29.518	1654.157	1378.732
-44.086	29.492	1651.424	1376.203
-43.071	29.503	1648.915	1374.142
-42.057	29.461	1646.233	1371.538
-41.042	29.477	1644.266	1369.963
-40.027	29.421	1643.130	1368.546
-39.013	29.447	1640.623	1366.602
-37.998	29.413	1639.355	1365.239
-36.984	29.405	1638.071	1364.054
-35.969	29.493	1636.779	1363.578
-34.954	29.587	1634.785	1362.550
-33.940	29.557	1632.792	1360.614
-32.925	29.528	1631.466	1359.244
-31.911	29.551	1629.605	1357.809
-30.896	29.525	1627.600	1355.893
-29.881	29.479	1626.334	1354.445
-28.867	29.461	1624.643	1352.854
-27.852	29.502	1623.109	1351.824
-26.838	29.504	1622.057	1350.904
-25.823	29.599	1620.583	1350.321
-24.809	29.569	1619.307	1348.985
-23.794	29.556	1617.995	1347.742
-22.779	29.609	1616.040	1346.446
-21.765	29.477	1614.781	1344.387
-20.750	29.618	1612.600	1343.544
-19.736	29.615	1611.453	1342.510
-18.721	29.618	1610.136	1341.379
-17.706	29.605	1608.560	1339.918
-16.692	29.587	1607.033	1338.464
-15.677	29.544	1605.983	1337.226
-14.663	29.685	1604.022	1336.558
-13.648	29.606	1603.385	1335.402
-12.633	29.529	1601.832	1333.500
-11.619	29.660	1600.303	1333.119
-10.604	29.575	1598.829	1331.229
-9.590	29.580	1597.587	1330.176
-8.575	29.604	1596.292	1329.216
-7.560	29.626	1595.161	1328.380
-6.546	29.545	1593.981	1326.767
-5.531	29.576	1593.151	1326.241
-4.517	29.585	1591.640	1325.000
-3.502	29.613	1590.405	1324.122
-2.487	29.694	1589.133	1323.587
-1.473	29.438	1577.583	1312.096
-0.458	26.773	1558.136	1277.126
0.556	20.951	1560.177	1247.477
1.571	18.871	1584.870	1251.977
2.586	18.545	1599.338	1260.896
3.600	16.823	1546.313	1206.732
4.615	8.845	1436.090	1067.652
5.629	1.186	1371.930	970.973
6.644	-0.219	1364.417	956.618
7.659	-0.384	1363.158	954.603
8.673	-0.350	1361.888	953.843
9.688	-0.287	1359.668	952.607
10.702	-0.645	1356.971	948.365
11.717	3.111	1364.048	977.116
12.731	12.403	1381.575	1049.148
13.746	19.723	1393.463	1105.054
14.761	21.534	1395.956	1118.520
15.775	21.864	1396.393	1120.875
16.790	21.945	1395.452	1120.541
17.804	21.971	1395.007	1120.251
18.819	22.176	1394.724	1121.231
19.834	22.308	1393.864	1121.284
20.848	22.254	1393.438	1120.494
21.863	22.352	1392.549	1120.308
22.877	22.362	1391.624	1119.528
23.892	22.293	1390.583	1118.152
24.907	22.360	1389.932	1117.954
25.921	22.367	1388.404	1116.674
26.936	22.317	1388.206	1116.096
27.950	22.387	1386.765	1115.281
28.965	22.350	1385.345	1113.804
29.980	22.341	1384.258	1112.779
30.994	22.366	1383.231	1112.009
32.009	22.434	1382.018	1111.369
33.023	22.377	1381.122	1110.192
34.038	22.289	1380.159	1108.759
35.053	22.282	1379.201	1107.853
36.067	22.349	1378.022	1107.226
37.082	22.296	1377.555	1106.421
38.096	22.327	1376.335	1105.535
39.111	22.348	1375.446	1104.858
40.126	22.252	1375.166	1103.933
41.140	22.299	1374.611	1103.686
42.155	22.323	1374.135	1103.353
43.169	22.258	1374.170	1102.877
44.184	22.310	1373.766	1102.783
45.199	22.283	1373.183	1102.050
46.213	22.387	1372.462	1102.020
47.228	22.343	1371.828	1101.137
48.242	22.371	1370.351	1100.031
49.257	22.374	1369.136	1098.979
50.271	22.388	1367.560	1097.703
51.286	22.257	1366.316	1095.790
52.301	22.156	1365.472	1094.390
53.315	22.385	1364.346	1094.811
54.330	22.392	1363.394	1093.998
55.344	22.288	1362.590	1092.606
56.359	22.331	1361.085	1091.573
57.374	22.349	1360.226	1090.897
58.388	22.346	1359.919	1090.536
59.403	22.319	1359.441	1089.889
60.417	22.344	1358.724	1089.374
61.432	22.178	1357.952	1087.628
62.447	22.318	1357.035	1087.665
63.461	22.311	1355.863	1086.588
64.476	22.368	1354.810	1085.997
65.490	22.427	1353.611	1085.307
66.505	22.213	1352.954	1083.363
67.520	22.330	1350.881	1082.325
68.534	22.358	1350.054	1081.738
69.549	22.395	1348.966	1080.999
70.563	22.303	1348.273	1079.784
71.578	22.330	1347.251	1079.038
72.593	22.289	1346.459	1078.057
73.607	22.374	1345.992	1078.109
74.622	22.338	1345.379	1077.299
75.636	22.265	1344.920	1076.391
76.651	22.373	1343.406	1075.745
77.666	22.331	1343.308	1075.316
78.680	22.338	1342.585	1074.685
79.695	22.416	1341.439	1074.143
80.709	22.329	1341.027	1073.189
81.724	22.420	1340.115	1072.920
82.739	22.273	1339.277	1071.258
83.753	22.321	1338.289	1070.665
84.768	22.295	1337.416	1069.712
85.782	22.440	1336.011	1069.376
86.797	22.384	1334.499	1067.733
87.812	22.329	1333.416	1066.436
88.826	22.447	1332.106	1066.009
89.841	22.443	1331.475	1065.389
90.855	22.393	1330.427	1064.151
91.870	22.380	1329.780	1063.459
92.884	22.401	1328.873	1062.768
93.899	22.463	1327.684	1062.098
94.914	22.435	1327.168	1061.420
95.928	22.521	1326.267	1061.129
96.943	22.463	1325.614	1060.162
97.957	22.417	1324.853	1059.184
98.972	22.561	1323.376	1058.770
99.987	22.389	1322.627	1057.049
101.001	22.411	1321.726	1056.365
102.016	22.297	1320.952	1054.972
103.030	22.404	1320.016	1054.768
104.045	22.443	1318.933	1054.045
105.060	22.396	1318.555	1053.367
106.074	22.406	1317.190	1052.244
107.089	22.446	1315.615	1051.131
108.103	22.391	1315.100	1050.296
109.118	22.491	1313.928	1049.868
110.133	22.446	1313.089	1048.834
111.147	22.575	1311.099	1047.917
112.162	22.494	1309.922	1046.402
113.176	22.523	1309.559	1046.197
114.191	22.558	1308.280	1045.290
115.206	22.521	1307.089	1044.022
116.220	22.595	1306.114	1043.591
117.235	22.562	1304.933	1042.360
118.249	22.456	1304.530	1041.320
119.264	22.437	1303.772	1040.508
120.279	22.499	1302.428	1039.709
121.293	22.523	1301.907	1039.345
122.308	22.498	1300.952	1038.341
123.322	22.492	1300.227	1037.635
124.337	22.579	1299.058	1037.122
125.352	22.470	1298.407	1035.870
126.366	22.453	1297.773	1035.176
127.381	22.561	1296.525	1034.723
128.395	22.473	1295.785	1033.526
129.410	22.425	1295.301	1032.761
130.424	22.511	1294.097	1032.214
131.439	22.422	1293.113	1030.817
132.454	22.454	1292.521	1030.443
133.468	22.507	1291.564	1029.899
134.483	22.465	1290.909	1029.041
135.497	22.498	1290.059	1028.462
136.512	22.475	1289.027	1027.415
137.527	22.554	1287.821	1026.827
138.541	22.510	1286.486	1025.415
139.556	22.533	1284.887	1024.183
140.570	22.479	1284.259	1023.276
141.585	22.406	1283.243	1021.953
142.600	22.615	1281.756	1021.888
143.614	22.426	1281.324	1020.361
144.629	22.437	1280.313	1019.525
145.643	22.483	1279.144	1018.774
146.658	22.493	1278.185	1017.976
147.673	22.390	1277.320	1016.604
148.687	22.419	1276.193	1015.786
149.702	22.487	1275.345	1015.413
150.716	22.366	1273.932	1013.501
151.731	22.431	1272.984	1013.027
152.746	22.524	1271.359	1012.183
153.760	22.470	1270.565	1011.151
154.775	22.504	1269.818	1010.662
155.789	22.539	1268.955	1010.085
156.804	22.361	1268.806	1008.854
157.819	22.442	1267.146	1007.908
158.833	22.507	1266.418	1007.615
159.848	22.629	1265.556	1007.535
160.862	22.630	1264.548	1006.649
161.877	22.523	1264.063	1005.564
162.892	22.520	1263.462	1004.979
163.906	22.684	1262.074	1004.720
164.921	22.576	1261.490	1003.554
165.935	22.597	1260.799	1003.035
166.950	22.711	1259.631	1002.665
167.964	22.669	1259.460	1002.200
168.979	22.668	1258.745	1001.540
169.994	22.611	1258.194	1000.685
171.008	22.672	1257.499	1000.393
172.023	22.600	1256.612	999.192
173.037	22.758	1256.054	999.556
174.052	22.802	1255.292	999.106
175.067	22.772	1254.320	998.076
176.081	22.799	1253.514	997.499
177.096	22.624	1252.988	996.000
178.110	22.707	1251.622	995.298
179.125	22.705	1251.123	994.803
180.140	22.691	1249.871	993.637
181.154	22.692	1248.455	992.431
182.169	22.621	1247.855	991.467
183.183	22.680	1246.701	990.796
184.198	22.760	1245.443	990.155
185.213	22.810	1244.598	989.678
186.227	22.773	1244.027	988.927
187.242	22.663	1243.419	987.740
188.256	22.816	1242.064	987.430
189.271	22.761	1241.397	986.506
190.286	22.705	1240.621	985.490
191.300	22.655	1240.242	984.820
192.315	22.791	1239.579	984.969
193.329	22.744	1239.320	984.413
194.344	22.792	1238.642	984.057
195.359	22.753	1237.684	982.988
196.373	22.830	1237.210	982.955
197.388	22.668	1236.961	981.766
198.402	22.741	1236.464	981.692
199.417	22.720	1236.178	981.260
200.432	22.779	1235.498	980.964
201.446	22.745	1235.465	980.663
202.461	22.686	1234.287	979.314
203.475	22.699	1233.494	978.669
204.490	22.643	1232.555	977.525
205.504	22.788	1231.448	977.363
206.519	22.882	1230.334	976.913
207.534	22.684	1230.111	975.558
208.548	22.806	1228.598	974.941
209.563	22.875	1227.687	974.515
210.577	22.823	1226.987	973.588
211.592	22.779	1226.393	972.786
212.607	22.823	1225.647	972.351
213.621	22.900	1224.914	972.105
214.636	22.881	1223.624	970.892
215.650	22.936	1222.961	970.585
216.665	22.731	1222.648	969.125
217.680	22.878	1221.299	968.777
218.694	22.785	1221.059	967.986
219.709	22.877	1220.015	967.578
220.723	22.845	1219.356	966.797
221.738	22.734	1218.861	965.709
222.753	22.827	1217.883	965.357
223.767	22.884	1217.627	965.383
224.782	22.805	1217.320	964.619
225.796	22.945	1216.791	964.883
226.811	22.863	1216.051	963.762
227.826	22.860	1215.669	963.355
228.840	22.947	1214.836	963.088
229.855	22.945	1213.952	962.287
230.869	22.931	1213.197	961.529
231.884	22.860	1212.630	960.608
232.899	22.955	1211.636	960.252
233.913	22.917	1211.059	959.506
234.928	23.112	1210.660	960.159
235.942	23.020	1210.012	959.062
236.957	22.904	1209.177	957.686
237.972	22.971	1208.655	957.555
238.986	23.019	1208.003	957.213
240.001	23.042	1206.946	956.411
241.015	23.181	1206.217	956.501
242.030	23.047	1205.903	955.444
243.045	22.963	1205.341	954.461
244.059	23.057	1204.232	954.005
245.074	23.144	1203.085	953.484
246.088	23.119	1202.609	952.885
247.103	23.143	1201.967	952.422
248.117	23.105	1201.040	951.396
249.132	23.096	1200.524	950.854
250.147	23.145	1199.945	950.580
251.161	23.193	1198.814	949.853
252.176	23.131	1198.155	948.917
253.190	23.175	1197.474	948.530
254.205	23.128	1197.401	948.133
255.220	23.145	1196.648	947.544
256.234	23.194	1195.683	946.960
257.249	23.294	1194.998	946.868
258.263	23.340	1194.435	946.585
259.278	23.323	1194.297	946.300
260.293	23.065	1194.298	944.838
261.307	23.141	1193.718	944.703
262.322	23.302	1192.027	944.137
263.336	23.234	1191.994	943.665
264.351	23.209	1191.499	943.059
265.366	23.353	1190.620	943.046
266.380	23.296	1189.863	942.058
267.395	23.272	1189.069	941.222
268.409	23.180	1188.476	940.177
269.424	23.149	1188.465	939.919
270.439	23.258	1188.036	940.079
271.453	23.295	1187.456	939.731
272.468	23.333	1186.036	938.725
273.482	23.323	1184.868	937.669
274.497	23.283	1185.213	937.646
275.512	23.309	1184.303	936.978
276.526	23.354	1183.623	936.596
277.541	23.472	1182.778	936.467
278.555	23.385	1182.451	935.666
279.570	23.405	1181.763	935.144
280.585	23.381	1180.792	934.166
281.599	23.366	1180.019	933.393
282.614	23.300	1179.257	932.361
283.628	23.392	1177.956	931.736
284.643	23.465	1177.097	931.355
285.657	23.390	1176.416	930.343
286.672	23.487	1175.465	930.017
287.687	23.476	1174.883	929.418
288.701	23.368	1174.512	928.473
289.716	23.563	1173.475	928.594
290.730	23.561	1172.833	927.992
291.745	23.536	1172.204	927.282
292.760	23.527	1171.845	926.866
293.774	23.460	1171.286	925.996
294.789	23.651	1170.426	926.228
295.803	23.646	1169.896	925.699
296.818	23.578	1169.323	924.812
297.833	23.469	1169.023	923.927
298.847	23.532	1168.162	923.490
299.862	23.520	1167.620	922.919
300.876	23.545	1166.748	922.274
301.891	23.581	1166.273	922.005
302.906	23.481	1165.946	921.145
303.920	23.565	1164.961	920.721
304.935	23.580	1164.491	920.348
305.949	23.569	1163.619	919.519
306.964	23.661	1162.934	919.376
307.979	23.692	1161.951	918.675
308.993	23.639	1161.896	918.275
310.008	23.711	1160.877	917.762
311.022	23.697	1160.441	917.266
312.037	23.760	1159.326	916.626
313.052	23.781	1158.617	916.095
314.066	23.740	1157.928	915.255
315.081	23.755	1157.431	914.859
316.095	23.649	1156.848	913.775
317.110	23.734	1155.589	913.136
318.125	23.738	1155.322	912.863
319.139	23.700	1154.596	912.011
320.154	23.778	1153.571	911.523
321.168	23.724	1153.107	910.798
322.183	23.704	1152.910	910.460
323.197	23.752	1151.978	909.887
324.212	23.798	1151.939	910.015
325.227	23.859	1150.937	909.455
326.241	23.800	1150.878	909.027
327.256	23.720	1149.833	907.709
328.270	23.827	1149.066	907.569
329.285	23.882	1147.897	906.846
330.300	23.845	1147.375	906.168
331.314	23.912	1146.336	905.608
332.329	23.917	1145.791	905.123
333.343	23.870	1144.963	904.148
334.358	23.978	1144.047	903.891
335.373	24.035	1143.377	903.573
336.387	23.907	1142.931	902.492
337.402	23.897	1142.259	901.833
338.416	24.001	1141.706	901.844
339.431	23.922	1141.381	901.108
340.446	24.060	1140.351	900.911
341.460	24.072	1139.743	900.411
342.475	24.056	1138.697	899.425
343.489	23.985	1137.806	898.282
344.504	24.098	1136.990	898.129
345.519	24.189	1136.284	897.951
346.533	24.092	1135.409	896.693
347.548	23.953	1135.391	895.897
348.562	24.053	1134.186	895.371
349.577	24.164	1133.572	895.366
350.592	24.134	1132.439	894.240
351.606	24.045	1132.368	893.658
352.621	24.188	1131.484	893.599
353.635	24.210	1130.823	893.105
354.650	24.108	1130.535	892.290
355.665	24.101	1130.084	891.821
356.679	24.163	1129.160	891.320
357.694	24.193	1128.402	890.794
358.708	24.114	1127.696	889.764
359.723	24.122	1126.951	889.137
360.738	24.103	1126.261	888.421
361.752	24.148	1125.977	888.339
362.767	24.210	1125.434	888.142
363.781	24.355	1125.008	888.449
364.796	24.321	1124.119	887.501
365.810	24.339	1123.484	887.008
366.825	24.315	1122.771	886.251
367.840	24.403	1122.315	886.247
368.854	24.330	1122.346	885.830
369.869	24.280	1121.197	884.601
370.883	24.215	1120.514	883.660
371.898	24.300	1119.586	883.271
372.913	24.279	1119.243	882.819
373.927	24.283	1118.646	882.287
374.942	24.367	1117.901	882.039
375.956	24.440	1117.123	881.708
376.971	24.375	1117.054	881.252
377.986	24.534	1116.428	881.466
379.000	24.502	1116.104	880.972
380.015	24.505	1115.634	880.542
381.029	24.408	1114.939	879.437
382.044	24.461	1113.951	878.838
383.059	24.550	1113.209	878.613
384.073	24.422	1112.646	877.461
385.088	24.527	1111.887	877.305
386.102	24.521	1110.923	876.433
387.117	24.485	1110.176	875.591
388.132	24.502	1109.096	874.743
389.146	24.551	1108.620	874.534
390.161	24.630	1107.909	874.282
391.175	24.577	1107.312	873.474
392.190	24.504	1106.700	872.556
393.205	24.682	1105.895	872.714
394.219	24.553	1105.399	871.616
395.234	24.647	1104.653	871.411
396.248	24.714	1103.656	870.871
397.263	24.673	1102.983	870.061
398.278	24.754	1102.198	869.759
399.292	24.728	1101.796	869.242
400.307	24.692	1101.332	868.625
401.321	24.755	1100.313	868.051
402.336	24.654	1099.717	867.009
403.350	24.731	1098.994	866.736
404.365	24.749	1098.324	866.219
405.380	24.847	1097.898	866.283
406.394	24.811	1096.975	865.301
407.409	24.822	1096.188	864.660
408.423	24.872	1095.498	864.278
409.438	24.876	1094.897	863.746
410.453	24.877	1094.034	862.997
411.467	24.840	1093.409	862.248
412.482	24.743	1093.162	861.511
413.496	24.879	1092.376	861.469
414.511	24.912	1092.097	861.333
415.526	24.864	1091.434	860.502
416.540	24.824	1090.933	859.835
417.555	24.936	1090.357	859.844
418.569	24.920	1089.823	859.271
419.584	24.889	1089.754	858.991
420.599	24.967	1088.760	858.506
421.613	147.727	1403.675	1798.412
422.628	136.597	1449.555	1798.496
