DTS Sentinel unit serial number:	SN413079Multiplexer serial number:	ORYXHardware model number:	OX4-SRSoftware version number:	ORYX F/W v4.00 Oryx Data Collector v3.7.2.0data status	okinstallation	princeton_trtdifferential loss correction	single-endedforward channel	channel 2reverse channel	N/Adate	2019/09/12time	02:33:10forward acquisition time	60.00reverse acquisition time	0.00gamma	496.2192k internal	0.2326k external	0.2326temperature offset calibration	1.0093default loss term (dB/km)	0.3790temperature slope calibration	1.0000multiplexer offset coefficient	1.0000multiplexer slope coefficient	1.0000fibre end	0.00T internal ref (°C)	32.44T ext. ref 1 (°C)	2.08T ext. ref 2 (°C)	27.29length (m)	temperature (°C)	Stokes	anti-Stokes-747.200	-200.000	-0.024	-0.163
-746.185	-200.000	-0.010	-0.328
-745.171	-200.000	-0.030	0.157
-744.156	372.098	0.124	0.254
-743.142	-73.862	0.191	-0.070
-742.127	-200.000	-0.031	0.362
-741.112	346.095	0.122	0.242
-740.098	197.713	-0.157	0.241
-739.083	-200.000	-0.020	-0.287
-738.069	388.674	-0.150	0.312
-737.054	800.000	-0.106	-0.328
-736.039	-27.886	-0.048	-0.028
-735.025	211.161	-0.007	0.011
-734.010	-200.000	-0.014	-0.169
-732.996	-200.000	-0.038	-0.171
-731.981	800.000	-0.042	-0.116
-730.966	196.954	-0.140	-0.216
-729.952	-169.762	-0.050	0.002
-728.937	-34.846	-0.044	-0.024
-727.923	800.000	-0.058	-0.171
-726.908	-110.719	-0.353	-0.073
-725.894	-122.117	-0.405	-0.067
-724.879	-63.181	-0.076	0.032
-723.864	-200.000	-0.024	0.157
-722.850	-63.094	-0.236	0.098
-721.835	484.118	-0.154	-0.354
-720.821	27.465	0.216	-0.183
-719.806	-85.600	0.211	0.066
-718.791	-200.000	-0.003	-0.044
-717.777	13.890	-0.267	0.210
-716.762	-109.239	0.176	-0.038
-715.748	-57.184	-0.243	-0.108
-714.733	207.124	-0.120	-0.188
-713.718	-59.196	0.133	-0.058
-712.704	-200.000	-0.024	0.108
-711.689	-64.049	-0.172	-0.071
-710.675	203.758	-0.113	-0.176
-709.660	-86.950	0.229	-0.070
-708.645	131.989	-0.111	-0.145
-707.631	-200.000	0.024	-0.182
-706.616	797.232	-0.100	-0.277
-705.602	509.188	0.108	-0.252
-704.587	554.725	0.051	-0.124
-703.572	534.322	-0.050	0.118
-702.558	-200.000	0.014	0.211
-701.543	-23.685	0.413	-0.249
-700.529	-60.536	-0.352	0.150
-699.514	800.000	0.045	-0.124
-698.499	-13.991	-0.213	-0.138
-697.485	-105.032	0.176	-0.041
-696.470	246.439	0.032	-0.054
-695.456	166.436	0.112	-0.160
-694.441	111.501	-0.170	0.206
-693.426	-52.427	-0.160	0.074
-692.412	800.000	0.046	0.161
-691.397	152.003	-0.288	-0.396
-690.383	13.801	0.423	-0.331
-689.368	-75.651	0.085	-0.031
-688.354	-114.976	-0.029	-0.006
-687.339	-200.000	-0.067	-0.310
-686.324	-8.970	0.200	-0.135
-685.310	-103.942	-0.268	-0.063
-684.295	148.924	0.159	-0.217
-683.281	614.956	0.190	0.479
-682.266	34.082	0.088	0.077
-681.251	-200.000	0.010	0.318
-680.237	95.296	0.135	-0.155
-679.222	47.222	-0.022	0.020
-678.208	-75.850	0.297	-0.106
-677.193	-112.026	0.326	0.066
-676.178	800.000	0.036	-0.110
-675.164	59.167	0.228	0.226
-674.149	-200.000	-0.018	-0.218
-673.135	452.802	0.074	0.165
-672.120	173.312	-0.029	0.042
-671.105	-96.547	-0.151	-0.040
-670.091	-89.037	0.548	0.163
-669.076	-200.000	0.044	-0.264
-668.062	-200.000	-0.028	-0.392
-667.047	-137.723	0.146	0.017
-666.032	-200.000	-0.022	-0.149
-665.018	800.000	-0.060	-0.214
-664.003	800.000	-0.023	-0.071
-662.989	-73.853	0.269	-0.098
-661.974	-132.024	-0.262	0.034
-660.959	595.281	0.072	0.178
-659.945	-25.221	0.192	0.114
-658.930	389.125	-0.074	-0.153
-657.916	-31.027	0.152	0.086
-656.901	-32.510	0.329	0.184
-655.886	-200.000	0.010	0.115
-654.872	279.206	-0.121	0.217
-653.857	-83.388	0.123	0.040
-652.843	800.000	0.075	0.230
-651.828	-45.642	0.235	0.117
-650.814	800.000	0.091	0.353
-649.799	-141.367	0.155	-0.016
-648.784	-183.787	0.224	-0.004
-647.770	71.765	0.230	0.240
-646.755	-13.781	0.094	-0.061
-645.741	-38.229	-0.437	0.233
-644.726	135.858	0.103	-0.135
-643.711	-98.139	-0.215	0.056
-642.697	60.514	0.150	0.149
-641.682	394.204	0.083	0.174
-640.668	-1.006	0.147	0.104
-639.653	800.000	-0.065	-0.210
-638.638	-92.986	0.262	-0.074
-637.624	800.000	-0.059	0.227
-636.609	-26.442	-0.200	0.117
-635.595	-114.315	0.258	0.050
-634.580	86.218	0.147	-0.163
-633.565	2.184	-0.278	-0.202
-632.551	-200.000	-0.020	0.346
-631.536	-16.239	-0.241	0.154
-630.522	-36.102	-0.179	0.097
-629.507	800.000	0.035	-0.144
-628.492	-200.000	-0.032	0.151
-627.478	-200.000	-0.034	-0.159
-626.463	11.833	-0.164	0.127
-625.449	-200.000	0.015	-0.108
-624.434	-47.539	-0.126	0.061
-623.419	-200.000	-0.036	-0.160
-622.405	-114.232	0.223	0.043
-621.390	-152.571	-0.180	0.013
-620.376	800.000	0.073	0.216
-619.361	159.343	0.245	-0.342
-618.346	-138.092	-0.213	0.024
-617.332	313.312	0.028	-0.053
-616.317	-91.076	-0.212	0.061
-615.303	-46.167	-0.180	0.089
-614.288	139.776	0.115	0.151
-613.273	-66.517	-0.144	-0.057
-612.259	-129.241	-0.359	-0.050
-611.244	300.081	-0.166	-0.307
-610.230	-92.736	-0.286	-0.080
-609.215	89.570	0.270	0.302
-608.201	28.599	0.134	0.113
-607.186	174.454	-0.299	0.434
-606.171	-157.951	0.350	-0.021
-605.157	800.000	-0.061	0.175
-604.142	-163.452	-0.122	0.006
-603.128	-200.000	-0.005	0.025
-602.113	-200.000	0.018	0.176
-601.098	-200.000	-0.009	-0.340
-600.084	18.560	-0.212	-0.170
-599.069	145.929	0.160	-0.216
-598.055	75.202	0.076	-0.080
-597.040	-79.075	-0.277	0.094
-596.025	5.232	0.181	0.134
-595.011	393.291	0.090	0.189
-593.996	71.352	0.105	0.110
-592.982	800.000	-0.086	-0.278
-591.967	800.000	-0.035	0.147
-590.952	337.843	-0.174	0.339
-589.938	-32.571	-0.226	0.126
-588.923	144.134	-0.136	-0.182
-587.909	181.956	-0.165	0.244
-586.894	451.556	-0.048	-0.107
-585.879	722.827	-0.059	-0.156
-584.865	89.080	0.184	-0.205
-583.850	132.486	-0.187	-0.242
-582.836	800.000	0.038	-0.165
-581.821	-107.287	0.088	0.019
-580.806	-200.000	-0.003	-0.111
-579.792	97.772	-0.086	-0.099
-578.777	25.919	-0.102	-0.085
-577.763	-81.225	-0.274	0.091
-576.748	-123.565	-0.347	-0.055
-575.733	-83.097	0.136	0.044
-574.719	-200.000	0.057	0.328
-573.704	-200.000	0.059	0.341
-572.690	69.258	0.263	0.271
-571.675	115.529	-0.212	-0.259
-570.661	-200.000	0.030	-0.250
-569.646	-157.444	-0.242	0.015
-568.631	-139.042	0.189	0.020
-567.617	-16.591	0.141	-0.089
-566.602	-65.570	0.067	0.027
-565.588	800.000	-0.081	-0.332
-564.573	70.260	-0.280	0.290
-563.558	588.839	0.080	-0.198
-562.544	-198.770	0.430	0.002
-561.529	800.000	0.056	-0.180
-560.515	96.051	-0.170	0.194
-559.500	107.072	0.182	-0.216
-558.485	110.830	-0.052	0.062
-557.471	800.000	-0.093	-0.360
-556.456	236.193	-0.036	0.060
-555.442	-102.644	0.129	-0.031
-554.427	94.257	-0.159	-0.180
-553.412	-145.078	0.361	-0.033
-552.398	-200.000	0.012	-0.345
-551.383	157.953	-0.053	-0.074
-550.369	-132.139	-0.218	-0.028
-549.354	-146.359	0.276	0.024
-548.339	393.719	-0.133	-0.277
-547.325	-123.488	-0.373	-0.059
-546.310	-39.520	0.359	-0.188
-545.296	-200.000	-0.012	0.222
-544.281	274.540	-0.031	-0.055
-543.266	14.484	-0.205	0.160
-542.252	249.123	0.108	0.183
-541.237	-125.682	-0.106	0.016
-540.223	-129.260	0.068	0.010
-539.208	287.799	-0.044	0.080
-538.193	151.969	0.109	-0.148
-537.179	-139.220	-0.186	0.020
-536.164	248.911	-0.043	0.073
-535.150	46.966	0.092	0.085
-534.135	-166.761	-0.155	0.006
-533.121	200.360	0.090	-0.139
-532.106	-32.992	-0.285	-0.158
-531.091	-200.000	-0.006	0.112
-530.077	-108.699	0.116	0.025
-529.062	-200.000	-0.013	0.219
-528.048	525.163	0.067	0.158
-527.033	23.518	-0.139	-0.115
-526.018	-17.697	-0.323	-0.203
-525.004	54.958	0.292	-0.282
-523.989	115.389	-0.132	-0.161
-522.975	-200.000	0.047	-0.383
-521.960	-150.470	-0.066	0.005
-520.945	151.111	-0.103	0.140
-519.931	26.858	-0.466	0.391
-518.916	-14.538	0.135	-0.087
-517.902	800.000	0.023	-0.091
-516.887	90.758	0.103	-0.115
-515.872	-132.866	-0.245	-0.031
-514.858	12.002	0.133	0.102
-513.843	-86.447	-0.164	0.050
-512.829	231.602	-0.106	-0.174
-511.814	-200.000	-0.037	-0.219
-510.799	-163.627	0.092	0.004
-509.785	-98.921	-0.154	0.039
-508.770	5.959	0.042	0.031
-507.756	-57.862	-0.224	-0.098
-506.741	-28.512	-0.015	-0.008
-505.726	-200.000	-0.013	-0.235
-504.712	-50.415	-0.005	0.002
-503.697	287.209	0.104	0.188
-502.683	-200.000	0.009	0.126
-501.668	-46.039	-0.328	0.162
-500.653	-169.416	0.042	0.002
-499.639	-200.000	-0.005	-0.130
-498.624	721.141	0.069	0.184
-497.610	-40.883	0.084	0.044
-496.595	-200.000	-0.038	-0.306
-495.581	127.085	0.088	0.112
-494.566	-200.000	-0.042	0.205
-493.551	101.047	0.061	-0.071
-492.537	-17.673	-0.284	-0.178
-491.522	-157.475	-0.346	-0.021
-490.508	-105.189	-0.439	0.100
-489.493	800.000	0.032	-0.131
-488.478	175.461	-0.141	0.204
-487.464	282.880	0.083	0.149
-486.449	33.951	-0.204	-0.177
-485.435	259.911	0.212	0.365
-484.420	-150.082	0.170	-0.013
-483.405	-200.000	-0.016	-0.164
-482.391	-200.000	-0.026	0.439
-481.376	132.999	0.093	0.120
-480.362	-99.485	0.238	-0.060
-479.347	-118.889	0.300	-0.053
-478.332	191.369	0.161	0.242
-477.318	-155.558	0.242	-0.016
-476.303	360.012	-0.038	0.076
-475.289	-25.149	-0.047	0.028
-474.274	684.961	-0.030	-0.079
-473.259	502.766	-0.012	0.028
-472.245	59.940	0.163	-0.161
-471.230	-12.316	0.342	0.223
-470.216	137.752	0.107	0.139
-469.201	210.295	-0.111	-0.173
-468.186	800.000	0.102	0.349
-467.172	40.590	0.253	-0.227
-466.157	195.661	-0.260	-0.394
-465.143	180.977	0.054	0.080
-464.128	-200.000	-0.061	-0.507
-463.113	-124.108	0.241	-0.038
-462.099	-100.716	-0.221	0.054
-461.084	800.000	0.119	0.359
-460.070	-168.806	-0.275	-0.010
-459.055	-12.321	-0.082	0.054
-458.040	32.581	-0.029	0.025
-457.026	139.804	-0.079	-0.104
-456.011	-157.196	0.211	0.013
-454.997	211.060	-0.123	0.193
-453.982	305.986	-0.084	-0.156
-452.968	-69.309	0.552	-0.211
-451.953	223.867	0.113	-0.183
-450.938	-105.252	-0.173	0.039
-449.924	800.000	-0.060	0.186
-448.909	-47.657	-0.299	0.145
-447.895	528.472	-0.035	0.082
-446.880	-200.000	0.066	-0.398
-445.865	55.730	-0.058	0.056
-444.851	-108.185	0.180	0.039
-443.836	-200.000	0.000	0.280
-442.822	56.368	-0.151	0.146
-441.807	-186.520	-0.070	-0.001
-440.792	-159.419	-0.309	-0.017
-439.778	111.266	0.176	0.212
-438.763	130.680	0.025	-0.032
-437.749	32.633	0.130	-0.112
-436.734	-200.000	0.005	0.079
-435.719	-78.008	0.164	0.056
-434.705	95.200	0.060	-0.068
-433.690	-200.000	-0.003	0.088
-432.676	85.949	-0.088	0.097
-431.661	144.548	0.081	0.107
-430.646	-26.259	-0.101	-0.059
-429.632	800.000	-0.036	0.138
-428.617	374.383	0.025	0.051
-427.603	-200.000	0.054	-0.280
-426.588	-69.344	0.104	0.040
-425.573	-200.000	0.022	-0.110
-424.559	-12.239	-0.170	-0.111
-423.544	-200.000	0.038	-0.380
-422.530	469.823	0.124	-0.277
-421.515	-102.955	0.298	0.070
-420.500	-13.072	0.221	0.143
-419.486	557.483	-0.111	0.268
-418.471	-200.000	0.006	0.249
-417.457	49.394	0.239	-0.224
-416.442	520.281	-0.019	0.045
-415.428	-133.753	0.241	-0.030
-414.413	-102.980	-0.181	-0.043
-413.398	-103.959	-0.191	0.044
-412.384	-128.898	0.356	-0.050
-411.369	-136.940	-0.087	-0.010
-410.355	-74.697	-0.150	0.054
-409.340	196.623	0.235	-0.356
-408.325	102.246	-0.098	-0.114
-407.311	638.599	0.106	-0.268
-406.296	800.000	-0.191	-0.564
-405.282	-105.813	0.405	0.091
-404.267	-7.551	-0.253	0.170
-403.252	-200.000	-0.045	0.268
-402.238	-86.679	-0.222	0.067
-401.223	-101.238	0.242	0.059
-400.209	-90.882	-0.138	0.039
-399.194	-84.985	0.080	0.025
-398.179	-163.078	-0.308	-0.015
-397.165	434.924	-0.113	-0.245
-396.150	-200.000	-0.043	0.270
-395.136	-88.794	-0.155	0.046
-394.121	80.199	-0.121	0.129
-393.106	239.073	0.183	-0.303
-392.092	76.946	-0.100	-0.106
-391.077	268.003	0.080	-0.139
-390.063	519.496	0.062	0.145
-389.048	26.747	0.108	0.090
-388.033	-87.479	-0.241	0.073
-387.019	-55.916	0.125	0.056
-386.004	-138.442	-0.165	-0.018
-384.990	-200.000	-0.037	0.260
-383.975	62.086	0.161	0.159
-382.960	-100.697	-0.174	0.043
-381.946	135.599	0.210	-0.272
-380.931	-91.504	0.234	-0.066
-379.917	64.123	-0.093	0.093
-378.902	-200.000	-0.037	0.350
-377.888	-66.020	0.038	-0.015
-376.873	-64.947	0.283	0.114
-375.858	34.973	-0.375	-0.326
-374.844	-26.459	0.356	-0.207
-373.829	-137.389	0.116	-0.013
-372.815	45.529	0.139	0.128
-371.800	-200.000	-0.016	0.103
-370.785	735.302	-0.037	0.100
-369.771	129.208	0.015	0.020
-368.756	800.000	0.060	-0.250
-367.742	151.972	0.093	-0.125
-366.727	-77.382	0.177	-0.061
-365.712	-200.000	0.019	-0.321
-364.698	-92.489	-0.273	0.076
-363.683	-13.426	0.166	0.107
-362.669	-23.181	-0.179	-0.107
-361.654	47.303	0.131	0.121
-360.639	800.000	-0.066	0.253
-359.625	-143.012	0.143	-0.014
-358.610	-90.195	-0.150	-0.043
-357.596	800.000	-0.063	-0.240
-356.581	-200.000	-0.011	-0.200
-355.566	93.891	-0.070	0.078
-354.552	-21.133	-0.101	0.062
-353.537	318.671	0.159	-0.298
-352.523	800.000	-0.127	-0.353
-351.508	-200.000	0.018	0.285
-350.493	-156.155	-0.240	0.015
-349.479	-64.944	-0.232	0.093
-348.464	27.300	0.143	-0.119
-347.450	67.599	-0.128	0.129
-346.435	-87.805	0.209	-0.062
-345.420	-93.301	-0.098	-0.027
-344.406	800.000	0.086	-0.261
-343.391	-200.000	0.028	-0.169
-342.377	-30.289	0.153	-0.086
-341.362	62.371	0.170	0.169
-340.348	-20.829	0.130	-0.079
-339.333	-200.000	-0.019	-0.199
-338.318	-200.000	0.006	-0.324
-337.304	-200.000	0.012	0.143
-336.289	-92.605	0.088	0.025
-335.275	-66.811	0.328	0.129
-334.260	475.871	-0.082	0.183
-333.245	-194.728	-0.270	0.002
-332.231	-89.236	-0.278	-0.082
-331.216	800.000	-0.056	0.238
-330.202	-200.000	-0.004	-0.249
-329.187	-200.000	0.023	-0.207
-328.172	147.125	-0.053	0.071
-327.158	266.633	-0.070	0.121
-326.143	132.535	0.120	-0.154
-325.129	800.000	-0.111	-0.339
-324.114	-11.544	0.186	0.121
-323.099	63.394	0.060	0.060
-322.085	800.000	0.124	-0.430
-321.070	128.237	-0.196	0.247
-320.056	75.908	-0.412	0.432
-319.041	-193.411	0.273	-0.002
-318.026	-138.795	-0.140	0.015
-317.012	123.293	0.054	0.067
-315.997	-200.000	-0.023	-0.241
-314.983	-14.267	-0.123	0.078
-313.968	-108.687	-0.173	0.037
-312.953	-110.421	-0.174	0.036
-311.939	-102.955	0.133	-0.031
-310.924	-200.000	-0.002	0.205
-309.910	20.151	0.047	0.038
-308.895	171.216	-0.048	-0.069
-307.880	-200.000	-0.014	-0.078
-306.866	-165.394	0.243	0.011
-305.851	16.165	0.123	-0.096
-304.837	-102.950	0.045	-0.011
-303.822	-116.965	0.082	-0.015
-302.807	-113.490	-0.092	0.018
-301.793	127.410	-0.139	-0.175
-300.778	480.785	0.124	0.280
-299.764	5.070	0.309	0.226
-298.749	-62.419	-0.359	0.148
-297.735	-167.702	0.322	0.013
-296.720	1.330	0.120	0.085
-295.705	-112.331	-0.132	-0.026
-294.691	272.733	0.116	0.202
-293.676	-129.099	-0.130	-0.018
-292.662	-17.237	-0.256	0.160
-291.647	-200.000	-0.005	0.053
-290.632	800.000	-0.044	-0.168
-289.618	800.000	0.050	-0.207
-288.603	311.744	0.151	-0.281
-287.589	242.368	-0.161	0.266
-286.574	-77.670	-0.164	0.056
-285.559	-152.851	-0.414	-0.029
-284.545	-200.000	-0.008	0.231
-283.530	-169.499	-0.126	-0.005
-282.516	532.347	0.147	-0.344
-281.501	-56.462	0.168	0.074
-280.486	-4.248	0.273	-0.187
-279.472	191.634	-0.093	-0.139
-278.457	82.076	0.173	-0.186
-277.443	800.000	-0.108	-0.321
-276.428	-200.000	0.040	0.226
-275.413	-131.381	-0.106	-0.014
-274.399	800.000	0.038	0.107
-273.384	148.010	0.041	0.054
-272.370	-110.051	0.247	0.051
-271.355	-85.092	0.270	-0.084
-270.340	-118.122	-0.302	-0.053
-269.326	230.527	0.140	-0.227
-268.311	120.278	0.139	0.170
-267.297	609.908	0.052	0.128
-266.282	800.000	-0.064	0.194
-265.267	-40.152	-0.315	0.162
-264.253	-200.000	0.014	-0.183
-263.238	800.000	0.087	-0.254
-262.224	-200.000	-0.009	0.142
-261.209	-71.159	-0.336	0.125
-260.195	-200.000	-0.021	-0.252
-259.180	-200.000	-0.026	-0.121
-258.165	-147.224	0.410	0.035
-257.151	-94.747	-0.148	-0.040
-256.136	324.994	0.094	0.178
-255.122	-14.550	0.176	-0.112
-254.107	-200.000	0.015	-0.180
-253.092	-200.000	0.021	-0.157
-252.078	-200.000	0.052	0.332
-251.063	43.197	0.200	-0.181
-250.049	104.409	0.236	0.275
-249.034	800.000	-0.079	0.284
-248.019	291.271	0.237	-0.426
-247.005	13.083	0.289	0.221
-245.990	72.600	-0.081	0.083
-244.976	-200.000	-0.032	0.253
-243.961	15.935	-0.200	0.156
-242.946	686.453	0.048	0.124
-241.932	-200.000	-0.003	0.296
-240.917	176.548	0.072	-0.104
-239.903	-132.136	0.152	-0.020
-238.888	-47.533	-0.143	0.069
-237.873	800.000	0.018	0.070
-236.859	-113.763	-0.217	0.042
-235.844	51.490	-0.296	0.278
-234.830	35.444	0.155	-0.135
-233.815	-44.524	0.361	-0.179
-232.800	-90.137	0.201	0.058
-231.786	800.000	0.105	-0.297
-230.771	46.976	-0.040	-0.037
-229.757	-200.000	0.047	0.220
-228.742	-176.472	-0.271	-0.007
-227.727	3.121	-0.261	-0.188
-226.713	-200.000	-0.012	-0.103
-225.698	247.544	0.207	-0.346
-224.684	317.384	-0.144	-0.269
-223.669	-39.316	0.221	-0.115
-222.655	-165.021	-0.387	-0.017
-221.640	-67.967	0.064	-0.025
-220.625	97.924	-0.290	0.330
-219.611	190.701	0.067	0.099
-218.596	378.873	-0.140	0.284
-217.582	336.408	0.048	-0.092
-216.567	218.705	0.113	-0.179
-215.552	-126.106	0.179	-0.027
-214.538	-13.753	-0.172	0.110
-213.523	-119.393	-0.337	-0.058
-212.509	-200.000	0.010	0.279
-211.494	-170.066	0.469	0.016
-210.479	-200.000	0.034	-0.169
-209.465	246.387	-0.152	-0.253
-208.450	533.548	-0.044	0.104
-207.436	800.000	-0.040	-0.142
-206.421	-200.000	0.028	-0.132
-205.406	-45.609	0.052	0.025
-204.392	745.638	-0.158	0.420
-203.377	114.317	0.121	0.145
-202.363	327.773	0.113	-0.214
-201.348	-200.000	0.043	0.220
-200.333	3.430	0.098	0.071
-199.319	-171.994	0.416	-0.013
-198.304	-93.593	0.079	-0.021
-197.290	-200.000	-0.013	0.068
-196.275	-200.000	-0.032	-0.358
-195.260	800.000	-0.039	-0.114
-194.246	-200.000	0.011	0.432
-193.231	9.949	0.128	0.096
-192.217	62.934	-0.046	-0.046
-191.202	-160.895	-0.043	0.002
-190.187	-73.094	0.287	-0.104
-189.173	149.444	0.128	-0.171
-188.158	-154.308	-0.120	-0.008
-187.144	179.369	0.083	-0.120
-186.129	-82.311	-0.046	-0.015
-185.114	219.828	0.128	0.202
-184.100	-139.012	0.325	-0.035
-183.085	18.264	-0.244	-0.192
-182.071	-41.665	0.055	0.028
-181.056	800.000	0.065	0.187
-180.042	-53.380	-0.334	0.151
-179.027	-170.086	0.068	0.002
-178.012	-200.000	-0.012	-0.092
-176.998	800.000	0.025	0.072
-175.983	30.394	0.194	0.163
-174.969	-22.988	0.400	-0.238
-173.954	-200.000	0.001	0.265
-172.939	294.959	-0.007	0.012
-171.925	-73.863	0.325	0.117
-170.910	-75.296	-0.089	0.031
-169.896	-200.000	-0.028	0.138
-168.881	-113.275	0.095	0.018
-167.866	-146.588	-0.081	-0.007
-166.852	-79.936	-0.273	0.090
-165.837	800.000	-0.075	0.298
-164.823	-30.071	0.380	0.213
-163.808	40.873	-0.348	0.310
-162.793	-200.000	0.003	-0.298
-161.779	301.495	-0.042	-0.076
-160.764	-23.457	0.204	0.121
-159.750	-16.301	-0.356	0.223
-158.735	326.668	0.176	-0.332
-157.720	138.734	0.179	-0.231
-156.706	-200.000	-0.036	0.272
-155.691	-2.812	-0.104	0.072
-154.677	-173.313	-0.207	-0.006
-153.662	-25.458	-0.010	-0.006
-152.647	800.000	0.055	-0.183
-151.633	-22.940	0.238	0.142
-150.618	-200.000	0.013	0.071
-149.604	-81.939	0.065	0.021
-148.589	210.370	0.156	0.241
-147.574	-161.189	0.278	0.014
-146.560	800.000	0.165	-0.689
-145.545	-32.872	-0.078	0.043
-144.531	51.584	-0.084	-0.079
-143.516	129.690	0.144	0.181
-142.502	34.199	-0.214	0.184
-141.487	200.267	-0.040	0.060
-140.472	-200.000	0.002	0.141
-139.458	-107.809	-0.426	0.091
-138.443	76.183	0.035	0.036
-137.429	69.773	0.366	0.372
-136.414	166.769	0.118	-0.164
-135.399	394.465	0.144	-0.296
-134.385	442.926	0.107	0.231
-133.370	493.662	-0.015	0.034
-132.356	-145.873	0.088	0.008
-131.341	221.175	0.016	-0.026
-130.326	-100.123	-0.216	0.053
-129.312	-107.970	0.271	0.058
-128.297	312.262	-0.199	-0.368
-127.283	-200.000	-0.007	0.182
-126.268	304.796	-0.094	0.173
-125.253	189.566	0.247	0.365
-124.239	35.508	0.298	0.258
-123.224	-200.000	0.015	0.089
-122.210	186.229	-0.175	0.257
-121.195	23.499	0.107	-0.086
-120.180	-73.921	-0.185	-0.066
-119.166	-91.375	0.125	0.035
-118.151	482.634	0.103	0.231
-117.137	-200.000	0.032	0.291
-116.122	-171.757	-0.239	0.008
-115.107	7.940	-0.191	-0.141
-114.093	-76.973	0.338	-0.116
-113.078	277.864	-0.032	0.056
-112.064	1.833	0.125	0.089
-111.049	-20.796	-0.436	0.263
-110.034	465.829	-0.033	-0.073
-109.020	339.258	0.056	-0.107
-108.005	0.993	0.218	0.154
-106.991	280.945	0.226	0.397
-105.976	800.000	-0.047	-0.151
-104.962	800.000	-0.038	-0.161
-103.947	-200.000	-0.003	0.098
-102.932	800.000	0.064	-0.222
-101.918	-118.680	0.337	-0.058
-100.903	118.092	-0.054	0.066
-99.889	28.188	-0.272	0.226
-98.874	-50.895	0.090	0.042
-97.859	-26.984	-0.020	0.012
-96.845	-200.000	-0.031	-0.255
-95.830	800.000	0.042	0.119
-94.816	800.000	0.109	-0.344
-93.801	223.803	0.159	0.252
-92.786	-155.634	0.086	-0.005
-91.772	800.000	0.069	-0.285
-90.757	-200.000	0.012	-0.359
-89.743	699.422	-0.099	-0.257
-88.728	-73.839	-0.204	-0.073
-87.713	-51.485	-0.254	-0.117
-86.699	316.999	-0.056	-0.103
-85.684	-105.889	0.154	0.034
-84.670	-26.876	-0.062	-0.036
-83.655	-200.000	0.002	0.019
-82.640	-74.537	-0.053	0.019
-81.626	-200.000	-0.034	0.491
-80.611	-125.395	-0.112	-0.017
-79.597	-184.110	0.291	0.005
-78.582	94.522	0.224	0.250
-77.567	800.000	0.035	0.102
-76.553	-200.000	0.062	-0.500
-75.538	90.728	0.203	0.223
-74.524	-44.085	-0.268	-0.132
-73.509	-4.472	0.210	-0.143
-72.494	-200.000	-0.064	0.292
-71.480	-108.920	-0.139	0.029
-70.465	64.214	0.135	0.134
-69.451	800.000	0.052	-0.154
-68.436	800.000	0.051	0.197
-67.422	251.233	0.213	-0.355
-66.407	10.466	-0.245	0.183
-65.392	-25.961	-0.196	0.113
-64.378	-63.453	0.209	0.085
-63.363	767.302	-0.102	0.271
-62.349	-26.089	0.206	-0.119
-61.334	-4.877	-1.220	-0.826
-60.319	-200.000	0.068	0.498
-59.305	-200.000	-0.176	-1.238
-58.290	306.204	0.651	1.189
-57.276	800.000	0.497	1.367
-56.261	-200.000	95.713	586.124
-55.246	567.466	1368.539	3262.302
-54.232	162.039	2549.417	3506.367
-53.217	106.658	2262.254	2634.714
-52.203	41.794	1890.452	1682.216
-51.188	35.746	1681.124	1450.439
-50.173	33.027	1637.016	1392.327
-49.159	50.080	1683.312	1559.445
-48.144	51.810	1699.991	1587.759
-47.130	35.281	1661.039	1429.420
-46.115	32.615	1646.188	1396.849
-45.100	32.427	1641.395	1391.335
-44.086	32.439	1638.293	1388.743
-43.071	32.423	1635.530	1386.229
-42.057	32.339	1633.884	1384.160
-41.042	32.390	1631.531	1382.483
-40.027	32.412	1629.785	1381.117
-39.013	32.313	1627.773	1378.630
-37.998	32.212	1626.375	1376.651
-36.984	32.375	1625.440	1376.996
-35.969	32.470	1623.301	1375.825
-34.954	32.457	1621.958	1374.537
-33.940	32.432	1620.122	1372.743
-32.925	32.371	1618.593	1370.949
-31.911	32.445	1616.896	1369.999
-30.896	32.437	1614.897	1368.189
-29.881	32.413	1613.493	1366.774
-28.867	32.361	1612.267	1365.300
-27.852	32.424	1610.113	1363.883
-26.838	32.429	1608.500	1362.494
-25.823	32.439	1607.592	1361.748
-24.809	32.417	1606.229	1360.377
-23.794	32.452	1604.455	1359.074
-22.779	32.491	1603.080	1358.135
-21.765	32.485	1601.612	1356.799
-20.750	32.408	1600.245	1355.027
-19.736	32.453	1598.819	1354.088
-18.721	32.573	1596.860	1353.241
-17.706	32.507	1595.390	1351.466
-16.692	32.411	1594.025	1349.571
-15.677	32.539	1592.929	1349.508
-14.663	32.554	1591.625	1348.453
-13.648	32.532	1590.374	1347.184
-12.633	32.459	1588.338	1344.885
-11.619	32.515	1587.251	1344.312
-10.604	32.500	1585.572	1342.727
-9.590	32.418	1584.225	1340.949
-8.575	32.398	1583.089	1339.791
-7.560	32.509	1581.567	1339.238
-6.546	32.415	1580.566	1337.671
-5.531	32.499	1579.501	1337.310
-4.517	32.495	1577.763	1335.757
-3.502	32.430	1577.259	1334.819
-2.487	32.493	1575.668	1333.866
-1.473	32.181	1563.887	1321.646
-0.458	29.446	1545.003	1286.596
0.556	26.491	1545.642	1256.667
1.571	24.250	1570.009	1260.543
2.586	23.930	1582.763	1268.386
3.600	21.371	1530.426	1208.666
4.615	12.313	1420.575	1063.411
5.629	3.834	1354.532	961.341
6.644	2.210	1346.141	945.264
7.659	2.106	1344.936	943.693
8.673	2.029	1343.890	942.399
9.688	1.985	1341.801	940.577
10.702	1.825	1338.468	937.177
11.717	5.348	1346.205	964.273
12.731	15.456	1365.401	1040.909
13.746	24.010	1379.550	1104.959
14.761	26.280	1382.153	1121.047
15.775	26.666	1382.038	1123.249
16.790	26.693	1381.675	1123.022
17.804	26.800	1380.820	1122.892
18.819	26.936	1380.733	1123.564
19.834	27.063	1380.539	1124.092
20.848	27.047	1379.488	1123.038
21.863	27.074	1378.620	1122.394
22.877	26.999	1378.179	1121.475
23.892	27.005	1376.959	1120.416
24.907	27.087	1375.938	1119.996
25.921	27.124	1374.644	1119.071
26.936	27.092	1374.281	1118.477
27.950	27.125	1373.362	1117.834
28.965	27.123	1372.048	1116.653
29.980	27.152	1370.374	1115.375
30.994	27.105	1369.133	1113.976
32.009	27.007	1368.065	1112.408
33.023	27.098	1367.081	1112.065
34.038	27.088	1365.944	1110.983
35.053	27.127	1364.724	1110.129
36.067	27.109	1364.048	1109.372
37.082	27.058	1363.158	1108.235
38.096	27.088	1362.448	1107.748
39.111	27.165	1361.035	1106.970
40.126	27.112	1360.849	1106.398
41.140	27.039	1360.519	1105.587
42.155	27.083	1360.034	1105.359
43.169	27.107	1359.829	1105.242
44.184	27.144	1359.386	1105.010
45.199	27.029	1359.467	1104.278
46.213	27.100	1358.752	1104.031
47.228	27.064	1357.700	1102.862
48.242	27.102	1356.140	1101.723
49.257	27.111	1354.872	1100.652
50.271	27.092	1353.811	1099.579
51.286	27.129	1351.727	1098.009
52.301	26.991	1351.132	1096.598
53.315	27.163	1349.640	1096.327
54.330	27.152	1349.558	1096.098
55.344	27.061	1348.479	1094.575
56.359	27.010	1347.509	1093.383
57.374	27.042	1346.557	1092.707
58.388	26.984	1346.505	1092.220
59.403	27.035	1345.201	1091.371
60.417	27.077	1345.244	1091.561
61.432	27.205	1344.017	1091.240
62.447	27.034	1343.418	1089.630
63.461	27.070	1342.626	1089.106
64.476	27.063	1341.446	1088.010
65.490	27.022	1340.243	1086.696
66.505	26.988	1338.570	1085.037
67.520	27.006	1337.332	1084.044
68.534	27.100	1336.689	1083.987
69.549	27.087	1335.754	1083.059
70.563	27.118	1334.346	1082.005
71.578	27.077	1333.487	1080.966
72.593	27.132	1332.895	1080.720
73.607	27.048	1332.272	1079.623
74.622	27.048	1330.993	1078.489
75.636	27.071	1330.386	1078.041
76.651	27.044	1329.955	1077.434
77.666	27.054	1329.361	1076.914
78.680	27.021	1329.185	1076.482
79.695	27.058	1328.556	1076.096
80.709	27.011	1328.099	1075.355
81.724	27.068	1326.736	1074.492
82.739	27.035	1325.942	1073.559
83.753	27.166	1324.666	1073.203
84.768	27.098	1323.510	1071.769
85.782	27.074	1322.823	1070.981
86.797	27.186	1321.246	1070.270
87.812	27.184	1320.292	1069.384
88.826	27.115	1319.523	1068.267
89.841	27.193	1317.876	1067.297
90.855	27.109	1317.325	1066.260
91.870	27.143	1316.485	1065.683
92.884	27.107	1315.822	1064.846
93.899	27.093	1315.267	1064.217
94.914	27.144	1314.154	1063.521
95.928	27.096	1313.665	1062.753
96.943	27.135	1312.763	1062.156
97.957	27.227	1311.927	1061.922
98.972	27.143	1311.718	1061.166
99.987	27.181	1310.019	1059.925
101.001	27.140	1308.766	1058.574
102.016	27.148	1308.504	1058.314
103.030	27.189	1307.135	1057.357
104.045	27.294	1306.439	1057.311
105.060	27.200	1305.609	1055.995
106.074	27.182	1304.465	1054.875
107.089	27.267	1303.347	1054.369
108.103	27.319	1302.286	1053.720
109.118	27.292	1301.562	1052.886
110.133	27.206	1300.816	1051.689
111.147	27.306	1299.015	1050.716
112.162	27.192	1298.507	1049.558
113.176	27.255	1297.071	1048.665
114.191	27.258	1296.439	1048.080
115.206	27.246	1295.370	1047.052
116.220	27.199	1294.641	1046.099
117.235	27.277	1293.384	1045.439
118.249	27.227	1292.489	1044.335
119.264	27.267	1291.651	1043.796
120.279	27.348	1291.148	1043.764
121.293	27.342	1289.734	1042.491
122.308	27.138	1289.749	1041.248
123.322	27.161	1288.993	1040.674
124.337	27.257	1288.044	1040.363
125.352	27.313	1287.061	1039.800
126.366	27.279	1286.223	1038.835
127.381	27.305	1285.379	1038.213
128.395	27.304	1284.224	1037.181
129.410	27.273	1283.835	1036.599
130.424	27.286	1282.835	1035.773
131.439	27.318	1282.132	1035.293
132.454	27.307	1281.105	1034.310
133.468	27.347	1280.709	1034.128
134.483	27.281	1280.366	1033.387
135.497	27.277	1278.956	1032.134
136.512	27.316	1278.607	1031.979
137.527	27.239	1277.432	1030.503
138.541	27.219	1275.977	1029.127
139.556	27.194	1274.953	1028.069
140.570	27.196	1274.435	1027.570
141.585	27.314	1273.011	1026.998
142.600	27.198	1271.960	1025.406
143.614	27.281	1271.348	1025.288
144.629	27.340	1269.826	1024.303
145.643	27.193	1268.921	1022.654
146.658	27.119	1268.188	1021.557
147.673	27.235	1266.799	1020.999
148.687	27.120	1266.382	1019.927
149.702	27.111	1265.396	1018.995
150.716	27.251	1264.046	1018.598
151.731	27.233	1263.235	1017.755
152.746	27.277	1261.902	1016.836
153.760	27.313	1261.303	1016.469
154.775	27.292	1260.350	1015.491
155.789	27.340	1258.950	1014.540
156.804	27.222	1258.479	1013.417
157.819	27.289	1257.458	1012.875
158.833	27.314	1256.859	1012.443
159.848	27.174	1256.307	1011.129
160.862	27.284	1255.604	1011.085
161.877	27.431	1253.919	1010.454
162.892	27.384	1253.715	1009.941
163.906	27.316	1253.343	1009.174
164.921	27.349	1252.355	1008.471
165.935	27.325	1251.718	1007.736
166.950	27.255	1251.167	1006.815
167.964	27.433	1250.303	1007.017
168.979	27.344	1249.827	1006.054
169.994	27.415	1249.431	1006.035
171.008	27.409	1248.554	1005.207
172.023	27.412	1248.115	1004.782
173.037	27.386	1247.034	1003.683
174.052	27.457	1246.214	1003.325
175.067	27.473	1245.589	1002.821
176.081	27.411	1244.932	1001.863
177.096	27.451	1243.936	1001.192
178.110	27.278	1243.341	999.671
179.125	27.290	1242.154	998.693
180.140	27.390	1241.248	998.426
181.154	27.466	1239.901	997.672
182.169	27.491	1238.641	996.703
183.183	27.431	1238.411	996.103
184.198	27.416	1237.360	995.089
185.213	27.451	1236.220	994.278
186.227	27.576	1235.088	993.961
187.242	27.584	1234.052	993.083
188.256	27.490	1233.585	992.108
189.271	27.550	1232.933	991.818
190.286	27.536	1231.974	990.884
191.300	27.339	1232.198	989.905
192.315	27.383	1231.440	989.448
193.329	27.487	1231.014	989.581
194.344	27.416	1230.557	988.743
195.359	27.454	1230.050	988.455
196.373	27.500	1228.983	987.759
197.388	27.354	1228.955	986.854
198.402	27.355	1228.738	986.603
199.417	27.482	1227.609	986.295
200.432	27.484	1227.553	986.175
201.446	27.444	1227.027	985.447
202.461	27.530	1226.108	985.083
203.475	27.568	1225.147	984.430
204.490	27.433	1224.364	982.986
205.504	27.583	1223.160	982.745
206.519	27.611	1222.580	982.339
207.534	27.561	1221.776	981.339
208.548	27.502	1220.754	980.113
209.563	27.530	1219.509	979.178
210.577	27.653	1218.733	979.127
211.592	27.637	1217.980	978.352
212.607	27.651	1217.454	977.915
213.621	27.597	1217.095	977.254
214.636	27.525	1216.362	976.191
215.650	27.590	1215.128	975.465
216.665	27.665	1214.000	974.874
217.680	27.578	1213.376	973.820
218.694	27.698	1212.635	973.780
219.709	27.713	1211.928	973.205
220.723	27.667	1211.398	972.447
221.738	27.536	1210.790	971.175
222.753	27.518	1209.880	970.266
223.767	27.604	1209.348	970.212
224.782	27.699	1208.799	970.189
225.796	27.851	1208.368	970.565
226.811	27.727	1207.744	969.317
227.826	27.715	1207.181	968.715
228.840	27.717	1206.488	968.089
229.855	27.633	1206.201	967.323
230.869	27.714	1205.351	966.986
231.884	27.716	1204.441	966.181
232.899	27.689	1203.687	965.347
233.913	27.784	1202.754	965.020
234.928	27.829	1202.858	965.252
235.942	27.719	1202.390	964.213
236.957	27.769	1201.418	963.613
237.972	27.753	1200.862	962.997
238.986	27.821	1200.007	962.580
240.001	27.848	1199.315	962.086
241.015	27.999	1198.434	962.087
242.030	28.012	1197.975	961.701
243.045	27.880	1197.189	960.291
244.059	27.958	1196.479	960.046
245.074	27.875	1195.604	958.827
246.088	27.970	1195.132	958.861
247.103	27.973	1194.095	957.960
248.117	27.906	1193.295	956.883
249.132	27.872	1192.956	956.346
250.147	27.950	1192.028	955.928
251.161	27.972	1191.334	955.399
252.176	28.050	1190.342	954.926
253.190	28.083	1189.933	954.690
254.205	27.916	1189.541	953.416
255.220	27.900	1189.143	952.932
256.234	28.003	1188.271	952.686
257.249	28.071	1187.185	952.085
258.263	27.946	1187.067	951.251
259.278	27.961	1186.845	951.071
260.293	28.011	1185.948	950.527
261.307	28.056	1185.827	950.577
262.322	28.001	1185.103	949.629
263.336	27.987	1184.157	948.716
264.351	28.034	1184.072	948.804
265.366	28.039	1182.949	947.848
266.380	28.008	1182.377	947.144
267.395	28.109	1181.972	947.260
268.409	27.959	1181.552	946.065
269.424	28.026	1180.817	945.737
270.439	28.100	1180.335	945.653
271.453	28.174	1179.207	945.044
272.468	27.992	1178.709	943.625
273.482	28.035	1177.682	942.939
274.497	28.058	1177.733	943.014
275.512	28.160	1177.034	942.896
276.526	28.184	1176.083	942.175
277.541	28.203	1175.484	941.709
278.555	28.207	1174.958	941.224
279.570	28.268	1173.968	940.664
280.585	28.143	1173.316	939.413
281.599	28.138	1172.690	938.804
282.614	28.181	1171.293	937.824
283.628	28.172	1170.739	937.252
284.643	28.200	1169.931	936.666
285.657	28.311	1168.818	936.260
286.672	28.239	1168.102	935.233
287.687	28.241	1167.594	934.756
288.701	28.362	1166.699	934.573
289.716	28.266	1165.920	933.380
290.730	28.250	1165.929	933.223
291.745	28.301	1165.053	932.699
292.760	28.395	1164.075	932.308
293.774	28.270	1163.836	931.399
294.789	28.304	1163.642	931.334
295.803	28.316	1162.880	930.705
296.818	28.255	1162.124	929.707
297.833	28.456	1160.977	929.728
298.847	28.294	1160.726	928.620
299.862	28.407	1159.756	928.337
300.876	28.419	1159.798	928.347
301.891	28.403	1158.744	927.340
302.906	28.443	1158.151	926.986
303.920	28.387	1157.297	925.938
304.935	28.364	1157.041	925.534
305.949	28.420	1156.090	924.977
306.964	28.414	1155.489	924.382
307.979	28.473	1155.028	924.227
308.993	28.506	1154.111	923.578
310.008	28.469	1153.668	922.958
311.022	28.486	1153.041	922.461
312.037	28.508	1152.122	921.753
313.052	28.470	1151.196	920.738
314.066	28.603	1150.247	920.569
315.081	28.528	1149.473	919.489
316.095	28.467	1149.196	918.880
317.110	28.518	1148.744	918.695
318.125	28.437	1148.244	917.808
319.139	28.517	1147.258	917.337
320.154	28.594	1146.806	917.282
321.168	28.571	1146.614	916.932
322.183	28.586	1145.649	916.153
323.197	28.573	1144.950	915.447
324.212	28.585	1144.497	915.064
325.227	28.547	1144.292	914.632
326.241	28.708	1143.270	914.534
327.256	28.594	1142.804	913.512
328.270	28.560	1141.880	912.523
329.285	28.635	1140.917	912.047
330.300	28.692	1140.634	912.021
331.314	28.742	1139.298	911.124
332.329	28.656	1138.694	910.133
333.343	28.855	1138.045	910.520
334.358	28.644	1137.419	908.890
335.373	28.799	1136.429	908.787
336.387	28.766	1136.147	908.319
337.402	28.750	1135.353	907.523
338.416	28.795	1134.882	907.288
339.431	28.825	1133.711	906.424
340.446	28.728	1133.883	906.001
341.460	28.793	1133.253	905.738
342.475	28.872	1131.962	905.016
343.489	28.767	1131.385	903.956
344.504	28.764	1130.942	903.506
345.519	28.950	1129.517	903.201
346.533	28.941	1128.340	902.136
347.548	28.885	1128.280	901.738
348.562	28.783	1127.866	900.822
349.577	28.917	1126.425	900.251
350.592	28.717	1126.154	898.973
351.606	28.730	1125.573	898.495
352.621	28.890	1125.086	898.810
353.635	28.920	1124.261	898.218
354.650	28.927	1123.815	897.816
355.665	28.920	1122.960	897.018
356.679	28.940	1122.351	896.549
357.694	28.988	1121.895	896.341
358.708	29.070	1121.005	895.950
359.723	28.911	1120.592	894.768
360.738	29.045	1119.441	894.418
361.752	28.993	1119.533	894.162
362.767	28.959	1118.940	893.444
363.781	29.058	1118.318	893.348
364.796	29.062	1117.652	892.756
365.810	29.136	1116.810	892.364
366.825	29.089	1116.729	891.991
367.840	29.217	1115.969	891.926
368.854	29.081	1115.591	890.885
369.869	29.146	1114.873	890.550
370.883	29.150	1113.902	889.714
371.898	29.098	1113.345	888.940
372.913	29.212	1112.418	888.669
373.927	29.058	1112.575	887.974
374.942	29.252	1111.815	888.222
375.956	29.224	1111.036	887.389
376.971	29.213	1110.554	886.870
377.986	29.246	1109.776	886.329
379.000	29.277	1109.355	886.067
380.015	29.215	1108.970	885.379
381.029	29.257	1108.311	884.978
382.044	29.215	1107.660	884.180
383.059	29.359	1106.812	884.112
384.073	29.388	1106.129	883.627
385.088	29.369	1105.365	882.849
386.102	29.337	1104.641	882.040
387.117	29.336	1103.727	881.225
388.132	29.233	1103.260	880.286
389.146	29.196	1102.448	879.384
390.161	29.375	1101.990	879.792
391.175	29.354	1101.472	879.202
392.190	29.265	1100.492	877.916
393.205	29.462	1100.083	878.452
394.219	29.380	1099.330	877.380
395.234	29.358	1098.476	876.521
396.248	29.407	1097.487	875.885
397.263	29.414	1096.988	875.440
398.278	29.439	1096.162	874.823
399.292	29.562	1095.801	875.044
400.307	29.459	1095.217	874.009
401.321	29.464	1094.697	873.539
402.336	29.563	1093.928	873.318
403.350	29.591	1092.747	872.428
404.365	29.542	1092.308	871.770
405.380	29.634	1091.493	871.478
406.394	29.630	1091.079	871.050
407.409	29.638	1090.390	870.459
408.423	29.752	1089.446	870.170
409.438	29.651	1089.250	869.461
410.453	29.644	1088.163	868.481
411.467	29.658	1087.206	867.706
412.482	29.623	1086.855	867.184
413.496	29.569	1086.713	866.742
414.511	29.760	1085.844	866.869
415.526	29.738	1085.265	866.225
416.540	29.708	1085.135	865.906
417.555	29.700	1084.176	865.023
418.569	29.739	1083.863	864.883
419.584	29.732	1083.540	864.515
420.599	29.682	1083.171	863.908
421.613	104.514	1321.706	1458.393
422.628	97.248	1356.449	1458.514
