DTS Sentinel unit serial number:	SN413079Multiplexer serial number:	ORYXHardware model number:	OX4-SRSoftware version number:	ORYX F/W v4.00 Oryx Data Collector v3.7.2.0data status	okinstallation	princeton_trtdifferential loss correction	single-endedforward channel	channel 2reverse channel	N/Adate	2019/09/12time	04:45:11forward acquisition time	60.00reverse acquisition time	0.00gamma	496.2192k internal	0.2327k external	0.2327temperature offset calibration	1.0111default loss term (dB/km)	0.3790temperature slope calibration	1.0000multiplexer offset coefficient	1.0000multiplexer slope coefficient	1.0000fibre end	0.00T internal ref (°C)	31.62T ext. ref 1 (°C)	2.28T ext. ref 2 (°C)	27.26length (m)	temperature (°C)	Stokes	anti-Stokes-747.200	-98.571	0.058	0.015
-746.185	182.224	-0.225	0.335
-745.171	-127.720	-0.351	0.051
-744.156	60.333	0.237	0.237
-743.142	-45.417	0.154	-0.077
-742.127	800.000	0.022	0.068
-741.112	-34.156	0.443	-0.245
-740.098	-71.892	-0.241	0.091
-739.083	-45.651	0.344	0.172
-738.069	800.000	0.037	0.149
-737.054	-86.800	0.144	-0.044
-736.039	-13.283	-0.307	-0.201
-735.025	-35.176	0.103	0.057
-734.010	800.000	-0.082	-0.320
-732.996	550.279	-0.102	-0.248
-731.981	-85.710	-0.559	-0.175
-730.966	800.000	-0.102	-0.310
-729.952	33.099	-0.042	-0.036
-728.937	-200.000	-0.002	0.022
-727.923	-200.000	-0.046	0.217
-726.908	73.781	0.198	-0.210
-725.894	-200.000	0.017	-0.350
-724.879	-114.615	-0.094	-0.018
-723.864	8.181	-0.215	-0.163
-722.850	-16.510	0.190	0.121
-721.835	87.764	0.029	0.032
-720.821	-200.000	0.034	-0.218
-719.806	-59.421	0.114	0.049
-718.791	-51.112	-0.246	0.116
-717.777	92.316	-0.070	0.080
-716.762	268.500	-0.140	0.247
-715.748	-61.257	-0.020	-0.008
-714.733	-136.438	-0.112	0.013
-713.718	-145.646	-0.202	0.018
-712.704	422.178	0.090	-0.194
-711.689	78.728	-0.067	-0.072
-710.675	558.216	0.061	0.147
-709.660	78.323	-0.149	-0.161
-708.645	123.798	0.118	-0.149
-707.631	-200.000	-0.021	-0.284
-706.616	-22.610	-0.275	-0.167
-705.602	23.488	-0.274	0.227
-704.587	-145.518	-0.458	-0.041
-703.572	421.035	-0.099	-0.213
-702.558	-42.762	-0.189	0.097
-701.543	332.610	0.229	0.445
-700.529	-200.000	-0.021	-0.144
-699.514	-111.589	0.088	0.018
-698.499	-167.172	-0.119	-0.005
-697.485	-189.832	-0.485	-0.006
-696.470	-200.000	-0.059	-0.282
-695.456	800.000	0.176	-0.520
-694.441	-163.127	-0.188	0.009
-693.426	262.799	0.017	-0.030
-692.412	2.965	0.146	0.107
-691.397	-200.000	-0.036	-0.307
-690.383	40.656	-0.190	-0.172
-689.368	379.543	-0.097	-0.200
-688.354	58.002	-0.108	-0.107
-687.339	-65.726	0.135	-0.055
-686.324	-200.000	-0.002	0.092
-685.310	800.000	-0.031	0.091
-684.295	178.061	-0.115	-0.168
-683.281	-88.384	0.094	0.028
-682.266	-200.000	0.029	0.348
-681.251	192.721	-0.224	-0.341
-680.237	-200.000	-0.018	0.090
-679.222	-200.000	0.004	0.223
-678.208	800.000	-0.034	0.136
-677.193	459.621	-0.104	-0.233
-676.178	-200.000	0.040	-0.294
-675.164	-77.739	0.397	-0.138
-674.149	151.420	0.153	0.210
-673.135	800.000	0.045	0.161
-672.120	-83.033	0.319	0.103
-671.105	800.000	-0.039	0.136
-670.091	436.764	-0.087	-0.191
-669.076	290.382	-0.077	-0.140
-668.062	377.151	0.028	0.058
-667.047	-126.097	-0.089	-0.013
-666.032	-200.000	0.012	-0.228
-665.018	-55.947	-0.425	0.191
-664.003	545.511	-0.087	0.208
-662.989	122.914	-0.250	-0.315
-661.974	232.652	0.119	0.197
-660.959	234.277	0.051	0.084
-659.945	800.000	0.057	-0.246
-658.930	-97.173	-0.268	-0.070
-657.916	48.881	0.105	0.099
-656.901	-45.711	-0.237	-0.118
-655.886	278.597	0.156	-0.279
-654.872	504.578	-0.070	0.163
-653.857	-200.000	0.009	-0.207
-652.843	-164.685	-0.466	-0.021
-651.828	-0.327	-0.182	-0.130
-650.814	-84.366	-0.295	-0.094
-649.799	12.266	-0.102	-0.079
-648.784	156.582	0.081	-0.113
-647.770	-200.000	-0.033	0.675
-646.755	-68.347	0.095	0.037
-645.741	68.457	-0.189	0.195
-644.726	133.496	-0.214	-0.278
-643.711	384.519	0.106	-0.220
-642.697	-200.000	0.006	0.077
-641.682	-24.405	-0.102	0.061
-640.668	-52.540	-0.060	0.028
-639.653	163.715	0.084	-0.118
-638.638	-42.859	0.266	-0.136
-637.624	-200.000	0.047	0.258
-636.609	-10.908	-0.058	0.039
-635.595	800.000	-0.076	-0.278
-634.580	24.334	0.153	-0.127
-633.565	225.726	0.133	0.216
-632.551	127.705	-0.140	0.179
-631.536	45.439	0.283	-0.262
-630.522	-200.000	-0.062	-0.514
-629.507	-125.886	0.068	-0.010
-628.492	-153.458	-0.292	0.020
-627.478	88.706	-0.121	-0.134
-626.463	-200.000	-0.070	-0.376
-625.449	143.611	-0.165	-0.220
-624.434	-52.027	-0.097	-0.045
-623.419	-145.398	-0.277	-0.025
-622.405	-74.599	0.349	-0.126
-621.390	65.649	-0.246	-0.250
-620.376	131.519	-0.175	-0.226
-619.361	-131.525	-0.123	0.016
-618.346	-10.397	-0.068	0.045
-617.332	0.766	-0.233	-0.167
-616.317	-110.928	-0.327	0.068
-615.303	-83.399	0.327	-0.105
-614.288	-200.000	0.033	-0.209
-613.273	671.675	0.096	0.250
-612.259	-200.000	0.022	-0.200
-611.244	-85.396	-0.230	0.072
-610.230	-16.646	-0.177	0.112
-609.215	-153.735	-0.328	0.023
-608.201	-130.461	0.271	0.037
-607.186	-200.000	-0.012	0.097
-606.171	-106.315	-0.185	-0.042
-605.157	119.473	-0.140	-0.174
-604.142	12.059	-0.395	0.305
-603.128	565.707	0.157	-0.382
-602.113	366.405	0.110	-0.222
-601.098	-194.019	-0.292	0.002
-600.084	-100.571	0.187	-0.046
-599.069	61.565	0.131	0.131
-598.055	-22.791	0.121	0.073
-597.040	120.003	-0.087	-0.109
-596.025	800.000	0.050	-0.159
-595.011	-200.000	-0.015	0.209
-593.996	-51.438	-0.316	0.148
-592.982	243.794	0.155	-0.261
-591.967	-136.470	-0.203	0.024
-590.952	-53.372	0.085	0.039
-589.938	191.822	0.024	-0.037
-588.923	-200.000	-0.033	-0.247
-587.909	189.768	-0.080	0.120
-586.894	227.378	0.017	0.027
-585.879	194.453	0.097	0.147
-584.865	438.984	0.037	0.082
-583.850	-88.655	0.338	-0.101
-582.836	-103.505	0.430	-0.101
-581.821	-171.996	0.216	-0.007
-580.806	295.937	-0.050	0.092
-579.792	227.350	0.086	-0.140
-578.777	0.893	0.183	0.131
-577.763	421.922	-0.197	-0.423
-576.748	-200.000	0.038	-0.268
-575.733	-133.888	0.115	0.014
-574.719	-200.000	-0.051	-0.334
-573.704	-200.000	0.015	-0.088
-572.690	800.000	-0.027	0.092
-571.675	-158.504	0.247	-0.014
-570.661	-200.000	-0.066	-0.689
-569.646	109.227	0.059	-0.071
-568.631	-200.000	0.062	0.386
-567.617	-200.000	0.001	0.358
-566.602	-97.692	0.380	-0.099
-565.588	245.698	0.175	0.296
-564.573	141.451	-0.101	-0.134
-563.558	2.421	0.283	-0.205
-562.544	-48.407	0.109	-0.053
-561.529	138.155	-0.133	0.175
-560.515	800.000	-0.102	-0.342
-559.500	800.000	-0.013	0.036
-558.485	-200.000	0.074	-0.344
-557.471	91.532	-0.205	0.230
-556.456	93.936	-0.077	0.087
-555.442	237.783	-0.321	0.533
-554.427	96.119	0.118	0.135
-553.412	800.000	-0.098	-0.288
-552.398	-38.149	0.270	-0.143
-551.383	-200.000	0.044	0.234
-550.369	-79.835	-0.187	0.063
-549.354	75.507	-0.079	0.084
-548.339	-76.032	0.356	-0.126
-547.325	155.718	0.044	-0.061
-546.310	-200.000	0.008	0.085
-545.296	88.746	-0.161	0.179
-544.281	437.495	0.066	0.144
-543.266	240.636	0.082	0.137
-542.252	800.000	0.072	-0.305
-541.237	-200.000	-0.121	-0.624
-540.223	-200.000	-0.009	0.197
-539.208	-63.799	-0.190	0.078
-538.193	-59.414	0.079	-0.034
-537.179	529.455	-0.117	0.276
-536.164	-200.000	-0.003	-0.120
-535.150	-200.000	-0.016	0.230
-534.135	134.323	0.183	-0.237
-533.121	-200.000	-0.010	0.156
-532.106	190.548	-0.114	0.172
-531.091	-200.000	0.024	0.223
-530.077	297.707	0.009	0.016
-529.062	800.000	0.088	-0.290
-528.048	-200.000	-0.010	-0.277
-527.033	65.366	0.129	-0.131
-526.018	-27.720	0.204	-0.118
-525.004	-200.000	-0.310	-0.000
-523.989	-198.447	-0.216	0.001
-522.975	-6.525	0.224	-0.152
-521.960	-155.464	0.222	-0.014
-520.945	58.577	-0.213	0.209
-519.931	18.892	-0.145	0.116
-518.916	800.000	0.077	0.285
-517.902	-125.011	0.137	0.021
-516.887	133.571	-0.273	-0.353
-515.872	19.532	0.252	0.202
-514.858	725.402	0.067	0.179
-513.843	-45.602	0.204	0.101
-512.829	9.627	-0.114	0.086
-511.814	-200.000	-0.033	0.236
-510.799	185.574	0.045	0.067
-509.785	-96.037	-0.149	-0.040
-508.770	-5.052	-0.114	-0.079
-507.756	-200.000	-0.024	-0.313
-506.741	-131.828	0.206	0.027
-505.726	-25.569	0.061	0.036
-504.712	800.000	0.051	0.211
-503.697	213.962	0.093	0.146
-502.683	-55.061	0.208	0.094
-501.668	-74.147	-0.576	-0.208
-500.653	800.000	-0.080	-0.269
-499.639	45.862	-0.148	0.137
-498.624	158.892	0.082	-0.113
-497.610	-200.000	0.315	-0.001
-496.595	4.729	0.132	-0.097
-495.581	617.523	0.044	-0.111
-494.566	596.596	0.067	0.165
-493.551	565.795	-0.070	0.169
-492.537	-60.479	0.320	-0.136
-491.522	-89.439	-0.175	-0.051
-490.508	80.892	-0.096	-0.103
-489.493	-96.495	0.092	0.024
-488.478	322.358	-0.024	-0.046
-487.464	800.000	-0.048	0.163
-486.449	-68.894	-0.449	0.173
-485.435	449.097	-0.043	0.094
-484.420	-171.461	-0.207	-0.007
-483.405	-143.744	-0.274	0.026
-482.391	-11.076	0.123	0.081
-481.376	363.171	-0.021	-0.043
-480.362	-16.638	-0.178	0.112
-479.347	56.277	0.045	0.043
-478.332	-200.000	0.019	0.161
-477.318	70.218	-0.346	-0.357
-476.303	150.159	0.137	0.185
-475.289	169.993	-0.189	-0.269
-474.274	287.822	0.037	0.067
-473.259	-200.000	0.046	-0.213
-472.245	508.348	-0.075	0.173
-471.230	-27.535	-0.136	-0.079
-470.216	540.113	0.054	0.127
-469.201	-102.607	0.161	0.038
-468.186	-131.077	0.510	0.068
-467.172	-95.246	0.172	-0.046
-466.157	-80.046	-0.180	0.060
-465.143	-47.840	-0.167	-0.081
-464.128	470.915	0.129	-0.290
-463.113	108.071	0.205	0.244
-462.099	366.886	0.095	0.191
-461.084	-200.000	0.011	-0.159
-460.070	-200.000	-0.001	-0.106
-459.055	-169.091	0.426	0.016
-458.040	42.517	0.081	0.073
-457.026	-200.000	0.006	0.075
-456.011	14.588	0.088	0.068
-454.997	63.115	-0.093	-0.092
-453.982	-200.000	0.003	-0.061
-452.968	-200.000	-0.059	-0.409
-451.953	-68.209	-0.112	0.043
-450.938	-64.110	0.209	-0.085
-449.924	-78.423	0.111	-0.038
-448.909	-97.182	-0.087	-0.023
-447.895	-200.000	0.041	0.384
-446.880	340.873	0.151	0.294
-445.865	-200.000	-0.097	-0.431
-444.851	-21.168	-0.300	-0.183
-443.836	0.485	-0.120	0.085
-442.822	83.310	-0.130	0.141
-441.807	-17.221	0.083	0.052
-440.792	195.298	-0.104	0.157
-439.778	-50.119	0.166	-0.078
-438.763	62.869	-0.107	0.107
-437.749	93.488	-0.136	-0.153
-436.734	-200.000	0.000	0.015
-435.719	-8.862	-0.320	-0.214
-434.705	-116.711	0.319	0.058
-433.690	-96.815	0.132	-0.035
-432.676	19.038	0.128	-0.102
-431.661	207.904	-0.153	-0.238
-430.646	-17.773	-0.086	-0.054
-429.632	107.973	-0.097	-0.115
-428.617	-200.000	-0.009	-0.097
-427.603	800.000	0.051	-0.143
-426.588	-200.000	0.034	-0.191
-425.573	-200.000	0.008	0.150
-424.559	206.310	0.158	0.244
-423.544	-150.826	-0.227	-0.017
-422.530	31.364	0.329	-0.281
-421.515	-40.019	0.318	-0.165
-420.500	-74.202	0.189	-0.068
-419.486	200.277	-0.128	-0.196
-418.471	-200.000	-0.016	0.220
-417.457	-174.300	0.326	-0.009
-416.442	-65.376	-0.283	-0.113
-415.428	-125.768	-0.205	-0.031
-414.413	800.000	0.074	0.254
-413.398	14.404	-0.267	0.207
-412.384	-200.000	-0.049	0.268
-411.369	-48.584	0.145	-0.069
-410.355	705.370	0.092	0.241
-409.340	-116.183	-0.177	0.033
-408.325	-36.580	0.345	-0.185
-407.311	-75.494	-0.172	-0.061
-406.296	-200.000	-0.027	0.134
-405.282	-200.000	0.021	-0.220
-404.267	-200.000	-0.023	-0.164
-403.252	-150.862	0.144	-0.011
-402.238	-16.634	0.067	-0.042
-401.223	-10.342	0.078	-0.052
-400.209	-31.121	0.291	0.163
-399.194	449.373	0.127	-0.279
-398.179	-141.754	0.142	-0.014
-397.165	-200.000	0.032	0.197
-396.150	-15.020	-0.275	0.175
-395.136	-103.114	-0.333	0.079
-394.121	571.139	-0.081	0.196
-393.106	-114.815	-0.163	-0.031
-392.092	439.497	0.161	0.349
-391.077	-200.000	0.000	0.005
-390.063	244.890	-0.110	-0.183
-389.048	135.577	-0.093	-0.120
-388.033	240.607	-0.135	-0.224
-387.019	-20.330	0.129	-0.079
-386.004	-61.183	0.069	0.029
-384.990	197.253	-0.151	-0.229
-383.975	-72.365	-0.058	-0.021
-382.960	-45.332	0.500	0.247
-381.946	153.656	-0.116	-0.158
-380.931	800.000	0.060	-0.187
-379.917	-200.000	0.002	0.148
-378.902	-35.055	0.133	0.072
-377.888	-136.869	0.110	-0.013
-376.873	-200.000	0.063	-0.350
-375.858	-200.000	0.065	0.424
-374.844	-63.086	-0.233	0.095
-373.829	-103.716	0.137	0.032
-372.815	-200.000	-0.079	0.362
-371.800	59.713	-0.238	0.233
-370.785	117.468	-0.099	-0.121
-369.771	-87.295	-0.346	0.104
-368.756	800.000	-0.031	0.116
-367.742	424.185	0.127	0.272
-366.727	-55.079	-0.383	0.171
-365.712	-70.257	0.254	-0.096
-364.698	-147.462	-0.229	0.019
-363.683	-34.837	-0.336	-0.182
-362.669	31.305	-0.175	0.149
-361.654	-27.676	-0.072	0.041
-360.639	-200.000	0.055	-0.481
-359.625	150.051	-0.124	0.167
-358.610	-200.000	0.023	0.258
-357.596	-18.330	0.570	-0.354
-356.581	77.711	0.093	0.099
-355.566	279.816	-0.223	0.396
-354.552	36.709	0.172	-0.151
-353.537	-137.322	-0.137	0.015
-352.523	-55.070	0.119	0.053
-351.508	800.000	-0.079	-0.246
-350.493	-80.515	0.216	0.071
-349.479	-199.275	-0.132	-0.001
-348.464	-117.724	-0.175	0.031
-347.450	-55.365	0.382	-0.170
-346.435	458.750	0.035	0.077
-345.420	265.155	-0.204	0.352
-344.406	-98.280	-0.104	0.027
-343.391	-144.942	0.415	0.038
-342.377	800.000	-0.014	-0.046
-341.362	-200.000	-0.004	0.205
-340.348	134.621	-0.111	-0.143
-339.333	-53.163	-0.170	-0.077
-338.318	-45.939	0.257	0.126
-337.304	160.186	0.197	0.273
-336.289	-145.299	0.146	-0.013
-335.275	-200.000	0.020	0.342
-334.260	14.541	0.342	-0.265
-333.245	590.585	-0.120	0.294
-332.231	-200.000	-0.001	0.373
-331.216	-51.137	-0.126	-0.058
-330.202	61.396	-0.113	-0.111
-329.187	-87.294	0.074	-0.022
-328.172	-115.631	0.135	0.025
-327.158	-87.813	0.250	0.075
-326.143	65.646	0.169	0.170
-325.129	-198.465	-0.297	0.002
-324.114	-48.509	0.016	0.008
-323.099	-153.307	0.154	-0.011
-322.085	110.346	-0.208	0.248
-321.070	-86.018	-0.353	-0.108
-320.056	-136.306	-0.282	0.033
-319.041	-41.301	-0.240	-0.123
-318.026	800.000	-0.101	0.378
-317.012	17.337	-0.226	0.178
-315.997	-87.637	0.126	0.038
-314.983	104.699	-0.337	0.393
-313.968	-98.818	0.313	0.079
-312.953	-200.000	-0.039	-0.295
-311.939	-17.677	0.306	-0.190
-310.924	-200.000	0.024	-0.224
-309.910	-141.474	0.256	0.026
-308.895	-200.000	0.008	0.154
-307.880	329.224	0.054	-0.103
-306.866	266.131	0.123	0.212
-305.851	800.000	0.060	0.168
-304.837	19.785	0.250	0.199
-303.822	68.779	0.353	0.359
-302.807	-200.000	0.055	0.313
-301.793	150.549	-0.091	0.123
-300.778	63.430	0.096	-0.095
-299.764	-51.274	0.287	-0.133
-298.749	-200.000	0.061	-0.376
-297.735	106.936	-0.139	-0.164
-296.720	-200.000	0.025	-0.110
-295.705	19.887	0.180	-0.144
-294.691	-178.407	-0.124	0.003
-293.676	-184.311	-0.212	-0.003
-292.662	800.000	-0.029	0.110
-291.647	599.125	0.067	-0.164
-290.632	3.402	0.195	0.141
-289.618	-30.307	-0.192	0.108
-288.603	-200.000	-0.003	-0.043
-287.589	-200.000	0.024	0.198
-286.574	800.000	0.029	0.081
-285.559	-155.040	0.098	0.006
-284.545	-200.000	-0.006	0.210
-283.530	-56.485	-0.109	0.048
-282.516	55.104	-0.275	-0.263
-281.501	-71.514	0.291	0.108
-280.486	58.378	-0.228	0.221
-279.472	245.992	-0.140	0.234
-278.457	-110.180	-0.528	-0.109
-277.443	58.572	-0.092	-0.089
-276.428	372.289	0.140	0.282
-275.413	253.095	-0.134	-0.226
-274.399	-116.115	0.149	-0.027
-273.384	87.442	-0.090	0.099
-272.370	800.000	0.079	0.234
-271.355	-39.186	-0.210	0.109
-270.340	-200.000	0.002	0.201
-269.326	394.542	0.159	0.328
-268.311	-102.211	-0.205	-0.049
-267.297	-200.000	0.036	-0.191
-266.282	105.351	-0.031	-0.036
-265.267	-38.257	0.284	0.149
-264.253	-137.699	-0.079	0.009
-263.238	71.358	-0.114	-0.117
-262.224	-118.344	-0.110	-0.019
-261.209	-34.875	-0.336	-0.181
-260.195	-200.000	0.018	0.086
-259.180	800.000	0.041	0.146
-258.165	-78.433	0.301	-0.102
-257.151	194.944	-0.121	-0.181
-256.136	-2.539	0.093	0.064
-255.122	-116.181	-0.146	-0.027
-254.107	104.943	-0.118	-0.137
-253.092	-119.275	0.351	-0.060
-252.078	800.000	0.027	0.075
-251.063	-134.499	-0.223	0.027
-250.049	352.187	-0.028	0.055
-249.034	800.000	0.042	-0.171
-248.019	800.000	-0.046	-0.166
-247.005	103.164	-0.123	-0.142
-245.990	289.167	0.107	0.191
-244.976	-81.218	-0.222	0.072
-243.961	338.451	0.155	0.299
-242.946	7.888	0.101	0.075
-241.932	-70.188	0.174	0.066
-240.917	-64.883	-0.204	-0.082
-239.903	-200.000	0.047	0.236
-238.888	6.313	-0.111	0.082
-237.873	257.609	0.160	-0.272
-236.859	-74.636	0.246	0.087
-235.844	-17.656	0.061	0.038
-234.830	-98.205	0.212	0.054
-233.815	800.000	-0.076	0.277
-232.800	302.508	-0.035	-0.063
-231.786	800.000	-0.035	-0.138
-230.771	-111.093	-0.224	-0.045
-229.757	800.000	0.082	-0.258
-228.742	-160.539	-0.044	0.002
-227.727	46.510	0.126	-0.116
-226.713	800.000	0.051	0.196
-225.698	318.010	-0.122	-0.227
-224.684	18.517	0.131	-0.104
-223.669	-30.731	-0.064	0.036
-222.655	-43.275	-0.136	0.068
-221.640	800.000	-0.090	0.308
-220.625	192.329	-0.097	-0.145
-219.611	150.843	-0.125	-0.168
-218.596	77.248	-0.234	0.246
-217.582	289.753	-0.062	-0.112
-216.567	-200.000	0.040	-0.352
-215.552	800.000	-0.037	-0.114
-214.538	12.074	-0.252	-0.192
-213.523	-116.387	0.130	0.024
-212.509	-200.000	0.015	0.071
-211.494	800.000	-0.031	0.091
-210.479	-82.033	0.321	0.104
-209.465	170.355	0.123	-0.173
-208.450	-132.584	-0.148	0.019
-207.436	38.885	0.127	0.112
-206.421	134.019	-0.073	0.093
-205.406	-200.000	-0.012	0.089
-204.392	-200.000	0.048	-0.305
-203.377	65.919	0.112	0.113
-202.363	-55.013	0.244	-0.109
-201.348	62.788	0.002	0.002
-200.333	4.708	0.087	0.063
-199.319	800.000	0.051	-0.209
-198.304	-200.000	-0.097	-0.454
-197.290	-50.233	-0.406	-0.189
-196.275	-24.930	0.287	0.168
-195.260	800.000	0.119	0.339
-194.246	352.987	0.085	-0.167
-193.231	167.054	-0.152	-0.214
-192.217	-92.194	0.234	-0.065
-191.202	42.357	-0.106	-0.095
-190.187	-43.097	0.155	-0.077
-189.173	82.813	0.121	-0.130
-188.158	-2.390	-0.264	0.182
-187.144	-78.999	-0.210	0.070
-186.129	736.752	-0.134	0.355
-185.114	58.967	-0.066	0.064
-184.100	800.000	-0.101	0.326
-183.085	230.405	0.144	0.232
-182.071	-23.282	0.169	-0.100
-181.056	-139.308	0.119	-0.013
-180.042	-36.235	-0.240	0.128
-179.027	-68.867	0.109	0.041
-178.012	17.535	0.092	-0.072
-176.998	-102.257	0.040	0.010
-175.983	-85.421	-0.093	-0.029
-174.969	-120.800	-0.186	-0.031
-173.954	-200.000	-0.009	0.152
-172.939	-22.625	0.098	0.059
-171.925	-200.000	0.006	-0.393
-170.910	-15.995	-0.230	-0.144
-169.896	-124.579	0.198	-0.030
-168.881	35.736	-0.242	-0.210
-167.866	3.468	0.058	0.042
-166.852	-162.380	-0.351	-0.017
-165.837	-13.100	-0.211	-0.135
-164.823	800.000	-0.174	-0.502
-163.808	655.896	-0.055	0.138
-162.793	-0.645	0.102	0.071
-161.779	-43.917	0.359	-0.178
-160.764	124.995	0.204	0.254
-159.750	412.279	0.094	0.196
-158.735	800.000	0.054	0.186
-157.720	246.288	0.050	0.083
-156.706	767.996	-0.081	-0.218
-155.691	-200.000	0.009	0.119
-154.677	-164.272	0.136	0.006
-153.662	154.117	-0.132	-0.178
-152.647	67.661	0.230	-0.231
-151.633	-34.764	0.137	0.074
-150.618	800.000	-0.096	0.307
-149.604	134.019	0.090	0.115
-148.589	346.664	-0.071	0.138
-147.574	-200.000	-0.016	0.107
-146.560	22.168	0.197	0.159
-145.545	-133.113	-0.199	-0.025
-144.531	5.239	0.121	0.088
-143.516	174.640	-0.165	0.236
-142.502	-161.967	-0.404	0.020
-141.487	-36.762	-0.054	0.028
-140.472	800.000	0.073	0.213
-139.458	-168.650	-0.347	-0.013
-138.443	451.797	-0.033	0.072
-137.429	-117.143	-0.044	0.008
-136.414	-200.000	0.012	-0.156
-135.399	-53.556	0.082	-0.037
-134.385	-74.926	-0.226	-0.080
-133.370	44.729	-0.093	0.084
-132.356	-67.150	-0.131	-0.051
-131.341	757.246	0.021	0.055
-130.326	333.812	0.117	-0.223
-129.312	-65.750	-0.249	0.098
-128.297	-138.128	0.077	-0.008
-127.283	-109.790	0.258	-0.053
-126.268	-152.782	0.220	0.015
-125.253	-35.940	-0.204	-0.109
-124.239	294.114	0.077	-0.139
-123.224	-82.184	-0.180	-0.058
-122.210	7.918	0.116	0.086
-121.195	800.000	0.044	-0.183
-120.180	29.177	-0.244	-0.204
-119.166	186.817	0.058	-0.085
-118.151	-3.985	-0.149	0.102
-117.137	-200.000	0.029	-0.226
-116.122	-200.000	0.002	0.231
-115.107	19.161	0.207	-0.164
-114.093	-41.179	-0.175	-0.089
-113.078	-200.000	0.005	-0.149
-112.064	800.000	0.118	0.419
-111.049	-112.375	-0.140	0.028
-110.034	-200.000	-0.001	0.154
-109.020	-200.000	-0.033	-0.307
-108.005	-34.865	0.044	0.024
-106.991	-128.684	-0.191	-0.026
-105.976	-200.000	-0.003	-0.319
-104.962	22.295	-0.140	0.112
-103.947	-113.875	-0.271	0.052
-102.932	62.784	0.205	0.202
-101.918	-150.994	0.105	0.008
-100.903	-200.000	0.036	0.391
-99.889	-52.968	0.120	0.054
-98.874	-200.000	0.027	-0.190
-97.859	28.697	-0.258	0.215
-96.845	800.000	0.023	0.087
-95.830	206.163	-0.265	-0.405
-94.816	-200.000	-0.052	0.253
-93.801	-200.000	-0.008	0.285
-92.786	-200.000	0.037	-0.239
-91.772	691.587	0.126	-0.324
-90.757	-131.156	0.446	-0.058
-89.743	-200.000	-0.041	0.220
-88.728	-200.000	-0.032	0.266
-87.713	-61.821	0.251	0.103
-86.699	-172.816	-0.118	-0.004
-85.684	-200.000	0.068	-0.361
-84.670	800.000	0.033	0.113
-83.655	-200.000	0.026	0.187
-82.640	20.149	0.273	-0.216
-81.626	800.000	0.091	-0.294
-80.611	267.778	0.134	0.230
-79.597	-200.000	0.063	0.334
-78.582	-152.429	0.184	-0.013
-77.567	-70.519	-0.058	0.022
-76.553	-175.604	-0.029	-0.001
-75.538	104.787	0.210	0.243
-74.524	-200.000	0.018	-0.242
-73.509	-200.000	0.047	0.251
-72.494	128.490	-0.187	-0.234
-71.480	47.615	-0.138	-0.126
-70.465	362.851	0.226	-0.446
-69.451	-104.053	-0.137	-0.031
-68.436	-105.164	-0.238	-0.053
-67.422	800.000	-0.078	0.229
-66.407	-200.000	-0.025	0.389
-65.392	-77.843	-0.134	0.045
-64.378	-92.522	-0.146	-0.040
-63.363	-200.000	-0.021	-0.311
-62.349	-159.691	0.381	-0.021
-61.334	19.206	-0.945	-0.744
-60.319	-107.345	0.426	0.092
-59.305	360.699	-0.294	-0.579
-58.290	800.000	0.318	1.298
-57.276	305.440	0.841	1.534
-56.261	-200.000	96.801	598.154
-55.246	557.721	1370.540	3243.701
-54.232	161.446	2556.964	3510.376
-53.217	106.337	2263.128	2632.150
-52.203	40.974	1891.215	1675.557
-51.188	34.936	1681.477	1444.262
-50.173	32.213	1637.654	1386.511
-49.159	50.120	1684.933	1560.843
-48.144	51.583	1701.564	1587.122
-47.130	34.467	1661.576	1423.443
-46.115	31.744	1647.813	1391.407
-45.100	31.565	1643.197	1386.125
-44.086	31.537	1640.100	1383.255
-43.071	31.464	1637.286	1380.289
-42.057	31.600	1635.107	1379.400
-41.042	31.597	1633.108	1377.631
-40.027	31.506	1631.558	1375.606
-39.013	31.509	1629.433	1373.776
-37.998	31.470	1628.003	1372.234
-36.984	31.512	1626.557	1371.264
-35.969	31.637	1624.656	1370.527
-34.954	31.713	1623.286	1369.874
-33.940	31.578	1621.570	1367.378
-32.925	31.609	1619.764	1366.033
-31.911	31.576	1618.061	1364.300
-30.896	31.594	1616.260	1362.855
-29.881	31.617	1614.602	1361.571
-28.867	31.582	1612.990	1359.904
-27.852	31.630	1611.764	1359.170
-26.838	31.628	1609.718	1357.374
-25.823	31.559	1608.844	1356.084
-24.809	31.628	1607.209	1355.153
-23.794	31.627	1605.816	1353.911
-22.779	31.653	1604.631	1353.047
-21.765	31.628	1603.223	1351.627
-20.750	31.541	1601.459	1349.458
-19.736	31.658	1599.674	1348.741
-18.721	31.666	1598.276	1347.573
-17.706	31.714	1597.055	1346.829
-16.692	31.610	1595.522	1344.738
-15.677	31.614	1594.109	1343.523
-14.663	31.671	1593.341	1343.233
-13.648	31.715	1591.729	1342.137
-12.633	31.739	1589.703	1340.542
-11.619	31.612	1588.580	1338.633
-10.604	31.721	1586.590	1337.684
-9.590	31.668	1585.391	1336.244
-8.575	31.744	1584.072	1335.618
-7.560	31.739	1582.814	1334.471
-6.546	31.724	1581.860	1333.503
-5.531	31.621	1581.332	1332.278
-4.517	31.679	1579.666	1331.232
-3.502	31.596	1578.582	1329.673
-2.487	31.707	1577.020	1329.096
-1.473	31.483	1565.696	1317.922
-0.458	29.086	1547.374	1285.725
0.556	26.583	1549.496	1257.929
1.571	24.586	1573.036	1262.827
2.586	24.248	1586.665	1271.243
3.600	21.204	1531.565	1206.003
4.615	11.760	1420.146	1057.400
5.629	3.750	1355.240	959.409
6.644	2.369	1347.310	945.181
7.659	2.336	1346.011	943.981
8.673	2.262	1344.814	942.601
9.688	2.153	1343.037	940.604
10.702	2.028	1339.529	937.295
11.717	5.513	1347.088	963.994
12.731	15.725	1365.846	1040.836
13.746	24.205	1380.403	1104.646
14.761	26.615	1383.645	1122.097
15.775	26.978	1383.514	1124.140
16.790	27.103	1382.575	1124.047
17.804	27.242	1382.159	1124.467
18.819	27.420	1382.001	1125.340
19.834	27.554	1381.490	1125.657
20.848	27.469	1381.136	1124.741
21.863	27.564	1380.184	1124.453
22.877	27.515	1378.891	1122.999
23.892	27.565	1378.089	1122.556
24.907	27.583	1377.798	1122.327
25.921	27.493	1376.666	1120.754
26.936	27.529	1375.218	1119.699
27.950	27.482	1374.260	1118.529
28.965	27.551	1372.912	1117.759
29.980	27.499	1371.598	1116.270
30.994	27.557	1370.629	1115.738
32.009	27.617	1369.681	1115.231
33.023	27.486	1368.797	1113.615
34.038	27.604	1367.416	1113.115
35.053	27.508	1366.681	1111.827
36.067	27.546	1365.614	1111.097
37.082	27.604	1364.650	1110.566
38.096	27.476	1364.125	1109.259
39.111	27.490	1362.929	1108.273
40.126	27.592	1362.614	1108.541
41.140	27.501	1361.400	1106.902
42.155	27.493	1361.548	1106.877
43.169	27.547	1361.664	1107.199
44.184	27.514	1361.100	1106.443
45.199	27.399	1360.764	1105.376
46.213	27.482	1360.352	1105.443
47.228	27.487	1359.286	1104.513
48.242	27.506	1357.764	1103.291
49.257	27.578	1356.629	1102.707
50.271	27.454	1355.364	1100.835
51.286	27.537	1353.444	1099.678
52.301	27.470	1352.576	1098.471
53.315	27.614	1351.500	1098.365
54.330	27.548	1350.905	1097.390
55.344	27.546	1349.835	1096.408
56.359	27.495	1348.357	1094.808
57.374	27.588	1348.069	1095.037
58.388	27.538	1347.543	1094.213
59.403	27.497	1347.347	1093.705
60.417	27.590	1346.100	1093.159
61.432	27.462	1345.867	1092.104
62.447	27.527	1344.618	1091.384
63.461	27.530	1343.428	1090.337
64.476	27.468	1343.053	1089.566
65.490	27.564	1341.417	1088.715
66.505	27.465	1340.206	1087.048
67.520	27.509	1339.122	1086.332
68.534	27.569	1337.869	1085.578
69.549	27.525	1337.056	1084.560
70.563	27.502	1336.348	1083.755
71.578	27.650	1335.109	1083.532
72.593	27.479	1334.433	1081.874
73.607	27.570	1333.577	1081.621
74.622	27.519	1333.092	1080.833
75.636	27.683	1332.309	1081.073
76.651	27.565	1331.655	1079.748
77.666	27.517	1331.109	1078.926
78.680	27.487	1330.995	1078.561
79.695	27.609	1330.166	1078.513
80.709	27.644	1329.142	1077.793
81.724	27.580	1328.337	1076.669
82.739	27.393	1327.705	1074.956
83.753	27.569	1326.599	1075.003
84.768	27.538	1325.062	1073.480
85.782	27.476	1324.671	1072.705
86.797	27.399	1323.321	1071.065
87.812	27.543	1322.199	1070.905
88.826	27.526	1321.202	1069.904
89.841	27.598	1320.145	1069.377
90.855	27.585	1319.319	1068.533
91.870	27.637	1318.413	1068.016
92.884	27.632	1317.475	1067.130
93.899	27.701	1316.613	1066.741
94.914	27.599	1316.036	1065.583
95.928	27.581	1315.389	1064.856
96.943	27.646	1314.338	1064.291
97.957	27.732	1313.819	1064.279
98.972	27.646	1312.902	1062.940
99.987	27.647	1311.987	1062.114
101.001	27.622	1310.852	1060.956
102.016	27.663	1309.935	1060.356
103.030	27.583	1309.344	1059.317
104.045	27.643	1308.499	1058.892
105.060	27.664	1307.579	1058.175
106.074	27.651	1306.416	1057.063
107.089	27.700	1305.569	1056.566
108.103	27.582	1304.884	1055.237
109.118	27.547	1303.948	1054.187
110.133	27.605	1302.687	1053.408
111.147	27.697	1301.202	1052.643
112.162	27.665	1300.070	1051.450
113.176	27.724	1299.156	1050.961
114.191	27.703	1298.458	1050.182
115.206	27.725	1297.636	1049.552
116.220	27.691	1296.269	1048.156
117.235	27.698	1295.293	1047.317
118.249	27.700	1294.435	1046.541
119.264	27.651	1294.004	1045.820
120.279	27.663	1293.011	1044.992
121.293	27.672	1292.649	1044.658
122.308	27.672	1291.923	1043.979
123.322	27.671	1290.744	1042.926
124.337	27.679	1290.025	1042.300
125.352	27.762	1289.176	1041.998
126.366	27.803	1288.000	1041.184
127.381	27.802	1287.571	1040.744
128.395	27.836	1285.941	1039.526
129.410	27.763	1285.565	1038.716
130.424	27.808	1285.056	1038.467
131.439	27.694	1284.218	1037.048
132.454	27.702	1283.568	1036.476
133.468	27.760	1282.359	1035.739
134.483	27.869	1282.216	1036.149
135.497	27.646	1281.485	1034.206
136.512	27.704	1280.630	1033.751
137.527	27.671	1279.673	1032.701
138.541	27.747	1278.306	1031.936
139.556	27.651	1277.171	1030.389
140.570	27.709	1276.035	1029.708
141.585	27.712	1275.075	1028.856
142.600	27.703	1274.041	1027.881
143.614	27.730	1273.424	1027.442
144.629	27.716	1272.243	1026.322
145.643	27.745	1270.791	1025.224
146.658	27.594	1270.424	1023.989
147.673	27.641	1269.360	1023.301
148.687	27.734	1267.863	1022.524
149.702	27.631	1267.170	1021.303
150.716	27.703	1265.649	1020.389
151.731	27.708	1264.858	1019.688
152.746	27.778	1263.609	1018.980
153.760	27.726	1263.075	1018.170
154.775	27.882	1261.922	1018.022
155.789	27.737	1260.934	1016.323
156.804	27.733	1259.944	1015.414
157.819	27.760	1259.288	1014.946
158.833	27.619	1259.495	1014.241
159.848	27.758	1258.309	1013.966
160.862	27.782	1257.622	1013.458
161.877	27.822	1256.510	1012.693
162.892	27.757	1255.712	1011.599
163.906	27.823	1254.897	1011.218
164.921	27.832	1254.444	1010.814
165.935	27.793	1253.805	1009.996
166.950	27.952	1252.830	1010.000
167.964	27.833	1252.042	1008.617
168.979	27.918	1251.799	1008.801
169.994	27.914	1250.977	1008.027
171.008	27.825	1250.253	1006.864
172.023	27.824	1249.542	1006.196
173.037	27.820	1249.053	1005.690
174.052	27.840	1248.635	1005.376
175.067	27.894	1247.691	1004.825
176.081	27.924	1246.383	1003.848
177.096	27.902	1245.750	1003.130
178.110	27.848	1244.720	1001.911
179.125	28.014	1243.930	1002.100
180.140	27.945	1242.867	1000.779
181.154	27.961	1241.775	999.897
182.169	27.883	1240.531	998.380
183.183	27.891	1239.834	997.772
184.198	27.994	1238.424	997.115
185.213	27.998	1237.545	996.337
186.227	27.982	1236.895	995.643
187.242	27.945	1236.353	994.914
188.256	27.986	1235.083	994.024
189.271	27.992	1234.772	993.722
190.286	27.952	1233.883	992.704
191.300	27.884	1233.849	992.217
192.315	27.972	1232.442	991.477
193.329	27.970	1232.397	991.341
194.344	27.996	1232.465	991.445
195.359	28.048	1231.439	990.816
196.373	28.001	1231.165	990.255
197.388	27.855	1230.818	989.098
198.402	28.012	1230.268	989.417
199.417	27.850	1230.120	988.334
200.432	27.969	1229.197	988.149
201.446	27.976	1228.820	987.794
202.461	27.962	1227.643	986.684
203.475	27.929	1227.393	986.219
204.490	27.976	1226.254	985.468
205.504	28.005	1225.056	984.575
206.519	27.943	1224.030	983.334
207.534	28.030	1223.189	983.036
208.548	28.033	1222.513	982.424
209.563	27.998	1221.765	981.548
210.577	28.065	1220.866	981.095
211.592	27.978	1220.177	979.990
212.607	28.114	1219.354	979.970
213.621	28.062	1219.154	979.443
214.636	28.128	1218.109	978.870
215.650	27.942	1217.507	977.305
216.665	27.981	1216.538	976.650
217.680	28.107	1215.126	976.102
218.694	28.219	1213.932	975.657
219.709	28.092	1213.890	974.856
220.723	28.081	1213.181	974.145
221.738	28.180	1212.601	974.119
222.753	28.031	1211.606	972.440
223.767	28.045	1211.188	972.095
224.782	28.200	1210.520	972.295
225.796	28.103	1210.509	971.686
226.811	28.168	1209.979	971.520
227.826	28.188	1209.507	971.160
228.840	28.144	1208.418	969.966
229.855	28.094	1207.563	968.927
230.869	28.199	1207.041	968.978
231.884	28.227	1206.205	968.375
232.899	28.205	1205.320	967.460
233.913	28.208	1205.186	967.281
234.928	28.216	1204.918	967.021
235.942	28.274	1204.106	966.593
236.957	28.140	1203.422	965.249
237.972	28.139	1202.752	964.624
238.986	28.190	1202.203	964.368
240.001	28.161	1201.860	963.851
241.015	28.314	1200.690	963.632
242.030	28.281	1200.386	963.129
243.045	28.425	1198.968	962.666
244.059	28.307	1198.286	961.413
245.074	28.312	1197.399	960.643
246.088	28.432	1196.681	960.611
247.103	28.384	1195.563	959.377
248.117	28.326	1195.376	958.838
249.132	28.373	1194.531	958.321
250.147	28.384	1193.885	957.773
251.161	28.545	1192.648	957.540
252.176	28.439	1192.587	956.852
253.190	28.533	1191.594	956.459
254.205	28.420	1191.086	955.379
255.220	28.351	1191.062	954.916
256.234	28.445	1190.305	954.713
257.249	28.520	1189.354	954.258
258.263	28.453	1188.811	953.387
259.278	28.499	1188.304	953.139
260.293	28.518	1187.805	952.749
261.307	28.519	1187.450	952.387
262.322	28.414	1186.852	951.276
263.336	28.376	1186.356	950.597
264.351	28.545	1185.343	950.578
265.366	28.480	1184.930	949.827
266.380	28.559	1184.094	949.482
267.395	28.499	1183.101	948.294
268.409	28.477	1182.712	947.784
269.424	28.500	1182.199	947.405
270.439	28.493	1181.894	947.043
271.453	28.532	1181.009	946.450
272.468	28.414	1180.507	945.355
273.482	28.523	1179.573	945.083
274.497	28.507	1179.435	944.809
275.512	28.597	1178.695	944.597
276.526	28.614	1178.189	944.193
277.541	28.536	1177.209	942.923
278.555	28.578	1176.670	942.622
279.570	28.722	1175.891	942.656
280.585	28.624	1175.390	941.667
281.599	28.624	1174.377	940.773
282.614	28.554	1173.606	939.712
283.628	28.659	1172.544	939.320
284.643	28.536	1172.143	938.282
285.657	28.679	1170.969	937.993
286.672	28.693	1169.925	937.145
287.687	28.693	1169.339	936.591
288.701	28.737	1168.638	936.174
289.716	28.707	1167.993	935.421
290.730	28.680	1167.632	934.912
291.745	28.761	1167.038	934.762
292.760	28.724	1166.509	934.068
293.774	28.676	1165.923	933.271
294.789	28.828	1165.315	933.478
295.803	28.788	1164.542	932.572
296.818	28.820	1163.852	932.097
297.833	28.814	1163.118	931.396
298.847	28.882	1162.645	931.284
299.862	28.861	1161.562	930.223
300.876	28.823	1161.295	929.738
301.891	28.924	1160.439	929.481
302.906	28.936	1159.546	928.745
303.920	28.823	1159.848	928.331
304.935	28.816	1159.114	927.628
305.949	28.824	1158.137	926.805
306.964	28.920	1157.416	926.630
307.979	28.839	1156.704	925.568
308.993	29.065	1155.866	925.952
310.008	28.991	1155.307	925.049
311.022	28.858	1155.162	924.182
312.037	28.966	1154.221	923.892
313.052	28.852	1153.199	922.422
314.066	28.897	1152.365	921.899
315.081	28.925	1151.493	921.260
316.095	29.052	1151.119	921.512
317.110	29.012	1150.282	920.560
318.125	29.107	1149.710	920.495
319.139	29.068	1149.062	919.704
320.154	29.099	1148.569	919.382
321.168	29.024	1148.052	918.511
322.183	29.063	1147.470	918.162
323.197	29.050	1147.090	917.709
324.212	29.021	1145.981	916.595
325.227	29.072	1146.084	916.851
326.241	29.058	1145.547	916.272
327.256	28.971	1144.858	915.206
328.270	29.189	1143.264	914.932
329.285	29.127	1143.057	914.381
330.300	29.108	1142.373	913.655
331.314	29.079	1141.531	912.757
332.329	29.204	1140.409	912.398
333.343	29.250	1139.960	912.187
334.358	29.117	1139.448	911.038
335.373	29.026	1138.943	910.104
336.387	29.213	1137.605	909.881
337.402	29.305	1137.154	909.892
338.416	29.340	1136.363	909.352
339.431	29.093	1136.282	907.990
340.446	29.349	1135.259	908.349
341.460	29.341	1134.909	907.953
342.475	29.438	1133.844	907.494
343.489	29.373	1132.869	906.317
344.504	29.378	1131.624	905.266
345.519	29.379	1131.236	904.879
346.533	29.250	1130.973	903.954
347.548	29.205	1130.518	903.293
348.562	29.337	1129.420	902.981
349.577	29.388	1128.403	902.336
350.592	29.176	1128.262	901.105
351.606	29.239	1127.388	900.637
352.621	29.353	1126.870	900.702
353.635	29.230	1126.120	899.419
354.650	29.341	1125.665	899.518
355.665	29.431	1124.639	899.060
356.679	29.455	1124.009	898.592
357.694	29.423	1124.017	898.366
358.708	29.477	1122.995	897.733
359.723	29.311	1122.857	896.732
360.738	29.417	1121.684	896.233
361.752	29.498	1121.279	896.222
362.767	29.502	1120.611	895.630
363.781	29.530	1119.983	895.185
364.796	29.595	1119.384	894.940
365.810	29.575	1118.913	894.385
366.825	29.530	1118.632	893.864
367.840	29.670	1117.621	893.654
368.854	29.663	1117.183	893.193
369.869	29.658	1116.751	892.742
370.883	29.626	1115.705	891.674
371.898	29.672	1115.107	891.339
372.913	29.728	1113.894	890.561
373.927	29.659	1114.378	890.536
374.942	29.693	1113.702	890.079
375.956	29.707	1113.120	889.602
376.971	29.714	1112.327	888.924
377.986	29.710	1112.415	888.898
379.000	29.788	1111.332	888.329
380.015	29.843	1110.937	888.201
381.029	29.732	1110.339	887.107
382.044	29.788	1109.439	886.581
383.059	29.814	1109.168	886.409
384.073	29.713	1108.691	885.464
385.088	29.876	1107.599	885.297
386.102	29.978	1106.324	884.687
387.117	29.813	1105.691	883.311
388.132	29.736	1105.028	882.338
389.146	29.841	1104.543	882.375
390.161	29.875	1103.722	881.802
391.175	29.774	1102.885	880.572
392.190	29.838	1102.629	880.595
393.205	29.913	1101.801	880.212
394.219	30.022	1101.093	880.089
395.234	30.062	1100.011	879.335
396.248	30.011	1099.257	878.415
397.263	29.973	1098.476	877.531
398.278	29.989	1098.274	877.368
399.292	29.958	1097.733	876.709
400.307	30.052	1097.059	876.539
401.321	29.941	1096.599	875.571
402.336	30.008	1095.441	874.884
403.350	29.892	1095.259	874.114
404.365	30.093	1094.161	874.107
405.380	30.004	1093.624	873.181
406.394	30.046	1092.883	872.710
407.409	30.035	1092.337	872.145
408.423	30.057	1091.913	871.833
409.438	30.119	1090.706	871.084
410.453	30.189	1090.256	870.979
411.467	30.309	1089.243	870.653
412.482	30.232	1088.714	869.795
413.496	30.216	1088.409	869.398
414.511	30.204	1087.508	868.544
415.526	30.253	1087.583	868.759
416.540	30.245	1086.717	867.950
417.555	30.282	1086.190	867.625
418.569	30.221	1086.012	867.121
419.584	30.248	1085.825	867.021
420.599	30.332	1084.973	866.660
421.613	105.445	1323.696	1462.393
422.628	98.147	1358.467	1462.503
