DTS Sentinel unit serial number:	SN413079Multiplexer serial number:	ORYXHardware model number:	OX4-SRSoftware version number:	ORYX F/W v4.00 Oryx Data Collector v3.7.2.0data status	okinstallation	princeton_trtdifferential loss correction	single-endedforward channel	channel 2reverse channel	N/Adate	2019/09/11time	02:13:11forward acquisition time	60.00reverse acquisition time	0.00gamma	496.2192k internal	0.2331k external	0.2331temperature offset calibration	0.9943default loss term (dB/km)	0.3790temperature slope calibration	1.0000multiplexer offset coefficient	1.0000multiplexer slope coefficient	1.0000fibre end	0.00T internal ref (°C)	29.19T ext. ref 1 (°C)	-0.31T ext. ref 2 (°C)	23.28length (m)	temperature (°C)	Stokes	anti-Stokes-747.200	800.000	-0.030	0.132
-746.185	150.081	-0.086	0.117
-745.171	57.679	0.181	-0.178
-744.156	-128.870	0.331	0.047
-743.142	-84.601	-0.202	0.064
-742.127	5.593	-0.271	-0.202
-741.112	-158.524	0.203	-0.012
-740.098	39.795	-0.249	-0.225
-739.083	237.470	-0.058	-0.097
-738.069	126.283	-0.142	0.180
-737.054	43.554	-0.214	-0.196
-736.039	166.511	-0.162	-0.231
-735.025	10.085	0.057	0.043
-734.010	62.381	-0.274	-0.276
-732.996	572.484	-0.080	-0.196
-731.981	34.574	0.141	0.124
-730.966	-32.811	0.224	-0.125
-729.952	24.153	-0.259	-0.215
-728.937	-107.575	-0.230	-0.051
-727.923	800.000	-0.060	-0.187
-726.908	-162.126	-0.152	-0.008
-725.894	691.641	0.151	-0.397
-724.879	22.428	-0.094	-0.077
-723.864	-91.408	-0.247	-0.071
-722.850	243.794	0.163	0.276
-721.835	794.615	-0.096	-0.266
-720.821	-58.622	-0.299	-0.130
-719.806	104.885	-0.157	-0.186
-718.791	800.000	0.021	-0.083
-717.777	-24.995	0.172	0.102
-716.762	-64.454	-0.309	-0.126
-715.748	68.338	-0.125	-0.128
-714.733	-200.000	0.019	0.104
-713.718	368.868	-0.109	-0.222
-712.704	226.097	0.258	-0.421
-711.689	209.966	-0.130	-0.205
-710.675	228.276	-0.054	-0.088
-709.660	43.168	-0.098	-0.090
-708.645	800.000	-0.089	0.373
-707.631	39.831	0.256	0.231
-706.616	482.331	-0.028	-0.065
-705.602	149.343	-0.069	-0.094
-704.587	716.276	0.144	-0.385
-703.572	800.000	0.052	0.154
-702.558	-58.710	0.311	0.135
-701.543	-46.969	0.312	0.153
-700.529	800.000	-0.111	-0.408
-699.514	-200.000	-0.028	-0.366
-698.499	129.021	0.057	-0.073
-697.485	433.506	-0.069	0.150
-696.470	-78.310	-0.240	0.083
-695.456	-82.218	0.177	0.058
-694.441	-200.000	0.010	-0.176
-693.426	-94.386	-0.484	-0.133
-692.412	800.000	-0.153	-0.486
-691.397	-81.513	0.113	0.037
-690.383	-86.194	-0.127	-0.039
-689.368	149.402	-0.227	-0.308
-688.354	241.391	-0.089	0.150
-687.339	-64.135	-0.173	0.071
-686.324	116.751	-0.230	0.283
-685.310	309.692	-0.083	0.156
-684.295	-200.000	0.028	-0.138
-683.281	-200.000	-0.057	-0.360
-682.266	800.000	0.118	0.427
-681.251	8.323	-0.094	-0.071
-680.237	-74.277	0.109	-0.039
-679.222	-133.759	0.350	0.044
-678.208	800.000	0.074	-0.211
-677.193	-25.128	-0.077	0.046
-676.178	53.791	0.139	0.134
-675.164	800.000	0.029	-0.121
-674.149	-62.676	0.205	0.085
-673.135	-40.473	-0.232	-0.121
-672.120	-75.315	-0.240	0.086
-671.105	-200.000	-0.038	0.216
-670.091	-200.000	0.006	0.124
-669.076	19.705	-0.138	0.112
-668.062	-103.277	0.050	-0.012
-667.047	164.906	0.281	-0.398
-666.032	-99.366	0.093	-0.024
-665.018	-68.947	-0.257	-0.099
-664.003	-200.000	-0.014	-0.298
-662.989	123.680	-0.067	0.085
-661.974	480.181	0.077	-0.175
-660.959	-163.061	-0.181	0.009
-659.945	-103.597	-0.169	0.040
-658.930	-61.675	-0.252	-0.106
-657.916	-51.898	-0.101	-0.047
-656.901	-200.000	-0.012	0.083
-655.886	66.159	0.208	0.212
-654.872	-200.000	-0.022	0.376
-653.857	163.436	0.077	-0.108
-652.843	-142.606	0.529	0.052
-651.828	-87.729	-0.335	-0.101
-650.814	-66.524	0.101	-0.040
-649.799	-198.265	0.296	-0.002
-648.784	-200.000	0.016	0.188
-647.770	-33.324	-0.229	-0.127
-646.755	800.000	0.119	-0.342
-645.741	138.974	-0.127	-0.167
-644.726	-101.787	0.152	0.037
-643.711	-10.111	0.148	-0.099
-642.697	-80.811	0.088	0.029
-641.682	-200.000	-0.067	-0.336
-640.668	-35.715	-0.181	0.098
-639.653	-40.048	0.384	0.201
-638.638	207.976	0.093	0.146
-637.624	800.000	-0.115	-0.368
-636.609	-200.000	-0.012	-0.192
-635.595	-35.847	-0.188	0.102
-634.580	-200.000	0.063	0.329
-633.565	-108.102	-0.215	-0.047
-632.551	-122.679	0.287	-0.047
-631.536	39.712	0.126	0.113
-630.522	800.000	-0.024	0.067
-629.507	223.954	-0.078	0.126
-628.492	800.000	-0.063	-0.192
-627.478	530.065	-0.136	-0.323
-626.463	197.982	0.031	-0.048
-625.449	73.065	-0.268	-0.281
-624.434	-119.867	-0.409	0.070
-623.419	-200.000	-0.010	0.058
-622.405	207.291	-0.066	-0.103
-621.390	508.418	0.058	0.136
-620.376	-200.000	-0.041	-0.361
-619.361	-45.250	-0.167	0.083
-618.346	800.000	0.075	-0.268
-617.332	3.665	-0.140	0.102
-616.317	182.789	0.148	-0.219
-615.303	-107.223	-0.323	-0.071
-614.288	626.378	0.049	0.125
-613.273	-168.457	0.292	-0.011
-612.259	800.000	-0.121	0.406
-611.244	-80.621	0.178	-0.059
-610.230	292.085	-0.060	-0.109
-609.215	800.000	0.033	0.092
-608.201	-200.000	-0.020	-0.256
-607.186	-84.356	-0.175	-0.055
-606.171	633.433	0.098	0.249
-605.157	-146.169	-0.260	0.023
-604.142	-200.000	-0.037	0.227
-603.128	198.826	0.065	0.099
-602.113	800.000	-0.126	-0.357
-601.098	107.584	-0.200	-0.238
-600.084	-88.806	0.294	-0.087
-599.069	519.776	0.024	-0.057
-598.055	-109.809	0.246	0.052
-597.040	-200.000	-0.024	-0.170
-596.025	-79.690	0.056	-0.019
-595.011	61.664	-0.219	-0.218
-593.996	-90.591	-0.286	0.083
-592.982	-158.712	0.213	0.012
-591.967	291.455	-0.083	0.151
-590.952	-40.282	0.018	-0.010
-589.938	158.434	0.105	0.146
-588.923	-45.450	-0.098	-0.049
-587.909	-102.191	0.199	0.048
-586.894	-15.620	0.162	-0.103
-585.879	59.036	-0.054	-0.053
-584.865	27.457	0.115	0.097
-583.850	48.873	0.177	-0.166
-582.836	-200.000	-0.012	-0.135
-581.821	-159.103	0.393	-0.022
-580.806	37.871	-0.162	0.144
-579.792	800.000	-0.045	-0.126
-578.777	27.830	-0.059	-0.049
-577.763	188.948	0.047	-0.070
-576.748	69.066	-0.080	-0.082
-575.733	-200.000	-0.025	0.216
-574.719	-7.986	0.137	0.093
-573.704	800.000	-0.069	0.249
-572.690	58.339	-0.056	0.055
-571.675	800.000	0.077	0.291
-570.661	-34.568	0.083	-0.046
-569.646	13.790	-0.349	-0.272
-568.631	7.846	0.351	-0.263
-567.617	280.517	0.080	-0.143
-566.602	-61.908	-0.293	-0.122
-565.588	-200.000	-0.019	-0.114
-564.573	-156.904	0.216	0.013
-563.558	206.508	-0.144	-0.224
-562.544	60.897	0.076	-0.076
-561.529	219.576	0.126	-0.201
-560.515	99.682	0.066	-0.076
-559.500	-2.409	-0.177	-0.124
-558.485	-104.303	0.436	-0.101
-557.471	-94.144	-0.255	-0.070
-556.456	38.122	-0.028	-0.025
-555.442	800.000	-0.043	0.183
-554.427	-200.000	0.015	0.172
-553.412	-39.785	-0.179	-0.093
-552.398	-76.719	0.249	-0.087
-551.383	304.808	0.104	-0.192
-550.369	703.781	-0.017	-0.046
-549.354	58.586	-0.096	0.094
-548.339	702.132	0.043	-0.114
-547.325	-13.998	-0.145	0.094
-546.310	-200.000	-0.008	-0.286
-545.296	-200.000	-0.013	0.413
-544.281	368.582	0.249	0.503
-543.266	273.512	0.046	-0.082
-542.252	-139.830	0.064	-0.007
-541.237	-29.905	0.135	-0.077
-540.223	-132.188	0.262	-0.034
-539.208	-73.514	0.048	0.018
-538.193	-144.595	-0.265	0.024
-537.179	-200.000	0.055	-0.457
-536.164	274.277	-0.237	-0.419
-535.150	400.464	-0.146	-0.307
-534.135	-200.000	-0.043	-0.236
-533.121	105.443	0.073	-0.086
-532.106	-83.980	-0.124	-0.039
-531.091	238.785	0.079	-0.131
-530.077	-101.517	0.452	-0.110
-529.062	123.589	-0.104	-0.130
-528.048	800.000	0.041	0.167
-527.033	800.000	-0.056	0.211
-526.018	375.990	0.064	-0.130
-525.004	687.352	-0.103	0.268
-523.989	281.280	-0.108	0.194
-522.975	554.165	-0.016	0.038
-521.960	14.308	0.053	0.041
-520.945	88.947	-0.062	-0.069
-519.931	-75.528	-0.171	0.061
-518.916	92.273	-0.129	-0.145
-517.902	-115.606	-0.308	-0.058
-516.887	389.850	0.126	-0.260
-515.872	-36.581	-0.236	0.127
-514.858	402.859	0.100	-0.209
-513.843	138.143	-0.276	-0.360
-512.829	-57.298	0.368	-0.161
-511.814	-2.923	-0.146	-0.102
-510.799	-71.488	-0.368	-0.137
-509.785	-125.905	0.330	-0.050
-508.770	577.827	0.124	-0.301
-507.756	556.013	-0.048	0.114
-506.741	-82.101	0.419	0.136
-505.726	-200.000	0.012	0.174
-504.712	-169.763	0.292	-0.011
-503.697	-51.024	-0.111	0.052
-502.683	68.008	-0.262	-0.267
-501.668	26.190	0.155	-0.129
-500.653	-79.742	0.154	-0.052
-499.639	11.477	-0.048	-0.037
-498.624	-105.183	-0.186	-0.042
-497.610	-200.000	-0.063	-0.457
-496.595	800.000	0.075	-0.223
-495.581	-96.376	-0.206	0.054
-494.566	-130.162	-0.084	0.011
-493.551	-46.138	-0.287	0.141
-492.537	-126.795	-0.177	-0.026
-491.522	457.228	-0.221	-0.490
-490.508	360.853	0.051	0.102
-489.493	-5.928	-0.130	0.089
-488.478	-77.921	-0.375	0.129
-487.464	61.078	-0.111	-0.110
-486.449	191.172	0.182	-0.273
-485.435	-31.107	-0.198	0.111
-484.420	-78.530	0.327	0.111
-483.405	-24.047	-0.100	0.060
-482.391	800.000	0.058	0.245
-481.376	-200.000	-0.010	0.194
-480.362	-87.223	0.170	-0.051
-479.347	-36.844	-0.033	-0.018
-478.332	148.805	0.271	-0.365
-477.318	-200.000	-0.021	0.120
-476.303	800.000	0.055	0.179
-475.289	-189.279	0.147	-0.002
-474.274	121.084	0.136	-0.169
-473.259	-200.000	0.013	-0.065
-472.245	92.833	-0.135	0.152
-471.230	-200.000	-0.033	-0.144
-470.216	-200.000	-0.003	0.044
-469.201	307.346	-0.075	0.139
-468.186	800.000	0.055	-0.227
-467.172	180.621	-0.117	-0.171
-466.157	-116.051	-0.317	0.059
-465.143	41.421	-0.151	0.136
-464.128	29.856	-0.147	0.125
-463.113	133.118	-0.081	-0.105
-462.099	-154.436	-0.122	-0.008
-461.084	-152.920	-0.216	0.015
-460.070	59.697	0.077	-0.075
-459.055	-200.000	0.005	-0.158
-458.040	-86.624	-0.327	-0.100
-457.026	403.232	-0.085	0.178
-456.011	39.827	0.313	-0.279
-454.997	-161.500	-0.079	0.004
-453.982	-200.000	0.021	-0.100
-452.968	-200.000	-0.053	0.258
-451.953	413.531	-0.149	-0.314
-450.938	-155.640	-0.234	-0.015
-449.924	800.000	0.024	-0.085
-448.909	-3.419	-0.138	-0.096
-447.895	-46.183	-0.103	0.051
-446.880	0.934	-0.223	0.159
-445.865	707.181	-0.041	0.107
-444.851	-200.000	-0.003	0.147
-443.836	21.651	0.095	-0.077
-442.822	-68.745	-0.158	-0.061
-441.807	-85.778	-0.359	0.111
-440.792	-200.000	0.026	-0.272
-439.778	800.000	-0.040	0.116
-438.763	13.102	0.201	0.155
-437.749	800.000	-0.035	0.122
-436.734	-118.148	0.181	0.032
-435.719	-22.948	-0.160	0.096
-434.705	800.000	-0.114	0.328
-433.690	-75.834	-0.151	-0.053
-432.676	-69.633	-0.235	-0.089
-431.661	-7.435	-0.228	-0.153
-430.646	-200.000	-0.001	0.075
-429.632	345.926	0.063	-0.124
-428.617	-31.363	0.271	-0.152
-427.603	-159.921	0.406	0.022
-426.588	183.382	0.062	-0.091
-425.573	216.503	-0.120	-0.190
-424.559	249.201	0.051	-0.086
-423.544	43.786	-0.261	0.237
-422.530	-71.000	-0.329	0.123
-421.515	-121.743	0.163	-0.027
-420.500	-200.000	0.017	-0.091
-419.486	-57.576	-0.333	0.145
-418.471	-44.083	0.340	-0.170
-417.457	-200.000	0.037	0.283
-416.442	800.000	-0.088	0.293
-415.428	74.280	0.061	0.063
-414.413	-64.138	-0.162	-0.065
-413.398	-107.766	0.354	-0.077
-412.384	-200.000	0.004	0.180
-411.369	-200.000	0.076	-0.372
-410.355	-200.000	0.010	-0.170
-409.340	-137.266	0.199	-0.023
-408.325	-141.754	-0.088	0.009
-407.311	78.877	0.115	-0.122
-406.296	-99.037	0.509	0.128
-405.282	-200.000	-0.018	0.323
-404.267	22.534	0.159	-0.129
-403.252	204.317	-0.141	0.217
-402.238	-92.003	-0.276	0.078
-401.223	-46.539	0.132	0.064
-400.209	-200.000	-0.032	0.424
-399.194	-119.883	-0.359	-0.061
-398.179	-121.935	-0.225	0.037
-397.165	-174.822	0.121	-0.003
-396.150	61.074	0.090	0.089
-395.136	45.042	-0.280	0.256
-394.121	-13.040	0.389	-0.251
-393.106	-145.252	0.150	0.014
-392.092	-200.000	-0.123	0.000
-391.077	467.057	0.132	0.293
-390.063	-39.403	0.263	0.137
-389.048	173.268	-0.183	0.262
-388.033	-200.000	-0.041	-0.356
-387.019	-100.325	0.115	-0.028
-386.004	-0.853	0.047	-0.033
-384.990	-89.011	-0.288	-0.085
-383.975	-39.657	0.047	-0.024
-382.960	-200.000	-0.015	-0.069
-381.946	-26.635	-0.241	0.140
-380.931	-200.000	0.005	-0.149
-379.917	21.221	0.163	-0.131
-378.902	-140.950	0.134	0.014
-377.888	10.511	0.256	0.193
-376.873	73.881	0.095	-0.098
-375.858	332.564	0.127	0.242
-374.844	800.000	-0.008	0.030
-373.829	8.303	-0.072	-0.054
-372.815	800.000	-0.039	0.108
-371.800	47.704	0.236	-0.218
-370.785	800.000	0.059	-0.223
-369.771	-79.758	0.164	0.055
-368.756	360.789	0.061	-0.121
-367.742	-200.000	0.009	0.065
-366.727	800.000	0.068	0.268
-365.712	-118.111	-0.206	-0.036
-364.698	137.261	-0.087	-0.112
-363.683	-5.466	0.067	0.046
-362.669	600.991	0.060	-0.148
-361.654	125.198	-0.165	0.207
-360.639	-51.786	0.190	0.088
-359.625	497.202	0.028	-0.063
-358.610	620.430	0.100	0.250
-357.596	-59.957	-0.290	-0.123
-356.581	800.000	-0.006	-0.018
-355.566	246.344	0.156	-0.260
-354.552	789.135	0.048	-0.130
-353.537	800.000	0.096	0.360
-352.523	27.867	-0.196	-0.164
-351.508	158.962	0.115	-0.159
-350.493	800.000	-0.051	0.214
-349.479	-20.637	0.212	0.129
-348.464	-200.000	-0.023	0.131
-347.450	800.000	-0.098	-0.359
-346.435	800.000	-0.086	0.363
-345.420	22.222	-0.392	0.317
-344.406	292.062	-0.091	0.164
-343.391	-61.502	0.398	0.166
-342.377	612.009	-0.050	-0.123
-341.362	46.622	0.250	0.230
-340.348	603.161	-0.070	0.173
-339.333	-200.000	0.006	0.061
-338.318	37.498	0.198	-0.174
-337.304	144.737	-0.107	0.142
-336.289	682.395	0.176	0.455
-335.275	-200.000	0.008	0.441
-334.260	370.287	-0.104	0.208
-333.245	278.882	0.096	-0.169
-332.231	42.230	-0.168	-0.151
-331.216	-200.000	0.013	0.193
-330.202	-200.000	-0.046	0.243
-329.187	-63.310	-0.075	-0.031
-328.172	190.781	-0.078	0.116
-327.158	147.653	0.245	-0.327
-326.143	132.562	0.053	0.068
-325.129	431.616	-0.012	0.026
-324.114	-200.000	0.047	0.299
-323.099	242.267	-0.079	0.132
-322.085	304.265	0.152	0.279
-321.070	-110.887	-0.145	-0.030
-320.056	474.344	0.112	-0.249
-319.041	172.395	-0.044	-0.063
-318.026	-200.000	0.004	0.061
-317.012	279.429	0.041	-0.073
-315.997	-33.535	0.184	-0.100
-314.983	-54.876	-0.235	-0.105
-313.968	111.427	0.026	0.031
-312.953	800.000	0.024	0.079
-311.939	263.349	-0.010	-0.018
-310.924	550.397	-0.085	0.202
-309.910	142.817	0.141	-0.185
-308.895	-31.796	0.222	0.123
-307.880	678.759	0.047	0.121
-306.866	-58.821	0.326	0.139
-305.851	316.964	-0.084	-0.156
-304.837	395.860	0.125	-0.258
-303.822	-10.356	-0.276	0.181
-302.807	662.233	-0.043	0.109
-301.793	777.832	-0.067	-0.181
-300.778	-28.291	-0.102	0.058
-299.764	800.000	0.056	-0.181
-298.749	0.764	-0.131	-0.092
-297.735	-0.467	0.157	0.110
-296.720	3.923	0.132	-0.095
-295.705	-133.164	-0.210	0.026
-294.691	-72.513	0.062	0.023
-293.676	-200.000	0.016	0.344
-292.662	-95.939	0.200	-0.053
-291.647	-144.629	-0.208	-0.019
-290.632	-200.000	-0.022	-0.127
-289.618	-95.493	-0.070	0.019
-288.603	189.596	0.153	0.227
-287.589	-124.337	0.306	0.047
-286.574	-200.000	0.062	-0.348
-285.559	-150.858	0.127	-0.009
-284.545	-33.351	-0.158	0.087
-283.530	2.912	-0.124	-0.089
-282.516	316.679	-0.119	-0.223
-281.501	-72.237	-0.210	-0.077
-280.486	-83.928	0.315	-0.099
-279.472	398.702	-0.081	0.168
-278.457	-60.424	0.102	0.043
-277.443	-9.619	0.224	0.147
-276.428	-66.427	0.178	0.070
-275.413	800.000	0.073	0.245
-274.399	-200.000	-0.058	0.311
-273.384	-5.133	0.107	-0.073
-272.370	94.691	-0.110	0.124
-271.355	171.039	0.041	0.058
-270.340	78.068	-0.104	-0.110
-269.326	62.206	-0.212	0.209
-268.311	-200.000	0.034	0.181
-267.297	1.106	0.303	0.215
-266.282	358.766	0.043	-0.085
-265.267	-200.000	-0.027	-0.294
-264.253	-115.194	-0.296	-0.055
-263.238	496.442	-0.064	-0.146
-262.224	42.980	-0.148	-0.133
-261.209	800.000	-0.101	0.338
-260.195	-117.467	0.512	0.091
-259.180	669.901	0.071	0.182
-258.165	305.476	0.033	0.061
-257.151	22.881	0.024	-0.019
-256.136	-10.225	-0.124	0.081
-255.122	800.000	-0.104	-0.320
-254.107	9.262	-0.060	0.045
-253.092	-42.492	0.069	0.035
-252.078	800.000	0.063	-0.226
-251.063	800.000	-0.018	-0.058
-250.049	70.384	-0.115	0.117
-249.034	-96.079	-0.230	0.060
-248.019	751.549	0.029	0.077
-247.005	161.431	-0.071	0.098
-245.990	561.354	0.095	-0.226
-244.976	196.809	-0.123	0.185
-243.961	-15.454	0.104	-0.066
-242.946	-166.379	0.101	0.004
-241.932	-93.897	0.188	-0.051
-240.917	-131.867	0.172	-0.022
-239.903	-82.529	-0.227	-0.073
-238.888	-14.186	0.132	0.084
-237.873	-9.523	-0.147	0.097
-236.859	-92.672	0.205	-0.057
-235.844	388.278	-0.021	0.042
-234.830	-139.706	0.396	-0.042
-233.815	58.688	0.060	-0.058
-232.800	-200.000	-0.112	-0.789
-231.786	160.806	-0.149	0.205
-230.771	53.109	0.076	-0.071
-229.757	-91.232	-0.308	0.087
-228.742	-26.343	-0.033	-0.019
-227.727	117.065	-0.085	0.103
-226.713	800.000	-0.076	0.307
-225.698	-19.965	-0.060	-0.037
-224.684	60.499	0.291	-0.285
-223.669	800.000	0.036	-0.142
-222.655	-200.000	0.019	-0.188
-221.640	-69.810	0.190	-0.072
-220.625	78.095	0.289	0.304
-219.611	-200.000	0.007	0.306
-218.596	210.211	-0.027	0.041
-217.582	-58.154	-0.131	0.056
-216.567	95.304	0.138	0.155
-215.552	-16.125	0.150	-0.094
-214.538	569.243	-0.169	0.405
-213.523	94.463	0.294	0.329
-212.509	231.168	0.034	-0.054
-211.494	-114.645	-0.267	0.050
-210.479	-162.515	-0.152	-0.007
-209.465	-161.387	-0.086	0.004
-208.450	-200.000	-0.014	-0.204
-207.436	-46.700	-0.188	0.091
-206.421	-39.120	0.470	-0.244
-205.406	-200.000	-0.016	-0.122
-204.392	644.321	0.021	0.053
-203.377	-2.074	0.256	0.177
-202.363	-77.297	0.268	-0.092
-201.348	-21.533	-0.111	-0.067
-200.333	-13.580	-0.118	0.075
-199.319	73.191	-0.106	0.109
-198.304	-200.000	0.013	-0.151
-197.290	800.000	-0.074	-0.255
-196.275	-114.531	-0.119	-0.023
-195.260	21.478	-0.052	0.042
-194.246	138.940	-0.068	-0.087
-193.231	36.222	0.129	0.112
-192.217	246.997	0.022	0.036
-191.202	146.796	-0.227	0.300
-190.187	248.633	-0.159	-0.265
-189.173	-200.000	0.000	0.108
-188.158	-200.000	0.000	0.080
-187.144	800.000	0.061	0.222
-186.129	-200.000	-0.013	0.362
-185.114	3.659	0.297	0.214
-184.100	-104.542	-0.079	-0.018
-183.085	386.107	-0.134	-0.272
-182.071	88.025	-0.078	-0.085
-181.056	-74.861	0.583	0.206
-180.042	26.697	-0.373	0.307
-179.027	240.601	0.077	0.126
-178.012	-114.683	0.202	0.038
-176.998	248.091	0.045	-0.076
-175.983	-66.856	0.210	-0.082
-174.969	357.445	0.160	-0.313
-173.954	800.000	0.071	0.231
-172.939	-102.427	0.214	-0.051
-171.925	-29.949	0.043	0.024
-170.910	-92.282	0.155	0.043
-169.896	-89.561	-0.082	0.024
-168.881	262.729	0.048	-0.082
-167.866	113.920	-0.241	0.289
-166.852	129.808	-0.201	0.253
-165.837	-58.104	-0.262	0.113
-164.823	800.000	-0.135	0.486
-163.808	-25.445	-0.335	0.195
-162.793	-68.563	-0.047	0.018
-161.779	154.258	-0.171	-0.231
-160.764	249.714	0.177	-0.296
-159.750	486.061	-0.134	-0.300
-158.735	-52.187	0.301	-0.137
-157.720	800.000	-0.039	-0.136
-156.706	-200.000	-0.019	-0.089
-155.691	318.786	0.032	0.059
-154.677	-200.000	0.024	0.277
-153.662	800.000	0.077	0.248
-152.647	800.000	-0.010	0.040
-151.633	-174.218	-0.219	0.006
-150.618	311.278	-0.094	-0.172
-149.604	61.873	-0.115	-0.112
-148.589	-58.856	-0.218	0.093
-147.574	200.280	0.190	-0.286
-146.560	24.705	-0.128	-0.104
-145.545	524.923	0.058	-0.135
-144.531	-84.796	-0.056	0.017
-143.516	461.921	0.046	-0.102
-142.502	-60.630	-0.105	0.044
-141.487	-200.000	-0.029	0.300
-140.472	-27.582	-0.206	0.118
-139.458	-200.000	0.002	-0.119
-138.443	-148.820	0.478	-0.038
-137.429	26.102	0.189	0.155
-136.414	-200.000	0.011	-0.343
-135.399	10.101	-0.088	-0.066
-134.385	-200.000	-0.455	-0.001
-133.370	-10.085	-0.428	0.279
-132.356	536.159	-0.020	0.046
-131.341	-62.530	0.253	-0.103
-130.326	-8.028	-0.177	0.117
-129.312	-115.374	-0.414	0.077
-128.297	-102.651	-0.027	0.006
-127.283	-41.452	-0.287	0.145
-126.268	-16.558	-0.123	0.077
-125.253	-45.269	-0.343	-0.167
-124.239	187.541	0.096	-0.140
-123.224	54.246	-0.121	0.114
-122.210	210.755	0.030	0.046
-121.195	800.000	0.079	-0.238
-120.180	130.623	-0.117	-0.147
-119.166	-101.016	0.377	0.091
-118.151	-200.000	0.001	-0.163
-117.137	-200.000	0.011	-0.304
-116.122	-59.754	-0.276	0.116
-115.107	584.064	-0.101	0.243
-114.093	-200.000	-0.027	0.374
-113.078	83.806	-0.042	-0.045
-112.064	-120.371	0.135	-0.023
-111.049	11.310	-0.187	0.140
-110.034	72.922	0.073	-0.075
-109.020	50.949	-0.218	0.203
-108.005	168.261	0.108	0.150
-106.991	-200.000	0.314	0.001
-105.976	-200.000	0.027	-0.118
-104.962	800.000	-0.047	0.133
-103.947	301.231	0.015	0.027
-102.932	-200.000	0.005	-0.164
-101.918	-163.614	0.206	0.010
-100.903	-200.000	0.023	-0.137
-99.889	-200.000	-0.015	0.072
-98.874	-5.577	0.166	-0.112
-97.859	-200.000	0.321	-0.001
-96.845	-200.000	0.000	-0.065
-95.830	97.001	0.233	-0.262
-94.816	125.566	0.218	0.270
-93.801	-68.938	-0.250	-0.095
-92.786	13.211	-0.065	-0.050
-91.772	488.682	0.068	0.153
-90.757	-16.376	-0.182	0.113
-89.743	26.904	-0.376	-0.310
-88.728	-79.791	-0.155	-0.051
-87.713	-23.991	0.173	0.101
-86.699	-172.899	-0.209	-0.006
-85.684	-200.000	-0.010	-0.145
-84.670	235.096	-0.050	-0.082
-83.655	-64.065	0.398	0.159
-82.640	-200.000	0.017	0.139
-81.626	-97.744	0.335	0.085
-80.611	9.724	0.228	0.169
-79.597	7.374	0.385	0.282
-78.582	-34.355	-0.138	-0.074
-77.567	-83.147	0.088	0.028
-76.553	-67.182	0.124	-0.048
-75.538	-200.000	-0.002	0.233
-74.524	141.628	0.152	0.198
-73.509	-76.120	-0.234	0.081
-72.494	800.000	0.090	0.303
-71.480	-200.000	0.022	0.106
-70.465	-163.622	-0.170	0.008
-69.451	-200.000	0.012	0.275
-68.436	536.521	0.040	0.094
-67.422	73.072	0.113	-0.115
-66.407	800.000	-0.080	0.224
-65.392	1.903	0.086	0.061
-64.378	-158.677	0.172	0.010
-63.363	747.144	0.059	0.157
-62.349	342.214	0.190	0.363
-61.334	46.898	-1.396	-1.272
-60.319	-69.772	0.628	0.235
-59.305	119.871	-0.895	-1.087
-58.290	362.073	0.593	1.165
-57.276	800.000	0.367	1.401
-56.261	-200.000	106.319	623.309
-55.246	519.779	1514.790	3477.131
-54.232	174.614	2713.547	3844.853
-53.217	104.889	2298.497	2654.607
-52.203	38.532	1902.794	1661.750
-51.188	32.390	1689.294	1428.771
-50.173	29.812	1645.099	1372.243
-49.159	48.972	1699.793	1562.886
-48.144	49.088	1715.009	1577.688
-47.130	31.966	1672.134	1410.843
-46.115	29.212	1657.817	1378.145
-45.100	29.221	1652.085	1373.393
-44.086	29.134	1649.688	1370.694
-43.071	29.046	1647.287	1367.989
-42.057	28.995	1644.754	1365.459
-41.042	29.037	1642.772	1364.067
-40.027	29.086	1640.778	1362.721
-39.013	28.999	1639.228	1360.734
-37.998	29.040	1637.678	1359.700
-36.984	29.119	1636.158	1358.964
-35.969	29.146	1634.701	1357.897
-34.954	29.212	1633.003	1356.926
-33.940	29.178	1631.310	1355.215
-32.925	29.209	1629.288	1353.704
-31.911	29.211	1627.483	1352.170
-30.896	29.161	1626.018	1350.527
-29.881	29.169	1624.300	1349.110
-28.867	29.213	1622.661	1348.016
-27.852	29.092	1621.400	1346.029
-26.838	29.240	1619.704	1345.651
-25.823	29.119	1618.801	1343.962
-24.809	29.250	1617.558	1343.830
-23.794	29.187	1615.961	1341.990
-22.779	29.196	1614.091	1340.454
-21.765	29.163	1612.304	1338.673
-20.750	29.172	1611.338	1337.886
-19.736	29.295	1609.036	1336.810
-18.721	29.196	1608.078	1335.244
-17.706	29.202	1606.527	1333.947
-16.692	29.220	1604.999	1332.760
-15.677	29.204	1603.912	1331.686
-14.663	29.195	1602.759	1330.610
-13.648	29.176	1601.679	1329.525
-12.633	29.273	1599.579	1328.428
-11.619	29.288	1597.771	1326.982
-10.604	29.223	1596.885	1325.726
-9.590	29.275	1595.662	1325.032
-8.575	29.329	1593.891	1323.896
-7.560	29.161	1593.432	1322.256
-6.546	29.285	1591.486	1321.480
-5.531	29.211	1590.846	1320.363
-4.517	29.234	1589.689	1319.512
-3.502	29.194	1588.499	1318.191
-2.487	29.260	1587.102	1317.448
-1.473	28.960	1575.101	1305.307
-0.458	26.275	1555.774	1270.389
0.556	20.549	1557.387	1240.203
1.571	18.535	1582.302	1245.318
2.586	18.387	1595.813	1254.760
3.600	16.641	1542.838	1200.622
4.615	8.781	1433.692	1063.582
5.629	1.255	1369.618	968.083
6.644	-0.130	1361.739	953.637
7.659	-0.355	1361.028	951.630
8.673	-0.339	1359.972	950.909
9.688	-0.436	1358.170	948.947
10.702	-0.637	1354.651	945.135
11.717	2.499	1361.283	969.558
12.731	11.750	1378.548	1040.864
13.746	19.331	1391.542	1099.102
14.761	21.389	1394.105	1114.160
15.775	21.660	1393.782	1115.526
16.790	21.689	1393.125	1115.086
17.804	21.815	1392.462	1115.256
18.819	22.019	1392.587	1116.558
19.834	22.044	1391.842	1116.018
20.848	22.115	1391.270	1115.912
21.863	22.116	1390.169	1114.939
22.877	22.177	1389.195	1114.446
23.892	22.142	1388.254	1113.369
24.907	22.095	1387.976	1112.751
25.921	22.144	1386.661	1111.908
26.936	22.243	1385.497	1111.503
27.950	22.092	1384.404	1109.576
28.965	22.228	1383.256	1109.411
29.980	22.202	1381.816	1107.995
30.994	22.171	1381.014	1107.060
32.009	22.137	1379.914	1105.869
33.023	22.136	1378.655	1104.756
34.038	22.125	1377.364	1103.551
35.053	22.073	1376.925	1102.776
36.067	22.149	1376.001	1102.418
37.082	22.056	1374.866	1100.829
38.096	22.177	1373.542	1100.424
39.111	22.136	1372.757	1099.445
40.126	22.134	1372.704	1099.288
41.140	22.082	1371.896	1098.219
42.155	22.279	1371.291	1098.869
43.169	22.181	1371.704	1098.494
44.184	22.099	1371.635	1097.826
45.199	22.094	1370.700	1096.947
46.213	22.189	1369.817	1096.738
47.228	22.120	1369.302	1095.798
48.242	22.196	1367.808	1094.978
49.257	22.187	1366.103	1093.463
50.271	22.132	1365.143	1092.258
51.286	22.152	1363.452	1090.929
52.301	22.179	1362.384	1090.144
53.315	22.109	1361.657	1089.037
54.330	22.131	1360.823	1088.407
55.344	22.119	1359.404	1087.105
56.359	22.068	1358.550	1086.010
57.374	22.077	1358.204	1085.689
58.388	22.120	1357.245	1085.095
59.403	22.195	1357.062	1085.312
60.417	22.176	1356.113	1084.344
61.432	22.116	1355.596	1083.462
62.447	22.038	1354.441	1081.963
63.461	22.178	1353.000	1081.577
64.476	22.117	1352.671	1080.844
65.490	22.150	1351.035	1079.645
66.505	22.113	1349.832	1078.358
67.520	22.126	1348.785	1077.505
68.534	22.143	1347.546	1076.527
69.549	22.124	1346.304	1075.321
70.563	22.212	1345.418	1075.055
71.578	22.073	1344.546	1073.417
72.593	22.186	1343.531	1073.203
73.607	22.228	1342.827	1072.798
74.622	22.167	1341.914	1071.606
75.636	22.272	1341.432	1071.762
76.651	22.148	1340.840	1070.442
77.666	22.247	1340.223	1070.454
78.680	22.126	1340.141	1069.560
79.695	22.101	1339.553	1068.844
80.709	22.114	1338.374	1067.889
81.724	22.116	1337.745	1067.303
82.739	22.092	1336.336	1065.937
83.753	22.065	1335.187	1064.763
84.768	22.146	1333.692	1063.968
85.782	22.245	1332.860	1063.812
86.797	22.069	1331.941	1061.920
87.812	22.106	1331.031	1061.319
88.826	22.200	1329.778	1060.799
89.841	22.174	1328.609	1059.616
90.855	22.227	1327.811	1059.203
91.870	22.129	1326.908	1057.796
92.884	22.170	1326.288	1057.455
93.899	22.218	1325.494	1057.017
94.914	22.193	1324.733	1056.171
95.928	22.262	1323.418	1055.443
96.943	22.221	1322.624	1054.470
97.957	22.235	1321.741	1053.755
98.972	22.222	1321.156	1053.115
99.987	22.280	1319.868	1052.342
101.001	22.192	1319.193	1051.190
102.016	22.176	1318.551	1050.486
103.030	22.182	1317.339	1049.464
104.045	22.163	1316.839	1048.858
105.060	22.219	1315.400	1047.956
106.074	22.352	1314.530	1047.962
107.089	22.234	1313.851	1046.626
108.103	22.264	1312.598	1045.711
109.118	22.192	1311.487	1044.304
110.133	22.262	1310.315	1043.699
111.147	22.354	1308.717	1042.880
112.162	22.287	1307.825	1041.679
113.176	22.324	1306.900	1041.069
114.191	22.278	1305.880	1039.893
115.206	22.323	1305.027	1039.384
116.220	22.229	1303.523	1037.539
117.235	22.284	1302.508	1036.966
118.249	22.330	1301.882	1036.644
119.264	22.236	1300.941	1035.249
120.279	22.260	1300.208	1034.721
121.293	22.396	1299.230	1034.645
122.308	22.405	1298.695	1034.184
123.322	22.250	1297.540	1032.264
124.337	22.273	1296.960	1031.842
125.352	22.440	1295.609	1031.655
126.366	22.414	1294.482	1030.518
127.381	22.377	1293.575	1029.488
128.395	22.345	1292.890	1028.665
129.410	22.396	1291.753	1027.964
130.424	22.337	1291.337	1027.199
131.439	22.323	1290.226	1026.140
132.454	22.336	1289.601	1025.629
133.468	22.316	1288.693	1024.702
134.483	22.321	1288.265	1024.295
135.497	22.312	1287.611	1023.638
136.512	22.226	1286.361	1022.049
137.527	22.359	1285.097	1021.729
138.541	22.333	1283.465	1020.190
139.556	22.327	1282.497	1019.293
140.570	22.287	1281.760	1018.390
141.585	22.237	1280.890	1017.321
142.600	22.268	1279.641	1016.414
143.614	22.375	1278.814	1016.287
144.629	22.182	1278.165	1014.564
145.643	22.282	1276.675	1013.868
146.658	22.231	1275.681	1012.695
147.673	22.362	1274.171	1012.161
148.687	22.217	1273.790	1010.939
149.702	22.199	1272.619	1009.813
150.716	22.362	1271.069	1009.428
151.731	22.386	1270.066	1008.683
152.746	22.356	1269.204	1007.736
153.760	22.325	1268.281	1006.739
154.775	22.352	1267.189	1005.936
155.789	22.305	1266.644	1005.143
156.804	22.413	1265.304	1004.608
157.819	22.362	1264.473	1003.572
158.833	22.416	1263.468	1002.991
159.848	22.372	1263.182	1002.426
160.862	22.259	1262.934	1001.494
161.877	22.386	1261.630	1001.094
162.892	22.376	1260.761	1000.261
163.906	22.285	1260.193	999.205
164.921	22.484	1259.155	999.421
165.935	22.516	1258.050	998.638
166.950	22.392	1258.125	997.907
167.964	22.419	1257.307	997.321
168.979	22.547	1256.186	997.070
169.994	22.544	1256.044	996.854
171.008	22.548	1255.163	996.087
172.023	22.396	1254.750	994.810
173.037	22.463	1253.774	994.331
174.052	22.500	1252.854	993.719
175.067	22.529	1251.955	993.079
176.081	22.547	1251.092	992.414
177.096	22.473	1250.431	991.379
178.110	22.501	1249.760	990.920
179.125	22.595	1248.556	990.407
180.140	22.498	1247.368	988.832
181.154	22.583	1246.457	988.497
182.169	22.329	1245.859	986.512
183.183	22.522	1244.515	986.440
184.198	22.554	1243.376	985.633
185.213	22.631	1242.643	985.395
186.227	22.553	1241.821	984.219
187.242	22.456	1240.898	982.861
188.256	22.517	1240.122	982.495
189.271	22.638	1239.151	982.312
190.286	22.532	1238.268	980.937
191.300	22.552	1237.745	980.546
192.315	22.450	1237.661	979.828
193.329	22.491	1237.128	979.544
194.344	22.524	1236.758	979.348
195.359	22.577	1235.411	978.494
196.373	22.617	1235.315	978.550
197.388	22.577	1234.574	977.654
198.402	22.627	1234.123	977.487
199.417	22.470	1234.297	976.670
200.432	22.494	1233.698	976.243
201.446	22.474	1233.067	975.546
202.461	22.455	1232.174	974.648
203.475	22.554	1231.056	974.226
204.490	22.584	1230.235	973.654
205.504	22.596	1229.548	973.093
206.519	22.725	1228.044	972.526
207.534	22.656	1227.300	971.471
208.548	22.624	1226.419	970.509
209.563	22.765	1225.437	970.425
210.577	22.586	1225.202	969.164
211.592	22.654	1224.206	968.667
212.607	22.695	1223.557	968.295
213.621	22.777	1222.781	968.040
214.636	22.632	1222.245	966.739
215.650	22.650	1221.578	966.224
216.665	22.651	1220.408	965.217
217.680	22.583	1219.668	964.176
218.694	22.658	1218.435	963.525
219.709	22.556	1218.146	962.654
220.723	22.682	1217.365	962.641
221.738	22.624	1216.531	961.580
222.753	22.649	1215.606	960.897
223.767	22.768	1214.678	960.726
224.782	22.732	1214.767	960.518
225.796	22.783	1214.070	960.158
226.811	22.754	1213.876	959.763
227.826	22.728	1213.150	958.963
228.840	22.756	1212.354	958.402
229.855	22.797	1211.533	957.890
230.869	22.768	1210.983	957.211
231.884	22.807	1209.765	956.375
232.899	22.683	1209.617	955.501
233.913	22.828	1208.785	955.545
234.928	22.898	1208.305	955.462
235.942	22.839	1207.696	954.575
236.957	22.917	1206.988	954.355
237.972	22.795	1206.431	953.168
238.986	22.826	1205.482	952.504
240.001	22.817	1205.397	952.304
241.015	22.917	1204.646	952.161
242.030	22.930	1203.281	951.068
243.045	22.837	1203.127	950.367
244.059	22.946	1201.975	949.953
245.074	22.997	1201.037	949.407
246.088	22.986	1200.342	948.711
247.103	22.964	1199.348	947.726
248.117	22.864	1199.034	946.855
249.132	22.950	1197.937	946.364
250.147	22.984	1197.318	945.975
251.161	23.119	1196.219	945.748
252.176	22.971	1196.052	944.741
253.190	23.034	1195.578	944.618
254.205	23.067	1194.920	944.191
255.220	22.993	1194.017	942.998
256.234	22.937	1193.622	942.303
257.249	22.959	1193.000	941.848
258.263	22.967	1192.524	941.430
259.278	23.050	1191.878	941.279
260.293	23.056	1191.302	940.775
261.307	23.184	1190.559	940.781
262.322	23.105	1189.877	939.739
263.336	22.999	1189.770	939.011
264.351	23.131	1188.868	938.916
265.366	23.005	1188.215	937.651
266.380	23.148	1187.443	937.717
267.395	23.020	1186.790	936.439
268.409	23.025	1186.384	936.062
269.424	23.054	1185.589	935.504
270.439	23.098	1185.344	935.462
271.453	23.114	1184.452	934.759
272.468	23.025	1183.625	933.556
273.482	22.967	1183.206	932.836
274.497	23.137	1182.607	933.176
275.512	23.168	1182.156	932.901
276.526	23.043	1181.678	931.786
277.541	23.201	1180.713	931.771
278.555	23.278	1179.899	931.452
279.570	23.235	1179.759	931.034
280.585	23.203	1178.573	929.849
281.599	23.215	1177.915	929.310
282.614	23.210	1176.609	928.169
283.628	23.177	1175.850	927.315
284.643	23.188	1174.960	926.589
285.657	23.229	1174.066	926.017
286.672	23.261	1173.462	925.624
287.687	23.349	1172.424	925.184
288.701	23.315	1171.788	924.423
289.716	23.368	1170.892	923.909
290.730	23.338	1170.481	923.348
291.745	23.299	1169.948	922.645
292.760	23.285	1169.564	922.186
293.774	23.341	1168.797	921.789
294.789	23.348	1168.475	921.492
295.803	23.405	1167.719	921.109
296.818	23.451	1167.134	920.804
297.833	23.366	1166.542	919.816
298.847	23.335	1166.068	919.199
299.862	23.409	1164.507	918.272
300.876	23.427	1164.349	918.157
301.891	23.472	1163.615	917.732
302.906	23.520	1162.979	917.400
303.920	23.456	1162.839	916.877
304.935	23.614	1161.773	916.768
305.949	23.455	1161.466	915.625
306.964	23.481	1160.758	915.123
307.979	23.477	1160.003	914.424
308.993	23.563	1158.948	913.953
310.008	23.618	1158.262	913.617
311.022	23.556	1157.626	912.713
312.037	23.460	1156.770	911.467
313.052	23.446	1155.988	910.697
314.066	23.502	1155.118	910.220
315.081	23.434	1154.849	909.575
316.095	23.583	1154.224	909.765
317.110	23.496	1153.415	908.604
318.125	23.611	1152.735	908.576
319.139	23.624	1152.030	908.005
320.154	23.633	1151.164	907.292
321.168	23.654	1150.837	907.060
322.183	23.599	1150.468	906.408
323.197	23.501	1150.163	905.583
324.212	23.485	1149.337	904.775
325.227	23.520	1149.066	904.659
326.241	23.700	1148.175	904.797
327.256	23.625	1147.495	903.798
328.270	23.668	1146.725	903.328
329.285	23.726	1145.411	902.508
330.300	23.696	1144.796	901.792
331.314	23.771	1144.127	901.564
332.329	23.774	1143.467	900.980
333.343	23.785	1142.250	899.996
334.358	23.815	1141.386	899.389
335.373	23.786	1141.297	899.092
336.387	23.725	1140.800	898.315
337.402	23.782	1139.495	897.493
338.416	23.712	1139.391	896.981
339.431	23.761	1138.735	896.629
340.446	23.813	1138.014	896.246
341.460	23.980	1137.025	896.227
342.475	23.810	1136.333	894.750
343.489	23.865	1135.544	894.327
344.504	23.860	1134.872	893.691
345.519	23.905	1133.915	893.087
346.533	23.902	1133.186	892.415
347.548	24.042	1132.362	892.393
348.562	23.846	1131.838	890.915
349.577	23.915	1131.012	890.534
350.592	23.872	1130.198	889.600
351.606	23.854	1129.759	889.085
352.621	23.907	1129.284	888.895
353.635	23.946	1128.738	888.582
354.650	23.984	1128.147	888.231
355.665	23.986	1127.416	887.587
356.679	24.063	1126.249	886.970
357.694	23.969	1126.259	886.434
358.708	23.996	1125.438	885.842
359.723	24.020	1124.347	885.022
360.738	24.019	1124.014	884.680
361.752	24.095	1123.332	884.440
362.767	23.992	1123.271	883.802
363.781	24.115	1122.359	883.619
364.796	24.122	1121.867	883.189
365.810	24.093	1121.175	882.422
366.825	24.048	1120.572	881.643
367.840	24.190	1120.054	881.861
368.854	24.150	1119.880	881.448
369.869	24.131	1118.998	880.584
370.883	24.219	1118.022	880.170
371.898	24.217	1117.194	879.431
372.913	24.173	1116.602	878.670
373.927	24.218	1116.132	878.447
374.942	24.189	1115.743	877.920
375.956	24.247	1115.216	877.714
376.971	24.238	1114.711	877.193
377.986	24.178	1114.522	876.672
379.000	24.247	1113.886	876.431
380.015	24.369	1112.926	876.198
381.029	24.315	1112.283	875.350
382.044	24.222	1111.886	874.502
383.059	24.271	1110.967	873.944
384.073	24.288	1110.636	873.688
385.088	24.365	1109.703	873.255
386.102	24.299	1108.527	871.932
387.117	24.220	1108.209	871.218
388.132	24.320	1107.256	870.878
389.146	24.442	1106.148	870.525
390.161	24.366	1105.598	869.643
391.175	24.339	1105.112	869.056
392.190	24.311	1104.802	868.595
393.205	24.367	1104.016	868.177
394.219	24.435	1102.911	867.557
395.234	24.435	1102.234	866.950
396.248	24.518	1101.101	866.385
397.263	24.472	1100.291	865.446
398.278	24.479	1100.041	865.208
399.292	24.589	1099.524	865.257
400.307	24.503	1098.773	864.175
401.321	24.535	1098.361	863.926
402.336	24.684	1097.324	863.758
403.350	24.511	1096.582	862.260
404.365	24.548	1096.239	862.096
405.380	24.501	1095.697	861.363
406.394	24.632	1094.701	861.138
407.409	24.651	1093.932	860.547
408.423	24.662	1093.180	859.933
409.438	24.665	1092.385	859.246
410.453	24.689	1091.873	858.880
411.467	24.660	1091.186	858.124
412.482	24.643	1090.346	857.309
413.496	24.543	1090.338	856.745
414.511	24.659	1089.355	856.454
415.526	24.658	1088.790	855.926
416.540	24.692	1088.709	855.952
417.555	24.707	1087.749	855.193
418.569	24.779	1087.260	855.079
419.584	24.755	1086.756	854.491
420.599	24.696	1086.649	854.048
421.613	148.597	1402.634	1798.305
422.628	137.385	1448.637	1798.392
