DTS Sentinel unit serial number:	SN413079Multiplexer serial number:	ORYXHardware model number:	OX4-SRSoftware version number:	ORYX F/W v4.00 Oryx Data Collector v3.7.2.0data status	okinstallation	princeton_trtdifferential loss correction	single-endedforward channel	channel 2reverse channel	N/Adate	2019/09/11time	01:29:11forward acquisition time	60.00reverse acquisition time	0.00gamma	496.2192k internal	0.2332k external	0.2332temperature offset calibration	0.9942default loss term (dB/km)	0.3790temperature slope calibration	1.0000multiplexer offset coefficient	1.0000multiplexer slope coefficient	1.0000fibre end	0.00T internal ref (°C)	29.12T ext. ref 1 (°C)	-0.31T ext. ref 2 (°C)	23.47length (m)	temperature (°C)	Stokes	anti-Stokes-747.200	-165.856	0.255	-0.011
-746.185	-200.000	0.004	-0.103
-745.171	21.666	0.326	0.267
-744.156	-43.335	-0.322	0.164
-743.142	-111.133	-0.161	-0.033
-742.127	-200.000	-0.019	0.092
-741.112	-200.000	0.013	0.142
-740.098	686.812	0.110	0.289
-739.083	354.680	0.157	-0.314
-738.069	160.232	-0.060	0.084
-737.054	-127.219	0.103	-0.015
-736.039	429.771	-0.054	-0.118
-735.025	800.000	0.059	0.165
-734.010	-9.891	0.064	-0.043
-732.996	53.125	-0.018	0.017
-731.981	515.802	-0.084	-0.197
-730.966	197.550	0.241	-0.370
-729.952	12.021	-0.293	-0.226
-728.937	-3.164	-0.296	0.208
-727.923	-136.420	-0.291	-0.034
-726.908	473.385	-0.087	-0.198
-725.894	95.368	0.153	0.175
-724.879	221.827	-0.217	0.351
-723.864	-200.000	0.006	-0.253
-722.850	-19.009	-0.237	-0.148
-721.835	12.167	-0.087	-0.068
-720.821	800.000	-0.071	-0.245
-719.806	143.367	-0.050	0.067
-718.791	192.980	-0.082	0.124
-717.777	379.332	0.182	-0.375
-716.762	-54.192	-0.214	0.098
-715.748	-24.515	0.161	0.096
-714.733	11.873	0.190	-0.147
-713.718	90.379	0.181	0.204
-712.704	-200.000	0.014	0.208
-711.689	800.000	-0.032	0.112
-710.675	-7.324	-0.222	-0.151
-709.660	-200.000	-0.003	-0.252
-708.645	56.084	0.069	-0.067
-707.631	-85.272	0.106	0.033
-706.616	243.704	0.152	-0.257
-705.602	-9.366	-0.272	-0.182
-704.587	-58.630	-0.120	-0.052
-703.572	-200.000	-0.029	-0.219
-702.558	-62.689	0.145	0.060
-701.543	93.256	0.262	-0.298
-700.529	-128.718	-0.019	-0.003
-699.514	131.263	-0.177	-0.229
-698.499	23.814	0.196	-0.162
-697.485	-24.706	0.189	-0.113
-696.470	785.693	-0.160	-0.442
-695.456	-200.000	-0.012	0.055
-694.441	-89.382	-0.307	-0.091
-693.426	-119.102	-0.307	0.054
-692.412	555.436	-0.096	0.233
-691.397	800.000	0.002	-0.007
-690.383	13.986	0.103	0.081
-689.368	39.424	0.149	-0.134
-688.354	263.686	0.160	-0.280
-687.339	-82.303	0.185	0.060
-686.324	-86.503	-0.198	0.061
-685.310	-182.798	-0.302	0.005
-684.295	-200.000	0.003	-0.295
-683.281	151.654	0.105	0.143
-682.266	-200.000	-0.002	-0.076
-681.251	-200.000	0.001	-0.230
-680.237	-160.895	-0.235	0.012
-679.222	-27.433	0.174	-0.102
-678.208	-36.932	-0.230	-0.124
-677.193	-200.000	0.022	0.133
-676.178	-87.756	-0.144	0.044
-675.164	-139.620	-0.304	-0.032
-674.149	104.364	-0.066	-0.078
-673.135	167.341	0.093	0.132
-672.120	-76.364	0.397	-0.140
-671.105	-200.000	-0.036	0.343
-670.091	-200.000	-0.007	0.099
-669.076	46.324	0.073	0.068
-668.062	-123.992	-0.457	-0.072
-667.047	261.476	-0.052	-0.091
-666.032	162.671	0.073	-0.103
-665.018	22.304	-0.162	-0.133
-664.003	63.318	0.223	-0.224
-662.989	-147.674	0.315	-0.027
-661.974	162.487	0.131	-0.184
-660.959	-130.451	0.233	0.032
-659.945	-63.328	-0.264	0.109
-658.930	-31.598	0.199	0.112
-657.916	800.000	0.046	-0.201
-656.901	163.515	-0.140	-0.197
-655.886	800.000	-0.048	0.191
-654.872	800.000	-0.076	0.274
-653.857	-57.447	0.157	0.069
-652.843	120.957	-0.115	0.143
-651.828	347.432	0.113	-0.222
-650.814	800.000	-0.090	-0.257
-649.799	189.617	-0.072	-0.108
-648.784	-89.359	-0.116	-0.034
-647.770	-200.000	-0.074	0.327
-646.755	-35.049	-0.182	-0.099
-645.741	800.000	-0.094	-0.325
-644.726	-19.402	-0.102	0.063
-643.711	-60.064	0.209	0.089
-642.697	775.107	-0.039	-0.108
-641.682	-151.793	0.504	-0.037
-640.668	-200.000	-0.029	0.202
-639.653	43.411	-0.260	-0.238
-638.638	80.571	-0.142	0.154
-637.624	-180.893	0.054	-0.001
-636.609	659.665	-0.068	-0.176
-635.595	-200.000	-0.017	0.139
-634.580	40.323	-0.138	-0.124
-633.565	116.289	-0.075	0.092
-632.551	65.977	-0.061	-0.062
-631.536	-161.838	0.104	0.005
-630.522	273.011	-0.014	0.025
-629.507	-11.779	-0.114	0.075
-628.492	-200.000	-0.070	0.326
-627.478	-200.000	0.024	0.227
-626.463	-200.000	-0.001	-0.123
-625.449	719.234	0.052	0.140
-624.434	-187.026	0.117	0.002
-623.419	800.000	0.060	0.223
-622.405	-6.779	-0.115	-0.078
-621.390	288.294	-0.066	0.120
-620.376	-79.138	0.307	0.105
-619.361	-39.632	-0.146	0.076
-618.346	257.240	-0.134	-0.231
-617.332	-109.748	0.228	-0.048
-616.317	398.233	0.103	-0.216
-615.303	10.632	-0.013	-0.010
-614.288	470.261	-0.068	-0.154
-613.273	30.045	-0.244	-0.208
-612.259	148.908	-0.241	-0.327
-611.244	15.499	-0.177	-0.139
-610.230	253.626	-0.186	0.319
-609.215	40.803	0.136	0.123
-608.201	-71.647	0.189	0.071
-607.186	-200.000	-0.000	-0.349
-606.171	167.090	0.047	0.067
-605.157	-145.676	-0.175	0.016
-604.142	-200.000	-0.003	-0.132
-603.128	-183.039	0.139	0.002
-602.113	-200.000	-0.046	-0.298
-601.098	-159.503	-0.316	0.018
-600.084	21.407	0.106	-0.086
-599.069	621.565	-0.075	-0.189
-598.055	36.792	0.080	0.071
-597.040	-31.716	0.320	-0.180
-596.025	-200.000	0.011	-0.116
-595.011	-200.000	-0.005	-0.259
-593.996	-200.000	-0.018	-0.110
-592.982	184.668	0.179	0.265
-591.967	2.516	-0.078	0.056
-590.952	800.000	0.041	-0.132
-589.938	780.773	0.076	-0.207
-588.923	-86.709	-0.412	-0.126
-587.909	14.191	-0.196	0.153
-586.894	218.747	0.161	-0.257
-585.879	-180.426	-0.213	0.004
-584.865	188.880	-0.230	-0.344
-583.850	-80.357	0.056	-0.019
-582.836	-146.406	-0.211	-0.018
-581.821	-54.966	0.026	-0.012
-580.806	100.275	0.148	0.172
-579.792	-200.000	-0.055	-0.287
-578.777	-6.157	0.148	0.101
-577.763	94.529	-0.128	-0.146
-576.748	-200.000	-0.001	-0.017
-575.733	-1.576	-0.150	0.106
-574.719	329.494	-0.066	0.127
-573.704	211.105	0.193	-0.303
-572.690	94.607	0.126	0.144
-571.675	-98.287	0.347	0.089
-570.661	-85.012	-0.175	0.055
-569.646	-136.414	0.185	-0.022
-568.631	800.000	0.015	-0.065
-567.617	-200.000	-0.005	-0.492
-566.602	-125.267	-0.383	-0.058
-565.588	8.041	-0.107	-0.080
-564.573	606.332	-0.047	-0.117
-563.558	-200.000	-0.009	-0.060
-562.544	-51.673	0.148	0.069
-561.529	73.488	0.247	-0.259
-560.515	-200.000	0.012	-0.060
-559.500	-200.000	-0.105	-0.493
-558.485	-129.104	0.304	0.043
-557.471	178.227	-0.073	0.106
-556.456	-0.249	-0.189	-0.134
-555.442	71.274	0.051	0.053
-554.427	800.000	-0.075	-0.214
-553.412	753.850	0.141	0.380
-552.398	-154.255	0.208	-0.014
-551.383	-73.701	-0.082	-0.030
-550.369	301.436	0.056	-0.103
-549.354	21.665	0.174	0.141
-548.339	7.996	0.219	-0.164
-547.325	-49.729	-0.557	-0.264
-546.310	-68.200	-0.114	0.044
-545.296	-70.495	0.075	-0.028
-544.281	107.944	-0.167	-0.199
-543.266	-53.291	-0.139	-0.064
-542.252	81.709	-0.217	0.234
-541.237	94.627	-0.191	0.217
-540.223	-90.757	0.158	-0.045
-539.208	-37.910	0.222	0.118
-538.193	800.000	-0.114	-0.356
-537.179	565.654	-0.042	0.102
-536.164	-68.239	-0.286	-0.111
-535.150	-136.793	-0.164	0.019
-534.135	186.826	0.112	0.166
-533.121	713.730	-0.016	0.041
-532.106	-39.448	0.378	0.198
-531.091	-31.638	-0.260	0.146
-530.077	416.489	-0.039	0.084
-529.062	-155.751	0.195	0.012
-528.048	761.160	-0.074	-0.201
-527.033	686.809	0.098	-0.254
-526.018	-72.866	-0.150	-0.055
-525.004	302.516	0.119	0.219
-523.989	-200.000	0.022	-0.137
-522.975	-146.654	0.099	0.009
-521.960	171.076	-0.031	-0.044
-520.945	-200.000	-0.097	0.519
-519.931	38.835	-0.197	0.176
-518.916	-90.341	0.164	0.048
-517.902	-200.000	0.024	0.423
-516.887	-74.280	0.272	0.098
-515.872	-57.034	0.264	-0.116
-514.858	-61.269	0.157	0.066
-513.843	3.240	-0.203	0.147
-512.829	106.707	-0.062	-0.073
-511.814	524.130	0.094	-0.220
-510.799	-72.529	-0.193	0.071
-509.785	-106.241	-0.343	-0.077
-508.770	95.838	0.214	0.243
-507.756	-8.001	-0.014	-0.009
-506.741	800.000	0.064	0.263
-505.726	77.366	-0.122	0.129
-504.712	-200.000	-0.050	0.272
-503.697	116.450	-0.373	-0.456
-502.683	-169.647	-0.029	-0.001
-501.668	-114.611	0.145	-0.028
-500.653	800.000	-0.018	0.077
-499.639	-200.000	-0.031	0.252
-498.624	555.970	-0.099	0.238
-497.610	505.073	0.063	-0.146
-496.595	296.021	0.163	-0.297
-495.581	-9.786	-0.251	-0.167
-494.566	-55.055	0.178	-0.080
-493.551	-0.616	-0.159	0.112
-492.537	-200.000	0.024	-0.228
-491.522	-184.858	0.059	-0.001
-490.508	702.043	0.059	-0.156
-489.493	10.140	0.152	-0.115
-488.478	-64.930	-0.293	0.118
-487.464	-8.124	0.216	0.145
-486.449	349.073	0.004	-0.008
-485.435	337.619	-0.098	0.189
-484.420	-200.000	-0.029	0.132
-483.405	-26.408	0.344	0.201
-482.391	735.938	-0.075	0.201
-481.376	-30.044	-0.247	0.140
-480.362	-140.269	0.327	0.034
-479.347	0.276	-0.110	0.078
-478.332	-77.258	-0.191	-0.066
-477.318	-200.000	-0.001	0.456
-476.303	-200.000	-0.033	-0.183
-475.289	551.555	0.061	0.146
-474.274	-200.000	0.021	0.313
-473.259	-98.312	0.233	-0.059
-472.245	-189.285	0.102	-0.001
-471.230	49.787	0.102	-0.096
-470.216	-65.719	0.158	-0.063
-469.201	7.054	0.220	-0.163
-468.186	800.000	-0.027	-0.088
-467.172	-162.849	-0.353	-0.017
-466.157	202.575	-0.041	0.063
-465.143	307.477	-0.050	0.092
-464.128	800.000	-0.014	-0.050
-463.113	-23.974	-0.099	0.059
-462.099	-75.353	0.118	0.042
-461.084	-159.426	-0.177	-0.010
-460.070	34.531	-0.233	-0.202
-459.055	-200.000	0.009	-0.060
-458.040	-39.830	-0.104	-0.054
-457.026	209.038	0.276	-0.431
-456.011	-200.000	-0.037	0.204
-454.997	455.468	0.135	0.297
-453.982	-142.495	0.088	0.009
-452.968	280.695	0.056	0.099
-451.953	266.146	0.104	0.180
-450.938	-131.216	0.181	0.024
-449.924	246.798	0.229	0.384
-448.909	438.325	-0.046	-0.100
-447.895	0.194	-0.015	-0.011
-446.880	800.000	0.051	-0.194
-445.865	141.011	0.126	-0.165
-444.851	-56.202	-0.140	-0.062
-443.836	-30.882	-0.227	-0.128
-442.822	-200.000	0.025	0.119
-441.807	-154.886	-0.251	0.016
-440.792	98.750	-0.179	0.205
-439.778	796.113	0.049	-0.133
-438.763	-195.374	-0.134	0.001
-437.749	-200.000	0.011	0.051
-436.734	16.177	-0.246	-0.193
-435.719	96.573	-0.120	-0.136
-434.705	-200.000	0.001	0.283
-433.690	-200.000	-0.053	0.265
-432.676	-200.000	0.064	0.438
-431.661	-42.695	-0.206	-0.104
-430.646	-82.315	0.069	-0.022
-429.632	225.358	-0.063	0.101
-428.617	-200.000	-0.016	-0.176
-427.603	800.000	-0.073	-0.250
-426.588	800.000	0.075	-0.210
-425.573	-200.000	0.013	-0.175
-424.559	299.318	0.156	0.285
-423.544	-200.000	-0.255	0.000
-422.530	-200.000	0.008	0.258
-421.515	200.984	-0.105	0.160
-420.500	-155.592	-0.182	-0.012
-419.486	800.000	0.046	-0.148
-418.471	216.698	-0.125	-0.198
-417.457	-57.944	-0.268	0.116
-416.442	534.623	0.068	0.160
-415.428	42.668	0.130	0.117
-414.413	-11.502	0.222	0.145
-413.398	198.248	0.182	0.276
-412.384	-200.000	0.035	0.346
-411.369	-160.374	0.183	0.010
-410.355	800.000	0.108	0.358
-409.340	295.400	0.084	0.153
-408.325	800.000	0.017	-0.072
-407.311	-200.000	0.012	-0.087
-406.296	-48.239	0.263	-0.126
-405.282	125.357	0.087	-0.109
-404.267	-111.340	0.052	0.011
-403.252	-79.796	-0.377	0.126
-402.238	-45.753	0.200	-0.098
-401.223	267.112	-0.221	0.383
-400.209	-83.787	0.117	-0.037
-399.194	170.114	-0.221	0.314
-398.179	57.618	0.130	0.126
-397.165	800.000	0.065	-0.184
-396.150	800.000	-0.088	0.280
-395.136	-200.000	-0.003	0.335
-394.121	-23.060	0.171	0.102
-393.106	-147.503	-0.009	0.001
-392.092	125.182	-0.095	0.119
-391.077	-89.209	0.191	-0.056
-390.063	-78.564	-0.095	-0.032
-389.048	-200.000	-0.033	0.184
-388.033	-174.629	0.403	0.011
-387.019	359.699	-0.086	-0.170
-386.004	-4.419	-0.099	0.068
-384.990	247.858	-0.047	-0.079
-383.975	80.704	0.255	-0.273
-382.960	-188.739	-0.108	0.001
-381.946	-39.019	0.181	-0.095
-380.931	442.025	-0.057	-0.124
-379.917	-200.000	-0.084	-0.412
-378.902	564.306	-0.156	-0.375
-377.888	-79.610	0.236	0.079
-376.873	-154.545	-0.363	0.024
-375.858	-200.000	0.028	0.274
-374.844	800.000	-0.059	-0.219
-373.829	-25.782	-0.353	-0.206
-372.815	-200.000	0.001	-0.086
-371.800	52.265	0.108	-0.102
-370.785	14.358	-0.076	-0.059
-369.771	-74.483	0.121	-0.043
-368.756	-118.593	0.239	0.042
-367.742	145.233	0.071	-0.094
-366.727	-107.906	0.173	0.037
-365.712	-24.902	0.093	-0.055
-364.698	103.856	-0.190	0.222
-363.683	-7.033	-0.263	0.177
-362.669	132.040	-0.044	-0.056
-361.654	-103.968	-0.118	-0.027
-360.639	313.895	-0.092	0.172
-359.625	-62.529	-0.244	-0.100
-358.610	131.453	-0.126	0.161
-357.596	-200.000	0.046	0.242
-356.581	-67.214	-0.372	-0.145
-355.566	800.000	-0.016	-0.061
-354.552	800.000	0.016	-0.048
-353.537	-200.000	0.016	0.184
-352.523	800.000	0.053	-0.182
-351.508	800.000	-0.091	-0.347
-350.493	-24.997	-0.142	0.084
-349.479	800.000	-0.050	0.207
-348.464	119.719	0.071	-0.088
-347.450	-137.641	0.369	0.041
-346.435	-120.476	-0.141	-0.024
-345.420	800.000	0.051	-0.192
-344.406	440.136	0.067	0.144
-343.391	59.365	0.130	0.127
-342.377	-106.804	-0.248	-0.054
-341.362	7.695	-0.095	0.070
-340.348	800.000	-0.076	-0.213
-339.333	784.659	-0.041	0.111
-338.318	-191.721	0.138	-0.001
-337.304	-155.347	-0.444	-0.029
-336.289	455.686	-0.132	-0.289
-335.275	-83.199	-0.125	0.040
-334.260	258.930	-0.128	0.219
-333.245	-105.438	-0.077	-0.017
-332.231	83.570	0.103	0.112
-331.216	-200.000	0.054	0.239
-330.202	-153.664	0.320	-0.022
-329.187	800.000	0.061	-0.255
-328.172	431.624	-0.209	0.449
-327.158	-157.669	-0.152	0.009
-326.143	-5.151	-0.044	0.030
-325.129	281.368	0.037	-0.066
-324.114	99.398	0.290	-0.331
-323.099	383.152	0.155	-0.316
-322.085	687.914	0.063	-0.163
-321.070	-88.339	0.381	-0.113
-320.056	-94.492	0.126	-0.034
-319.041	-200.000	0.056	0.260
-318.026	-81.678	0.042	-0.014
-317.012	271.017	-0.187	-0.325
-315.997	-200.000	-0.065	-0.329
-314.983	407.142	-0.043	-0.089
-313.968	109.703	0.157	0.186
-312.953	-52.738	0.369	0.168
-311.939	419.265	0.171	0.362
-310.924	-35.306	-0.100	-0.054
-309.910	417.730	-0.064	-0.136
-308.895	122.393	0.010	-0.013
-307.880	-123.830	0.030	-0.005
-306.866	65.531	-0.059	0.059
-305.851	-197.046	0.211	-0.001
-304.837	101.932	-0.110	-0.127
-303.822	-96.421	0.168	0.044
-302.807	226.604	-0.133	-0.214
-301.793	21.333	-0.168	-0.135
-300.778	-32.216	-0.297	0.164
-299.764	-83.577	0.341	-0.108
-298.749	-8.373	-0.245	0.163
-297.735	800.000	-0.054	-0.211
-296.720	65.131	-0.086	0.086
-295.705	540.919	-0.098	0.230
-294.691	431.754	-0.119	-0.254
-293.676	-200.000	0.004	0.113
-292.662	-112.505	-0.228	0.045
-291.647	-77.806	-0.116	0.040
-290.632	-138.707	-0.245	-0.026
-289.618	-200.000	0.025	-0.240
-288.603	-200.000	0.020	0.124
-287.589	319.441	-0.106	-0.199
-286.574	800.000	-0.052	-0.192
-285.559	-200.000	0.021	0.141
-284.545	750.104	-0.124	0.331
-283.530	-105.451	-0.257	-0.058
-282.516	-149.232	0.226	-0.018
-281.501	-200.000	-0.002	0.031
-280.486	-172.018	0.295	0.009
-279.472	269.985	0.096	-0.166
-278.457	-54.718	-0.139	-0.062
-277.443	172.197	0.186	0.264
-276.428	-200.000	0.000	0.328
-275.413	3.227	-0.314	-0.226
-274.399	800.000	0.013	0.042
-273.384	39.729	0.268	0.237
-272.370	-18.005	0.072	-0.045
-271.355	-14.387	0.191	-0.122
-270.340	-200.000	-0.024	-0.119
-269.326	800.000	0.043	0.161
-268.311	-57.976	-0.188	0.081
-267.297	-200.000	-0.033	0.234
-266.282	134.102	0.196	-0.250
-265.267	78.446	-0.040	-0.042
-264.253	-24.659	-0.059	0.035
-263.238	800.000	0.063	-0.217
-262.224	55.587	0.024	0.023
-261.209	-200.000	-0.044	0.390
-260.195	325.086	0.070	0.131
-259.180	-132.109	-0.328	0.042
-258.165	-111.733	0.241	-0.048
-257.151	-51.325	0.332	0.153
-256.136	-133.898	-0.273	0.033
-255.122	-133.937	-0.296	-0.036
-254.107	-60.102	-0.115	-0.049
-253.092	-170.773	0.337	-0.011
-252.078	-143.572	-0.086	-0.008
-251.063	-121.585	-0.182	-0.030
-250.049	-90.720	0.333	0.095
-249.034	-133.738	0.298	0.037
-248.019	-139.909	0.369	0.039
-247.005	59.704	-0.234	0.228
-245.990	72.212	0.096	0.099
-244.976	452.171	-0.067	-0.147
-243.961	-148.950	-0.121	0.010
-242.946	300.211	0.165	-0.300
-241.932	31.413	0.161	-0.136
-240.917	324.970	-0.089	-0.168
-239.903	97.542	0.204	-0.231
-238.888	-200.000	0.038	-0.367
-237.873	-195.873	-0.352	0.002
-236.859	301.539	-0.100	0.183
-235.844	533.651	0.134	0.312
-234.830	800.000	-0.056	0.180
-233.815	286.468	-0.100	0.179
-232.800	191.338	0.203	0.301
-231.786	-39.587	0.116	0.060
-230.771	-200.000	-0.019	0.093
-229.757	126.720	0.148	0.184
-228.742	-14.743	-0.134	-0.085
-227.727	-50.697	-0.117	-0.054
-226.713	-13.464	-0.089	0.057
-225.698	-200.000	-0.004	-0.069
-224.684	-96.378	0.394	0.103
-223.669	25.274	-0.059	-0.048
-222.655	647.282	-0.038	-0.095
-221.640	800.000	-0.092	-0.385
-220.625	376.442	-0.088	-0.177
-219.611	-133.279	0.266	-0.033
-218.596	-106.907	0.420	-0.092
-217.582	-200.000	-0.001	-0.130
-216.567	52.016	0.208	0.195
-215.552	198.807	0.082	0.123
-214.538	668.935	-0.088	0.225
-213.523	-200.000	-0.030	-0.142
-212.509	-120.870	0.332	0.055
-211.494	153.153	-0.098	0.132
-210.479	209.447	-0.080	0.123
-209.465	-125.311	-0.130	-0.020
-208.450	-200.000	0.027	0.166
-207.436	216.176	-0.173	0.271
-206.421	235.892	0.147	0.239
-205.406	-18.163	0.303	-0.187
-204.392	-123.087	-0.119	0.019
-203.377	-200.000	-0.030	0.134
-202.363	800.000	0.034	0.137
-201.348	783.153	-0.021	-0.057
-200.333	18.163	0.193	0.152
-199.319	800.000	0.091	-0.356
-198.304	-200.000	0.035	-0.191
-197.290	-110.905	0.434	-0.088
-196.275	800.000	-0.070	-0.210
-195.260	-200.000	-0.008	0.115
-194.246	-112.341	0.439	-0.087
-193.231	-200.000	0.044	-0.266
-192.217	-200.000	0.031	-0.174
-191.202	166.752	-0.023	0.032
-190.187	-7.385	-0.138	-0.092
-189.173	800.000	-0.091	-0.378
-188.158	203.719	-0.032	0.049
-187.144	-200.000	0.017	0.088
-186.129	800.000	0.064	0.245
-185.114	105.994	-0.023	-0.027
-184.100	689.907	-0.038	0.099
-183.085	179.490	0.297	0.427
-182.071	800.000	0.115	-0.356
-181.056	-200.000	0.008	-0.087
-180.042	172.224	0.052	-0.074
-179.027	-200.000	0.053	0.261
-178.012	-45.714	0.087	0.042
-176.998	-99.468	-0.237	-0.059
-175.983	66.604	-0.081	0.081
-174.969	-189.523	-0.230	0.003
-173.954	-66.045	-0.103	-0.041
-172.939	-51.593	0.215	0.099
-171.925	-200.000	0.008	-0.057
-170.910	-149.990	0.191	0.015
-169.896	686.984	0.079	-0.203
-168.881	-93.102	0.140	0.038
-167.866	-116.507	0.427	-0.077
-166.852	-129.195	-0.363	0.050
-165.837	244.344	-0.085	-0.140
-164.823	-167.929	-0.190	-0.007
-163.808	-52.937	0.121	-0.055
-162.793	-41.459	-0.186	-0.094
-161.779	98.264	0.340	-0.385
-160.764	800.000	0.099	-0.357
-159.750	10.308	0.027	-0.020
-158.735	-200.000	-0.012	0.257
-157.720	-1.157	-0.156	0.109
-156.706	-88.277	0.019	-0.006
-155.691	-11.093	-0.107	0.069
-154.677	-105.594	-0.131	-0.029
-153.662	112.594	-0.112	0.133
-152.647	-54.721	0.129	-0.057
-151.633	116.447	0.143	0.172
-150.618	194.968	0.085	-0.127
-149.604	184.397	0.298	-0.434
-148.589	800.000	0.056	-0.225
-147.574	-126.814	0.186	-0.027
-146.560	800.000	0.054	0.147
-145.545	64.219	0.201	-0.199
-144.531	-72.729	-0.180	-0.065
-143.516	-50.679	-0.358	0.166
-142.502	-27.022	0.079	0.045
-141.487	-184.705	0.123	-0.002
-140.472	59.183	-0.070	0.068
-139.458	-144.501	0.367	-0.033
-138.443	-75.120	-0.063	0.022
-137.429	128.860	-0.093	0.116
-136.414	261.060	0.066	0.112
-135.399	-107.057	-0.293	-0.064
-134.385	-200.000	-0.045	-0.385
-133.370	-131.390	0.080	-0.010
-132.356	-200.000	0.038	-0.204
-131.341	-200.000	-0.061	0.361
-130.326	47.328	-0.057	0.052
-129.312	-114.206	-0.181	-0.034
-128.297	171.616	0.072	-0.101
-127.283	-200.000	0.037	-0.178
-126.268	371.354	-0.054	0.107
-125.253	92.393	0.087	-0.096
-124.239	162.220	0.206	-0.283
-123.224	192.483	-0.132	0.196
-122.210	800.000	-0.083	0.228
-121.195	330.237	0.175	0.330
-120.180	-200.000	0.018	0.169
-119.166	800.000	0.019	-0.073
-118.151	311.628	0.070	-0.130
-117.137	-174.930	-0.044	-0.001
-116.122	70.505	0.155	0.158
-115.107	203.463	-0.069	0.105
-114.093	481.198	0.089	0.197
-113.078	-163.920	-0.175	0.008
-112.064	800.000	-0.061	-0.228
-111.049	-107.440	0.103	-0.022
-110.034	800.000	0.106	0.328
-109.020	-85.454	0.063	-0.019
-108.005	232.995	0.083	-0.133
-106.991	-200.000	-0.015	0.139
-105.976	134.244	0.105	-0.134
-104.962	-193.497	-0.121	0.001
-103.947	-59.244	0.197	-0.083
-102.932	800.000	-0.057	-0.166
-101.918	211.555	0.045	0.069
-100.903	197.855	-0.256	-0.383
-99.889	-143.361	0.149	0.014
-98.874	-200.000	-0.083	0.524
-97.859	-200.000	0.023	0.099
-96.845	444.259	-0.020	-0.042
-95.830	90.951	0.075	-0.082
-94.816	800.000	0.086	-0.298
-93.801	-21.241	-0.492	-0.295
-92.786	59.819	-0.193	-0.187
-91.772	-200.000	0.015	-0.095
-90.757	11.873	0.187	-0.141
-89.743	-200.000	-0.031	0.141
-88.728	344.395	-0.037	-0.071
-87.713	-112.844	0.120	0.023
-86.699	196.280	-0.185	0.276
-85.684	-14.283	0.323	0.204
-84.670	800.000	-0.065	0.199
-83.655	-100.499	0.188	-0.046
-82.640	800.000	-0.089	0.292
-81.626	220.429	0.098	-0.154
-80.611	348.377	-0.107	0.206
-79.597	161.290	-0.123	0.169
-78.582	-24.522	-0.268	0.156
-77.567	800.000	-0.142	0.401
-76.553	-148.220	-0.135	0.011
-75.538	38.703	-0.207	0.181
-74.524	800.000	-0.058	-0.236
-73.509	1.084	0.105	-0.074
-72.494	134.381	0.221	0.281
-71.480	86.131	-0.035	0.037
-70.465	-2.603	0.117	0.080
-69.451	-200.000	0.022	0.225
-68.436	-200.000	0.012	0.119
-67.422	-199.019	0.399	-0.002
-66.407	-170.202	-0.197	0.007
-65.392	-50.052	-0.140	-0.065
-64.378	121.755	0.098	-0.120
-63.363	-164.597	0.071	-0.003
-62.349	-200.000	-0.005	-0.039
-61.334	10.535	-1.221	-0.912
-60.319	-19.548	0.436	0.264
-59.305	800.000	-0.292	-0.898
-58.290	190.114	0.891	1.310
-57.276	289.689	0.705	1.253
-56.261	-200.000	106.896	625.072
-55.246	523.810	1512.979	3483.486
-54.232	174.928	2712.728	3846.134
-53.217	105.211	2296.677	2655.092
-52.203	38.513	1901.104	1659.880
-51.188	32.349	1687.608	1426.832
-50.173	29.751	1643.598	1370.339
-49.159	48.563	1698.255	1558.192
-48.144	48.719	1713.384	1573.191
-47.130	31.857	1670.238	1408.223
-46.115	29.157	1656.248	1376.229
-45.100	29.116	1650.721	1371.277
-44.086	29.036	1648.052	1368.414
-43.071	28.930	1645.822	1365.717
-42.057	29.074	1643.000	1364.392
-41.042	29.032	1641.252	1362.575
-40.027	29.047	1639.373	1361.069
-39.013	28.960	1637.694	1358.984
-37.998	28.983	1636.219	1357.870
-36.984	29.030	1634.877	1357.052
-35.969	29.084	1633.352	1356.127
-34.954	29.171	1631.508	1355.182
-33.940	29.110	1629.622	1353.119
-32.925	29.102	1627.623	1351.343
-31.911	29.146	1626.370	1350.571
-30.896	29.084	1624.217	1348.278
-29.881	29.062	1622.949	1347.013
-28.867	29.136	1621.489	1346.288
-27.852	29.095	1619.980	1344.680
-26.838	29.124	1618.173	1343.342
-25.823	29.094	1616.928	1342.031
-24.809	29.263	1615.419	1341.961
-23.794	29.053	1614.538	1339.644
-22.779	29.095	1612.694	1338.365
-21.765	29.107	1610.911	1336.920
-20.750	29.143	1609.203	1335.712
-19.736	29.210	1607.785	1334.966
-18.721	29.237	1606.603	1334.127
-17.706	29.197	1605.027	1332.479
-16.692	29.233	1603.530	1331.441
-15.677	29.142	1602.723	1330.059
-14.663	29.203	1601.024	1329.041
-13.648	29.160	1599.666	1327.551
-12.633	29.291	1597.955	1327.024
-11.619	29.152	1596.488	1324.746
-10.604	29.180	1595.306	1323.917
-9.590	29.116	1593.945	1322.278
-8.575	29.142	1592.861	1321.513
-7.560	29.141	1591.554	1320.366
-6.546	29.116	1590.706	1319.432
-5.531	29.140	1589.378	1318.448
-4.517	29.119	1587.951	1317.064
-3.502	29.188	1586.932	1316.655
-2.487	29.238	1585.204	1315.532
-1.473	28.877	1573.790	1303.446
-0.458	26.262	1554.428	1269.016
0.556	20.660	1556.198	1239.965
1.571	18.470	1581.834	1244.397
2.586	18.333	1595.400	1253.949
3.600	16.753	1542.482	1201.058
4.615	8.828	1433.167	1063.432
5.629	1.192	1369.231	967.339
6.644	-0.154	1360.926	952.848
7.659	-0.238	1359.862	951.488
8.673	-0.375	1359.232	950.093
9.688	-0.482	1357.810	948.339
10.702	-0.588	1354.066	944.973
11.717	2.405	1359.960	967.957
12.731	11.510	1377.017	1038.113
13.746	19.172	1390.303	1097.030
14.761	21.236	1392.866	1112.118
15.775	21.487	1392.848	1113.600
16.790	21.592	1391.991	1113.484
17.804	21.625	1391.857	1113.487
18.819	21.903	1391.585	1114.937
19.834	21.837	1391.151	1114.075
20.848	21.939	1390.230	1113.883
21.863	22.022	1389.159	1113.453
22.877	21.953	1388.416	1112.323
23.892	21.953	1387.314	1111.341
24.907	22.003	1386.290	1110.740
25.921	21.947	1385.675	1109.796
26.936	21.963	1384.415	1108.790
27.950	21.962	1383.827	1108.215
28.965	21.899	1382.341	1106.527
29.980	21.922	1381.317	1105.757
30.994	22.004	1380.065	1105.168
32.009	21.972	1378.790	1103.848
33.023	22.037	1377.700	1103.292
34.038	21.994	1376.763	1102.172
35.053	21.920	1375.769	1100.811
36.067	21.976	1374.538	1100.084
37.082	21.933	1373.794	1099.122
38.096	21.909	1373.172	1098.376
39.111	21.977	1371.939	1097.716
40.126	21.945	1371.462	1097.037
41.140	21.969	1371.097	1096.798
42.155	21.964	1370.744	1096.390
43.169	22.012	1370.080	1096.058
44.184	21.974	1370.371	1095.958
45.199	21.940	1369.772	1095.169
46.213	22.092	1368.806	1095.250
47.228	22.022	1368.032	1094.098
48.242	21.867	1367.130	1092.314
49.257	22.041	1365.372	1091.895
50.271	21.946	1364.227	1090.290
51.286	21.996	1362.460	1089.090
52.301	21.941	1361.722	1088.065
53.315	21.987	1360.861	1087.565
54.330	21.932	1360.074	1086.501
55.344	21.847	1358.750	1084.819
56.359	21.940	1357.445	1084.257
57.374	21.985	1356.884	1083.990
58.388	21.966	1355.989	1083.063
59.403	22.036	1355.526	1083.030
60.417	21.963	1355.227	1082.246
61.432	21.948	1354.151	1081.195
62.447	22.126	1353.114	1081.371
63.461	22.056	1352.420	1080.287
64.476	22.036	1351.207	1079.101
65.490	21.993	1350.294	1078.012
66.505	21.980	1348.703	1076.565
67.520	21.990	1347.495	1075.566
68.534	22.087	1346.552	1075.314
69.549	22.054	1345.243	1073.971
70.563	22.056	1344.583	1073.362
71.578	22.048	1343.427	1072.296
72.593	21.920	1342.643	1070.794
73.607	21.972	1342.568	1070.959
74.622	21.957	1341.386	1069.828
75.636	22.031	1340.682	1069.622
76.651	22.020	1339.712	1068.685
77.666	21.979	1339.295	1068.010
78.680	21.979	1339.017	1067.695
79.695	22.071	1337.635	1067.057
80.709	21.973	1336.897	1065.781
81.724	22.036	1335.941	1065.302
82.739	21.921	1335.095	1063.841
83.753	22.020	1334.128	1063.571
84.768	21.977	1333.013	1062.331
85.782	22.070	1331.469	1061.567
86.797	22.025	1331.012	1060.834
87.812	21.925	1330.095	1059.410
88.826	22.091	1328.826	1059.308
89.841	22.037	1327.788	1058.059
90.855	22.085	1326.537	1057.258
91.870	22.021	1325.582	1056.019
92.884	22.082	1325.080	1055.894
93.899	22.075	1324.193	1055.047
94.914	21.982	1323.547	1053.883
95.928	22.051	1323.235	1053.958
96.943	22.026	1322.086	1052.795
97.957	22.146	1321.087	1052.625
98.972	21.999	1320.514	1051.200
99.987	22.059	1319.318	1050.510
101.001	22.033	1317.996	1049.211
102.016	21.984	1317.433	1048.375
103.030	22.078	1316.071	1047.759
104.045	22.081	1315.362	1047.123
105.060	22.183	1314.461	1046.920
106.074	22.043	1313.807	1045.469
107.089	22.163	1312.722	1045.231
108.103	21.983	1311.913	1043.424
109.118	22.006	1310.313	1042.196
110.133	22.197	1308.936	1042.138
111.147	22.196	1307.896	1041.213
112.162	22.168	1306.402	1039.769
113.176	22.195	1305.744	1039.308
114.191	22.137	1304.824	1038.143
115.206	22.160	1303.694	1037.287
116.220	22.127	1302.758	1036.256
117.235	22.173	1301.672	1035.572
118.249	22.160	1300.672	1034.610
119.264	22.100	1300.045	1033.667
120.279	22.022	1299.694	1032.838
121.293	22.162	1298.412	1032.552
122.308	22.156	1297.533	1031.722
123.322	22.173	1296.166	1030.643
124.337	22.221	1295.299	1030.148
125.352	22.277	1294.380	1029.649
126.366	22.156	1293.509	1028.158
127.381	22.323	1292.475	1028.224
128.395	22.326	1291.460	1027.339
129.410	22.255	1290.562	1026.125
130.424	22.130	1290.298	1025.094
131.439	22.199	1289.173	1024.511
132.454	22.187	1288.426	1023.758
133.468	22.149	1287.592	1022.784
134.483	22.192	1287.212	1022.640
135.497	22.187	1286.271	1021.771
136.512	22.174	1285.070	1020.651
137.527	22.237	1283.849	1019.961
138.541	22.221	1282.473	1018.680
139.556	22.130	1281.456	1017.260
140.570	22.083	1280.579	1016.198
141.585	22.149	1279.111	1015.324
142.600	22.170	1277.895	1014.392
143.614	22.117	1277.555	1013.727
144.629	22.128	1276.708	1013.029
145.643	22.079	1275.125	1011.399
146.658	22.044	1274.693	1010.767
147.673	22.126	1273.034	1009.835
148.687	22.148	1272.232	1009.234
149.702	22.210	1270.905	1008.448
150.716	22.131	1270.085	1007.257
151.731	22.096	1269.199	1006.261
152.746	22.131	1268.126	1005.525
153.760	22.248	1267.332	1005.473
154.775	22.200	1266.422	1004.388
155.789	22.298	1265.268	1003.943
156.804	22.216	1264.522	1002.795
157.819	22.152	1263.399	1001.452
158.833	22.238	1262.687	1001.286
159.848	22.306	1261.663	1000.777
160.862	22.244	1261.171	999.945
161.877	22.316	1260.085	999.403
162.892	22.295	1259.540	998.764
163.906	22.303	1258.979	998.272
164.921	22.381	1257.878	997.754
165.935	22.241	1257.309	996.424
166.950	22.351	1256.548	996.352
167.964	22.319	1256.361	995.939
168.979	22.198	1255.724	994.657
169.994	22.306	1254.928	994.552
171.008	22.300	1254.510	994.097
172.023	22.317	1253.306	993.153
173.037	22.368	1252.909	993.037
174.052	22.357	1252.232	992.350
175.067	22.285	1251.334	991.146
176.081	22.402	1250.359	990.946
177.096	22.338	1249.761	990.019
178.110	22.317	1248.851	989.096
179.125	22.303	1247.828	988.118
180.140	22.369	1246.510	987.359
181.154	22.288	1245.402	985.937
182.169	22.238	1244.528	984.881
183.183	22.366	1243.256	984.502
184.198	22.290	1242.547	983.432
185.213	22.305	1241.340	982.473
186.227	22.429	1240.543	982.442
187.242	22.397	1239.764	981.566
188.256	22.369	1238.636	980.425
189.271	22.551	1237.396	980.372
190.286	22.448	1237.238	979.588
191.300	22.380	1236.535	978.566
192.315	22.294	1236.116	977.666
193.329	22.440	1235.928	978.246
194.344	22.452	1235.179	977.633
195.359	22.517	1234.392	977.281
196.373	22.416	1234.168	976.460
197.388	22.258	1234.110	975.449
198.402	22.265	1233.910	975.247
199.417	22.339	1233.241	975.041
200.432	22.432	1232.429	974.828
201.446	22.304	1232.054	973.736
202.461	22.423	1230.819	973.330
203.475	22.385	1229.993	972.384
204.490	22.399	1228.754	971.391
205.504	22.377	1228.244	970.785
206.519	22.486	1227.089	970.387
207.534	22.448	1226.207	969.394
208.548	22.495	1225.066	968.661
209.563	22.412	1224.354	967.559
210.577	22.547	1223.731	967.722
211.592	22.467	1223.066	966.670
212.607	22.586	1221.922	966.334
213.621	22.563	1221.477	965.769
214.636	22.478	1220.856	964.729
215.650	22.504	1219.916	964.043
216.665	22.648	1218.779	963.846
217.680	22.538	1218.013	962.552
218.694	22.615	1216.952	962.050
219.709	22.663	1216.206	961.638
220.723	22.529	1215.973	960.640
221.738	22.499	1214.861	959.511
222.753	22.428	1214.562	958.802
223.767	22.492	1214.026	958.644
224.782	22.647	1213.400	958.908
225.796	22.630	1212.711	958.184
226.811	22.668	1211.978	957.726
227.826	22.612	1211.621	957.054
228.840	22.620	1211.183	956.669
229.855	22.650	1209.923	955.752
230.869	22.602	1209.734	955.259
231.884	22.598	1209.069	954.627
232.899	22.561	1208.467	953.867
233.913	22.662	1207.522	953.582
234.928	22.755	1207.317	953.837
235.942	22.670	1206.945	953.002
236.957	22.765	1205.896	952.601
237.972	22.630	1205.187	951.229
238.986	22.667	1204.749	950.999
240.001	22.642	1203.960	950.158
241.015	22.824	1203.005	950.301
242.030	22.758	1202.338	949.331
243.045	22.837	1201.150	948.734
244.059	22.769	1200.976	948.149
245.074	22.771	1199.992	947.300
246.088	22.810	1199.261	946.847
247.103	22.875	1198.424	946.451
248.117	22.827	1197.648	945.499
249.132	22.766	1196.923	944.513
250.147	22.843	1196.092	944.185
251.161	22.920	1195.604	944.129
252.176	22.888	1194.767	943.213
253.190	22.840	1194.144	942.386
254.205	22.804	1193.997	941.994
255.220	22.822	1192.965	941.188
256.234	22.836	1192.798	941.048
257.249	22.983	1192.028	941.144
258.263	22.848	1191.245	939.720
259.278	22.880	1190.839	939.487
260.293	22.867	1189.954	938.640
261.307	22.871	1189.707	938.382
262.322	22.960	1188.937	938.165
263.336	22.959	1188.368	937.625
264.351	22.875	1188.150	936.927
265.366	22.844	1187.193	935.924
266.380	23.008	1185.984	935.754
267.395	22.913	1185.728	934.971
268.409	22.850	1185.083	934.045
269.424	22.894	1184.721	933.911
270.439	22.901	1184.459	933.658
271.453	22.898	1183.320	932.663
272.468	22.878	1182.899	932.140
273.482	22.916	1181.796	931.391
274.497	22.955	1181.777	931.497
275.512	23.057	1181.127	931.442
276.526	23.058	1180.343	930.746
277.541	23.088	1179.377	930.060
278.555	22.971	1179.397	929.377
279.570	22.996	1178.310	928.571
280.585	22.976	1177.562	927.792
281.599	22.955	1176.719	926.938
282.614	22.827	1176.233	925.799
283.628	22.990	1174.982	925.589
284.643	23.216	1173.449	925.478
285.657	23.070	1172.991	924.271
286.672	23.005	1172.264	923.280
287.687	23.138	1171.686	923.437
288.701	23.098	1170.863	922.496
289.716	23.329	1169.895	922.857
290.730	23.260	1169.402	922.029
291.745	23.171	1168.946	921.125
292.760	23.171	1168.565	920.739
293.774	23.141	1168.048	920.097
294.789	23.188	1167.238	919.620
295.803	23.206	1166.345	918.931
296.818	23.176	1165.810	918.273
297.833	23.158	1165.354	917.738
298.847	23.087	1164.910	916.937
299.862	23.275	1163.538	916.750
300.876	23.242	1163.270	916.289
301.891	23.245	1162.665	915.748
302.906	23.410	1161.639	915.707
303.920	23.378	1161.345	915.233
304.935	23.302	1160.845	914.365
305.949	23.284	1160.095	913.599
306.964	23.385	1159.213	913.344
307.979	23.347	1158.602	912.584
308.993	23.247	1158.296	911.747
310.008	23.414	1157.042	911.542
311.022	23.342	1156.496	910.659
312.037	23.355	1155.912	910.187
313.052	23.416	1154.651	909.427
314.066	23.409	1153.861	908.687
315.081	23.414	1153.220	908.125
316.095	23.371	1153.006	907.658
317.110	23.375	1152.283	907.030
318.125	23.399	1151.186	906.209
319.139	23.426	1150.730	905.905
320.154	23.407	1150.288	905.383
321.168	23.432	1149.936	905.152
322.183	23.369	1149.465	904.378
323.197	23.428	1148.714	904.008
324.212	23.477	1148.082	903.685
325.227	23.553	1147.519	903.547
326.241	23.544	1146.814	902.863
327.256	23.429	1146.404	901.877
328.270	23.474	1145.579	901.380
329.285	23.417	1144.776	900.378
330.300	23.569	1143.671	900.201
331.314	23.586	1142.536	899.310
332.329	23.552	1141.940	898.589
333.343	23.638	1141.352	898.483
334.358	23.663	1140.482	897.844
335.373	23.509	1140.336	896.874
336.387	23.657	1139.496	896.879
337.402	23.640	1138.491	895.927
338.416	23.548	1138.238	895.184
339.431	23.643	1137.556	895.043
340.446	23.535	1137.415	894.311
341.460	23.752	1135.842	894.085
342.475	23.906	1135.015	894.132
343.489	23.709	1134.234	892.449
344.504	23.683	1133.434	891.608
345.519	23.760	1132.972	891.552
346.533	23.761	1131.922	890.652
347.548	23.750	1131.281	890.012
348.562	23.764	1130.980	889.770
349.577	23.726	1130.095	888.802
350.592	23.676	1129.232	887.794
351.606	23.732	1128.400	887.341
352.621	23.743	1127.949	886.967
353.635	23.780	1127.256	886.525
354.650	23.898	1126.597	886.520
355.665	23.834	1125.923	885.590
356.679	23.896	1125.461	885.457
357.694	23.918	1124.839	885.001
358.708	23.806	1123.969	883.678
359.723	23.880	1123.495	883.597
360.738	23.825	1123.037	882.885
361.752	23.850	1122.225	882.293
362.767	23.868	1121.841	882.003
363.781	23.998	1121.036	881.935
364.796	24.060	1120.363	881.636
365.810	23.926	1120.159	880.731
366.825	24.001	1119.706	880.667
367.840	23.952	1119.131	879.894
368.854	23.937	1118.490	879.243
369.869	24.011	1117.999	879.142
370.883	24.036	1116.608	878.094
371.898	24.139	1115.714	877.819
372.913	23.991	1116.021	877.253
373.927	24.024	1115.567	876.982
374.942	24.051	1114.842	876.468
375.956	24.039	1114.217	875.842
376.971	24.119	1113.636	875.702
377.986	24.066	1113.349	875.136
379.000	24.035	1112.730	874.419
380.015	24.113	1112.016	874.166
381.029	24.113	1110.775	873.114
382.044	24.184	1110.210	872.937
383.059	24.107	1110.295	872.550
384.073	24.136	1109.261	871.805
385.088	24.173	1108.228	871.095
386.102	24.164	1107.878	870.700
387.117	24.173	1106.930	869.920
388.132	23.959	1106.217	868.241
389.146	24.127	1105.424	868.358
390.161	24.077	1105.073	867.764
391.175	24.239	1103.968	867.607
392.190	24.208	1103.357	866.897
393.205	24.274	1102.946	866.818
394.219	24.277	1102.087	866.083
395.234	24.231	1101.156	865.051
396.248	24.287	1100.451	864.692
397.263	24.267	1099.415	863.707
398.278	24.405	1098.799	863.812
399.292	24.491	1098.195	863.678
400.307	24.316	1097.618	862.299
401.321	24.462	1096.998	862.441
402.336	24.283	1096.616	861.204
403.350	24.331	1096.062	860.923
404.365	24.360	1094.925	860.093
405.380	24.415	1094.500	859.948
406.394	24.491	1093.480	859.439
407.409	24.488	1092.895	858.884
408.423	24.593	1091.819	858.468
409.438	24.469	1091.415	857.481
410.453	24.495	1090.751	857.008
411.467	24.479	1090.105	856.349
412.482	24.463	1089.382	855.629
413.496	24.502	1088.437	854.997
414.511	24.560	1088.063	854.905
415.526	24.530	1087.533	854.270
416.540	24.501	1087.293	853.865
417.555	24.555	1086.938	853.770
418.569	24.563	1085.840	852.869
419.584	24.516	1085.776	852.519
420.599	24.539	1085.293	852.176
421.613	149.087	1401.747	1799.495
422.628	137.828	1447.826	1799.602
