DTS Sentinel unit serial number:	SN413079Multiplexer serial number:	ORYXHardware model number:	OX4-SRSoftware version number:	ORYX F/W v4.00 Oryx Data Collector v3.7.2.0data status	okinstallation	princeton_trtdifferential loss correction	single-endedforward channel	channel 2reverse channel	N/Adate	2019/09/11time	17:57:11forward acquisition time	60.00reverse acquisition time	0.00gamma	496.2192k internal	0.2284k external	0.2284temperature offset calibration	1.0023default loss term (dB/km)	0.3790temperature slope calibration	1.0000multiplexer offset coefficient	1.0000multiplexer slope coefficient	1.0000fibre end	0.00T internal ref (°C)	44.00T ext. ref 1 (°C)	1.15T ext. ref 2 (°C)	39.14length (m)	temperature (°C)	Stokes	anti-Stokes-747.200	203.040	0.083	0.132
-746.185	326.072	0.031	0.061
-745.171	85.554	-0.315	-0.355
-744.156	-200.000	0.011	-0.202
-743.142	28.015	-0.221	-0.192
-742.127	-126.884	0.347	-0.052
-741.112	-200.000	0.062	0.281
-740.098	-200.000	0.023	0.334
-739.083	89.542	-0.168	-0.192
-738.069	-200.000	0.103	0.000
-737.054	-24.455	0.345	-0.211
-736.039	800.000	-0.045	-0.170
-735.025	-84.381	0.328	-0.107
-734.010	-42.588	-0.471	-0.246
-732.996	739.258	-0.096	0.265
-731.981	-200.000	-0.074	-0.461
-730.966	-200.000	-0.014	-0.215
-729.952	353.589	-0.090	-0.183
-728.937	39.318	0.071	0.065
-727.923	40.329	-0.150	-0.139
-726.908	117.032	-0.137	-0.173
-725.894	75.611	0.058	0.063
-724.879	-17.505	0.148	0.096
-723.864	-200.000	-0.007	0.115
-722.850	-45.353	0.311	0.158
-721.835	99.280	-0.054	-0.064
-720.821	-88.760	0.033	-0.010
-719.806	78.785	0.196	-0.215
-718.791	89.243	-0.267	-0.305
-717.777	179.269	-0.253	-0.380
-716.762	-143.102	-0.052	-0.005
-715.748	-64.430	-0.080	0.033
-714.733	-77.976	-0.185	0.065
-713.718	-87.515	-0.309	0.096
-712.704	800.000	-0.016	0.056
-711.689	-118.564	0.306	-0.056
-710.675	800.000	-0.119	-0.386
-709.660	-127.684	-0.162	-0.024
-708.645	-200.000	-0.016	-0.233
-707.631	-184.468	-0.190	0.003
-706.616	92.415	0.165	-0.191
-705.602	326.608	-0.111	0.217
-704.587	-87.590	0.093	0.029
-703.572	-78.738	-0.090	0.031
-702.558	800.000	-0.077	-0.224
-701.543	37.233	-0.123	-0.112
-700.529	448.040	0.089	0.200
-699.514	-74.525	0.063	0.023
-698.499	-74.249	-0.064	0.024
-697.485	35.055	-0.264	0.237
-696.470	-50.193	0.094	-0.046
-695.456	-55.157	-0.270	-0.125
-694.441	56.321	-0.126	-0.126
-693.426	-167.414	-0.179	-0.007
-692.412	-200.000	-0.050	0.251
-691.397	800.000	-0.049	-0.185
-690.383	800.000	0.060	0.231
-689.368	-200.000	0.019	-0.115
-688.354	-148.867	0.064	-0.005
-687.339	-200.000	0.266	-0.001
-686.324	-161.288	0.283	-0.015
-685.310	-103.289	-0.321	0.078
-684.295	300.884	0.079	-0.149
-683.281	-200.000	-0.017	-0.140
-682.266	183.737	-0.106	0.160
-681.251	-167.298	0.383	-0.016
-680.237	318.458	0.112	0.218
-679.222	168.788	0.018	-0.026
-678.208	-79.115	0.283	-0.099
-677.193	-106.637	-0.292	-0.067
-676.178	512.452	0.049	0.117
-675.164	-57.936	-0.221	-0.099
-674.149	-81.837	0.204	-0.068
-673.135	-200.000	0.018	-0.108
-672.120	-200.000	-0.079	-0.355
-671.105	197.762	0.127	0.199
-670.091	-66.244	0.235	-0.096
-669.076	-85.375	-0.276	0.088
-668.062	24.011	-0.229	0.193
-667.047	141.302	-0.287	0.388
-666.032	-29.283	-0.329	0.193
-665.018	-83.407	-0.318	-0.104
-664.003	-200.000	0.006	-0.236
-662.989	9.117	0.207	0.160
-661.974	-200.000	0.055	0.588
-660.959	243.581	-0.115	-0.198
-659.945	28.202	0.095	0.082
-658.930	-60.925	0.161	0.070
-657.916	6.607	0.077	-0.058
-656.901	25.567	-0.005	0.005
-655.886	42.144	-0.123	0.115
-654.872	23.899	0.140	-0.118
-653.857	-35.751	-0.175	0.097
-652.843	-109.394	0.290	0.063
-651.828	331.738	0.091	-0.179
-650.814	-200.000	-0.025	0.230
-649.799	31.899	-0.176	0.155
-648.784	-152.895	-0.126	-0.009
-647.770	68.080	-0.246	0.257
-646.755	-200.000	-0.008	-0.147
-645.741	-105.659	0.208	0.048
-644.726	-43.839	0.208	-0.107
-643.711	70.480	-0.025	-0.026
-642.697	154.671	-0.103	0.144
-641.682	800.000	-0.095	-0.311
-640.668	131.735	-0.101	-0.133
-639.653	-200.000	0.044	-0.209
-638.638	8.200	-0.043	0.033
-637.624	-200.000	0.011	-0.272
-636.609	-122.129	0.359	-0.060
-635.595	14.688	-0.078	0.062
-634.580	474.217	0.031	0.071
-633.565	302.215	-0.047	-0.088
-632.551	-151.034	0.475	-0.037
-631.536	-18.947	-0.108	0.069
-630.522	-63.762	-0.121	0.051
-629.507	-121.488	0.560	0.095
-628.492	124.192	-0.142	-0.182
-627.478	27.615	0.208	0.179
-626.463	524.185	0.036	0.086
-625.449	173.107	0.198	0.292
-624.434	24.994	-0.199	-0.169
-623.419	-51.866	0.134	-0.064
-622.405	188.569	0.116	-0.177
-621.390	-200.000	0.033	-0.224
-620.376	27.485	0.315	0.271
-619.361	-74.304	0.274	-0.101
-618.346	-28.605	-0.219	-0.129
-617.332	31.040	0.163	0.143
-616.317	104.071	-0.066	0.079
-615.303	800.000	-0.047	-0.170
-614.288	-121.598	-0.204	-0.034
-613.273	10.845	0.328	0.256
-612.259	-63.197	-0.207	-0.087
-611.244	217.264	-0.037	0.061
-610.230	-84.100	-0.176	0.057
-609.215	240.562	0.185	-0.316
-608.201	-200.000	-0.069	-0.459
-607.186	-200.000	0.008	-0.219
-606.171	-120.944	-0.173	-0.030
-605.157	-54.814	-0.271	-0.125
-604.142	-200.000	0.026	-0.357
-603.128	-200.000	-0.097	0.461
-602.113	-8.139	-0.164	-0.113
-601.098	-95.825	0.056	0.015
-600.084	-200.000	0.044	-0.240
-599.069	429.603	-0.146	-0.323
-598.055	-18.512	0.208	-0.132
-597.040	128.601	0.135	0.176
-596.025	112.466	0.100	0.124
-595.011	438.970	-0.169	0.377
-593.996	-200.000	-0.066	0.494
-592.982	-43.904	0.264	0.136
-591.967	-200.000	0.020	-0.415
-590.952	-7.840	-0.127	-0.088
-589.938	-70.254	0.171	0.066
-588.923	800.000	0.123	0.388
-587.909	-7.054	-0.019	-0.013
-586.894	646.284	0.069	-0.179
-585.879	-200.000	0.007	0.113
-584.865	-38.894	-0.341	0.183
-583.850	80.267	-0.218	0.239
-582.836	124.543	-0.108	-0.139
-581.821	-19.710	-0.100	0.063
-580.806	158.985	0.069	0.098
-579.792	-200.000	-0.025	-0.351
-578.777	14.582	-0.236	-0.188
-577.763	800.000	-0.125	-0.394
-576.748	-33.908	-0.289	-0.162
-575.733	79.790	0.096	-0.106
-574.719	335.345	-0.145	0.287
-573.704	149.730	0.138	0.191
-572.690	246.582	-0.153	-0.263
-571.675	460.968	-0.108	0.246
-570.661	-107.612	-0.133	-0.030
-569.646	394.103	0.125	-0.265
-568.631	-140.765	0.289	0.030
-567.617	114.147	-0.185	0.229
-566.602	-124.162	-0.189	0.030
-565.588	138.824	-0.151	0.202
-564.573	-119.314	-0.155	0.027
-563.558	214.522	0.248	0.401
-562.544	53.750	0.085	0.083
-561.529	-69.095	-0.292	0.115
-560.515	55.868	-0.101	0.100
-559.500	-49.941	-0.268	-0.130
-558.485	-62.648	0.206	-0.087
-557.471	49.377	-0.151	0.145
-556.456	39.544	-0.135	-0.123
-555.442	-154.209	0.098	0.007
-554.427	800.000	0.081	0.284
-553.412	800.000	-0.123	-0.426
-552.398	-84.708	-0.127	0.041
-551.383	-98.380	0.204	-0.053
-550.369	-85.570	0.231	-0.073
-549.354	65.957	-0.139	-0.144
-548.339	-60.899	0.116	0.050
-547.325	556.435	0.006	0.014
-546.310	-42.155	-0.064	-0.034
-545.296	-73.438	0.086	0.032
-544.281	-200.000	0.015	0.186
-543.266	234.437	-0.122	0.206
-542.252	-72.965	0.070	-0.026
-541.237	-33.808	-0.144	-0.081
-540.223	-200.000	-0.027	0.201
-539.208	-49.690	-0.191	-0.092
-538.193	-147.858	-0.191	-0.016
-537.179	-181.880	0.209	0.004
-536.164	147.443	-0.053	-0.073
-535.150	167.743	-0.165	0.240
-534.135	2.186	-0.065	-0.048
-533.121	-52.370	-0.333	-0.157
-532.106	-106.086	-0.571	-0.131
-531.091	401.690	0.190	-0.407
-530.077	184.560	0.038	-0.058
-529.062	434.014	0.032	0.071
-528.048	-124.632	0.180	-0.028
-527.033	-101.335	-0.153	-0.038
-526.018	-55.497	-0.217	-0.099
-525.004	280.482	-0.120	-0.219
-523.989	-200.000	-0.020	-0.202
-522.975	103.532	-0.214	0.256
-521.960	13.081	0.093	-0.074
-520.945	-71.690	0.266	-0.101
-519.931	-14.058	0.133	-0.087
-518.916	76.165	-0.112	0.120
-517.902	115.293	-0.120	0.149
-516.887	576.199	0.169	0.420
-515.872	295.949	0.148	0.277
-514.858	-130.665	-0.143	-0.020
-513.843	-1.343	0.305	-0.219
-512.829	45.665	0.169	0.159
-511.814	-200.000	-0.044	-0.253
-510.799	-59.093	0.036	0.016
-509.785	-116.349	0.260	0.049
-508.770	110.881	-0.032	0.039
-507.756	-64.548	-0.167	-0.069
-506.741	-15.691	-0.116	0.075
-505.726	-115.036	-0.211	-0.041
-504.712	-124.584	0.374	0.059
-503.697	-167.876	-0.243	-0.010
-502.683	-69.246	-0.335	-0.131
-501.668	68.084	-0.228	-0.238
-500.653	-69.962	-0.166	0.065
-499.639	-200.000	0.008	-0.329
-498.624	762.475	0.063	0.173
-497.610	509.429	0.077	0.181
-496.595	-200.000	-0.094	0.000
-495.581	147.420	0.098	0.135
-494.566	71.653	-0.121	0.128
-493.551	-65.617	-0.266	-0.109
-492.537	7.104	0.163	-0.123
-491.522	-19.626	0.273	-0.172
-490.508	-43.441	-0.343	0.176
-489.493	-99.428	0.202	-0.052
-488.478	-83.525	-0.149	0.048
-487.464	573.879	-0.044	0.108
-486.449	-156.664	-0.211	0.013
-485.435	800.000	0.044	0.125
-484.420	136.216	-0.170	-0.225
-483.405	-180.117	-0.127	0.003
-482.391	-126.966	0.141	-0.021
-481.376	-75.907	-0.324	0.116
-480.362	-95.279	0.218	0.060
-479.347	30.092	-0.186	0.161
-478.332	163.358	-0.172	-0.245
-477.318	426.243	-0.107	0.234
-476.303	266.421	0.128	0.226
-475.289	-87.969	-0.113	-0.035
-474.274	146.819	0.041	-0.056
-473.259	490.466	0.116	-0.271
-472.245	-11.218	0.169	-0.113
-471.230	-200.000	0.003	0.030
-470.216	-71.373	-0.121	0.046
-469.201	-200.000	0.038	0.175
-468.186	-152.968	0.520	0.037
-467.172	-127.850	0.341	-0.050
-466.157	40.807	0.235	-0.216
-465.143	-179.593	-0.029	0.001
-464.128	269.624	-0.153	0.273
-463.113	610.675	0.050	-0.128
-462.099	-109.515	0.136	0.029
-461.084	800.000	-0.120	0.343
-460.070	-46.998	0.179	0.089
-459.055	47.293	0.178	0.168
-458.040	142.074	0.187	0.252
-457.026	661.268	0.090	-0.237
-456.011	-172.261	-0.076	-0.002
-454.997	800.000	-0.079	0.224
-453.982	-64.995	0.416	-0.171
-452.968	64.349	0.079	0.081
-451.953	-148.385	0.294	0.025
-450.938	-200.000	0.017	-0.080
-449.924	-138.000	-0.024	-0.003
-448.909	-164.374	-0.216	-0.010
-447.895	597.353	-0.048	-0.121
-446.880	-200.000	0.042	-0.279
-445.865	-90.315	-0.063	0.018
-444.851	374.280	-0.166	-0.343
-443.836	800.000	-0.099	-0.324
-442.822	-51.107	-0.162	-0.077
-441.807	-200.000	0.027	-0.485
-440.792	-76.167	-0.261	-0.093
-439.778	84.223	-0.261	0.289
-438.763	-123.527	-0.195	-0.032
-437.749	389.083	-0.019	0.039
-436.734	-7.190	-0.177	0.122
-435.719	-69.751	0.200	0.077
-434.705	-105.040	0.358	-0.083
-433.690	-62.205	0.281	0.119
-432.676	51.219	-0.337	-0.325
-431.661	-64.969	0.072	0.030
-430.646	151.523	0.230	-0.318
-429.632	414.510	0.114	0.247
-428.617	-200.000	0.011	-0.140
-427.603	800.000	0.127	-0.382
-426.588	202.390	0.304	-0.477
-425.573	-110.231	-0.287	-0.061
-424.559	-200.000	-0.006	-0.190
-423.544	-56.280	0.056	-0.025
-422.530	-200.000	0.031	-0.209
-421.515	-90.997	-0.203	-0.059
-420.500	242.875	-0.082	0.140
-419.486	214.993	0.207	0.333
-418.471	77.284	-0.201	0.217
-417.457	-15.986	0.204	-0.132
-416.442	-68.163	-0.307	-0.121
-415.428	472.122	0.022	-0.051
-414.413	-200.000	0.004	-0.234
-413.398	59.350	-0.201	0.201
-412.384	80.028	-0.105	-0.114
-411.369	-52.046	0.213	0.100
-410.355	212.094	-0.035	-0.057
-409.340	800.000	-0.027	-0.080
-408.325	-200.000	-0.007	0.108
-407.311	71.788	-0.088	-0.092
-406.296	800.000	-0.033	0.129
-405.282	-113.718	0.310	-0.061
-404.267	-140.646	-0.237	-0.025
-403.252	-34.208	0.092	0.051
-402.238	664.572	0.075	0.197
-401.223	-8.957	0.226	-0.153
-400.209	-139.953	0.294	0.031
-399.194	21.255	-0.060	0.049
-398.179	-200.000	0.035	0.353
-397.165	-200.000	0.005	-0.302
-396.150	-109.259	-0.286	0.062
-395.136	433.536	-0.026	0.057
-394.121	-76.465	-0.156	-0.056
-393.106	594.395	0.043	-0.109
-392.092	-200.000	-0.035	0.504
-391.077	800.000	0.053	0.164
-390.063	-200.000	0.029	0.154
-389.048	-80.965	-0.088	-0.029
-388.033	132.998	-0.208	0.272
-387.019	-200.000	-0.026	0.250
-386.004	-34.572	-0.160	0.089
-384.990	-57.996	0.268	0.119
-383.975	30.798	0.209	0.181
-382.960	-25.454	-0.159	0.095
-381.946	721.340	-0.018	-0.048
-380.931	7.148	-0.093	0.070
-379.917	134.664	0.133	-0.175
-378.902	73.787	0.240	-0.255
-377.888	713.704	0.021	0.055
-376.873	622.508	-0.073	0.186
-375.858	-174.592	0.445	-0.013
-374.844	-91.985	0.171	-0.049
-373.829	-72.076	0.300	-0.113
-372.815	-72.998	0.280	0.104
-371.800	201.335	-0.179	-0.279
-370.785	800.000	-0.033	0.114
-369.771	-24.243	-0.019	-0.011
-368.756	800.000	0.134	-0.407
-367.742	-33.469	0.127	-0.071
-366.727	54.556	0.157	0.153
-365.712	-161.908	-0.149	-0.008
-364.698	-70.624	0.242	0.092
-363.683	-99.241	0.226	-0.058
-362.669	641.617	0.061	0.157
-361.654	-66.107	0.312	0.126
-360.639	32.891	0.136	-0.119
-359.625	269.579	-0.063	-0.111
-358.610	-200.000	0.006	-0.153
-357.596	-136.136	0.204	0.024
-356.581	-200.000	-0.079	-0.386
-355.566	800.000	0.039	0.137
-354.552	1.071	-0.102	0.074
-353.537	-21.061	0.163	-0.101
-352.523	-158.799	0.261	-0.015
-351.508	-131.311	0.251	0.034
-350.493	-179.987	-0.264	0.006
-349.479	800.000	-0.065	-0.182
-348.464	-65.124	0.273	0.112
-347.450	-72.191	-0.042	0.016
-346.435	70.674	-0.104	0.109
-345.420	127.302	-0.076	-0.097
-344.406	-91.473	0.125	0.036
-343.391	-200.000	0.024	-0.312
-342.377	74.387	0.202	0.214
-341.362	-131.790	-0.423	0.056
-340.348	313.831	-0.110	0.209
-339.333	-200.000	-0.004	-0.067
-338.318	-31.822	-0.153	0.087
-337.304	-181.030	0.105	0.002
-336.289	43.316	-0.179	0.165
-335.275	35.336	-0.134	-0.119
-334.260	-57.710	-0.234	0.104
-333.245	-9.735	0.028	0.019
-332.231	800.000	0.072	-0.243
-331.216	800.000	-0.060	-0.238
-330.202	746.883	0.055	0.150
-329.187	163.245	0.116	0.165
-328.172	9.029	0.243	-0.185
-327.158	-85.091	-0.207	0.065
-326.143	53.807	0.104	-0.101
-325.129	800.000	-0.089	-0.274
-324.114	-129.130	0.048	0.007
-323.099	-163.673	-0.163	0.008
-322.085	59.656	0.206	-0.206
-321.070	-165.510	-0.082	0.004
-320.056	-64.127	-0.376	0.155
-319.041	-200.000	0.007	0.356
-318.026	128.207	-0.351	0.452
-317.012	724.676	0.037	-0.099
-315.997	23.008	-0.141	0.116
-314.983	-62.959	0.167	-0.070
-313.968	-58.667	-0.301	-0.132
-312.953	327.805	-0.043	-0.084
-311.939	-200.000	0.032	0.300
-310.924	169.718	-0.045	-0.065
-309.910	-192.627	-0.201	-0.002
-308.895	800.000	-0.012	0.042
-307.880	98.977	-0.035	-0.040
-306.866	-102.105	-0.035	0.009
-305.851	105.801	-0.120	-0.143
-304.837	56.130	0.066	0.065
-303.822	31.187	-0.147	-0.127
-302.807	120.142	0.290	-0.363
-301.793	31.777	-0.188	0.164
-300.778	41.841	-0.173	0.158
-299.764	800.000	-0.076	-0.215
-298.749	800.000	0.073	-0.287
-297.735	-200.000	0.007	-0.176
-296.720	-97.502	0.228	-0.060
-295.705	10.973	-0.198	-0.153
-294.691	-79.187	-0.071	-0.024
-293.676	-16.309	0.372	0.238
-292.662	-176.531	-0.093	0.002
-291.647	-89.974	0.392	0.116
-290.632	-99.998	0.154	0.039
-289.618	281.761	-0.124	0.224
-288.603	287.449	0.162	0.296
-287.589	-100.266	-0.036	0.009
-286.574	-84.417	-0.054	0.017
-285.559	-200.000	-0.011	0.155
-284.545	800.000	0.036	0.114
-283.530	-60.806	-0.267	0.114
-282.516	130.662	-0.059	-0.076
-281.501	-126.164	-0.200	0.030
-280.486	-26.252	0.196	0.116
-279.472	-200.000	-0.212	0.000
-278.457	213.998	0.135	-0.216
-277.443	75.329	0.284	-0.302
-276.428	800.000	-0.094	-0.263
-275.413	55.643	-0.156	-0.152
-274.399	-130.468	0.141	0.019
-273.384	-200.000	0.008	-0.111
-272.370	800.000	0.040	0.119
-271.355	-58.035	-0.338	-0.149
-270.340	134.042	-0.148	0.193
-269.326	800.000	-0.061	0.244
-268.311	374.746	0.012	-0.025
-267.297	-59.755	0.235	-0.101
-266.282	47.521	0.090	-0.085
-265.267	-135.304	-0.143	0.017
-264.253	-110.826	-0.080	0.017
-263.238	-200.000	-0.008	0.064
-262.224	-200.000	-0.012	-0.266
-261.209	-200.000	-0.011	-0.197
-260.195	-124.697	0.244	-0.038
-259.180	-107.521	-0.053	-0.012
-258.165	-89.570	-0.062	-0.018
-257.151	-200.000	0.001	0.071
-256.136	-200.000	0.053	0.453
-255.122	800.000	0.051	-0.184
-254.107	-42.996	-0.029	-0.015
-253.092	800.000	-0.075	0.220
-252.078	171.703	0.088	-0.128
-251.063	328.780	-0.107	0.207
-250.049	800.000	-0.031	-0.124
-249.034	291.666	0.062	0.113
-248.019	32.289	-0.256	0.223
-247.005	-4.158	0.149	0.104
-245.990	304.848	-0.041	-0.077
-244.976	-128.205	0.401	-0.058
-243.961	-199.048	-0.091	0.000
-242.946	-122.285	0.284	-0.047
-241.932	592.388	-0.113	-0.282
-240.917	77.328	0.259	-0.278
-239.903	-49.812	-0.146	-0.070
-238.888	800.000	-0.028	-0.103
-237.873	-17.432	0.188	0.119
-236.859	456.510	0.071	0.159
-235.844	-73.444	0.294	-0.108
-234.830	800.000	0.073	0.280
-233.815	413.191	0.123	0.264
-232.800	-74.240	0.162	0.059
-231.786	-200.000	-0.046	-0.259
-230.771	179.246	-0.069	-0.102
-229.757	-75.539	-0.208	0.074
-228.742	-200.000	0.007	-0.239
-227.727	800.000	0.052	-0.225
-226.713	-23.169	0.229	-0.139
-225.698	482.487	-0.072	0.164
-224.684	494.254	0.082	0.189
-223.669	-181.815	0.220	-0.004
-222.655	323.690	-0.222	0.426
-221.640	57.236	-0.266	-0.261
-220.625	-67.655	-0.259	0.102
-219.611	800.000	-0.026	-0.072
-218.596	71.071	0.208	-0.217
-217.582	-200.000	-0.008	0.115
-216.567	-20.129	0.135	0.084
-215.552	-200.000	-0.069	0.476
-214.538	83.566	0.207	0.227
-213.523	-138.871	0.162	0.018
-212.509	-185.500	-0.190	-0.003
-211.494	-55.388	-0.175	-0.079
-210.479	-103.453	-0.605	0.143
-209.465	83.440	-0.191	-0.209
-208.450	140.630	0.038	0.051
-207.436	12.343	-0.071	0.055
-206.421	588.104	0.028	-0.069
-205.406	800.000	0.037	-0.116
-204.392	228.502	0.064	-0.105
-203.377	800.000	0.027	-0.097
-202.363	-67.920	-0.080	0.031
-201.348	-119.409	0.547	0.096
-200.333	-127.719	-0.103	-0.015
-199.319	33.867	0.122	-0.107
-198.304	-200.000	0.008	-0.192
-197.290	-134.159	0.038	-0.005
-196.275	-71.827	0.190	-0.071
-195.260	-88.896	0.148	-0.044
-194.246	-89.352	0.251	-0.074
-193.231	-200.000	0.060	0.299
-192.217	-200.000	0.028	0.250
-191.202	318.229	0.112	0.213
-190.187	800.000	0.018	-0.057
-189.173	3.606	0.237	0.174
-188.158	-25.802	-0.322	-0.191
-187.144	164.268	-0.236	0.335
-186.129	497.352	-0.054	0.125
-185.114	-121.720	0.486	0.081
-184.100	-148.803	-0.055	0.005
-183.085	-89.512	-0.323	0.095
-182.071	-200.000	0.008	-0.244
-181.056	-10.321	-0.196	-0.130
-180.042	-200.000	0.049	-0.369
-179.027	156.401	0.110	0.152
-178.012	-119.593	-0.227	0.039
-176.998	-5.230	-0.206	0.143
-175.983	-32.900	0.188	-0.105
-174.969	800.000	0.051	0.143
-173.954	-110.037	0.234	0.049
-172.939	-70.354	-0.475	-0.181
-171.925	281.890	-0.163	0.294
-170.910	800.000	-0.102	0.422
-169.896	-125.795	0.364	0.055
-168.881	-76.477	0.050	0.018
-167.866	-200.000	0.049	-0.289
-166.852	155.885	0.119	-0.165
-165.837	631.697	-0.081	0.206
-164.823	587.108	-0.043	0.106
-163.808	509.153	0.170	-0.396
-162.793	240.960	-0.171	0.287
-161.779	-146.962	-0.379	0.033
-160.764	3.455	0.318	0.233
-159.750	-200.000	-0.027	-0.172
-158.735	-149.747	0.182	-0.014
-157.720	-200.000	-0.017	0.175
-156.706	-67.865	-0.128	-0.050
-155.691	-58.403	0.385	0.168
-154.677	53.637	-0.229	0.221
-153.662	-109.464	-0.573	0.121
-152.647	-99.281	0.519	0.131
-151.633	-75.756	-0.236	0.084
-150.618	149.959	0.118	-0.161
-149.604	-6.385	-0.240	0.164
-148.589	-86.015	0.348	-0.108
-147.574	198.656	0.214	-0.328
-146.560	60.940	0.084	-0.084
-145.545	54.487	-0.086	-0.083
-144.531	-200.000	0.019	0.216
-143.516	99.841	-0.385	0.448
-142.502	776.024	-0.078	0.212
-141.487	321.372	0.132	0.252
-140.472	-200.000	0.027	-0.119
-139.458	-200.000	-0.023	-0.234
-138.443	800.000	-0.025	0.102
-137.429	-200.000	-0.006	-0.072
-136.414	-39.450	0.273	-0.144
-135.399	157.346	-0.067	-0.093
-134.385	333.573	0.125	0.243
-133.370	-200.000	0.012	0.172
-132.356	-200.000	0.020	0.238
-131.341	-182.666	-0.100	0.002
-130.326	-110.312	-0.257	0.054
-129.312	70.042	0.121	-0.125
-128.297	-126.886	0.289	0.043
-127.283	-108.272	0.491	0.106
-126.268	43.631	-0.149	-0.137
-125.253	174.846	-0.097	0.140
-124.239	518.764	0.069	-0.163
-123.224	257.838	-0.099	-0.171
-122.210	417.239	-0.147	0.315
-121.195	-178.508	-0.279	-0.006
-120.180	-105.706	0.167	-0.038
-119.166	-200.000	-0.128	0.000
-118.151	-161.641	-0.190	-0.010
-117.137	-53.706	0.076	0.035
-116.122	-88.883	-0.252	0.075
-115.107	177.781	0.202	0.295
-114.093	101.698	-0.176	-0.205
-113.078	40.389	-0.060	0.054
-112.064	-200.000	-0.011	-0.253
-111.049	22.503	-0.164	0.134
-110.034	443.948	-0.091	0.200
-109.020	-196.816	-0.188	0.001
-108.005	800.000	0.098	-0.370
-106.991	56.023	-0.081	-0.079
-105.976	-96.892	-0.324	-0.085
-104.962	-200.000	-0.038	0.296
-103.947	343.245	-0.159	0.312
-102.932	-41.919	0.312	-0.160
-101.918	292.318	0.141	0.257
-100.903	85.506	-0.164	0.180
-99.889	-200.000	0.008	-0.067
-98.874	-84.477	-0.133	0.042
-97.859	95.720	-0.055	0.063
-96.845	800.000	-0.009	-0.028
-95.830	157.090	0.144	-0.199
-94.816	-160.757	-0.189	-0.010
-93.801	194.827	0.111	0.168
-92.786	320.639	0.068	-0.129
-91.772	344.058	0.068	-0.133
-90.757	-50.727	0.217	-0.102
-89.743	-20.887	0.272	-0.167
-88.728	143.856	0.197	-0.263
-87.713	32.857	-0.211	-0.182
-86.699	151.669	0.235	-0.321
-85.684	-200.000	0.015	-0.077
-84.670	-119.930	0.244	0.042
-83.655	800.000	-0.029	0.106
-82.640	-1.190	0.069	0.049
-81.626	58.838	0.132	-0.130
-80.611	322.277	0.193	-0.368
-79.597	-200.000	-0.036	0.280
-78.582	154.021	-0.201	0.276
-77.567	206.299	0.212	0.331
-76.553	800.000	0.045	-0.169
-75.538	24.611	0.322	-0.266
-74.524	60.050	0.078	0.077
-73.509	81.704	-0.282	0.305
-72.494	-200.000	0.066	0.298
-71.480	-28.022	0.239	-0.139
-70.465	285.665	0.066	-0.118
-69.451	-83.336	-0.091	0.029
-68.436	143.259	-0.030	-0.040
-67.422	94.117	-0.104	-0.118
-66.407	800.000	0.088	-0.338
-65.392	-84.262	0.300	-0.095
-64.378	162.428	-0.055	0.078
-63.363	-38.492	0.147	-0.078
-62.349	-200.000	0.032	-0.154
-61.334	47.882	-0.606	-0.566
-60.319	447.724	0.149	0.329
-59.305	-200.000	0.152	-0.792
-58.290	95.367	0.443	0.505
-57.276	800.000	0.343	1.346
-56.261	-200.000	71.060	523.543
-55.246	606.927	1265.221	3154.117
-54.232	145.925	2492.399	3341.510
-53.217	115.014	2342.571	2857.914
-52.203	54.063	1961.499	1885.861
-51.188	47.643	1748.670	1630.918
-50.173	44.508	1701.683	1562.986
-49.159	58.056	1731.866	1695.605
-48.144	64.987	1750.737	1767.466
-47.130	47.350	1716.066	1597.994
-46.115	44.007	1702.045	1559.218
-45.100	43.973	1696.994	1554.274
-44.086	43.836	1694.890	1551.231
-43.071	43.735	1692.071	1547.822
-42.057	43.769	1689.948	1546.073
-41.042	43.881	1687.456	1544.591
-40.027	43.785	1686.004	1542.466
-39.013	43.884	1683.494	1540.862
-37.998	43.848	1681.919	1539.084
-36.984	43.973	1680.087	1538.296
-35.969	44.044	1679.099	1537.867
-34.954	44.032	1677.707	1536.442
-33.940	43.995	1675.687	1534.252
-32.925	44.119	1673.625	1533.239
-31.911	43.931	1672.043	1530.310
-30.896	43.996	1669.833	1528.720
-29.881	43.980	1668.451	1527.269
-28.867	43.973	1666.557	1525.421
-27.852	43.999	1665.475	1524.569
-26.838	43.997	1663.718	1522.881
-25.823	44.069	1662.444	1522.201
-24.809	44.096	1660.663	1520.709
-23.794	43.968	1659.613	1518.726
-22.779	44.055	1657.935	1517.786
-21.765	44.010	1656.221	1515.821
-20.750	44.045	1654.175	1514.150
-19.736	44.068	1653.201	1513.369
-18.721	44.019	1651.702	1511.572
-17.706	43.989	1650.282	1509.987
-16.692	43.885	1648.514	1507.537
-15.677	44.012	1646.992	1507.024
-14.663	44.013	1645.415	1505.530
-13.648	43.976	1644.369	1504.238
-12.633	44.030	1642.330	1502.716
-11.619	44.045	1641.100	1501.642
-10.604	43.969	1639.393	1499.457
-9.590	44.033	1638.233	1498.808
-8.575	44.117	1636.686	1497.953
-7.560	44.075	1635.643	1496.629
-6.546	43.996	1635.191	1495.576
-5.531	44.033	1633.601	1494.335
-4.517	43.998	1632.117	1492.658
-3.502	44.048	1631.286	1492.214
-2.487	44.119	1629.334	1490.886
-1.473	44.057	1618.482	1480.447
-0.458	41.462	1598.399	1443.273
0.556	36.562	1594.724	1403.361
1.571	33.137	1617.348	1397.875
2.586	32.066	1631.980	1402.407
3.600	28.086	1578.471	1327.477
4.615	15.442	1457.535	1140.326
5.629	3.602	1380.868	1003.633
6.644	1.328	1369.762	980.796
7.659	1.108	1368.378	978.299
8.673	1.124	1367.262	977.514
9.688	1.050	1366.143	976.155
10.702	0.818	1362.861	972.230
11.717	4.628	1371.334	1002.791
12.731	15.865	1392.318	1091.273
13.746	23.755	1406.269	1153.560
14.761	24.891	1406.463	1160.988
15.775	25.034	1406.088	1161.499
16.790	25.003	1405.545	1160.752
17.804	25.083	1405.092	1160.792
18.819	25.312	1405.001	1162.094
19.834	25.341	1404.280	1161.583
20.848	25.232	1403.298	1159.966
21.863	25.339	1402.274	1159.706
22.877	25.372	1401.095	1158.840
23.892	25.318	1400.626	1158.003
24.907	25.477	1399.414	1157.920
25.921	25.337	1398.508	1156.169
26.936	25.296	1397.732	1155.163
27.950	25.352	1396.659	1154.535
28.965	25.373	1395.341	1153.477
29.980	25.320	1394.355	1152.215
30.994	25.379	1392.668	1151.099
32.009	25.281	1392.133	1149.930
33.023	25.305	1391.037	1149.076
34.038	25.331	1389.262	1147.671
35.053	25.272	1388.749	1146.770
36.067	25.238	1388.105	1145.920
37.082	25.277	1386.919	1145.090
38.096	25.254	1385.963	1144.049
39.111	25.332	1384.568	1143.298
40.126	25.252	1384.458	1142.595
41.140	25.311	1383.738	1142.277
42.155	25.287	1383.652	1141.951
43.169	25.355	1383.305	1141.998
44.184	25.341	1383.324	1141.819
45.199	25.306	1382.426	1140.753
46.213	25.360	1382.080	1140.714
47.228	25.278	1381.351	1139.491
48.242	25.314	1379.931	1138.444
49.257	25.338	1378.482	1137.301
50.271	25.417	1376.646	1136.184
51.286	25.288	1375.955	1134.699
52.301	25.240	1374.446	1133.051
53.315	25.355	1373.496	1132.892
54.330	25.266	1372.918	1131.754
55.344	25.291	1371.527	1130.669
56.359	25.315	1370.083	1129.525
57.374	25.314	1369.616	1129.034
58.388	25.229	1369.137	1128.008
59.403	25.256	1368.730	1127.738
60.417	25.274	1368.024	1127.175
61.432	25.324	1367.273	1126.770
62.447	25.382	1366.345	1126.266
63.461	25.369	1365.518	1125.405
64.476	25.410	1364.265	1124.530
65.490	25.312	1363.148	1122.897
66.505	25.280	1361.402	1121.156
67.520	25.330	1360.412	1120.557
68.534	25.435	1359.240	1120.144
69.549	25.315	1358.634	1118.801
70.563	25.245	1357.589	1117.401
71.578	25.239	1356.419	1116.306
72.593	25.261	1355.487	1115.573
73.607	25.325	1355.050	1115.517
74.622	25.362	1354.241	1114.980
75.636	25.357	1353.473	1114.219
76.651	25.294	1352.616	1113.022
77.666	25.342	1352.540	1113.163
78.680	25.376	1351.747	1112.618
79.695	25.352	1350.764	1111.565
80.709	25.364	1350.177	1111.057
81.724	25.415	1348.982	1110.289
82.739	25.305	1348.017	1108.717
83.753	25.394	1346.941	1108.286
84.768	25.386	1346.340	1107.643
85.782	25.351	1345.509	1106.645
86.797	25.432	1343.619	1105.490
87.812	25.439	1342.799	1104.763
88.826	25.358	1342.014	1103.520
89.841	25.447	1340.579	1102.790
90.855	25.382	1339.952	1101.778
91.870	25.327	1339.046	1100.594
92.884	25.329	1337.809	1099.498
93.899	25.405	1337.256	1099.407
94.914	25.436	1336.415	1098.808
95.928	25.338	1336.182	1097.920
96.943	25.388	1335.155	1097.286
97.957	25.363	1334.459	1096.462
98.972	25.392	1333.628	1095.862
99.987	25.383	1332.422	1094.717
101.001	25.278	1331.463	1093.196
102.016	25.375	1330.854	1093.189
103.030	25.299	1330.286	1092.163
104.045	25.341	1328.943	1091.217
105.060	25.415	1327.909	1090.720
106.074	25.403	1327.198	1089.966
107.089	25.469	1325.721	1089.057
108.103	25.458	1324.900	1088.219
109.118	25.486	1323.482	1087.129
110.133	25.477	1322.662	1086.309
111.147	25.472	1321.683	1085.379
112.162	25.448	1320.443	1084.114
113.176	25.460	1319.619	1083.415
114.191	25.430	1318.649	1082.343
115.206	25.552	1317.277	1081.855
116.220	25.374	1316.610	1080.139
117.235	25.337	1316.033	1079.350
118.249	25.377	1314.785	1078.469
119.264	25.391	1313.910	1077.741
120.279	25.413	1313.166	1077.169
121.293	25.441	1312.154	1076.413
122.308	25.514	1311.817	1076.479
123.322	25.498	1310.750	1075.411
124.337	25.563	1309.682	1074.825
125.352	25.579	1308.738	1074.051
126.366	25.559	1307.790	1073.057
127.381	25.539	1307.292	1072.437
128.395	25.510	1306.489	1071.508
129.410	25.509	1305.712	1070.772
130.424	25.589	1304.404	1070.080
131.439	25.567	1303.895	1069.436
132.454	25.519	1303.116	1068.421
133.468	25.549	1302.572	1068.055
134.483	25.397	1302.277	1066.821
135.497	25.537	1301.549	1066.961
136.512	25.518	1300.531	1065.914
137.527	25.525	1299.480	1065.002
138.541	25.529	1298.066	1063.772
139.556	25.530	1296.668	1062.537
140.570	25.509	1296.072	1061.834
141.585	25.540	1294.796	1060.875
142.600	25.494	1293.649	1059.573
143.614	25.602	1293.292	1059.823
144.629	25.503	1291.782	1057.910
145.643	25.538	1290.676	1057.114
146.658	25.482	1289.671	1055.869
147.673	25.449	1288.566	1054.677
148.687	25.456	1287.786	1053.986
149.702	25.432	1286.569	1052.755
150.716	25.488	1285.317	1051.969
151.731	25.476	1284.380	1051.035
152.746	25.475	1283.628	1050.321
153.760	25.528	1282.201	1049.371
154.775	25.497	1281.279	1048.343
155.789	25.535	1280.345	1047.710
156.804	25.484	1279.838	1046.903
157.819	25.431	1278.898	1045.733
158.833	25.491	1278.226	1045.439
159.848	25.477	1277.075	1044.323
160.862	25.522	1276.378	1043.925
161.877	25.458	1275.697	1042.903
162.892	25.638	1274.644	1042.994
163.906	25.611	1274.124	1042.320
164.921	25.586	1273.288	1041.399
165.935	25.593	1272.385	1040.605
166.950	25.523	1272.108	1039.885
167.964	25.590	1271.176	1039.417
168.979	25.603	1270.768	1039.070
169.994	25.610	1269.960	1038.352
171.008	25.649	1269.431	1038.053
172.023	25.633	1268.806	1037.358
173.037	25.623	1267.786	1036.375
174.052	25.556	1267.604	1035.748
175.067	25.632	1266.274	1035.011
176.081	25.637	1265.898	1034.641
177.096	25.578	1265.035	1033.503
178.110	25.649	1263.746	1032.765
179.125	25.618	1262.760	1031.690
180.140	25.672	1261.677	1031.022
181.154	25.658	1260.451	1029.850
182.169	25.588	1259.531	1028.610
183.183	25.613	1258.705	1027.988
184.198	25.651	1257.485	1027.114
185.213	25.596	1256.793	1026.143
186.227	25.689	1255.651	1025.652
187.242	25.769	1255.167	1025.620
188.256	25.718	1254.349	1024.570
189.271	25.795	1252.917	1023.751
190.286	25.719	1252.584	1022.953
191.300	25.783	1251.587	1022.415
192.315	25.633	1251.563	1021.454
193.329	25.613	1251.419	1021.131
194.344	25.757	1250.906	1021.441
195.359	25.796	1249.916	1020.761
196.373	25.537	1250.132	1019.376
197.388	25.495	1249.705	1018.704
198.402	25.715	1248.888	1019.193
199.417	25.696	1248.512	1018.689
200.432	25.782	1247.922	1018.604
201.446	25.697	1247.326	1017.546
202.461	25.715	1246.419	1016.817
203.475	25.693	1246.034	1016.289
204.490	25.648	1244.564	1014.746
205.504	25.740	1243.397	1014.225
206.519	25.740	1242.736	1013.594
207.534	25.881	1241.701	1013.452
208.548	25.725	1241.211	1012.085
209.563	25.717	1240.001	1010.964
210.577	25.688	1239.606	1010.390
211.592	25.712	1238.667	1009.672
212.607	25.856	1237.769	1009.655
213.621	25.760	1236.877	1008.302
214.636	25.914	1235.944	1008.317
215.650	25.808	1235.684	1007.420
216.665	25.846	1234.027	1006.190
217.680	25.839	1233.512	1005.642
218.694	25.757	1232.947	1004.637
219.709	25.889	1231.953	1004.475
220.723	25.873	1231.277	1003.743
221.738	25.729	1230.666	1002.353
222.753	25.721	1229.917	1001.612
223.767	25.723	1228.965	1000.762
224.782	25.871	1228.788	1001.347
225.796	25.834	1228.380	1000.723
226.811	25.839	1227.633	1000.051
227.826	25.870	1227.042	999.657
228.840	25.860	1226.567	999.123
229.855	25.889	1226.295	998.978
230.869	25.820	1225.428	997.800
231.884	25.928	1224.628	997.655
232.899	25.944	1223.563	996.787
233.913	25.835	1223.211	995.812
234.928	25.930	1222.809	995.923
235.942	25.927	1221.779	994.981
236.957	25.946	1220.967	994.332
237.972	25.970	1220.378	993.899
238.986	25.892	1219.882	992.975
240.001	26.043	1219.301	993.245
241.015	26.168	1218.296	993.026
242.030	26.029	1217.771	991.749
243.045	26.118	1216.769	991.335
244.059	26.085	1215.965	990.410
245.074	26.056	1215.500	989.782
246.088	26.157	1214.318	989.288
247.103	26.114	1213.715	988.471
248.117	25.978	1213.229	987.247
249.132	26.147	1212.352	987.368
250.147	26.101	1211.829	986.604
251.161	26.150	1211.264	986.326
252.176	26.191	1210.064	985.484
253.190	26.087	1209.785	984.601
254.205	26.171	1208.799	984.172
255.220	26.120	1208.520	983.580
256.234	26.256	1207.895	983.726
257.249	26.140	1207.802	982.930
258.263	26.224	1206.474	982.216
259.278	26.215	1206.061	981.743
260.293	26.259	1205.503	981.441
261.307	26.267	1205.039	981.020
262.322	26.247	1204.197	980.141
263.336	26.191	1203.350	979.059
264.351	26.183	1203.110	978.734
265.366	26.225	1202.391	978.292
266.380	26.252	1201.811	977.883
267.395	26.191	1201.065	976.857
268.409	26.098	1200.366	975.697
269.424	26.208	1200.291	976.149
270.439	26.234	1199.929	975.906
271.453	26.199	1198.930	974.819
272.468	26.197	1198.124	974.066
273.482	26.280	1197.291	973.747
274.497	26.278	1196.678	973.153
275.512	26.365	1196.131	973.090
276.526	26.296	1195.537	972.150
277.541	26.318	1194.598	971.422
278.555	26.341	1193.877	970.871
279.570	26.286	1193.469	970.158
280.585	26.395	1192.754	970.075
281.599	26.222	1191.956	968.414
282.614	26.287	1191.234	968.089
283.628	26.395	1190.066	967.632
284.643	26.413	1189.153	966.903
285.657	26.426	1187.985	965.935
286.672	26.413	1187.622	965.486
287.687	26.401	1186.583	964.491
288.701	26.499	1185.866	964.343
289.716	26.476	1185.255	963.642
290.730	26.471	1184.699	963.076
291.745	26.464	1184.350	962.670
292.760	26.516	1183.625	962.273
293.774	26.402	1183.328	961.341
294.789	26.395	1182.788	960.780
295.803	26.475	1182.027	960.502
296.818	26.586	1180.960	960.134
297.833	26.506	1180.679	959.402
298.847	26.525	1179.886	958.771
299.862	26.527	1179.160	958.109
300.876	26.522	1178.284	957.285
301.891	26.664	1177.540	957.345
302.906	26.611	1176.904	956.464
303.920	26.519	1176.729	955.751
304.935	26.613	1176.072	955.627
305.949	26.603	1174.760	954.426
306.964	26.614	1174.510	954.197
307.979	26.646	1173.974	953.843
308.993	26.604	1172.951	952.707
310.008	26.769	1172.465	953.097
311.022	26.854	1171.690	952.829
312.037	26.670	1171.261	951.430
313.052	26.568	1170.060	949.833
314.066	26.720	1169.298	949.927
315.081	26.673	1168.637	949.062
316.095	26.585	1168.351	948.283
317.110	26.637	1167.500	947.778
318.125	26.798	1166.871	948.026
319.139	26.681	1166.325	946.890
320.154	26.745	1165.584	946.538
321.168	26.681	1164.879	945.548
322.183	26.730	1164.458	945.381
323.197	26.679	1163.993	944.651
324.212	26.658	1163.395	943.973
325.227	26.784	1162.915	944.156
326.241	26.871	1161.806	943.623
327.256	26.898	1161.459	943.398
328.270	26.838	1160.042	941.856
329.285	26.764	1159.766	941.165
330.300	26.786	1159.182	940.718
331.314	26.775	1158.180	939.764
332.329	26.805	1157.108	938.965
333.343	26.902	1156.633	939.003
334.358	26.846	1155.882	938.018
335.373	26.830	1155.409	937.470
336.387	26.944	1154.636	937.351
337.402	26.996	1153.866	936.908
338.416	26.908	1153.467	936.045
339.431	26.880	1152.703	935.201
340.446	26.997	1152.034	935.177
341.460	26.987	1151.249	934.409
342.475	27.033	1150.568	934.006
343.489	27.056	1149.782	933.406
344.504	26.885	1149.142	931.922
345.519	26.961	1148.112	931.396
346.533	26.962	1147.445	930.779
347.548	26.960	1147.125	930.426
348.562	27.165	1146.231	930.670
349.577	27.055	1144.936	928.974
350.592	26.939	1144.471	927.920
351.606	26.933	1144.193	927.583
352.621	27.057	1143.140	927.277
353.635	26.994	1142.597	926.436
354.650	26.985	1142.071	925.880
355.665	27.097	1141.273	925.722
356.679	27.194	1140.690	925.661
357.694	27.122	1140.417	924.990
358.708	27.027	1139.719	923.859
359.723	27.129	1138.802	923.553
360.738	27.062	1138.183	922.627
361.752	27.207	1137.319	922.584
362.767	27.088	1136.959	921.606
363.781	27.192	1136.609	921.766
364.796	27.333	1135.781	921.732
365.810	27.366	1135.358	921.472
366.825	27.210	1134.823	920.166
367.840	27.346	1134.138	920.216
368.854	27.199	1134.048	919.318
369.869	27.365	1132.577	918.885
370.883	27.396	1132.063	918.543
371.898	27.264	1131.675	917.482
372.913	27.442	1130.426	917.285
373.927	27.323	1130.537	916.691
374.942	27.329	1129.978	916.187
375.956	27.327	1129.300	915.550
376.971	27.420	1128.737	915.477
377.986	27.407	1127.930	914.677
379.000	27.400	1127.636	914.324
380.015	27.382	1127.369	913.932
381.029	27.392	1126.687	913.352
382.044	27.436	1125.812	912.781
383.059	27.533	1124.975	912.508
384.073	27.431	1124.480	911.515
385.088	27.485	1123.526	910.931
386.102	27.569	1122.423	910.374
387.117	27.436	1121.859	909.176
388.132	27.485	1120.841	908.511
389.146	27.491	1120.676	908.328
390.161	27.541	1119.893	907.863
391.175	27.514	1119.331	907.193
392.190	27.539	1118.288	906.391
393.205	27.562	1117.474	905.763
394.219	27.535	1117.052	905.210
395.234	27.606	1116.020	904.643
396.248	27.660	1115.046	904.046
397.263	27.691	1113.971	903.245
398.278	27.602	1113.892	902.660
399.292	27.646	1113.237	902.266
400.307	27.634	1113.098	902.016
401.321	27.626	1112.474	901.390
402.336	27.605	1111.494	900.411
403.350	27.674	1111.057	900.320
404.365	27.747	1110.159	899.873
405.380	27.656	1109.372	898.706
406.394	27.744	1108.643	898.468
407.409	27.754	1107.796	897.753
408.423	27.831	1106.849	897.287
409.438	27.925	1106.269	897.198
410.453	27.857	1105.780	896.388
411.467	27.777	1105.274	895.507
412.482	27.882	1104.511	895.323
413.496	27.771	1103.994	894.281
414.511	27.874	1103.476	894.287
415.526	27.905	1102.843	893.846
416.540	27.767	1102.461	892.783
417.555	27.784	1102.058	892.461
418.569	27.845	1101.567	892.280
419.584	27.917	1101.070	892.153
420.599	27.860	1100.734	891.524
421.613	75.114	1276.958	1293.392
422.628	70.360	1302.638	1293.523
