DTS Sentinel unit serial number:	SN413079Multiplexer serial number:	ORYXHardware model number:	OX4-SRSoftware version number:	ORYX F/W v4.00 Oryx Data Collector v3.7.2.0data status	okinstallation	princeton_trtdifferential loss correction	single-endedforward channel	channel 2reverse channel	N/Adate	2019/09/11time	00:41:11forward acquisition time	60.00reverse acquisition time	0.00gamma	496.2192k internal	0.2332k external	0.2332temperature offset calibration	0.9948default loss term (dB/km)	0.3790temperature slope calibration	1.0000multiplexer offset coefficient	1.0000multiplexer slope coefficient	1.0000fibre end	0.00T internal ref (°C)	29.19T ext. ref 1 (°C)	-0.29T ext. ref 2 (°C)	22.90length (m)	temperature (°C)	Stokes	anti-Stokes-747.200	12.734	0.281	0.218
-746.185	-200.000	0.039	0.491
-745.171	-200.000	0.014	0.120
-744.156	-130.004	-0.189	-0.026
-743.142	800.000	0.012	-0.048
-742.127	-97.234	-0.251	-0.066
-741.112	-100.756	-0.161	-0.040
-740.098	-50.158	-0.237	-0.113
-739.083	800.000	0.065	0.231
-738.069	-71.994	0.039	-0.014
-737.054	-148.176	-0.092	0.008
-736.039	-57.051	-0.150	0.067
-735.025	105.460	0.286	0.340
-734.010	710.414	0.032	-0.086
-732.996	-89.509	-0.438	-0.129
-731.981	-32.450	0.066	-0.037
-730.966	-156.077	-0.461	-0.029
-729.952	-200.000	0.014	0.160
-728.937	-117.935	-0.297	-0.053
-727.923	-200.000	0.044	-0.438
-726.908	37.436	-0.181	-0.161
-725.894	402.864	0.135	0.285
-724.879	-200.000	0.002	-0.072
-723.864	800.000	0.053	-0.150
-722.850	-138.710	-0.199	0.022
-721.835	-71.867	-0.188	0.071
-720.821	-188.005	-0.178	-0.002
-719.806	61.662	-0.084	0.084
-718.791	491.788	0.141	0.324
-717.777	638.328	0.081	0.206
-716.762	36.285	0.243	-0.215
-715.748	-96.632	-0.238	-0.063
-714.733	-101.995	-0.233	-0.057
-713.718	-43.472	-0.225	-0.114
-712.704	54.852	0.147	-0.142
-711.689	129.088	-0.179	0.230
-710.675	-24.563	-0.177	-0.106
-709.660	800.000	-0.143	-0.402
-708.645	179.222	-0.215	0.316
-707.631	-51.673	-0.186	-0.087
-706.616	800.000	0.048	-0.201
-705.602	-134.710	-0.432	-0.053
-704.587	-200.000	0.029	0.206
-703.572	-140.299	-0.238	-0.025
-702.558	170.186	-0.205	-0.294
-701.543	49.548	0.045	0.042
-700.529	677.614	0.044	0.115
-699.514	33.932	-0.414	-0.362
-698.499	-200.000	0.030	-0.141
-697.485	-200.000	-0.024	-0.347
-696.470	14.010	-0.180	0.141
-695.456	71.381	0.125	0.131
-694.441	190.229	-0.205	0.310
-693.426	-45.462	-0.166	0.083
-692.412	800.000	0.031	0.119
-691.397	-200.000	-0.012	-0.058
-690.383	-200.000	0.008	0.058
-689.368	38.536	0.118	-0.106
-688.354	800.000	-0.085	-0.319
-687.339	-51.748	0.344	-0.161
-686.324	79.083	-0.124	-0.133
-685.310	110.226	0.010	-0.012
-684.295	-82.063	0.220	0.072
-683.281	-200.000	0.034	-0.417
-682.266	-43.977	0.194	-0.098
-681.251	800.000	0.079	0.341
-680.237	-77.696	0.103	0.036
-679.222	391.611	0.035	-0.073
-678.208	800.000	0.066	-0.225
-677.193	44.340	-0.169	-0.155
-676.178	392.261	0.071	-0.148
-675.164	-200.000	0.018	-0.125
-674.149	800.000	0.048	-0.155
-673.135	-13.049	0.132	-0.086
-672.120	-78.182	-0.148	0.051
-671.105	56.955	0.215	-0.210
-670.091	-200.000	-0.003	0.143
-669.076	-124.667	-0.230	0.036
-668.062	439.952	-0.194	0.426
-667.047	318.451	-0.139	-0.264
-666.032	17.855	0.026	0.021
-665.018	212.107	0.009	-0.014
-664.003	-200.000	-0.005	0.132
-662.989	90.210	-0.201	-0.225
-661.974	-200.000	0.051	-0.314
-660.959	-61.961	0.162	-0.068
-659.945	120.465	0.168	-0.209
-658.930	21.716	-0.237	-0.193
-657.916	185.291	0.294	-0.438
-656.901	-200.000	0.011	0.076
-655.886	34.467	0.057	-0.050
-654.872	149.913	-0.104	-0.141
-653.857	-136.796	-0.207	0.024
-652.843	-53.723	0.254	-0.116
-651.828	-200.000	0.015	-0.407
-650.814	31.563	0.175	0.151
-649.799	26.405	0.083	-0.070
-648.784	-135.326	0.296	-0.036
-647.770	-118.250	-0.320	-0.057
-646.755	-80.162	0.226	-0.076
-645.741	214.107	-0.259	-0.411
-644.726	266.014	0.158	-0.277
-643.711	265.281	-0.097	-0.170
-642.697	-58.819	-0.142	0.062
-641.682	-189.529	0.120	0.001
-640.668	16.061	-0.153	-0.121
-639.653	-113.244	-0.082	-0.016
-638.638	-200.000	-0.093	0.000
-637.624	61.000	0.050	0.049
-636.609	393.240	0.138	0.287
-635.595	-89.573	-0.307	0.090
-634.580	16.057	0.192	0.151
-633.565	-200.000	-0.066	-0.320
-632.551	522.647	-0.043	0.102
-631.536	-89.497	-0.187	0.055
-630.522	-54.020	0.118	0.054
-629.507	-200.000	-0.083	-0.363
-628.492	-159.385	-0.224	-0.013
-627.478	-60.870	-0.220	0.093
-626.463	-200.000	0.046	0.271
-625.449	-50.396	0.190	-0.090
-624.434	391.100	0.043	-0.090
-623.419	142.118	0.146	0.193
-622.405	800.000	0.042	-0.126
-621.390	800.000	-0.025	0.071
-620.376	-200.000	0.016	0.290
-619.361	-128.079	0.247	0.035
-618.346	182.527	0.127	-0.187
-617.332	172.455	-0.123	-0.177
-616.317	15.647	-0.032	-0.025
-615.303	-98.811	0.234	0.060
-614.288	28.718	0.196	0.166
-613.273	380.576	0.030	0.062
-612.259	-144.486	0.023	-0.002
-611.244	-200.000	0.040	-0.185
-610.230	-200.000	-0.032	-0.220
-609.215	-200.000	-0.047	-0.304
-608.201	3.380	0.022	0.016
-607.186	-108.588	-0.153	0.033
-606.171	800.000	-0.058	-0.206
-605.157	-200.000	0.010	-0.123
-604.142	-62.078	-0.365	-0.153
-603.128	-62.762	0.155	-0.064
-602.113	-200.000	0.013	-0.148
-601.098	800.000	-0.022	-0.087
-600.084	93.223	-0.068	-0.077
-599.069	-62.450	0.328	-0.137
-598.055	-138.426	0.229	0.025
-597.040	26.480	0.112	0.093
-596.025	-155.677	-0.040	0.003
-595.011	-200.000	0.001	0.387
-593.996	93.787	-0.104	-0.118
-592.982	187.325	0.107	-0.159
-591.967	800.000	-0.070	0.251
-590.952	-200.000	0.031	0.311
-589.938	-43.213	0.353	0.179
-588.923	-53.201	-0.508	0.233
-587.909	60.185	0.083	-0.082
-586.894	-98.585	-0.195	0.050
-585.879	-39.940	0.177	0.092
-584.865	-93.453	0.537	0.149
-583.850	38.817	-0.249	-0.222
-582.836	800.000	-0.071	0.217
-581.821	-68.155	-0.216	0.084
-580.806	800.000	0.026	0.083
-579.792	-37.731	0.109	-0.058
-578.777	-117.506	-0.334	0.060
-577.763	-200.000	0.001	0.357
-576.748	-27.593	-0.140	-0.081
-575.733	64.393	0.059	-0.059
-574.719	-119.928	-0.310	0.053
-573.704	800.000	-0.064	0.272
-572.690	800.000	-0.045	-0.181
-571.675	15.166	-0.165	-0.129
-570.661	-103.491	-0.077	0.018
-569.646	-31.545	0.346	-0.194
-568.631	-200.000	-0.010	-0.256
-567.617	-52.575	0.208	0.096
-566.602	-200.000	-0.004	0.377
-565.588	-200.000	0.013	-0.078
-564.573	-200.000	0.029	-0.148
-563.558	-200.000	-0.003	-0.151
-562.544	142.392	-0.158	-0.209
-561.529	-200.000	0.016	-0.164
-560.515	-33.642	0.126	-0.069
-559.500	800.000	-0.081	0.333
-558.485	227.747	-0.101	-0.164
-557.471	165.274	-0.064	0.090
-556.456	14.688	0.285	0.223
-555.442	-85.314	-0.040	-0.013
-554.427	-177.885	0.083	0.002
-553.412	41.545	0.205	-0.185
-552.398	-106.451	-0.232	0.052
-551.383	139.023	-0.142	-0.186
-550.369	800.000	0.035	-0.139
-549.354	800.000	0.055	-0.156
-548.339	117.016	0.313	0.384
-547.325	-200.000	-0.012	-0.061
-546.310	-200.000	-0.032	0.166
-545.296	125.836	-0.150	-0.189
-544.281	-82.881	-0.421	-0.136
-543.266	800.000	0.020	-0.074
-542.252	-200.000	0.095	-0.442
-541.237	6.507	-0.021	0.016
-540.223	-125.693	-0.088	-0.013
-539.208	0.135	-0.229	-0.163
-538.193	-84.520	-0.414	0.130
-537.179	-125.362	0.197	0.030
-536.164	-126.289	0.286	-0.043
-535.150	-200.000	0.005	0.045
-534.135	205.400	0.026	0.041
-533.121	179.294	-0.203	-0.297
-532.106	149.727	0.091	0.124
-531.091	588.246	0.033	-0.081
-530.077	800.000	-0.047	0.138
-529.062	21.199	-0.207	-0.168
-528.048	-106.688	0.183	-0.041
-527.033	-52.241	0.268	-0.124
-526.018	-52.877	-0.084	0.038
-525.004	-139.671	0.172	0.018
-523.989	-31.439	0.159	-0.089
-522.975	-200.000	-0.044	-0.388
-521.960	-200.000	-0.006	-0.092
-520.945	-52.020	-0.130	0.060
-519.931	95.450	-0.161	-0.183
-518.916	336.482	0.040	-0.077
-517.902	123.389	-0.183	-0.228
-516.887	5.452	0.059	-0.044
-515.872	-43.015	-0.284	0.144
-514.858	-50.800	-0.117	-0.055
-513.843	-200.000	0.050	0.298
-512.829	14.741	0.298	-0.232
-511.814	-200.000	-0.032	-0.146
-510.799	33.175	0.172	0.149
-509.785	-93.791	0.294	0.081
-508.770	542.960	0.109	-0.260
-507.756	800.000	-0.079	-0.220
-506.741	303.215	0.055	-0.102
-505.726	10.467	0.142	-0.107
-504.712	800.000	-0.048	0.137
-503.697	-10.063	-0.200	-0.132
-502.683	68.379	0.157	0.161
-501.668	630.311	-0.020	-0.050
-500.653	29.190	0.115	0.097
-499.639	-75.450	-0.160	0.057
-498.624	800.000	-0.039	0.111
-497.610	-86.094	-0.016	0.005
-496.595	-200.000	0.032	-0.157
-495.581	-55.886	-0.212	-0.094
-494.566	322.064	0.096	-0.182
-493.551	-200.000	-0.002	-0.032
-492.537	610.584	0.050	-0.125
-491.522	-200.000	0.028	-0.262
-490.508	71.852	0.123	-0.127
-489.493	-38.539	-0.378	0.199
-488.478	-200.000	-0.013	0.095
-487.464	800.000	0.026	-0.086
-486.449	198.368	0.181	-0.277
-485.435	708.486	0.060	0.157
-484.420	-200.000	-0.011	-0.074
-483.405	199.614	-0.067	-0.103
-482.391	284.889	0.119	0.214
-481.376	-200.000	0.095	0.462
-480.362	-75.462	-0.283	-0.100
-479.347	-76.029	-0.358	-0.126
-478.332	-41.699	-0.091	-0.047
-477.318	-200.000	0.029	-0.130
-476.303	-0.487	-0.282	-0.199
-475.289	-41.147	0.149	-0.077
-474.274	329.406	0.118	-0.226
-473.259	-26.647	0.152	0.089
-472.245	-116.659	-0.314	-0.057
-471.230	800.000	0.046	0.154
-470.216	-200.000	-0.011	0.074
-469.201	39.059	-0.155	-0.138
-468.186	-100.511	-0.247	0.061
-467.172	99.299	-0.191	-0.220
-466.157	800.000	-0.101	-0.296
-465.143	43.379	0.274	-0.249
-464.128	-120.768	0.130	0.022
-463.113	65.780	-0.275	0.278
-462.099	-52.407	0.075	-0.034
-461.084	-51.923	0.120	0.056
-460.070	10.206	-0.307	0.232
-459.055	46.739	-0.264	-0.244
-458.040	-120.287	0.291	-0.049
-457.026	-200.000	-0.025	0.137
-456.011	-70.777	0.178	-0.067
-454.997	101.029	0.330	-0.382
-453.982	-200.000	0.001	0.165
-452.968	366.180	0.051	-0.102
-451.953	62.531	-0.138	0.137
-450.938	29.636	0.263	-0.223
-449.924	-70.727	0.133	-0.050
-448.909	128.454	-0.138	-0.175
-447.895	3.876	0.142	-0.103
-446.880	731.183	-0.081	0.214
-445.865	-200.000	-0.020	0.183
-444.851	-93.131	-0.227	0.063
-443.836	800.000	0.057	-0.232
-442.822	-177.810	0.146	-0.003
-441.807	-91.344	-0.318	0.091
-440.792	641.626	0.122	-0.310
-439.778	478.727	-0.074	0.166
-438.763	130.047	0.266	0.338
-437.749	-28.110	-0.173	0.099
-436.734	413.711	-0.098	0.208
-435.719	-67.713	-0.148	-0.058
-434.705	-108.216	-0.242	0.052
-433.690	-13.180	-0.325	-0.210
-432.676	554.219	-0.105	0.251
-431.661	81.828	-0.219	0.235
-430.646	-50.972	-0.097	-0.045
-429.632	800.000	-0.026	0.073
-428.617	65.208	-0.056	0.056
-427.603	-61.028	-0.229	-0.096
-426.588	115.128	-0.029	-0.035
-425.573	49.360	-0.158	0.148
-424.559	-48.842	-0.248	-0.118
-423.544	417.628	0.129	0.274
-422.530	-200.000	0.088	0.449
-421.515	-55.082	-0.255	0.114
-420.500	157.162	-0.194	0.267
-419.486	-200.000	0.026	0.163
-418.471	-200.000	-0.021	-0.099
-417.457	31.196	0.152	-0.130
-416.442	-200.000	-0.005	-0.142
-415.428	130.920	0.182	0.232
-414.413	-200.000	-0.049	-0.263
-413.398	-19.888	0.077	0.047
-412.384	-167.837	-0.290	-0.011
-411.369	97.762	-0.048	0.055
-410.355	149.440	-0.078	-0.105
-409.340	-78.363	0.133	0.045
-408.325	-146.843	0.349	-0.030
-407.311	-85.327	0.051	0.016
-406.296	162.813	0.266	0.371
-405.282	-60.643	0.248	0.104
-404.267	277.465	-0.060	-0.105
-403.252	471.410	-0.162	0.363
-402.238	-59.502	-0.394	0.168
-401.223	800.000	-0.095	0.297
-400.209	11.612	0.112	0.086
-399.194	34.813	0.141	-0.122
-398.179	-106.976	0.219	-0.048
-397.165	-200.000	0.070	0.405
-396.150	372.643	-0.020	-0.039
-395.136	-85.251	-0.161	0.050
-394.121	66.342	0.147	0.148
-393.106	28.093	-0.261	0.218
-392.092	-123.830	0.096	0.015
-391.077	-61.534	-0.184	0.077
-390.063	81.429	0.386	-0.414
-389.048	-90.100	-0.216	0.063
-388.033	-63.664	-0.354	-0.144
-387.019	303.945	0.178	0.327
-386.004	144.010	0.338	0.448
-384.990	800.000	0.054	-0.178
-383.975	800.000	0.030	0.097
-382.960	-7.351	-0.297	0.200
-381.946	-69.112	-0.317	-0.121
-380.931	800.000	-0.068	0.267
-379.917	33.438	0.449	-0.387
-378.902	-58.129	-0.310	-0.134
-377.888	-200.000	0.017	0.111
-376.873	-45.488	0.058	-0.029
-375.858	-200.000	-0.023	-0.153
-374.844	-114.980	-0.254	0.048
-373.829	-45.352	0.279	-0.137
-372.815	3.236	-0.352	0.254
-371.800	-17.164	0.182	-0.114
-370.785	800.000	-0.029	0.098
-369.771	48.053	-0.071	-0.066
-368.756	-39.944	-0.413	0.214
-367.742	-48.701	0.311	-0.148
-366.727	21.987	0.255	0.206
-365.712	-159.154	0.131	0.007
-364.698	-200.000	-0.061	-0.492
-363.683	-200.000	-0.052	0.288
-362.669	267.795	0.042	-0.073
-361.654	70.425	0.207	-0.212
-360.639	746.756	-0.018	-0.047
-359.625	61.161	-0.114	-0.112
-358.610	-200.000	-0.040	-0.201
-357.596	-117.079	-0.266	0.048
-356.581	-162.213	-0.366	0.018
-355.566	-68.660	0.053	0.020
-354.552	139.384	0.100	-0.131
-353.537	-97.353	0.162	0.042
-352.523	800.000	-0.135	0.415
-351.508	-177.555	0.114	-0.003
-350.493	-91.302	0.244	-0.069
-349.479	-7.866	0.262	0.175
-348.464	-200.000	-0.038	-0.209
-347.450	-200.000	0.003	-0.079
-346.435	-110.818	0.049	-0.010
-345.420	70.287	-0.157	0.161
-344.406	-3.580	0.230	0.159
-343.391	-84.935	0.041	-0.013
-342.377	770.967	0.164	0.441
-341.362	800.000	-0.020	-0.065
-340.348	255.039	-0.197	-0.334
-339.333	676.560	0.071	-0.184
-338.318	45.227	0.289	0.264
-337.304	-64.244	-0.300	0.121
-336.289	-200.000	-0.016	0.316
-335.275	22.239	0.225	0.182
-334.260	-200.000	0.033	-0.145
-333.245	-200.000	0.032	-0.365
-332.231	-3.439	-0.157	-0.108
-331.216	-200.000	-0.019	0.195
-330.202	-51.583	-0.131	-0.060
-329.187	191.949	0.183	-0.273
-328.172	-72.634	0.385	0.141
-327.158	362.783	-0.188	-0.373
-326.143	145.653	0.177	-0.235
-325.129	-58.187	-0.204	-0.088
-324.114	-200.000	0.022	-0.110
-323.099	800.000	0.123	0.381
-322.085	513.860	0.099	0.229
-321.070	123.697	-0.138	0.172
-320.056	110.111	-0.114	-0.135
-319.041	30.588	-0.187	0.158
-318.026	648.215	0.184	0.466
-317.012	-116.663	-0.123	-0.022
-315.997	-92.921	-0.097	-0.027
-314.983	173.642	0.159	-0.227
-313.968	15.720	-0.159	-0.123
-312.953	-120.489	0.411	-0.069
-311.939	7.814	0.107	0.080
-310.924	722.903	-0.067	-0.176
-309.910	-64.643	-0.200	0.080
-308.895	-200.000	0.027	0.291
-307.880	-79.833	-0.147	0.049
-306.866	-7.076	0.200	0.134
-305.851	27.214	-0.134	0.111
-304.837	83.961	-0.158	-0.170
-303.822	-38.647	0.224	0.117
-302.807	-200.000	0.026	0.228
-301.793	20.402	-0.122	0.097
-300.778	-166.727	-0.227	-0.009
-299.764	705.779	-0.061	0.159
-298.749	82.756	-0.093	0.100
-297.735	39.271	0.306	-0.271
-296.720	-3.171	0.157	-0.108
-295.705	485.286	0.040	-0.090
-294.691	-111.025	0.116	-0.024
-293.676	-103.739	0.071	-0.017
-292.662	-29.196	-0.059	0.034
-291.647	-200.000	-0.012	0.229
-290.632	-200.000	0.001	0.015
-289.618	-200.000	-0.012	0.157
-288.603	-58.472	0.066	0.029
-287.589	-200.000	-0.009	-0.253
-286.574	-200.000	-0.070	0.331
-285.559	-27.192	-0.094	0.054
-284.545	800.000	0.123	0.428
-283.530	582.631	0.074	-0.179
-282.516	-73.751	-0.149	0.053
-281.501	57.417	0.259	-0.250
-280.486	-92.796	0.267	-0.074
-279.472	-97.913	-0.560	-0.143
-278.457	-120.314	0.116	-0.020
-277.443	195.243	-0.066	-0.098
-276.428	-120.526	-0.459	-0.077
-275.413	32.019	-0.191	0.163
-274.399	-200.000	-0.011	0.111
-273.384	-84.808	0.247	-0.077
-272.370	-127.282	-0.134	-0.019
-271.355	-200.000	0.020	-0.157
-270.340	52.275	-0.151	0.142
-269.326	346.595	-0.117	-0.227
-268.311	-32.271	-0.179	-0.099
-267.297	421.681	0.021	-0.045
-266.282	800.000	0.055	-0.213
-265.267	79.701	0.073	-0.078
-264.253	-123.745	-0.069	0.011
-263.238	-200.000	0.027	0.222
-262.224	-33.851	-0.085	-0.046
-261.209	134.047	-0.143	-0.182
-260.195	103.697	0.213	0.247
-259.180	-200.000	-0.021	-0.123
-258.165	202.541	0.065	0.098
-257.151	-74.418	-0.265	-0.095
-256.136	-68.493	0.234	0.089
-255.122	800.000	0.086	0.265
-254.107	-20.591	-0.113	-0.068
-253.092	448.531	0.048	-0.103
-252.078	65.986	-0.123	-0.124
-251.063	-88.919	0.208	0.061
-250.049	-200.000	-0.021	-0.173
-249.034	-200.000	-0.008	0.335
-248.019	6.376	0.267	0.196
-247.005	-200.000	0.008	-0.044
-245.990	23.950	-0.205	0.167
-244.976	-143.143	0.143	0.014
-243.961	-34.588	0.368	-0.199
-242.946	-200.000	0.006	0.026
-241.932	50.574	0.057	-0.053
-240.917	-121.459	0.277	0.045
-239.903	116.971	0.192	0.233
-238.888	428.306	0.044	0.094
-237.873	-147.026	0.357	-0.030
-236.859	-183.701	0.146	-0.002
-235.844	-62.508	-0.256	-0.105
-234.830	258.193	0.124	-0.211
-233.815	370.650	0.042	0.085
-232.800	-7.206	0.162	0.108
-231.786	-134.171	-0.410	0.050
-230.771	-85.094	0.389	0.120
-229.757	10.625	0.189	-0.142
-228.742	-178.173	-0.227	-0.005
-227.727	-74.369	-0.257	0.092
-226.713	-200.000	-0.002	-0.022
-225.698	-200.000	0.006	0.222
-224.684	331.001	-0.107	-0.202
-223.669	-99.721	0.147	0.036
-222.655	-2.420	0.202	-0.140
-221.640	72.499	0.208	0.214
-220.625	361.918	-0.097	0.192
-219.611	-62.021	-0.398	0.164
-218.596	-80.213	-0.138	-0.045
-217.582	800.000	-0.099	0.377
-216.567	-200.000	-0.007	-0.081
-215.552	-143.667	0.527	0.049
-214.538	-64.983	-0.138	-0.055
-213.523	-200.000	-0.017	-0.153
-212.509	-72.342	0.230	0.084
-211.494	-81.544	-0.079	-0.026
-210.479	-1.243	0.060	0.042
-209.465	17.444	-0.142	-0.111
-208.450	220.774	-0.231	-0.365
-207.436	-81.451	-0.077	-0.025
-206.421	-32.608	0.370	0.203
-205.406	-58.091	0.502	0.216
-204.392	245.268	-0.135	0.224
-203.377	-34.739	0.253	0.136
-202.363	-5.255	0.132	0.089
-201.348	127.017	-0.102	-0.128
-200.333	-68.041	-0.172	-0.066
-199.319	-123.246	0.357	-0.056
-198.304	-16.304	0.106	0.066
-197.290	3.511	-0.199	-0.143
-196.275	454.202	0.109	-0.237
-195.260	169.641	-0.087	-0.122
-194.246	800.000	0.031	0.113
-193.231	142.853	-0.152	0.199
-192.217	-78.625	-0.065	0.022
-191.202	800.000	-0.035	0.098
-190.187	139.796	-0.208	0.270
-189.173	89.676	0.141	0.155
-188.158	-8.400	-0.084	0.056
-187.144	-116.195	0.130	-0.024
-186.129	208.413	-0.181	-0.278
-185.114	800.000	-0.042	-0.138
-184.100	475.255	-0.049	0.110
-183.085	57.717	-0.103	-0.099
-182.071	800.000	-0.024	0.085
-181.056	527.313	-0.067	-0.155
-180.042	-18.665	0.286	0.176
-179.027	-200.000	-0.013	0.332
-178.012	-200.000	0.005	0.092
-176.998	-200.000	-0.031	-0.315
-175.983	-200.000	0.045	-0.353
-174.969	-102.105	-0.251	-0.060
-173.954	-92.355	0.252	-0.070
-172.939	285.773	-0.147	0.261
-171.925	-200.000	0.009	0.228
-170.910	-183.145	-0.166	0.003
-169.896	-47.693	-0.280	-0.133
-168.881	-110.348	0.441	-0.090
-167.866	-111.390	-0.275	0.055
-166.852	464.176	-0.084	0.184
-165.837	164.317	0.110	-0.152
-164.823	800.000	-0.024	-0.078
-163.808	-115.098	0.359	-0.067
-162.793	-200.000	-0.012	0.291
-161.779	33.039	0.117	-0.099
-160.764	-151.935	-0.156	0.011
-159.750	-133.082	0.086	-0.011
-158.735	-200.000	0.056	-0.290
-157.720	799.197	-0.120	-0.326
-156.706	-19.300	0.497	-0.303
-155.691	29.549	0.154	-0.129
-154.677	95.415	0.208	0.233
-153.662	48.920	0.125	-0.116
-152.647	-55.535	0.214	0.094
-151.633	-66.302	-0.141	0.055
-150.618	-45.711	0.369	0.179
-149.604	-20.275	0.235	0.142
-148.589	-200.000	0.012	0.186
-147.574	384.795	0.114	0.231
-146.560	273.015	0.068	0.117
-145.545	16.287	-0.256	-0.198
-144.531	-93.804	-0.068	0.018
-143.516	800.000	0.037	-0.126
-142.502	-200.000	0.008	0.112
-141.487	3.535	-0.148	-0.106
-140.472	52.751	-0.020	0.019
-139.458	82.107	0.024	-0.026
-138.443	4.697	0.087	0.063
-137.429	8.846	-0.169	-0.125
-136.414	-200.000	0.036	-0.294
-135.399	-200.000	0.011	0.266
-134.385	-123.258	-0.166	0.026
-133.370	-149.657	0.097	-0.007
-132.356	-161.540	-0.122	-0.006
-131.341	123.909	-0.206	0.254
-130.326	-51.610	0.201	0.092
-129.312	-25.632	-0.207	0.120
-128.297	224.889	0.232	0.368
-127.283	94.340	0.060	0.067
-126.268	447.639	-0.081	0.175
-125.253	-133.841	0.123	0.015
-124.239	84.423	-0.168	-0.180
-123.224	-89.119	-0.094	0.027
-122.210	11.900	0.027	-0.020
-121.195	168.824	-0.297	0.415
-120.180	-5.413	0.196	0.132
-119.166	-104.400	0.047	0.011
-118.151	-100.052	-0.150	-0.037
-117.137	-171.753	-0.320	0.010
-116.122	85.336	-0.070	0.076
-115.107	-93.467	-0.136	0.037
-114.093	-104.259	0.175	0.040
-113.078	-48.584	0.174	0.082
-112.064	-200.000	0.019	-0.362
-111.049	-200.000	0.074	-0.337
-110.034	208.083	-0.053	-0.082
-109.020	-136.892	-0.187	0.021
-108.005	217.449	0.136	-0.213
-106.991	-144.753	-0.493	-0.044
-105.976	62.476	-0.160	0.156
-104.962	-169.447	-0.072	0.003
-103.947	800.000	-0.053	0.223
-102.932	-122.925	0.293	0.046
-101.918	800.000	0.071	-0.215
-100.903	-174.690	-0.152	-0.004
-99.889	-55.350	-0.166	-0.073
-98.874	-142.886	0.155	-0.015
-97.859	-20.239	-0.139	-0.084
-96.845	-59.435	-0.047	0.020
-95.830	-65.485	-0.186	-0.073
-94.816	-200.000	-0.017	-0.235
-93.801	-86.954	0.077	0.023
-92.786	-50.701	-0.237	-0.109
-91.772	159.723	0.006	0.008
-90.757	-94.230	0.404	0.108
-89.743	-200.000	-0.010	0.085
-88.728	64.767	-0.151	0.149
-87.713	638.690	-0.039	0.098
-86.699	-168.084	0.460	0.018
-85.684	-200.000	-0.016	0.193
-84.670	408.386	-0.074	-0.154
-83.655	258.075	-0.084	-0.142
-82.640	213.939	0.108	0.168
-81.626	753.984	-0.020	-0.052
-80.611	800.000	0.090	-0.360
-79.597	481.865	-0.035	0.077
-78.582	17.525	0.109	0.085
-77.567	-33.532	-0.271	-0.147
-76.553	-200.000	-0.025	-0.165
-75.538	138.869	0.159	0.204
-74.524	-80.370	0.260	0.085
-73.509	38.459	0.075	0.065
-72.494	23.103	-0.157	-0.127
-71.480	262.566	0.026	0.044
-70.465	194.815	0.185	-0.275
-69.451	-200.000	0.043	-0.222
-68.436	-200.000	-0.011	0.179
-67.422	205.613	0.188	0.286
-66.407	-61.061	-0.204	0.084
-65.392	-20.706	0.261	0.157
-64.378	-116.988	0.397	-0.071
-63.363	-200.000	0.181	0.001
-62.349	-200.000	-0.024	-0.234
-61.334	57.285	-1.141	-1.091
-60.319	-143.182	0.406	0.038
-59.305	442.158	-0.482	-1.034
-58.290	153.609	0.850	1.140
-57.276	772.753	0.608	1.624
-56.261	-200.000	107.160	623.577
-55.246	520.848	1511.980	3472.967
-54.232	175.059	2711.282	3845.176
-53.217	104.443	2294.677	2645.612
-52.203	38.467	1899.463	1657.984
-51.188	32.450	1686.221	1426.367
-50.173	29.846	1642.908	1370.414
-49.159	48.622	1697.437	1557.819
-48.144	48.791	1712.727	1573.065
-47.130	31.923	1669.757	1408.261
-46.115	29.246	1654.975	1375.785
-45.100	29.082	1650.477	1370.767
-44.086	29.098	1647.385	1368.264
-43.071	29.080	1644.854	1365.973
-42.057	29.066	1642.261	1363.660
-41.042	29.051	1640.412	1361.961
-40.027	29.136	1638.153	1360.659
-39.013	29.093	1636.784	1359.155
-37.998	28.999	1635.546	1357.379
-36.984	29.110	1633.771	1356.669
-35.969	29.172	1632.079	1355.663
-34.954	29.179	1630.655	1354.480
-33.940	29.197	1628.550	1352.809
-32.925	29.166	1627.328	1351.518
-31.911	29.232	1625.234	1350.207
-30.896	29.143	1623.516	1348.070
-29.881	29.134	1622.154	1346.825
-28.867	29.200	1620.557	1345.926
-27.852	29.272	1618.693	1344.851
-26.838	29.219	1617.378	1343.316
-25.823	29.219	1616.135	1342.232
-24.809	29.157	1614.733	1340.561
-23.794	29.200	1613.532	1339.822
-22.779	29.172	1612.089	1338.371
-21.765	29.254	1609.854	1337.058
-20.750	29.163	1608.787	1335.459
-19.736	29.255	1606.991	1334.582
-18.721	29.301	1605.522	1333.637
-17.706	29.192	1603.848	1331.406
-16.692	29.220	1602.519	1330.455
-15.677	29.128	1601.735	1329.086
-14.663	29.256	1600.266	1328.736
-13.648	29.245	1598.973	1327.533
-12.633	29.212	1597.785	1326.254
-11.619	29.195	1595.612	1324.280
-10.604	29.225	1593.936	1323.051
-9.590	29.229	1593.253	1322.456
-8.575	29.218	1591.757	1321.085
-7.560	29.220	1590.882	1320.321
-6.546	29.175	1589.789	1319.039
-5.531	29.254	1588.304	1318.323
-4.517	29.149	1587.874	1317.162
-3.502	29.249	1586.310	1316.524
-2.487	29.347	1584.457	1315.633
-1.473	28.994	1572.607	1303.243
-0.458	26.160	1552.838	1266.950
0.556	20.525	1554.577	1236.964
1.571	18.421	1578.766	1240.877
2.586	18.199	1592.342	1249.813
3.600	16.414	1540.804	1196.628
4.615	8.761	1431.943	1061.442
5.629	1.282	1367.596	966.175
6.644	-0.206	1359.985	951.290
7.659	-0.313	1358.546	949.519
8.673	-0.270	1357.405	948.910
9.688	-0.381	1356.124	947.233
10.702	-0.518	1352.478	943.739
11.717	2.520	1358.302	966.921
12.731	11.575	1375.214	1036.543
13.746	19.117	1388.558	1094.648
14.761	21.133	1390.654	1109.026
15.775	21.415	1390.782	1110.824
16.790	21.436	1390.499	1110.631
17.804	21.662	1389.673	1111.305
18.819	21.713	1389.581	1111.459
19.834	21.966	1388.420	1112.035
20.848	21.881	1388.017	1111.077
21.863	21.851	1387.349	1110.255
22.877	21.775	1386.646	1109.113
23.892	21.751	1385.890	1108.257
24.907	21.819	1384.895	1107.792
25.921	21.835	1383.888	1106.989
26.936	21.819	1382.803	1105.925
27.950	21.907	1381.535	1105.363
28.965	21.931	1380.047	1104.228
29.980	21.895	1379.385	1103.373
30.994	21.924	1377.860	1102.237
32.009	21.890	1377.232	1101.423
33.023	21.877	1375.713	1100.034
34.038	21.823	1374.851	1098.908
35.053	21.791	1373.886	1097.838
36.067	21.877	1372.742	1097.363
37.082	21.863	1371.709	1096.357
38.096	21.832	1371.503	1095.902
39.111	21.900	1370.406	1095.352
40.126	21.864	1369.352	1094.189
41.140	21.812	1369.203	1093.646
42.155	21.873	1368.595	1093.441
43.169	21.905	1368.602	1093.554
44.184	21.942	1368.161	1093.333
45.199	21.841	1367.994	1092.472
46.213	21.836	1367.266	1091.767
47.228	21.900	1366.344	1091.333
48.242	21.869	1364.863	1089.860
49.257	21.912	1363.342	1088.817
50.271	21.805	1362.294	1087.214
51.286	21.899	1360.731	1086.457
52.301	21.799	1359.595	1084.836
53.315	21.779	1359.096	1084.214
54.330	21.936	1357.766	1084.027
55.344	21.977	1356.399	1083.094
56.359	21.966	1355.443	1082.169
57.374	21.883	1355.414	1081.539
58.388	21.835	1355.109	1080.905
59.403	21.863	1353.936	1080.045
60.417	21.768	1353.716	1079.190
61.432	21.794	1352.982	1078.670
62.447	21.823	1351.755	1077.774
63.461	21.836	1350.579	1076.815
64.476	21.905	1349.775	1076.508
65.490	21.860	1348.543	1075.152
66.505	21.936	1346.496	1073.889
67.520	21.948	1345.272	1072.894
68.534	21.918	1344.735	1072.187
69.549	21.845	1343.764	1070.871
70.563	21.907	1342.534	1070.173
71.578	21.829	1341.956	1069.144
72.593	21.843	1340.870	1068.269
73.607	21.891	1340.107	1067.860
74.622	21.894	1339.527	1067.318
75.636	21.882	1338.944	1066.686
76.651	21.939	1337.833	1066.055
77.666	21.865	1338.116	1065.733
78.680	21.898	1337.150	1065.073
79.695	21.870	1336.073	1063.951
80.709	21.849	1335.073	1062.935
81.724	21.869	1334.787	1062.730
82.739	21.889	1333.393	1061.652
83.753	22.023	1331.928	1061.197
84.768	21.928	1330.921	1059.729
85.782	21.945	1330.033	1059.029
86.797	21.940	1328.806	1057.933
87.812	21.904	1327.969	1056.953
88.826	21.911	1326.799	1055.969
89.841	21.888	1325.853	1054.984
90.855	22.008	1324.153	1054.260
91.870	21.981	1323.764	1053.694
92.884	21.857	1323.161	1052.378
93.899	21.984	1322.156	1052.248
94.914	22.018	1321.239	1051.627
95.928	22.061	1320.447	1051.164
96.943	21.939	1319.858	1049.869
97.957	22.008	1319.066	1049.561
98.972	21.987	1318.146	1048.611
99.987	21.883	1317.613	1047.474
101.001	21.925	1316.220	1046.523
102.016	21.892	1315.671	1045.795
103.030	22.031	1314.283	1045.431
104.045	21.985	1313.864	1044.727
105.060	22.062	1312.427	1043.952
106.074	21.994	1311.849	1042.996
107.089	22.034	1310.415	1041.997
108.103	21.956	1309.746	1040.911
109.118	21.941	1308.868	1040.032
110.133	22.104	1306.746	1039.219
111.147	22.172	1305.717	1038.713
112.162	22.020	1304.794	1036.991
113.176	22.040	1303.756	1036.188
114.191	22.097	1302.534	1035.461
115.206	22.009	1302.102	1034.512
116.220	22.016	1300.940	1033.535
117.235	22.124	1299.800	1033.175
118.249	22.004	1298.982	1031.726
119.264	21.952	1298.330	1030.812
120.279	21.988	1297.259	1030.083
121.293	22.036	1296.582	1029.735
122.308	21.995	1296.004	1028.947
123.322	22.175	1294.006	1028.318
124.337	22.136	1293.270	1027.418
125.352	22.097	1292.587	1026.555
126.366	22.090	1291.779	1025.783
127.381	22.096	1290.820	1024.964
128.395	22.019	1290.012	1023.786
129.410	22.095	1288.881	1023.235
130.424	22.086	1288.528	1022.812
131.439	21.979	1287.690	1021.438
132.454	22.141	1286.540	1021.377
133.468	22.089	1286.006	1020.561
134.483	22.040	1285.214	1019.553
135.497	22.115	1284.049	1018.974
136.512	22.086	1283.347	1018.162
137.527	22.136	1282.026	1017.314
138.541	22.036	1280.425	1015.375
139.556	21.913	1279.649	1013.958
140.570	22.053	1278.012	1013.378
141.585	21.941	1277.202	1012.002
142.600	22.030	1275.887	1011.382
143.614	21.991	1275.399	1010.681
144.629	21.986	1274.339	1009.724
145.643	21.958	1273.491	1008.800
146.658	21.983	1272.242	1007.868
147.673	22.131	1270.621	1007.343
148.687	21.987	1270.312	1006.180
149.702	21.953	1269.075	1004.918
150.716	21.983	1267.699	1003.909
151.731	21.985	1266.877	1003.184
152.746	21.842	1266.149	1001.703
153.760	22.092	1265.040	1002.162
154.775	22.132	1263.844	1001.353
155.789	22.134	1262.752	1000.413
156.804	22.058	1262.032	999.317
157.819	22.129	1260.832	998.684
158.833	22.118	1260.358	998.161
159.848	22.145	1259.498	997.540
160.862	22.079	1258.782	996.512
161.877	22.206	1257.677	996.267
162.892	22.103	1257.127	995.160
163.906	22.089	1256.408	994.428
164.921	22.139	1255.723	994.077
165.935	22.092	1254.804	992.998
166.950	22.152	1254.350	992.887
167.964	22.196	1253.713	992.543
168.979	22.157	1252.928	991.615
169.994	22.145	1252.194	990.879
171.008	22.311	1251.261	990.991
172.023	22.253	1250.607	990.055
173.037	22.166	1250.017	989.012
174.052	22.248	1249.172	988.719
175.067	22.261	1247.964	987.747
176.081	22.348	1247.571	987.835
177.096	22.114	1246.789	985.815
178.110	22.207	1245.941	985.582
179.125	22.239	1244.998	984.925
180.140	22.257	1243.608	983.840
181.154	22.225	1242.644	982.810
182.169	22.271	1241.551	982.120
183.183	22.331	1240.825	981.790
184.198	22.284	1239.618	980.490
185.213	22.238	1239.032	979.681
186.227	22.301	1237.826	978.992
187.242	22.227	1237.244	978.035
188.256	22.379	1236.329	978.067
189.271	22.382	1235.221	977.119
190.286	22.355	1234.674	976.454
191.300	22.150	1234.373	974.990
192.315	22.370	1233.217	975.210
193.329	22.292	1233.385	974.822
194.344	22.357	1232.531	974.421
195.359	22.405	1231.941	974.136
196.373	22.181	1231.791	972.694
197.388	22.215	1231.568	972.620
198.402	22.164	1231.261	972.008
199.417	22.229	1230.648	971.794
200.432	22.228	1230.003	971.194
201.446	22.200	1229.580	970.619
202.461	22.208	1228.609	969.812
203.475	22.362	1226.917	969.238
204.490	22.325	1226.542	968.656
205.504	22.278	1225.802	967.729
206.519	22.339	1224.745	967.139
207.534	22.365	1223.597	966.294
208.548	22.307	1222.839	965.290
209.563	22.292	1222.340	964.731
210.577	22.338	1221.230	964.021
211.592	22.367	1220.003	963.122
212.607	22.509	1219.344	963.293
213.621	22.485	1218.443	962.366
214.636	22.386	1218.283	961.612
215.650	22.374	1217.335	960.715
216.665	22.372	1216.517	959.974
217.680	22.405	1215.506	959.270
218.694	22.407	1214.542	958.437
219.709	22.362	1214.397	957.989
220.723	22.436	1213.300	957.443
221.738	22.358	1212.991	956.694
222.753	22.365	1211.806	955.709
223.767	22.368	1211.688	955.547
224.782	22.505	1210.626	955.368
225.796	22.493	1210.309	954.969
226.811	22.437	1209.647	954.057
227.826	22.508	1208.867	953.745
228.840	22.530	1208.607	953.572
229.855	22.320	1208.404	952.191
230.869	22.453	1207.355	952.001
231.884	22.471	1206.567	951.394
232.899	22.413	1205.826	950.410
233.913	22.546	1204.980	950.378
234.928	22.613	1204.814	950.526
235.942	22.559	1203.955	949.472
236.957	22.522	1203.438	948.782
237.972	22.452	1202.627	947.680
238.986	22.485	1201.585	946.955
240.001	22.577	1201.654	947.420
241.015	22.714	1200.270	946.979
242.030	22.664	1200.048	946.449
243.045	22.651	1199.098	945.549
244.059	22.675	1198.235	944.913
245.074	22.642	1197.597	944.147
246.088	22.676	1196.528	943.406
247.103	22.648	1196.006	942.761
248.117	22.714	1194.947	942.196
249.132	22.709	1194.364	941.627
250.147	22.684	1194.055	941.163
251.161	22.760	1193.110	940.744
252.176	22.790	1192.067	939.998
253.190	22.819	1191.413	939.549
254.205	22.819	1191.048	939.182
255.220	22.698	1190.678	938.159
256.234	22.756	1189.935	937.800
257.249	22.773	1189.406	937.394
258.263	22.747	1188.935	936.802
259.278	22.932	1187.871	936.857
260.293	22.783	1187.365	935.586
261.307	22.791	1187.279	935.482
262.322	22.780	1186.283	934.552
263.336	22.863	1185.491	934.284
264.351	22.770	1185.320	933.575
265.366	22.784	1184.781	933.145
266.380	22.818	1183.795	932.464
267.395	22.741	1183.672	931.879
268.409	22.701	1182.404	930.584
269.424	22.803	1181.658	930.456
270.439	22.838	1181.755	930.631
271.453	22.919	1180.829	930.248
272.468	22.788	1179.807	928.670
273.482	22.720	1179.310	927.843
274.497	22.809	1178.763	927.795
275.512	22.956	1178.278	928.107
276.526	22.832	1177.653	926.876
277.541	22.964	1176.650	926.700
278.555	22.942	1175.878	925.895
279.570	22.851	1175.671	925.176
280.585	22.902	1174.864	924.721
281.599	22.964	1173.465	923.861
282.614	22.940	1172.905	923.216
283.628	22.977	1171.874	922.513
284.643	22.904	1171.127	921.464
285.657	23.021	1170.374	921.400
286.672	22.903	1169.366	919.909
287.687	23.072	1168.494	920.021
288.701	22.992	1168.739	919.718
289.716	22.940	1167.969	918.760
290.730	23.045	1167.077	918.526
291.745	23.086	1166.274	918.026
292.760	23.149	1165.553	917.703
293.774	23.005	1165.118	916.529
294.789	22.987	1164.705	916.030
295.803	23.157	1163.809	916.124
296.818	23.087	1163.507	915.445
297.833	23.044	1162.726	914.527
298.847	23.042	1162.331	914.124
299.862	23.112	1160.892	913.273
300.876	23.178	1160.527	913.245
301.891	23.172	1160.016	912.732
302.906	23.209	1159.184	912.189
303.920	23.216	1158.474	911.587
304.935	23.224	1157.948	911.132
305.949	23.187	1157.422	910.447
306.964	23.158	1156.574	909.552
307.979	23.347	1155.704	909.755
308.993	23.244	1155.483	908.974
310.008	23.183	1154.916	908.133
311.022	23.192	1154.081	907.441
312.037	23.327	1153.048	907.239
313.052	23.200	1152.152	905.805
314.066	23.256	1151.345	905.378
315.081	23.195	1150.669	904.453
316.095	23.226	1150.181	904.147
317.110	23.301	1149.518	903.930
318.125	23.324	1148.998	903.559
319.139	23.249	1148.184	902.456
320.154	23.250	1147.734	902.029
321.168	23.274	1147.379	901.792
322.183	23.358	1146.599	901.525
323.197	23.290	1145.823	900.492
324.212	23.235	1145.561	899.925
325.227	23.362	1145.010	900.056
326.241	23.374	1144.297	899.477
327.256	23.454	1143.381	899.086
328.270	23.442	1142.554	898.294
329.285	23.448	1141.813	897.661
330.300	23.424	1141.079	896.885
331.314	23.448	1140.183	896.221
332.329	23.409	1139.463	895.383
333.343	23.322	1139.229	894.680
334.358	23.523	1138.029	894.672
335.373	23.516	1137.019	893.761
336.387	23.406	1136.548	892.757
337.402	23.510	1135.855	892.658
338.416	23.556	1135.174	892.276
339.431	23.508	1134.758	891.631
340.446	23.426	1134.351	890.818
341.460	23.555	1133.270	890.539
342.475	23.650	1132.472	890.308
343.489	23.591	1131.726	889.347
344.504	23.676	1130.542	888.761
345.519	23.617	1129.920	887.903
346.533	23.593	1129.293	887.212
347.548	23.693	1128.935	887.351
348.562	23.681	1127.899	886.396
349.577	23.789	1126.867	886.044
350.592	23.486	1126.581	884.230
351.606	23.547	1126.308	884.243
352.621	23.613	1125.465	883.833
353.635	23.781	1124.358	883.719
354.650	23.727	1123.998	883.093
355.665	23.758	1123.416	882.710
356.679	23.697	1123.040	882.031
357.694	23.690	1122.289	881.329
358.708	23.541	1121.799	880.130
359.723	23.639	1120.879	879.813
360.738	23.729	1119.995	879.487
361.752	23.722	1119.858	879.270
362.767	23.710	1119.080	878.520
363.781	23.816	1118.668	878.645
364.796	23.862	1117.605	877.957
365.810	23.706	1117.512	877.036
366.825	23.827	1116.999	877.154
367.840	23.871	1116.467	876.874
368.854	23.861	1116.083	876.446
369.869	23.817	1115.174	875.438
370.883	23.925	1113.890	874.883
371.898	23.903	1113.430	874.339
372.913	23.958	1112.851	874.076
373.927	23.852	1112.606	873.284
374.942	23.875	1112.249	873.042
375.956	23.974	1111.442	872.818
376.971	24.065	1110.779	872.662
377.986	23.979	1110.659	872.070
379.000	24.040	1109.864	871.668
380.015	23.924	1109.394	870.652
381.029	23.986	1108.402	870.104
382.044	24.059	1107.592	869.744
383.059	24.049	1107.470	869.522
384.073	24.097	1106.865	869.204
385.088	24.071	1105.841	868.198
386.102	24.064	1104.619	867.127
387.117	24.021	1104.407	866.675
388.132	24.042	1103.186	865.744
389.146	23.971	1102.680	864.926
390.161	24.236	1101.668	865.341
391.175	24.161	1101.168	864.510
392.190	24.188	1100.472	864.015
393.205	24.124	1099.869	863.157
394.219	24.124	1099.475	862.770
395.234	24.131	1098.618	862.055
396.248	24.185	1097.664	861.491
397.263	24.122	1096.971	860.564
398.278	24.190	1096.300	860.293
399.292	24.213	1095.621	859.795
400.307	24.280	1094.945	859.512
401.321	24.192	1094.318	858.518
402.336	24.245	1093.641	858.169
403.350	24.197	1093.084	857.423
404.365	24.203	1092.737	857.105
405.380	24.223	1091.457	856.121
406.394	24.350	1090.650	856.018
407.409	24.434	1089.741	855.636
408.423	24.404	1089.195	854.985
409.438	24.348	1088.775	854.313
410.453	24.402	1087.843	853.766
411.467	24.374	1087.318	853.142
412.482	24.291	1086.793	852.259
413.496	24.394	1086.278	852.269
414.511	24.322	1085.504	851.244
415.526	24.555	1084.897	851.803
416.540	24.355	1084.741	850.651
417.555	24.384	1084.079	850.197
418.569	24.432	1083.438	849.846
419.584	24.467	1083.215	849.764
420.599	24.457	1082.616	849.173
421.613	149.105	1401.989	1798.816
422.628	137.739	1448.499	1798.888
