DTS Sentinel unit serial number:	SN413079Multiplexer serial number:	ORYXHardware model number:	OX4-SRSoftware version number:	ORYX F/W v4.00 Oryx Data Collector v3.7.2.0data status	okinstallation	princeton_trtdifferential loss correction	single-endedforward channel	channel 2reverse channel	N/Adate	2019/09/11time	07:13:10forward acquisition time	60.00reverse acquisition time	0.00gamma	496.2192k internal	0.2327k external	0.2327temperature offset calibration	0.9936default loss term (dB/km)	0.3790temperature slope calibration	1.0000multiplexer offset coefficient	1.0000multiplexer slope coefficient	1.0000fibre end	0.00T internal ref (°C)	30.48T ext. ref 1 (°C)	-0.09T ext. ref 2 (°C)	26.73length (m)	temperature (°C)	Stokes	anti-Stokes-747.200	-57.938	0.213	0.094
-746.185	20.661	-0.214	0.174
-745.171	-200.000	0.005	-0.116
-744.156	30.071	-0.293	0.252
-743.142	96.534	0.060	0.070
-742.127	-200.000	-0.012	0.173
-741.112	-183.551	0.225	0.004
-740.098	-117.801	-0.206	0.037
-739.083	5.790	-0.063	0.047
-738.069	200.678	-0.188	0.291
-737.054	-145.162	0.095	-0.009
-736.039	229.211	-0.207	0.340
-735.025	-99.030	0.419	-0.107
-734.010	-23.097	-0.242	-0.147
-732.996	25.167	0.116	0.097
-731.981	-61.305	0.071	0.030
-730.966	-200.000	-0.016	-0.202
-729.952	-140.130	-0.113	-0.012
-728.937	-28.605	-0.241	0.140
-727.923	-52.290	0.246	-0.115
-726.908	-8.690	-0.073	-0.049
-725.894	29.818	0.145	-0.124
-724.879	-88.024	-0.200	0.061
-723.864	412.201	-0.172	0.367
-722.850	-168.625	0.145	0.006
-721.835	-8.721	-0.118	0.080
-720.821	10.336	0.150	0.115
-719.806	-87.915	-0.063	0.019
-718.791	581.578	-0.094	-0.233
-717.777	4.836	-0.196	-0.145
-716.762	114.915	-0.211	0.260
-715.748	-59.592	-0.236	-0.102
-714.733	-6.155	-0.058	-0.040
-713.718	420.157	0.035	0.076
-712.704	-135.239	0.234	-0.028
-711.689	-97.446	-0.170	0.044
-710.675	45.275	0.278	-0.259
-709.660	-21.687	-0.118	-0.072
-708.645	-200.000	-0.072	0.437
-707.631	5.306	0.238	0.177
-706.616	304.455	-0.056	-0.104
-705.602	473.914	-0.137	0.311
-704.587	-62.905	-0.298	-0.124
-703.572	-200.000	0.015	-0.415
-702.558	-61.631	0.036	-0.015
-701.543	66.455	0.100	-0.103
-700.529	-200.000	0.012	-0.319
-699.514	-49.457	0.216	-0.104
-698.499	-73.968	-0.064	0.023
-697.485	-200.000	0.001	-0.084
-696.470	361.831	-0.085	-0.171
-695.456	77.208	0.088	0.094
-694.441	800.000	0.053	0.179
-693.426	397.418	-0.176	0.370
-692.412	89.671	-0.040	-0.045
-691.397	69.248	-0.256	-0.265
-690.383	180.870	0.218	0.323
-689.368	-198.878	-0.123	-0.001
-688.354	225.713	0.239	0.390
-687.339	-108.751	-0.373	-0.080
-686.324	169.738	-0.126	-0.182
-685.310	-113.698	-0.297	-0.058
-684.295	47.978	0.061	-0.058
-683.281	-11.208	-0.146	0.097
-682.266	308.737	-0.152	-0.285
-681.251	-200.000	0.008	-0.173
-680.237	-143.692	0.033	0.003
-679.222	179.745	-0.221	0.326
-678.208	-0.550	-0.207	-0.148
-677.193	-33.510	-0.140	-0.078
-676.178	-200.000	-0.006	-0.525
-675.164	341.448	-0.148	-0.290
-674.149	-17.536	0.131	-0.083
-673.135	-180.134	-0.158	-0.003
-672.120	-50.918	0.217	0.103
-671.105	-200.000	0.001	-0.223
-670.091	-76.385	-0.136	0.048
-669.076	-59.340	0.293	0.127
-668.062	-39.015	-0.499	-0.264
-667.047	800.000	-0.129	0.447
-666.032	-200.000	-0.139	-0.000
-665.018	800.000	-0.038	0.117
-664.003	-50.246	-0.154	-0.073
-662.989	306.111	0.142	0.265
-661.974	-59.797	-0.230	0.099
-660.959	-60.697	0.223	-0.095
-659.945	195.214	0.235	-0.359
-658.930	-87.591	0.041	0.013
-657.916	-200.000	-0.006	0.094
-656.901	-121.338	-0.199	0.033
-655.886	-200.000	0.013	-0.097
-654.872	800.000	0.103	-0.362
-653.857	87.609	0.190	-0.211
-652.843	-66.083	0.152	-0.061
-651.828	-107.678	0.159	-0.035
-650.814	-45.939	-0.432	0.214
-649.799	-0.349	-0.344	0.245
-648.784	-66.069	-0.213	-0.085
-647.770	-117.756	0.355	0.064
-646.755	-15.667	0.331	-0.212
-645.741	800.000	-0.105	-0.426
-644.726	102.144	-0.254	0.298
-643.711	30.872	-0.364	-0.313
-642.697	683.238	0.129	-0.338
-641.682	-49.224	-0.338	0.162
-640.668	108.512	0.235	-0.282
-639.653	28.622	0.116	-0.099
-638.638	-92.568	-0.118	0.033
-637.624	-100.081	-0.045	-0.011
-636.609	-116.137	0.296	-0.055
-635.595	128.885	0.151	-0.194
-634.580	-3.559	-0.266	0.186
-633.565	2.237	-0.015	-0.011
-632.551	-100.971	0.193	-0.048
-631.536	-200.000	0.016	0.284
-630.522	-99.026	0.161	-0.041
-629.507	-8.144	0.057	0.038
-628.492	800.000	0.025	-0.106
-627.478	-79.610	0.098	-0.033
-626.463	-200.000	0.006	-0.114
-625.449	-200.000	-0.011	0.359
-624.434	800.000	0.073	-0.203
-623.419	800.000	0.021	-0.066
-622.405	-163.111	-0.134	-0.006
-621.390	-118.654	0.363	0.064
-620.376	-200.000	0.012	0.054
-619.361	249.218	0.032	0.054
-618.346	108.306	0.162	-0.194
-617.332	800.000	-0.064	0.243
-616.317	-121.355	0.200	-0.033
-615.303	32.398	0.167	0.144
-614.288	-74.226	0.267	0.097
-613.273	800.000	0.056	0.162
-612.259	344.220	-0.135	-0.266
-611.244	-89.215	-0.353	0.105
-610.230	-200.000	-0.043	-0.247
-609.215	93.387	0.156	0.177
-608.201	-54.623	0.178	0.081
-607.186	800.000	0.072	-0.245
-606.171	-3.323	0.131	0.091
-605.157	-81.731	0.362	0.119
-604.142	154.234	-0.133	0.183
-603.128	-106.330	-0.380	-0.085
-602.113	-38.115	-0.102	-0.054
-601.098	-200.000	0.029	-0.304
-600.084	-67.440	-0.138	0.054
-599.069	-1.315	0.173	-0.122
-598.055	12.016	-0.211	0.163
-597.040	141.029	-0.110	0.146
-596.025	800.000	0.029	-0.103
-595.011	56.205	-0.185	-0.180
-593.996	-200.000	0.044	-0.275
-592.982	800.000	-0.115	-0.431
-591.967	489.468	-0.046	-0.104
-590.952	-200.000	-0.032	-0.227
-589.938	-200.000	-0.033	-0.277
-588.923	20.546	0.107	-0.087
-587.909	-17.788	0.081	0.051
-586.894	-5.150	-0.126	0.087
-585.879	44.366	-0.135	-0.124
-584.865	-5.681	-0.189	0.130
-583.850	-200.000	-0.005	-0.069
-582.836	-47.715	0.264	-0.128
-581.821	-103.293	0.310	0.073
-580.806	-120.473	-0.317	0.054
-579.792	-46.056	0.327	-0.162
-578.777	800.000	-0.033	0.094
-577.763	39.021	-0.211	0.189
-576.748	121.029	0.180	0.224
-575.733	149.740	0.154	0.209
-574.719	-90.413	0.125	-0.036
-573.704	577.156	0.045	-0.111
-572.690	23.340	0.093	-0.076
-571.675	48.409	-0.094	-0.088
-570.661	800.000	-0.128	0.488
-569.646	208.210	0.032	0.050
-568.631	-200.000	-0.065	-0.317
-567.617	83.205	0.228	-0.249
-566.602	121.416	-0.192	-0.239
-565.588	-145.784	0.205	0.018
-564.573	-118.202	-0.277	-0.049
-563.558	-4.133	0.384	-0.266
-562.544	-80.436	-0.344	0.115
-561.529	800.000	0.031	-0.132
-560.515	-33.331	0.299	-0.166
-559.500	-200.000	-0.015	0.145
-558.485	469.728	-0.113	-0.254
-557.471	-98.642	-0.350	0.089
-556.456	17.261	0.268	-0.213
-555.442	-173.379	-0.326	-0.010
-554.427	-75.637	-0.075	-0.026
-553.412	-200.000	0.040	0.193
-552.398	412.875	0.226	0.481
-551.383	-185.767	0.154	-0.002
-550.369	-17.924	0.371	-0.232
-549.354	-159.147	-0.333	-0.019
-548.339	-68.143	-0.136	0.053
-547.325	800.000	-0.119	-0.510
-546.310	93.460	0.289	0.327
-545.296	-200.000	-0.003	-0.180
-544.281	510.773	0.101	-0.235
-543.266	-58.463	-0.119	0.052
-542.252	-91.332	-0.146	-0.042
-541.237	14.512	-0.289	0.226
-540.223	-200.000	-0.008	0.175
-539.208	-87.000	0.231	-0.070
-538.193	-98.263	-0.164	0.042
-537.179	-24.106	0.193	-0.115
-536.164	186.744	0.037	-0.055
-535.150	21.331	0.060	-0.048
-534.135	-38.816	0.092	-0.049
-533.121	800.000	0.158	0.525
-532.106	-200.000	0.026	-0.208
-531.091	8.862	-0.182	0.137
-530.077	-200.000	-0.003	0.082
-529.062	121.565	0.032	-0.040
-528.048	-51.354	-0.392	-0.184
-527.033	44.454	-0.226	-0.208
-526.018	171.747	0.079	0.113
-525.004	115.576	-0.102	0.125
-523.989	18.105	0.025	0.020
-522.975	-43.782	-0.285	-0.143
-521.960	-11.896	-0.164	-0.107
-520.945	-77.027	0.336	0.117
-519.931	800.000	-0.031	-0.096
-518.916	159.916	0.168	0.233
-517.902	-200.000	0.025	0.157
-516.887	-115.257	0.132	0.025
-515.872	-20.960	-0.095	-0.058
-514.858	749.492	-0.061	0.165
-513.843	61.188	-0.223	0.222
-512.829	415.654	-0.048	0.102
-511.814	36.772	-0.211	-0.187
-510.799	-200.000	0.021	-0.189
-509.785	208.718	0.146	0.228
-508.770	127.390	-0.177	-0.224
-507.756	-156.840	-0.073	0.004
-506.741	800.000	-0.103	-0.436
-505.726	122.134	0.158	0.197
-504.712	-161.839	-0.051	0.003
-503.697	-200.000	0.021	0.314
-502.683	800.000	0.025	-0.078
-501.668	75.080	0.174	0.183
-500.653	-81.419	-0.122	0.040
-499.639	-56.869	-0.097	-0.043
-498.624	-33.625	0.100	0.055
-497.610	-200.000	-0.039	-0.208
-496.595	-57.842	0.235	-0.103
-495.581	26.693	-0.187	-0.157
-494.566	-171.026	0.146	0.005
-493.551	-179.245	-0.158	-0.004
-492.537	-164.120	0.335	0.015
-491.522	35.382	-0.297	-0.261
-490.508	84.828	-0.181	0.198
-489.493	74.727	0.067	0.070
-488.478	-157.365	0.132	0.008
-487.464	-115.986	0.125	0.023
-486.449	-55.315	0.192	0.086
-485.435	-200.000	-0.010	0.095
-484.420	-128.750	0.087	-0.012
-483.405	58.620	0.314	0.307
-482.391	-121.383	-0.281	-0.047
-481.376	-200.000	0.028	-0.278
-480.362	-133.601	-0.272	0.034
-479.347	-63.465	-0.240	0.099
-478.332	-17.131	-0.105	-0.066
-477.318	-200.000	-0.038	-0.519
-476.303	-90.697	-0.317	0.091
-475.289	30.618	0.178	-0.152
-474.274	-200.000	0.076	-0.504
-473.259	-77.382	-0.162	0.056
-472.245	476.655	0.148	0.335
-471.230	47.581	-0.379	-0.353
-470.216	-127.116	-0.369	0.054
-469.201	190.212	0.179	-0.268
-468.186	-43.180	0.190	-0.096
-467.172	177.263	0.168	-0.244
-466.157	201.291	-0.125	-0.192
-465.143	44.667	0.097	0.089
-464.128	-192.713	0.282	0.003
-463.113	-200.000	0.020	0.221
-462.099	-88.465	0.326	-0.097
-461.084	51.281	-0.088	-0.084
-460.070	50.225	-0.024	-0.023
-459.055	-200.000	0.017	-0.358
-458.040	500.512	-0.113	-0.259
-457.026	155.280	0.097	0.133
-456.011	800.000	0.049	-0.170
-454.997	171.926	-0.097	-0.139
-453.982	-4.940	-0.274	-0.188
-452.968	-33.675	0.231	0.127
-451.953	800.000	-0.003	0.009
-450.938	-21.709	-0.348	0.211
-449.924	-64.884	-0.214	0.086
-448.909	93.050	-0.035	0.039
-447.895	-13.239	0.182	0.118
-446.880	103.212	0.179	0.209
-445.865	-200.000	0.013	0.114
-444.851	264.105	-0.262	0.454
-443.836	-151.026	-0.469	0.035
-442.822	128.022	0.126	-0.160
-441.807	451.686	0.125	0.276
-440.792	-82.591	-0.304	0.098
-439.778	14.151	-0.322	0.250
-438.763	-70.621	0.132	-0.050
-437.749	-6.787	0.137	0.093
-436.734	507.812	-0.217	0.502
-435.719	800.000	-0.030	-0.111
-434.705	-200.000	0.000	0.153
-433.690	146.443	-0.073	-0.098
-432.676	23.635	0.156	-0.128
-431.661	-34.460	0.344	0.188
-430.646	800.000	0.037	-0.126
-429.632	-3.187	-0.116	0.080
-428.617	77.057	-0.058	0.062
-427.603	-55.491	0.196	-0.088
-426.588	55.553	-0.482	-0.464
-425.573	227.933	-0.071	0.116
-424.559	20.924	0.323	-0.261
-423.544	-37.943	-0.091	0.048
-422.530	46.910	0.093	-0.086
-421.515	-200.000	0.030	0.201
-420.500	-200.000	0.024	0.104
-419.486	-106.248	-0.305	0.068
-418.471	-129.036	-0.347	0.048
-417.457	45.823	0.147	0.135
-416.442	-119.477	-0.440	-0.076
-415.428	-28.971	0.014	0.008
-414.413	28.880	0.151	-0.128
-413.398	800.000	0.128	0.423
-412.384	-41.689	0.334	0.171
-411.369	299.961	-0.100	0.184
-410.355	-60.737	-0.283	-0.119
-409.340	800.000	-0.074	0.210
-408.325	116.408	-0.236	0.288
-407.311	-21.292	-0.283	-0.172
-406.296	-200.000	-0.043	0.391
-405.282	-91.298	-0.008	0.002
-404.267	33.224	0.204	0.176
-403.252	800.000	-0.012	0.040
-402.238	748.714	0.126	-0.337
-401.223	-125.562	-0.101	-0.015
-400.209	31.302	0.227	0.194
-399.194	-200.000	-0.001	0.209
-398.179	295.663	-0.259	0.471
-397.165	226.650	-0.052	-0.084
-396.150	-200.000	0.008	-0.080
-395.136	97.421	0.005	-0.006
-394.121	43.281	-0.137	-0.125
-393.106	533.794	0.033	-0.078
-392.092	-100.792	0.117	0.029
-391.077	-50.421	0.180	0.085
-390.063	102.400	0.303	-0.352
-389.048	-200.000	0.070	0.455
-388.033	-200.000	0.032	0.262
-387.019	146.215	0.143	-0.191
-386.004	-200.000	0.070	-0.326
-384.990	5.213	-0.268	0.196
-383.975	435.572	0.062	0.135
-382.960	-21.710	0.134	-0.081
-381.946	-18.705	-0.097	0.060
-380.931	800.000	-0.115	0.344
-379.917	-63.791	0.207	0.084
-378.902	-200.000	0.025	0.140
-377.888	-200.000	0.031	0.318
-376.873	800.000	-0.061	0.261
-375.858	800.000	0.090	-0.327
-374.844	170.599	0.287	0.409
-373.829	-143.170	0.070	0.007
-372.815	65.514	0.185	0.186
-371.800	-200.000	0.024	-0.156
-370.785	-200.000	-0.020	0.276
-369.771	63.556	-0.123	0.122
-368.756	-116.239	-0.096	-0.018
-367.742	459.243	0.087	0.192
-366.727	23.425	-0.047	0.038
-365.712	41.285	-0.219	0.197
-364.698	-200.000	0.005	-0.209
-363.683	-19.823	0.158	-0.097
-362.669	-200.000	0.004	-0.175
-361.654	-200.000	0.057	-0.277
-360.639	88.238	-0.018	-0.020
-359.625	-29.124	0.318	-0.181
-358.610	-45.632	-0.077	-0.038
-357.596	-117.696	-0.284	-0.051
-356.581	73.823	-0.037	0.039
-355.566	-200.000	-0.047	0.470
-354.552	-50.879	-0.237	0.111
-353.537	-200.000	-0.007	0.143
-352.523	9.519	0.224	0.168
-351.508	-167.965	-0.098	-0.004
-350.493	-200.000	0.046	0.225
-349.479	800.000	-0.053	-0.193
-348.464	-102.909	0.127	0.030
-347.450	541.232	-0.124	0.294
-346.435	-159.731	0.275	0.015
-345.420	-200.000	-0.048	0.259
-344.406	48.699	0.271	-0.252
-343.391	-29.273	-0.164	-0.093
-342.377	18.390	0.170	0.135
-341.362	486.319	-0.048	0.109
-340.348	-134.805	0.121	-0.015
-339.333	77.500	0.082	-0.087
-338.318	800.000	-0.054	-0.166
-337.304	-142.527	-0.127	0.012
-336.289	-30.349	0.224	0.126
-335.275	-4.383	0.119	-0.082
-334.260	247.092	0.097	0.163
-333.245	800.000	0.049	0.177
-332.231	-200.000	0.000	-0.274
-331.216	461.456	0.165	-0.366
-330.202	-85.369	0.269	-0.083
-329.187	23.806	-0.138	0.113
-328.172	-66.935	0.465	-0.182
-327.158	554.636	-0.062	0.148
-326.143	-77.429	-0.218	-0.075
-325.129	138.858	0.260	0.339
-324.114	61.298	-0.223	-0.220
-323.099	-200.000	0.072	-0.321
-322.085	-70.529	0.097	-0.037
-321.070	-99.619	-0.285	-0.071
-320.056	-200.000	0.036	-0.239
-319.041	-200.000	-0.022	0.164
-318.026	-200.000	-0.020	-0.162
-317.012	-40.603	0.083	0.043
-315.997	-200.000	0.027	0.124
-314.983	-141.372	0.092	0.009
-313.968	108.660	-0.081	-0.096
-312.953	-124.958	-0.123	0.019
-311.939	-164.426	-0.047	0.002
-310.924	-200.000	0.062	-0.276
-309.910	530.573	-0.033	-0.076
-308.895	98.578	0.134	-0.153
-307.880	800.000	-0.161	-0.441
-306.866	-134.763	0.417	0.050
-305.851	-200.000	0.000	-0.157
-304.837	800.000	0.045	-0.160
-303.822	-200.000	0.123	-0.546
-302.807	564.390	0.067	0.162
-301.793	-33.522	0.263	-0.144
-300.778	-186.093	0.038	-0.001
-299.764	494.015	-0.037	0.084
-298.749	-200.000	-0.051	0.327
-297.735	-127.006	-0.087	-0.013
-296.720	-137.061	-0.220	-0.025
-295.705	182.709	-0.183	0.268
-294.691	-136.247	0.152	-0.018
-293.676	1.532	0.134	0.096
-292.662	-168.043	-0.166	0.006
-291.647	800.000	0.164	-0.469
-290.632	2.409	-0.074	-0.053
-289.618	6.432	0.278	0.205
-288.603	665.119	0.119	-0.303
-287.589	-121.391	-0.139	-0.023
-286.574	-76.659	0.207	-0.072
-285.559	800.000	-0.034	-0.134
-284.545	-2.339	-0.203	0.141
-283.530	-200.000	-0.017	-0.073
-282.516	251.346	-0.171	0.288
-281.501	214.470	0.148	-0.232
-280.486	-200.000	-0.010	0.291
-279.472	-64.441	0.214	0.086
-278.457	-150.893	-0.294	-0.022
-277.443	-108.233	-0.141	-0.030
-276.428	-200.000	-0.054	0.274
-275.413	-5.796	-0.217	-0.147
-274.399	-73.420	0.320	0.116
-273.384	84.914	-0.214	0.232
-272.370	127.588	0.325	-0.408
-271.355	-144.700	-0.170	0.015
-270.340	-200.000	-0.024	-0.174
-269.326	96.526	-0.092	0.104
-268.311	-45.781	0.075	-0.037
-267.297	524.359	-0.047	0.109
-266.282	-108.679	-0.104	0.022
-265.267	-0.767	0.185	-0.130
-264.253	800.000	-0.080	-0.253
-263.238	-200.000	0.030	0.222
-262.224	-122.747	-0.192	-0.031
-261.209	-200.000	0.056	-0.462
-260.195	243.725	-0.180	0.299
-259.180	0.952	0.244	-0.173
-258.165	-65.531	0.481	-0.191
-257.151	97.041	0.060	0.068
-256.136	87.311	0.065	-0.071
-255.122	20.672	0.055	0.044
-254.107	102.216	0.177	-0.204
-253.092	-95.467	0.148	0.039
-252.078	670.699	-0.136	-0.349
-251.063	252.196	-0.071	0.120
-250.049	-32.984	-0.183	-0.100
-249.034	334.122	0.028	-0.054
-248.019	-149.009	-0.217	0.017
-247.005	-200.000	-0.033	0.320
-245.990	-96.176	-0.184	0.048
-244.976	-200.000	0.023	0.223
-243.961	536.677	0.075	-0.176
-242.946	202.915	0.182	0.278
-241.932	-29.779	0.136	-0.076
-240.917	-200.000	-0.040	0.554
-239.903	-52.238	-0.064	-0.029
-238.888	-95.627	0.083	0.022
-237.873	800.000	-0.124	0.448
-236.859	77.467	-0.172	0.181
-235.844	800.000	0.043	0.153
-234.830	800.000	0.015	-0.050
-233.815	800.000	-0.027	0.080
-232.800	-72.357	-0.254	-0.093
-231.786	173.844	-0.217	-0.310
-230.771	-16.396	-0.193	-0.121
-229.757	-76.953	0.231	0.080
-228.742	-154.688	-0.040	-0.003
-227.727	151.567	-0.151	0.204
-226.713	74.633	-0.179	-0.186
-225.698	-15.715	0.109	0.069
-224.684	800.000	-0.061	-0.232
-223.669	28.611	0.095	0.080
-222.655	2.398	0.269	-0.192
-221.640	-81.268	-0.213	0.070
-220.625	-200.000	0.002	-0.012
-219.611	-117.345	-0.158	-0.028
-218.596	-200.000	-0.026	-0.557
-217.582	264.161	-0.159	-0.273
-216.567	-133.339	0.194	-0.024
-215.552	334.190	-0.126	0.240
-214.538	245.470	0.038	0.064
-213.523	800.000	-0.053	-0.199
-212.509	-114.004	-0.101	0.019
-211.494	-200.000	0.006	-0.030
-210.479	423.064	-0.080	0.169
-209.465	706.772	-0.011	0.029
-208.450	17.231	-0.154	-0.121
-207.436	780.446	0.076	-0.205
-206.421	87.998	-0.166	0.182
-205.406	-121.504	-0.290	0.048
-204.392	17.013	-0.227	0.177
-203.377	47.218	0.332	-0.305
-202.363	-112.168	-0.160	0.032
-201.348	337.866	-0.080	-0.154
-200.333	-93.642	-0.154	0.042
-199.319	538.355	-0.185	0.434
-198.304	800.000	-0.135	0.369
-197.290	164.243	0.150	0.208
-196.275	-200.000	-0.062	0.327
-195.260	-35.836	0.093	-0.049
-194.246	117.821	-0.104	0.126
-193.231	309.509	0.111	0.204
-192.217	-38.313	-0.383	0.200
-191.202	3.109	-0.120	0.086
-190.187	325.368	-0.154	-0.291
-189.173	-200.000	-0.062	-0.280
-188.158	11.780	-0.123	0.093
-187.144	-200.000	-0.021	0.174
-186.129	-32.067	0.383	-0.212
-185.114	-61.520	0.396	-0.164
-184.100	467.956	0.062	0.138
-183.085	442.533	0.063	-0.135
-182.071	-132.174	-0.175	-0.022
-181.056	-38.367	-0.114	0.060
-180.042	800.000	-0.043	0.160
-179.027	324.645	0.075	-0.141
-178.012	-144.754	0.194	-0.018
-176.998	-50.933	-0.060	0.028
-175.983	-153.073	-0.078	0.005
-174.969	-15.174	-0.124	-0.078
-173.954	-55.475	0.107	-0.047
-172.939	-29.523	0.081	-0.046
-171.925	-136.753	-0.061	-0.007
-170.910	-200.000	0.056	0.315
-169.896	-200.000	-0.036	0.160
-168.881	149.684	-0.147	0.197
-167.866	-200.000	-0.275	0.000
-166.852	-181.134	0.292	-0.006
-165.837	-21.035	-0.283	-0.171
-164.823	-160.127	0.289	0.015
-163.808	145.568	-0.142	0.187
-162.793	-171.852	0.149	0.005
-161.779	64.299	0.085	-0.084
-160.764	-11.925	0.145	-0.093
-159.750	-27.701	-0.115	0.066
-158.735	13.723	0.569	-0.436
-157.720	-43.458	0.305	0.152
-156.706	191.198	0.148	0.219
-155.691	-200.000	0.001	0.053
-154.677	-32.650	0.333	-0.183
-153.662	-6.824	0.142	0.095
-152.647	299.810	0.079	0.144
-151.633	166.153	-0.137	-0.191
-150.618	6.367	0.067	-0.049
-149.604	111.238	0.167	-0.198
-148.589	300.693	-0.046	-0.083
-147.574	143.547	-0.129	-0.169
-146.560	-200.000	0.035	-0.191
-145.545	-200.000	0.006	0.045
-144.531	135.981	-0.103	-0.132
-143.516	-200.000	-0.025	0.220
-142.502	99.179	-0.177	0.201
-141.487	-15.996	-0.235	0.147
-140.472	-157.195	-0.056	-0.003
-139.458	69.331	0.050	0.051
-138.443	-75.146	-0.120	0.042
-137.429	15.078	-0.056	0.043
-136.414	-66.478	0.169	0.066
-135.399	800.000	0.072	0.198
-134.385	690.946	0.022	-0.056
-133.370	-98.593	-0.042	0.010
-132.356	50.263	0.241	-0.224
-131.341	85.541	-0.175	0.190
-130.326	800.000	0.014	-0.056
-129.312	-42.879	0.151	0.075
-128.297	-51.976	-0.099	0.045
-127.283	223.871	-0.262	0.416
-126.268	-200.000	-0.001	0.069
-125.253	-124.896	0.031	0.005
-124.239	-88.139	-0.064	0.019
-123.224	-73.207	-0.144	0.052
-122.210	552.970	-0.054	-0.127
-121.195	-200.000	-0.009	0.113
-120.180	-21.200	-0.035	-0.021
-119.166	266.285	-0.218	-0.375
-118.151	-177.465	-0.328	0.008
-117.137	800.000	0.070	-0.220
-116.122	-197.091	-0.227	-0.001
-115.107	-179.846	-0.229	-0.005
-114.093	800.000	-0.057	0.162
-113.078	-188.281	0.341	-0.004
-112.064	-113.690	0.109	0.021
-111.049	-69.381	-0.059	0.022
-110.034	214.848	-0.045	0.071
-109.020	800.000	-0.055	-0.195
-108.005	-200.000	-0.014	-0.174
-106.991	-142.876	-0.266	0.025
-105.976	800.000	0.187	-0.581
-104.962	-200.000	0.048	0.249
-103.947	-82.120	0.038	0.012
-102.932	-200.000	0.021	0.229
-101.918	-57.092	0.179	0.078
-100.903	-60.241	0.334	-0.140
-99.889	253.482	-0.160	0.269
-98.874	-127.854	0.046	-0.006
-97.859	-200.000	-0.041	0.282
-96.845	-101.628	0.146	-0.035
-95.830	-200.000	-0.027	-0.219
-94.816	162.789	0.216	-0.299
-93.801	-149.261	-0.298	-0.023
-92.786	71.135	0.060	-0.061
-91.772	-145.822	0.189	-0.017
-90.757	67.790	-0.079	-0.079
-89.743	-200.000	-0.221	-0.001
-88.728	-30.072	-0.142	-0.079
-87.713	263.300	0.084	-0.144
-86.699	-191.282	0.496	-0.005
-85.684	189.964	0.176	0.259
-84.670	23.628	0.121	-0.098
-83.655	-200.000	0.037	0.284
-82.640	121.976	0.144	0.176
-81.626	-167.872	0.124	0.005
-80.611	-165.578	0.085	-0.004
-79.597	414.082	-0.052	-0.108
-78.582	183.970	0.261	0.380
-77.567	-127.375	0.221	-0.032
-76.553	232.334	-0.155	-0.249
-75.538	-200.000	0.002	-0.032
-74.524	-165.296	-0.108	-0.005
-73.509	800.000	0.100	-0.273
-72.494	-200.000	-0.021	-0.428
-71.480	-39.340	0.516	-0.266
-70.465	423.621	0.017	-0.036
-69.451	-20.145	0.217	-0.131
-68.436	-200.000	-0.010	-0.127
-67.422	21.988	0.333	0.267
-66.407	-35.432	0.267	0.143
-65.392	-200.000	0.005	-0.034
-64.378	800.000	-0.102	-0.408
-63.363	-200.000	0.015	-0.111
-62.349	-143.729	0.099	0.009
-61.334	22.389	-1.309	-1.051
-60.319	20.579	0.382	0.304
-59.305	800.000	-0.217	-0.744
-58.290	407.170	0.568	1.178
-57.276	800.000	0.631	1.791
-56.261	-200.000	98.546	601.789
-55.246	566.745	1431.230	3409.251
-54.232	184.899	2639.920	3842.584
-53.217	108.541	2293.096	2687.301
-52.203	40.007	1904.638	1679.294
-51.188	33.661	1691.514	1443.238
-50.173	31.109	1647.640	1386.809
-49.159	48.952	1696.688	1563.060
-48.144	49.895	1712.457	1584.629
-47.130	33.311	1672.157	1423.867
-46.115	30.598	1657.739	1391.263
-45.100	30.452	1652.646	1385.844
-44.086	30.422	1650.057	1383.395
-43.071	30.324	1648.095	1380.964
-42.057	30.362	1645.558	1379.066
-41.042	30.380	1643.821	1377.690
-40.027	30.310	1641.921	1375.527
-39.013	30.357	1639.734	1373.984
-37.998	30.332	1638.240	1372.495
-36.984	30.276	1637.387	1371.309
-35.969	30.575	1634.783	1371.283
-34.954	30.604	1633.326	1370.218
-33.940	30.473	1631.945	1368.042
-32.925	30.467	1630.566	1366.788
-31.911	30.492	1628.473	1365.163
-30.896	30.526	1626.291	1363.529
-29.881	30.468	1624.726	1361.738
-28.867	30.486	1622.892	1360.281
-27.852	30.511	1621.338	1359.106
-26.838	30.433	1620.330	1357.634
-25.823	30.542	1618.580	1356.909
-24.809	30.553	1617.595	1356.115
-23.794	30.434	1616.116	1353.951
-22.779	30.513	1614.398	1353.032
-21.765	30.515	1612.587	1351.476
-20.750	30.485	1610.936	1349.819
-19.736	30.500	1609.464	1348.644
-18.721	30.472	1608.449	1347.534
-17.706	30.423	1606.797	1345.745
-16.692	30.509	1604.940	1344.757
-15.677	30.469	1604.009	1343.638
-14.663	30.569	1602.485	1343.030
-13.648	30.520	1601.068	1341.430
-12.633	30.552	1599.563	1340.348
-11.619	30.569	1598.052	1339.155
-10.604	30.508	1597.054	1337.826
-9.590	30.474	1595.520	1336.243
-8.575	30.504	1593.914	1335.058
-7.560	30.521	1593.104	1334.447
-6.546	30.537	1591.859	1333.471
-5.531	30.545	1590.533	1332.365
-4.517	30.471	1589.795	1331.158
-3.502	30.514	1588.461	1330.298
-2.487	30.593	1587.135	1329.701
-1.473	30.481	1575.518	1319.118
-0.458	28.143	1557.329	1287.408
0.556	22.637	1558.555	1259.430
1.571	20.608	1583.873	1265.030
2.586	20.257	1596.737	1272.619
3.600	18.077	1543.552	1214.647
4.615	9.578	1433.266	1071.451
5.629	1.520	1368.051	971.285
6.644	-0.022	1359.925	955.634
7.659	-0.135	1358.770	954.018
8.673	-0.135	1357.457	953.013
9.688	-0.088	1355.360	951.756
10.702	-0.311	1352.587	948.312
11.717	3.450	1360.001	977.301
12.731	12.981	1378.816	1051.742
13.746	20.197	1390.298	1106.623
14.761	22.077	1392.411	1120.208
15.775	22.398	1392.663	1122.357
16.790	22.511	1391.927	1122.383
17.804	22.520	1391.668	1122.131
18.819	22.703	1391.446	1123.023
19.834	22.823	1390.483	1122.907
20.848	22.814	1390.238	1122.552
21.863	22.819	1389.167	1121.623
22.877	22.884	1387.517	1120.604
23.892	22.799	1387.594	1120.027
24.907	22.763	1386.602	1118.900
25.921	22.856	1385.435	1118.449
26.936	22.857	1384.690	1117.749
27.950	22.817	1383.523	1116.459
28.965	22.860	1382.177	1115.547
29.980	22.830	1380.946	1114.260
30.994	22.828	1380.259	1113.597
32.009	22.860	1378.974	1112.663
33.023	22.814	1377.970	1111.463
34.038	22.819	1376.752	1110.417
35.053	22.826	1375.730	1109.541
36.067	22.804	1374.761	1108.519
37.082	22.863	1373.603	1107.860
38.096	22.858	1373.010	1107.254
39.111	22.760	1372.335	1105.996
40.126	22.887	1371.818	1106.274
41.140	22.823	1370.949	1105.074
42.155	22.859	1370.796	1105.081
43.169	22.819	1370.790	1104.725
44.184	22.887	1370.201	1104.577
45.199	22.875	1369.886	1104.156
46.213	22.900	1369.174	1103.636
47.228	22.766	1368.151	1101.882
48.242	22.899	1367.196	1101.843
49.257	22.745	1365.930	1099.766
50.271	22.880	1364.281	1099.178
51.286	22.878	1363.061	1098.085
52.301	22.936	1361.457	1097.059
53.315	22.733	1360.980	1095.317
54.330	22.833	1360.230	1095.235
55.344	22.801	1359.017	1093.964
56.359	22.843	1357.880	1093.214
57.374	22.885	1356.912	1092.600
58.388	22.853	1356.065	1091.618
59.403	22.804	1356.384	1091.479
60.417	22.758	1355.718	1090.562
61.432	22.888	1354.740	1090.478
62.447	22.855	1353.676	1089.322
63.461	22.835	1352.775	1088.380
64.476	22.823	1351.964	1087.553
65.490	22.802	1350.638	1086.266
66.505	22.842	1348.989	1085.088
67.520	22.858	1348.037	1084.324
68.534	22.835	1347.007	1083.258
69.549	22.868	1345.772	1082.370
70.563	22.900	1345.155	1081.976
71.578	22.865	1344.244	1080.930
72.593	22.870	1342.949	1079.824
73.607	22.873	1342.322	1079.244
74.622	22.883	1341.705	1078.714
75.636	22.858	1341.216	1078.072
76.651	22.845	1340.314	1077.175
77.666	22.791	1340.010	1076.507
78.680	22.865	1339.298	1076.287
79.695	22.872	1338.575	1075.656
80.709	22.818	1337.878	1074.671
81.724	22.812	1337.117	1073.928
82.739	22.764	1335.977	1072.624
83.753	22.825	1334.603	1071.797
84.768	22.909	1333.693	1071.479
85.782	22.834	1332.893	1070.288
86.797	22.921	1331.397	1069.521
87.812	22.854	1330.608	1068.384
88.826	22.816	1329.583	1067.241
89.841	22.817	1328.268	1066.095
90.855	22.803	1327.518	1065.313
91.870	22.955	1326.211	1065.085
92.884	22.912	1326.146	1064.682
93.899	22.903	1324.874	1063.511
94.914	22.947	1324.297	1063.220
95.928	23.005	1323.074	1062.490
96.943	22.857	1322.716	1061.220
97.957	22.974	1321.931	1061.201
98.972	22.955	1320.710	1060.013
99.987	22.944	1319.633	1058.989
101.001	22.892	1318.869	1057.973
102.016	22.855	1317.956	1056.924
103.030	22.905	1317.310	1056.613
104.045	22.938	1316.528	1056.090
105.060	22.909	1315.451	1054.956
106.074	22.916	1314.498	1054.141
107.089	22.944	1313.139	1053.124
108.103	22.978	1312.313	1052.570
109.118	23.033	1310.943	1051.709
110.133	23.016	1309.895	1050.673
111.147	22.932	1308.634	1049.068
112.162	22.948	1307.789	1048.395
113.176	22.984	1306.690	1047.632
114.191	22.914	1305.878	1046.475
115.206	23.001	1304.574	1045.850
116.220	22.951	1303.785	1044.829
117.235	22.951	1302.727	1043.893
118.249	22.995	1301.672	1043.216
119.264	22.943	1301.156	1042.402
120.279	23.021	1300.084	1041.909
121.293	23.051	1299.284	1041.353
122.308	23.032	1298.369	1040.416
123.322	23.055	1297.189	1039.509
124.337	23.069	1296.323	1038.810
125.352	23.078	1295.444	1038.068
126.366	23.121	1294.758	1037.675
127.381	23.113	1293.759	1036.736
128.395	23.107	1293.068	1036.059
129.410	23.087	1292.070	1035.046
130.424	22.987	1291.539	1033.944
131.439	22.989	1290.735	1033.222
132.454	22.995	1289.929	1032.521
133.468	23.036	1289.066	1031.979
134.483	22.938	1288.719	1031.038
135.497	23.069	1287.717	1030.907
136.512	22.965	1287.174	1029.775
137.527	23.076	1285.760	1029.202
138.541	23.078	1284.057	1027.756
139.556	23.025	1283.049	1026.549
140.570	22.924	1282.850	1025.713
141.585	23.078	1280.858	1024.926
142.600	23.078	1280.060	1024.196
143.614	23.085	1279.348	1023.573
144.629	22.979	1278.141	1021.909
145.643	22.935	1277.060	1020.696
146.658	22.961	1276.212	1020.078
147.673	22.972	1275.435	1019.429
148.687	22.955	1274.260	1018.305
149.702	23.023	1272.998	1017.595
150.716	23.016	1271.974	1016.650
151.731	23.073	1270.958	1016.074
152.746	22.955	1269.639	1014.250
153.760	22.951	1269.001	1013.628
154.775	23.108	1267.761	1013.451
155.789	23.000	1266.875	1012.034
156.804	22.922	1266.317	1011.054
157.819	22.991	1265.607	1010.791
158.833	23.065	1264.444	1010.192
159.848	23.182	1263.452	1009.980
160.862	23.158	1262.930	1009.338
161.877	23.078	1262.203	1008.212
162.892	23.100	1261.399	1007.605
163.906	23.150	1260.437	1007.029
164.921	23.200	1259.652	1006.600
165.935	23.068	1259.313	1005.489
166.950	23.092	1258.731	1005.072
167.964	23.140	1258.142	1004.786
168.979	23.196	1257.203	1004.265
169.994	23.220	1256.544	1003.786
171.008	23.175	1256.294	1003.243
172.023	23.165	1255.302	1002.301
173.037	23.132	1254.704	1001.550
174.052	23.134	1253.770	1000.727
175.067	23.126	1252.941	999.933
176.081	23.171	1252.521	999.763
177.096	23.176	1251.299	998.729
178.110	23.232	1250.514	998.329
179.125	23.186	1249.377	997.070
180.140	23.129	1248.907	996.286
181.154	23.171	1247.330	995.177
182.169	23.256	1245.980	994.489
183.183	23.219	1245.450	993.772
184.198	23.192	1244.343	992.649
185.213	23.217	1243.508	992.033
186.227	23.139	1242.905	991.027
187.242	23.308	1241.337	990.636
188.256	23.302	1240.765	990.060
189.271	23.314	1239.748	989.227
190.286	23.310	1239.100	988.599
191.300	23.282	1238.589	987.948
192.315	23.257	1238.426	987.594
193.329	23.269	1237.967	987.206
194.344	23.289	1237.363	986.746
195.359	23.223	1236.838	985.876
196.373	23.269	1235.960	985.343
197.388	23.205	1235.826	984.793
198.402	23.192	1235.789	984.605
199.417	23.167	1235.215	983.920
200.432	23.287	1234.081	983.594
201.446	23.321	1233.661	983.366
202.461	23.238	1233.176	982.432
203.475	23.157	1232.542	981.388
204.490	23.266	1230.892	980.593
205.504	23.273	1230.300	980.071
206.519	23.248	1229.323	979.069
207.534	23.320	1228.481	978.711
208.548	23.247	1227.768	977.654
209.563	23.323	1226.494	976.971
210.577	23.334	1225.500	976.154
211.592	23.307	1225.157	975.642
212.607	23.344	1224.215	975.010
213.621	23.281	1223.966	974.382
214.636	23.353	1222.813	973.774
215.650	23.396	1222.102	973.356
216.665	23.475	1220.431	972.372
217.680	23.320	1219.724	970.874
218.694	23.444	1219.351	971.170
219.709	23.442	1218.479	970.380
220.723	23.523	1217.655	970.077
221.738	23.290	1217.380	968.500
222.753	23.311	1216.601	967.908
223.767	23.496	1215.593	968.030
224.782	23.522	1215.450	967.973
225.796	23.409	1215.185	967.062
226.811	23.506	1213.982	966.547
227.826	23.543	1213.514	966.287
228.840	23.505	1212.907	965.512
229.855	23.442	1212.582	964.825
230.869	23.526	1211.328	964.201
231.884	23.504	1210.462	963.307
232.899	23.444	1210.183	962.671
233.913	23.397	1209.874	962.087
234.928	23.509	1209.318	962.165
235.942	23.585	1208.395	961.759
236.957	23.520	1207.268	960.423
237.972	23.619	1206.721	960.443
238.986	23.483	1206.511	959.455
240.001	23.591	1206.394	959.858
241.015	23.694	1204.786	959.051
242.030	23.633	1204.277	958.230
243.045	23.652	1203.494	957.626
244.059	23.702	1202.845	957.298
245.074	23.713	1201.845	956.472
246.088	23.638	1201.482	955.697
247.103	23.668	1200.150	954.715
248.117	23.609	1199.603	953.880
249.132	23.666	1199.081	953.685
250.147	23.818	1197.954	953.518
251.161	23.668	1197.384	952.178
252.176	23.671	1196.622	951.502
253.190	23.677	1196.345	951.230
254.205	23.725	1195.500	950.731
255.220	23.773	1194.927	950.450
256.234	23.790	1194.511	950.121
257.249	23.801	1194.011	949.698
258.263	23.742	1193.442	948.851
259.278	23.803	1192.356	948.228
260.293	23.755	1192.159	947.729
261.307	23.778	1191.639	947.353
262.322	23.836	1191.095	947.146
263.336	23.801	1190.654	946.525
264.351	23.673	1190.187	945.388
265.366	23.821	1189.172	945.289
266.380	23.799	1188.423	944.493
267.395	23.829	1187.634	943.943
268.409	23.722	1187.340	943.053
269.424	23.794	1186.692	942.840
270.439	23.853	1186.324	942.777
271.453	23.878	1185.254	941.977
272.468	23.801	1184.513	940.896
273.482	23.738	1183.913	940.005
274.497	23.797	1183.827	940.161
275.512	23.913	1182.789	939.870
276.526	23.842	1182.134	938.889
277.541	23.943	1181.446	938.793
278.555	23.889	1180.754	937.878
279.570	23.946	1180.329	937.756
280.585	23.798	1179.652	936.352
281.599	23.899	1178.969	936.262
282.614	23.867	1178.003	935.243
283.628	23.920	1176.940	934.595
284.643	23.933	1175.800	933.676
285.657	23.912	1175.310	933.094
286.672	23.817	1174.422	931.807
287.687	23.935	1173.694	931.769
288.701	24.047	1172.815	931.573
289.716	24.131	1172.134	931.391
290.730	24.041	1171.351	930.212
291.745	24.073	1170.981	930.007
292.760	23.966	1170.580	929.044
293.774	24.028	1169.825	928.689
294.789	23.970	1169.843	928.319
295.803	24.062	1168.830	927.910
296.818	24.040	1167.891	926.969
297.833	24.026	1167.343	926.381
298.847	24.108	1166.577	926.116
299.862	24.104	1165.939	925.503
300.876	24.080	1165.141	924.666
301.891	24.143	1164.611	924.490
302.906	24.174	1164.045	924.121
303.920	24.164	1163.603	923.633
304.935	24.159	1162.933	922.995
305.949	24.203	1162.371	922.696
306.964	24.136	1161.601	921.659
307.979	24.155	1160.698	920.957
308.993	24.203	1159.992	920.563
310.008	24.248	1159.589	920.395
311.022	24.173	1158.722	919.237
312.037	24.165	1158.153	918.661
313.052	24.220	1156.694	917.705
314.066	24.226	1156.110	917.195
315.081	24.229	1155.785	916.871
316.095	24.267	1154.871	916.262
317.110	24.258	1154.278	915.661
318.125	24.292	1153.623	915.237
319.139	24.301	1153.346	914.982
320.154	24.281	1152.548	914.166
321.168	24.280	1151.988	913.633
322.183	24.281	1151.592	913.243
323.197	24.281	1150.506	912.302
324.212	24.298	1150.019	911.923
325.227	24.430	1149.826	912.361
326.241	24.412	1149.308	911.779
327.256	24.301	1148.641	910.603
328.270	24.421	1147.412	910.160
329.285	24.374	1146.724	909.297
330.300	24.486	1145.647	908.930
331.314	24.369	1145.335	908.006
332.329	24.471	1144.618	907.879
333.343	24.382	1143.670	906.591
334.358	24.552	1142.584	906.513
335.373	24.507	1142.238	905.930
336.387	24.506	1141.470	905.239
337.402	24.558	1140.769	904.864
338.416	24.418	1140.858	904.145
339.431	24.571	1139.637	903.875
340.446	24.625	1138.771	903.377
341.460	24.621	1138.295	902.902
342.475	24.566	1137.506	901.918
343.489	24.500	1136.662	900.835
344.504	24.482	1136.165	900.271
345.519	24.475	1135.092	899.304
346.533	24.628	1134.292	899.364
347.548	24.669	1133.712	899.030
348.562	24.592	1132.942	897.951
349.577	24.536	1132.569	897.297
350.592	24.589	1131.371	896.534
351.606	24.531	1130.933	895.818
352.621	24.579	1130.317	895.491
353.635	24.621	1129.995	895.365
354.650	24.677	1128.651	894.501
355.665	24.565	1128.370	893.638
356.679	24.674	1127.672	893.553
357.694	24.723	1126.997	893.182
358.708	24.771	1126.108	892.640
359.723	24.675	1125.933	891.941
360.738	24.721	1124.986	891.344
361.752	24.623	1124.920	890.723
362.767	24.699	1124.523	890.708
363.781	24.712	1123.755	890.085
364.796	24.828	1123.083	890.051
365.810	24.823	1122.231	889.272
366.825	24.834	1121.677	888.810
367.840	24.879	1121.460	888.784
368.854	24.916	1120.760	888.333
369.869	24.856	1120.219	887.526
370.883	24.831	1119.444	886.712
371.898	24.974	1118.420	886.531
372.913	24.863	1117.978	885.553
373.927	24.892	1117.596	885.315
374.942	24.892	1117.255	884.966
375.956	24.887	1116.712	884.434
376.971	24.883	1116.355	884.054
377.986	24.949	1115.476	883.604
379.000	25.020	1114.814	883.353
380.015	24.956	1114.399	882.630
381.029	25.070	1113.654	882.521
382.044	25.020	1113.198	881.834
383.059	24.908	1112.544	880.691
384.073	24.993	1111.582	880.267
385.088	24.972	1110.962	879.595
386.102	25.078	1110.091	879.350
387.117	25.014	1108.933	878.041
388.132	24.970	1108.415	877.335
389.146	25.147	1107.229	877.187
390.161	25.066	1107.126	876.633
391.175	25.118	1106.521	876.326
392.190	25.200	1105.183	875.589
393.205	25.145	1104.995	875.097
394.219	25.135	1104.308	874.426
395.234	25.121	1103.635	873.747
396.248	25.114	1102.733	872.920
397.263	25.228	1101.487	872.414
398.278	25.081	1101.541	871.664
399.292	25.232	1100.837	871.765
400.307	25.334	1100.081	871.581
401.321	25.285	1099.316	870.662
402.336	25.183	1098.891	869.753
403.350	25.228	1098.113	869.280
404.365	25.252	1097.836	869.099
405.380	25.214	1096.825	868.036
406.394	25.328	1096.134	867.963
407.409	25.309	1095.592	867.370
408.423	25.235	1094.998	866.461
409.438	25.258	1094.298	865.944
410.453	25.337	1093.499	865.614
411.467	25.340	1092.610	864.847
412.482	25.312	1091.809	864.003
413.496	25.421	1090.855	863.699
414.511	25.414	1090.395	863.222
415.526	25.315	1090.427	862.695
416.540	25.406	1089.945	862.674
417.555	25.411	1089.417	862.205
418.569	25.442	1088.516	861.566
419.584	25.604	1088.129	861.958
420.599	25.505	1087.901	861.228
421.613	146.896	1403.485	1795.693
422.628	135.790	1449.436	1795.772
