DTS Sentinel unit serial number:	SN413079Multiplexer serial number:	ORYXHardware model number:	OX4-SRSoftware version number:	ORYX F/W v4.00 Oryx Data Collector v3.7.2.0data status	okinstallation	princeton_trtdifferential loss correction	single-endedforward channel	channel 2reverse channel	N/Adate	2019/09/11time	06:09:11forward acquisition time	60.00reverse acquisition time	0.00gamma	496.2192k internal	0.2329k external	0.2329temperature offset calibration	0.9935default loss term (dB/km)	0.3790temperature slope calibration	1.0000multiplexer offset coefficient	1.0000multiplexer slope coefficient	1.0000fibre end	0.00T internal ref (°C)	29.47T ext. ref 1 (°C)	-0.20T ext. ref 2 (°C)	23.82length (m)	temperature (°C)	Stokes	anti-Stokes-747.200	-200.000	0.021	0.099
-746.185	-71.616	-0.173	-0.065
-745.171	-96.625	0.346	-0.092
-744.156	-68.302	-0.149	-0.058
-743.142	-200.000	-0.018	-0.114
-742.127	800.000	-0.107	0.422
-741.112	-61.665	0.218	0.092
-740.098	-27.364	-0.162	-0.095
-739.083	4.369	-0.313	-0.231
-738.069	-109.421	-0.358	0.076
-737.054	130.707	-0.112	0.144
-736.039	69.463	-0.265	-0.275
-735.025	-117.332	0.202	0.037
-734.010	119.648	-0.198	-0.247
-732.996	-182.767	-0.323	-0.006
-731.981	702.682	-0.066	0.175
-730.966	228.917	-0.051	0.084
-729.952	-200.000	-0.016	0.197
-728.937	-2.992	-0.321	-0.226
-727.923	-47.002	0.027	0.013
-726.908	-191.133	0.265	-0.003
-725.894	-59.359	-0.065	-0.028
-724.879	-143.840	-0.233	0.022
-723.864	-2.374	-0.134	0.094
-722.850	-200.000	-0.032	0.184
-721.835	-200.000	0.006	-0.127
-720.821	20.339	0.200	-0.162
-719.806	-139.134	0.214	0.023
-718.791	31.641	-0.181	-0.157
-717.777	379.240	-0.063	-0.130
-716.762	-200.000	-0.041	-0.239
-715.748	255.830	-0.082	0.141
-714.733	-200.000	-0.033	-0.170
-713.718	31.951	0.128	0.111
-712.704	16.185	-0.132	0.105
-711.689	800.000	0.063	0.203
-710.675	789.155	-0.025	-0.070
-709.660	-193.041	-0.043	0.000
-708.645	800.000	0.082	0.280
-707.631	229.205	-0.088	0.144
-706.616	210.425	0.119	0.188
-705.602	24.090	-0.192	0.160
-704.587	681.245	-0.059	-0.156
-703.572	-183.154	0.164	0.003
-702.558	-100.482	-0.086	-0.021
-701.543	213.986	0.024	-0.038
-700.529	-200.000	0.024	0.276
-699.514	-26.601	0.081	-0.048
-698.499	-170.203	0.382	0.014
-697.485	-200.000	0.047	-0.286
-696.470	383.402	0.186	-0.385
-695.456	-142.480	-0.256	0.025
-694.441	-200.000	0.001	-0.130
-693.426	-200.000	-0.014	-0.269
-692.412	-23.856	0.161	-0.097
-691.397	800.000	-0.039	0.123
-690.383	-200.000	-0.011	0.331
-689.368	-61.408	-0.180	-0.076
-688.354	-166.032	0.278	0.012
-687.339	25.629	0.180	0.150
-686.324	-17.790	-0.144	-0.091
-685.310	-83.436	0.258	-0.083
-684.295	454.252	0.122	0.271
-683.281	-100.780	0.083	-0.021
-682.266	302.842	0.076	-0.141
-681.251	-94.013	0.170	-0.047
-680.237	7.845	0.143	0.107
-679.222	117.549	0.180	-0.223
-678.208	-117.658	0.092	-0.017
-677.193	0.339	0.089	-0.064
-676.178	149.716	-0.228	-0.310
-675.164	-74.307	0.126	0.046
-674.149	35.368	-0.236	0.208
-673.135	485.528	-0.046	-0.106
-672.120	-108.545	-0.067	-0.014
-671.105	-47.996	-0.216	0.105
-670.091	-94.990	0.186	-0.051
-669.076	-135.541	0.122	-0.015
-668.062	478.022	0.058	-0.132
-667.047	-113.791	-0.368	-0.072
-666.032	-49.234	0.254	0.122
-665.018	252.392	-0.084	0.143
-664.003	-87.947	0.133	0.040
-662.989	40.584	-0.170	-0.154
-661.974	564.257	0.062	-0.150
-660.959	800.000	-0.043	0.155
-659.945	525.225	0.118	-0.279
-658.930	-77.748	0.213	0.074
-657.916	62.500	0.068	0.068
-656.901	-73.776	-0.244	0.089
-655.886	-200.000	-0.022	-0.260
-654.872	-36.163	0.127	-0.069
-653.857	85.472	0.083	-0.092
-652.843	64.612	0.200	0.203
-651.828	-101.459	-0.109	-0.027
-650.814	-101.484	0.193	0.047
-649.799	-38.456	-0.190	0.101
-648.784	-200.000	-0.021	0.355
-647.770	600.279	-0.120	0.300
-646.755	17.665	0.216	0.172
-645.741	-82.228	-0.338	-0.110
-644.726	800.000	0.132	-0.566
-643.711	490.043	-0.186	-0.426
-642.697	-47.955	-0.135	0.066
-641.682	72.609	-0.027	0.028
-640.668	23.447	0.127	0.105
-639.653	275.376	-0.135	0.239
-638.638	30.776	-0.125	-0.108
-637.624	800.000	0.150	-0.532
-636.609	-43.792	-0.321	-0.162
-635.595	229.024	0.193	0.315
-634.580	66.207	-0.193	0.196
-633.565	-114.302	-0.089	0.017
-632.551	-129.468	0.111	0.015
-631.536	-80.204	-0.171	0.057
-630.522	405.393	-0.281	-0.595
-629.507	122.797	0.072	0.091
-628.492	5.908	0.251	-0.187
-627.478	-200.000	0.087	0.435
-626.463	-167.560	-0.232	0.009
-625.449	-200.000	-0.002	-0.175
-624.434	137.052	-0.097	0.128
-623.419	151.571	0.150	0.205
-622.405	77.980	-0.139	-0.149
-621.390	566.508	0.125	-0.305
-620.376	-136.563	0.168	0.020
-619.361	-200.000	-0.029	-0.309
-618.346	424.011	-0.042	0.091
-617.332	-200.000	0.017	0.121
-616.317	232.305	-0.036	-0.059
-615.303	-118.270	0.268	0.048
-614.288	40.303	-0.148	0.134
-613.273	283.614	0.078	0.141
-612.259	-200.000	-0.013	-0.219
-611.244	6.510	-0.196	0.146
-610.230	253.565	0.084	0.144
-609.215	68.916	0.323	-0.332
-608.201	549.688	0.110	-0.265
-607.186	-200.000	-0.038	-0.289
-606.171	-200.000	0.003	-0.139
-605.157	-44.258	0.169	-0.085
-604.142	277.212	-0.035	0.063
-603.128	310.610	0.129	-0.241
-602.113	-74.582	-0.364	0.131
-601.098	-128.015	0.078	-0.011
-600.084	-200.000	0.000	0.241
-599.069	136.782	0.036	-0.047
-598.055	-64.406	-0.184	0.075
-597.040	-153.408	-0.257	-0.018
-596.025	-76.933	-0.140	0.049
-595.011	115.508	-0.182	-0.223
-593.996	501.261	-0.156	0.360
-592.982	2.246	-0.270	0.195
-591.967	570.865	0.025	-0.062
-590.952	283.391	0.107	-0.192
-589.938	52.562	-0.105	0.101
-588.923	-152.750	-0.176	0.013
-587.909	-96.915	-0.232	-0.061
-586.894	-36.854	-0.219	0.118
-585.879	444.923	-0.154	-0.339
-584.865	-200.000	-0.018	0.230
-583.850	-176.434	-0.117	-0.003
-582.836	364.688	-0.136	0.275
-581.821	236.976	0.018	-0.030
-580.806	800.000	0.081	-0.257
-579.792	694.142	-0.157	-0.413
-578.777	-31.611	0.183	-0.103
-577.763	584.572	0.114	-0.281
-576.748	-127.548	0.608	-0.088
-575.733	-200.000	-0.023	0.221
-574.719	-34.215	0.084	-0.046
-573.704	-27.278	-0.148	0.086
-572.690	350.317	-0.124	-0.245
-571.675	-15.520	-0.237	0.152
-570.661	-134.798	0.263	-0.032
-569.646	-200.000	-0.012	0.075
-568.631	-134.290	0.220	0.027
-567.617	-139.882	-0.107	-0.011
-566.602	-77.746	-0.267	-0.093
-565.588	368.397	0.093	0.189
-564.573	-82.768	0.184	0.060
-563.558	800.000	0.017	-0.047
-562.544	-88.179	-0.398	-0.119
-561.529	800.000	0.012	0.053
-560.515	77.907	-0.174	-0.186
-559.500	26.446	-0.208	-0.174
-558.485	5.276	-0.331	0.244
-557.471	297.335	0.061	0.113
-556.456	-89.273	0.119	-0.035
-555.442	-200.000	0.314	0.001
-554.427	-77.539	-0.304	-0.105
-553.412	16.428	0.116	-0.092
-552.398	-200.000	-0.051	0.411
-551.383	-200.000	0.049	-0.402
-550.369	192.425	-0.095	-0.144
-549.354	156.031	0.181	0.249
-548.339	-100.671	0.333	0.082
-547.325	58.839	-0.206	-0.203
-546.310	-64.005	-0.501	0.205
-545.296	-19.138	-0.099	0.061
-544.281	-56.582	-0.123	-0.055
-543.266	-62.179	-0.406	0.169
-542.252	800.000	-0.098	0.312
-541.237	52.221	0.094	-0.090
-540.223	-72.630	-0.024	-0.009
-539.208	414.223	-0.096	0.204
-538.193	-64.424	-0.100	-0.040
-537.179	29.802	0.178	0.151
-536.164	368.792	-0.203	-0.409
-535.150	-24.683	-0.118	-0.070
-534.135	-79.478	0.339	-0.114
-533.121	-200.000	0.022	-0.115
-532.106	-164.410	0.151	-0.007
-531.091	-200.000	-0.044	-0.212
-530.077	50.411	0.289	-0.273
-529.062	-107.875	0.102	-0.022
-528.048	-37.130	0.150	-0.080
-527.033	-200.000	-0.039	0.235
-526.018	166.161	-0.106	-0.150
-525.004	474.341	0.096	0.217
-523.989	-134.112	0.154	0.019
-522.975	-37.259	-0.207	0.110
-521.960	-200.000	-0.067	0.327
-520.945	800.000	0.123	-0.362
-519.931	95.306	-0.101	-0.115
-518.916	-200.000	-0.017	0.145
-517.902	546.501	-0.031	0.074
-516.887	225.261	0.131	0.213
-515.872	-154.563	0.270	0.018
-514.858	800.000	0.106	0.448
-513.843	-200.000	-0.025	0.269
-512.829	-155.610	-0.142	0.009
-511.814	-129.486	-0.407	-0.056
-510.799	322.281	-0.043	0.082
-509.785	117.838	-0.035	-0.043
-508.770	-97.544	0.324	0.084
-507.756	-200.000	-0.030	-0.147
-506.741	346.846	-0.112	-0.220
-505.726	800.000	0.089	-0.323
-504.712	-200.000	0.016	-0.111
-503.697	-200.000	-0.034	0.410
-502.683	122.512	0.055	-0.068
-501.668	496.698	0.152	-0.349
-500.653	-52.201	-0.125	-0.058
-499.639	345.318	-0.174	-0.342
-498.624	-121.566	0.327	0.054
-497.610	-4.716	0.059	-0.040
-496.595	-104.351	0.131	-0.030
-495.581	-200.000	0.009	0.085
-494.566	-22.889	0.269	0.162
-493.551	271.450	0.103	-0.181
-492.537	-200.000	0.027	0.287
-491.522	223.034	0.197	0.316
-490.508	148.246	0.219	0.295
-489.493	-55.120	0.077	-0.034
-488.478	7.258	0.159	-0.118
-487.464	-28.268	-0.011	-0.006
-486.449	31.110	0.262	0.224
-485.435	-200.000	-0.060	0.315
-484.420	523.688	0.137	-0.321
-483.405	109.940	-0.205	-0.246
-482.391	-38.109	0.305	-0.162
-481.376	800.000	-0.092	-0.287
-480.362	-200.000	0.016	0.101
-479.347	-121.868	0.240	-0.039
-478.332	-200.000	0.089	-0.491
-477.318	112.609	0.104	-0.126
-476.303	-92.471	0.404	-0.113
-475.289	125.943	-0.175	-0.221
-474.274	-141.814	-0.372	0.037
-473.259	-200.000	-0.115	0.520
-472.245	-145.910	0.338	0.030
-471.230	-200.000	0.021	-0.170
-470.216	366.998	-0.181	-0.364
-469.201	-41.177	0.213	0.110
-468.186	644.804	0.010	0.026
-467.172	35.138	0.179	-0.157
-466.157	-60.608	-0.158	0.067
-465.143	-200.000	0.161	-0.001
-464.128	800.000	-0.075	-0.268
-463.113	-112.337	0.061	-0.012
-462.099	-167.068	-0.122	-0.005
-461.084	800.000	-0.128	-0.371
-460.070	-200.000	-0.042	0.213
-459.055	342.972	0.170	0.332
-458.040	343.804	0.013	-0.025
-457.026	263.987	-0.136	-0.235
-456.011	179.676	0.118	0.172
-454.997	67.509	-0.197	0.200
-453.982	535.303	-0.117	-0.276
-452.968	800.000	0.083	-0.269
-451.953	6.883	0.164	0.122
-450.938	-113.146	-0.281	0.055
-449.924	-25.121	0.155	0.092
-448.909	-200.000	0.049	0.233
-447.895	800.000	-0.010	-0.028
-446.880	-19.094	0.258	-0.160
-445.865	556.035	-0.098	0.236
-444.851	800.000	0.127	0.367
-443.836	-36.442	-0.191	-0.102
-442.822	-140.884	0.092	-0.009
-441.807	800.000	0.034	-0.132
-440.792	64.623	-0.175	0.175
-439.778	-6.352	-0.113	0.077
-438.763	11.042	-0.080	-0.061
-437.749	601.104	0.066	-0.162
-436.734	201.764	-0.064	-0.098
-435.719	514.163	0.137	-0.318
-434.705	310.265	-0.061	0.114
-433.690	-84.965	0.202	0.063
-432.676	223.108	0.012	-0.020
-431.661	-72.784	0.106	0.039
-430.646	789.207	-0.080	0.219
-429.632	-65.404	0.303	-0.121
-428.617	-170.939	0.369	0.013
-427.603	-100.000	-0.188	-0.047
-426.588	-111.332	0.193	0.039
-425.573	-165.338	0.086	-0.004
-424.559	16.536	0.160	-0.126
-423.544	-22.848	0.113	0.068
-422.530	800.000	-0.065	-0.234
-421.515	36.803	0.151	-0.133
-420.500	262.678	0.070	-0.121
-419.486	73.862	-0.244	-0.255
-418.471	-200.000	0.013	0.099
-417.457	800.000	-0.032	0.134
-416.442	12.101	-0.105	0.080
-415.428	145.656	-0.152	-0.203
-414.413	-93.739	0.105	0.029
-413.398	-62.327	-0.209	0.087
-412.384	-19.656	0.440	-0.271
-411.369	-200.000	0.088	0.428
-410.355	60.929	-0.257	0.254
-409.340	-200.000	-0.039	0.244
-408.325	-16.018	0.193	0.122
-407.311	-200.000	-0.062	0.272
-406.296	579.400	-0.139	0.338
-405.282	-158.202	-0.170	-0.010
-404.267	-123.151	-0.106	-0.017
-403.252	-121.302	-0.041	-0.007
-402.238	-169.957	-0.178	-0.006
-401.223	22.048	-0.074	-0.060
-400.209	-143.493	0.040	-0.004
-399.194	219.972	-0.275	0.438
-398.179	-116.541	0.233	0.043
-397.165	208.382	0.128	0.198
-396.150	-23.706	-0.195	0.116
-395.136	-86.429	-0.215	0.066
-394.121	-200.000	-0.001	-0.184
-393.106	-22.519	-0.302	0.181
-392.092	-85.661	-0.117	0.036
-391.077	401.051	-0.156	-0.326
-390.063	24.657	0.107	-0.088
-389.048	-59.506	0.313	0.134
-388.033	-57.431	-0.137	0.060
-387.019	-19.778	0.117	-0.072
-386.004	181.809	0.061	-0.089
-384.990	-176.288	0.432	0.011
-383.975	-69.047	0.265	-0.102
-382.960	97.886	-0.207	0.237
-381.946	354.838	0.155	-0.306
-380.931	91.924	0.117	-0.131
-379.917	533.773	0.092	0.217
-378.902	107.913	0.194	-0.229
-377.888	35.362	0.311	0.271
-376.873	164.380	-0.175	-0.246
-375.858	48.470	-0.311	0.289
-374.844	800.000	-0.089	-0.278
-373.829	362.384	-0.167	-0.333
-372.815	548.533	0.068	-0.161
-371.800	45.711	-0.281	-0.258
-370.785	-200.000	0.046	0.334
-369.771	-200.000	-0.002	-0.057
-368.756	13.048	0.128	-0.099
-367.742	-102.322	0.256	-0.061
-366.727	-68.209	0.070	-0.027
-365.712	-104.360	-0.262	-0.060
-364.698	-56.960	0.046	0.020
-363.683	22.224	-0.275	0.223
-362.669	-200.000	-0.010	-0.246
-361.654	44.370	0.111	0.101
-360.639	-162.393	-0.149	0.007
-359.625	473.421	-0.056	0.125
-358.610	800.000	-0.080	-0.232
-357.596	-93.126	-0.104	0.029
-356.581	-64.966	0.307	0.123
-355.566	-48.712	0.066	-0.031
-354.552	108.551	0.142	-0.169
-353.537	492.650	-0.065	0.148
-352.523	41.554	-0.225	-0.202
-351.508	-200.000	0.005	0.156
-350.493	-200.000	0.033	0.258
-349.479	-30.176	-0.125	-0.070
-348.464	106.127	-0.188	-0.221
-347.450	166.862	0.096	-0.136
-346.435	170.726	0.163	0.231
-345.420	1.259	-0.196	0.140
-344.406	-200.000	0.054	0.267
-343.391	-198.143	-0.245	-0.001
-342.377	133.913	0.114	0.146
-341.362	-116.673	-0.219	0.040
-340.348	-200.000	-0.002	0.229
-339.333	101.065	0.069	-0.080
-338.318	573.588	0.137	-0.332
-337.304	-109.053	0.213	-0.045
-336.289	-200.000	-0.063	0.541
-335.275	280.372	-0.053	0.094
-334.260	800.000	0.074	-0.234
-333.245	511.062	0.031	-0.071
-332.231	125.276	0.170	0.213
-331.216	757.412	0.038	0.103
-330.202	-115.468	-0.108	-0.020
-329.187	257.941	0.140	0.238
-328.172	355.161	0.083	-0.164
-327.158	106.849	-0.089	0.105
-326.143	28.000	0.174	0.145
-325.129	800.000	-0.049	0.137
-324.114	285.847	0.137	0.244
-323.099	192.139	-0.183	-0.274
-322.085	-29.963	-0.042	-0.023
-321.070	24.655	0.225	-0.184
-320.056	121.978	0.121	0.149
-319.041	-65.031	-0.081	-0.032
-318.026	-131.069	-0.198	-0.026
-317.012	-46.696	-0.206	0.100
-315.997	9.466	0.126	0.094
-314.983	-22.937	-0.099	-0.059
-313.968	-101.756	-0.178	-0.043
-312.953	26.921	0.234	-0.194
-311.939	215.345	-0.115	0.181
-310.924	-200.000	0.057	0.255
-309.910	41.133	-0.161	-0.144
-308.895	-200.000	0.021	0.112
-307.880	800.000	0.058	0.161
-306.866	800.000	-0.057	0.220
-305.851	-70.099	0.064	0.024
-304.837	-200.000	0.026	0.132
-303.822	200.163	0.070	0.106
-302.807	-200.000	-0.020	0.211
-301.793	-90.566	-0.083	0.024
-300.778	800.000	-0.055	-0.150
-299.764	261.989	-0.128	-0.219
-298.749	143.419	-0.005	0.007
-297.735	-200.000	0.023	-0.158
-296.720	-200.000	0.013	-0.139
-295.705	83.599	0.158	-0.170
-294.691	346.753	-0.109	-0.212
-293.676	800.000	-0.029	0.109
-292.662	485.973	0.101	-0.229
-291.647	-200.000	0.000	-0.293
-290.632	-178.498	-0.353	-0.008
-289.618	800.000	0.055	0.204
-288.603	-5.887	-0.173	-0.117
-287.589	-62.174	-0.168	0.069
-286.574	-90.753	-0.209	-0.060
-285.559	540.044	0.114	0.268
-284.545	304.087	0.172	-0.316
-283.530	-36.678	-0.398	-0.212
-282.516	-200.000	-0.039	-0.463
-281.501	345.531	0.061	-0.118
-280.486	-167.031	0.314	0.013
-279.472	-113.428	-0.224	0.043
-278.457	186.453	0.070	0.104
-277.443	-27.950	0.186	-0.107
-276.428	-200.000	0.084	-0.000
-275.413	800.000	-0.058	0.163
-274.399	78.185	0.205	-0.216
-273.384	-200.000	-0.008	-0.223
-272.370	588.064	0.169	-0.410
-271.355	-29.459	-0.096	0.054
-270.340	-135.525	0.310	0.037
-269.326	-120.447	0.183	0.031
-268.311	-83.493	0.170	0.054
-267.297	5.708	-0.046	-0.034
-266.282	7.430	-0.163	-0.120
-265.267	-149.875	0.145	0.011
-264.253	464.698	0.113	0.249
-263.238	72.340	-0.197	0.203
-262.224	-139.608	-0.148	0.016
-261.209	-55.749	-0.165	0.073
-260.195	-141.708	0.175	0.017
-259.180	-200.000	0.092	0.460
-258.165	-125.836	0.071	-0.011
-257.151	37.134	-0.178	0.156
-256.136	-157.605	0.199	0.012
-255.122	-126.792	-0.154	-0.022
-254.107	-141.758	0.158	-0.016
-253.092	116.058	-0.047	0.056
-252.078	605.693	-0.213	0.524
-251.063	-148.938	0.364	0.029
-250.049	-200.000	0.004	-0.057
-249.034	-200.000	-0.004	-0.084
-248.019	356.196	0.044	0.087
-247.005	-43.870	0.394	-0.196
-245.990	800.000	0.024	-0.085
-244.976	-137.223	-0.324	-0.036
-243.961	-165.412	0.208	-0.009
-242.946	284.579	0.046	0.082
-241.932	-115.388	0.289	0.054
-240.917	-124.177	0.417	0.064
-239.903	-177.028	-0.158	0.004
-238.888	243.958	0.039	-0.064
-237.873	-164.595	-0.386	0.017
-236.859	148.527	0.066	0.088
-235.844	-161.431	-0.062	0.003
-234.830	354.029	0.199	0.390
-233.815	341.619	-0.071	-0.137
-232.800	84.338	0.069	-0.075
-231.786	-200.000	0.039	0.331
-230.771	800.000	0.015	0.063
-229.757	-200.000	-0.001	0.067
-228.742	-81.421	-0.280	-0.091
-227.727	576.025	-0.085	0.206
-226.713	718.934	-0.042	0.110
-225.698	103.991	-0.075	0.087
-224.684	334.402	-0.285	-0.545
-223.669	-95.639	0.237	0.063
-222.655	-96.322	-0.052	-0.014
-221.640	-65.493	0.083	-0.033
-220.625	-200.000	-0.047	-0.224
-219.611	-122.777	-0.139	-0.022
-218.596	-96.913	-0.318	-0.082
-217.582	-75.895	0.279	-0.098
-216.567	282.110	0.132	-0.234
-215.552	242.255	0.081	0.134
-214.538	173.341	0.146	-0.208
-213.523	-83.188	-0.116	0.037
-212.509	800.000	0.098	-0.406
-211.494	76.636	-0.156	-0.163
-210.479	-94.656	0.166	0.044
-209.465	-161.276	0.201	0.010
-208.450	111.638	-0.059	0.070
-207.436	373.634	0.117	0.235
-206.421	800.000	0.107	-0.318
-205.406	205.053	0.126	0.193
-204.392	144.252	-0.129	-0.170
-203.377	108.503	0.252	0.297
-202.363	156.999	0.107	-0.146
-201.348	-124.825	0.331	-0.050
-200.333	57.719	-0.218	-0.210
-199.319	-14.477	0.129	0.082
-198.304	-70.212	-0.050	-0.019
-197.290	-200.000	0.035	0.231
-196.275	-200.000	-0.020	0.173
-195.260	-42.073	-0.458	0.231
-194.246	96.012	0.125	0.141
-193.231	800.000	-0.058	0.192
-192.217	-200.000	-0.059	0.447
-191.202	215.195	-0.084	-0.132
-190.187	-52.489	-0.283	0.129
-189.173	-127.565	-0.258	0.037
-188.158	585.296	-0.056	0.136
-187.144	-116.180	-0.272	-0.050
-186.129	-139.314	-0.237	0.025
-185.114	-100.393	0.224	-0.055
-184.100	800.000	0.021	-0.082
-183.085	-74.888	-0.234	0.083
-182.071	-20.936	0.260	0.157
-181.056	-67.824	0.326	0.126
-180.042	-52.829	0.281	-0.128
-179.027	-187.640	-0.326	-0.004
-178.012	800.000	0.048	0.192
-176.998	-200.000	0.001	0.275
-175.983	58.681	0.100	-0.097
-174.969	629.567	-0.093	0.231
-173.954	-200.000	-0.030	0.140
-172.939	25.353	-0.217	-0.178
-171.925	108.546	-0.190	-0.223
-170.910	340.429	0.244	-0.468
-169.896	-81.640	0.150	-0.048
-168.881	48.743	0.133	-0.123
-167.866	165.089	0.070	0.098
-166.852	-99.732	-0.179	-0.044
-165.837	-200.000	0.014	-0.187
-164.823	-67.897	0.297	-0.114
-163.808	-120.053	0.178	-0.030
-162.793	781.412	-0.084	0.227
-161.779	-119.306	0.147	0.025
-160.764	-200.000	0.026	-0.190
-159.750	800.000	0.038	-0.130
-158.735	-200.000	-0.007	0.038
-157.720	48.677	0.171	-0.158
-156.706	58.294	-0.156	0.150
-155.691	795.889	-0.099	0.269
-154.677	-200.000	0.014	-0.150
-153.662	128.348	-0.090	0.112
-152.647	-68.110	-0.301	0.115
-151.633	-35.498	-0.253	0.135
-150.618	-37.310	0.248	0.130
-149.604	-141.106	-0.079	0.008
-148.589	1.920	0.190	-0.135
-147.574	747.445	-0.082	0.219
-146.560	-123.841	0.115	0.018
-145.545	-59.087	-0.366	0.155
-144.531	138.982	-0.246	-0.318
-143.516	35.199	-0.054	-0.047
-142.502	196.838	-0.046	0.069
-141.487	-200.000	0.003	-0.103
-140.472	-115.523	-0.056	0.010
-139.458	269.794	-0.074	-0.128
-138.443	-94.559	0.294	-0.079
-137.429	-3.712	0.017	-0.011
-136.414	489.508	-0.085	-0.190
-135.399	-164.998	0.269	-0.012
-134.385	370.747	-0.140	0.279
-133.370	-137.702	-0.192	-0.021
-132.356	-56.540	-0.159	0.069
-131.341	183.773	0.071	0.104
-130.326	-200.000	-0.014	-0.072
-129.312	24.016	0.082	-0.066
-128.297	-200.000	0.026	-0.148
-127.283	-102.671	-0.135	0.032
-126.268	630.484	-0.037	0.091
-125.253	90.746	0.234	0.258
-124.239	-176.662	-0.251	-0.006
-123.224	-92.376	0.029	0.008
-122.210	372.470	0.092	0.183
-121.195	-93.042	-0.289	0.079
-120.180	-200.000	0.009	-0.040
-119.166	-104.260	-0.065	-0.015
-118.151	-147.877	-0.307	-0.025
-117.137	172.874	0.189	0.267
-116.122	-4.444	0.201	-0.137
-115.107	-109.445	-0.342	0.071
-114.093	80.913	-0.029	-0.030
-113.078	800.000	0.077	0.268
-112.064	800.000	-0.062	0.204
-111.049	-93.300	-0.071	-0.019
-110.034	75.213	-0.043	0.044
-109.020	-56.223	0.187	-0.082
-108.005	-101.120	0.108	0.026
-106.991	-62.074	0.060	0.024
-105.976	-167.930	0.186	0.007
-104.962	255.855	-0.121	-0.204
-103.947	25.501	-0.073	0.059
-102.932	-34.942	-0.156	-0.084
-101.918	-200.000	-0.027	-0.258
-100.903	250.235	0.117	0.195
-99.889	-142.583	0.130	0.013
-98.874	-200.000	0.025	0.119
-97.859	795.367	-0.090	-0.242
-96.845	146.699	-0.134	-0.177
-95.830	-140.926	-0.228	0.023
-94.816	-200.000	0.037	0.176
-93.801	-0.304	0.282	0.197
-92.786	-200.000	0.008	0.181
-91.772	-200.000	-0.030	0.331
-90.757	512.354	-0.079	0.181
-89.743	-64.069	0.285	-0.114
-88.728	-11.639	-0.168	0.109
-87.713	-101.215	0.314	-0.075
-86.699	-200.000	0.078	0.433
-85.684	-149.718	0.111	-0.009
-84.670	800.000	0.096	-0.280
-83.655	800.000	-0.120	-0.348
-82.640	202.163	0.180	0.273
-81.626	-200.000	-0.002	-0.200
-80.611	156.016	0.307	0.416
-79.597	-69.080	0.100	0.038
-78.582	18.911	0.228	-0.180
-77.567	246.096	0.112	-0.184
-76.553	800.000	-0.093	-0.276
-75.538	-165.006	-0.246	0.011
-74.524	7.412	0.119	0.087
-73.509	4.390	-0.223	0.160
-72.494	130.576	0.126	-0.158
-71.480	367.035	-0.055	-0.110
-70.465	159.853	-0.065	0.089
-69.451	56.318	-0.151	0.144
-68.436	243.174	0.060	0.099
-67.422	26.931	0.150	-0.123
-66.407	25.789	0.293	-0.239
-65.392	54.000	0.103	0.097
-64.378	-200.000	0.055	0.270
-63.363	800.000	0.028	0.081
-62.349	-63.075	0.304	0.123
-61.334	41.558	-1.350	-1.199
-60.319	307.227	0.517	0.945
-59.305	-200.000	-0.163	-1.023
-58.290	370.674	0.594	1.181
-57.276	800.000	0.637	1.758
-56.261	-200.000	106.828	611.875
-55.246	500.529	1509.999	3416.081
-54.232	174.460	2711.408	3844.304
-53.217	104.525	2301.349	2657.269
-52.203	38.688	1904.961	1666.675
-51.188	32.620	1690.796	1433.256
-50.173	30.091	1647.680	1377.880
-49.159	49.139	1701.257	1567.088
-48.144	49.356	1716.731	1582.916
-47.130	32.270	1673.799	1415.985
-46.115	29.562	1659.301	1383.413
-45.100	29.434	1654.205	1378.158
-44.086	29.379	1651.667	1375.573
-43.071	29.437	1648.745	1373.517
-42.057	29.285	1646.995	1370.878
-41.042	29.408	1644.359	1369.540
-40.027	29.371	1642.813	1367.927
-39.013	29.296	1641.057	1365.853
-37.998	29.278	1639.631	1364.480
-36.984	29.397	1637.728	1363.717
-35.969	29.471	1636.804	1363.442
-34.954	29.447	1635.357	1362.006
-33.940	29.440	1632.939	1359.888
-32.925	29.445	1631.139	1358.373
-31.911	29.514	1628.967	1357.013
-30.896	29.412	1628.173	1355.551
-29.881	29.431	1626.470	1354.215
-28.867	29.404	1624.872	1352.637
-27.852	29.518	1622.841	1351.725
-26.838	29.527	1621.506	1350.630
-25.823	29.477	1620.426	1349.308
-24.809	29.532	1619.243	1348.673
-23.794	29.531	1617.842	1347.442
-22.779	29.482	1616.260	1345.714
-21.765	29.432	1614.830	1344.110
-20.750	29.449	1613.028	1342.675
-19.736	29.536	1611.704	1342.157
-18.721	29.483	1610.494	1340.706
-17.706	29.477	1608.751	1339.158
-16.692	29.492	1607.448	1338.133
-15.677	29.596	1605.741	1337.409
-14.663	29.506	1604.397	1335.587
-13.648	29.553	1603.011	1334.722
-12.633	29.461	1601.688	1332.901
-11.619	29.507	1600.295	1332.022
-10.604	29.440	1598.834	1330.272
-9.590	29.521	1597.551	1329.734
-8.575	29.563	1596.429	1329.048
-7.560	29.566	1595.027	1327.852
-6.546	29.552	1594.305	1327.097
-5.531	29.447	1593.455	1325.582
-4.517	29.518	1592.127	1324.932
-3.502	29.521	1590.851	1323.841
-2.487	29.558	1589.268	1322.735
-1.473	29.258	1577.571	1310.815
-0.458	26.644	1558.684	1276.675
0.556	20.963	1559.805	1247.307
1.571	18.620	1585.382	1250.587
2.586	18.449	1598.363	1259.463
3.600	16.705	1545.066	1204.960
4.615	8.718	1436.494	1067.139
5.629	1.246	1372.148	971.543
6.644	-0.158	1363.979	956.730
7.659	-0.217	1362.705	955.378
8.673	-0.191	1362.168	955.081
9.688	-0.233	1359.858	953.111
10.702	-0.434	1356.637	949.494
11.717	3.149	1364.130	977.453
12.731	12.500	1381.668	1049.874
13.746	19.881	1394.109	1106.611
14.761	21.860	1397.086	1121.541
15.775	22.277	1396.459	1123.607
16.790	22.311	1396.111	1123.445
17.804	22.353	1395.591	1123.196
18.819	22.545	1395.114	1123.935
19.834	22.587	1394.666	1123.742
20.848	22.677	1393.740	1123.473
21.863	22.691	1393.427	1123.209
22.877	22.796	1391.864	1122.515
23.892	22.695	1390.947	1121.035
24.907	22.695	1390.433	1120.524
25.921	22.690	1389.356	1119.524
26.936	22.667	1388.705	1118.751
27.950	22.715	1387.151	1117.709
28.965	22.717	1386.449	1117.053
29.980	22.661	1385.394	1115.751
30.994	22.691	1384.191	1114.873
32.009	22.645	1383.405	1113.852
33.023	22.659	1382.143	1112.828
34.038	22.758	1380.913	1112.364
35.053	22.651	1380.275	1111.077
36.067	22.657	1379.072	1110.045
37.082	22.686	1378.205	1109.434
38.096	22.628	1376.965	1107.970
39.111	22.718	1376.244	1107.861
40.126	22.689	1375.616	1107.075
41.140	22.696	1375.096	1106.603
42.155	22.676	1374.798	1106.138
43.169	22.663	1374.916	1106.056
44.184	22.621	1374.137	1105.064
45.199	22.653	1373.796	1104.893
46.213	22.687	1373.541	1104.804
47.228	22.614	1372.771	1103.628
48.242	22.694	1371.199	1102.767
49.257	22.736	1370.013	1101.980
50.271	22.743	1367.952	1100.269
51.286	22.602	1367.346	1098.804
52.301	22.549	1366.300	1097.536
53.315	22.691	1364.974	1097.256
54.330	22.590	1364.252	1095.951
55.344	22.549	1363.299	1094.831
56.359	22.706	1362.034	1094.694
57.374	22.719	1361.329	1094.113
58.388	22.757	1360.307	1093.432
59.403	22.559	1360.492	1092.256
60.417	22.608	1359.816	1091.918
61.432	22.695	1358.960	1091.673
62.447	22.690	1357.668	1090.505
63.461	22.653	1357.447	1090.006
64.476	22.642	1356.053	1088.723
65.490	22.627	1355.253	1087.888
66.505	22.728	1352.474	1086.188
67.520	22.711	1352.208	1085.773
68.534	22.655	1350.946	1084.316
69.549	22.651	1350.068	1083.495
70.563	22.725	1349.209	1083.165
71.578	22.745	1348.433	1082.565
72.593	22.791	1347.282	1081.829
73.607	22.700	1346.811	1080.795
74.622	22.783	1345.577	1080.215
75.636	22.684	1345.265	1079.264
76.651	22.741	1344.102	1078.584
77.666	22.699	1343.911	1078.081
78.680	22.642	1343.728	1077.488
79.695	22.694	1342.918	1077.063
80.709	22.702	1341.820	1076.134
81.724	22.740	1341.038	1075.643
82.739	22.707	1340.113	1074.605
83.753	22.666	1339.212	1073.537
84.768	22.691	1338.186	1072.776
85.782	22.748	1336.560	1071.721
86.797	22.702	1335.700	1070.656
87.812	22.778	1334.374	1069.963
88.826	22.788	1333.209	1068.994
89.841	22.750	1332.225	1067.883
90.855	22.771	1331.709	1067.499
91.870	22.707	1331.112	1066.538
92.884	22.808	1329.990	1066.158
93.899	22.758	1329.225	1065.144
94.914	22.670	1328.027	1063.563
95.928	22.744	1327.725	1063.669
96.943	22.750	1327.490	1063.424
97.957	22.854	1326.141	1062.874
98.972	22.718	1325.697	1061.610
99.987	22.763	1324.283	1060.650
101.001	22.794	1323.438	1060.071
102.016	22.732	1322.338	1058.722
103.030	22.738	1321.879	1058.296
104.045	22.806	1320.976	1057.886
105.060	22.838	1319.675	1056.944
106.074	22.693	1319.066	1055.495
107.089	22.749	1317.943	1054.834
108.103	22.824	1316.679	1054.182
109.118	22.879	1315.281	1053.297
110.133	22.834	1314.815	1052.562
111.147	22.831	1313.515	1051.412
112.162	22.735	1312.378	1049.833
113.176	22.949	1310.972	1049.887
114.191	22.941	1310.047	1049.008
115.206	22.828	1309.241	1047.599
116.220	22.806	1308.110	1046.468
117.235	22.890	1306.855	1045.872
118.249	22.760	1306.229	1044.508
119.264	22.923	1304.989	1044.387
120.279	22.830	1305.026	1043.779
121.293	22.955	1303.887	1043.510
122.308	22.889	1303.186	1042.467
123.322	22.904	1302.445	1041.869
124.337	22.975	1301.398	1041.358
125.352	22.900	1300.362	1039.996
126.366	22.902	1299.486	1039.219
127.381	22.934	1298.373	1038.422
128.395	22.959	1297.541	1037.810
129.410	22.924	1296.970	1037.061
130.424	22.944	1296.049	1036.348
131.439	23.002	1294.903	1035.678
132.454	22.877	1294.366	1034.424
133.468	22.994	1293.584	1034.393
134.483	22.866	1293.527	1033.510
135.497	22.943	1292.326	1032.906
136.512	22.843	1291.412	1031.502
137.527	22.868	1290.045	1030.462
138.541	22.887	1288.642	1029.362
139.556	22.820	1287.770	1028.184
140.570	22.946	1286.935	1028.162
141.585	22.890	1285.577	1026.660
142.600	22.875	1284.761	1025.830
143.614	22.901	1283.760	1025.089
144.629	22.841	1282.926	1023.986
145.643	22.868	1281.655	1023.035
146.658	22.865	1280.455	1021.969
147.673	22.834	1279.452	1020.900
148.687	22.832	1278.701	1020.202
149.702	22.854	1277.147	1018.995
150.716	22.801	1276.205	1017.848
151.731	22.805	1275.880	1017.526
152.746	22.655	1275.114	1015.958
153.760	22.923	1273.388	1016.037
154.775	22.963	1272.047	1015.106
155.789	22.875	1271.459	1014.039
156.804	23.024	1270.440	1013.994
157.819	22.908	1269.549	1012.529
158.833	22.930	1269.089	1012.197
159.848	22.955	1268.150	1011.500
160.862	22.991	1267.593	1011.175
161.877	23.048	1266.305	1010.380
162.892	23.049	1265.548	1009.696
163.906	22.869	1265.198	1008.298
164.921	22.987	1264.976	1008.706
165.935	23.001	1263.804	1007.759
166.950	22.993	1263.400	1007.302
167.964	23.007	1262.496	1006.572
168.979	23.004	1261.696	1005.833
169.994	23.034	1261.394	1005.670
171.008	22.998	1260.588	1004.735
172.023	23.082	1259.555	1004.301
173.037	23.039	1258.911	1003.455
174.052	23.036	1258.495	1003.014
175.067	23.132	1257.619	1002.775
176.081	23.058	1256.679	1001.514
177.096	23.097	1256.010	1001.115
178.110	23.059	1255.422	1000.344
179.125	23.053	1254.117	999.180
180.140	23.124	1252.672	998.340
181.154	23.093	1251.763	997.352
182.169	23.025	1250.417	995.808
183.183	23.090	1249.619	995.451
184.198	23.055	1248.534	994.302
185.213	23.098	1247.894	993.949
186.227	23.173	1247.049	993.607
187.242	23.049	1246.224	992.167
188.256	23.124	1245.020	991.542
189.271	23.155	1244.089	990.884
190.286	23.093	1243.818	990.234
191.300	23.113	1243.561	990.057
192.315	23.172	1242.921	989.786
193.329	23.209	1242.489	989.565
194.344	23.199	1241.826	988.888
195.359	23.241	1241.429	988.723
196.373	23.082	1240.988	987.395
197.388	23.049	1239.825	986.197
198.402	23.075	1239.957	986.364
199.417	23.036	1239.636	985.803
200.432	23.125	1238.637	985.414
201.446	23.053	1238.068	984.477
202.461	23.044	1237.558	983.930
203.475	23.250	1236.186	983.896
204.490	23.177	1235.390	982.775
205.504	23.229	1234.246	982.067
206.519	23.257	1233.474	981.518
207.534	23.158	1232.849	980.386
208.548	23.204	1231.611	979.569
209.563	23.225	1230.620	978.810
210.577	23.366	1229.550	978.653
211.592	23.144	1229.741	977.491
212.607	23.277	1228.901	977.473
213.621	23.296	1228.018	976.786
214.636	23.339	1227.240	976.317
215.650	23.207	1226.549	974.954
216.665	23.209	1225.084	973.716
217.680	23.208	1224.629	973.265
218.694	23.223	1223.351	972.243
219.709	23.325	1222.726	972.219
220.723	23.370	1222.072	971.860
221.738	23.251	1221.382	970.574
222.753	23.127	1221.079	969.568
223.767	23.214	1220.303	969.341
224.782	23.292	1220.081	969.507
225.796	23.361	1219.227	969.122
226.811	23.316	1218.550	968.252
227.826	23.490	1218.046	968.716
228.840	23.358	1217.438	967.427
229.855	23.267	1216.878	966.396
230.869	23.387	1215.803	966.112
231.884	23.224	1215.776	965.115
232.899	23.346	1214.756	964.887
233.913	23.273	1214.132	963.910
234.928	23.325	1213.757	963.810
235.942	23.346	1213.143	963.349
236.957	23.419	1212.377	963.053
237.972	23.405	1211.383	962.100
238.986	23.482	1210.778	961.954
240.001	23.439	1210.295	961.251
241.015	23.472	1209.663	960.843
242.030	23.495	1208.898	960.273
243.045	23.529	1207.704	959.428
244.059	23.429	1207.261	958.449
245.074	23.545	1206.208	958.153
246.088	23.591	1205.877	958.053
247.103	23.495	1204.860	956.643
248.117	23.499	1204.354	956.181
249.132	23.519	1203.445	955.479
250.147	23.599	1202.819	955.331
251.161	23.628	1201.796	954.589
252.176	23.510	1201.201	953.397
253.190	23.635	1200.714	953.600
254.205	23.528	1200.368	952.662
255.220	23.548	1199.656	952.122
256.234	23.536	1198.865	951.346
257.249	23.525	1198.596	950.986
258.263	23.528	1197.866	950.344
259.278	23.679	1196.842	950.253
260.293	23.641	1196.675	949.836
261.307	23.699	1195.958	949.491
262.322	23.669	1195.548	948.922
263.336	23.701	1194.344	948.051
264.351	23.579	1194.479	947.422
265.366	23.678	1193.361	946.982
266.380	23.570	1192.966	946.009
267.395	23.642	1191.873	945.442
268.409	23.634	1191.533	945.047
269.424	23.633	1191.153	944.655
270.439	23.651	1190.445	944.106
271.453	23.599	1190.135	943.501
272.468	23.704	1189.230	943.258
273.482	23.657	1188.375	942.244
274.497	23.761	1187.942	942.371
275.512	23.792	1187.051	941.743
276.526	23.788	1186.395	941.119
277.541	23.717	1186.083	940.411
278.555	23.677	1185.623	939.751
279.570	23.898	1184.219	939.722
280.585	23.892	1183.432	938.986
281.599	23.809	1182.568	937.778
282.614	23.713	1182.054	936.782
283.628	23.818	1180.663	936.147
284.643	23.713	1180.539	935.418
285.657	23.733	1179.624	934.711
286.672	23.707	1179.091	934.074
287.687	23.873	1177.763	933.807
288.701	23.855	1177.241	933.220
289.716	23.872	1176.271	932.456
290.730	23.811	1176.019	931.851
291.745	23.999	1175.060	931.994
292.760	23.895	1174.883	931.226
293.774	23.956	1173.912	930.694
294.789	23.983	1173.489	930.419
295.803	23.933	1173.014	929.698
296.818	23.905	1172.137	928.777
297.833	23.982	1171.456	928.556
298.847	23.989	1170.628	927.853
299.862	24.026	1170.024	927.486
300.876	23.918	1169.409	926.353
301.891	23.982	1169.132	926.385
302.906	23.983	1168.190	925.564
303.920	24.030	1167.511	925.187
304.935	24.052	1167.090	924.885
305.949	24.009	1166.384	924.020
306.964	23.980	1165.941	923.436
307.979	24.126	1165.320	923.619
308.993	24.104	1164.684	922.921
310.008	24.077	1163.594	921.835
311.022	24.044	1162.915	921.044
312.037	24.110	1162.167	920.714
313.052	24.099	1161.209	919.818
314.066	24.035	1160.382	918.747
315.081	24.066	1159.768	918.343
316.095	24.182	1158.570	917.912
317.110	24.182	1158.365	917.668
318.125	24.097	1158.236	917.043
319.139	24.196	1157.137	916.602
320.154	24.128	1156.752	915.870
321.168	24.076	1156.332	915.188
322.183	24.210	1155.604	915.220
323.197	24.222	1154.888	914.633
324.212	24.106	1154.231	913.436
325.227	24.098	1153.983	913.114
326.241	24.200	1153.461	913.145
327.256	24.220	1152.573	912.465
328.270	24.295	1151.711	912.086
329.285	24.254	1151.200	911.387
330.300	24.250	1150.221	910.515
331.314	24.183	1149.509	909.525
332.329	24.174	1148.704	908.763
333.343	24.347	1147.722	908.786
334.358	24.326	1146.857	907.914
335.373	24.365	1145.777	907.177
336.387	24.376	1145.541	906.969
337.402	24.365	1145.140	906.516
338.416	24.439	1144.274	906.123
339.431	24.408	1143.629	905.374
340.446	24.479	1142.970	905.132
341.460	24.394	1142.459	904.216
342.475	24.451	1141.432	903.613
343.489	24.392	1141.097	902.971
344.504	24.382	1140.041	902.003
345.519	24.506	1139.013	901.740
346.533	24.453	1138.680	901.127
347.548	24.490	1137.906	900.623
348.562	24.537	1136.890	899.973
349.577	24.354	1136.706	898.825
350.592	24.301	1135.710	897.690
351.606	24.309	1135.150	897.208
352.621	24.439	1134.405	897.195
353.635	24.352	1134.296	896.594
354.650	24.495	1132.835	896.076
355.665	24.537	1132.345	895.821
356.679	24.653	1131.640	895.767
357.694	24.551	1130.910	894.598
358.708	24.566	1130.491	894.261
359.723	24.500	1129.831	893.331
360.738	24.500	1129.425	892.930
361.752	24.522	1128.799	892.467
362.767	24.615	1128.039	892.249
363.781	24.580	1127.788	891.796
364.796	24.592	1127.430	891.495
365.810	24.606	1126.393	890.666
366.825	24.744	1125.884	890.876
367.840	24.781	1125.166	890.409
368.854	24.776	1124.674	889.920
369.869	24.830	1123.920	889.509
370.883	24.839	1122.978	888.731
371.898	24.767	1122.636	888.022
372.913	24.739	1121.638	887.017
373.927	24.759	1121.711	887.098
374.942	24.870	1120.645	886.724
375.956	24.775	1120.479	886.041
376.971	24.843	1119.682	885.670
377.986	24.865	1119.352	885.440
379.000	24.870	1118.829	884.971
380.015	24.733	1118.344	883.834
381.029	24.804	1117.562	883.489
382.044	24.832	1117.198	883.262
383.059	24.837	1115.979	882.244
384.073	24.909	1115.599	882.221
385.088	24.960	1114.730	881.709
386.102	24.892	1114.148	880.831
387.117	24.949	1112.564	879.781
388.132	24.839	1112.183	878.865
389.146	24.838	1111.580	878.303
390.161	24.916	1110.934	878.099
391.175	24.963	1110.344	877.786
392.190	24.914	1110.050	877.237
393.205	24.860	1108.970	876.041
394.219	25.017	1108.154	876.084
395.234	25.064	1107.392	875.635
396.248	25.038	1106.816	874.975
397.263	25.068	1106.141	874.512
398.278	25.089	1105.135	873.740
399.292	25.153	1104.662	873.602
400.307	25.041	1104.450	872.809
401.321	25.087	1103.383	872.115
402.336	25.128	1102.635	871.642
403.350	25.120	1102.086	871.092
404.365	25.147	1101.338	870.558
405.380	25.149	1100.283	869.657
406.394	25.122	1100.426	869.560
407.409	25.161	1099.475	868.920
408.423	25.214	1098.820	868.583
409.438	25.155	1098.013	867.584
410.453	25.182	1097.228	867.019
411.467	25.341	1096.332	867.002
412.482	25.197	1095.879	865.873
413.496	25.269	1095.180	865.589
414.511	25.176	1094.590	864.595
415.526	25.294	1094.283	864.849
416.540	25.150	1094.092	863.928
417.555	25.231	1093.320	863.632
418.569	25.279	1092.846	863.412
419.584	25.313	1092.487	863.215
420.599	25.288	1091.804	862.475
421.613	147.556	1403.824	1797.800
422.628	136.538	1449.279	1797.902
