DTS Sentinel unit serial number:	SN413079Multiplexer serial number:	ORYXHardware model number:	OX4-SRSoftware version number:	ORYX F/W v4.00 Oryx Data Collector v3.7.2.0data status	okinstallation	princeton_trtdifferential loss correction	single-endedforward channel	channel 2reverse channel	N/Adate	2019/09/11time	18:25:11forward acquisition time	60.00reverse acquisition time	0.00gamma	496.2192k internal	0.2285k external	0.2285temperature offset calibration	1.0028default loss term (dB/km)	0.3790temperature slope calibration	1.0000multiplexer offset coefficient	1.0000multiplexer slope coefficient	1.0000fibre end	0.00T internal ref (°C)	43.94T ext. ref 1 (°C)	1.17T ext. ref 2 (°C)	38.04length (m)	temperature (°C)	Stokes	anti-Stokes-747.200	800.000	-0.076	0.256
-746.185	244.555	0.144	0.248
-745.171	-200.000	-0.005	0.025
-744.156	95.455	-0.339	0.397
-743.142	16.238	-0.051	0.042
-742.127	800.000	-0.105	0.312
-741.112	173.896	0.058	0.085
-740.098	275.741	0.151	0.275
-739.083	-200.000	0.023	0.112
-738.069	-147.920	-0.127	0.011
-737.054	-8.600	-0.404	0.278
-736.039	335.006	-0.071	-0.142
-735.025	536.104	0.018	-0.043
-734.010	116.537	-0.150	0.189
-732.996	-142.235	-0.236	-0.024
-731.981	-23.506	0.110	-0.068
-730.966	72.782	-0.110	-0.118
-729.952	-22.093	-0.081	0.051
-728.937	90.669	-0.245	-0.282
-727.923	-39.254	-0.397	-0.214
-726.908	250.271	0.057	0.100
-725.894	-6.399	-0.060	0.042
-724.879	-44.796	-0.040	0.020
-723.864	-126.223	-0.229	0.035
-722.850	-200.000	0.006	0.054
-721.835	788.938	0.110	0.311
-720.821	257.418	-0.077	0.136
-719.806	-200.000	-0.011	-0.243
-718.791	9.360	0.054	-0.042
-717.777	79.158	0.067	-0.074
-716.762	-108.063	0.068	-0.015
-715.748	-35.777	0.444	0.246
-714.733	-200.000	0.006	-0.218
-713.718	800.000	-0.041	-0.134
-712.704	163.518	-0.267	0.385
-711.689	74.991	-0.419	0.453
-710.675	-80.473	-0.289	0.099
-709.660	-122.548	-0.314	0.052
-708.645	113.037	-0.166	0.206
-707.631	-54.867	0.088	-0.041
-706.616	8.219	0.110	-0.085
-705.602	-112.647	0.464	0.095
-704.587	-64.742	-0.264	-0.109
-703.572	-44.183	0.156	0.080
-702.558	-144.760	-0.386	-0.036
-701.543	-200.000	-0.012	-0.309
-700.529	-37.847	-0.103	-0.056
-699.514	800.000	-0.130	0.413
-698.499	332.199	-0.089	-0.175
-697.485	14.327	-0.262	-0.210
-696.470	84.779	0.133	0.150
-695.456	101.348	0.095	0.114
-694.441	348.316	0.088	0.179
-693.426	41.505	0.156	-0.145
-692.412	146.559	0.151	0.208
-691.397	-33.123	0.030	0.017
-690.383	473.265	-0.065	0.151
-689.368	133.190	-0.162	0.215
-688.354	17.701	0.128	0.104
-687.339	-125.002	-0.120	-0.019
-686.324	25.910	-0.152	0.130
-685.310	-52.098	-0.123	-0.059
-684.295	-158.780	0.220	-0.013
-683.281	-73.684	-0.248	0.092
-682.266	264.505	-0.138	0.246
-681.251	693.009	0.095	0.256
-680.237	-200.000	-0.046	-0.320
-679.222	700.393	0.085	-0.228
-678.208	-24.207	0.251	-0.153
-677.193	800.000	0.097	-0.374
-676.178	359.702	0.130	0.266
-675.164	234.559	0.089	0.150
-674.149	-200.000	0.008	-0.100
-673.135	-62.940	0.174	-0.074
-672.120	-42.510	0.204	-0.106
-671.105	-134.096	0.090	0.011
-670.091	-200.000	0.036	0.259
-669.076	130.732	-0.113	0.148
-668.062	125.930	0.138	-0.178
-667.047	-109.351	0.380	-0.082
-666.032	-69.288	-0.423	0.166
-665.018	425.195	-0.018	0.039
-664.003	-200.000	0.011	0.170
-662.989	-108.077	-0.283	0.063
-661.974	-59.391	0.435	-0.192
-660.959	-200.000	0.039	-0.240
-659.945	-200.000	-0.006	0.035
-658.930	-117.682	0.290	0.053
-657.916	800.000	-0.063	-0.225
-656.901	-200.000	0.026	-0.255
-655.886	800.000	-0.063	-0.259
-654.872	-68.262	0.254	-0.101
-653.857	-200.000	0.006	-0.126
-652.843	-115.704	0.119	0.023
-651.828	-138.416	-0.359	-0.040
-650.814	800.000	-0.053	0.238
-649.799	52.767	0.366	-0.358
-648.784	82.347	-0.256	0.284
-647.770	30.304	-0.159	0.139
-646.755	-193.179	-0.338	-0.003
-645.741	-98.621	0.137	0.036
-644.726	-50.148	-0.079	-0.038
-643.711	-75.650	-0.135	-0.049
-642.697	-17.331	0.241	0.155
-641.682	-200.000	-0.026	-0.350
-640.668	-146.036	0.518	0.047
-639.653	-146.253	-0.362	-0.032
-638.638	-200.000	-0.067	-0.308
-637.624	-81.800	-0.258	0.086
-636.609	120.062	-0.150	-0.191
-635.595	-161.420	0.310	0.016
-634.580	-200.000	0.015	-0.241
-633.565	-200.000	-0.012	0.067
-632.551	14.059	-0.339	0.270
-631.536	-35.034	-0.182	-0.102
-630.522	48.569	0.230	0.220
-629.507	756.610	0.093	0.257
-628.492	-87.534	-0.149	-0.046
-627.478	-200.000	0.055	0.248
-626.463	-174.288	0.047	0.001
-625.449	-87.813	0.308	-0.095
-624.434	337.778	0.130	-0.258
-623.419	-106.606	-0.124	-0.028
-622.405	-200.000	-0.001	0.225
-621.390	-89.180	-0.168	-0.051
-620.376	-117.743	-0.124	-0.023
-619.361	44.451	-0.212	-0.199
-618.346	540.867	-0.083	0.201
-617.332	-85.873	0.063	0.020
-616.317	8.954	-0.163	0.126
-615.303	-200.000	0.033	0.164
-614.288	-130.743	-0.160	0.022
-613.273	-170.549	0.247	0.009
-612.259	-77.192	-0.122	0.043
-611.244	-41.539	-0.261	-0.137
-610.230	-200.000	0.007	-0.359
-609.215	-48.977	0.325	0.159
-608.201	-200.000	-0.015	-0.124
-607.186	-143.172	0.163	-0.016
-606.171	-114.840	0.122	-0.024
-605.157	-154.455	0.399	0.027
-604.142	46.559	0.018	-0.017
-603.128	148.137	0.118	0.162
-602.113	800.000	0.110	-0.342
-601.098	393.928	-0.008	-0.017
-600.084	800.000	0.025	-0.081
-599.069	-200.000	0.001	0.381
-598.055	557.071	-0.089	0.218
-597.040	-89.495	0.322	-0.097
-596.025	800.000	-0.016	0.063
-595.011	78.257	-0.202	0.221
-593.996	2.605	-0.272	0.201
-592.982	-41.793	-0.327	-0.171
-591.967	-188.921	-0.101	0.001
-590.952	800.000	0.039	-0.169
-589.938	800.000	-0.040	-0.162
-588.923	800.000	0.162	-0.468
-587.909	107.035	0.090	-0.109
-586.894	-1.621	-0.133	0.096
-585.879	800.000	-0.008	0.034
-584.865	800.000	-0.096	-0.347
-583.850	-200.000	-0.041	-0.289
-582.836	-200.000	0.038	-0.239
-581.821	-200.000	0.008	0.069
-580.806	-200.000	-0.017	-0.302
-579.792	17.812	0.211	-0.171
-578.777	-200.000	-0.074	-0.408
-577.763	-100.016	0.344	-0.088
-576.748	-114.792	-0.052	0.010
-575.733	-97.383	-0.384	-0.102
-574.719	241.913	0.083	-0.142
-573.704	-136.236	0.177	0.021
-572.690	-176.703	0.142	-0.004
-571.675	-172.724	-0.034	0.001
-570.661	800.000	-0.039	0.165
-569.646	81.538	-0.138	-0.152
-568.631	775.033	0.136	-0.378
-567.617	-124.634	0.195	0.031
-566.602	-178.972	0.251	-0.006
-565.588	-200.000	-0.027	-0.377
-564.573	-57.055	-0.131	-0.059
-563.558	4.054	0.147	0.109
-562.544	800.000	-0.055	-0.207
-561.529	382.477	0.126	-0.264
-560.515	-28.122	0.138	0.081
-559.500	164.241	-0.078	-0.112
-558.485	-33.707	0.130	0.073
-557.471	-200.000	0.030	-0.315
-556.456	-200.000	-0.019	0.132
-555.442	-128.093	-0.009	-0.001
-554.427	-29.085	0.044	-0.025
-553.412	-200.000	-0.031	0.223
-552.398	505.632	-0.064	0.152
-551.383	-163.244	-0.205	-0.010
-550.369	-74.132	-0.045	0.017
-549.354	-6.951	0.292	-0.202
-548.339	88.501	-0.079	-0.089
-547.325	-200.000	0.029	0.207
-546.310	214.903	0.073	-0.118
-545.296	94.473	-0.036	-0.042
-544.281	335.630	0.120	0.236
-543.266	800.000	0.094	-0.329
-542.252	771.346	-0.087	-0.242
-541.237	-33.580	-0.193	0.109
-540.223	800.000	-0.132	-0.382
-539.208	-200.000	-0.013	-0.128
-538.193	-112.579	-0.297	0.060
-537.179	35.164	-0.214	0.191
-536.164	-100.142	-0.254	-0.064
-535.150	-49.469	0.152	0.074
-534.135	800.000	-0.022	-0.082
-533.121	20.317	0.183	-0.151
-532.106	-200.000	0.001	-0.077
-531.091	-36.210	0.336	0.185
-530.077	-67.123	-0.261	0.105
-529.062	528.027	0.059	0.142
-528.048	232.133	-0.123	0.205
-527.033	800.000	-0.079	0.318
-526.018	-113.325	-0.219	0.044
-525.004	97.542	-0.099	0.116
-523.989	-200.000	-0.006	0.243
-522.975	625.438	-0.125	0.322
-521.960	-200.000	0.061	0.283
-520.945	-41.211	0.263	-0.138
-519.931	171.079	0.118	-0.173
-518.916	-169.284	-0.606	0.023
-517.902	43.872	-0.249	-0.232
-516.887	800.000	0.016	0.064
-515.872	800.000	-0.068	0.299
-514.858	737.140	-0.067	0.184
-513.843	-112.669	-0.291	0.059
-512.829	-200.000	-0.002	0.026
-511.814	413.459	-0.134	0.290
-510.799	-43.727	0.206	0.106
-509.785	-73.785	0.182	-0.067
-508.770	800.000	-0.047	-0.186
-507.756	-40.232	-0.354	0.187
-506.741	-200.000	-0.070	0.381
-505.726	31.289	0.173	-0.151
-504.712	709.166	0.133	-0.356
-503.697	173.283	0.085	0.125
-502.683	-26.277	-0.271	0.162
-501.668	800.000	-0.064	-0.237
-500.653	253.421	-0.035	0.061
-499.639	214.664	-0.283	-0.455
-498.624	400.775	-0.101	-0.215
-497.610	-30.143	-0.391	-0.226
-496.595	-88.442	-0.202	-0.061
-495.581	788.496	-0.038	0.105
-494.566	-38.826	-0.060	-0.032
-493.551	-27.555	0.342	0.202
-492.537	-47.927	-0.136	-0.067
-491.522	800.000	-0.088	0.269
-490.508	199.951	-0.124	0.193
-489.493	-200.000	-0.026	-0.311
-488.478	-63.929	0.058	-0.024
-487.464	-173.654	-0.199	-0.006
-486.449	-173.590	-0.310	-0.009
-485.435	405.462	-0.085	0.182
-484.420	-200.000	0.006	0.057
-483.405	-4.830	0.284	0.199
-482.391	38.982	-0.217	0.197
-481.376	-45.231	-0.210	0.106
-480.362	-75.070	-0.077	-0.028
-479.347	658.002	0.136	-0.355
-478.332	-124.471	0.335	0.053
-477.318	-131.849	-0.139	-0.019
-476.303	-200.000	0.017	0.118
-475.289	396.151	0.134	-0.284
-474.274	-174.870	0.173	0.005
-473.259	351.677	0.079	0.158
-472.245	-57.411	0.075	0.033
-471.230	-200.000	-0.014	-0.425
-470.216	-83.173	0.167	0.054
-469.201	38.551	0.093	-0.084
-468.186	-80.673	-0.177	0.060
-467.172	469.813	0.071	0.161
-466.157	249.683	-0.129	0.221
-465.143	-127.971	0.377	-0.055
-464.128	-200.000	0.020	0.173
-463.113	-200.000	-0.003	-0.125
-462.099	-200.000	-0.074	-0.351
-461.084	-200.000	-0.022	0.143
-460.070	-200.000	0.005	0.064
-459.055	7.619	-0.175	-0.133
-458.040	10.484	-0.045	0.035
-457.026	-148.816	0.092	0.008
-456.011	26.682	-0.067	0.057
-454.997	128.821	-0.074	-0.095
-453.982	-175.479	-0.148	-0.004
-452.968	389.765	0.103	0.217
-451.953	-200.000	-0.056	0.516
-450.938	456.357	-0.205	-0.461
-449.924	-148.287	0.333	-0.028
-448.909	800.000	-0.119	-0.352
-447.895	131.571	0.032	-0.042
-446.880	53.891	0.189	0.185
-445.865	-25.810	0.113	0.068
-444.851	-51.074	0.149	-0.071
-443.836	218.657	0.088	0.142
-442.822	185.549	-0.197	0.297
-441.807	-100.661	-0.047	-0.012
-440.792	-58.382	0.310	0.137
-439.778	-200.000	-0.050	-0.566
-438.763	-151.703	0.117	-0.009
-437.749	-92.331	0.327	-0.094
-436.734	-142.856	0.227	0.022
-435.719	498.883	-0.133	0.310
-434.705	183.348	-0.139	0.208
-433.690	-10.940	0.136	0.091
-432.676	-64.710	-0.075	0.031
-431.661	78.269	0.125	0.135
-430.646	180.890	0.126	0.188
-429.632	-99.515	-0.419	-0.107
-428.617	-52.778	0.422	-0.197
-427.603	-102.258	-0.044	-0.011
-426.588	-133.196	0.006	0.001
-425.573	-28.427	-0.059	0.035
-424.559	137.575	0.067	-0.089
-423.544	-23.540	0.240	0.146
-422.530	-200.000	-0.026	0.210
-421.515	292.954	0.191	-0.354
-420.500	47.569	0.217	0.205
-419.486	-200.000	-0.001	0.221
-418.471	-52.142	0.076	-0.036
-417.457	-44.357	0.071	-0.036
-416.442	800.000	-0.048	-0.145
-415.428	-116.458	-0.194	0.036
-414.413	800.000	-0.064	0.261
-413.398	-2.336	0.128	-0.091
-412.384	135.396	-0.161	-0.213
-411.369	291.989	-0.185	0.341
-410.355	371.244	-0.067	-0.137
-409.340	-200.000	-0.008	0.177
-408.325	-200.000	-0.024	-0.513
-407.311	122.963	-0.150	-0.190
-406.296	379.936	0.039	0.081
-405.282	273.840	-0.248	0.444
-404.267	142.719	0.244	-0.329
-403.252	-61.936	-0.155	0.065
-402.238	203.389	-0.074	-0.116
-401.223	429.799	0.199	0.437
-400.209	201.960	0.248	0.387
-399.194	63.591	-0.049	-0.050
-398.179	-44.008	0.235	0.119
-397.165	-71.831	0.149	0.056
-396.150	77.891	-0.023	0.024
-395.136	-82.206	-0.223	-0.074
-394.121	-109.253	0.288	-0.062
-393.106	-200.000	-0.041	-0.445
-392.092	800.000	-0.066	0.187
-391.077	34.408	0.156	-0.138
-390.063	309.603	-0.100	-0.190
-389.048	-82.648	0.128	-0.042
-388.033	596.114	-0.126	-0.315
-387.019	-96.132	-0.099	-0.027
-386.004	244.813	0.074	-0.126
-384.990	46.641	-0.366	0.344
-383.975	235.841	0.142	0.237
-382.960	-125.028	0.178	0.028
-381.946	24.493	-0.140	0.117
-380.931	-79.291	-0.088	0.030
-379.917	-200.000	0.011	-0.092
-378.902	-200.000	0.032	-0.306
-377.888	182.966	-0.044	0.066
-376.873	-132.093	0.336	-0.044
-375.858	756.200	0.075	-0.206
-374.844	-118.237	-0.308	-0.055
-373.829	420.798	0.057	0.124
-372.815	-200.000	0.035	-0.494
-371.800	-200.000	0.046	-0.258
-370.785	-200.000	-0.017	-0.083
-369.771	301.869	-0.140	0.262
-368.756	-12.797	0.342	-0.226
-367.742	-178.000	0.186	0.004
-366.727	-200.000	0.043	0.347
-365.712	-200.000	0.068	0.521
-364.698	-200.000	-0.023	0.116
-363.683	-117.665	0.086	0.016
-362.669	48.552	-0.010	-0.009
-361.654	-101.769	-0.070	-0.017
-360.639	800.000	-0.040	-0.125
-359.625	624.516	-0.043	-0.111
-358.610	288.522	0.159	-0.290
-357.596	51.065	-0.209	0.200
-356.581	-57.647	0.209	-0.093
-355.566	136.595	0.056	-0.074
-354.552	34.321	0.227	0.200
-353.537	-9.301	-0.357	-0.241
-352.523	324.639	0.042	-0.080
-351.508	48.855	0.101	0.096
-350.493	-200.000	-0.008	-0.035
-349.479	-39.813	-0.193	0.102
-348.464	-40.699	-0.276	0.145
-347.450	-41.373	-0.181	0.094
-346.435	800.000	-0.087	0.245
-345.420	-200.000	-0.032	0.200
-344.406	-50.881	0.052	-0.025
-343.391	800.000	0.070	-0.254
-342.377	27.354	-0.070	0.059
-341.362	13.922	0.358	-0.281
-340.348	787.107	0.128	0.355
-339.333	-99.728	0.144	-0.036
-338.318	-40.488	0.303	0.159
-337.304	-81.075	0.226	0.076
-336.289	0.902	-0.240	-0.174
-335.275	-19.530	-0.084	-0.052
-334.260	-104.850	-0.168	-0.039
-333.245	134.591	-0.110	0.145
-332.231	-175.713	-0.308	0.008
-331.216	315.915	-0.074	0.141
-330.202	-81.852	0.302	-0.100
-329.187	-200.000	0.074	0.398
-328.172	-87.329	-0.196	-0.060
-327.158	-200.000	0.021	0.376
-326.143	136.563	0.060	0.079
-325.129	-200.000	0.012	-0.130
-324.114	-29.553	0.102	0.059
-323.099	-185.726	0.263	-0.004
-322.085	-37.811	0.459	-0.247
-321.070	800.000	-0.105	0.351
-320.056	332.776	0.223	0.435
-319.041	518.546	-0.058	-0.138
-318.026	800.000	-0.044	-0.140
-317.012	-40.772	0.109	-0.057
-315.997	124.875	-0.011	0.013
-314.983	50.326	0.254	0.242
-313.968	370.341	-0.046	0.095
-312.953	-200.000	0.042	0.278
-311.939	-200.000	0.012	0.242
-310.924	-14.453	-0.273	-0.177
-309.910	-199.884	-0.223	-0.001
-308.895	-154.674	0.212	-0.014
-307.880	-53.500	-0.098	0.045
-306.866	-128.270	-0.019	0.003
-305.851	12.491	0.295	-0.230
-304.837	-20.410	0.293	0.182
-303.822	71.739	-0.093	-0.097
-302.807	118.916	-0.102	0.127
-301.793	-200.000	-0.049	-0.307
-300.778	102.581	0.132	-0.156
-299.764	-15.074	0.085	-0.055
-298.749	13.794	-0.252	-0.198
-297.735	584.129	-0.082	0.203
-296.720	471.622	0.096	0.218
-295.705	192.640	0.197	-0.300
-294.691	-27.096	-0.237	0.140
-293.676	800.000	0.069	0.247
-292.662	-200.000	0.021	0.133
-291.647	52.524	-0.179	0.172
-290.632	216.708	0.067	0.107
-289.618	318.534	-0.126	-0.241
-288.603	800.000	-0.027	0.095
-287.589	51.092	0.072	-0.069
-286.574	-9.322	-0.274	0.185
-285.559	64.593	0.343	0.349
-284.545	26.599	0.221	-0.187
-283.530	550.592	-0.106	0.257
-282.516	-41.394	-0.094	0.049
-281.501	-135.318	-0.099	-0.012
-280.486	212.560	0.047	0.075
-279.472	-29.575	-0.160	-0.092
-278.457	-200.000	-0.039	0.257
-277.443	-97.373	-0.266	-0.070
-276.428	81.980	0.229	0.250
-275.413	622.805	0.093	-0.235
-274.399	767.035	-0.061	-0.166
-273.384	-200.000	-0.071	0.405
-272.370	-74.809	0.261	0.094
-271.355	-198.756	0.149	-0.001
-270.340	68.939	0.198	-0.205
-269.326	-35.821	-0.098	-0.053
-268.311	208.443	-0.107	0.169
-267.297	-34.513	-0.270	0.149
-266.282	-103.454	0.157	-0.037
-265.267	180.919	-0.210	0.311
-264.253	28.115	0.175	0.149
-263.238	-57.718	0.313	-0.138
-262.224	107.510	-0.276	-0.331
-261.209	132.642	0.164	-0.214
-260.195	-28.570	0.007	-0.004
-259.180	66.798	-0.037	0.038
-258.165	-142.430	-0.543	-0.054
-257.151	-200.000	-0.013	0.325
-256.136	800.000	-0.063	0.246
-255.122	-200.000	0.039	-0.184
-254.107	-53.241	-0.123	0.057
-253.092	-41.343	0.615	0.319
-252.078	-111.363	0.144	-0.030
-251.063	-130.293	0.443	-0.061
-250.049	145.306	0.141	0.190
-249.034	50.234	0.108	0.102
-248.019	800.000	-0.090	-0.258
-247.005	328.341	0.145	-0.280
-245.990	-123.915	0.115	0.018
-244.976	800.000	0.065	0.211
-243.961	-200.000	-0.013	-0.152
-242.946	289.228	-0.053	0.097
-241.932	-87.288	-0.363	0.111
-240.917	8.276	-0.418	0.316
-239.903	-45.348	0.273	-0.136
-238.888	-14.771	0.087	-0.056
-237.873	-4.707	-0.295	-0.205
-236.859	-200.000	-0.031	-0.219
-235.844	25.140	0.078	0.065
-234.830	218.241	-0.036	-0.057
-233.815	212.872	0.050	0.079
-232.800	800.000	-0.098	-0.334
-231.786	-200.000	0.010	-0.057
-230.771	-67.148	0.191	0.076
-229.757	290.512	-0.061	-0.112
-228.742	-200.000	0.014	-0.197
-227.727	-200.000	-0.003	0.159
-226.713	800.000	-0.065	-0.180
-225.698	-200.000	0.030	-0.291
-224.684	273.186	-0.163	-0.290
-223.669	562.028	0.141	0.344
-222.655	-200.000	0.237	0.001
-221.640	800.000	-0.027	0.089
-220.625	169.145	0.124	-0.178
-219.611	5.924	-0.098	-0.073
-218.596	105.202	-0.091	-0.108
-217.582	-128.474	-0.143	-0.020
-216.567	-107.004	-0.425	-0.095
-215.552	-72.663	-0.180	-0.067
-214.538	-200.000	-0.021	-0.138
-213.523	652.502	-0.022	0.058
-212.509	75.633	-0.125	0.133
-211.494	9.781	-0.129	0.098
-210.479	-35.961	0.214	-0.117
-209.465	800.000	-0.043	-0.164
-208.450	-200.000	0.004	-0.106
-207.436	26.301	-0.143	0.120
-206.421	588.400	0.118	-0.293
-205.406	-41.479	-0.165	0.085
-204.392	165.701	-0.023	-0.032
-203.377	136.654	-0.073	0.096
-202.363	121.666	0.095	-0.119
-201.348	113.055	0.041	-0.050
-200.333	-81.797	-0.158	0.052
-199.319	335.884	0.103	-0.201
-198.304	-71.092	0.225	0.085
-197.290	242.366	-0.082	0.138
-196.275	-200.000	-0.010	-0.278
-195.260	176.891	-0.021	0.030
-194.246	-80.591	0.313	-0.105
-193.231	-43.761	0.126	0.064
-192.217	441.151	0.087	0.192
-191.202	8.499	0.197	0.149
-190.187	-31.013	0.082	0.046
-189.173	477.537	-0.059	-0.133
-188.158	473.192	0.093	0.209
-187.144	-182.105	0.164	-0.003
-186.129	-169.941	0.060	-0.002
-185.114	-17.199	0.059	0.037
-184.100	498.680	0.016	-0.038
-183.085	-200.000	-0.040	0.263
-182.071	24.432	-0.245	0.203
-181.056	-200.000	-0.018	0.529
-180.042	-200.000	0.009	-0.050
-179.027	-10.851	0.164	0.109
-178.012	138.768	-0.241	0.318
-176.998	-4.671	-0.217	0.151
-175.983	123.550	-0.176	0.222
-174.969	-135.437	-0.125	-0.015
-173.954	-200.000	0.004	-0.086
-172.939	-115.306	-0.243	-0.046
-171.925	493.665	-0.111	0.255
-170.910	-37.018	0.050	-0.027
-169.896	301.614	-0.072	-0.134
-168.881	-160.571	-0.136	0.007
-167.866	24.402	0.086	0.071
-166.852	303.905	0.157	-0.292
-165.837	-200.000	0.037	-0.344
-164.823	800.000	0.053	-0.225
-163.808	-132.380	0.037	-0.005
-162.793	-81.923	-0.178	-0.058
-161.779	348.953	0.106	-0.211
-160.764	-125.795	0.338	0.051
-159.750	-176.502	0.174	0.005
-158.735	37.569	-0.099	-0.088
-157.720	-69.149	-0.226	-0.087
-156.706	-104.519	-0.152	-0.035
-155.691	-200.000	-0.057	0.000
-154.677	70.351	-0.174	-0.180
-153.662	215.023	-0.133	-0.211
-152.647	-67.072	0.172	-0.068
-151.633	-145.040	0.186	0.017
-150.618	800.000	0.036	0.118
-149.604	800.000	-0.042	0.147
-148.589	-176.114	0.354	0.009
-147.574	156.534	-0.183	0.253
-146.560	188.069	-0.210	0.314
-145.545	28.531	0.083	0.070
-144.531	51.319	-0.167	-0.159
-143.516	-137.165	0.178	0.020
-142.502	4.020	-0.159	-0.116
-141.487	800.000	-0.049	0.162
-140.472	50.836	0.130	-0.124
-139.458	-200.000	-0.013	-0.144
-138.443	224.144	0.118	0.191
-137.429	511.445	0.105	0.245
-136.414	-78.856	0.259	0.089
-135.399	-200.000	-0.049	-0.217
-134.385	103.797	0.210	0.247
-133.370	288.122	0.129	0.234
-132.356	-200.000	-0.015	0.124
-131.341	77.411	0.033	-0.035
-130.326	-200.000	0.049	0.244
-129.312	145.313	0.076	0.102
-128.297	800.000	-0.034	-0.133
-127.283	-37.269	-0.237	-0.127
-126.268	311.235	-0.054	-0.101
-125.253	-92.407	0.237	0.067
-124.239	257.153	-0.059	-0.102
-123.224	-200.000	-0.002	-0.296
-122.210	89.099	0.074	-0.083
-121.195	-117.303	-0.069	0.013
-120.180	-78.264	0.215	-0.074
-119.166	-110.569	-0.311	0.064
-118.151	89.566	0.065	0.072
-117.137	499.242	0.055	-0.127
-116.122	198.303	0.089	0.136
-115.107	-46.214	-0.396	0.195
-114.093	-64.413	-0.215	0.088
-113.078	-40.783	0.045	-0.023
-112.064	-200.000	0.005	-0.056
-111.049	-200.000	0.026	-0.117
-110.034	-136.548	-0.230	-0.027
-109.020	-62.975	-0.070	-0.029
-108.005	-200.000	-0.062	-0.401
-106.991	230.278	0.065	-0.107
-105.976	800.000	0.098	0.325
-104.962	58.493	0.319	0.313
-103.947	-46.713	0.166	0.081
-102.932	-200.000	-0.016	-0.368
-101.918	-200.000	0.025	0.155
-100.903	800.000	-0.081	0.349
-99.889	-15.239	-0.344	0.221
-98.874	-158.550	-0.151	-0.009
-97.859	-29.082	0.159	0.091
-96.845	14.432	-0.277	-0.216
-95.830	-101.741	0.052	0.013
-94.816	800.000	0.055	0.185
-93.801	-28.419	0.369	-0.213
-92.786	237.332	-0.058	0.096
-91.772	24.976	-0.145	-0.120
-90.757	-136.289	0.052	-0.006
-89.743	115.141	0.159	0.195
-88.728	800.000	-0.011	-0.040
-87.713	201.027	-0.118	-0.182
-86.699	259.311	0.131	-0.227
-85.684	-200.000	-0.041	-0.203
-84.670	252.470	0.193	-0.330
-83.655	26.756	0.143	0.120
-82.640	-96.297	-0.147	-0.039
-81.626	75.316	-0.046	0.049
-80.611	496.536	0.126	-0.290
-79.597	319.080	0.121	-0.230
-78.582	-92.393	-0.079	-0.022
-77.567	-200.000	-0.017	-0.102
-76.553	-158.323	-0.244	-0.014
-75.538	11.461	0.091	0.070
-74.524	-53.348	-0.134	0.061
-73.509	-169.466	0.053	0.002
-72.494	717.361	0.055	0.146
-71.480	-42.227	0.185	0.094
-70.465	-200.000	-0.014	-0.096
-69.451	800.000	0.081	-0.314
-68.436	483.453	-0.019	0.042
-67.422	-92.336	0.424	-0.119
-66.407	-4.635	-0.228	0.157
-65.392	-56.361	-0.029	0.013
-64.378	-63.859	0.099	-0.041
-63.363	126.897	0.135	0.170
-62.349	17.935	0.231	0.184
-61.334	23.952	-0.720	-0.593
-60.319	483.106	0.156	0.355
-59.305	-200.000	-0.141	-0.749
-58.290	340.041	0.377	0.735
-57.276	-200.000	0.340	1.961
-56.261	-200.000	71.713	533.020
-55.246	606.946	1272.062	3169.237
-54.232	146.424	2496.373	3349.464
-53.217	115.120	2340.932	2855.136
-52.203	53.828	1960.095	1881.291
-51.188	47.592	1748.317	1629.173
-50.173	44.484	1700.732	1560.959
-49.159	58.044	1732.115	1694.704
-48.144	64.788	1751.330	1765.437
-47.130	47.279	1715.784	1596.191
-46.115	44.077	1701.537	1558.325
-45.100	43.943	1697.173	1553.238
-44.086	43.843	1694.285	1549.763
-43.071	43.807	1691.861	1547.215
-42.057	43.613	1690.282	1544.227
-41.042	43.734	1687.964	1542.973
-40.027	43.759	1685.992	1541.297
-39.013	43.729	1683.547	1538.776
-37.998	43.781	1681.999	1537.688
-36.984	43.832	1680.540	1536.681
-35.969	43.910	1679.009	1535.812
-34.954	43.939	1677.645	1534.722
-33.940	43.952	1675.511	1532.812
-32.925	44.024	1673.489	1531.440
-31.911	44.010	1671.994	1529.909
-30.896	43.907	1670.521	1527.727
-29.881	43.911	1668.837	1526.154
-28.867	43.951	1666.548	1524.299
-27.852	43.939	1665.345	1523.047
-26.838	43.856	1663.945	1521.088
-25.823	43.906	1662.686	1520.251
-24.809	43.998	1661.279	1519.591
-23.794	43.925	1659.674	1517.519
-22.779	43.999	1657.646	1516.156
-21.765	43.953	1656.100	1514.340
-20.750	43.925	1654.500	1512.605
-19.736	44.040	1652.827	1511.872
-18.721	44.024	1651.207	1510.211
-17.706	43.928	1650.046	1508.376
-16.692	43.943	1648.242	1506.777
-15.677	43.870	1647.425	1505.429
-14.663	44.018	1645.526	1504.731
-13.648	44.025	1644.308	1503.611
-12.633	43.969	1642.546	1501.529
-11.619	44.005	1641.362	1500.653
-10.604	43.923	1639.883	1498.636
-9.590	43.938	1638.287	1497.224
-8.575	44.020	1637.296	1496.869
-7.560	44.018	1635.893	1495.507
-6.546	43.994	1634.524	1494.022
-5.531	43.971	1633.576	1492.923
-4.517	43.886	1632.334	1491.108
-3.502	43.913	1631.063	1490.088
-2.487	43.928	1629.783	1488.964
-1.473	43.788	1617.973	1477.097
-0.458	41.055	1596.935	1438.111
0.556	35.815	1594.081	1395.728
1.571	32.431	1616.561	1390.335
2.586	31.459	1630.374	1394.844
3.600	27.417	1576.881	1319.730
4.615	15.129	1456.421	1135.979
5.629	3.647	1380.467	1002.447
6.644	1.401	1369.498	979.917
7.659	1.157	1368.413	977.481
8.673	1.122	1367.196	976.303
9.688	1.001	1365.582	974.284
10.702	0.893	1362.620	971.390
11.717	4.602	1370.813	1001.063
12.731	15.591	1391.514	1087.576
13.746	23.628	1405.136	1150.446
14.761	24.869	1406.231	1159.280
15.775	25.102	1405.564	1160.135
16.790	25.186	1405.073	1160.173
17.804	25.185	1404.666	1159.729
18.819	25.328	1404.495	1160.407
19.834	25.436	1403.033	1159.794
20.848	25.495	1402.579	1159.696
21.863	25.401	1402.100	1158.591
22.877	25.420	1400.879	1157.603
23.892	25.487	1399.834	1157.071
24.907	25.504	1398.925	1156.325
25.921	25.575	1397.864	1155.798
26.936	25.414	1397.498	1154.361
27.950	25.494	1396.267	1153.755
28.965	25.360	1395.424	1152.097
29.980	25.440	1393.576	1150.983
30.994	25.487	1392.018	1149.898
32.009	25.459	1391.055	1148.819
33.023	25.377	1390.215	1147.497
34.038	25.398	1388.942	1146.480
35.053	25.489	1387.670	1145.913
36.067	25.532	1386.915	1145.458
37.082	25.473	1385.676	1143.956
38.096	25.464	1385.051	1143.288
39.111	25.335	1384.684	1142.063
40.126	25.408	1383.709	1141.620
41.140	25.427	1383.156	1141.183
42.155	25.459	1382.628	1140.847
43.169	25.423	1382.734	1140.606
44.184	25.443	1382.265	1140.249
45.199	25.352	1382.164	1139.482
46.213	25.420	1381.186	1139.009
47.228	25.509	1380.225	1138.681
48.242	25.489	1379.362	1137.739
49.257	25.401	1377.989	1135.953
50.271	25.415	1376.660	1134.840
51.286	25.345	1375.455	1133.307
52.301	25.400	1374.179	1132.499
53.315	25.306	1373.225	1131.021
54.330	25.383	1372.122	1130.498
55.344	25.555	1370.169	1129.868
56.359	25.516	1369.384	1128.882
57.374	25.359	1369.253	1127.683
58.388	25.418	1368.662	1127.466
59.403	25.450	1368.256	1127.236
60.417	25.524	1366.968	1126.540
61.432	25.447	1366.625	1125.671
62.447	25.432	1366.066	1125.020
63.461	25.357	1364.783	1123.397
64.476	25.470	1363.580	1123.009
65.490	25.461	1362.244	1121.757
66.505	25.413	1361.016	1120.342
67.520	25.480	1359.743	1119.614
68.534	25.428	1358.767	1118.390
69.549	25.515	1357.416	1117.718
70.563	25.480	1356.766	1116.866
71.578	25.439	1355.872	1115.779
72.593	25.504	1355.329	1115.637
73.607	25.332	1354.923	1114.138
74.622	25.369	1353.896	1113.426
75.636	25.383	1353.181	1112.820
76.651	25.464	1352.155	1112.379
77.666	25.424	1351.880	1111.806
78.680	25.493	1351.155	1111.539
79.695	25.381	1350.694	1110.369
80.709	25.382	1349.417	1109.227
81.724	25.478	1348.652	1109.092
82.739	25.326	1348.055	1107.569
83.753	25.393	1346.873	1106.910
84.768	25.455	1345.705	1106.238
85.782	25.375	1344.705	1104.827
86.797	25.411	1343.296	1103.788
87.812	25.478	1342.132	1103.148
88.826	25.483	1341.263	1102.367
89.841	25.395	1340.398	1101.017
90.855	25.466	1338.891	1100.118
91.870	25.466	1338.222	1099.472
92.884	25.496	1337.561	1099.015
93.899	25.542	1336.374	1098.225
94.914	25.562	1335.373	1097.424
95.928	25.567	1334.854	1096.932
96.943	25.516	1334.187	1095.972
97.957	25.467	1333.604	1095.101
98.972	25.486	1332.896	1094.535
99.987	25.448	1331.960	1093.442
101.001	25.500	1330.892	1092.784
102.016	25.467	1330.181	1091.901
103.030	25.463	1329.113	1090.907
104.045	25.461	1328.267	1090.104
105.060	25.399	1327.469	1088.974
106.074	25.420	1326.713	1088.385
107.089	25.608	1324.891	1087.933
108.103	25.577	1324.002	1086.920
109.118	25.564	1323.160	1086.054
110.133	25.493	1322.133	1084.684
111.147	25.596	1320.547	1083.911
112.162	25.519	1319.694	1082.649
113.176	25.621	1318.291	1082.019
114.191	25.575	1317.652	1081.121
115.206	25.537	1316.758	1080.060
116.220	25.551	1315.781	1079.249
117.235	25.630	1314.583	1078.645
118.249	25.517	1314.178	1077.541
119.264	25.514	1313.338	1076.739
120.279	25.595	1312.034	1076.059
121.293	25.599	1311.256	1075.349
122.308	25.688	1310.187	1074.910
123.322	25.657	1309.899	1074.393
124.337	25.648	1309.334	1073.780
125.352	25.616	1308.143	1072.519
126.366	25.658	1306.762	1071.542
127.381	25.603	1306.278	1070.720
128.395	25.690	1305.525	1070.527
129.410	25.702	1304.607	1069.750
130.424	25.684	1304.185	1069.204
131.439	25.615	1303.367	1068.029
132.454	25.616	1302.711	1067.399
133.468	25.738	1301.820	1067.302
134.483	25.679	1301.236	1066.378
135.497	25.687	1299.994	1065.315
136.512	25.603	1299.675	1064.459
137.527	25.740	1297.851	1063.683
138.541	25.708	1296.847	1062.574
139.556	25.608	1295.876	1061.096
140.570	25.619	1295.222	1060.531
141.585	25.709	1293.664	1059.691
142.600	25.578	1292.967	1058.255
143.614	25.719	1292.207	1058.369
144.629	25.720	1290.793	1057.127
145.643	25.566	1289.985	1055.465
146.658	25.561	1289.172	1054.680
147.673	25.630	1288.108	1054.120
148.687	25.542	1287.011	1052.610
149.702	25.577	1285.740	1051.685
150.716	25.383	1285.418	1050.194
151.731	25.557	1284.196	1050.115
152.746	25.616	1282.583	1049.048
153.760	25.624	1281.813	1048.372
154.775	25.656	1280.497	1047.393
155.789	25.580	1279.865	1046.336
156.804	25.611	1278.735	1045.506
157.819	25.597	1277.950	1044.687
158.833	25.611	1277.373	1044.206
159.848	25.641	1276.293	1043.401
160.862	25.669	1275.751	1043.029
161.877	25.663	1274.952	1042.247
162.892	25.606	1273.836	1040.912
163.906	25.702	1273.708	1041.276
164.921	25.768	1272.927	1040.923
165.935	25.748	1271.808	1039.802
166.950	25.666	1271.475	1038.966
167.964	25.702	1270.792	1038.524
168.979	25.637	1269.937	1037.357
169.994	25.639	1269.547	1036.957
171.008	25.688	1268.652	1036.419
172.023	25.780	1268.229	1036.510
173.037	25.618	1267.785	1035.123
174.052	25.835	1266.395	1035.142
175.067	25.728	1265.314	1033.552
176.081	25.713	1264.772	1032.936
177.096	25.658	1264.211	1032.067
178.110	25.746	1263.047	1031.534
179.125	25.753	1262.182	1030.776
180.140	25.783	1261.505	1030.301
181.154	25.685	1260.418	1028.760
182.169	25.813	1258.527	1027.857
183.183	25.781	1257.664	1026.881
184.198	25.650	1256.931	1025.446
185.213	25.836	1256.000	1025.654
186.227	25.734	1255.305	1024.413
187.242	25.802	1254.278	1023.870
188.256	25.864	1253.544	1023.536
189.271	25.804	1252.377	1022.153
190.286	25.744	1252.366	1021.709
191.300	25.787	1251.351	1021.036
192.315	25.823	1250.843	1020.738
193.329	25.874	1250.606	1020.738
194.344	25.977	1249.787	1020.563
195.359	25.819	1249.790	1019.584
196.373	25.763	1249.221	1018.713
197.388	25.768	1248.732	1018.249
198.402	25.801	1248.152	1017.873
199.417	25.828	1247.838	1017.680
200.432	25.853	1247.097	1017.127
201.446	25.783	1246.307	1015.998
202.461	25.831	1245.517	1015.537
203.475	25.901	1244.869	1015.312
204.490	25.853	1243.872	1014.137
205.504	25.738	1242.927	1012.632
206.519	25.795	1242.190	1012.260
207.534	25.940	1241.093	1012.090
208.548	25.873	1240.255	1010.941
209.563	25.836	1239.260	1009.834
210.577	25.842	1238.819	1009.418
211.592	25.901	1237.756	1008.797
212.607	25.906	1236.866	1008.009
213.621	25.957	1236.120	1007.598
214.636	25.929	1235.481	1006.827
215.650	25.962	1234.618	1006.221
216.665	25.949	1233.707	1005.319
217.680	25.835	1232.730	1003.799
218.694	25.861	1231.949	1003.218
219.709	25.890	1231.307	1002.765
220.723	25.885	1230.854	1002.283
221.738	25.968	1230.031	1001.983
222.753	25.914	1229.170	1000.891
223.767	25.941	1228.307	1000.250
224.782	25.969	1228.105	1000.154
225.796	26.093	1227.430	1000.204
226.811	25.889	1227.247	998.837
227.826	26.033	1226.274	998.751
228.840	26.029	1225.976	998.402
229.855	25.980	1225.330	997.516
230.869	26.060	1224.049	996.827
231.884	26.072	1223.450	996.312
232.899	26.017	1222.775	995.375
233.913	26.058	1222.237	995.076
234.928	26.136	1221.965	995.195
235.942	26.155	1221.046	994.464
236.957	26.051	1220.650	993.478
237.972	25.988	1219.770	992.331
238.986	26.046	1219.144	992.049
240.001	26.117	1218.681	991.975
241.015	26.164	1217.721	991.365
242.030	26.208	1217.013	990.941
243.045	26.158	1216.176	989.900
244.059	26.187	1215.418	989.354
245.074	26.200	1214.951	988.957
246.088	26.249	1213.759	988.169
247.103	26.205	1212.956	987.184
248.117	26.145	1212.336	986.267
249.132	26.220	1211.749	986.110
250.147	26.317	1210.896	985.858
251.161	26.221	1210.125	984.620
252.176	26.161	1209.826	983.961
253.190	26.219	1209.135	983.629
254.205	26.151	1208.605	982.741
255.220	26.336	1207.578	982.825
256.234	26.255	1207.310	982.081
257.249	26.289	1206.336	981.387
258.263	26.269	1205.790	980.743
259.278	26.317	1205.163	980.409
260.293	26.323	1204.790	980.053
261.307	26.313	1204.179	979.414
262.322	26.366	1203.701	979.226
263.336	26.269	1203.047	978.083
264.351	26.349	1202.589	978.054
265.366	26.368	1201.679	977.334
266.380	26.400	1201.357	977.158
267.395	26.322	1200.575	976.014
268.409	26.384	1199.539	975.418
269.424	26.218	1199.465	974.379
270.439	26.392	1198.975	974.830
271.453	26.430	1197.836	974.020
272.468	26.211	1197.787	972.717
273.482	26.355	1196.359	972.247
274.497	26.393	1196.081	972.135
275.512	26.402	1195.523	971.647
276.526	26.486	1194.790	971.413
277.541	26.445	1194.239	970.660
278.555	26.490	1193.700	970.377
279.570	26.408	1193.085	969.356
280.585	26.520	1191.735	968.774
281.599	26.469	1191.237	968.005
282.614	26.427	1190.496	967.093
283.628	26.472	1189.267	966.253
284.643	26.460	1188.577	965.540
285.657	26.475	1187.664	964.794
286.672	26.532	1186.712	964.238
287.687	26.496	1185.972	963.361
288.701	26.529	1185.750	963.270
289.716	26.606	1184.619	962.677
290.730	26.512	1183.981	961.572
291.745	26.528	1183.525	961.202
292.760	26.662	1182.816	961.252
293.774	26.652	1182.473	960.834
294.789	26.605	1181.912	960.047
295.803	26.658	1181.035	959.531
296.818	26.721	1180.225	959.120
297.833	26.568	1180.068	958.096
298.847	26.654	1178.830	957.462
299.862	26.602	1178.543	956.869
300.876	26.588	1178.262	956.482
301.891	26.646	1177.128	955.787
302.906	26.686	1176.495	955.399
303.920	26.840	1175.356	955.200
304.935	26.767	1174.895	954.354
305.949	26.737	1174.375	953.689
306.964	26.650	1174.012	952.854
307.979	26.814	1173.032	952.836
308.993	26.833	1172.488	952.410
310.008	26.846	1171.595	951.665
311.022	26.815	1170.945	950.891
312.037	26.743	1170.669	950.205
313.052	26.756	1169.694	949.398
314.066	26.829	1168.045	948.360
315.081	26.772	1167.929	947.885
316.095	26.789	1167.345	947.413
317.110	26.779	1166.410	946.521
318.125	26.867	1166.128	946.666
319.139	26.760	1165.523	945.530
320.154	26.810	1164.843	945.156
321.168	26.861	1164.526	945.083
322.183	26.842	1163.598	944.150
323.197	26.834	1163.057	943.582
324.212	26.822	1162.489	942.974
325.227	26.833	1162.346	942.835
326.241	26.921	1161.561	942.573
327.256	26.880	1160.855	941.701
328.270	26.970	1159.879	941.294
329.285	27.016	1158.935	940.681
330.300	26.888	1158.298	939.420
331.314	27.029	1157.538	939.450
332.329	27.030	1156.174	938.265
333.343	26.999	1155.983	937.866
334.358	26.978	1155.545	937.318
335.373	27.059	1154.593	936.882
336.387	27.097	1153.770	936.326
337.402	27.075	1153.338	935.783
338.416	27.018	1152.559	934.772
339.431	27.134	1151.810	934.677
340.446	27.162	1151.036	934.113
341.460	27.138	1150.501	933.473
342.475	27.192	1149.673	932.996
343.489	27.146	1149.037	932.161
344.504	27.173	1147.843	931.248
345.519	27.129	1147.388	930.569
346.533	27.202	1146.584	930.209
347.548	27.255	1145.834	929.789
348.562	27.150	1145.308	928.745
349.577	27.086	1144.858	927.972
350.592	27.102	1144.140	927.387
351.606	27.055	1143.427	926.490
352.621	27.147	1143.062	926.581
353.635	27.152	1141.974	925.639
354.650	27.059	1141.704	924.867
355.665	27.168	1141.012	924.780
356.679	27.320	1140.248	924.850
357.694	27.297	1139.826	924.309
358.708	27.347	1138.793	923.644
359.723	27.164	1138.802	922.642
360.738	27.212	1137.808	921.995
361.752	27.221	1136.952	921.265
362.767	27.349	1136.587	921.539
363.781	27.368	1136.091	921.153
364.796	27.331	1135.408	920.327
365.810	27.422	1134.957	920.339
366.825	27.422	1134.223	919.665
367.840	27.478	1133.677	919.423
368.854	27.402	1133.055	918.456
369.869	27.323	1132.593	917.599
370.883	27.402	1131.571	917.089
371.898	27.501	1131.091	917.117
372.913	27.501	1130.417	916.490
373.927	27.513	1129.710	915.896
374.942	27.542	1129.317	915.642
375.956	27.560	1128.585	915.059
376.971	27.482	1128.111	914.200
377.986	27.471	1127.771	913.790
379.000	27.556	1127.403	913.836
380.015	27.574	1126.717	913.290
381.029	27.509	1126.163	912.434
382.044	27.568	1125.316	911.965
383.059	27.574	1124.804	911.495
384.073	27.678	1124.297	911.524
385.088	27.530	1123.287	909.888
386.102	27.575	1122.498	909.392
387.117	27.592	1121.414	908.520
388.132	27.507	1120.573	907.330
389.146	27.631	1119.689	907.151
390.161	27.614	1119.181	906.578
391.175	27.728	1118.425	906.451
392.190	27.627	1118.035	905.552
393.205	27.620	1117.125	904.703
394.219	27.664	1116.569	904.390
395.234	27.709	1115.782	903.896
396.248	27.711	1114.733	902.976
397.263	27.850	1113.574	902.644
398.278	27.707	1113.590	901.867
399.292	27.771	1113.030	901.651
400.307	27.843	1112.095	901.170
401.321	27.771	1111.599	900.335
402.336	27.707	1111.150	899.574
403.350	27.881	1110.360	899.715
404.365	27.969	1109.477	899.348
405.380	27.906	1108.835	898.439
406.394	27.896	1108.304	897.880
407.409	27.876	1107.255	896.856
408.423	27.951	1106.769	896.749
409.438	27.963	1106.288	896.340
410.453	28.004	1105.443	895.774
411.467	27.944	1104.755	894.846
412.482	27.989	1103.953	894.337
413.496	27.997	1103.300	893.767
414.511	28.018	1102.419	893.079
415.526	27.939	1102.277	892.497
416.540	28.009	1101.755	892.337
417.555	27.878	1101.667	891.549
418.569	28.063	1100.736	891.617
419.584	28.084	1100.236	891.235
420.599	28.047	1100.137	890.898
421.613	76.566	1278.754	1301.354
422.628	71.712	1304.801	1301.491
