DTS Sentinel unit serial number:	SN413079Multiplexer serial number:	ORYXHardware model number:	OX4-SRSoftware version number:	ORYX F/W v4.00 Oryx Data Collector v3.7.2.0data status	okinstallation	princeton_trtdifferential loss correction	single-endedforward channel	channel 2reverse channel	N/Adate	2019/09/12time	00:41:11forward acquisition time	60.00reverse acquisition time	0.00gamma	496.2192k internal	0.2325k external	0.2325temperature offset calibration	1.0090default loss term (dB/km)	0.3790temperature slope calibration	1.0000multiplexer offset coefficient	1.0000multiplexer slope coefficient	1.0000fibre end	0.00T internal ref (°C)	33.31T ext. ref 1 (°C)	2.09T ext. ref 2 (°C)	28.02length (m)	temperature (°C)	Stokes	anti-Stokes-747.200	427.481	-0.030	-0.065
-746.185	277.739	0.204	0.366
-745.171	-169.677	0.339	-0.012
-744.156	-163.981	0.089	0.004
-743.142	-200.000	0.013	-0.162
-742.127	-85.531	0.161	0.051
-741.112	692.249	0.103	-0.272
-740.098	23.473	0.220	0.182
-739.083	49.625	0.121	0.115
-738.069	17.847	-0.224	0.180
-737.054	393.783	-0.095	-0.199
-736.039	574.864	0.097	0.239
-735.025	-24.343	0.310	0.186
-734.010	-200.000	0.026	0.298
-732.996	44.370	0.306	-0.283
-731.981	-151.329	0.119	0.009
-730.966	-75.034	-0.124	-0.045
-729.952	-91.295	-0.218	-0.063
-728.937	-60.625	-0.218	0.093
-727.923	757.615	-0.054	-0.149
-726.908	286.377	-0.165	-0.300
-725.894	800.000	0.103	-0.303
-724.879	-37.234	-0.063	-0.034
-723.864	-15.315	-0.092	-0.060
-722.850	-200.000	-0.018	0.307
-721.835	151.327	0.145	-0.199
-720.821	800.000	0.013	-0.053
-719.806	-160.984	0.193	-0.010
-718.791	-126.129	-0.213	-0.032
-717.777	-200.000	0.012	0.160
-716.762	800.000	-0.118	-0.332
-715.748	-91.736	-0.364	-0.104
-714.733	800.000	0.098	-0.413
-713.718	-1.753	0.208	-0.148
-712.704	-200.000	-0.079	0.379
-711.689	532.909	0.095	0.227
-710.675	-95.722	0.203	0.055
-709.660	-113.128	0.067	0.013
-708.645	25.191	-0.250	0.209
-707.631	2.221	0.193	0.141
-706.616	-200.000	-0.013	0.115
-705.602	26.376	0.179	0.151
-704.587	721.063	-0.097	-0.259
-703.572	29.327	0.215	-0.184
-702.558	-200.000	-0.002	-0.153
-701.543	-200.000	0.068	0.689
-700.529	80.477	-0.137	0.149
-699.514	-200.000	-0.027	-0.133
-698.499	800.000	-0.150	-0.469
-697.485	800.000	0.025	0.078
-696.470	44.470	0.174	0.161
-695.456	-147.640	0.184	-0.016
-694.441	142.375	-0.143	0.192
-693.426	-93.804	-0.101	0.028
-692.412	-139.261	-0.067	-0.007
-691.397	-9.811	0.329	0.221
-690.383	103.785	-0.071	-0.084
-689.368	-200.000	0.017	-0.108
-688.354	-200.000	0.005	-0.046
-687.339	-124.300	-0.288	-0.045
-686.324	800.000	0.059	0.189
-685.310	-93.218	0.187	0.052
-684.295	800.000	0.089	0.253
-683.281	522.519	0.168	-0.397
-682.266	-145.077	-0.048	-0.004
-681.251	285.947	-0.117	-0.213
-680.237	-123.263	-0.064	-0.010
-679.222	-107.620	0.219	0.048
-678.208	-200.000	0.027	0.262
-677.193	-60.989	0.095	0.040
-676.178	-103.598	0.470	-0.111
-675.164	24.225	0.170	0.141
-674.149	800.000	-0.083	-0.238
-673.135	-200.000	0.028	-0.213
-672.120	-180.845	-0.208	-0.004
-671.105	184.575	0.141	-0.210
-670.091	-195.925	0.408	-0.003
-669.076	-57.484	0.074	-0.032
-668.062	-200.000	0.000	-0.224
-667.047	-200.000	0.046	0.251
-666.032	-40.945	0.100	-0.052
-665.018	-58.257	0.165	-0.072
-664.003	-200.000	0.037	0.263
-662.989	-114.520	-0.105	0.020
-661.974	800.000	-0.102	0.401
-660.959	-200.000	-0.043	-0.294
-659.945	-91.614	-0.217	-0.062
-658.930	434.458	0.061	0.134
-657.916	800.000	-0.019	0.081
-656.901	-70.544	-0.155	0.059
-655.886	8.769	0.108	0.082
-654.872	125.080	-0.166	0.210
-653.857	114.317	0.065	0.080
-652.843	74.823	0.088	0.093
-651.828	-131.302	0.315	-0.042
-650.814	-5.842	0.237	0.163
-649.799	-165.449	-0.168	-0.007
-648.784	-110.438	-0.224	0.047
-647.770	-85.005	-0.140	0.044
-646.755	62.923	-0.062	-0.062
-645.741	259.055	0.172	-0.298
-644.726	73.238	-0.164	-0.172
-643.711	-200.000	0.014	0.071
-642.697	-162.821	-0.078	-0.004
-641.682	-200.000	-0.024	-0.107
-640.668	-15.446	-0.037	0.023
-639.653	-191.935	0.218	0.002
-638.638	23.499	-0.188	0.156
-637.624	310.913	-0.077	-0.145
-636.609	157.179	-0.089	-0.124
-635.595	-63.570	0.291	0.120
-634.580	-200.000	0.054	0.428
-633.565	-47.361	0.239	-0.117
-632.551	-113.708	-0.130	-0.025
-631.536	-145.276	-0.221	0.020
-630.522	-69.932	-0.247	-0.095
-629.507	-65.179	0.448	-0.181
-628.492	-105.306	0.139	0.032
-627.478	169.861	0.088	-0.126
-626.463	-200.000	-0.019	0.274
-625.449	-122.514	-0.318	-0.052
-624.434	34.133	0.081	-0.071
-623.419	-41.554	-0.161	-0.083
-622.405	-146.480	0.152	-0.013
-621.390	800.000	0.034	-0.115
-620.376	9.330	-0.166	-0.126
-619.361	800.000	-0.016	0.069
-618.346	84.273	0.242	-0.266
-617.332	-54.663	-0.411	0.186
-616.317	-130.583	-0.372	-0.050
-615.303	-68.341	0.216	0.084
-614.288	377.577	0.117	0.240
-613.273	87.346	-0.197	-0.219
-612.259	28.901	-0.202	-0.172
-611.244	87.691	-0.071	0.079
-610.230	-80.440	0.365	0.122
-609.215	-200.000	0.013	-0.122
-608.201	354.735	-0.139	0.278
-607.186	-200.000	0.007	-0.063
-606.171	271.931	0.113	0.200
-605.157	-184.035	-0.200	-0.003
-604.142	-63.321	-0.359	0.148
-603.128	96.424	-0.112	0.128
-602.113	110.489	0.213	-0.257
-601.098	-109.457	0.245	-0.052
-600.084	-46.910	-0.128	-0.063
-599.069	800.000	-0.065	-0.219
-598.055	560.298	0.094	0.228
-597.040	350.657	-0.167	-0.331
-596.025	-92.840	-0.115	-0.032
-595.011	-14.331	0.304	-0.197
-593.996	-200.000	-0.019	-0.200
-592.982	-200.000	-0.089	-0.425
-591.967	-113.225	-0.345	-0.068
-590.952	-57.932	-0.443	-0.194
-589.938	800.000	0.099	-0.338
-588.923	-200.000	-0.008	-0.092
-587.909	23.733	-0.127	0.105
-586.894	-46.990	0.307	0.150
-585.879	-59.212	-0.271	0.117
-584.865	-12.083	0.026	0.017
-583.850	-35.095	0.337	0.184
-582.836	497.721	0.198	0.458
-581.821	657.283	-0.088	-0.228
-580.806	126.079	-0.083	0.106
-579.792	-178.042	0.298	-0.007
-578.777	-200.000	0.006	0.237
-577.763	415.802	0.139	-0.297
-576.748	-141.545	0.464	-0.047
-575.733	21.956	0.255	-0.208
-574.719	-122.010	-0.343	-0.056
-573.704	-163.699	-0.397	0.019
-572.690	-74.078	0.285	0.104
-571.675	800.000	0.033	-0.103
-570.661	-29.222	0.279	-0.160
-569.646	-200.000	0.017	0.000
-568.631	21.215	0.124	0.101
-567.617	800.000	0.051	0.197
-566.602	704.375	0.087	0.231
-565.588	-18.949	-0.130	-0.081
-564.573	-81.801	0.187	-0.061
-563.558	3.426	0.207	-0.151
-562.544	-28.078	-0.333	0.193
-561.529	-59.118	-0.415	0.179
-560.515	-11.526	-0.393	0.259
-559.500	56.611	0.157	-0.153
-558.485	105.275	-0.251	-0.297
-557.471	125.698	-0.187	0.237
-556.456	-128.260	0.281	0.040
-555.442	663.944	-0.054	0.140
-554.427	800.000	-0.096	0.302
-553.412	64.008	0.067	-0.067
-552.398	436.104	0.014	-0.031
-551.383	26.846	0.193	-0.162
-550.369	543.460	-0.026	0.062
-549.354	-99.479	0.245	0.062
-548.339	116.419	0.107	-0.132
-547.325	279.849	0.058	-0.103
-546.310	10.960	0.107	-0.082
-545.296	115.452	0.170	0.207
-544.281	-15.458	0.246	-0.157
-543.266	-200.000	-0.062	-0.553
-542.252	800.000	-0.027	-0.118
-541.237	58.592	-0.073	-0.072
-540.223	21.578	-0.106	0.086
-539.208	-81.284	0.386	0.128
-538.193	-45.332	-0.122	-0.061
-537.179	441.212	0.180	0.394
-536.164	-200.000	-0.009	-0.264
-535.150	-98.335	-0.397	0.102
-534.135	473.760	0.120	0.271
-533.121	-26.640	-0.094	0.055
-532.106	243.124	-0.199	-0.334
-531.091	-90.442	0.177	-0.051
-530.077	800.000	-0.079	-0.234
-529.062	800.000	-0.075	-0.232
-528.048	42.071	-0.268	-0.244
-527.033	-200.000	-0.033	0.161
-526.018	-100.602	0.198	-0.049
-525.004	-200.000	-0.000	0.053
-523.989	294.191	-0.107	-0.195
-522.975	312.052	-0.225	0.423
-521.960	-49.478	0.095	-0.045
-520.945	404.103	-0.015	0.031
-519.931	-41.162	-0.211	0.109
-518.916	-138.419	0.115	0.013
-517.902	-9.800	-0.038	-0.025
-516.887	-60.617	-0.134	-0.057
-515.872	800.000	0.067	0.233
-514.858	-31.349	-0.107	-0.060
-513.843	800.000	-0.139	-0.448
-512.829	16.652	-0.259	-0.205
-511.814	-71.223	-0.248	0.093
-510.799	-57.371	-0.159	0.070
-509.785	-109.018	0.199	0.042
-508.770	800.000	-0.048	-0.185
-507.756	242.536	0.067	-0.111
-506.741	800.000	-0.035	0.112
-505.726	-94.595	0.095	-0.026
-504.712	800.000	0.030	0.130
-503.697	57.579	0.176	-0.172
-502.683	149.163	-0.039	-0.053
-501.668	-96.135	-0.369	0.098
-500.653	-200.000	0.027	-0.180
-499.639	122.926	0.175	-0.219
-498.624	52.532	-0.141	-0.134
-497.610	-162.894	0.161	-0.008
-496.595	-162.558	0.265	0.013
-495.581	-77.627	-0.371	0.128
-494.566	-200.000	0.063	0.490
-493.551	-57.034	-0.265	-0.117
-492.537	25.896	0.195	0.162
-491.522	-39.078	0.322	0.169
-490.508	-200.000	0.031	0.155
-489.493	-183.187	0.062	0.001
-488.478	288.587	-0.141	0.256
-487.464	-35.200	0.066	-0.036
-486.449	230.318	-0.231	-0.377
-485.435	-76.212	-0.220	-0.078
-484.420	-200.000	-0.003	0.239
-483.405	92.690	0.134	0.151
-482.391	-187.874	0.378	0.005
-481.376	-200.000	-0.039	-0.398
-480.362	-136.594	-0.284	0.033
-479.347	800.000	0.085	0.235
-478.332	800.000	-0.039	0.136
-477.318	-20.230	0.405	-0.249
-476.303	153.268	0.028	0.038
-475.289	124.234	0.154	-0.194
-474.274	88.259	0.177	-0.196
-473.259	-9.349	-0.168	0.112
-472.245	-71.264	-0.149	-0.056
-471.230	-200.000	0.057	-0.269
-470.216	-8.088	-0.268	0.180
-469.201	-23.231	-0.181	0.108
-468.186	-200.000	-0.027	0.124
-467.172	-200.000	0.006	-0.095
-466.157	11.192	-0.080	-0.061
-465.143	800.000	0.095	0.315
-464.128	42.437	-0.187	-0.170
-463.113	138.199	0.062	0.081
-462.099	146.536	0.104	0.139
-461.084	-89.176	-0.197	-0.058
-460.070	423.774	0.075	-0.161
-459.055	800.000	0.024	0.075
-458.040	352.934	-0.046	0.091
-457.026	-141.683	0.109	-0.011
-456.011	589.653	-0.099	-0.243
-454.997	800.000	-0.073	0.232
-453.982	-47.581	0.116	0.056
-452.968	-55.717	-0.086	-0.038
-451.953	-200.000	0.022	-0.229
-450.938	127.616	0.110	-0.140
-449.924	-49.237	-0.336	-0.160
-448.909	-49.373	-0.247	-0.118
-447.895	800.000	0.032	-0.131
-446.880	-200.000	-0.024	0.184
-445.865	-200.000	0.004	0.326
-444.851	266.275	-0.015	0.025
-443.836	-33.403	0.172	-0.095
-442.822	800.000	0.111	-0.440
-441.807	52.546	0.173	-0.165
-440.792	-62.140	-0.227	0.094
-439.778	-99.161	-0.256	-0.064
-438.763	-200.000	0.002	0.142
-437.749	-165.372	0.206	-0.009
-436.734	176.431	0.126	-0.182
-435.719	-200.000	0.002	-0.047
-434.705	800.000	-0.117	-0.340
-433.690	800.000	-0.123	-0.483
-432.676	-54.922	0.368	-0.165
-431.661	-67.573	0.137	0.053
-430.646	-200.000	0.010	-0.050
-429.632	-200.000	0.015	-0.150
-428.617	108.900	0.176	-0.210
-427.603	-93.705	0.289	0.079
-426.588	-3.721	0.197	0.136
-425.573	-177.267	-0.311	-0.008
-424.559	191.758	-0.186	-0.279
-423.544	-3.806	-0.102	-0.071
-422.530	454.308	-0.088	0.194
-421.515	108.037	0.023	-0.027
-420.500	71.156	-0.205	0.211
-419.486	-10.871	-0.100	0.066
-418.471	460.417	0.218	-0.484
-417.457	-95.278	0.181	-0.049
-416.442	29.595	-0.228	-0.193
-415.428	-200.000	-0.051	-0.309
-414.413	-200.000	-0.003	0.075
-413.398	98.120	-0.040	0.046
-412.384	208.491	0.147	0.229
-411.369	-132.603	0.175	0.022
-410.355	-76.022	-0.037	-0.013
-409.340	54.990	0.080	0.077
-408.325	-179.600	0.305	-0.007
-407.311	616.088	-0.037	0.093
-406.296	262.410	-0.056	0.097
-405.282	-172.236	-0.055	-0.002
-404.267	190.636	-0.087	-0.130
-403.252	624.470	0.190	0.477
-402.238	-200.000	-0.006	-0.349
-401.223	-103.444	-0.089	0.021
-400.209	-83.532	0.401	0.128
-399.194	-9.720	0.065	-0.043
-398.179	-200.000	0.009	0.081
-397.165	800.000	-0.122	0.351
-396.150	332.167	-0.129	0.247
-395.136	-67.924	0.194	0.075
-394.121	-200.000	-0.004	0.088
-393.106	800.000	-0.050	-0.141
-392.092	-40.535	-0.058	0.030
-391.077	16.805	0.236	-0.186
-390.063	-200.000	-0.011	-0.143
-389.048	138.103	0.072	-0.094
-388.033	-56.502	-0.053	0.023
-387.019	-200.000	-0.002	-0.060
-386.004	-104.828	0.424	-0.097
-384.990	-106.052	-0.110	-0.025
-383.975	18.710	-0.039	-0.031
-382.960	35.422	-0.190	0.166
-381.946	10.542	-0.335	0.254
-380.931	245.443	0.054	0.091
-379.917	76.203	0.217	-0.228
-378.902	1.058	0.113	-0.081
-377.888	-158.077	0.278	-0.016
-376.873	-200.000	0.005	0.522
-375.858	85.016	0.151	0.165
-374.844	-11.820	0.220	0.143
-373.829	-123.531	0.133	0.021
-372.815	800.000	-0.065	0.256
-371.800	-115.366	0.239	0.045
-370.785	-29.668	-0.153	-0.087
-369.771	294.251	0.149	0.271
-368.756	220.470	0.069	0.111
-367.742	-200.000	-0.055	0.317
-366.727	800.000	0.124	0.349
-365.712	-200.000	0.037	0.253
-364.698	-89.087	-0.238	-0.070
-363.683	-63.878	-0.300	-0.122
-362.669	477.671	-0.101	0.227
-361.654	-200.000	0.030	0.318
-360.639	68.737	-0.205	0.209
-359.625	-155.270	-0.173	0.011
-358.610	800.000	-0.093	0.270
-357.596	-200.000	0.002	0.152
-356.581	27.492	-0.174	-0.145
-355.566	127.341	-0.054	0.068
-354.552	282.822	0.207	0.369
-353.537	-200.000	-0.009	0.153
-352.523	90.242	-0.241	-0.267
-351.508	-8.138	0.123	0.083
-350.493	-80.636	0.171	0.057
-349.479	545.969	0.021	0.050
-348.464	88.775	-0.116	0.128
-347.450	160.027	0.048	-0.066
-346.435	131.230	0.246	0.314
-345.420	800.000	0.089	0.322
-344.406	-91.718	-0.017	0.005
-343.391	-45.884	0.091	-0.044
-342.377	337.857	-0.121	0.234
-341.362	-200.000	0.014	-0.138
-340.348	95.538	0.183	0.207
-339.333	-200.000	-0.032	0.303
-338.318	73.327	-0.239	0.248
-337.304	64.723	0.123	-0.124
-336.289	-149.072	-0.241	-0.019
-335.275	800.000	-0.061	0.189
-334.260	-84.325	0.399	-0.125
-333.245	127.030	-0.254	0.320
-332.231	-79.716	0.165	-0.055
-331.216	-71.368	-0.101	0.038
-330.202	-85.780	0.124	-0.038
-329.187	-86.802	0.302	-0.092
-328.172	-200.000	-0.018	0.092
-327.158	521.225	0.123	0.287
-326.143	-200.000	0.010	-0.098
-325.129	-187.280	-0.106	-0.001
-324.114	-154.835	0.348	0.023
-323.099	108.658	-0.076	0.091
-322.085	122.640	0.050	-0.062
-321.070	-200.000	-0.309	0.000
-320.056	115.246	0.182	0.221
-319.041	424.472	-0.135	0.288
-318.026	-77.849	-0.129	-0.044
-317.012	-62.650	-0.307	0.126
-315.997	275.544	0.200	0.351
-314.983	-75.693	-0.058	-0.020
-313.968	44.034	0.196	-0.178
-312.953	800.000	0.038	-0.151
-311.939	800.000	0.109	-0.313
-310.924	-154.236	0.152	-0.010
-309.910	264.117	0.018	0.032
-308.895	734.883	0.046	0.123
-307.880	800.000	0.045	-0.141
-306.866	43.627	-0.158	0.143
-305.851	-62.676	-0.336	0.138
-304.837	-123.733	-0.394	-0.062
-303.822	117.625	-0.034	0.042
-302.807	-200.000	-0.008	0.260
-301.793	40.634	0.159	-0.142
-300.778	22.045	0.139	0.112
-299.764	-122.545	-0.321	0.052
-298.749	-33.564	-0.033	-0.018
-297.735	-160.055	0.308	0.017
-296.720	-200.000	0.013	-0.112
-295.705	-45.326	0.148	-0.073
-294.691	-24.823	-0.273	-0.161
-293.676	-121.015	0.304	-0.051
-292.662	372.042	-0.043	0.086
-291.647	-200.000	0.033	-0.204
-290.632	-200.000	0.008	0.122
-289.618	566.201	0.103	0.248
-288.603	11.691	-0.146	0.111
-287.589	37.077	-0.226	-0.199
-286.574	-67.264	-0.264	-0.103
-285.559	134.343	0.149	-0.191
-284.545	424.812	-0.137	-0.293
-283.530	23.721	-0.122	0.100
-282.516	769.847	-0.132	0.355
-281.501	558.234	-0.072	-0.173
-280.486	-200.000	-0.022	0.207
-279.472	30.616	0.146	-0.124
-278.457	287.258	-0.181	-0.324
-277.443	-178.906	0.384	0.009
-276.428	-134.062	0.163	-0.020
-275.413	-103.456	-0.248	-0.058
-274.399	177.707	-0.076	0.110
-273.384	445.976	0.090	0.197
-272.370	388.304	0.058	-0.118
-271.355	-200.000	-0.019	-0.350
-270.340	125.426	0.212	-0.265
-269.326	223.363	0.186	0.297
-268.311	-26.956	0.337	0.195
-267.297	292.429	0.122	0.221
-266.282	-18.132	-0.091	-0.056
-265.267	648.068	0.073	-0.185
-264.253	-112.612	0.095	-0.019
-263.238	-126.418	-0.151	-0.022
-262.224	-129.767	-0.058	-0.008
-261.209	28.471	-0.138	-0.116
-260.195	-76.170	-0.408	-0.143
-259.180	158.479	0.098	-0.135
-258.165	-102.731	0.091	0.022
-257.151	-148.648	0.232	-0.019
-256.136	115.764	-0.151	-0.183
-255.122	31.372	0.155	-0.132
-254.107	91.997	0.043	0.048
-253.092	-36.951	0.164	0.087
-252.078	-4.450	0.195	0.133
-251.063	-129.707	0.058	0.008
-250.049	227.763	-0.145	0.234
-249.034	241.374	-0.199	0.329
-248.019	-200.000	-0.047	0.305
-247.005	-200.000	-0.030	0.186
-245.990	-7.972	0.048	0.032
-244.976	-75.616	0.100	-0.035
-243.961	753.354	0.172	0.460
-242.946	-7.853	0.137	-0.091
-241.932	-149.611	0.042	0.003
-240.917	-101.599	-0.293	0.070
-239.903	-111.900	-0.243	0.049
-238.888	-200.000	0.004	-0.169
-237.873	-200.000	0.086	-0.486
-236.859	-128.866	0.206	-0.029
-235.844	207.190	-0.159	0.246
-234.830	172.604	0.096	-0.137
-233.815	800.000	-0.140	-0.387
-232.800	-15.736	0.068	0.043
-231.786	-43.617	0.298	-0.149
-230.771	22.345	-0.070	0.057
-229.757	30.738	0.091	0.077
-228.742	-200.000	-0.002	-0.007
-227.727	800.000	-0.034	-0.107
-226.713	-200.000	-0.004	-0.524
-225.698	-129.349	0.088	-0.012
-224.684	-79.065	-0.284	-0.095
-223.669	-5.917	-0.103	-0.069
-222.655	-60.221	-0.209	-0.088
-221.640	123.623	-0.139	0.172
-220.625	204.165	-0.027	-0.042
-219.611	800.000	0.075	-0.309
-218.596	35.295	0.271	-0.235
-217.582	401.971	-0.054	-0.113
-216.567	224.579	0.043	-0.069
-215.552	800.000	0.039	-0.126
-214.538	-22.014	0.121	-0.072
-213.523	200.390	-0.085	0.130
-212.509	333.516	-0.060	-0.114
-211.494	197.763	0.048	0.073
-210.479	-117.004	-0.233	0.042
-209.465	-200.000	-0.029	-0.271
-208.450	91.988	0.089	-0.099
-207.436	26.782	-0.228	0.189
-206.421	-44.634	0.119	0.059
-205.406	-64.115	-0.106	0.043
-204.392	-33.158	-0.076	-0.041
-203.377	-61.245	0.162	0.067
-202.363	-79.088	-0.265	0.089
-201.348	107.645	-0.133	0.156
-200.333	10.701	-0.080	-0.060
-199.319	-89.531	0.125	0.036
-198.304	286.252	0.051	-0.092
-197.290	-151.580	-0.303	0.022
-196.275	-70.850	-0.389	-0.145
-195.260	67.207	0.138	-0.139
-194.246	-81.245	0.183	0.060
-193.231	133.770	0.061	0.079
-192.217	-200.000	0.025	-0.109
-191.202	51.684	0.125	-0.118
-190.187	-110.921	0.274	-0.056
-189.173	-88.133	0.126	-0.037
-188.158	307.089	0.083	-0.152
-187.144	-19.745	0.203	0.124
-186.129	321.748	0.135	0.254
-185.114	-58.135	0.101	-0.043
-184.100	530.016	0.096	0.223
-183.085	-113.907	-0.253	-0.048
-182.071	-200.000	0.044	-0.201
-181.056	-10.031	0.196	-0.129
-180.042	-13.647	-0.136	0.087
-179.027	-200.000	0.026	0.270
-178.012	374.303	-0.083	-0.166
-176.998	142.869	-0.195	0.256
-175.983	800.000	-0.001	0.005
-174.969	500.758	0.042	-0.097
-173.954	-200.000	-0.015	-0.069
-172.939	-200.000	-0.025	-0.164
-171.925	89.651	0.079	0.086
-170.910	-88.905	0.182	0.053
-169.896	-70.007	-0.070	-0.026
-168.881	-200.000	0.038	0.222
-167.866	-46.232	-0.081	0.039
-166.852	0.871	0.206	0.145
-165.837	528.618	-0.102	0.238
-164.823	800.000	0.205	-0.659
-163.808	-200.000	0.071	-0.484
-162.793	-49.832	-0.265	0.124
-161.779	-93.025	0.146	0.040
-160.764	552.067	-0.136	0.322
-159.750	-106.491	-0.282	0.062
-158.735	330.230	-0.087	0.164
-157.720	-8.171	-0.061	-0.040
-156.706	155.573	0.136	0.184
-155.691	315.812	-0.121	-0.225
-154.677	-139.893	-0.130	0.014
-153.662	-200.000	-0.007	-0.039
-152.647	-176.472	0.369	0.009
-151.633	800.000	0.071	-0.205
-150.618	-200.000	-0.031	0.241
-149.604	-3.714	-0.207	-0.142
-148.589	5.525	0.146	-0.106
-147.574	-100.572	-0.270	0.066
-146.560	172.317	0.154	-0.219
-145.545	-200.000	-0.084	0.401
-144.531	-44.419	0.094	0.047
-143.516	-40.909	0.248	0.126
-142.502	-58.350	0.142	0.061
-141.487	800.000	0.053	-0.200
-140.472	-73.137	0.295	-0.107
-139.458	-94.088	0.346	-0.094
-138.443	-200.000	0.019	-0.317
-137.429	651.639	0.091	0.230
-136.414	-200.000	-0.043	-0.364
-135.399	-69.937	-0.336	0.126
-134.385	-119.053	-0.172	-0.030
-133.370	469.964	-0.072	-0.160
-132.356	48.411	-0.109	-0.101
-131.341	-54.690	0.282	-0.125
-130.326	-200.000	0.019	-0.221
-129.312	157.535	-0.208	-0.283
-128.297	-6.431	0.149	-0.100
-127.283	800.000	0.027	-0.110
-126.268	79.132	-0.276	0.291
-125.253	-81.945	-0.078	-0.025
-124.239	310.952	-0.111	-0.205
-123.224	110.775	0.091	-0.108
-122.210	-34.060	0.156	-0.084
-121.195	800.000	0.095	-0.265
-120.180	407.385	-0.042	-0.088
-119.166	-121.920	-0.317	-0.051
-118.151	-39.683	0.373	0.192
-117.137	-61.310	0.133	-0.055
-116.122	-127.029	0.179	0.026
-115.107	-117.394	0.435	0.078
-114.093	-69.338	0.247	0.093
-113.078	-88.263	0.162	-0.048
-112.064	184.148	0.089	-0.129
-111.049	800.000	0.039	0.153
-110.034	-6.441	-0.210	0.141
-109.020	-200.000	-0.025	-0.232
-108.005	62.647	0.143	-0.140
-106.991	-63.733	0.239	0.096
-105.976	53.830	-0.104	0.099
-104.962	-200.000	0.007	-0.122
-103.947	800.000	-0.063	-0.222
-102.932	-200.000	-0.028	0.163
-101.918	253.779	-0.071	-0.120
-100.903	-71.704	0.284	0.104
-99.889	800.000	0.088	0.266
-98.874	-71.588	-0.443	-0.163
-97.859	-200.000	-0.011	0.063
-96.845	-164.129	0.157	0.007
-95.830	-45.936	-0.273	0.133
-94.816	130.945	-0.131	-0.166
-93.801	213.996	-0.035	-0.055
-92.786	686.614	0.049	-0.127
-91.772	-87.979	-0.282	0.083
-90.757	-86.636	0.202	0.061
-89.743	-38.141	-0.137	0.071
-88.728	127.250	-0.191	-0.238
-87.713	629.051	-0.057	-0.141
-86.699	-135.565	0.034	-0.004
-85.684	-200.000	0.004	-0.164
-84.670	800.000	-0.070	0.292
-83.655	302.984	-0.084	0.152
-82.640	210.142	-0.164	0.254
-81.626	438.153	-0.125	-0.269
-80.611	316.390	0.078	0.144
-79.597	-69.973	0.100	-0.038
-78.582	116.066	0.350	-0.422
-77.567	-200.000	-0.089	0.000
-76.553	-200.000	0.017	0.135
-75.538	30.008	0.272	-0.228
-74.524	-20.739	0.281	0.170
-73.509	785.482	0.141	0.380
-72.494	-64.042	0.165	0.066
-71.480	-200.000	-0.059	0.269
-70.465	-111.002	-0.168	0.034
-69.451	800.000	-0.027	-0.083
-68.436	-76.534	-0.340	0.117
-67.422	8.353	-0.242	-0.179
-66.407	800.000	0.088	-0.351
-65.392	-200.000	-0.022	0.429
-64.378	244.382	0.171	-0.282
-63.363	-200.000	-0.003	0.343
-62.349	-200.000	0.049	-0.323
-61.334	79.557	-0.859	-0.906
-60.319	-61.077	0.585	0.243
-59.305	800.000	-0.297	-0.850
-58.290	403.236	0.510	1.054
-57.276	221.023	1.099	1.732
-56.261	-200.000	96.320	576.365
-55.246	546.959	1386.254	3257.381
-54.232	157.521	2575.931	3502.071
-53.217	105.850	2273.025	2640.928
-52.203	42.405	1895.835	1692.817
-51.188	36.718	1685.778	1462.380
-50.173	33.815	1641.589	1402.580
-49.159	51.016	1688.230	1571.562
-48.144	52.895	1704.781	1600.963
-47.130	36.149	1664.605	1439.534
-46.115	33.417	1650.100	1406.680
-45.100	33.243	1645.137	1401.102
-44.086	33.184	1642.737	1398.563
-43.071	33.175	1639.745	1395.900
-42.057	33.137	1637.370	1393.542
-41.042	33.186	1635.591	1392.331
-40.027	33.136	1633.681	1390.279
-39.013	33.123	1631.283	1388.089
-37.998	33.150	1630.238	1387.343
-36.984	33.209	1628.502	1386.247
-35.969	33.318	1627.177	1385.857
-34.954	33.428	1625.226	1384.944
-33.940	33.289	1623.684	1382.560
-32.925	33.304	1622.305	1381.445
-31.911	33.274	1620.330	1379.488
-30.896	33.388	1618.201	1378.452
-29.881	33.234	1617.171	1376.396
-28.867	33.304	1614.959	1374.967
-27.852	33.319	1613.582	1373.849
-26.838	33.335	1612.068	1372.621
-25.823	33.334	1610.182	1370.959
-24.809	33.361	1608.769	1369.893
-23.794	33.404	1607.447	1369.021
-22.779	33.330	1606.525	1367.652
-21.765	33.449	1604.424	1366.667
-20.750	33.365	1603.301	1365.050
-19.736	33.332	1601.556	1363.270
-18.721	33.415	1599.788	1362.310
-17.706	33.336	1598.958	1360.981
-16.692	33.269	1597.508	1359.214
-15.677	33.368	1595.934	1358.528
-14.663	33.283	1595.015	1357.084
-13.648	33.330	1593.210	1355.828
-12.633	33.291	1591.561	1354.094
-11.619	33.386	1590.181	1353.547
-10.604	33.313	1588.566	1351.598
-9.590	33.369	1587.179	1350.761
-8.575	33.347	1586.125	1349.656
-7.560	33.316	1584.830	1348.277
-6.546	33.304	1583.703	1347.184
-5.531	33.287	1582.869	1346.298
-4.517	33.335	1581.464	1345.391
-3.502	33.320	1580.299	1344.238
-2.487	33.453	1578.495	1343.596
-1.473	33.121	1566.896	1331.329
-0.458	30.529	1547.574	1296.804
0.556	27.629	1548.483	1267.756
1.571	25.416	1572.579	1271.723
2.586	25.081	1586.077	1280.132
3.600	22.306	1533.448	1218.358
4.615	12.706	1422.461	1068.100
5.629	3.825	1355.705	962.774
6.644	2.280	1346.951	946.909
7.659	2.158	1345.363	944.952
8.673	1.910	1344.731	942.895
9.688	2.002	1342.378	941.729
10.702	1.749	1339.337	937.953
11.717	5.464	1346.417	965.797
12.731	15.647	1366.176	1043.393
13.746	24.162	1380.392	1107.329
14.761	26.172	1382.687	1121.572
15.775	26.467	1382.874	1123.455
16.790	26.557	1382.204	1123.370
17.804	26.687	1381.606	1123.590
18.819	26.849	1381.609	1124.495
19.834	26.899	1380.681	1123.952
20.848	26.939	1380.357	1123.837
21.863	26.934	1379.525	1123.030
22.877	26.893	1378.614	1121.938
23.892	26.960	1377.841	1121.623
24.907	26.925	1376.823	1120.475
25.921	26.870	1375.706	1119.129
26.936	26.860	1374.912	1118.321
27.950	26.975	1373.922	1118.129
28.965	27.086	1372.255	1117.353
29.980	26.948	1370.864	1115.272
30.994	26.952	1369.535	1114.117
32.009	27.057	1368.655	1113.951
33.023	26.903	1367.783	1112.200
34.038	26.999	1366.607	1111.728
35.053	26.942	1365.674	1110.525
36.067	26.996	1364.629	1109.906
37.082	26.931	1363.670	1108.628
38.096	26.933	1362.830	1107.859
39.111	26.877	1362.129	1106.851
40.126	27.006	1361.129	1106.725
41.140	26.950	1360.518	1105.795
42.155	26.894	1360.877	1105.643
43.169	27.037	1360.618	1106.208
44.184	26.981	1360.052	1105.311
45.199	26.856	1360.016	1104.423
46.213	26.959	1359.438	1104.480
47.228	26.956	1358.636	1103.711
48.242	26.986	1357.128	1102.571
49.257	26.982	1355.811	1101.380
50.271	27.010	1354.104	1100.065
51.286	26.979	1353.123	1098.984
52.301	26.940	1352.109	1097.826
53.315	26.942	1350.878	1096.741
54.330	26.904	1350.181	1095.850
55.344	26.932	1349.427	1095.313
56.359	26.890	1347.922	1093.737
57.374	26.991	1346.864	1093.393
58.388	26.936	1346.670	1092.806
59.403	26.863	1346.596	1092.213
60.417	26.882	1346.025	1091.763
61.432	26.989	1344.728	1091.262
62.447	26.867	1344.389	1090.157
63.461	26.937	1343.245	1089.551
64.476	27.113	1341.584	1089.160
65.490	26.923	1341.046	1087.490
66.505	26.949	1339.951	1086.660
67.520	26.966	1337.966	1085.056
68.534	27.005	1337.207	1084.577
69.549	26.963	1336.741	1083.853
70.563	26.934	1335.473	1082.560
71.578	26.978	1334.773	1082.157
72.593	26.960	1334.054	1081.369
73.607	26.992	1333.089	1080.681
74.622	27.030	1331.936	1079.876
75.636	26.914	1331.737	1078.934
76.651	27.019	1331.147	1078.985
77.666	26.951	1330.605	1078.045
78.680	27.039	1329.902	1077.900
79.695	26.894	1329.266	1076.431
80.709	26.961	1327.990	1075.697
81.724	26.939	1327.474	1075.058
82.739	27.004	1326.431	1074.500
83.753	26.953	1325.838	1073.624
84.768	26.950	1325.020	1072.848
85.782	26.966	1323.524	1071.634
86.797	26.991	1322.186	1070.603
87.812	26.945	1321.392	1069.595
88.826	26.923	1320.524	1068.670
89.841	26.998	1318.946	1067.742
90.855	27.076	1317.904	1067.263
91.870	27.010	1317.707	1066.620
92.884	27.042	1316.649	1065.857
93.899	26.902	1316.424	1064.755
94.914	26.970	1315.057	1063.954
95.928	27.068	1314.458	1063.952
96.943	27.058	1313.587	1063.096
97.957	27.076	1312.768	1062.444
98.972	27.023	1312.407	1061.743
99.987	26.961	1311.695	1060.712
101.001	27.026	1310.112	1059.721
102.016	27.010	1309.214	1058.805
103.030	26.922	1308.567	1057.678
104.045	26.965	1307.592	1057.046
105.060	27.028	1306.533	1056.459
106.074	27.052	1305.496	1055.669
107.089	27.060	1304.622	1054.918
108.103	27.078	1303.514	1054.033
109.118	27.092	1302.402	1053.117
110.133	27.056	1301.093	1051.756
111.147	27.167	1299.850	1051.304
112.162	27.092	1298.876	1049.990
113.176	27.075	1297.680	1048.830
114.191	27.041	1297.085	1048.062
115.206	27.173	1296.007	1047.859
116.220	27.077	1294.742	1046.193
117.235	27.072	1294.139	1045.582
118.249	27.038	1293.421	1044.715
119.264	27.015	1292.913	1044.080
120.279	27.104	1291.938	1043.711
121.293	27.133	1291.227	1043.211
122.308	27.073	1290.433	1042.135
123.322	27.172	1288.862	1041.335
124.337	27.146	1288.676	1040.945
125.352	27.064	1287.959	1039.808
126.366	27.116	1286.897	1039.152
127.381	27.137	1285.934	1038.404
128.395	27.304	1284.512	1038.116
129.410	27.174	1284.164	1037.004
130.424	27.119	1283.578	1036.126
131.439	27.143	1282.891	1035.615
132.454	27.073	1282.306	1034.653
133.468	27.203	1281.432	1034.595
134.483	27.057	1281.267	1033.540
135.497	27.133	1280.149	1032.979
136.512	27.155	1279.360	1032.374
137.527	27.216	1277.979	1031.516
138.541	27.187	1276.365	1029.957
139.556	27.127	1275.664	1028.961
140.570	27.111	1274.981	1028.231
141.585	27.053	1273.729	1026.797
142.600	27.059	1272.957	1026.121
143.614	27.225	1271.693	1025.947
144.629	26.990	1271.157	1024.097
145.643	27.083	1270.106	1023.685
146.658	27.018	1269.119	1022.434
147.673	27.016	1267.574	1021.091
148.687	26.993	1266.654	1020.124
149.702	26.998	1265.911	1019.466
150.716	26.965	1264.949	1018.418
151.731	27.176	1263.394	1018.255
152.746	27.102	1262.661	1017.162
153.760	27.175	1261.282	1016.367
154.775	27.204	1260.737	1016.002
155.789	27.013	1260.286	1014.483
156.804	27.069	1258.990	1013.661
157.819	27.094	1258.171	1013.048
158.833	27.108	1257.835	1012.766
159.848	27.178	1257.128	1012.500
160.862	27.153	1256.214	1011.536
161.877	27.175	1254.939	1010.540
162.892	27.216	1254.273	1010.143
163.906	27.287	1253.585	1009.896
164.921	27.266	1252.787	1009.043
165.935	27.185	1252.017	1007.887
166.950	27.248	1251.585	1007.800
167.964	27.273	1250.769	1007.191
168.979	27.229	1250.436	1006.592
169.994	27.245	1249.914	1006.169
171.008	27.251	1249.324	1005.640
172.023	27.274	1248.187	1004.760
173.037	27.210	1247.711	1003.934
174.052	27.254	1247.150	1003.637
175.067	27.136	1246.432	1002.320
176.081	27.217	1245.548	1001.969
177.096	27.127	1245.108	1001.027
178.110	27.180	1244.089	1000.414
179.125	27.308	1242.344	999.623
180.140	27.235	1241.838	998.729
181.154	27.350	1240.322	998.054
182.169	27.303	1239.559	997.093
183.183	27.285	1238.682	996.197
184.198	27.268	1237.681	995.212
185.213	27.244	1237.047	994.487
186.227	27.352	1235.909	994.074
187.242	27.218	1235.545	992.961
188.256	27.337	1234.164	992.410
189.271	27.350	1233.341	991.733
190.286	27.319	1233.022	991.220
191.300	27.333	1232.401	990.709
192.315	27.326	1231.649	989.976
193.329	27.357	1231.341	989.809
194.344	27.325	1231.080	989.340
195.359	27.305	1230.704	988.844
196.373	27.387	1229.667	988.366
197.388	27.297	1229.378	987.556
198.402	27.258	1229.458	987.322
199.417	27.358	1228.815	987.262
200.432	27.365	1227.616	986.248
201.446	27.370	1227.336	985.962
202.461	27.326	1226.818	985.220
203.475	27.337	1225.683	984.284
204.490	27.315	1224.776	983.347
205.504	27.306	1223.666	982.320
206.519	27.389	1223.295	982.387
207.534	27.364	1222.149	981.244
208.548	27.374	1221.626	980.789
209.563	27.345	1220.665	979.778
210.577	27.403	1219.482	979.049
211.592	27.418	1218.478	978.237
212.607	27.504	1217.966	978.202
213.621	27.387	1217.651	977.236
214.636	27.493	1216.484	976.781
215.650	27.477	1215.652	975.941
216.665	27.485	1214.666	975.108
217.680	27.405	1213.650	973.777
218.694	27.573	1213.124	974.165
219.709	27.485	1212.582	973.175
220.723	27.492	1211.967	972.630
221.738	27.454	1211.222	971.746
222.753	27.462	1210.494	971.119
223.767	27.521	1209.567	970.602
224.782	27.687	1209.025	970.967
225.796	27.712	1208.704	970.757
226.811	27.637	1208.032	969.729
227.826	27.551	1208.041	969.194
228.840	27.621	1206.977	968.628
229.855	27.547	1206.304	967.605
230.869	27.470	1205.946	966.827
231.884	27.409	1205.188	965.807
232.899	27.488	1204.359	965.481
233.913	27.516	1203.626	964.953
234.928	27.629	1202.867	964.858
235.942	27.635	1202.721	964.689
236.957	27.569	1202.102	963.759
237.972	27.567	1201.180	962.921
238.986	27.630	1200.602	962.706
240.001	27.670	1199.992	962.341
241.015	27.742	1199.246	962.040
242.030	27.782	1198.471	961.543
243.045	27.740	1197.471	960.432
244.059	27.628	1197.039	959.412
245.074	27.844	1195.966	959.603
246.088	27.704	1195.209	958.177
247.103	27.739	1194.605	957.790
248.117	27.762	1193.586	957.010
249.132	27.703	1193.199	956.304
250.147	27.828	1192.640	956.426
251.161	27.795	1192.218	955.833
252.176	27.677	1191.377	954.455
253.190	27.876	1190.094	954.386
254.205	27.797	1189.866	953.703
255.220	27.756	1189.364	953.000
256.234	27.870	1188.196	952.577
257.249	27.801	1187.895	951.891
258.263	27.802	1187.548	951.533
259.278	27.848	1186.632	950.958
260.293	27.973	1186.031	951.039
261.307	27.951	1185.932	950.761
262.322	27.838	1185.333	949.612
263.336	27.925	1184.564	949.362
264.351	27.806	1183.787	948.036
265.366	27.929	1183.178	948.102
266.380	27.967	1182.612	947.766
267.395	27.999	1182.129	947.457
268.409	27.868	1181.327	946.052
269.424	27.808	1181.435	945.745
270.439	27.782	1180.715	944.950
271.453	27.871	1179.711	944.525
272.468	27.712	1179.201	943.208
273.482	27.894	1178.403	943.427
274.497	27.851	1177.982	942.789
275.512	27.945	1177.508	942.809
276.526	27.983	1176.602	942.194
277.541	28.014	1175.771	941.608
278.555	27.934	1175.478	940.878
279.570	28.044	1174.403	940.499
280.585	27.913	1173.515	939.033
281.599	27.958	1173.092	938.841
282.614	27.920	1172.210	937.858
283.628	27.963	1171.373	937.327
284.643	28.105	1170.223	937.050
285.657	28.208	1169.184	936.660
286.672	27.855	1169.090	934.696
287.687	28.014	1168.158	934.681
288.701	28.031	1167.744	934.357
289.716	28.035	1166.924	933.639
290.730	28.199	1165.880	933.554
291.745	28.078	1165.703	932.715
292.760	28.111	1165.068	932.292
293.774	28.137	1164.529	931.910
294.789	28.218	1163.886	931.727
295.803	28.247	1162.965	931.053
296.818	28.234	1162.316	930.387
297.833	28.188	1161.596	929.492
298.847	28.147	1161.349	929.003
299.862	28.202	1160.319	928.376
300.876	28.259	1159.734	928.114
301.891	28.292	1159.120	927.712
302.906	28.252	1158.462	926.900
303.920	28.238	1158.035	926.406
304.935	28.323	1157.116	926.018
305.949	28.276	1156.619	925.301
306.964	28.333	1155.660	924.738
307.979	28.326	1155.323	924.350
308.993	28.316	1154.779	923.785
310.008	28.450	1153.717	923.530
311.022	28.269	1153.183	922.109
312.037	28.245	1152.601	921.441
313.052	28.342	1151.782	921.189
314.066	28.305	1150.741	920.092
315.081	28.175	1150.531	919.189
316.095	28.281	1149.970	919.193
317.110	28.289	1149.182	918.522
318.125	28.312	1148.895	918.323
319.139	28.349	1147.867	917.607
320.154	28.371	1146.973	916.922
321.168	28.435	1146.555	916.825
322.183	28.392	1146.165	916.218
323.197	28.359	1145.563	915.488
324.212	28.362	1144.981	914.961
325.227	28.504	1144.255	915.006
326.241	28.513	1143.841	914.641
327.256	28.410	1143.148	913.491
328.270	28.540	1142.146	913.258
329.285	28.484	1141.714	912.554
330.300	28.491	1140.939	911.885
331.314	28.453	1139.993	910.860
332.329	28.555	1139.106	910.580
333.343	28.623	1138.512	910.361
334.358	28.513	1137.825	909.187
335.373	28.558	1136.830	908.533
336.387	28.690	1136.524	908.861
337.402	28.564	1135.951	907.701
338.416	28.618	1135.047	907.162
339.431	28.636	1134.250	906.534
340.446	28.643	1133.823	906.148
341.460	28.726	1133.277	906.044
342.475	28.633	1132.502	904.884
343.489	28.750	1131.482	904.565
344.504	28.675	1130.711	903.500
345.519	28.724	1129.751	902.894
346.533	28.717	1129.112	902.268
347.548	28.693	1128.465	901.553
348.562	28.684	1127.741	900.853
349.577	28.772	1126.993	900.605
350.592	28.674	1126.482	899.635
351.606	28.692	1125.517	898.875
352.621	28.654	1125.417	898.529
353.635	28.769	1124.457	898.246
354.650	28.626	1124.295	897.337
355.665	28.756	1123.333	897.123
356.679	28.956	1122.626	897.457
357.694	28.911	1121.871	896.555
358.708	28.839	1121.496	895.827
359.723	28.857	1120.480	895.020
360.738	28.760	1120.210	894.256
361.752	28.791	1119.807	894.003
362.767	28.900	1119.169	893.947
363.781	28.920	1118.640	893.543
364.796	28.870	1118.186	892.856
365.810	28.919	1117.395	892.386
366.825	28.995	1116.683	892.106
367.840	28.954	1116.706	891.848
368.854	29.055	1115.724	891.474
369.869	28.916	1114.945	890.097
370.883	28.983	1114.218	889.765
371.898	29.066	1113.578	889.572
372.913	29.088	1112.786	888.969
373.927	29.036	1112.383	888.318
374.942	29.124	1112.051	888.398
375.956	29.058	1111.741	887.753
376.971	28.937	1111.238	886.692
377.986	28.994	1110.484	886.285
379.000	29.130	1109.894	886.391
380.015	29.114	1109.997	886.318
381.029	29.021	1108.970	884.971
382.044	29.115	1107.950	884.528
383.059	29.186	1107.184	884.181
384.073	29.106	1106.913	883.504
385.088	29.147	1106.053	882.935
386.102	29.077	1105.395	881.994
387.117	29.234	1104.210	881.724
388.132	29.098	1103.636	880.539
389.146	29.180	1102.866	880.237
390.161	29.183	1102.489	879.870
391.175	29.219	1101.606	879.260
392.190	29.135	1101.388	878.609
393.205	29.160	1100.533	877.966
394.219	29.205	1099.813	877.530
395.234	29.357	1098.688	877.277
396.248	29.382	1097.594	876.446
397.263	29.378	1096.860	875.761
398.278	29.279	1096.696	875.083
399.292	29.427	1095.988	875.143
400.307	29.454	1095.537	874.837
401.321	29.358	1094.779	873.699
402.336	29.287	1094.383	872.967
403.350	29.311	1093.434	872.248
404.365	29.275	1093.043	871.687
405.380	29.393	1092.176	871.479
406.394	29.410	1091.561	870.989
407.409	29.525	1090.838	870.878
408.423	29.587	1089.691	870.176
409.438	29.459	1089.426	869.288
410.453	29.616	1088.679	869.351
411.467	29.533	1087.778	868.164
412.482	29.510	1087.216	867.534
413.496	29.529	1086.562	867.023
414.511	29.579	1086.037	866.759
415.526	29.485	1085.883	866.119
416.540	29.588	1085.356	866.106
417.555	29.495	1084.932	865.255
418.569	29.453	1084.718	864.812
419.584	29.709	1083.878	865.263
420.599	29.696	1083.059	864.473
421.613	103.933	1319.642	1454.157
422.628	96.732	1354.109	1454.263
