DTS Sentinel unit serial number:	SN413079Multiplexer serial number:	ORYXHardware model number:	OX4-SRSoftware version number:	ORYX F/W v4.00 Oryx Data Collector v3.7.2.0data status	okinstallation	princeton_trtdifferential loss correction	single-endedforward channel	channel 2reverse channel	N/Adate	2019/09/11time	08:53:11forward acquisition time	60.00reverse acquisition time	0.00gamma	496.2192k internal	0.2319k external	0.2319temperature offset calibration	0.9964default loss term (dB/km)	0.3790temperature slope calibration	1.0000multiplexer offset coefficient	1.0000multiplexer slope coefficient	1.0000fibre end	0.00T internal ref (°C)	33.94T ext. ref 1 (°C)	0.10T ext. ref 2 (°C)	30.88length (m)	temperature (°C)	Stokes	anti-Stokes-747.200	800.000	0.096	-0.302
-746.185	63.563	0.114	0.115
-745.171	-72.567	0.154	0.058
-744.156	-200.000	-0.009	-0.460
-743.142	-194.716	0.335	-0.003
-742.127	638.170	-0.127	-0.327
-741.112	-137.461	-0.279	0.032
-740.098	-109.545	-0.031	-0.007
-739.083	-175.679	0.413	-0.011
-738.069	-60.699	-0.223	-0.096
-737.054	26.122	0.223	0.188
-736.039	-42.678	0.122	0.063
-735.025	-200.000	-0.060	0.311
-734.010	26.040	-0.137	-0.115
-732.996	800.000	0.058	-0.226
-731.981	55.702	0.144	-0.141
-730.966	-70.037	-0.181	-0.070
-729.952	-55.741	-0.123	0.056
-728.937	776.737	0.105	-0.291
-727.923	-200.000	0.023	0.375
-726.908	800.000	-0.049	0.190
-725.894	-200.000	0.042	-0.311
-724.879	-49.649	-0.273	0.131
-723.864	-200.000	0.025	-0.473
-722.850	-200.000	0.002	-0.074
-721.835	-89.984	0.380	0.112
-720.821	106.450	-0.095	0.114
-719.806	308.292	0.025	0.048
-718.791	-77.933	0.239	-0.083
-717.777	126.154	0.070	-0.089
-716.762	-170.201	-0.212	0.008
-715.748	-137.299	0.232	0.027
-714.733	-200.000	-0.025	-0.375
-713.718	-156.420	-0.120	0.008
-712.704	-43.408	-0.341	0.174
-711.689	800.000	0.069	0.230
-710.675	-200.000	0.028	0.302
-709.660	-200.000	-0.042	0.244
-708.645	-20.802	-0.298	0.185
-707.631	-200.000	0.004	0.023
-706.616	-64.066	0.307	-0.127
-705.602	-142.238	-0.288	0.029
-704.587	800.000	-0.118	-0.469
-703.572	-90.436	-0.072	0.021
-702.558	208.209	0.152	0.240
-701.543	-145.126	0.191	0.018
-700.529	260.934	0.062	-0.108
-699.514	184.966	-0.148	0.222
-698.499	-130.240	0.125	0.017
-697.485	127.128	-0.098	0.126
-696.470	312.792	-0.130	-0.247
-695.456	535.434	-0.017	0.041
-694.441	-20.773	-0.274	0.170
-693.426	86.225	-0.159	-0.177
-692.412	7.344	-0.382	0.288
-691.397	54.064	-0.143	-0.139
-690.383	-131.850	0.359	0.047
-689.368	-29.947	0.180	0.104
-688.354	424.396	0.055	-0.120
-687.339	-200.000	0.001	-0.088
-686.324	-200.000	-0.024	-0.105
-685.310	-200.000	-0.030	-0.489
-684.295	-43.365	-0.080	0.041
-683.281	93.279	-0.100	0.114
-682.266	184.061	0.169	-0.253
-681.251	-48.075	0.143	-0.070
-680.237	583.527	-0.072	-0.179
-679.222	-28.751	-0.176	0.102
-678.208	254.761	-0.082	0.142
-677.193	-128.553	-0.177	0.025
-676.178	-21.301	0.175	0.108
-675.164	315.292	0.121	0.230
-674.149	594.586	-0.111	-0.278
-673.135	237.200	-0.055	0.092
-672.120	-147.987	-0.356	0.030
-671.105	800.000	-0.040	-0.146
-670.091	4.583	-0.202	0.150
-669.076	-200.000	0.023	-0.249
-668.062	-129.760	-0.262	-0.036
-667.047	-130.167	-0.138	0.019
-666.032	33.935	0.119	-0.105
-665.018	800.000	0.071	-0.305
-664.003	800.000	-0.051	-0.200
-662.989	-88.390	-0.271	0.082
-661.974	-200.000	0.009	0.260
-660.959	-200.000	-0.002	0.186
-659.945	-48.901	-0.178	0.086
-658.930	15.072	-0.079	0.062
-657.916	-14.254	-0.112	0.073
-656.901	-110.348	-0.348	0.073
-655.886	46.841	-0.344	0.322
-654.872	-200.000	-0.049	0.217
-653.857	-54.099	0.242	-0.111
-652.843	-37.438	-0.258	0.139
-651.828	800.000	-0.096	0.350
-650.814	-200.000	-0.041	0.360
-649.799	175.093	0.155	-0.227
-648.784	-95.229	-0.261	-0.071
-647.770	-200.000	0.043	-0.466
-646.755	-7.380	-0.263	-0.179
-645.741	254.108	-0.090	0.155
-644.726	103.227	0.105	0.125
-643.711	13.482	-0.293	-0.229
-642.697	-50.390	0.246	-0.117
-641.682	-146.265	0.027	0.002
-640.668	10.688	0.237	0.182
-639.653	138.100	0.135	0.178
-638.638	-66.547	-0.229	-0.092
-637.624	-200.000	-0.011	-0.089
-636.609	-155.560	0.109	-0.007
-635.595	116.416	-0.250	-0.309
-634.580	42.120	-0.146	-0.134
-633.565	-111.960	-0.153	0.031
-632.551	52.814	-0.179	0.173
-631.536	86.664	-0.194	-0.216
-630.522	-98.009	0.034	-0.009
-629.507	-22.088	0.092	-0.057
-628.492	-123.342	-0.220	0.035
-627.478	207.136	-0.029	0.046
-626.463	-13.161	-0.065	-0.042
-625.449	-175.013	-0.100	-0.003
-624.434	42.419	0.018	0.016
-623.419	31.341	-0.219	-0.189
-622.405	-171.062	-0.253	0.009
-621.390	186.051	-0.040	-0.060
-620.376	-20.164	0.223	0.138
-619.361	202.733	-0.295	-0.458
-618.346	-123.466	0.296	-0.047
-617.332	107.252	-0.151	-0.180
-616.317	-200.000	0.024	-0.289
-615.303	-200.000	0.008	0.090
-614.288	-136.728	-0.004	0.000
-613.273	-24.395	-0.484	0.290
-612.259	-200.000	0.025	0.354
-611.244	-200.000	-0.005	0.249
-610.230	-169.981	-0.284	-0.010
-609.215	101.753	-0.010	-0.012
-608.201	-95.926	-0.147	0.040
-607.186	-89.473	0.079	0.023
-606.171	26.943	-0.240	0.202
-605.157	360.310	-0.061	0.123
-604.142	2.466	0.321	-0.234
-603.128	64.373	0.101	0.102
-602.113	-168.917	0.170	0.006
-601.098	-84.446	-0.299	-0.095
-600.084	15.874	0.124	-0.098
-599.069	71.179	-0.106	-0.110
-598.055	569.656	0.230	0.562
-597.040	-164.795	0.167	-0.008
-596.025	800.000	-0.104	0.293
-595.011	299.106	0.224	0.415
-593.996	15.620	0.127	0.101
-592.982	78.923	-0.244	-0.262
-591.967	-136.186	0.368	0.043
-590.952	-132.534	-0.135	-0.017
-589.938	82.299	-0.202	-0.221
-588.923	-157.513	-0.131	0.008
-587.909	-50.404	-0.255	0.121
-586.894	-6.254	0.230	-0.158
-585.879	-30.250	0.173	-0.099
-584.865	186.928	0.173	-0.259
-583.850	151.933	-0.121	0.165
-582.836	-2.664	-0.067	-0.047
-581.821	-200.000	0.012	-0.207
-580.806	800.000	-0.055	-0.224
-579.792	519.207	-0.139	-0.327
-578.777	164.225	-0.157	-0.223
-577.763	-200.000	0.003	-0.241
-576.748	-200.000	-0.004	-0.180
-575.733	800.000	0.087	0.327
-574.719	-188.875	-0.123	0.001
-573.704	374.674	-0.015	0.031
-572.690	-56.526	-0.160	0.071
-571.675	-70.227	0.284	-0.108
-570.661	-147.558	0.328	0.028
-569.646	174.696	0.062	-0.090
-568.631	-200.000	0.030	0.283
-567.617	-103.940	-0.122	0.029
-566.602	-200.000	-0.001	-0.137
-565.588	30.125	-0.296	-0.254
-564.573	374.781	0.102	0.210
-563.558	-51.166	-0.369	0.174
-562.544	-70.739	-0.392	-0.149
-561.529	-8.679	-0.356	-0.240
-560.515	40.490	0.126	0.114
-559.500	-200.000	0.015	-0.204
-558.485	-179.049	-0.172	0.004
-557.471	131.259	-0.084	-0.109
-556.456	11.388	-0.156	-0.120
-555.442	193.474	-0.223	-0.339
-554.427	-90.786	0.371	-0.107
-553.412	212.777	-0.121	0.192
-552.398	-157.240	0.158	-0.010
-551.383	800.000	-0.077	0.228
-550.369	395.507	0.052	0.109
-549.354	-13.150	-0.143	-0.093
-548.339	-61.508	0.183	0.077
-547.325	-200.000	0.029	0.284
-546.310	-95.741	0.255	-0.068
-545.296	143.789	-0.124	0.165
-544.281	-200.000	0.027	0.124
-543.266	-118.483	-0.131	-0.023
-542.252	68.488	-0.106	-0.109
-541.237	136.460	0.049	0.064
-540.223	-200.000	0.049	0.281
-539.208	306.514	-0.153	-0.286
-538.193	-91.922	-0.254	0.072
-537.179	238.851	-0.173	0.289
-536.164	68.951	-0.287	-0.296
-535.150	-200.000	-0.028	-0.390
-534.135	118.506	-0.058	0.072
-533.121	800.000	0.090	-0.389
-532.106	-200.000	0.052	0.320
-531.091	179.981	-0.156	-0.229
-530.077	144.763	0.176	-0.236
-529.062	-192.888	-0.298	0.003
-528.048	-75.247	-0.191	0.069
-527.033	-117.521	0.480	-0.087
-526.018	-82.965	-0.304	-0.098
-525.004	85.395	-0.136	-0.150
-523.989	-9.300	0.153	-0.102
-522.975	-200.000	-0.018	0.344
-521.960	-71.214	-0.126	-0.047
-520.945	45.883	-0.135	0.125
-519.931	562.476	-0.087	0.212
-518.916	403.430	0.171	-0.361
-517.902	-109.496	-0.347	-0.073
-516.887	-128.606	0.191	-0.027
-515.872	-96.462	-0.040	0.011
-514.858	-14.064	-0.111	0.072
-513.843	-200.000	-0.041	0.242
-512.829	-122.706	-0.238	-0.039
-511.814	800.000	0.050	-0.146
-510.799	-139.090	0.212	0.023
-509.785	269.624	0.103	0.182
-508.770	184.341	-0.066	-0.099
-507.756	-50.284	-0.197	-0.093
-506.741	-30.850	-0.068	-0.038
-505.726	222.450	0.327	-0.527
-504.712	-44.276	-0.487	-0.245
-503.697	13.259	-0.088	-0.069
-502.683	-200.000	-0.014	-0.523
-501.668	419.356	0.038	-0.081
-500.653	151.424	0.220	-0.301
-499.639	800.000	-0.102	-0.313
-498.624	-4.362	0.111	0.077
-497.610	165.471	0.097	0.138
-496.595	471.894	0.056	0.127
-495.581	76.634	-0.133	0.141
-494.566	212.767	0.158	-0.250
-493.551	29.015	-0.227	0.193
-492.537	-132.395	0.256	0.033
-491.522	123.654	0.084	0.105
-490.508	156.566	0.014	-0.020
-489.493	181.416	0.119	-0.176
-488.478	800.000	0.023	0.084
-487.464	-200.000	-0.030	-0.290
-486.449	92.065	0.121	-0.137
-485.435	59.573	-0.120	0.119
-484.420	-153.996	-0.261	-0.018
-483.405	328.986	-0.223	-0.430
-482.391	-53.205	-0.438	-0.201
-481.376	-139.322	-0.305	0.033
-480.362	56.555	-0.275	-0.268
-479.347	-200.000	0.008	-0.399
-478.332	169.961	-0.156	-0.223
-477.318	800.000	-0.203	0.634
-476.303	1.848	-0.199	0.144
-475.289	800.000	0.019	0.062
-474.274	-28.203	0.148	0.085
-473.259	93.977	0.109	0.123
-472.245	173.619	0.070	0.101
-471.230	-200.000	0.008	0.307
-470.216	13.361	0.133	-0.103
-469.201	-200.000	-0.017	-0.196
-468.186	800.000	0.016	0.054
-467.172	-57.854	0.174	-0.076
-466.157	800.000	0.031	-0.119
-465.143	-112.033	0.389	0.079
-464.128	61.183	0.248	0.246
-463.113	-200.000	0.056	-0.515
-462.099	-200.000	-0.005	0.043
-461.084	86.038	-0.199	-0.219
-460.070	-18.540	-0.254	0.158
-459.055	-19.977	-0.134	-0.083
-458.040	800.000	0.052	0.221
-457.026	-200.000	0.005	0.073
-456.011	-76.367	0.114	0.040
-454.997	-63.740	-0.034	0.014
-453.982	-109.186	0.430	0.091
-452.968	317.944	-0.149	0.281
-451.953	800.000	0.072	-0.289
-450.938	800.000	-0.010	0.042
-449.924	-67.457	-0.330	-0.130
-448.909	-190.968	0.382	-0.004
-447.895	-200.000	0.066	-0.338
-446.880	-135.947	-0.108	0.013
-445.865	108.202	-0.177	0.211
-444.851	-19.074	-0.189	0.118
-443.836	-200.000	0.017	0.159
-442.822	17.372	0.218	-0.173
-441.807	-87.743	-0.101	0.030
-440.792	-66.224	-0.059	-0.024
-439.778	231.055	0.094	0.154
-438.763	-200.000	0.018	0.119
-437.749	800.000	-0.053	0.179
-436.734	-137.530	0.099	-0.011
-435.719	-114.271	0.149	0.029
-434.705	87.960	0.193	0.214
-433.690	-2.310	0.098	-0.068
-432.676	-65.920	-0.033	-0.013
-431.661	-200.000	0.013	0.278
-430.646	-53.078	-0.201	-0.092
-429.632	800.000	-0.066	-0.216
-428.617	-90.029	0.329	-0.096
-427.603	-200.000	-0.031	0.227
-426.588	-46.399	-0.266	0.130
-425.573	-83.569	-0.332	-0.106
-424.559	142.166	0.336	-0.445
-423.544	-114.763	-0.154	0.029
-422.530	409.471	-0.002	-0.005
-421.515	800.000	0.089	-0.310
-420.500	-10.863	-0.291	0.192
-419.486	800.000	-0.070	0.303
-418.471	-200.000	0.010	-0.189
-417.457	-37.377	-0.115	-0.061
-416.442	-27.318	0.167	0.097
-415.428	-58.831	-0.146	0.063
-414.413	-127.319	0.186	0.027
-413.398	209.981	-0.222	-0.348
-412.384	800.000	-0.055	0.241
-411.369	54.810	0.194	-0.187
-410.355	45.348	-0.125	-0.115
-409.340	800.000	-0.038	-0.111
-408.325	800.000	0.154	0.424
-407.311	-52.056	0.100	0.046
-406.296	-103.915	0.201	0.047
-405.282	156.830	-0.211	0.291
-404.267	-62.984	0.270	-0.111
-403.252	92.426	0.215	0.242
-402.238	-79.044	0.118	0.040
-401.223	-100.511	-0.044	-0.011
-400.209	194.454	-0.114	0.173
-399.194	123.973	0.156	0.196
-398.179	-53.984	0.186	-0.085
-397.165	-41.777	-0.036	-0.018
-396.150	-71.041	0.156	-0.059
-395.136	587.593	-0.068	0.167
-394.121	102.449	-0.145	0.169
-393.106	-76.638	0.143	0.050
-392.092	800.000	-0.048	0.145
-391.077	62.335	-0.177	0.176
-390.063	-89.712	-0.196	0.057
-389.048	92.045	0.151	-0.169
-388.033	-110.161	0.197	0.041
-387.019	147.134	0.236	-0.316
-386.004	-200.000	0.021	0.277
-384.990	335.297	0.148	-0.285
-383.975	217.362	0.112	-0.178
-382.960	-33.446	0.062	0.034
-381.946	800.000	0.038	-0.134
-380.931	53.244	-0.187	-0.179
-379.917	-200.000	-0.004	-0.489
-378.902	800.000	0.081	-0.344
-377.888	-74.900	-0.183	0.066
-376.873	-128.719	-0.211	0.030
-375.858	33.556	-0.177	-0.153
-374.844	-200.000	-0.125	0.000
-373.829	-31.635	0.186	0.104
-372.815	-73.312	0.172	0.063
-371.800	438.123	0.118	0.257
-370.785	-28.694	0.056	0.032
-369.771	-200.000	0.006	0.137
-368.756	-200.000	0.065	0.369
-367.742	-94.457	-0.264	0.072
-366.727	203.380	-0.084	-0.129
-365.712	82.859	0.080	-0.086
-364.698	-115.443	-0.339	-0.064
-363.683	204.933	-0.103	0.159
-362.669	268.538	-0.158	-0.276
-361.654	-200.000	0.001	-0.013
-360.639	-68.325	0.135	-0.052
-359.625	67.800	-0.164	-0.167
-358.610	-24.484	-0.286	-0.170
-357.596	-142.184	-0.063	0.006
-356.581	123.393	-0.138	-0.172
-355.566	800.000	-0.048	0.159
-354.552	92.468	0.144	0.162
-353.537	181.533	-0.087	0.128
-352.523	55.869	-0.127	-0.123
-351.508	152.867	-0.153	0.209
-350.493	-104.280	0.352	-0.081
-349.479	-200.000	0.060	-0.324
-348.464	-200.000	0.019	0.085
-347.450	-14.014	0.273	0.176
-346.435	176.761	0.096	0.139
-345.420	-200.000	-0.010	-0.095
-344.406	50.696	0.207	-0.195
-343.391	-200.000	0.003	-0.058
-342.377	-184.806	0.170	0.003
-341.362	12.229	-0.042	0.032
-340.348	800.000	0.050	0.178
-339.333	104.115	0.083	-0.097
-338.318	800.000	0.144	0.433
-337.304	491.548	-0.070	-0.159
-336.289	-200.000	0.005	-0.130
-335.275	-17.799	-0.017	-0.011
-334.260	-25.402	-0.045	0.026
-333.245	71.475	0.243	0.251
-332.231	-145.795	0.253	0.022
-331.216	800.000	0.082	-0.273
-330.202	87.196	0.177	0.195
-329.187	210.525	0.093	0.145
-328.172	311.153	-0.217	-0.405
-327.158	73.525	-0.276	-0.288
-326.143	77.764	0.263	0.278
-325.129	-200.000	-0.030	0.293
-324.114	204.604	0.131	0.202
-323.099	-23.881	0.297	-0.177
-322.085	144.770	0.210	-0.280
-321.070	-40.229	-0.123	-0.064
-320.056	800.000	0.082	0.258
-319.041	800.000	0.097	0.283
-318.026	-83.493	0.287	0.091
-317.012	134.305	0.072	-0.092
-315.997	-200.000	-0.006	-0.221
-314.983	-114.069	-0.163	-0.031
-313.968	-171.771	0.287	0.009
-312.953	-30.290	-0.029	0.016
-311.939	-58.866	0.178	0.077
-310.924	114.117	-0.066	0.080
-309.910	508.505	0.107	0.247
-308.895	-125.812	0.453	0.068
-307.880	800.000	0.110	-0.388
-306.866	-139.432	0.337	-0.036
-305.851	-138.412	0.112	-0.012
-304.837	38.343	0.174	-0.154
-303.822	-54.032	0.180	-0.081
-302.807	153.133	0.192	-0.261
-301.793	-70.835	0.036	0.014
-300.778	32.279	0.135	-0.116
-299.764	-69.699	0.148	0.056
-298.749	800.000	0.073	0.253
-297.735	108.854	0.138	0.164
-296.720	-69.841	-0.115	0.044
-295.705	-76.879	0.185	0.064
-294.691	-23.305	0.308	0.184
-293.676	-165.784	-0.229	0.010
-292.662	-7.431	0.272	-0.183
-291.647	-200.000	0.015	0.164
-290.632	-200.000	0.070	-0.360
-289.618	86.558	0.032	-0.035
-288.603	-186.294	0.556	-0.008
-287.589	49.044	-0.125	-0.116
-286.574	-200.000	0.028	0.182
-285.559	181.587	0.079	0.116
-284.545	35.090	-0.164	0.143
-283.530	316.184	0.105	-0.197
-282.516	-130.600	-0.248	-0.033
-281.501	800.000	0.135	0.421
-280.486	-200.000	0.002	0.068
-279.472	-183.826	0.161	0.003
-278.457	248.675	-0.161	0.271
-277.443	42.518	0.088	0.080
-276.428	-49.709	0.035	-0.017
-275.413	15.068	-0.046	-0.036
-274.399	-200.000	-0.062	-0.337
-273.384	800.000	-0.080	0.341
-272.370	-200.000	0.034	-0.150
-271.355	230.421	-0.051	-0.083
-270.340	289.990	0.193	0.349
-269.326	-33.142	0.193	0.106
-268.311	-200.000	0.047	0.311
-267.297	779.076	0.123	0.333
-266.282	292.317	-0.041	-0.075
-265.267	-60.656	0.078	-0.033
-264.253	64.049	0.357	-0.357
-263.238	335.517	-0.200	-0.385
-262.224	142.595	0.141	0.185
-261.209	-200.000	-0.040	0.256
-260.195	8.280	-0.148	0.110
-259.180	-153.611	-0.184	-0.013
-258.165	-74.531	-0.180	-0.065
-257.151	-147.775	-0.108	0.009
-256.136	150.374	-0.114	0.153
-255.122	-71.837	0.041	-0.015
-254.107	-200.000	-0.001	-0.066
-253.092	-200.000	0.020	-0.245
-252.078	-4.451	-0.193	-0.133
-251.063	60.358	-0.141	-0.138
-250.049	-74.188	-0.214	0.077
-249.034	47.447	-0.106	0.098
-248.019	-95.240	-0.231	-0.062
-247.005	-200.000	-0.011	0.161
-245.990	800.000	0.053	0.163
-244.976	-167.057	-0.403	-0.016
-243.961	-117.655	0.136	-0.024
-242.946	-200.000	-0.067	0.331
-241.932	163.661	-0.049	-0.069
-240.917	-103.377	-0.342	-0.080
-239.903	57.982	-0.243	-0.236
-238.888	101.275	0.223	0.258
-237.873	131.334	0.126	0.160
-236.859	4.092	0.259	-0.188
-235.844	-200.000	-0.002	-0.047
-234.830	-16.824	0.102	0.064
-233.815	24.048	-0.232	-0.190
-232.800	61.729	-0.124	0.122
-231.786	-200.000	0.016	0.248
-230.771	-200.000	0.018	-0.299
-229.757	352.475	0.069	-0.135
-228.742	-100.651	-0.174	0.043
-227.727	187.189	0.112	0.166
-226.713	-79.163	0.224	0.075
-225.698	70.797	-0.163	0.167
-224.684	-200.000	0.002	-0.048
-223.669	291.467	-0.069	-0.124
-222.655	-69.985	0.322	-0.122
-221.640	167.694	-0.054	0.076
-220.625	133.620	0.109	-0.139
-219.611	-200.000	-0.021	-0.251
-218.596	-98.217	0.473	0.120
-217.582	160.789	0.109	-0.151
-216.567	-127.220	-0.156	0.023
-215.552	-200.000	0.039	0.226
-214.538	-200.000	0.056	0.433
-213.523	13.504	0.259	0.199
-212.509	-200.000	-0.022	0.161
-211.494	-200.000	-0.061	0.439
-210.479	-200.000	-0.005	-0.106
-209.465	-200.000	0.052	0.327
-208.450	137.909	0.185	0.240
-207.436	77.343	-0.077	0.081
-206.421	-168.907	-0.129	0.005
-205.406	-135.644	0.048	0.006
-204.392	-87.692	-0.342	-0.102
-203.377	-52.687	0.081	0.037
-202.363	-200.000	-0.021	0.107
-201.348	96.555	0.035	-0.040
-200.333	-200.000	0.009	0.044
-199.319	82.855	0.250	0.269
-198.304	3.387	-0.165	0.119
-197.290	-136.562	0.129	-0.015
-196.275	-200.000	-0.046	0.226
-195.260	-200.000	-0.006	0.186
-194.246	-148.703	-0.100	0.008
-193.231	6.985	0.223	-0.165
-192.217	99.312	-0.178	-0.204
-191.202	28.484	-0.089	-0.074
-190.187	-146.982	0.124	0.011
-189.173	-117.600	-0.088	-0.016
-188.158	-200.000	-0.062	-0.326
-187.144	-200.000	0.034	-0.150
-186.129	-147.076	-0.196	-0.017
-185.114	-200.000	-0.045	0.296
-184.100	306.714	-0.198	0.365
-183.085	643.912	0.038	0.096
-182.071	95.490	-0.195	-0.220
-181.056	-82.605	-0.156	0.050
-180.042	332.326	0.073	-0.139
-179.027	-200.000	-0.050	0.273
-178.012	54.650	0.351	0.334
-176.998	-144.341	-0.106	-0.010
-175.983	800.000	0.109	0.385
-174.969	-200.000	0.068	-0.445
-173.954	-82.079	0.179	0.058
-172.939	101.555	0.170	0.196
-171.925	141.289	0.135	-0.176
-170.910	-200.000	-0.056	0.000
-169.896	800.000	-0.022	-0.059
-168.881	800.000	0.062	-0.193
-167.866	586.957	0.037	0.090
-166.852	658.648	-0.073	0.185
-165.837	-192.103	-0.121	-0.001
-164.823	-200.000	0.079	0.453
-163.808	-39.687	0.245	-0.127
-162.793	-140.858	0.114	0.012
-161.779	-20.354	0.184	0.112
-160.764	-200.000	0.022	0.129
-159.750	-115.704	0.114	-0.021
-158.735	121.501	-0.165	-0.203
-157.720	36.270	-0.084	-0.073
-156.706	-200.000	0.005	0.066
-155.691	692.121	0.096	0.250
-154.677	800.000	0.018	-0.049
-153.662	-45.550	-0.186	-0.091
-152.647	-156.836	0.259	0.016
-151.633	-91.096	-0.214	-0.061
-150.618	-32.114	-0.224	0.124
-149.604	-123.948	0.133	0.021
-148.589	-9.458	-0.162	0.107
-147.574	-39.722	0.173	-0.089
-146.560	8.611	0.136	-0.101
-145.545	260.213	-0.075	0.129
-144.531	31.057	-0.212	-0.180
-143.516	-200.000	-0.051	0.260
-142.502	59.432	-0.137	-0.134
-141.487	-200.000	-0.029	-0.131
-140.472	-34.045	0.225	-0.122
-139.458	-131.077	-0.132	-0.017
-138.443	408.089	-0.163	-0.341
-137.429	-13.206	0.300	-0.193
-136.414	-26.011	-0.306	-0.178
-135.399	122.702	-0.030	-0.037
-134.385	-75.474	-0.203	0.071
-133.370	-118.270	0.262	-0.046
-132.356	-200.000	-0.012	-0.243
-131.341	509.129	-0.172	0.394
-130.326	271.017	-0.137	0.238
-129.312	800.000	-0.082	-0.236
-128.297	96.877	0.103	-0.117
-127.283	-47.948	-0.175	-0.084
-126.268	340.623	0.053	-0.103
-125.253	-34.353	0.232	-0.126
-124.239	-200.000	-0.014	0.283
-123.224	800.000	0.040	0.144
-122.210	-128.924	0.098	-0.014
-121.195	-11.441	0.166	-0.108
-120.180	185.595	-0.134	0.196
-119.166	-200.000	0.015	0.072
-118.151	-200.000	0.020	-0.285
-117.137	201.266	-0.158	-0.240
-116.122	-47.775	0.066	-0.031
-115.107	-81.517	0.169	0.055
-114.093	-157.847	0.385	-0.023
-113.078	31.840	-0.135	-0.115
-112.064	515.689	-0.019	-0.045
-111.049	76.150	0.144	-0.151
-110.034	-14.614	-0.199	0.126
-109.020	-200.000	0.053	0.314
-108.005	-200.000	0.059	-0.262
-106.991	800.000	-0.032	-0.127
-105.976	-200.000	-0.031	0.322
-104.962	140.583	-0.056	0.073
-103.947	157.611	-0.136	-0.185
-102.932	-200.000	0.014	0.120
-101.918	419.188	0.130	-0.273
-100.903	800.000	-0.034	-0.111
-99.889	171.564	0.189	0.267
-98.874	118.120	0.072	-0.088
-97.859	32.521	0.102	-0.087
-96.845	-37.466	0.107	0.056
-95.830	9.313	0.293	0.218
-94.816	-130.127	0.298	0.040
-93.801	161.479	-0.080	0.110
-92.786	-103.670	-0.350	0.081
-91.772	-37.162	0.193	0.102
-90.757	-76.786	0.263	0.091
-89.743	-90.359	0.165	-0.047
-88.728	-48.151	0.245	-0.117
-87.713	-36.046	-0.022	-0.012
-86.699	-37.994	0.210	0.110
-85.684	140.345	-0.062	-0.081
-84.670	800.000	0.085	-0.247
-83.655	-67.267	-0.164	0.064
-82.640	-44.470	-0.323	0.159
-81.626	-50.677	0.303	0.141
-80.611	135.153	0.337	0.431
-79.597	100.980	0.360	0.412
-78.582	-40.270	0.139	0.071
-77.567	198.068	0.168	0.254
-76.553	-136.011	0.329	-0.038
-75.538	75.095	0.062	0.064
-74.524	-1.619	0.030	-0.021
-73.509	-200.000	-0.015	0.224
-72.494	-200.000	-0.002	-0.465
-71.480	30.874	0.280	0.236
-70.465	-158.031	0.036	0.002
-69.451	-200.000	-0.026	0.216
-68.436	-200.000	0.020	0.103
-67.422	467.280	0.004	0.010
-66.407	-200.000	0.031	0.180
-65.392	-200.000	-0.011	-0.205
-64.378	796.270	-0.189	0.513
-63.363	-200.000	-0.032	0.154
-62.349	296.901	-0.093	0.168
-61.334	-2.339	-0.957	-0.661
-60.319	241.452	0.332	0.547
-59.305	800.000	-0.303	-1.042
-58.290	519.401	0.445	1.027
-57.276	309.086	0.828	1.524
-56.261	-200.000	98.382	559.656
-55.246	598.098	1403.073	3425.608
-54.232	182.438	2645.888	3841.822
-53.217	112.220	2328.468	2772.226
-52.203	43.406	1937.283	1743.294
-51.188	37.313	1721.971	1502.535
-50.173	34.452	1676.483	1441.201
-49.159	51.365	1726.224	1614.059
-48.144	54.334	1743.430	1652.837
-47.130	36.883	1698.926	1478.910
-46.115	33.937	1683.874	1443.420
-45.100	33.802	1679.239	1438.362
-44.086	33.772	1676.416	1435.660
-43.071	33.845	1673.805	1433.916
-42.057	33.762	1671.699	1431.435
-41.042	33.814	1669.165	1429.594
-40.027	33.805	1667.524	1428.071
-39.013	33.677	1665.603	1425.405
-37.998	33.746	1663.904	1424.408
-36.984	33.822	1662.820	1423.998
-35.969	33.930	1660.989	1423.183
-34.954	33.951	1659.407	1421.928
-33.940	33.976	1657.231	1420.192
-32.925	33.947	1656.032	1418.893
-31.911	33.866	1654.013	1416.502
-30.896	33.963	1652.121	1415.549
-29.881	33.921	1650.187	1413.524
-28.867	33.970	1648.463	1412.356
-27.852	33.950	1647.188	1411.056
-26.838	34.023	1645.838	1410.383
-25.823	33.954	1644.728	1408.867
-24.809	34.048	1643.103	1408.117
-23.794	33.884	1641.980	1405.882
-22.779	34.021	1640.273	1405.375
-21.765	34.002	1638.404	1403.583
-20.750	33.986	1636.351	1401.647
-19.736	33.973	1635.174	1400.487
-18.721	34.030	1633.701	1399.590
-17.706	33.901	1632.150	1397.258
-16.692	33.915	1630.489	1395.881
-15.677	33.842	1629.684	1394.605
-14.663	34.070	1627.870	1394.666
-13.648	33.878	1627.077	1392.526
-12.633	33.963	1624.750	1391.103
-11.619	33.952	1623.221	1389.660
-10.604	34.007	1621.721	1388.717
-9.590	33.906	1621.084	1387.377
-8.575	34.053	1619.042	1386.647
-7.560	33.998	1618.453	1385.686
-6.546	34.018	1616.670	1384.253
-5.531	33.974	1616.076	1383.370
-4.517	34.043	1614.875	1382.786
-3.502	33.926	1613.401	1380.623
-2.487	34.043	1611.665	1379.932
-1.473	33.910	1600.609	1369.449
-0.458	31.567	1581.872	1336.654
0.556	26.422	1582.197	1306.709
1.571	24.216	1608.081	1311.748
2.586	23.652	1622.204	1318.958
3.600	20.410	1567.728	1251.236
4.615	10.426	1452.144	1091.929
5.629	1.802	1383.815	984.893
6.644	0.232	1375.809	969.011
7.659	0.082	1374.174	966.807
8.673	0.072	1373.030	965.853
9.688	0.035	1371.302	964.316
10.702	-0.237	1368.226	960.328
11.717	3.143	1374.943	986.664
12.731	13.244	1394.330	1065.907
13.746	21.224	1408.148	1128.143
14.761	22.878	1410.270	1140.432
15.775	23.278	1409.510	1142.295
16.790	23.164	1410.082	1141.921
17.804	23.262	1409.283	1141.808
18.819	23.515	1408.907	1143.033
19.834	23.565	1408.050	1142.561
20.848	23.554	1407.493	1141.937
21.863	23.618	1406.288	1141.265
22.877	23.624	1405.575	1140.628
23.892	23.651	1404.575	1139.888
24.907	23.646	1404.083	1139.355
25.921	23.559	1402.794	1137.647
26.936	23.562	1401.898	1136.845
27.950	23.604	1400.794	1136.117
28.965	23.633	1399.616	1135.242
29.980	23.699	1397.984	1134.245
30.994	23.633	1396.853	1132.802
32.009	23.534	1396.049	1131.422
33.023	23.466	1395.143	1130.150
34.038	23.668	1393.246	1129.798
35.053	23.655	1392.011	1128.617
36.067	23.655	1391.306	1127.944
37.082	23.557	1390.533	1126.596
38.096	23.569	1389.598	1125.812
39.111	23.440	1389.210	1124.582
40.126	23.617	1387.854	1124.504
41.140	23.559	1387.554	1123.799
42.155	23.519	1387.444	1123.352
43.169	23.594	1387.383	1123.679
44.184	23.602	1387.237	1123.515
45.199	23.695	1386.332	1123.273
46.213	23.662	1385.886	1122.602
47.228	23.590	1385.374	1121.634
48.242	23.644	1383.803	1120.600
49.257	23.532	1382.672	1118.878
50.271	23.564	1380.641	1117.337
51.286	23.592	1379.650	1116.614
52.301	23.643	1378.419	1115.839
53.315	23.635	1377.646	1115.067
54.330	23.633	1376.491	1114.018
55.344	23.534	1375.608	1112.584
56.359	23.551	1374.374	1111.592
57.374	23.553	1373.783	1111.029
58.388	23.509	1373.158	1110.149
59.403	23.604	1372.693	1110.274
60.417	23.656	1371.688	1109.689
61.432	23.544	1370.940	1108.282
62.447	23.496	1370.932	1107.878
63.461	23.569	1369.473	1107.059
64.476	23.654	1368.025	1106.316
65.490	23.595	1367.074	1105.081
66.505	23.556	1365.461	1103.438
67.520	23.571	1363.915	1102.186
68.534	23.647	1362.954	1101.786
69.549	23.646	1362.343	1101.183
70.563	23.626	1361.034	1099.906
71.578	23.600	1360.186	1098.960
72.593	23.716	1359.494	1099.022
73.607	23.587	1358.666	1097.457
74.622	23.619	1358.134	1097.132
75.636	23.625	1357.266	1096.370
76.651	23.601	1356.747	1095.708
77.666	23.626	1355.735	1094.943
78.680	23.630	1355.114	1094.369
79.695	23.583	1354.578	1093.551
80.709	23.548	1353.963	1092.743
81.724	23.603	1352.681	1091.949
82.739	23.656	1351.768	1091.440
83.753	23.651	1350.883	1090.601
84.768	23.661	1349.447	1089.406
85.782	23.575	1348.431	1087.961
86.797	23.676	1347.212	1087.501
87.812	23.611	1346.085	1086.098
88.826	23.578	1345.437	1085.278
89.841	23.598	1344.260	1084.354
90.855	23.658	1343.437	1083.959
91.870	23.682	1342.696	1083.412
92.884	23.612	1341.796	1082.162
93.899	23.678	1340.570	1081.480
94.914	23.703	1340.047	1081.115
95.928	23.679	1339.536	1080.460
96.943	23.643	1338.654	1079.439
97.957	23.613	1338.262	1078.843
98.972	23.745	1336.837	1078.397
99.987	23.657	1336.171	1077.233
101.001	23.708	1335.060	1076.549
102.016	23.636	1334.020	1075.181
103.030	23.556	1333.476	1074.163
104.045	23.624	1332.548	1073.734
105.060	23.582	1331.450	1072.500
106.074	23.627	1330.904	1072.238
107.089	23.770	1329.083	1071.537
108.103	23.734	1328.273	1070.568
109.118	23.713	1327.122	1069.422
110.133	23.815	1325.570	1068.691
111.147	23.814	1324.394	1067.642
112.162	23.755	1323.462	1066.440
113.176	23.744	1322.172	1065.244
114.191	23.743	1321.718	1064.773
115.206	23.761	1320.418	1063.739
116.220	23.733	1319.499	1062.738
117.235	23.713	1318.777	1061.946
118.249	23.685	1317.976	1061.041
119.264	23.752	1317.133	1060.666
120.279	23.750	1316.170	1059.785
121.293	23.795	1315.164	1059.150
122.308	23.808	1314.407	1058.526
123.322	23.803	1313.611	1057.758
124.337	23.822	1312.552	1056.927
125.352	23.832	1311.530	1056.066
126.366	23.802	1310.952	1055.331
127.381	23.861	1309.718	1054.595
128.395	23.831	1308.797	1053.581
129.410	23.742	1307.798	1052.159
130.424	23.759	1307.651	1052.045
131.439	23.859	1306.579	1051.681
132.454	23.681	1306.288	1050.305
133.468	23.812	1304.712	1049.718
134.483	23.854	1304.586	1049.769
135.497	23.775	1303.319	1048.189
136.512	23.746	1302.635	1047.380
137.527	23.867	1301.112	1046.774
138.541	23.754	1300.047	1045.162
139.556	23.654	1299.024	1043.659
140.570	23.737	1298.025	1043.248
141.585	23.819	1296.714	1042.581
142.600	23.695	1296.125	1041.291
143.614	23.849	1294.835	1041.067
144.629	23.774	1294.467	1040.237
145.643	23.705	1293.012	1038.575
146.658	23.617	1292.064	1037.203
147.673	23.644	1291.053	1036.461
148.687	23.661	1289.626	1035.324
149.702	23.574	1288.761	1034.030
150.716	23.641	1287.794	1033.550
151.731	23.771	1286.570	1033.237
152.746	23.775	1285.569	1032.359
153.760	23.808	1284.486	1031.594
154.775	23.741	1283.716	1030.494
155.789	23.778	1282.797	1029.882
156.804	23.682	1281.987	1028.583
157.819	23.638	1281.096	1027.522
158.833	23.724	1280.653	1027.575
159.848	23.679	1280.082	1026.766
160.862	23.866	1278.886	1026.794
161.877	23.778	1278.076	1025.543
162.892	23.871	1277.318	1025.382
163.906	23.894	1276.693	1024.920
164.921	23.929	1276.023	1024.494
165.935	23.894	1275.184	1023.527
166.950	23.848	1274.279	1022.445
167.964	23.816	1273.910	1021.880
168.979	23.891	1273.583	1021.955
169.994	23.897	1272.286	1020.857
171.008	23.823	1272.162	1020.244
172.023	23.815	1271.164	1019.306
173.037	23.857	1270.739	1019.117
174.052	23.877	1269.436	1018.094
175.067	23.815	1269.124	1017.404
176.081	23.955	1268.177	1017.353
177.096	23.863	1267.337	1016.065
178.110	23.942	1266.418	1015.686
179.125	23.960	1264.966	1014.537
180.140	23.907	1264.432	1013.714
181.154	23.852	1263.093	1012.240
182.169	23.870	1262.342	1011.651
183.183	23.882	1261.285	1010.780
184.198	23.878	1260.053	1009.684
185.213	23.867	1259.656	1009.214
186.227	24.022	1258.165	1008.810
187.242	24.064	1257.236	1008.210
188.256	23.992	1256.363	1007.013
189.271	23.963	1255.769	1006.285
190.286	24.009	1255.203	1006.003
191.300	23.948	1254.658	1005.130
192.315	23.937	1254.082	1004.522
193.329	23.939	1253.628	1004.078
194.344	24.058	1252.650	1003.880
195.359	24.059	1252.592	1003.747
196.373	24.026	1251.813	1002.849
197.388	23.907	1251.414	1001.771
198.402	24.017	1250.746	1001.768
199.417	23.962	1250.745	1001.368
200.432	23.956	1250.072	1000.706
201.446	23.940	1249.717	1000.241
202.461	24.015	1248.492	999.593
203.475	24.022	1247.873	999.053
204.490	24.021	1246.748	998.058
205.504	24.043	1245.647	997.210
206.519	24.055	1244.727	996.452
207.534	24.027	1243.771	995.441
208.548	23.986	1243.176	994.645
209.563	24.009	1242.558	994.192
210.577	24.105	1241.259	993.603
211.592	24.117	1240.191	992.725
212.607	24.083	1240.294	992.532
213.621	24.044	1239.440	991.541
214.636	24.099	1238.431	990.954
215.650	24.194	1237.632	990.756
216.665	24.080	1236.626	989.229
217.680	24.111	1235.591	988.489
218.694	24.168	1234.955	988.204
219.709	24.108	1234.399	987.340
220.723	24.145	1233.277	986.562
221.738	24.141	1232.396	985.749
222.753	24.092	1232.015	985.086
223.767	24.122	1231.423	984.687
224.782	24.118	1231.317	984.497
225.796	24.186	1230.414	984.062
226.811	24.253	1229.598	983.693
227.826	24.215	1228.725	982.697
228.840	24.224	1228.752	982.684
229.855	24.223	1227.869	981.880
230.869	24.262	1227.272	981.534
231.884	24.129	1226.219	979.873
232.899	24.181	1225.712	979.664
233.913	24.170	1225.163	979.078
234.928	24.260	1224.297	978.797
235.942	24.263	1224.202	978.647
236.957	24.260	1223.147	977.705
237.972	24.245	1222.314	976.871
238.986	24.281	1221.941	976.682
240.001	24.276	1221.270	976.033
241.015	24.414	1220.489	976.077
242.030	24.341	1219.867	975.093
243.045	24.351	1218.780	974.192
244.059	24.398	1217.908	973.665
245.074	24.471	1217.075	973.309
246.088	24.381	1216.760	972.482
247.103	24.257	1216.189	971.266
248.117	24.366	1215.172	970.958
249.132	24.390	1214.016	970.083
250.147	24.413	1213.509	969.713
251.161	24.336	1213.041	968.836
252.176	24.376	1212.478	968.516
253.190	24.453	1211.568	968.122
254.205	24.584	1210.682	968.038
255.220	24.477	1210.474	967.208
256.234	24.453	1210.039	966.648
257.249	24.413	1209.244	965.706
258.263	24.526	1208.692	965.791
259.278	24.477	1207.986	964.877
260.293	24.392	1207.843	964.219
261.307	24.495	1207.230	964.201
262.322	24.541	1206.200	963.542
263.336	24.479	1205.662	962.694
264.351	24.444	1205.300	962.131
265.366	24.396	1204.729	961.327
266.380	24.453	1203.917	960.905
267.395	24.538	1203.262	960.753
268.409	24.378	1202.706	959.366
269.424	24.383	1202.598	959.220
270.439	24.497	1201.607	958.957
271.453	24.606	1200.769	958.790
272.468	24.481	1199.997	957.417
273.482	24.400	1199.544	956.537
274.497	24.554	1198.769	956.656
275.512	24.533	1198.323	956.103
276.526	24.538	1197.442	955.344
277.541	24.575	1196.906	955.031
278.555	24.640	1196.481	954.954
279.570	24.624	1195.390	953.915
280.585	24.655	1194.551	953.322
281.599	24.582	1193.698	952.168
282.614	24.753	1192.257	951.845
283.628	24.630	1192.143	951.017
284.643	24.696	1190.985	950.362
285.657	24.647	1190.226	949.408
286.672	24.569	1189.808	948.578
287.687	24.750	1188.350	948.293
288.701	24.703	1188.296	947.914
289.716	24.788	1187.084	947.315
290.730	24.746	1186.564	946.596
291.745	24.786	1185.760	946.081
292.760	24.716	1185.253	945.222
293.774	24.845	1184.642	945.333
294.789	24.817	1184.312	944.839
295.803	24.779	1183.980	944.287
296.818	24.803	1182.840	943.422
297.833	24.892	1182.396	943.454
298.847	24.909	1181.401	942.666
299.862	24.819	1180.543	941.425
300.876	24.714	1180.571	940.809
301.891	24.930	1179.563	941.057
302.906	24.956	1178.761	940.473
303.920	24.942	1178.406	940.033
304.935	24.869	1177.649	938.965
305.949	24.863	1176.828	938.196
306.964	24.770	1176.537	937.389
307.979	24.929	1175.961	937.685
308.993	24.918	1175.261	936.983
310.008	25.006	1174.562	936.806
311.022	24.841	1173.676	935.152
312.037	25.002	1172.857	935.255
313.052	24.991	1171.722	934.212
314.066	24.907	1170.889	933.026
315.081	25.022	1170.628	933.338
316.095	24.908	1169.950	932.122
317.110	25.041	1168.892	931.887
318.125	24.950	1168.670	931.154
319.139	24.897	1168.236	930.452
320.154	25.075	1167.566	930.757
321.168	25.079	1166.743	930.039
322.183	24.999	1166.076	929.009
323.197	24.973	1165.904	928.660
324.212	25.082	1165.000	928.421
325.227	25.061	1164.641	927.942
326.241	25.145	1163.718	927.563
327.256	25.115	1163.107	926.838
328.270	25.109	1162.461	926.210
329.285	25.062	1161.491	925.110
330.300	25.104	1160.948	924.814
331.314	25.175	1160.005	924.346
332.329	25.250	1159.006	923.856
333.343	25.211	1158.421	923.107
334.358	25.193	1157.519	922.212
335.373	25.187	1157.063	921.736
336.387	25.171	1156.553	921.169
337.402	25.259	1155.585	920.766
338.416	25.275	1154.786	920.130
339.431	25.233	1154.245	919.403
340.446	25.336	1153.883	919.559
341.460	25.184	1153.604	918.478
342.475	25.360	1152.217	918.193
343.489	25.353	1151.389	917.416
344.504	25.327	1150.734	916.678
345.519	25.395	1149.747	916.159
346.533	25.322	1148.797	914.951
347.548	25.349	1148.457	914.734
348.562	25.336	1147.571	913.881
349.577	25.335	1146.764	913.153
350.592	25.237	1146.033	911.991
351.606	25.295	1145.123	911.482
352.621	25.392	1145.183	911.943
353.635	25.331	1144.085	910.678
354.650	25.278	1144.006	910.264
355.665	25.383	1143.321	910.172
356.679	25.497	1142.379	909.916
357.694	25.495	1141.641	909.239
358.708	25.591	1140.695	908.890
359.723	25.322	1140.366	907.191
360.738	25.384	1139.514	906.744
361.752	25.418	1139.149	906.545
362.767	25.344	1138.959	905.943
363.781	25.438	1138.299	905.812
364.796	25.527	1137.415	905.473
365.810	25.424	1136.800	904.383
366.825	25.538	1136.243	904.439
367.840	25.609	1135.794	904.354
368.854	25.572	1135.046	903.495
369.869	25.643	1134.468	903.310
370.883	25.597	1133.848	902.506
371.898	25.720	1132.264	901.781
372.913	25.651	1132.179	901.289
373.927	25.534	1132.109	900.569
374.942	25.628	1131.291	900.308
375.956	25.617	1130.903	899.862
376.971	25.617	1130.494	899.460
377.986	25.582	1130.036	898.842
379.000	25.676	1129.757	899.009
380.015	25.642	1128.894	898.074
381.029	25.707	1128.046	897.640
382.044	25.653	1127.422	896.799
383.059	25.737	1126.512	896.411
384.073	25.660	1126.032	895.566
385.088	25.670	1125.194	894.874
386.102	25.816	1124.253	894.770
387.117	25.749	1123.294	893.597
388.132	25.822	1122.375	893.144
389.146	25.873	1121.710	892.790
390.161	25.750	1121.339	891.806
391.175	25.866	1120.619	891.731
392.190	25.947	1119.786	891.389
393.205	25.813	1119.261	890.232
394.219	25.882	1118.334	889.755
395.234	25.900	1117.935	889.446
396.248	25.996	1116.775	888.917
397.263	25.939	1115.756	887.746
398.278	25.931	1115.764	887.635
399.292	26.005	1114.754	887.119
400.307	26.050	1114.171	886.799
401.321	25.968	1113.413	885.713
402.336	25.900	1112.831	884.839
403.350	25.938	1112.219	884.457
404.365	26.019	1111.849	884.483
405.380	26.098	1110.937	884.067
406.394	26.086	1110.212	883.352
407.409	26.042	1109.421	882.431
408.423	26.107	1108.763	882.147
409.438	26.017	1107.928	880.963
410.453	26.119	1107.302	880.885
411.467	26.053	1106.656	879.975
412.482	26.119	1105.909	879.624
413.496	26.194	1105.277	879.406
414.511	26.160	1104.984	878.931
415.526	26.125	1104.067	877.954
416.540	26.099	1104.049	877.735
417.555	26.211	1102.938	877.317
418.569	26.167	1102.991	877.071
419.584	26.055	1102.654	876.181
420.599	26.141	1102.255	876.204
421.613	146.664	1402.765	1794.677
422.628	136.069	1446.558	1794.766
