DTS Sentinel unit serial number:	SN413079Multiplexer serial number:	ORYXHardware model number:	OX4-SRSoftware version number:	ORYX F/W v4.00 Oryx Data Collector v3.7.2.0data status	okinstallation	princeton_trtdifferential loss correction	single-endedforward channel	channel 2reverse channel	N/Adate	2019/09/12time	05:45:11forward acquisition time	60.00reverse acquisition time	0.00gamma	496.2192k internal	0.2325k external	0.2325temperature offset calibration	1.0062default loss term (dB/km)	0.3790temperature slope calibration	1.0000multiplexer offset coefficient	1.0000multiplexer slope coefficient	1.0000fibre end	0.00T internal ref (°C)	32.00T ext. ref 1 (°C)	1.58T ext. ref 2 (°C)	27.51length (m)	temperature (°C)	Stokes	anti-Stokes-747.200	-98.856	-0.318	-0.082
-746.185	399.844	0.209	0.443
-745.171	-67.383	0.314	-0.125
-744.156	295.896	-0.156	0.289
-743.142	-200.000	0.041	-0.406
-742.127	444.387	-0.311	0.688
-741.112	-41.213	-0.167	0.087
-740.098	-65.224	-0.296	0.120
-739.083	32.821	-0.179	-0.156
-738.069	800.000	0.029	0.087
-737.054	-200.000	0.002	-0.168
-736.039	41.191	-0.112	0.102
-735.025	30.615	0.305	0.263
-734.010	-151.720	-0.259	-0.019
-732.996	313.109	-0.145	-0.275
-731.981	-99.034	0.254	-0.065
-730.966	48.276	-0.239	-0.225
-729.952	-200.000	-0.053	0.291
-728.937	-78.443	0.065	0.022
-727.923	-12.594	-0.106	0.070
-726.908	-200.000	0.042	0.309
-725.894	99.715	-0.152	-0.178
-724.879	241.279	-0.171	-0.288
-723.864	-76.211	-0.259	-0.092
-722.850	-77.165	-0.238	-0.083
-721.835	318.558	0.036	-0.069
-720.821	276.923	0.033	-0.060
-719.806	-86.128	-0.153	0.048
-718.791	69.956	-0.168	0.174
-717.777	-62.061	0.236	0.099
-716.762	-46.159	-0.238	0.118
-715.748	800.000	-0.026	0.100
-714.733	148.222	0.138	-0.187
-713.718	-2.048	-0.163	-0.116
-712.704	136.100	0.118	-0.155
-711.689	331.487	-0.008	0.016
-710.675	657.305	0.036	0.092
-709.660	47.973	0.220	-0.207
-708.645	91.610	0.226	-0.256
-707.631	-200.000	-0.019	0.148
-706.616	-136.016	-0.207	0.024
-705.602	-200.000	0.052	0.295
-704.587	114.120	-0.221	-0.271
-703.572	-67.855	0.143	0.056
-702.558	-167.747	0.018	0.001
-701.543	247.432	-0.069	-0.117
-700.529	100.216	0.284	-0.332
-699.514	800.000	-0.011	-0.043
-698.499	-93.207	0.210	-0.059
-697.485	-104.528	0.037	0.009
-696.470	-156.113	0.143	-0.009
-695.456	697.825	0.127	0.336
-694.441	182.831	0.118	-0.176
-693.426	-21.225	0.102	0.063
-692.412	-200.000	-0.007	-0.174
-691.397	-200.000	0.004	0.051
-690.383	333.144	-0.184	0.357
-689.368	-0.785	-0.337	-0.240
-688.354	101.878	-0.154	-0.181
-687.339	401.021	-0.075	-0.159
-686.324	74.317	-0.080	0.085
-685.310	-200.000	-0.015	0.098
-684.295	26.140	0.198	0.166
-683.281	-172.297	-0.289	-0.009
-682.266	-200.000	0.001	-0.075
-681.251	-105.413	0.424	0.097
-680.237	84.875	-0.188	-0.208
-679.222	188.069	0.182	-0.274
-678.208	800.000	0.099	-0.434
-677.193	183.472	-0.129	-0.192
-676.178	800.000	-0.090	0.323
-675.164	-124.977	0.459	0.071
-674.149	386.311	-0.116	0.240
-673.135	-25.466	0.375	-0.223
-672.120	-200.000	0.003	-0.017
-671.105	-9.439	0.226	-0.152
-670.091	-149.161	-0.162	0.013
-669.076	-200.000	-0.024	0.153
-668.062	-200.000	0.001	0.010
-667.047	-40.973	0.304	-0.158
-666.032	-28.833	-0.424	-0.245
-665.018	800.000	-0.080	0.237
-664.003	2.394	-0.288	-0.209
-662.989	480.293	0.148	0.337
-661.974	800.000	-0.031	-0.129
-660.959	54.709	-0.199	-0.193
-659.945	71.349	-0.198	0.206
-658.930	-200.000	0.002	-0.430
-657.916	-116.744	-0.470	-0.087
-656.901	-86.345	0.376	-0.116
-655.886	-200.000	0.003	-0.032
-654.872	266.459	-0.179	0.315
-653.857	81.116	-0.097	0.106
-652.843	23.632	-0.207	0.171
-651.828	-200.000	-0.038	0.254
-650.814	-92.680	-0.358	-0.101
-649.799	55.662	-0.082	-0.080
-648.784	179.127	-0.130	-0.191
-647.770	-200.000	0.044	0.204
-646.755	-200.000	-0.066	-0.425
-645.741	104.307	0.234	0.277
-644.726	120.658	0.177	0.222
-643.711	104.539	-0.215	-0.255
-642.697	800.000	0.071	-0.253
-641.682	74.206	-0.240	-0.253
-640.668	800.000	0.120	0.457
-639.653	-115.510	-0.351	0.066
-638.638	-30.351	0.229	-0.131
-637.624	247.295	0.184	-0.311
-636.609	-200.000	-0.011	-0.121
-635.595	-200.000	-0.010	0.304
-634.580	800.000	-0.167	0.506
-633.565	-1.368	0.202	-0.143
-632.551	779.557	-0.120	-0.329
-631.536	-200.000	-0.044	-0.359
-630.522	352.863	0.146	0.290
-629.507	-89.962	-0.122	0.036
-628.492	-150.270	-0.191	-0.015
-627.478	-200.000	-0.010	-0.137
-626.463	91.320	-0.056	-0.063
-625.449	1.125	-0.018	-0.013
-624.434	48.827	-0.226	-0.213
-623.419	304.637	0.033	0.061
-622.405	-94.714	-0.187	-0.051
-621.390	748.176	0.013	-0.034
-620.376	-13.730	-0.309	0.201
-619.361	-84.170	0.190	0.061
-618.346	180.906	0.123	0.182
-617.332	-92.719	-0.084	-0.023
-616.317	-6.201	0.266	0.182
-615.303	27.140	0.263	0.222
-614.288	-125.402	0.302	-0.046
-613.273	716.095	-0.105	-0.281
-612.259	-97.600	-0.307	-0.080
-611.244	-142.720	-0.266	0.026
-610.230	-200.000	0.018	-0.135
-609.215	123.312	-0.082	-0.103
-608.201	0.348	-0.254	0.182
-607.186	-157.523	-0.083	0.005
-606.171	121.545	0.058	0.072
-605.157	-200.000	0.024	0.195
-604.142	662.805	0.064	-0.166
-603.128	19.848	-0.395	0.319
-602.113	-200.000	-0.025	-0.195
-601.098	34.647	-0.049	0.043
-600.084	21.167	0.196	0.160
-599.069	-125.180	-0.045	-0.007
-598.055	3.012	-0.170	-0.124
-597.040	-18.024	0.146	0.092
-596.025	372.050	-0.145	-0.295
-595.011	-130.523	-0.470	-0.064
-593.996	800.000	-0.065	-0.182
-592.982	237.994	-0.157	0.261
-591.967	-120.317	-0.356	-0.061
-590.952	-40.554	-0.082	-0.043
-589.938	-200.000	0.028	-0.228
-588.923	-62.410	0.082	-0.034
-587.909	413.018	0.043	-0.091
-586.894	-200.000	-0.031	-0.226
-585.879	152.756	-0.194	0.266
-584.865	80.805	-0.101	0.109
-583.850	-147.680	0.271	-0.023
-582.836	800.000	0.033	0.129
-581.821	14.140	-0.146	-0.114
-580.806	-200.000	0.016	-0.271
-579.792	203.053	-0.096	0.149
-578.777	-11.373	-0.154	0.101
-577.763	-162.552	-0.094	0.005
-576.748	-16.328	0.196	0.125
-575.733	78.888	0.285	0.306
-574.719	-105.690	-0.245	0.055
-573.704	153.592	0.181	-0.248
-572.690	-55.736	0.197	0.088
-571.675	800.000	-0.047	0.141
-570.661	-69.197	-0.117	-0.045
-569.646	-122.386	0.329	-0.054
-568.631	-200.000	0.025	-0.121
-567.617	-159.351	0.240	-0.013
-566.602	-200.000	0.095	-0.471
-565.588	288.578	-0.037	-0.066
-564.573	10.431	0.102	0.078
-563.558	127.537	-0.281	-0.358
-562.544	782.951	0.061	0.166
-561.529	-76.552	-0.286	-0.100
-560.515	443.597	0.105	-0.231
-559.500	214.843	-0.217	0.344
-558.485	191.026	0.087	0.132
-557.471	143.735	-0.215	0.287
-556.456	307.875	0.132	-0.246
-555.442	-44.767	0.233	-0.117
-554.427	-149.076	-0.051	0.004
-553.412	-101.755	0.279	-0.068
-552.398	10.302	-0.217	-0.166
-551.383	800.000	0.084	-0.311
-550.369	-64.887	0.489	0.198
-549.354	362.878	0.069	-0.138
-548.339	-20.754	0.105	-0.065
-547.325	146.736	0.220	0.296
-546.310	-46.781	-0.083	-0.041
-545.296	-102.756	-0.122	0.029
-544.281	115.348	0.268	-0.328
-543.266	-167.353	-0.170	0.007
-542.252	-127.183	0.177	0.026
-541.237	-47.230	0.321	-0.156
-540.223	547.463	-0.030	-0.073
-539.208	-67.216	0.110	-0.043
-538.193	-200.000	0.025	-0.212
-537.179	305.210	-0.061	-0.113
-536.164	-143.038	-0.072	0.007
-535.150	-36.622	-0.218	-0.117
-534.135	36.361	0.223	0.197
-533.121	800.000	0.024	0.099
-532.106	424.906	-0.079	-0.170
-531.091	133.995	-0.301	0.390
-530.077	-200.000	-0.004	-0.020
-529.062	49.402	0.071	0.067
-528.048	52.406	-0.130	-0.124
-527.033	76.526	0.068	0.072
-526.018	-178.968	0.143	0.003
-525.004	-25.449	0.223	-0.132
-523.989	-200.000	-0.005	0.097
-522.975	-139.449	-0.411	-0.044
-521.960	84.952	-0.247	0.270
-520.945	300.895	-0.092	-0.169
-519.931	800.000	-0.104	-0.320
-518.916	-128.870	0.333	-0.047
-517.902	46.239	-0.087	0.080
-516.887	-200.000	-0.005	-0.412
-515.872	-179.945	0.203	-0.004
-514.858	-178.883	0.178	0.004
-513.843	733.076	-0.062	0.165
-512.829	-84.999	-0.205	0.064
-511.814	-115.428	-0.184	-0.035
-510.799	74.596	-0.144	-0.151
-509.785	450.672	-0.108	-0.239
-508.770	122.205	0.135	-0.169
-507.756	40.756	-0.198	-0.179
-506.741	-30.802	0.326	-0.184
-505.726	800.000	-0.044	0.166
-504.712	160.202	-0.211	-0.295
-503.697	204.341	0.056	-0.087
-502.683	136.286	0.086	0.112
-501.668	-200.000	-0.025	0.160
-500.653	-28.071	0.087	-0.051
-499.639	-200.000	0.074	-0.375
-498.624	800.000	0.056	-0.193
-497.610	-200.000	-0.055	-0.486
-496.595	46.654	-0.324	0.301
-495.581	181.856	-0.042	-0.062
-494.566	-122.012	0.171	0.028
-493.551	800.000	0.066	0.225
-492.537	800.000	-0.023	0.085
-491.522	142.865	-0.038	0.051
-490.508	120.211	-0.190	0.236
-489.493	29.242	0.108	0.092
-488.478	46.071	-0.161	0.149
-487.464	-125.808	0.324	0.049
-486.449	-181.214	-0.111	-0.002
-485.435	-13.409	-0.218	0.141
-484.420	16.742	-0.347	-0.274
-483.405	800.000	0.003	-0.009
-482.391	-100.151	0.163	0.041
-481.376	-109.271	0.297	-0.063
-480.362	-200.000	0.022	-0.210
-479.347	-200.000	-0.030	-0.213
-478.332	101.923	0.152	-0.177
-477.318	-200.000	-0.035	-0.277
-476.303	-127.548	0.393	-0.057
-475.289	-46.375	0.079	-0.039
-474.274	-62.601	-0.207	0.086
-473.259	-8.284	-0.058	0.039
-472.245	800.000	-0.045	-0.139
-471.230	-56.481	0.212	-0.094
-470.216	96.148	-0.268	0.305
-469.201	76.906	0.194	0.206
-468.186	-135.374	-0.306	-0.036
-467.172	-200.000	0.015	-0.211
-466.157	337.639	0.052	-0.102
-465.143	-200.000	-0.033	0.290
-464.128	-11.912	-0.114	-0.074
-463.113	18.852	-0.118	-0.094
-462.099	11.407	-0.104	-0.080
-461.084	137.966	-0.146	0.191
-460.070	179.371	0.168	0.246
-459.055	800.000	-0.014	-0.050
-458.040	120.655	-0.273	-0.338
-457.026	-108.581	0.071	-0.015
-456.011	112.514	-0.143	0.172
-454.997	-60.274	0.143	0.061
-453.982	-200.000	0.018	-0.157
-452.968	-122.305	0.037	0.006
-451.953	800.000	-0.072	-0.206
-450.938	-106.851	-0.170	0.038
-449.924	800.000	-0.073	0.247
-448.909	291.569	-0.104	-0.190
-447.895	-156.799	-0.163	0.010
-446.880	-200.000	-0.040	0.309
-445.865	487.599	-0.055	0.125
-444.851	-148.865	-0.083	-0.007
-443.836	-9.132	0.325	0.217
-442.822	-200.000	-0.046	0.411
-441.807	-171.309	-0.137	-0.005
-440.792	547.449	-0.072	0.171
-439.778	-35.928	-0.303	-0.163
-438.763	186.799	-0.036	0.054
-437.749	706.038	0.022	0.059
-436.734	98.327	0.131	-0.150
-435.719	-34.307	-0.205	0.112
-434.705	76.629	-0.172	0.181
-433.690	-126.093	-0.204	-0.031
-432.676	-100.044	0.464	-0.115
-431.661	-103.799	-0.132	0.031
-430.646	-200.000	-0.029	0.147
-429.632	-200.000	-0.002	0.126
-428.617	-200.000	0.039	0.311
-427.603	800.000	0.035	-0.098
-426.588	-34.522	0.196	-0.107
-425.573	7.056	0.210	0.156
-424.559	-200.000	-0.002	-0.199
-423.544	-142.276	-0.070	-0.007
-422.530	800.000	-0.031	0.087
-421.515	-58.993	0.154	0.066
-420.500	102.291	0.133	-0.154
-419.486	-200.000	0.021	0.110
-418.471	188.845	0.125	0.187
-417.457	183.405	-0.213	0.314
-416.442	-123.937	0.240	-0.038
-415.428	493.983	-0.123	-0.281
-414.413	0.564	-0.120	-0.085
-413.398	295.707	-0.130	-0.237
-412.384	-94.416	0.239	-0.065
-411.369	-19.872	0.134	-0.083
-410.355	129.909	-0.253	-0.323
-409.340	-200.000	-0.002	-0.092
-408.325	172.180	0.169	-0.242
-407.311	800.000	0.030	0.091
-406.296	-164.920	0.233	0.010
-405.282	762.584	0.127	-0.344
-404.267	-106.330	0.166	-0.037
-403.252	-60.597	-0.108	-0.046
-402.238	102.411	0.180	-0.209
-401.223	654.645	-0.170	-0.435
-400.209	82.431	-0.100	0.108
-399.194	-200.000	-0.021	0.360
-398.179	209.196	0.068	-0.106
-397.165	-17.001	0.221	0.139
-396.150	19.584	-0.236	-0.189
-395.136	84.591	-0.104	0.113
-394.121	309.318	-0.080	-0.148
-393.106	-200.000	0.019	0.168
-392.092	-41.758	-0.088	-0.045
-391.077	-125.254	0.191	0.029
-390.063	-129.215	-0.318	-0.044
-389.048	-34.919	0.257	-0.139
-388.033	-16.780	-0.192	0.121
-387.019	-22.075	-0.221	0.133
-386.004	-200.000	0.015	-0.080
-384.990	128.092	0.156	0.197
-383.975	800.000	-0.050	-0.179
-382.960	-197.776	0.252	0.002
-381.946	-49.433	0.284	-0.135
-380.931	76.202	0.159	0.167
-379.917	58.094	-0.238	0.232
-378.902	-200.000	-0.017	-0.076
-377.888	92.384	-0.088	-0.098
-376.873	-54.343	0.222	-0.100
-375.858	-56.772	-0.088	0.039
-374.844	79.049	-0.043	-0.046
-373.829	273.756	-0.057	-0.101
-372.815	248.249	-0.224	0.376
-371.800	-200.000	0.028	0.303
-370.785	-200.000	0.015	-0.265
-369.771	-200.000	-0.018	-0.099
-368.756	-22.985	0.059	-0.035
-367.742	-200.000	-0.033	-0.262
-366.727	800.000	0.061	0.192
-365.712	800.000	-0.101	0.349
-364.698	-200.000	0.055	0.470
-363.683	509.667	0.061	0.141
-362.669	-168.990	-0.211	-0.008
-361.654	136.887	0.304	0.395
-360.639	-76.082	-0.118	-0.042
-359.625	-30.105	0.310	-0.175
-358.610	-2.179	-0.208	-0.145
-357.596	-80.305	-0.289	0.096
-356.581	145.939	-0.096	0.128
-355.566	193.537	0.120	-0.181
-354.552	593.772	0.105	0.258
-353.537	413.795	0.150	0.318
-352.523	428.242	0.145	-0.312
-351.508	103.311	0.142	-0.165
-350.493	800.000	0.048	0.173
-349.479	217.798	0.058	0.092
-348.464	143.238	0.049	-0.064
-347.450	149.354	0.121	0.162
-346.435	-11.804	-0.199	-0.130
-345.420	-96.360	-0.088	0.023
-344.406	-200.000	-0.019	0.168
-343.391	-52.949	0.157	0.072
-342.377	-200.000	-0.020	-0.217
-341.362	-200.000	0.013	-0.107
-340.348	672.078	-0.048	0.123
-339.333	531.312	0.090	-0.211
-338.318	-168.167	0.249	-0.010
-337.304	285.611	-0.098	-0.175
-336.289	29.002	-0.039	-0.033
-335.275	-200.000	0.001	-0.016
-334.260	46.161	-0.187	-0.172
-333.245	800.000	-0.124	-0.377
-332.231	-86.662	0.108	0.033
-331.216	157.033	-0.034	0.047
-330.202	298.102	-0.108	-0.198
-329.187	-88.567	0.283	0.084
-328.172	800.000	-0.018	-0.065
-327.158	568.024	-0.056	0.136
-326.143	90.915	-0.142	-0.158
-325.129	108.836	-0.125	-0.148
-324.114	-200.000	0.021	-0.104
-323.099	-5.737	-0.175	0.119
-322.085	228.653	0.345	-0.558
-321.070	-146.509	0.560	0.048
-320.056	477.806	-0.057	0.127
-319.041	-94.859	0.204	0.055
-318.026	500.813	0.134	0.306
-317.012	-13.329	0.230	0.148
-315.997	221.336	-0.095	0.152
-314.983	-176.132	-0.217	-0.006
-313.968	-200.000	0.003	0.060
-312.953	419.693	-0.087	0.184
-311.939	207.120	-0.083	0.128
-310.924	-9.520	0.292	0.193
-309.910	-85.306	0.062	0.019
-308.895	-29.307	0.164	0.093
-307.880	-200.000	0.041	0.252
-306.866	-137.832	-0.135	0.015
-305.851	311.984	-0.078	-0.145
-304.837	298.656	-0.103	-0.187
-303.822	-6.188	0.451	-0.305
-302.807	19.192	0.322	-0.257
-301.793	131.061	0.117	0.149
-300.778	-19.812	0.276	-0.169
-299.764	-200.000	0.051	-0.272
-298.749	-122.968	-0.427	0.068
-297.735	800.000	0.014	-0.046
-296.720	-111.717	0.117	-0.023
-295.705	-5.650	-0.159	-0.108
-294.691	-38.512	-0.208	-0.109
-293.676	134.728	0.130	-0.167
-292.662	205.475	-0.108	0.166
-291.647	-98.876	0.129	-0.032
-290.632	-64.387	-0.199	0.080
-289.618	75.072	0.224	-0.234
-288.603	223.810	-0.162	0.259
-287.589	308.614	-0.170	0.315
-286.574	-200.000	0.017	0.124
-285.559	5.280	0.139	-0.101
-284.545	-137.055	-0.114	-0.013
-283.530	800.000	0.061	0.183
-282.516	151.561	-0.087	-0.118
-281.501	-71.661	-0.335	-0.124
-280.486	-40.125	-0.232	-0.120
-279.472	203.202	-0.217	-0.332
-278.457	263.867	0.152	0.263
-277.443	800.000	0.105	0.293
-276.428	14.681	-0.058	-0.045
-275.413	-125.548	-0.118	-0.018
-274.399	800.000	-0.058	0.199
-273.384	153.299	-0.276	0.375
-272.370	151.368	-0.084	0.113
-271.355	800.000	0.061	0.211
-270.340	-200.000	0.000	-0.062
-269.326	-200.000	-0.010	-0.095
-268.311	-20.134	-0.135	-0.083
-267.297	-0.413	-0.202	0.142
-266.282	-200.000	0.032	0.320
-265.267	-200.000	0.041	-0.227
-264.253	481.659	-0.029	0.065
-263.238	29.448	0.201	-0.169
-262.224	692.374	-0.029	0.076
-261.209	-11.792	-0.221	-0.144
-260.195	-160.996	-0.141	-0.007
-259.180	157.444	-0.196	0.269
-258.165	-99.175	0.174	0.043
-257.151	-200.000	0.139	-0.000
-256.136	-147.097	0.328	-0.028
-255.122	150.045	0.065	0.087
-254.107	-63.318	-0.231	-0.094
-253.092	2.394	-0.085	0.061
-252.078	-200.000	-0.021	0.142
-251.063	181.013	0.289	0.420
-250.049	800.000	-0.106	0.317
-249.034	-41.450	-0.330	0.168
-248.019	-200.000	-0.002	0.095
-247.005	33.699	0.336	0.289
-245.990	258.726	0.036	0.061
-244.976	800.000	0.084	0.324
-243.961	138.622	-0.120	-0.156
-242.946	-145.857	0.288	-0.025
-241.932	-51.899	0.133	-0.061
-240.917	-200.000	-0.010	-0.064
-239.903	520.824	0.190	0.442
-238.888	-5.676	-0.080	0.054
-237.873	31.812	-0.243	0.207
-236.859	-120.479	0.186	-0.031
-235.844	33.912	-0.093	-0.080
-234.830	800.000	-0.042	-0.165
-233.815	-200.000	-0.009	0.229
-232.800	-28.288	-0.179	0.102
-231.786	21.239	0.338	0.271
-230.771	-117.342	-0.033	-0.006
-229.757	-200.000	-0.040	0.202
-228.742	-178.638	0.211	0.005
-227.727	-200.000	0.044	-0.344
-226.713	-104.245	0.216	-0.050
-225.698	-45.936	-0.061	0.030
-224.684	-75.820	0.203	0.071
-223.669	-118.160	-0.235	-0.041
-222.655	-15.988	0.221	0.139
-221.640	-104.687	-0.122	0.028
-220.625	800.000	-0.147	-0.485
-219.611	-200.000	-0.035	-0.209
-218.596	-128.166	0.194	-0.027
-217.582	-200.000	-0.010	0.289
-216.567	-138.393	-0.170	-0.019
-215.552	-182.108	0.361	-0.007
-214.538	427.893	0.071	0.151
-213.523	-96.536	-0.314	0.082
-212.509	-200.000	-0.001	-0.190
-211.494	-3.050	0.184	0.127
-210.479	-200.000	-0.010	-0.050
-209.465	-200.000	-0.034	-0.382
-208.450	-60.031	0.164	0.069
-207.436	66.993	-0.081	-0.081
-206.421	631.462	0.048	-0.119
-205.406	6.574	0.418	-0.307
-204.392	204.177	-0.102	0.157
-203.377	-62.828	0.185	0.076
-202.363	180.152	0.138	-0.200
-201.348	-200.000	-0.034	-0.151
-200.333	250.662	-0.039	0.065
-199.319	66.663	-0.291	-0.292
-198.304	82.100	-0.173	0.186
-197.290	-200.000	-0.061	0.265
-196.275	2.764	0.279	-0.200
-195.260	-200.000	0.030	0.210
-194.246	-17.038	0.228	-0.142
-193.231	800.000	0.051	-0.192
-192.217	-200.000	0.034	-0.185
-191.202	27.774	-0.150	0.125
-190.187	-200.000	0.010	0.225
-189.173	245.010	0.068	-0.112
-188.158	-200.000	-0.032	-0.141
-187.144	363.540	-0.133	-0.264
-186.129	-152.461	-0.077	-0.005
-185.114	74.649	-0.060	-0.062
-184.100	-200.000	-0.012	0.062
-183.085	162.694	-0.043	-0.060
-182.071	279.176	-0.056	0.099
-181.056	800.000	0.168	-0.534
-180.042	-36.946	0.351	0.186
-179.027	-200.000	0.026	0.174
-178.012	-107.689	0.021	0.004
-176.998	800.000	-0.037	0.112
-175.983	800.000	0.074	0.245
-174.969	-200.000	-0.002	-0.128
-173.954	-112.378	0.296	-0.058
-172.939	800.000	-0.039	0.147
-171.925	8.225	0.245	0.182
-170.910	56.942	-0.061	0.059
-169.896	-64.623	-0.314	0.126
-168.881	-128.683	0.187	-0.026
-167.866	359.032	-0.061	-0.121
-166.852	8.324	0.281	0.208
-165.837	29.804	-0.194	-0.163
-164.823	800.000	-0.071	0.234
-163.808	800.000	0.058	0.235
-162.793	-23.793	-0.148	0.087
-161.779	98.200	-0.164	0.187
-160.764	-81.207	0.164	0.053
-159.750	167.215	-0.163	0.228
-158.735	274.566	-0.104	0.182
-157.720	-127.607	0.128	-0.018
-156.706	-173.399	-0.198	0.006
-155.691	-40.659	-0.104	-0.053
-154.677	-4.970	-0.295	-0.200
-153.662	-155.409	0.348	-0.022
-152.647	-200.000	-0.022	0.180
-151.633	398.975	0.072	0.150
-150.618	-98.534	0.464	-0.117
-149.604	37.919	0.271	0.238
-148.589	417.137	0.161	0.339
-147.574	336.502	-0.087	-0.167
-146.560	-200.000	-0.014	0.089
-145.545	-77.059	0.331	0.114
-144.531	84.262	-0.138	0.149
-143.516	167.132	0.155	0.217
-142.502	56.997	0.244	0.235
-141.487	110.046	-0.237	0.281
-140.472	-22.377	-0.145	0.086
-139.458	554.316	-0.085	0.201
-138.443	95.750	0.161	0.181
-137.429	-43.197	0.131	-0.065
-136.414	-121.836	0.302	-0.049
-135.399	-29.830	-0.161	-0.090
-134.385	-21.011	-0.130	-0.078
-133.370	-130.089	0.181	-0.024
-132.356	-200.000	-0.030	0.307
-131.341	-200.000	0.046	0.211
-130.326	-68.378	-0.351	0.134
-129.312	-200.000	0.021	-0.116
-128.297	458.438	0.163	-0.357
-127.283	-24.079	0.147	-0.086
-126.268	49.051	-0.167	-0.155
-125.253	-6.230	0.167	-0.113
-124.239	178.517	-0.016	-0.023
-123.224	134.491	0.327	0.418
-122.210	-200.000	0.008	0.095
-121.195	-115.081	0.339	-0.063
-120.180	361.578	0.015	-0.030
-119.166	238.536	0.081	-0.133
-118.151	82.073	-0.098	0.104
-117.137	-200.000	0.026	0.217
-116.122	279.949	-0.095	0.167
-115.107	-108.908	-0.242	0.051
-114.093	33.923	0.196	0.168
-113.078	330.246	-0.082	-0.155
-112.064	42.061	-0.035	-0.032
-111.049	-83.842	-0.028	0.009
-110.034	800.000	0.076	-0.287
-109.020	800.000	0.110	-0.366
-108.005	800.000	0.071	0.242
-106.991	-68.889	0.106	-0.040
-105.976	62.212	0.286	0.281
-104.962	-144.780	-0.194	0.018
-103.947	77.084	0.250	-0.261
-102.932	-135.412	0.551	-0.065
-101.918	-200.000	0.013	0.060
-100.903	-17.145	0.267	0.165
-99.889	-5.487	-0.156	0.106
-98.874	-115.246	0.360	0.067
-97.859	800.000	-0.020	0.069
-96.845	-171.399	0.177	0.006
-95.830	-108.857	-0.191	-0.040
-94.816	343.026	0.070	0.134
-93.801	800.000	0.079	-0.305
-92.786	123.524	-0.065	-0.080
-91.772	-42.875	-0.186	0.093
-90.757	800.000	-0.058	-0.181
-89.743	232.908	-0.104	0.169
-88.728	-25.240	-0.261	0.152
-87.713	-83.226	-0.086	0.027
-86.699	800.000	0.012	-0.035
-85.684	-161.201	0.256	-0.013
-84.670	603.175	-0.107	-0.262
-83.655	-4.035	0.174	0.118
-82.640	297.588	0.088	-0.159
-81.626	-44.279	-0.095	-0.047
-80.611	685.404	-0.091	0.232
-79.597	137.616	0.115	0.148
-78.582	311.478	0.010	0.018
-77.567	-48.053	0.442	0.210
-76.553	131.576	-0.126	-0.159
-75.538	-152.026	0.329	0.024
-74.524	13.727	0.097	-0.074
-73.509	243.875	-0.054	0.088
-72.494	62.187	0.165	-0.162
-71.480	25.109	0.128	-0.105
-70.465	-67.333	0.296	0.114
-69.451	-14.246	0.148	-0.094
-68.436	-91.241	-0.164	-0.046
-67.422	-42.908	-0.302	-0.151
-66.407	468.185	0.087	0.191
-65.392	63.128	-0.242	-0.238
-64.378	-64.578	-0.181	0.072
-63.363	27.316	0.097	0.080
-62.349	204.124	-0.307	0.467
-61.334	129.700	-0.653	-0.820
-60.319	-19.710	0.321	0.195
-59.305	589.257	-0.449	-1.088
-58.290	549.663	0.534	1.258
-57.276	556.132	0.760	1.797
-56.261	-200.000	95.236	594.084
-55.246	570.309	1369.313	3272.384
-54.232	160.761	2557.754	3507.895
-53.217	106.748	2270.362	2646.380
-52.203	41.497	1896.091	1685.617
-51.188	35.209	1686.056	1451.407
-50.173	32.650	1641.798	1394.349
-49.159	49.859	1688.586	1563.520
-48.144	51.514	1704.645	1590.731
-47.130	34.889	1665.498	1431.082
-46.115	32.151	1651.168	1398.366
-45.100	31.931	1646.368	1392.612
-44.086	31.902	1643.624	1390.024
-43.071	31.882	1640.921	1387.537
-42.057	31.902	1638.934	1385.945
-41.042	31.878	1636.711	1383.833
-40.027	31.925	1635.224	1382.870
-39.013	31.903	1632.830	1380.630
-37.998	31.819	1631.359	1378.713
-36.984	31.851	1630.141	1377.864
-35.969	31.984	1628.118	1377.070
-34.954	32.037	1626.625	1376.142
-33.940	32.076	1624.614	1374.677
-32.925	31.928	1623.390	1372.504
-31.911	31.981	1621.874	1371.553
-30.896	31.888	1620.207	1369.405
-29.881	32.008	1618.082	1368.431
-28.867	31.979	1616.217	1366.593
-27.852	32.060	1614.741	1365.875
-26.838	32.024	1613.295	1364.341
-25.823	31.995	1612.531	1363.427
-24.809	32.080	1610.945	1362.652
-23.794	31.955	1609.451	1360.426
-22.779	32.047	1607.995	1359.806
-21.765	31.951	1606.731	1357.987
-20.750	31.907	1604.937	1356.104
-19.736	32.022	1603.155	1355.373
-18.721	32.010	1601.931	1354.199
-17.706	32.092	1600.516	1353.542
-16.692	32.072	1598.618	1351.736
-15.677	32.033	1597.293	1350.282
-14.663	31.994	1596.470	1349.248
-13.648	32.122	1594.943	1348.826
-12.633	32.112	1592.963	1347.026
-11.619	32.082	1591.541	1345.553
-10.604	32.024	1590.366	1344.097
-9.590	32.013	1589.221	1342.991
-8.575	32.091	1587.664	1342.179
-7.560	32.008	1586.798	1340.801
-6.546	32.045	1585.338	1339.784
-5.531	32.063	1584.513	1339.158
-4.517	32.027	1582.812	1337.412
-3.502	31.991	1582.349	1336.709
-2.487	32.067	1580.403	1335.554
-1.473	31.828	1568.788	1323.998
-0.458	29.327	1549.528	1290.219
0.556	25.846	1551.254	1261.349
1.571	23.754	1574.290	1265.085
2.586	23.245	1588.090	1272.404
3.600	20.369	1533.746	1208.766
4.615	10.910	1422.069	1059.305
5.629	3.018	1356.494	961.167
6.644	1.688	1348.752	947.329
7.659	1.579	1347.139	945.428
8.673	1.561	1346.431	944.741
9.688	1.472	1343.843	942.286
10.702	1.266	1340.970	938.914
11.717	4.651	1348.021	964.794
12.731	14.732	1367.197	1041.587
13.746	23.400	1382.173	1107.313
14.761	25.949	1384.461	1124.977
15.775	26.192	1384.829	1126.689
16.790	26.306	1384.783	1127.262
17.804	26.357	1383.589	1126.509
18.819	26.508	1383.723	1127.458
19.834	26.503	1383.683	1127.300
20.848	26.657	1382.255	1126.992
21.863	26.698	1381.438	1126.483
22.877	26.740	1380.412	1125.805
23.892	26.656	1379.463	1124.410
24.907	26.622	1378.883	1123.627
25.921	26.663	1377.992	1123.056
26.936	26.657	1377.160	1122.242
27.950	26.763	1375.894	1121.765
28.965	26.663	1374.645	1120.029
29.980	26.693	1373.593	1119.262
30.994	26.716	1372.630	1118.517
32.009	26.679	1371.074	1116.923
33.023	26.717	1370.198	1116.344
34.038	26.669	1368.937	1114.923
35.053	26.733	1368.008	1114.460
36.067	26.721	1367.078	1113.530
37.082	26.677	1366.301	1112.530
38.096	26.786	1365.145	1112.159
39.111	26.678	1364.737	1111.064
40.126	26.576	1364.367	1110.040
41.140	26.714	1363.451	1110.046
42.155	26.774	1363.220	1110.127
43.169	26.700	1363.216	1109.568
44.184	26.690	1362.589	1108.898
45.199	26.652	1362.540	1108.532
46.213	26.754	1361.474	1108.187
47.228	26.756	1360.740	1107.503
48.242	26.719	1359.805	1106.417
49.257	26.768	1357.882	1105.053
50.271	26.736	1356.785	1103.872
51.286	26.673	1355.805	1102.589
52.301	26.624	1354.737	1101.331
53.315	26.664	1353.632	1100.573
54.330	26.661	1353.185	1100.097
55.344	26.713	1351.526	1098.968
56.359	26.685	1350.441	1097.814
57.374	26.696	1349.631	1097.127
58.388	26.668	1349.524	1096.772
59.403	26.674	1348.902	1096.205
60.417	26.782	1347.929	1095.971
61.432	26.622	1347.731	1094.747
62.447	26.666	1346.359	1093.800
63.461	26.755	1345.233	1093.327
64.476	26.705	1344.484	1092.319
65.490	26.739	1342.970	1091.197
66.505	26.756	1341.536	1090.040
67.520	26.681	1340.880	1088.959
68.534	26.610	1339.985	1087.710
69.549	26.789	1338.803	1087.728
70.563	26.682	1338.059	1086.385
71.578	26.685	1337.048	1085.487
72.593	26.625	1336.139	1084.291
73.607	26.790	1335.527	1084.691
74.622	26.603	1334.770	1082.858
75.636	26.769	1333.872	1083.026
76.651	26.687	1333.355	1082.021
77.666	26.679	1332.892	1081.500
78.680	26.764	1332.607	1081.680
79.695	26.729	1331.598	1080.561
80.709	26.723	1331.002	1079.942
81.724	26.782	1329.958	1079.355
82.739	26.768	1328.989	1078.386
83.753	26.741	1328.424	1077.675
84.768	26.693	1327.174	1076.277
85.782	26.623	1326.318	1075.074
86.797	26.755	1324.486	1074.276
87.812	26.769	1323.864	1073.761
88.826	26.831	1322.487	1072.917
89.841	26.705	1321.892	1071.591
90.855	26.772	1320.793	1071.002
91.870	26.792	1319.960	1070.346
92.884	26.746	1319.057	1069.251
93.899	26.688	1318.779	1068.588
94.914	26.815	1317.874	1068.509
95.928	26.785	1316.310	1066.973
96.943	26.764	1315.972	1066.478
97.957	26.790	1315.422	1066.090
98.972	26.810	1314.140	1065.074
99.987	26.792	1313.482	1064.340
101.001	26.739	1312.758	1063.348
102.016	26.813	1312.110	1063.164
103.030	26.837	1310.791	1062.144
104.045	26.794	1310.812	1061.814
105.060	26.766	1309.515	1060.504
106.074	26.851	1308.580	1060.154
107.089	26.715	1307.588	1058.461
108.103	26.785	1306.293	1057.728
109.118	26.828	1305.282	1057.064
110.133	26.791	1303.897	1055.631
111.147	26.847	1302.613	1054.830
112.162	26.731	1302.237	1053.756
113.176	26.843	1300.796	1053.146
114.191	26.865	1300.035	1052.565
115.206	26.811	1299.179	1051.463
116.220	26.878	1297.914	1050.734
117.235	26.852	1296.809	1049.600
118.249	26.807	1296.307	1048.837
119.264	26.783	1295.756	1048.164
120.279	26.806	1294.982	1047.574
121.293	26.853	1294.073	1047.017
122.308	26.854	1293.261	1046.276
123.322	26.916	1292.172	1045.658
124.337	26.901	1291.907	1045.263
125.352	26.904	1290.869	1044.348
126.366	26.936	1289.904	1043.659
127.381	26.875	1289.269	1042.704
128.395	26.922	1288.230	1042.039
129.410	26.961	1287.040	1041.208
130.424	26.909	1286.518	1040.401
131.439	26.943	1285.877	1039.984
132.454	26.956	1284.541	1038.884
133.468	26.855	1284.280	1038.004
134.483	26.798	1283.951	1037.322
135.497	26.838	1282.997	1036.687
136.512	26.788	1282.018	1035.515
137.527	26.761	1281.219	1034.626
138.541	26.850	1279.598	1033.733
139.556	26.880	1278.526	1032.947
140.570	26.905	1277.715	1032.342
141.585	26.837	1276.481	1030.864
142.600	26.863	1275.771	1030.351
143.614	26.821	1274.784	1029.225
144.629	26.799	1273.362	1027.858
145.643	26.721	1272.474	1026.611
146.658	26.764	1271.622	1026.078
147.673	26.778	1271.007	1025.567
148.687	26.871	1269.959	1025.158
149.702	26.902	1268.474	1024.044
150.716	26.834	1267.540	1022.815
151.731	26.875	1266.053	1021.754
152.746	26.781	1265.824	1020.950
153.760	26.832	1264.460	1020.047
154.775	26.993	1263.333	1019.952
155.789	26.895	1262.618	1018.737
156.804	26.849	1262.249	1018.086
157.819	26.965	1260.730	1017.425
158.833	26.904	1260.639	1016.915
159.848	27.021	1259.505	1016.570
160.862	26.955	1258.648	1015.418
161.877	26.768	1258.387	1014.069
162.892	26.832	1257.607	1013.708
163.906	26.907	1257.022	1013.569
164.921	27.006	1255.969	1013.181
165.935	26.946	1254.989	1011.967
166.950	26.967	1254.633	1011.707
167.964	26.999	1253.596	1010.960
168.979	27.045	1253.075	1010.706
169.994	27.006	1252.676	1010.077
171.008	27.011	1252.099	1009.549
172.023	26.949	1250.985	1008.220
173.037	27.005	1250.533	1008.078
174.052	27.127	1249.719	1008.008
175.067	27.120	1248.677	1007.041
176.081	26.973	1248.210	1005.758
177.096	26.942	1247.570	1004.984
178.110	27.138	1246.170	1004.848
179.125	26.970	1245.919	1003.629
180.140	27.042	1244.611	1002.882
181.154	27.022	1243.617	1001.886
182.169	26.975	1242.376	1000.539
183.183	26.970	1241.619	999.813
184.198	27.090	1240.736	999.675
185.213	27.058	1239.522	998.428
186.227	27.077	1238.882	997.931
187.242	27.152	1237.645	997.260
188.256	27.003	1237.311	996.084
189.271	27.213	1235.898	996.008
190.286	27.124	1235.657	995.238
191.300	27.032	1235.021	994.136
192.315	27.093	1234.320	993.815
193.329	27.052	1234.071	993.301
194.344	27.174	1233.485	993.408
195.359	27.089	1232.834	992.335
196.373	27.125	1232.722	992.352
197.388	26.951	1232.624	991.234
198.402	26.852	1232.069	990.162
199.417	27.018	1231.532	990.547
200.432	27.106	1230.899	990.430
201.446	27.104	1229.987	989.596
202.461	27.084	1229.561	989.057
203.475	26.989	1229.238	988.194
204.490	27.189	1227.378	987.701
205.504	27.094	1226.951	986.750
206.519	27.241	1225.825	986.554
207.534	27.188	1224.708	985.281
208.548	27.104	1224.390	984.486
209.563	27.165	1223.261	983.822
210.577	27.168	1222.129	982.840
211.592	27.179	1221.864	982.600
212.607	27.228	1220.895	981.995
213.621	27.270	1220.111	981.507
214.636	27.243	1219.361	980.671
215.650	27.298	1218.765	980.398
216.665	27.225	1217.519	978.917
217.680	27.117	1216.792	977.663
218.694	27.299	1216.055	977.968
219.709	27.207	1215.646	977.055
220.723	27.220	1214.618	976.212
221.738	27.081	1214.058	974.932
222.753	27.133	1213.287	974.503
223.767	27.202	1212.782	974.382
224.782	27.344	1212.124	974.527
225.796	27.382	1211.840	974.418
226.811	27.203	1211.424	973.038
227.826	27.392	1210.375	973.118
228.840	27.302	1209.766	972.065
229.855	27.327	1209.198	971.652
230.869	27.270	1208.664	970.835
231.884	27.227	1208.080	970.051
232.899	27.258	1207.178	969.406
233.913	27.336	1206.609	969.281
234.928	27.365	1205.992	968.850
235.942	27.418	1205.345	968.531
236.957	27.298	1205.018	967.542
237.972	27.393	1203.829	967.004
238.986	27.376	1203.318	966.417
240.001	27.408	1202.873	966.145
241.015	27.396	1202.386	965.604
242.030	27.470	1201.303	965.045
243.045	27.440	1200.454	964.118
244.059	27.517	1199.807	963.919
245.074	27.444	1199.105	962.886
246.088	27.583	1198.197	962.806
247.103	27.535	1197.313	961.753
248.117	27.506	1196.477	960.844
249.132	27.463	1196.237	960.339
250.147	27.599	1194.971	959.955
251.161	27.609	1194.868	959.844
252.176	27.542	1193.893	958.618
253.190	27.643	1193.173	958.486
254.205	27.570	1192.535	957.507
255.220	27.432	1192.704	956.832
256.234	27.581	1191.752	956.764
257.249	27.520	1191.262	955.970
258.263	27.494	1190.357	955.022
259.278	27.567	1190.085	955.103
260.293	27.561	1189.574	954.576
261.307	27.580	1188.927	954.070
262.322	27.534	1188.104	953.087
263.336	27.673	1187.244	953.040
264.351	27.590	1187.049	952.362
265.366	27.678	1186.187	952.049
266.380	27.659	1185.303	951.153
267.395	27.562	1184.960	950.289
268.409	27.451	1184.463	949.225
269.424	27.549	1184.315	949.533
270.439	27.566	1183.431	948.830
271.453	27.598	1182.696	948.324
272.468	27.611	1181.526	947.371
273.482	27.600	1181.076	946.868
274.497	27.645	1180.823	946.818
275.512	27.640	1180.601	946.530
276.526	27.780	1179.220	946.063
277.541	27.735	1178.977	945.550
278.555	27.643	1178.231	944.392
279.570	27.830	1177.091	944.365
280.585	27.690	1176.607	943.167
281.599	27.748	1175.775	942.717
282.614	27.782	1174.530	941.811
283.628	27.833	1173.865	941.455
284.643	27.796	1173.080	940.553
285.657	27.790	1172.360	939.860
286.672	27.845	1170.748	938.768
287.687	27.917	1170.605	938.940
288.701	27.868	1169.837	937.990
289.716	27.899	1169.465	937.771
290.730	27.919	1168.644	937.129
291.745	27.914	1168.247	936.704
292.760	27.982	1167.678	936.512
293.774	27.908	1167.115	935.598
294.789	27.986	1166.598	935.500
295.803	27.876	1166.189	934.529
296.818	27.869	1165.409	933.783
297.833	27.951	1164.907	933.716
298.847	28.026	1163.703	933.051
299.862	27.945	1162.990	931.984
300.876	27.913	1162.640	931.461
301.891	27.979	1162.029	931.226
302.906	27.971	1161.344	930.551
303.920	27.945	1161.067	930.115
304.935	28.042	1160.599	930.151
305.949	28.144	1159.044	929.343
306.964	28.196	1158.206	928.850
307.979	28.218	1157.815	928.566
308.993	28.104	1157.386	927.563
310.008	28.166	1156.676	927.226
311.022	28.098	1155.893	926.169
312.037	28.074	1155.318	925.505
313.052	27.997	1155.109	924.869
314.066	28.067	1153.629	923.953
315.081	28.112	1152.944	923.552
316.095	28.200	1152.063	923.206
317.110	28.198	1151.596	922.743
318.125	28.176	1151.023	922.093
319.139	28.163	1150.542	921.556
320.154	28.098	1150.218	920.891
321.168	28.136	1149.429	920.368
322.183	28.165	1149.082	920.153
323.197	28.124	1148.388	919.312
324.212	28.045	1147.899	918.442
325.227	28.138	1147.027	918.127
326.241	28.209	1146.545	918.020
327.256	28.229	1145.781	917.427
328.270	28.154	1145.375	916.643
329.285	28.281	1144.145	916.215
330.300	28.145	1143.713	915.105
331.314	28.171	1143.199	914.745
332.329	28.193	1142.295	914.049
333.343	28.302	1141.354	913.761
334.358	28.557	1140.288	914.095
335.373	28.449	1139.577	912.910
336.387	28.365	1139.190	912.101
337.402	28.323	1138.266	911.069
338.416	28.382	1137.980	911.054
339.431	28.351	1137.374	910.335
340.446	28.462	1136.606	910.189
341.460	28.390	1136.114	909.360
342.475	28.510	1135.043	909.016
343.489	28.494	1134.011	908.028
344.504	28.495	1133.216	907.315
345.519	28.466	1132.664	906.653
346.533	28.500	1131.875	906.107
347.548	28.495	1131.218	905.475
348.562	28.498	1130.482	904.820
349.577	28.488	1130.140	904.418
350.592	28.330	1129.425	902.990
351.606	28.482	1128.297	902.753
352.621	28.430	1127.962	902.148
353.635	28.505	1127.524	902.088
354.650	28.452	1126.729	901.112
355.665	28.536	1125.981	900.848
356.679	28.618	1125.449	900.745
357.694	28.597	1124.760	900.009
358.708	28.618	1124.214	899.596
359.723	28.573	1123.529	898.750
360.738	28.563	1122.982	898.183
361.752	28.494	1122.651	897.503
362.767	28.594	1121.931	897.333
363.781	28.645	1121.167	896.894
364.796	28.733	1120.797	896.949
365.810	28.718	1120.325	896.419
366.825	28.651	1119.763	895.560
367.840	28.721	1119.265	895.426
368.854	28.806	1118.653	895.271
369.869	28.682	1117.805	893.910
370.883	28.715	1117.034	893.375
371.898	28.735	1116.430	892.912
372.913	28.753	1116.044	892.608
373.927	28.872	1115.327	892.536
374.942	28.760	1114.938	891.599
375.956	28.800	1114.292	891.201
376.971	28.730	1114.217	890.721
377.986	28.760	1113.387	890.126
379.000	28.829	1112.809	889.915
380.015	28.892	1112.087	889.566
381.029	28.801	1111.728	888.760
382.044	28.806	1110.492	887.716
383.059	28.984	1109.996	888.104
384.073	28.879	1109.348	886.998
385.088	28.966	1108.441	886.615
386.102	28.921	1107.593	885.642
387.117	28.906	1106.840	884.886
388.132	28.693	1106.470	883.489
389.146	28.955	1105.770	884.113
390.161	28.859	1105.339	883.227
391.175	28.925	1104.578	882.859
392.190	28.977	1103.817	882.419
393.205	28.940	1103.263	881.724
394.219	28.963	1102.244	880.939
395.234	28.932	1101.664	880.248
396.248	29.105	1100.493	880.066
397.263	28.997	1100.234	879.264
398.278	29.123	1099.252	879.002
399.292	29.116	1099.214	878.858
400.307	29.117	1098.155	877.938
401.321	29.220	1097.465	877.802
402.336	29.144	1096.882	876.897
403.350	29.098	1096.429	876.238
404.365	29.268	1095.344	876.103
405.380	29.160	1095.120	875.330
406.394	29.146	1094.206	874.456
407.409	29.212	1093.719	874.305
408.423	29.248	1092.638	873.532
409.438	29.263	1091.961	872.983
410.453	29.118	1091.359	871.741
411.467	29.387	1090.454	872.214
412.482	29.357	1089.861	871.517
413.496	29.353	1089.202	870.898
414.511	29.228	1089.111	870.158
415.526	29.305	1088.202	869.715
416.540	29.384	1087.848	869.730
417.555	29.380	1087.633	869.463
418.569	29.293	1087.365	868.760
419.584	29.461	1086.669	868.916
420.599	29.437	1086.121	868.288
421.613	103.510	1322.843	1459.879
422.628	96.343	1357.308	1459.997
