DTS Sentinel unit serial number:	SN413079Multiplexer serial number:	ORYXHardware model number:	OX4-SRSoftware version number:	ORYX F/W v4.00 Oryx Data Collector v3.7.2.0data status	okinstallation	princeton_trtdifferential loss correction	single-endedforward channel	channel 2reverse channel	N/Adate	2019/09/11time	05:13:10forward acquisition time	60.00reverse acquisition time	0.00gamma	496.2192k internal	0.2329k external	0.2329temperature offset calibration	0.9941default loss term (dB/km)	0.3790temperature slope calibration	1.0000multiplexer offset coefficient	1.0000multiplexer slope coefficient	1.0000fibre end	0.00T internal ref (°C)	29.44T ext. ref 1 (°C)	-0.25T ext. ref 2 (°C)	23.42length (m)	temperature (°C)	Stokes	anti-Stokes-747.200	-47.364	-0.103	0.051
-746.185	-48.230	0.109	-0.053
-745.171	0.457	0.312	0.225
-744.156	-200.000	0.081	0.499
-743.142	-31.781	-0.212	-0.120
-742.127	800.000	0.089	0.300
-741.112	-43.031	-0.023	0.012
-740.098	339.278	-0.131	0.258
-739.083	-97.103	0.226	0.059
-738.069	16.068	0.112	-0.088
-737.054	286.198	-0.092	-0.167
-736.039	-101.415	-0.271	0.066
-735.025	-200.000	-0.020	0.243
-734.010	-32.291	-0.331	-0.186
-732.996	-142.642	-0.465	0.046
-731.981	-22.986	0.365	-0.222
-730.966	-200.000	0.013	0.102
-729.952	-11.778	0.251	-0.166
-728.937	73.459	-0.119	-0.126
-727.923	-200.000	0.040	-0.305
-726.908	-5.130	-0.276	-0.191
-725.894	-17.848	0.119	-0.075
-724.879	-200.000	-0.052	-0.378
-723.864	-92.792	-0.269	-0.076
-722.850	169.786	-0.159	-0.229
-721.835	-200.000	0.004	-0.165
-720.821	800.000	-0.044	-0.165
-719.806	-200.000	0.012	-0.324
-718.791	-85.192	0.107	0.034
-717.777	196.364	0.037	0.056
-716.762	74.289	0.085	-0.090
-715.748	-4.832	-0.177	-0.123
-714.733	-45.838	0.225	-0.112
-713.718	-120.770	-0.240	0.041
-712.704	-29.993	-0.223	-0.128
-711.689	-200.000	0.038	0.186
-710.675	95.940	-0.199	-0.229
-709.660	41.547	-0.179	0.163
-708.645	5.474	0.076	-0.057
-707.631	-38.648	0.149	-0.079
-706.616	66.440	-0.109	0.111
-705.602	71.234	0.150	-0.157
-704.587	-200.000	-0.031	-0.305
-703.572	2.509	-0.213	0.155
-702.558	-200.000	-0.027	0.130
-701.543	-200.000	0.064	-0.444
-700.529	-200.000	0.033	-0.165
-699.514	-27.779	-0.123	-0.072
-698.499	-153.785	-0.178	-0.012
-697.485	-200.000	0.006	-0.207
-696.470	-18.999	-0.129	0.081
-695.456	-200.000	-0.047	-0.290
-694.441	14.842	0.065	-0.051
-693.426	-36.663	0.275	0.149
-692.412	-47.412	0.083	0.041
-691.397	-78.071	-0.232	-0.080
-690.383	-200.000	-0.034	-0.274
-689.368	346.691	-0.154	0.305
-688.354	626.013	0.061	0.155
-687.339	80.264	-0.208	-0.225
-686.324	81.857	-0.022	-0.024
-685.310	-28.826	0.202	0.117
-684.295	5.786	0.091	0.068
-683.281	800.000	0.022	-0.067
-682.266	-200.000	0.169	0.001
-681.251	-9.527	0.084	0.056
-680.237	-72.337	-0.267	0.100
-679.222	47.816	-0.108	0.101
-678.208	-44.909	-0.166	0.083
-677.193	800.000	-0.023	-0.083
-676.178	-75.717	0.274	-0.098
-675.164	-129.489	-0.227	-0.032
-674.149	-30.801	0.232	0.132
-673.135	-37.868	-0.061	-0.033
-672.120	-123.353	-0.224	-0.036
-671.105	-136.124	-0.024	0.003
-670.091	-145.532	-0.360	0.032
-669.076	129.087	0.188	0.241
-668.062	278.441	0.120	0.215
-667.047	-46.160	0.114	-0.056
-666.032	-200.000	-0.022	0.182
-665.018	-83.271	-0.347	0.112
-664.003	38.562	0.056	0.050
-662.989	52.327	0.131	-0.126
-661.974	3.072	-0.167	0.122
-660.959	800.000	0.070	-0.210
-659.945	274.892	0.200	-0.355
-658.930	100.316	0.230	0.268
-657.916	-78.841	-0.381	-0.131
-656.901	34.254	-0.212	0.186
-655.886	-79.616	0.098	0.033
-654.872	0.177	-0.086	0.062
-653.857	31.140	-0.225	0.194
-652.843	-143.978	0.499	0.047
-651.828	-15.101	0.214	-0.137
-650.814	800.000	-0.107	-0.326
-649.799	-102.744	0.107	-0.026
-648.784	800.000	0.071	-0.220
-647.770	-62.809	-0.045	0.019
-646.755	246.162	-0.112	-0.189
-645.741	50.968	-0.169	-0.161
-644.726	613.931	0.030	0.075
-643.711	132.674	0.030	-0.039
-642.697	194.076	0.073	-0.111
-641.682	-200.000	0.007	-0.205
-640.668	136.834	-0.077	-0.100
-639.653	328.917	0.152	0.293
-638.638	800.000	0.149	-0.507
-637.624	-92.856	-0.163	-0.046
-636.609	43.125	-0.301	0.276
-635.595	2.272	-0.192	0.139
-634.580	65.514	-0.156	0.159
-633.565	-200.000	-0.025	0.160
-632.551	-200.000	-0.068	-0.324
-631.536	-101.572	0.221	-0.054
-630.522	-142.785	-0.041	-0.004
-629.507	61.314	0.196	-0.195
-628.492	293.425	0.045	0.082
-627.478	13.156	-0.245	-0.190
-626.463	79.309	-0.163	-0.176
-625.449	180.909	0.047	0.070
-624.434	-2.255	-0.154	0.108
-623.419	53.994	-0.126	0.121
-622.405	-13.739	-0.165	-0.107
-621.390	417.765	-0.158	0.339
-620.376	150.392	0.216	-0.294
-619.361	324.266	0.076	0.145
-618.346	-156.360	-0.193	-0.012
-617.332	-131.784	-0.190	0.025
-616.317	-1.967	0.091	-0.064
-615.303	-99.345	-0.086	0.022
-614.288	307.437	0.104	-0.194
-613.273	-92.913	-0.322	-0.090
-612.259	800.000	-0.068	0.194
-611.244	450.023	-0.162	-0.357
-610.230	-146.014	0.307	0.027
-609.215	-126.116	-0.367	0.055
-608.201	163.128	-0.135	0.190
-607.186	-9.615	-0.030	0.020
-606.171	689.281	-0.082	0.216
-605.157	-0.044	0.079	0.057
-604.142	520.700	0.042	0.099
-603.128	-65.938	0.111	-0.044
-602.113	-49.339	-0.212	0.101
-601.098	81.482	-0.081	0.088
-600.084	136.331	-0.104	-0.136
-599.069	-133.142	-0.046	-0.006
-598.055	84.560	0.031	-0.033
-597.040	644.288	-0.036	-0.093
-596.025	-36.379	-0.292	-0.158
-595.011	49.346	0.249	-0.235
-593.996	-58.086	0.318	0.139
-592.982	352.195	-0.050	0.098
-591.967	120.808	-0.121	-0.151
-590.952	-200.000	0.031	0.227
-589.938	-150.177	0.242	-0.019
-588.923	13.181	0.175	-0.135
-587.909	-82.309	-0.119	0.039
-586.894	-200.000	-0.025	-0.280
-585.879	-141.356	-0.318	-0.032
-584.865	-72.238	-0.165	0.061
-583.850	-140.137	-0.303	-0.032
-582.836	63.885	-0.082	-0.082
-581.821	800.000	0.021	-0.082
-580.806	-64.977	-0.200	0.081
-579.792	-51.482	-0.298	0.139
-578.777	212.638	0.126	0.200
-577.763	-159.647	-0.227	-0.013
-576.748	52.187	0.134	0.128
-575.733	-197.286	0.148	0.001
-574.719	9.498	0.038	-0.028
-573.704	-200.000	-0.003	-0.131
-572.690	-47.157	-0.285	0.139
-571.675	-46.624	-0.104	0.051
-570.661	479.930	0.071	-0.162
-569.646	62.249	-0.077	0.077
-568.631	800.000	-0.053	0.195
-567.617	-105.103	-0.431	0.099
-566.602	26.603	-0.238	-0.200
-565.588	53.838	-0.226	-0.217
-564.573	800.000	0.045	0.144
-563.558	251.015	-0.156	0.265
-562.544	219.896	0.057	-0.092
-561.529	-200.000	0.010	-0.212
-560.515	217.738	-0.067	-0.106
-559.500	63.109	0.225	-0.226
-558.485	500.478	-0.031	0.071
-557.471	-200.000	0.007	0.084
-556.456	507.306	-0.057	0.132
-555.442	-143.212	0.232	0.022
-554.427	-157.479	0.274	0.016
-553.412	-76.315	0.263	-0.093
-552.398	151.277	-0.258	0.351
-551.383	-169.201	0.294	0.011
-550.369	52.795	-0.294	-0.281
-549.354	-22.730	-0.201	0.121
-548.339	-52.787	-0.043	0.020
-547.325	-41.927	0.318	-0.163
-546.310	47.899	0.137	0.128
-545.296	701.929	-0.086	0.228
-544.281	-1.722	0.067	-0.047
-543.266	268.502	-0.105	-0.184
-542.252	-200.000	0.041	-0.246
-541.237	207.257	0.105	0.163
-540.223	-200.000	-0.013	-0.253
-539.208	204.679	-0.196	0.304
-538.193	105.821	-0.049	0.058
-537.179	66.724	-0.028	0.029
-536.164	182.887	0.124	-0.183
-535.150	800.000	0.070	-0.219
-534.135	-62.383	-0.153	-0.063
-533.121	-68.630	-0.141	0.055
-532.106	639.210	-0.110	-0.280
-531.091	-39.890	-0.005	0.003
-530.077	800.000	0.126	0.422
-529.062	-200.000	0.061	0.331
-528.048	-102.645	0.055	-0.013
-527.033	-18.644	0.335	-0.208
-526.018	800.000	-0.015	-0.058
-525.004	147.143	-0.199	0.268
-523.989	-200.000	0.045	-0.358
-522.975	-99.423	0.263	-0.066
-521.960	-200.000	-0.004	-0.036
-520.945	-159.257	0.231	0.013
-519.931	-200.000	-0.004	-0.041
-518.916	60.675	-0.196	0.194
-517.902	15.203	-0.056	0.044
-516.887	-200.000	-0.011	0.255
-515.872	-132.677	0.190	0.024
-514.858	-65.139	-0.049	0.020
-513.843	508.526	-0.061	0.141
-512.829	800.000	0.074	0.246
-511.814	699.081	-0.082	0.214
-510.799	-122.332	-0.311	0.051
-509.785	800.000	-0.028	0.080
-508.770	800.000	-0.061	0.194
-507.756	34.519	0.061	-0.053
-506.741	-87.475	0.139	0.042
-505.726	263.112	-0.034	0.059
-504.712	159.237	-0.065	-0.090
-503.697	-43.279	-0.186	0.094
-502.683	-74.938	0.063	-0.023
-501.668	-200.000	-0.014	0.355
-500.653	252.495	0.122	0.207
-499.639	800.000	-0.038	0.141
-498.624	-104.456	-0.320	0.074
-497.610	800.000	0.027	0.108
-496.595	-200.000	-0.017	0.179
-495.581	-200.000	-0.005	-0.062
-494.566	800.000	-0.038	-0.119
-493.551	-105.823	0.236	0.053
-492.537	-59.232	0.390	-0.167
-491.522	-130.493	0.462	-0.062
-490.508	-46.572	0.153	-0.075
-489.493	-200.000	0.015	0.081
-488.478	403.417	-0.022	-0.045
-487.464	-79.947	0.077	0.026
-486.449	-39.354	0.130	0.068
-485.435	692.255	0.061	0.161
-484.420	-55.136	0.513	0.230
-483.405	-58.280	0.157	0.068
-482.391	-11.627	-0.173	-0.113
-481.376	800.000	-0.026	-0.080
-480.362	-175.736	0.430	-0.012
-479.347	-25.481	-0.481	-0.284
-478.332	-158.570	0.210	0.012
-477.318	148.624	-0.191	0.258
-476.303	800.000	-0.069	-0.281
-475.289	132.373	0.222	-0.285
-474.274	247.103	-0.340	-0.572
-473.259	-10.937	0.197	-0.130
-472.245	64.305	-0.144	-0.144
-471.230	-36.183	0.206	0.111
-470.216	-74.736	-0.117	0.042
-469.201	264.840	0.133	-0.231
-468.186	-200.000	-0.031	-0.323
-467.172	-188.867	0.196	-0.002
-466.157	304.546	0.202	-0.374
-465.143	-119.727	-0.147	-0.025
-464.128	210.405	-0.247	-0.386
-463.113	-71.570	0.192	0.071
-462.099	-200.000	0.062	-0.288
-461.084	763.400	-0.082	0.222
-460.070	-126.249	0.292	-0.044
-459.055	87.564	0.145	0.160
-458.040	-53.849	0.422	-0.192
-457.026	-107.802	-0.119	-0.026
-456.011	-200.000	0.060	-0.387
-454.997	-149.463	0.175	-0.014
-453.982	-13.956	-0.092	0.059
-452.968	800.000	0.057	-0.219
-451.953	-200.000	0.017	-0.297
-450.938	-164.394	0.221	0.010
-449.924	684.199	0.054	0.141
-448.909	371.250	0.082	0.166
-447.895	-68.949	-0.453	-0.174
-446.880	-107.987	0.085	-0.018
-445.865	414.784	0.120	0.254
-444.851	-15.490	0.073	0.047
-443.836	800.000	-0.033	-0.130
-442.822	-95.813	-0.112	-0.030
-441.807	800.000	0.066	-0.199
-440.792	26.457	-0.175	-0.146
-439.778	-200.000	-0.069	0.362
-438.763	86.574	0.115	-0.126
-437.749	-200.000	0.034	-0.185
-436.734	-101.298	-0.120	0.029
-435.719	-118.369	-0.079	-0.014
-434.705	115.355	0.099	-0.120
-433.690	79.517	-0.114	0.122
-432.676	-81.634	-0.322	0.105
-431.661	800.000	0.017	-0.064
-430.646	287.462	-0.092	-0.166
-429.632	-200.000	-0.051	0.276
-428.617	130.647	0.091	-0.116
-427.603	53.623	-0.064	-0.061
-426.588	-200.000	0.008	0.052
-425.573	5.887	-0.081	-0.059
-424.559	-119.287	-0.282	-0.049
-423.544	800.000	0.032	0.132
-422.530	-200.000	-0.035	-0.286
-421.515	-200.000	0.009	0.086
-420.500	24.019	-0.231	0.190
-419.486	51.481	0.223	0.211
-418.471	-158.724	0.083	-0.005
-417.457	800.000	0.078	0.259
-416.442	-47.174	0.100	-0.048
-415.428	-200.000	0.013	0.252
-414.413	-200.000	0.025	-0.266
-413.398	-153.742	-0.246	0.017
-412.384	162.551	0.224	-0.312
-411.369	296.020	0.043	0.078
-410.355	-13.972	0.216	0.139
-409.340	-46.557	-0.135	0.066
-408.325	17.160	-0.150	0.119
-407.311	-128.885	0.099	0.014
-406.296	800.000	-0.036	-0.136
-405.282	-119.215	0.183	0.032
-404.267	136.825	-0.043	-0.056
-403.252	800.000	0.114	0.327
-402.238	76.265	0.021	0.023
-401.223	186.059	-0.108	-0.160
-400.209	-11.253	-0.209	0.137
-399.194	-101.195	-0.197	0.048
-398.179	-200.000	-0.137	-0.000
-397.165	52.155	-0.191	0.181
-396.150	72.524	-0.079	0.082
-395.136	-113.229	0.251	-0.049
-394.121	79.000	-0.045	-0.048
-393.106	-142.918	-0.185	0.018
-392.092	531.704	0.077	-0.181
-391.077	204.019	0.129	-0.199
-390.063	-72.243	-0.153	0.057
-389.048	182.192	0.094	0.138
-388.033	55.185	0.117	-0.113
-387.019	-200.000	0.001	-0.573
-386.004	118.476	0.038	-0.047
-384.990	-25.573	-0.125	0.073
-383.975	615.361	0.058	0.145
-382.960	800.000	-0.019	0.055
-381.946	-121.599	-0.145	-0.024
-380.931	493.155	-0.103	0.235
-379.917	257.465	0.155	0.265
-378.902	-200.000	0.061	0.394
-377.888	298.391	0.136	0.249
-376.873	142.486	0.052	0.068
-375.858	59.118	-0.166	0.163
-374.844	-200.000	-0.022	0.353
-373.829	178.239	0.312	-0.452
-372.815	149.154	-0.228	-0.307
-371.800	800.000	0.125	0.429
-370.785	258.571	-0.064	-0.110
-369.771	-105.786	0.177	-0.040
-368.756	43.175	0.046	-0.042
-367.742	271.212	-0.171	-0.300
-366.727	-31.535	-0.083	0.046
-365.712	-53.618	0.294	0.133
-364.698	23.660	-0.088	-0.072
-363.683	-200.000	-0.019	0.209
-362.669	120.114	0.141	0.173
-361.654	-42.355	0.566	0.287
-360.639	180.612	-0.132	-0.192
-359.625	-200.000	-0.051	0.317
-358.610	218.787	-0.207	0.329
-357.596	53.936	0.065	0.062
-356.581	236.514	0.023	0.038
-355.566	-200.000	0.000	0.124
-354.552	-55.758	-0.201	0.089
-353.537	-51.946	-0.195	0.090
-352.523	-72.693	-0.105	-0.039
-351.508	548.160	0.047	-0.112
-350.493	104.461	0.053	0.062
-349.479	79.286	0.334	0.355
-348.464	32.761	0.351	0.301
-347.450	211.972	-0.069	0.108
-346.435	515.847	0.015	-0.036
-345.420	119.330	0.118	-0.145
-344.406	171.316	-0.287	0.409
-343.391	-128.895	-0.450	-0.063
-342.377	-200.000	0.020	-0.091
-341.362	96.025	-0.126	-0.143
-340.348	-200.000	-0.025	0.129
-339.333	-200.000	0.017	-0.089
-338.318	278.844	-0.159	-0.281
-337.304	800.000	-0.008	0.035
-336.289	143.250	-0.019	-0.025
-335.275	13.757	0.290	-0.223
-334.260	-200.000	-0.007	0.083
-333.245	-76.213	0.212	-0.074
-332.231	-200.000	-0.066	0.316
-331.216	-120.373	0.127	-0.021
-330.202	-69.106	-0.158	0.060
-329.187	227.505	-0.008	-0.013
-328.172	-123.708	-0.261	-0.041
-327.158	-173.294	-0.084	-0.003
-326.143	99.045	0.137	0.157
-325.129	-200.000	0.010	-0.131
-324.114	-200.000	0.027	0.140
-323.099	-93.321	0.065	0.018
-322.085	68.134	0.297	-0.301
-321.070	226.672	0.119	0.191
-320.056	-109.005	0.325	0.069
-319.041	517.070	-0.060	-0.140
-318.026	-200.000	0.006	-0.025
-317.012	-108.802	-0.459	0.097
-315.997	-200.000	0.016	0.105
-314.983	-76.791	0.164	-0.057
-313.968	-10.153	-0.102	-0.067
-312.953	800.000	0.067	-0.220
-311.939	25.187	0.165	0.136
-310.924	-6.971	0.271	-0.182
-309.910	-200.000	0.027	0.294
-308.895	-128.616	0.202	0.028
-307.880	-200.000	-0.014	0.185
-306.866	-86.104	0.201	0.061
-305.851	-117.156	0.226	0.041
-304.837	-104.458	0.241	-0.055
-303.822	-162.917	0.230	-0.011
-302.807	283.820	0.172	0.307
-301.793	-66.680	-0.370	-0.145
-300.778	-68.028	0.102	-0.039
-299.764	691.535	0.063	-0.165
-298.749	237.915	-0.234	-0.384
-297.735	-53.771	0.197	0.089
-296.720	-9.751	0.085	0.056
-295.705	-86.743	0.255	0.077
-294.691	58.503	0.085	-0.083
-293.676	238.450	-0.172	-0.283
-292.662	-125.263	0.239	-0.036
-291.647	89.905	-0.340	-0.375
-290.632	544.842	-0.045	-0.106
-289.618	570.022	-0.157	0.377
-288.603	-50.736	0.354	0.165
-287.589	-5.550	0.192	0.131
-286.574	-97.820	-0.150	-0.038
-285.559	-117.028	-0.444	0.080
-284.545	800.000	0.124	-0.352
-283.530	167.212	0.211	-0.297
-282.516	729.015	-0.122	0.323
-281.501	-55.871	-0.292	0.129
-280.486	-77.413	0.192	0.066
-279.472	16.024	0.033	-0.026
-278.457	-22.326	0.009	-0.006
-277.443	129.527	0.074	0.094
-276.428	-123.032	-0.352	-0.056
-275.413	800.000	-0.115	0.423
-274.399	800.000	-0.047	0.129
-273.384	-200.000	-0.046	0.301
-272.370	115.154	-0.213	-0.257
-271.355	233.050	0.052	0.085
-270.340	-200.000	-0.047	0.413
-269.326	71.041	0.200	0.205
-268.311	487.104	0.120	-0.271
-267.297	327.019	-0.131	-0.248
-266.282	800.000	-0.056	-0.201
-265.267	127.900	0.113	-0.142
-264.253	5.868	0.255	0.187
-263.238	380.043	0.095	-0.193
-262.224	-38.447	0.122	-0.064
-261.209	51.937	-0.064	-0.060
-260.195	86.631	0.362	0.394
-259.180	-117.751	0.157	-0.028
-258.165	800.000	0.051	-0.201
-257.151	166.646	-0.190	-0.266
-256.136	441.345	-0.061	0.132
-255.122	-41.428	-0.087	-0.044
-254.107	-200.000	0.009	0.112
-253.092	69.660	0.329	0.335
-252.078	-200.000	-0.026	-0.207
-251.063	42.142	0.256	0.230
-250.049	59.514	0.266	0.259
-249.034	-134.733	0.450	-0.054
-248.019	-200.000	0.003	-0.082
-247.005	19.936	0.176	0.140
-245.990	22.035	-0.073	0.059
-244.976	-78.651	0.352	0.119
-243.961	-65.395	-0.289	-0.115
-242.946	-36.804	-0.231	-0.122
-241.932	800.000	0.079	0.298
-240.917	-101.669	-0.060	0.014
-239.903	800.000	0.056	0.167
-238.888	70.467	-0.137	-0.140
-237.873	-200.000	0.023	-0.291
-236.859	-20.199	-0.186	0.113
-235.844	800.000	0.047	-0.148
-234.830	-47.058	-0.126	-0.061
-233.815	34.539	0.204	0.176
-232.800	-200.000	0.003	-0.050
-231.786	148.738	0.104	-0.139
-230.771	-79.000	-0.175	0.059
-229.757	-200.000	-0.052	0.270
-228.742	-71.852	0.312	0.115
-227.727	260.246	-0.218	0.371
-226.713	-200.000	0.024	0.322
-225.698	-126.151	0.305	-0.045
-224.684	800.000	-0.107	-0.334
-223.669	-89.917	0.198	-0.057
-222.655	-134.274	0.253	0.031
-221.640	-40.842	-0.195	-0.099
-220.625	-101.187	-0.176	0.042
-219.611	98.839	-0.199	-0.226
-218.596	450.595	-0.123	-0.269
-217.582	-200.000	0.041	-0.193
-216.567	-200.000	0.042	-0.378
-215.552	296.782	0.118	-0.213
-214.538	-89.926	0.259	-0.075
-213.523	-65.065	0.301	-0.120
-212.509	15.615	0.176	-0.136
-211.494	800.000	-0.060	-0.203
-210.479	-133.805	-0.082	-0.010
-209.465	113.316	0.014	-0.017
-208.450	518.032	-0.072	0.165
-207.436	-134.648	-0.389	0.047
-206.421	-5.806	-0.263	-0.178
-205.406	269.239	0.080	-0.139
-204.392	-53.435	-0.221	-0.100
-203.377	-17.523	-0.247	-0.153
-202.363	51.394	0.186	-0.174
-201.348	-25.923	-0.204	0.118
-200.333	-77.891	0.100	-0.034
-199.319	25.180	0.172	0.141
-198.304	-48.679	0.092	-0.043
-197.290	-39.084	-0.237	0.123
-196.275	-60.616	0.401	0.168
-195.260	-109.127	-0.264	0.055
-194.246	-136.958	0.089	-0.010
-193.231	574.497	0.059	0.142
-192.217	13.976	-0.166	0.127
-191.202	-146.825	-0.106	-0.009
-190.187	5.239	0.312	-0.227
-189.173	-62.143	-0.179	-0.074
-188.158	-200.000	0.003	0.185
-187.144	-199.359	-0.372	0.002
-186.129	-143.351	-0.125	0.012
-185.114	422.987	-0.064	0.136
-184.100	38.950	-0.378	-0.333
-183.085	800.000	-0.032	0.121
-182.071	44.400	-0.198	0.179
-181.056	-200.000	-0.001	-0.122
-180.042	7.991	0.255	-0.188
-179.027	-48.779	-0.212	-0.100
-178.012	347.611	-0.063	0.122
-176.998	-1.058	-0.243	0.170
-175.983	-124.299	-0.321	0.049
-174.969	-159.714	-0.698	-0.038
-173.954	-190.095	0.469	-0.005
-172.939	-130.237	0.205	-0.027
-171.925	-167.791	-0.312	-0.012
-170.910	43.792	-0.302	0.272
-169.896	-74.686	0.216	-0.077
-168.881	45.942	-0.264	0.240
-167.866	-93.061	0.266	-0.073
-166.852	55.428	-0.144	0.137
-165.837	328.680	0.044	-0.083
-164.823	-200.000	-0.049	-0.304
-163.808	58.664	0.255	0.247
-162.793	401.347	-0.090	0.185
-161.779	-200.000	0.012	-0.123
-160.764	365.102	0.093	-0.184
-159.750	5.521	0.092	-0.067
-158.735	-45.743	0.163	0.079
-157.720	22.127	-0.199	-0.160
-156.706	800.000	0.048	-0.176
-155.691	47.264	0.046	0.042
-154.677	-94.013	0.133	0.036
-153.662	-200.000	-0.011	-0.152
-152.647	182.417	0.287	-0.417
-151.633	-44.409	0.115	0.057
-150.618	-56.340	0.245	0.107
-149.604	22.853	0.166	0.134
-148.589	214.207	0.127	0.197
-147.574	625.500	0.058	0.144
-146.560	22.034	0.047	-0.038
-145.545	-90.525	-0.123	0.035
-144.531	182.625	0.124	-0.180
-143.516	-92.456	0.187	-0.052
-142.502	-200.000	-0.002	-0.109
-141.487	96.644	0.094	0.106
-140.472	-108.220	0.057	-0.012
-139.458	-16.294	-0.349	-0.218
-138.443	57.716	0.068	-0.065
-137.429	-147.970	0.056	-0.005
-136.414	-75.794	-0.440	-0.153
-135.399	15.917	-0.214	0.166
-134.385	-87.680	-0.041	0.012
-133.370	-21.542	-0.377	0.226
-132.356	-124.021	0.359	0.055
-131.341	-17.530	-0.260	0.161
-130.326	-141.049	-0.221	-0.022
-129.312	-91.215	-0.024	-0.007
-128.297	800.000	-0.057	0.220
-127.283	433.482	0.103	0.220
-126.268	241.565	-0.015	0.024
-125.253	800.000	0.031	-0.098
-124.239	800.000	0.075	-0.232
-123.224	725.065	0.057	0.149
-122.210	-200.000	-0.047	-0.266
-121.195	-92.105	-0.552	-0.153
-120.180	61.086	0.052	0.051
-119.166	-147.299	0.145	-0.012
-118.151	-200.000	-0.017	-0.117
-117.137	329.400	0.025	0.047
-116.122	30.437	0.189	-0.158
-115.107	-200.000	-0.030	-0.188
-114.093	800.000	-0.012	0.051
-113.078	138.950	-0.109	-0.140
-112.064	-200.000	0.031	0.173
-111.049	-200.000	0.019	0.113
-110.034	-15.183	0.120	-0.076
-109.020	-11.669	-0.140	0.091
-108.005	-134.865	-0.088	-0.011
-106.991	471.221	-0.182	0.402
-105.976	-16.597	-0.285	0.178
-104.962	800.000	0.013	0.041
-103.947	-170.627	-0.065	0.002
-102.932	86.236	0.129	0.140
-101.918	33.286	-0.168	0.144
-100.903	230.214	0.031	-0.050
-99.889	34.160	0.083	-0.071
-98.874	-80.065	0.124	-0.041
-97.859	299.518	-0.157	-0.285
-96.845	-200.000	-0.023	-0.102
-95.830	-200.000	-0.021	-0.127
-94.816	800.000	0.024	-0.077
-93.801	-147.081	-0.226	-0.019
-92.786	197.903	-0.124	-0.186
-91.772	-73.160	0.344	0.124
-90.757	-200.000	-0.018	0.134
-89.743	-20.198	-0.209	0.127
-88.728	-36.595	0.169	0.089
-87.713	-200.000	-0.012	0.098
-86.699	-78.797	0.336	-0.113
-85.684	-200.000	0.006	-0.041
-84.670	105.600	-0.083	0.097
-83.655	128.925	0.163	-0.205
-82.640	-200.000	0.051	0.317
-81.626	0.673	-0.266	-0.187
-80.611	708.349	0.039	0.101
-79.597	-200.000	-0.007	0.097
-78.582	57.667	0.100	-0.096
-77.567	179.769	-0.044	0.063
-76.553	-44.934	0.161	0.079
-75.538	-200.000	-0.033	0.293
-74.524	-94.571	-0.330	0.088
-73.509	-55.007	-0.137	0.060
-72.494	-188.485	-0.113	0.001
-71.480	47.275	-0.182	0.166
-70.465	800.000	-0.038	0.108
-69.451	81.103	-0.129	0.136
-68.436	-131.426	-0.365	-0.047
-67.422	317.941	0.103	0.192
-66.407	23.026	0.236	0.190
-65.392	145.518	-0.098	0.128
-64.378	-115.665	-0.063	-0.012
-63.363	-200.000	-0.012	0.232
-62.349	675.542	0.044	-0.112
-61.334	177.548	-0.840	-1.200
-60.319	108.214	0.754	0.882
-59.305	-200.000	-0.202	-1.174
-58.290	334.583	0.657	1.247
-57.276	294.851	0.725	1.301
-56.261	-200.000	105.926	614.294
-55.246	508.203	1508.014	3433.319
-54.232	174.474	2710.695	3843.620
-53.217	104.921	2301.334	2661.043
-52.203	38.662	1905.274	1666.812
-51.188	32.648	1690.839	1433.582
-50.173	30.039	1647.810	1377.667
-49.159	49.116	1700.996	1566.755
-48.144	49.291	1716.467	1582.261
-47.130	32.161	1673.946	1415.365
-46.115	29.524	1659.348	1383.234
-45.100	29.353	1654.582	1377.935
-44.086	29.315	1651.586	1375.099
-43.071	29.352	1649.016	1373.182
-42.057	29.286	1646.854	1370.836
-41.042	29.359	1644.718	1369.544
-40.027	29.344	1643.247	1368.152
-39.013	29.353	1640.405	1365.801
-37.998	29.277	1639.200	1364.181
-36.984	29.334	1638.487	1363.956
-35.969	29.417	1636.496	1362.856
-34.954	29.468	1635.026	1361.954
-33.940	29.379	1632.759	1359.358
-32.925	29.392	1631.355	1358.230
-31.911	29.411	1629.234	1356.548
-30.896	29.371	1628.057	1355.220
-29.881	29.418	1625.656	1353.516
-28.867	29.418	1624.633	1352.612
-27.852	29.366	1623.186	1350.969
-26.838	29.395	1621.864	1350.027
-25.823	29.369	1620.698	1348.816
-24.809	29.548	1618.960	1348.619
-23.794	29.467	1617.936	1347.124
-22.779	29.481	1616.152	1345.687
-21.765	29.441	1614.752	1344.178
-20.750	29.506	1612.911	1343.059
-19.736	29.482	1611.624	1341.764
-18.721	29.435	1610.183	1340.168
-17.706	29.428	1608.627	1338.770
-16.692	29.391	1607.551	1337.552
-15.677	29.504	1606.147	1337.153
-14.663	29.516	1604.496	1335.812
-13.648	29.548	1602.910	1334.666
-12.633	29.398	1602.004	1332.778
-11.619	29.544	1599.823	1331.964
-10.604	29.489	1598.131	1330.100
-9.590	29.467	1597.603	1329.453
-8.575	29.561	1596.218	1328.928
-7.560	29.509	1594.983	1327.468
-6.546	29.538	1593.895	1326.718
-5.531	29.488	1593.124	1325.664
-4.517	29.495	1591.866	1324.621
-3.502	29.483	1590.687	1323.498
-2.487	29.547	1589.060	1322.552
-1.473	29.221	1577.708	1310.731
-0.458	26.493	1557.787	1274.941
0.556	20.726	1559.585	1244.832
1.571	18.495	1584.165	1248.117
2.586	18.328	1597.268	1257.098
3.600	16.647	1545.122	1204.005
4.615	8.849	1435.390	1066.677
5.629	1.262	1371.753	970.890
6.644	-0.159	1364.057	956.318
7.659	-0.273	1362.935	954.720
8.673	-0.221	1361.185	953.740
9.688	-0.357	1359.640	951.713
10.702	-0.433	1356.156	948.709
11.717	3.089	1363.605	976.220
12.731	12.425	1381.081	1048.443
13.746	19.813	1393.073	1104.818
14.761	21.820	1395.849	1119.756
15.775	22.071	1396.249	1121.577
16.790	22.261	1395.593	1122.163
17.804	22.230	1394.563	1121.037
18.819	22.454	1394.640	1122.427
19.834	22.553	1394.099	1122.528
20.848	22.539	1393.438	1121.804
21.863	22.566	1392.586	1121.193
22.877	22.627	1391.566	1120.660
23.892	22.622	1391.047	1120.110
24.907	22.600	1389.886	1118.939
25.921	22.592	1388.908	1117.999
26.936	22.630	1387.809	1117.256
27.950	22.564	1387.151	1116.208
28.965	22.568	1386.269	1115.425
29.980	22.643	1384.383	1114.285
30.994	22.548	1383.817	1113.128
32.009	22.537	1382.428	1111.847
33.023	22.581	1381.322	1111.134
34.038	22.634	1380.465	1110.681
35.053	22.644	1379.021	1109.485
36.067	22.613	1378.757	1108.980
37.082	22.565	1378.064	1108.023
38.096	22.547	1376.442	1106.507
39.111	22.561	1375.978	1106.122
40.126	22.555	1375.311	1105.452
41.140	22.674	1374.167	1105.180
42.155	22.547	1374.420	1104.491
43.169	22.595	1374.204	1104.515
44.184	22.574	1373.650	1103.840
45.199	22.673	1373.173	1103.981
46.213	22.682	1372.854	1103.682
47.228	22.638	1372.076	1102.684
48.242	22.584	1370.697	1101.142
49.257	22.680	1368.961	1100.251
50.271	22.619	1367.429	1098.540
51.286	22.583	1366.539	1097.505
52.301	22.545	1365.391	1096.252
53.315	22.621	1364.505	1095.912
54.330	22.677	1363.503	1095.360
55.344	22.659	1362.326	1094.207
56.359	22.590	1361.411	1092.948
57.374	22.506	1361.140	1092.110
58.388	22.671	1359.736	1091.908
59.403	22.611	1359.454	1091.216
60.417	22.603	1358.864	1090.593
61.432	22.494	1358.372	1089.431
62.447	22.577	1357.068	1088.802
63.461	22.644	1356.098	1088.341
64.476	22.570	1355.387	1087.213
65.490	22.587	1353.996	1086.107
66.505	22.597	1352.467	1084.849
67.520	22.546	1351.014	1083.272
68.534	22.638	1349.968	1082.900
69.549	22.609	1349.325	1082.115
70.563	22.651	1348.415	1081.548
71.578	22.643	1347.193	1080.420
72.593	22.621	1346.507	1079.639
73.607	22.711	1345.786	1079.516
74.622	22.630	1345.193	1078.453
75.636	22.630	1344.497	1077.801
76.651	22.687	1343.342	1077.126
77.666	22.615	1342.779	1076.136
78.680	22.580	1342.895	1075.920
79.695	22.611	1341.930	1075.245
80.709	22.572	1341.177	1074.306
81.724	22.651	1339.898	1073.670
82.739	22.681	1339.333	1073.301
83.753	22.666	1338.442	1072.402
84.768	22.598	1337.189	1070.892
85.782	22.694	1336.098	1070.505
86.797	22.650	1335.051	1069.304
87.812	22.752	1333.545	1068.625
88.826	22.719	1332.755	1067.692
89.841	22.572	1331.864	1065.999
90.855	22.705	1330.483	1065.602
91.870	22.597	1329.948	1064.428
92.884	22.630	1329.215	1063.946
93.899	22.626	1328.498	1063.251
94.914	22.665	1327.618	1062.686
95.928	22.674	1326.952	1062.117
96.943	22.702	1326.275	1061.650
97.957	22.652	1325.648	1060.752
98.972	22.655	1324.842	1060.032
99.987	22.635	1323.835	1059.009
101.001	22.666	1322.676	1058.179
102.016	22.619	1321.321	1056.717
103.030	22.636	1321.222	1056.644
104.045	22.788	1319.719	1056.261
105.060	22.672	1319.067	1054.950
106.074	22.615	1317.867	1053.558
107.089	22.651	1316.869	1052.884
108.103	22.742	1315.501	1052.237
109.118	22.724	1315.012	1051.648
110.133	22.745	1313.456	1050.432
111.147	22.755	1312.031	1049.259
112.162	22.715	1311.885	1048.813
113.176	22.692	1310.432	1047.420
114.191	22.802	1309.228	1047.022
115.206	22.671	1308.801	1045.810
116.220	22.732	1307.077	1044.702
117.235	22.770	1305.750	1043.769
118.249	22.707	1305.211	1042.877
119.264	22.652	1304.591	1041.965
120.279	22.784	1303.464	1041.752
121.293	22.857	1302.668	1041.451
122.308	22.793	1301.869	1040.345
123.322	22.779	1301.075	1039.533
124.337	22.796	1300.284	1038.909
125.352	22.830	1299.128	1038.093
126.366	22.807	1298.600	1037.445
127.381	22.827	1297.622	1036.691
128.395	22.855	1296.385	1035.773
129.410	22.855	1295.640	1035.090
130.424	22.801	1295.032	1034.195
131.439	22.863	1293.880	1033.548
132.454	22.786	1293.209	1032.470
133.468	22.864	1292.571	1032.322
134.483	22.817	1292.001	1031.504
135.497	22.770	1291.302	1030.581
136.512	22.909	1289.730	1030.045
137.527	22.755	1288.836	1028.344
138.541	22.820	1287.442	1027.515
139.556	22.806	1286.282	1026.417
140.570	22.725	1285.614	1025.322
141.585	22.789	1284.059	1024.366
142.600	22.670	1283.325	1022.997
143.614	22.891	1282.506	1023.534
144.629	22.787	1281.578	1022.103
145.643	22.712	1280.192	1020.469
146.658	22.684	1279.674	1019.807
147.673	22.825	1278.094	1019.270
148.687	22.748	1277.024	1017.881
149.702	22.697	1276.015	1016.696
150.716	22.767	1274.831	1016.063
151.731	22.779	1274.063	1015.431
152.746	22.740	1273.217	1014.447
153.760	22.821	1271.926	1013.792
154.775	22.829	1271.057	1013.055
155.789	22.785	1270.459	1012.238
156.804	22.755	1269.216	1010.985
157.819	22.784	1268.269	1010.304
158.833	22.846	1267.396	1009.877
159.848	22.922	1266.979	1009.888
160.862	22.911	1265.807	1008.801
161.877	22.896	1265.083	1008.053
162.892	22.895	1264.698	1007.651
163.906	22.837	1264.025	1006.692
164.921	22.972	1262.951	1006.520
165.935	22.972	1262.505	1006.075
166.950	22.895	1261.992	1005.140
167.964	22.910	1261.251	1004.545
168.979	22.896	1260.585	1003.842
169.994	23.003	1259.990	1003.889
171.008	23.011	1259.451	1003.417
172.023	22.981	1258.431	1002.343
173.037	23.051	1257.408	1001.839
174.052	22.979	1257.088	1001.087
175.067	22.967	1256.239	1000.255
176.081	22.979	1255.172	999.386
177.096	22.949	1254.742	998.784
178.110	22.975	1253.527	997.873
179.125	22.988	1253.029	997.462
180.140	22.957	1251.594	996.058
181.154	22.923	1250.869	995.204
182.169	22.870	1249.735	993.911
183.183	23.096	1248.379	994.015
184.198	22.936	1247.884	992.638
185.213	22.933	1247.022	991.846
186.227	23.094	1245.673	991.587
187.242	22.997	1244.609	990.107
188.256	23.079	1244.087	990.065
189.271	22.996	1243.289	988.877
190.286	23.026	1242.501	988.332
191.300	23.108	1241.579	987.971
192.315	22.921	1241.871	987.069
193.329	22.968	1241.423	986.891
194.344	23.112	1240.501	986.871
195.359	23.125	1239.836	986.327
196.373	23.003	1239.774	985.512
197.388	22.978	1239.480	985.050
198.402	22.946	1239.049	984.443
199.417	23.049	1238.234	984.280
200.432	23.067	1237.680	983.854
201.446	23.098	1236.818	983.256
202.461	23.038	1236.662	982.710
203.475	23.002	1235.811	981.748
204.490	23.074	1234.630	981.124
205.504	23.070	1233.349	979.993
206.519	23.139	1232.328	979.477
207.534	23.146	1231.407	978.698
208.548	23.051	1230.687	977.516
209.563	23.072	1230.095	977.074
210.577	23.014	1229.447	976.152
211.592	23.087	1228.372	975.614
212.607	23.095	1227.961	975.249
213.621	23.050	1226.724	973.929
214.636	23.202	1225.950	974.064
215.650	23.094	1225.715	973.198
216.665	23.116	1223.889	971.785
217.680	23.113	1223.024	970.992
218.694	23.151	1222.815	970.953
219.709	23.260	1221.696	970.572
220.723	23.192	1221.094	969.636
221.738	23.113	1220.550	968.689
222.753	23.111	1219.636	967.863
223.767	23.147	1219.330	967.732
224.782	23.192	1218.693	967.388
225.796	23.234	1218.032	967.005
226.811	23.190	1217.643	966.373
227.826	23.197	1217.271	966.030
228.840	23.188	1216.383	965.192
229.855	23.234	1215.546	964.690
230.869	23.186	1214.908	963.841
231.884	23.280	1214.340	963.816
232.899	23.165	1213.598	962.512
233.913	23.200	1213.183	962.291
234.928	23.311	1212.533	962.294
235.942	23.308	1211.964	961.739
236.957	23.308	1210.977	960.872
237.972	23.313	1210.199	960.198
238.986	23.374	1209.820	960.143
240.001	23.311	1209.025	959.082
241.015	23.375	1208.326	958.792
242.030	23.440	1207.264	958.214
243.045	23.537	1206.216	957.823
244.059	23.397	1206.541	957.238
245.074	23.456	1205.068	956.306
246.088	23.477	1204.545	955.917
247.103	23.512	1203.507	955.198
248.117	23.397	1202.863	953.983
249.132	23.423	1202.025	953.376
250.147	23.442	1201.327	952.837
251.161	23.500	1200.669	952.543
252.176	23.561	1199.912	952.187
253.190	23.466	1199.627	951.364
254.205	23.490	1198.895	950.831
255.220	23.511	1198.238	950.338
256.234	23.522	1197.776	949.945
257.249	23.508	1196.859	949.058
258.263	23.581	1196.369	948.975
259.278	23.478	1196.318	948.303
260.293	23.599	1195.716	948.387
261.307	23.634	1194.619	947.621
262.322	23.537	1193.952	946.492
263.336	23.536	1193.617	946.137
264.351	23.596	1192.746	945.681
265.366	23.624	1192.386	945.462
266.380	23.615	1191.736	944.813
267.395	23.620	1190.761	943.984
268.409	23.557	1190.309	943.208
269.424	23.653	1189.946	943.347
270.439	23.577	1189.642	942.618
271.453	23.618	1188.690	941.997
272.468	23.567	1187.710	940.867
273.482	23.640	1187.196	940.766
274.497	23.715	1186.757	940.730
275.512	23.694	1186.140	940.049
276.526	23.633	1185.450	939.094
277.541	23.746	1184.197	938.615
278.555	23.771	1183.645	938.230
279.570	23.657	1183.009	937.040
280.585	23.695	1182.514	936.765
281.599	23.756	1181.372	936.096
282.614	23.675	1180.857	935.180
283.628	23.730	1179.938	934.658
284.643	23.855	1178.560	934.142
285.657	23.713	1177.978	932.851
286.672	23.761	1177.243	932.441
287.687	23.718	1176.593	931.616
288.701	23.700	1176.338	931.237
289.716	23.752	1175.309	930.613
290.730	23.749	1174.535	929.901
291.745	23.837	1174.226	930.037
292.760	23.799	1173.467	929.153
293.774	23.907	1172.501	928.872
294.789	23.884	1172.620	928.762
295.803	23.914	1171.515	927.963
296.818	23.855	1170.996	927.164
297.833	23.790	1170.480	926.332
298.847	23.923	1169.528	926.190
299.862	23.938	1168.777	925.587
300.876	23.907	1168.038	924.761
301.891	23.946	1167.807	924.701
302.906	23.913	1167.314	924.055
303.920	24.121	1166.328	924.273
304.935	23.886	1166.083	922.776
305.949	23.923	1165.118	922.126
306.964	23.918	1164.561	921.576
307.979	23.987	1164.108	921.495
308.993	24.078	1163.382	921.305
310.008	24.058	1162.384	920.331
311.022	24.015	1161.780	919.551
312.037	23.967	1161.117	918.699
313.052	23.898	1160.313	917.626
314.066	23.996	1159.351	917.288
315.081	24.011	1158.708	916.773
316.095	23.989	1157.891	915.931
317.110	24.100	1157.533	916.138
318.125	24.051	1156.703	915.149
319.139	24.031	1156.144	914.523
320.154	24.035	1155.466	913.928
321.168	24.080	1154.834	913.579
322.183	24.052	1154.584	913.153
323.197	23.944	1154.255	912.261
324.212	24.076	1153.364	912.152
325.227	24.150	1152.699	911.923
326.241	24.143	1152.298	911.490
327.256	24.244	1151.019	910.916
328.270	24.153	1150.708	910.121
329.285	24.125	1149.592	909.019
330.300	24.221	1149.006	908.963
331.314	24.152	1148.096	907.813
332.329	24.282	1147.065	907.576
333.343	24.220	1146.424	906.672
334.358	24.284	1145.728	906.371
335.373	24.272	1145.366	905.943
336.387	24.271	1144.655	905.291
337.402	24.260	1143.950	904.598
338.416	24.263	1143.231	903.966
339.431	24.142	1143.128	903.192
340.446	24.314	1141.884	902.998
341.460	24.570	1141.084	903.581
342.475	24.458	1140.588	902.546
343.489	24.220	1140.167	900.930
344.504	24.300	1138.394	899.852
345.519	24.432	1137.610	899.818
346.533	24.341	1137.084	898.863
347.548	24.390	1136.334	898.438
348.562	24.377	1135.865	897.922
349.577	24.337	1135.402	897.274
350.592	24.348	1134.082	896.208
351.606	24.303	1133.835	895.709
352.621	24.455	1132.927	895.672
353.635	24.523	1132.445	895.554
354.650	24.507	1131.768	894.858
355.665	24.564	1131.073	894.517
356.679	24.572	1130.578	894.087
357.694	24.582	1129.973	893.579
358.708	24.493	1129.315	892.532
359.723	24.457	1128.420	891.565
360.738	24.362	1128.167	890.813
361.752	24.434	1127.716	890.736
362.767	24.535	1126.832	890.464
363.781	24.594	1126.326	890.279
364.796	24.552	1125.684	889.482
365.810	24.687	1124.724	889.320
366.825	24.714	1124.628	889.299
367.840	24.727	1124.256	888.992
368.854	24.711	1123.672	888.371
369.869	24.689	1122.771	887.471
370.883	24.604	1122.119	886.455
371.898	24.764	1121.167	886.417
372.913	24.661	1120.718	885.474
373.927	24.828	1120.079	885.716
374.942	24.821	1119.645	885.261
375.956	24.633	1119.610	884.227
376.971	24.720	1118.805	883.942
377.986	24.829	1117.919	883.704
379.000	24.758	1117.872	883.237
380.015	24.820	1117.198	882.931
381.029	24.695	1116.208	881.452
382.044	24.733	1116.023	881.417
383.059	24.701	1115.123	880.468
384.073	24.887	1114.298	880.658
385.088	24.803	1113.916	879.864
386.102	24.704	1113.354	878.856
387.117	24.879	1111.443	878.126
388.132	24.841	1110.716	877.290
389.146	24.824	1110.552	877.001
390.161	24.809	1110.064	876.463
391.175	24.803	1109.477	875.891
392.190	24.901	1108.263	875.337
393.205	24.969	1107.493	874.983
394.219	24.839	1106.875	873.784
395.234	24.905	1105.978	873.320
396.248	24.981	1105.369	873.128
397.263	25.034	1104.431	872.572
398.278	24.985	1104.177	872.054
399.292	25.006	1103.461	871.515
400.307	25.116	1102.790	871.439
401.321	25.038	1102.331	870.622
402.336	25.043	1101.563	869.963
403.350	25.037	1100.865	869.304
404.365	25.030	1100.336	868.778
405.380	25.051	1099.426	868.081
406.394	25.052	1098.776	867.498
407.409	25.112	1097.797	866.940
408.423	25.162	1097.450	866.828
409.438	25.234	1096.434	866.299
410.453	25.224	1095.977	865.809
411.467	25.126	1095.636	864.994
412.482	25.101	1094.812	864.144
413.496	25.219	1093.905	863.920
414.511	25.218	1093.222	863.299
415.526	25.152	1093.032	862.755
416.540	25.153	1092.664	862.395
417.555	25.237	1091.710	861.967
418.569	25.235	1091.388	861.628
419.584	25.313	1090.731	861.407
420.599	25.237	1090.396	860.702
421.613	147.662	1403.460	1796.994
422.628	136.606	1449.049	1797.106
