DTS Sentinel unit serial number:	SN413079Multiplexer serial number:	ORYXHardware model number:	OX4-SRSoftware version number:	ORYX F/W v4.00 Oryx Data Collector v3.7.2.0data status	okinstallation	princeton_trtdifferential loss correction	single-endedforward channel	channel 2reverse channel	N/Adate	2019/09/11time	10:25:10forward acquisition time	60.00reverse acquisition time	0.00gamma	496.2192k internal	0.2311k external	0.2311temperature offset calibration	0.9970default loss term (dB/km)	0.3790temperature slope calibration	1.0000multiplexer offset coefficient	1.0000multiplexer slope coefficient	1.0000fibre end	0.00T internal ref (°C)	36.25T ext. ref 1 (°C)	0.15T ext. ref 2 (°C)	32.67length (m)	temperature (°C)	Stokes	anti-Stokes-747.200	800.000	0.127	-0.415
-746.185	-137.135	0.161	-0.019
-745.171	800.000	-0.055	0.194
-744.156	-35.962	0.156	0.086
-743.142	556.242	0.083	-0.203
-742.127	68.149	0.095	0.099
-741.112	-45.146	-0.141	-0.071
-740.098	155.349	0.100	0.139
-739.083	-30.569	-0.102	0.059
-738.069	25.106	0.052	-0.044
-737.054	-53.721	0.320	0.148
-736.039	-31.405	-0.313	-0.179
-735.025	-135.279	0.190	0.023
-734.010	-25.334	-0.355	0.213
-732.996	-38.027	-0.331	-0.178
-731.981	-200.000	0.019	-0.397
-730.966	1.973	-0.241	0.176
-729.952	-200.000	-0.086	-0.525
-728.937	-80.585	0.262	-0.088
-727.923	403.416	-0.104	-0.222
-726.908	149.936	0.096	-0.132
-725.894	800.000	-0.102	-0.303
-724.879	195.695	-0.049	0.076
-723.864	-200.000	0.016	0.182
-722.850	284.730	0.078	-0.143
-721.835	310.195	-0.072	-0.138
-720.821	-2.153	0.135	0.096
-719.806	-200.000	-0.001	-0.542
-718.791	293.941	-0.188	-0.347
-717.777	18.081	0.173	0.140
-716.762	-200.000	0.027	-0.248
-715.748	-16.793	-0.078	0.050
-714.733	71.617	-0.082	0.086
-713.718	-60.358	-0.160	0.069
-712.704	3.206	0.133	-0.098
-711.689	-88.696	-0.295	0.089
-710.675	800.000	0.066	-0.188
-709.660	-56.498	0.283	-0.127
-708.645	-96.513	-0.369	-0.099
-707.631	-135.787	-0.074	-0.009
-706.616	109.434	0.261	0.317
-705.602	-190.518	-0.119	-0.001
-704.587	463.592	-0.133	-0.301
-703.572	-200.000	0.006	0.311
-702.558	-200.000	-0.012	0.502
-701.543	1.978	-0.221	0.162
-700.529	-7.271	0.076	0.052
-699.514	343.801	-0.031	-0.062
-698.499	-143.574	0.275	-0.027
-697.485	-78.575	0.057	-0.020
-696.470	-88.517	-0.046	0.014
-695.456	800.000	-0.149	-0.518
-694.441	800.000	-0.071	-0.245
-693.426	127.846	0.127	-0.164
-692.412	800.000	-0.042	0.164
-691.397	-33.741	0.073	0.041
-690.383	580.309	-0.079	-0.195
-689.368	13.949	-0.229	-0.180
-688.354	-1.303	-0.136	-0.097
-687.339	-35.455	-0.025	-0.014
-686.324	800.000	0.021	-0.078
-685.310	-20.217	-0.142	-0.089
-684.295	-200.000	-0.059	0.461
-683.281	247.615	-0.124	-0.212
-682.266	44.565	-0.161	-0.150
-681.251	-200.000	0.016	0.277
-680.237	114.355	0.300	0.370
-679.222	-83.542	-0.284	0.092
-678.208	24.411	-0.143	0.120
-677.193	-131.224	0.143	0.019
-676.178	800.000	0.049	-0.172
-675.164	88.849	-0.107	-0.120
-674.149	-9.323	-0.213	-0.144
-673.135	-23.361	-0.354	-0.215
-672.120	272.631	0.095	0.170
-671.105	-45.730	-0.141	0.070
-670.091	-61.475	0.334	0.142
-669.076	267.617	-0.242	-0.428
-668.062	91.773	-0.150	-0.170
-667.047	-200.000	-0.023	-0.109
-666.032	800.000	0.036	0.121
-665.018	242.988	-0.160	0.272
-664.003	-200.000	0.002	0.514
-662.989	265.829	-0.041	0.072
-661.974	200.426	0.085	0.132
-660.959	-42.657	0.191	-0.098
-659.945	-27.241	-0.371	0.218
-658.930	785.786	0.127	0.352
-657.916	800.000	-0.096	0.336
-656.901	-175.042	-0.275	0.008
-655.886	379.173	-0.068	-0.142
-654.872	-200.000	0.000	0.057
-653.857	-200.000	-0.001	0.148
-652.843	-113.635	-0.245	0.048
-651.828	-152.571	-0.369	0.027
-650.814	800.000	-0.089	0.337
-649.799	-174.518	0.190	-0.006
-648.784	-17.801	-0.149	-0.094
-647.770	117.414	-0.246	0.305
-646.755	138.877	0.032	0.043
-645.741	-98.037	0.089	0.023
-644.726	-148.912	-0.117	0.010
-643.711	-74.194	-0.193	-0.071
-642.697	-98.975	0.416	-0.107
-641.682	186.014	0.061	0.091
-640.668	-200.000	0.045	0.272
-639.653	800.000	0.025	-0.089
-638.638	244.996	-0.212	-0.361
-637.624	76.413	-0.018	-0.019
-636.609	-51.850	0.049	-0.023
-635.595	-43.533	-0.135	-0.069
-634.580	717.121	-0.018	0.049
-633.565	-200.000	0.050	-0.240
-632.551	168.491	-0.148	-0.214
-631.536	-86.613	0.113	-0.035
-630.522	158.908	0.124	0.174
-629.507	800.000	-0.108	0.317
-628.492	-113.530	0.275	-0.054
-627.478	800.000	-0.035	-0.106
-626.463	17.282	0.003	-0.003
-625.449	86.741	-0.164	-0.183
-624.434	-200.000	0.046	0.240
-623.419	-200.000	0.212	-0.001
-622.405	673.401	-0.078	0.204
-621.390	-200.000	0.002	-0.111
-620.376	198.698	-0.045	-0.070
-619.361	-200.000	0.005	-0.146
-618.346	-200.000	-0.005	0.417
-617.332	-77.150	-0.263	-0.092
-616.317	-6.146	0.151	-0.104
-615.303	-123.937	-0.209	-0.033
-614.288	-73.828	0.238	-0.087
-613.273	30.383	-0.347	0.299
-612.259	-200.000	-0.043	0.260
-611.244	-182.395	0.277	0.005
-610.230	-98.909	0.161	-0.041
-609.215	-200.000	0.006	0.169
-608.201	43.722	0.143	-0.132
-607.186	-200.000	-0.013	0.204
-606.171	518.559	-0.078	-0.184
-605.157	112.512	-0.182	0.223
-604.142	-200.000	0.016	-0.193
-603.128	8.069	-0.049	0.037
-602.113	638.871	0.072	-0.184
-601.098	-90.024	0.174	-0.051
-600.084	-158.433	-0.211	0.012
-599.069	800.000	-0.069	0.249
-598.055	-200.000	-0.027	0.144
-597.040	-200.000	-0.030	-0.390
-596.025	2.815	0.316	-0.232
-595.011	253.392	-0.117	0.202
-593.996	544.439	0.040	0.096
-592.982	6.223	-0.097	0.073
-591.967	-67.413	-0.077	0.030
-590.952	27.543	-0.122	0.104
-589.938	-200.000	-0.086	-0.391
-588.923	-95.318	-0.435	0.118
-587.909	-109.159	0.227	-0.049
-586.894	298.687	0.138	0.256
-585.879	-55.388	-0.356	0.161
-584.865	-25.806	0.180	-0.107
-583.850	-126.917	-0.342	0.051
-582.836	-161.714	0.187	0.010
-581.821	-52.537	0.152	-0.071
-580.806	-28.230	-0.154	0.090
-579.792	108.030	-0.140	-0.168
-578.777	-62.534	0.366	-0.153
-577.763	-200.000	0.021	-0.132
-576.748	-27.274	0.145	-0.085
-575.733	176.215	0.075	-0.110
-574.719	-200.000	-0.030	-0.170
-573.704	-88.949	-0.246	0.073
-572.690	84.390	-0.148	0.163
-571.675	-112.593	0.301	0.061
-570.661	-200.000	-0.023	-0.445
-569.646	-200.000	0.004	-0.023
-568.631	99.869	0.267	-0.312
-567.617	-161.957	0.225	0.011
-566.602	-92.515	0.253	0.072
-565.588	-63.688	0.290	0.120
-564.573	-80.074	0.291	0.098
-563.558	800.000	0.037	-0.153
-562.544	-20.226	-0.158	0.098
-561.529	63.933	0.187	-0.190
-560.515	403.069	0.103	-0.219
-559.500	22.566	-0.019	0.016
-558.485	8.215	-0.371	-0.280
-557.471	-37.489	0.294	0.158
-556.456	-119.545	0.267	-0.047
-555.442	-145.258	-0.196	-0.018
-554.427	216.857	0.095	-0.152
-553.412	-117.716	0.329	-0.060
-552.398	13.866	-0.274	-0.214
-551.383	317.773	-0.030	-0.057
-550.369	149.063	-0.069	-0.094
-549.354	800.000	0.048	-0.153
-548.339	-101.852	-0.356	-0.087
-547.325	-164.702	-0.232	0.011
-546.310	159.158	0.136	-0.191
-545.296	-76.674	-0.149	-0.053
-544.281	-30.033	0.122	-0.070
-543.266	132.233	0.089	-0.115
-542.252	505.745	-0.069	-0.162
-541.237	-41.585	-0.142	-0.074
-540.223	-33.076	0.053	0.029
-539.208	-43.268	-0.216	-0.110
-538.193	800.000	-0.052	-0.159
-537.179	-44.962	-0.255	-0.128
-536.164	-85.111	-0.416	-0.131
-535.150	-46.391	-0.221	0.109
-534.135	-1.031	-0.056	0.040
-533.121	-200.000	-0.042	0.191
-532.106	-78.976	0.169	0.058
-531.091	-101.132	0.220	0.054
-530.077	800.000	0.041	-0.156
-529.062	463.727	-0.240	0.539
-528.048	-44.367	0.228	0.115
-527.033	40.557	0.291	0.264
-526.018	-50.485	-0.320	-0.152
-525.004	-68.351	-0.110	0.043
-523.989	-108.678	0.542	-0.117
-522.975	-200.000	0.006	-0.164
-521.960	-187.785	-0.125	-0.002
-520.945	293.709	0.134	0.246
-519.931	-200.000	0.024	-0.205
-518.916	-75.949	-0.252	-0.090
-517.902	38.713	-0.037	0.034
-516.887	-166.009	-0.377	0.016
-515.872	-100.233	0.236	-0.059
-514.858	147.815	-0.122	-0.165
-513.843	418.970	0.031	0.067
-512.829	65.598	-0.163	0.166
-511.814	-38.442	-0.277	-0.147
-510.799	-34.083	-0.216	0.120
-509.785	-64.663	0.181	0.074
-508.770	23.486	-0.142	-0.118
-507.756	49.032	0.164	0.155
-506.741	298.567	0.106	0.196
-505.726	-7.126	0.152	0.104
-504.712	23.677	0.207	-0.172
-503.697	-200.000	-0.030	0.300
-502.683	73.588	-0.222	0.233
-501.668	-139.990	0.344	0.036
-500.653	107.922	0.233	-0.280
-499.639	-43.245	-0.315	-0.160
-498.624	-200.000	-0.011	-0.182
-497.610	-200.000	0.051	-0.364
-496.595	-31.045	-0.186	-0.106
-495.581	29.229	0.218	0.186
-494.566	-6.905	-0.154	0.105
-493.551	800.000	-0.084	0.241
-492.537	800.000	0.041	0.174
-491.522	-102.207	0.384	0.093
-490.508	323.241	0.043	-0.083
-489.493	-200.000	0.001	0.233
-488.478	-200.000	0.007	-0.127
-487.464	15.972	-0.157	0.124
-486.449	4.001	0.220	-0.162
-485.435	-200.000	-0.009	0.054
-484.420	526.174	-0.150	0.354
-483.405	-200.000	0.005	0.316
-482.391	-200.000	0.039	0.268
-481.376	-5.013	-0.288	-0.199
-480.362	542.424	0.092	-0.220
-479.347	-123.999	-0.055	-0.009
-478.332	-168.191	0.422	-0.016
-477.318	-200.000	0.001	0.042
-476.303	258.927	0.088	-0.153
-475.289	-95.415	-0.077	0.021
-474.274	800.000	-0.101	-0.368
-473.259	660.611	-0.077	0.199
-472.245	-200.000	0.008	0.110
-471.230	-4.351	0.318	-0.221
-470.216	-200.000	0.058	0.487
-469.201	-12.510	0.138	0.090
-468.186	-7.549	0.338	-0.230
-467.172	41.352	0.233	0.212
-466.157	-116.777	-0.332	-0.061
-465.143	800.000	0.051	-0.166
-464.128	157.426	0.115	0.160
-463.113	-200.000	-0.040	-0.214
-462.099	-200.000	0.039	-0.181
-461.084	12.875	0.027	-0.021
-460.070	-93.805	0.075	0.021
-459.055	-76.496	-0.177	0.062
-458.040	313.617	-0.170	-0.322
-457.026	-35.819	-0.304	0.165
-456.011	800.000	-0.055	-0.175
-454.997	-13.806	0.101	0.065
-453.982	-200.000	0.084	0.539
-452.968	31.961	-0.220	0.190
-451.953	-23.233	-0.251	-0.152
-450.938	-200.000	-0.003	-0.108
-449.924	137.959	-0.139	-0.183
-448.909	-99.402	-0.174	0.044
-447.895	436.035	-0.100	-0.219
-446.880	204.599	-0.109	0.169
-445.865	-66.468	-0.126	-0.050
-444.851	-200.000	-0.016	-0.382
-443.836	29.900	0.078	0.066
-442.822	-136.545	0.389	-0.045
-441.807	-102.569	-0.325	-0.078
-440.792	435.997	0.085	0.186
-439.778	45.144	0.135	0.125
-438.763	-200.000	0.021	-0.100
-437.749	260.557	-0.081	-0.141
-436.734	-200.000	-0.007	-0.061
-435.719	-200.000	-0.027	-0.172
-434.705	262.890	-0.190	-0.330
-433.690	125.086	-0.099	-0.126
-432.676	262.560	-0.242	-0.421
-431.661	-98.442	0.245	0.063
-430.646	800.000	0.110	-0.325
-429.632	-72.954	0.490	-0.180
-428.617	528.224	-0.193	0.457
-427.603	622.453	-0.094	0.236
-426.588	-200.000	0.040	-0.246
-425.573	-78.960	-0.265	0.090
-424.559	-181.236	-0.216	0.004
-423.544	559.740	0.156	0.378
-422.530	-200.000	-0.047	0.241
-421.515	-33.077	0.295	0.164
-420.500	103.780	-0.052	0.061
-419.486	-117.406	0.284	-0.052
-418.471	800.000	-0.075	-0.267
-417.457	48.393	0.096	0.090
-416.442	-84.297	-0.444	-0.141
-415.428	-5.110	-0.082	0.057
-414.413	85.270	0.157	0.173
-413.398	-95.320	-0.110	0.030
-412.384	144.596	-0.214	-0.286
-411.369	-38.775	-0.326	-0.172
-410.355	-105.832	0.146	-0.033
-409.340	49.951	0.236	-0.223
-408.325	-16.064	-0.276	-0.176
-407.311	785.338	-0.116	-0.318
-406.296	-200.000	0.011	-0.105
-405.282	-139.528	0.070	0.007
-404.267	-200.000	0.005	-0.036
-403.252	-23.287	-0.098	0.059
-402.238	800.000	-0.102	0.349
-401.223	-200.000	0.053	-0.282
-400.209	-200.000	0.011	-0.120
-399.194	-91.694	-0.483	0.138
-398.179	-99.250	-0.090	0.023
-397.165	126.836	0.098	0.125
-396.150	800.000	-0.013	0.036
-395.136	69.941	0.122	0.126
-394.121	-90.018	0.319	0.093
-393.106	-200.000	0.032	-0.147
-392.092	291.153	0.033	0.060
-391.077	564.516	-0.200	0.486
-390.063	-200.000	-0.006	-0.061
-389.048	-200.000	0.039	-0.280
-388.033	100.545	-0.097	0.113
-387.019	-200.000	-0.019	0.189
-386.004	166.034	-0.069	-0.098
-384.990	-102.717	-0.187	0.045
-383.975	800.000	-0.070	-0.294
-382.960	-200.000	0.011	-0.267
-381.946	10.810	-0.189	-0.144
-380.931	-200.000	0.005	-0.155
-379.917	-96.768	-0.144	-0.038
-378.902	13.508	-0.169	-0.131
-377.888	-113.588	0.187	-0.036
-376.873	156.699	-0.174	0.241
-375.858	89.853	0.176	0.197
-374.844	-107.522	0.246	0.054
-373.829	-3.675	0.189	0.131
-372.815	-142.533	0.155	-0.015
-371.800	102.748	-0.147	0.172
-370.785	-107.133	0.170	0.037
-369.771	-53.979	-0.204	-0.093
-368.756	-200.000	-0.009	0.173
-367.742	-60.538	0.109	0.046
-366.727	-82.374	-0.140	0.045
-365.712	312.321	-0.087	-0.164
-364.698	6.347	-0.157	-0.116
-363.683	-200.000	0.035	-0.521
-362.669	12.426	-0.312	-0.241
-361.654	-149.672	-0.258	-0.020
-360.639	800.000	0.039	-0.138
-359.625	410.232	0.159	-0.338
-358.610	-200.000	0.003	0.047
-357.596	26.737	0.274	-0.229
-356.581	-66.279	0.063	-0.025
-355.566	800.000	-0.069	-0.245
-354.552	-200.000	-0.016	-0.183
-353.537	-66.254	0.166	-0.066
-352.523	462.529	0.072	0.160
-351.508	79.901	-0.231	0.248
-350.493	-99.601	0.148	-0.037
-349.479	172.575	-0.055	-0.079
-348.464	-109.351	0.284	0.060
-347.450	124.573	0.201	0.252
-346.435	-173.591	-0.192	-0.006
-345.420	16.729	-0.367	0.290
-344.406	-200.000	0.034	-0.206
-343.391	-200.000	-0.027	0.199
-342.377	510.746	0.113	-0.263
-341.362	-166.626	-0.379	-0.016
-340.348	800.000	-0.046	0.155
-339.333	779.766	0.076	-0.208
-338.318	44.895	0.024	0.022
-337.304	-70.359	0.058	0.022
-336.289	325.439	0.017	0.032
-335.275	570.755	0.033	-0.081
-334.260	-198.519	-0.099	-0.001
-333.245	-16.117	0.160	0.102
-332.231	-200.000	0.008	0.052
-331.216	-177.010	0.497	-0.012
-330.202	-200.000	-0.041	-0.308
-329.187	122.059	0.082	0.102
-328.172	-69.154	-0.154	-0.059
-327.158	-57.001	0.227	-0.100
-326.143	-88.100	0.102	0.030
-325.129	800.000	0.005	-0.014
-324.114	-200.000	0.004	0.149
-323.099	-200.000	-0.060	0.413
-322.085	-200.000	-0.025	0.136
-321.070	137.570	-0.042	0.055
-320.056	95.657	-0.181	0.206
-319.041	66.245	0.081	0.082
-318.026	115.772	-0.045	0.055
-317.012	-200.000	-0.021	-0.207
-315.997	800.000	0.073	0.211
-314.983	-43.028	-0.337	0.171
-313.968	76.588	-0.113	0.120
-312.953	88.011	0.077	-0.086
-311.939	-41.712	-0.225	0.115
-310.924	70.102	-0.129	0.133
-309.910	169.748	0.188	0.268
-308.895	-65.346	0.219	0.088
-307.880	80.573	-0.039	-0.042
-306.866	-105.806	0.134	0.030
-305.851	-200.000	0.017	0.259
-304.837	-200.000	0.011	0.047
-303.822	800.000	-0.140	0.497
-302.807	172.559	0.095	0.137
-301.793	-103.580	0.146	-0.034
-300.778	154.691	-0.182	-0.250
-299.764	118.014	0.083	-0.102
-298.749	19.152	0.184	0.147
-297.735	-60.595	-0.144	-0.061
-296.720	-50.460	0.297	-0.140
-295.705	18.668	0.228	0.182
-294.691	-132.270	0.052	-0.007
-293.676	-50.744	-0.240	0.113
-292.662	443.075	-0.077	0.169
-291.647	-200.000	0.013	-0.082
-290.632	362.119	-0.182	0.364
-289.618	4.000	0.037	0.027
-288.603	176.472	0.020	-0.030
-287.589	-20.058	0.096	0.059
-286.574	-114.208	0.324	-0.062
-285.559	-142.908	0.151	0.015
-284.545	-200.000	0.003	0.308
-283.530	-122.927	0.262	-0.042
-282.516	-48.034	-0.106	0.051
-281.501	-62.533	0.232	-0.096
-280.486	-20.682	0.119	-0.073
-279.472	0.342	0.120	0.086
-278.457	218.262	0.058	-0.092
-277.443	-200.000	-0.379	0.001
-276.428	-200.000	0.038	-0.178
-275.413	800.000	-0.059	0.167
-274.399	-120.508	0.220	-0.037
-273.384	-16.463	0.086	-0.055
-272.370	494.530	0.095	0.217
-271.355	82.264	-0.068	-0.073
-270.340	-107.897	-0.079	-0.017
-269.326	137.571	0.310	0.404
-268.311	11.258	0.252	0.192
-267.297	384.889	-0.059	-0.120
-266.282	-27.318	0.107	0.062
-265.267	622.905	0.039	0.097
-264.253	162.220	-0.255	0.356
-263.238	-136.543	0.076	-0.009
-262.224	-21.461	-0.173	-0.105
-261.209	78.853	-0.143	0.152
-260.195	800.000	-0.053	0.230
-259.180	-200.000	0.003	0.084
-258.165	-115.797	0.204	-0.038
-257.151	-152.837	-0.418	-0.029
-256.136	-104.618	-0.051	0.012
-255.122	-87.845	-0.019	0.006
-254.107	201.252	-0.051	-0.077
-253.092	800.000	-0.010	-0.031
-252.078	800.000	-0.062	-0.206
-251.063	-200.000	-0.009	-0.170
-250.049	800.000	-0.036	-0.136
-249.034	-32.249	0.244	0.136
-248.019	-14.644	0.240	-0.153
-247.005	-121.766	-0.260	-0.043
-245.990	112.460	0.251	0.303
-244.976	-76.133	0.292	0.103
-243.961	-112.663	0.363	0.072
-242.946	800.000	0.034	0.128
-241.932	-151.581	-0.411	0.030
-240.917	-36.753	-0.154	0.082
-239.903	20.869	0.360	0.290
-238.888	-31.798	-0.082	-0.045
-237.873	800.000	0.069	0.202
-236.859	118.845	0.240	-0.294
-235.844	-42.788	0.262	0.133
-234.830	101.116	-0.115	-0.133
-233.815	-137.327	0.108	0.012
-232.800	-147.111	0.346	0.029
-231.786	-135.596	-0.277	0.033
-230.771	-200.000	-0.053	-0.340
-229.757	-190.403	-0.124	-0.001
-228.742	-104.700	0.172	-0.039
-227.727	-200.000	-0.022	-0.102
-226.713	-125.379	-0.167	0.025
-225.698	206.619	-0.061	-0.094
-224.684	-200.000	-0.035	-0.235
-223.669	-185.443	0.323	-0.005
-222.655	308.306	0.139	0.259
-221.640	-30.607	-0.153	0.086
-220.625	325.244	0.148	-0.282
-219.611	20.845	-0.184	0.148
-218.596	-101.190	-0.243	-0.059
-217.582	264.745	0.176	0.304
-216.567	-200.000	0.036	-0.309
-215.552	-200.000	-0.037	0.274
-214.538	-70.283	0.010	0.004
-213.523	126.358	0.115	0.145
-212.509	-11.972	-0.124	0.081
-211.494	-21.200	0.240	0.146
-210.479	800.000	-0.064	-0.277
-209.465	-107.889	0.182	-0.039
-208.450	-200.000	0.008	0.256
-207.436	-52.910	-0.346	0.158
-206.421	214.243	0.029	-0.046
-205.406	14.980	0.089	0.069
-204.392	-140.164	0.277	0.029
-203.377	-200.000	-0.071	0.373
-202.363	-41.844	0.096	-0.049
-201.348	182.270	-0.101	-0.148
-200.333	207.403	0.085	0.132
-199.319	-200.000	0.007	0.075
-198.304	280.425	0.077	-0.137
-197.290	-118.316	0.097	-0.017
-196.275	633.612	-0.086	-0.218
-195.260	303.465	0.324	-0.597
-194.246	296.014	0.047	-0.086
-193.231	-102.885	-0.261	-0.062
-192.217	487.288	0.105	0.238
-191.202	-129.390	0.163	0.023
-190.187	-33.898	-0.222	0.121
-189.173	-61.224	0.058	-0.024
-188.158	-28.215	-0.080	-0.046
-187.144	-36.874	0.296	-0.158
-186.129	-200.000	0.010	0.129
-185.114	354.605	0.084	0.166
-184.100	20.792	-0.136	0.109
-183.085	59.862	-0.202	0.198
-182.071	287.009	0.047	0.084
-181.056	146.921	0.060	0.080
-180.042	360.549	-0.155	0.308
-179.027	-3.899	-0.126	0.087
-178.012	-24.604	0.516	-0.305
-176.998	-7.407	-0.335	0.225
-175.983	800.000	-0.024	-0.087
-174.969	187.179	0.271	-0.401
-173.954	-200.000	0.041	0.213
-172.939	-143.404	0.505	-0.048
-171.925	163.399	-0.064	-0.090
-170.910	-200.000	-0.020	0.095
-169.896	443.982	-0.131	-0.285
-168.881	800.000	-0.066	-0.180
-167.866	-193.881	-0.175	-0.001
-166.852	-200.000	-0.001	-0.206
-165.837	124.892	-0.060	0.074
-164.823	-107.589	-0.234	-0.051
-163.808	-200.000	-0.023	-0.134
-162.793	-16.339	-0.086	0.054
-161.779	-164.146	-0.483	0.022
-160.764	735.672	-0.077	-0.206
-159.750	136.021	-0.070	-0.091
-158.735	-133.297	-0.366	0.046
-157.720	-200.000	0.026	0.430
-156.706	-131.163	-0.196	-0.026
-155.691	-159.060	0.112	0.006
-154.677	193.496	-0.174	-0.261
-153.662	-16.629	0.306	-0.192
-152.647	-95.192	-0.359	0.096
-151.633	-200.000	0.045	0.206
-150.618	-41.103	0.003	0.001
-149.604	2.180	-0.086	0.062
-148.589	121.061	-0.190	0.235
-147.574	-46.467	-0.197	-0.096
-146.560	119.746	0.183	0.225
-145.545	101.188	0.119	0.138
-144.531	-200.000	0.058	0.372
-143.516	800.000	-0.024	0.075
-142.502	-200.000	-0.047	-0.307
-141.487	-86.740	-0.449	0.136
-140.472	-40.833	0.223	0.114
-139.458	26.651	-0.133	0.110
-138.443	800.000	-0.038	0.157
-137.429	-200.000	-0.083	0.408
-136.414	-123.668	0.118	-0.019
-135.399	-60.568	0.327	-0.138
-134.385	-200.000	-0.011	0.078
-133.370	165.155	0.033	-0.047
-132.356	800.000	-0.064	-0.264
-131.341	387.185	0.197	0.404
-130.326	765.213	-0.077	0.207
-129.312	-123.132	-0.408	-0.065
-128.297	18.007	0.078	0.062
-127.283	-50.497	0.195	0.091
-126.268	800.000	-0.044	-0.145
-125.253	-28.834	0.112	0.064
-124.239	161.748	0.242	0.336
-123.224	141.031	-0.116	-0.152
-122.210	800.000	0.040	-0.114
-121.195	-200.000	0.010	0.492
-120.180	-200.000	-0.007	0.293
-119.166	-200.000	-0.008	0.087
-118.151	23.970	0.179	-0.146
-117.137	237.544	0.021	-0.035
-116.122	408.422	0.086	-0.180
-115.107	-200.000	-0.008	-0.158
-114.093	-200.000	-0.022	0.140
-113.078	-200.000	0.054	-0.278
-112.064	-64.304	0.185	-0.074
-111.049	-200.000	0.057	0.338
-110.034	-200.000	0.054	0.378
-109.020	17.186	0.312	0.245
-108.005	-101.219	-0.308	-0.074
-106.991	134.230	-0.130	0.166
-105.976	67.905	0.328	0.332
-104.962	285.765	-0.212	-0.378
-103.947	234.702	0.065	-0.106
-102.932	81.643	-0.130	0.140
-101.918	405.865	0.017	-0.036
-100.903	264.378	-0.229	0.395
-99.889	800.000	0.101	0.434
-98.874	-13.460	-0.251	0.161
-97.859	167.525	0.144	-0.203
-96.845	-200.000	-0.016	-0.153
-95.830	33.627	-0.207	0.178
-94.816	-200.000	0.030	0.323
-93.801	-110.671	-0.158	0.032
-92.786	171.625	-0.112	0.159
-91.772	-83.918	0.176	0.055
-90.757	380.358	0.082	0.166
-89.743	-200.000	-0.014	-0.139
-88.728	-200.000	-0.079	0.423
-87.713	-200.000	0.021	0.203
-86.699	-122.934	0.318	-0.051
-85.684	-103.073	-0.142	0.033
-84.670	89.001	0.108	-0.119
-83.655	196.229	-0.031	-0.047
-82.640	345.002	-0.126	0.245
-81.626	55.845	0.175	0.168
-80.611	-200.000	-0.017	0.132
-79.597	441.964	-0.205	0.443
-78.582	-66.854	-0.203	-0.079
-77.567	48.847	-0.207	-0.192
-76.553	21.000	-0.198	-0.158
-75.538	-200.000	-0.073	0.359
-74.524	109.120	-0.163	0.193
-73.509	56.689	-0.243	0.234
-72.494	-20.712	0.227	-0.138
-71.480	-200.000	0.001	-0.017
-70.465	-200.000	0.100	0.486
-69.451	90.131	-0.163	-0.180
-68.436	-20.517	0.328	-0.199
-67.422	-197.240	0.144	-0.001
-66.407	-200.000	0.023	0.230
-65.392	622.752	0.100	-0.248
-64.378	197.228	0.047	-0.071
-63.363	51.423	-0.178	0.168
-62.349	43.665	-0.097	0.088
-61.334	-75.908	-1.052	-0.368
-60.319	-46.940	0.668	0.323
-59.305	-200.000	-0.063	-0.704
-58.290	497.173	0.383	0.872
-57.276	367.903	0.698	1.394
-56.261	-200.000	87.535	501.606
-55.246	548.083	1373.163	3248.592
-54.232	184.605	2618.686	3834.146
-53.217	111.170	2352.132	2799.450
-52.203	45.232	1960.895	1786.143
-51.188	39.408	1744.479	1543.467
-50.173	36.637	1698.851	1481.848
-49.159	52.493	1742.146	1642.807
-48.144	56.035	1760.090	1687.101
-47.130	39.283	1719.333	1520.013
-46.115	36.255	1704.838	1483.892
-45.100	36.093	1699.997	1478.382
-44.086	36.156	1697.126	1476.306
-43.071	36.053	1694.787	1473.424
-42.057	36.020	1691.980	1470.672
-41.042	36.044	1689.608	1468.733
-40.027	36.134	1688.241	1468.174
-39.013	35.994	1686.202	1465.281
-37.998	36.031	1683.980	1463.573
-36.984	36.121	1682.679	1463.063
-35.969	36.302	1681.422	1463.284
-34.954	36.285	1679.585	1461.499
-33.940	36.226	1678.240	1459.823
-32.925	36.262	1676.472	1458.506
-31.911	36.263	1674.582	1456.808
-30.896	36.232	1672.897	1455.050
-29.881	36.226	1670.870	1453.188
-28.867	36.295	1669.067	1452.078
-27.852	36.281	1668.227	1451.183
-26.838	36.245	1666.493	1449.347
-25.823	36.330	1665.119	1448.733
-24.809	36.310	1663.333	1446.969
-23.794	36.314	1661.904	1445.706
-22.779	36.300	1660.548	1444.358
-21.765	36.342	1658.761	1443.059
-20.750	36.293	1656.955	1441.066
-19.736	36.356	1655.583	1440.291
-18.721	36.263	1654.606	1438.688
-17.706	36.323	1652.524	1437.266
-16.692	36.230	1651.460	1435.590
-15.677	36.209	1650.179	1434.263
-14.663	36.302	1648.168	1433.153
-13.648	36.341	1646.372	1431.824
-12.633	36.332	1645.257	1430.727
-11.619	36.219	1643.675	1428.459
-10.604	36.280	1642.433	1427.777
-9.590	36.222	1640.543	1425.645
-8.575	36.254	1639.361	1424.799
-7.560	36.209	1638.625	1423.772
-6.546	36.328	1636.728	1422.945
-5.531	36.241	1635.825	1421.462
-4.517	36.195	1634.759	1420.142
-3.502	36.271	1633.291	1419.365
-2.487	36.260	1631.935	1418.048
-1.473	36.239	1620.289	1407.722
-0.458	33.948	1600.678	1374.087
0.556	28.860	1601.379	1343.808
1.571	26.715	1626.635	1348.936
2.586	26.149	1640.729	1356.255
3.600	22.944	1584.799	1286.605
4.615	11.800	1466.025	1114.576
5.629	2.126	1395.268	997.722
6.644	0.337	1386.588	979.807
7.659	0.131	1384.737	977.071
8.673	0.119	1383.715	976.185
9.688	0.004	1382.061	974.187
10.702	-0.092	1378.938	971.278
11.717	3.348	1386.568	998.898
12.731	14.062	1407.517	1084.103
13.746	22.108	1420.735	1146.933
14.761	23.252	1421.891	1155.234
15.775	23.382	1421.480	1155.650
16.790	23.388	1421.370	1155.494
17.804	23.428	1420.402	1154.868
18.819	23.712	1419.966	1156.258
19.834	23.784	1419.408	1156.169
20.848	23.810	1418.485	1155.487
21.863	23.729	1418.058	1154.511
22.877	23.729	1416.978	1153.525
23.892	23.737	1416.397	1153.002
24.907	23.767	1415.580	1152.432
25.921	23.654	1415.376	1151.433
26.936	23.762	1413.247	1150.299
27.950	23.740	1412.132	1149.145
28.965	23.771	1410.895	1148.240
29.980	23.842	1408.941	1147.002
30.994	23.749	1408.297	1145.777
32.009	23.853	1406.721	1145.062
33.023	23.789	1405.690	1143.715
34.038	23.807	1404.751	1142.965
35.053	23.726	1403.924	1141.668
36.067	23.867	1402.626	1141.415
37.082	23.850	1401.461	1140.256
38.096	23.853	1400.732	1139.583
39.111	23.703	1400.470	1138.312
40.126	23.710	1399.454	1137.425
41.140	23.817	1398.494	1137.230
42.155	23.763	1398.223	1136.564
43.169	23.628	1398.802	1136.068
44.184	23.744	1398.109	1136.151
45.199	23.722	1397.760	1135.622
46.213	23.704	1397.073	1134.848
47.228	23.765	1396.029	1134.293
48.242	23.722	1394.688	1132.825
49.257	23.823	1392.996	1131.997
50.271	23.730	1391.904	1130.420
51.286	23.814	1390.328	1129.568
52.301	23.743	1389.369	1128.243
53.315	23.754	1388.310	1127.352
54.330	23.755	1387.674	1126.742
55.344	23.737	1386.552	1125.617
56.359	23.769	1385.400	1124.782
57.374	23.791	1384.085	1123.756
58.388	23.823	1383.565	1123.436
59.403	23.727	1383.800	1122.921
60.417	23.824	1382.792	1122.617
61.432	23.671	1382.355	1121.194
62.447	23.807	1381.431	1121.205
63.461	23.703	1380.371	1119.593
64.476	23.696	1379.630	1118.843
65.490	23.779	1377.997	1117.947
66.505	23.812	1376.149	1116.552
67.520	23.799	1374.929	1115.386
68.534	23.669	1374.477	1114.102
69.549	23.809	1373.176	1113.828
70.563	23.788	1372.539	1113.081
71.578	23.871	1371.038	1112.283
72.593	23.788	1370.376	1111.127
73.607	23.739	1369.635	1110.122
74.622	23.862	1369.031	1110.303
75.636	23.952	1367.828	1109.790
76.651	23.732	1367.681	1108.201
77.666	23.739	1367.032	1107.621
78.680	23.794	1366.494	1107.433
79.695	23.850	1365.316	1106.726
80.709	23.768	1364.796	1105.698
81.724	23.778	1364.191	1105.174
82.739	23.740	1363.164	1104.005
83.753	23.781	1361.804	1103.059
84.768	23.802	1360.716	1102.214
85.782	23.758	1359.551	1100.900
86.797	23.794	1358.349	1100.054
87.812	23.802	1357.191	1099.062
88.826	23.797	1356.518	1098.391
89.841	23.877	1355.420	1097.899
90.855	23.805	1354.308	1096.461
91.870	23.928	1353.159	1096.186
92.884	23.848	1352.736	1095.256
93.899	23.830	1352.086	1094.523
94.914	23.812	1351.309	1093.683
95.928	23.783	1350.686	1092.909
96.943	23.944	1349.607	1092.924
97.957	23.848	1348.729	1091.529
98.972	23.900	1347.879	1091.063
99.987	23.805	1346.984	1089.658
101.001	23.714	1346.050	1088.251
102.016	23.806	1345.085	1087.937
103.030	23.801	1344.285	1087.164
104.045	23.837	1343.196	1086.409
105.060	23.946	1341.729	1085.791
106.074	23.831	1341.430	1084.749
107.089	23.862	1340.417	1084.024
108.103	23.845	1338.908	1082.601
109.118	23.937	1337.996	1082.328
110.133	23.879	1337.120	1081.174
111.147	23.971	1335.370	1080.223
112.162	23.914	1334.361	1078.963
113.176	23.893	1333.869	1078.344
114.191	23.901	1332.307	1077.035
115.206	23.893	1331.668	1076.372
116.220	23.902	1330.497	1075.382
117.235	23.818	1329.802	1074.222
118.249	23.840	1329.227	1073.792
119.264	23.821	1327.958	1072.561
120.279	23.906	1327.134	1072.310
121.293	24.010	1326.421	1072.270
122.308	23.970	1325.557	1071.235
123.322	23.944	1324.979	1070.516
124.337	23.969	1323.851	1069.656
125.352	24.029	1322.605	1068.915
126.366	23.991	1321.598	1067.780
127.381	23.963	1320.896	1066.952
128.395	23.967	1320.068	1066.212
129.410	23.961	1319.193	1065.377
130.424	23.901	1318.725	1064.544
131.439	24.013	1317.557	1064.177
132.454	23.931	1316.975	1063.121
133.468	23.891	1316.345	1062.284
134.483	23.948	1315.735	1062.035
135.497	23.947	1315.404	1061.670
136.512	24.048	1313.530	1060.663
137.527	24.049	1312.247	1059.542
138.541	24.090	1310.876	1058.581
139.556	24.000	1310.166	1057.378
140.570	24.027	1309.251	1056.710
141.585	23.961	1308.249	1055.416
142.600	23.974	1306.896	1054.305
143.614	23.936	1306.310	1053.515
144.629	23.924	1305.117	1052.389
145.643	23.923	1303.915	1051.323
146.658	23.859	1303.139	1050.224
147.673	23.943	1301.861	1049.601
148.687	23.809	1301.160	1048.150
149.702	23.882	1299.578	1047.213
150.716	23.873	1298.715	1046.371
151.731	23.866	1297.564	1045.312
152.746	23.949	1296.564	1044.896
153.760	24.003	1295.500	1044.265
154.775	24.057	1294.433	1043.629
155.789	24.013	1293.472	1042.507
156.804	23.909	1292.612	1041.109
157.819	23.962	1291.469	1040.408
158.833	23.966	1290.971	1039.937
159.848	24.032	1290.296	1039.686
160.862	24.072	1289.318	1039.045
161.877	23.954	1288.690	1037.759
162.892	24.020	1287.713	1037.264
163.906	23.964	1287.170	1036.410
164.921	24.003	1286.411	1035.931
165.935	24.068	1285.658	1035.608
166.950	24.087	1284.693	1034.851
167.964	24.134	1284.121	1034.574
168.979	24.101	1283.617	1033.884
169.994	24.038	1283.393	1033.248
171.008	24.041	1282.488	1032.442
172.023	24.123	1281.419	1031.965
173.037	24.132	1281.197	1031.747
174.052	24.109	1280.271	1030.777
175.067	24.058	1279.525	1029.791
176.081	24.017	1278.742	1028.834
177.096	24.029	1277.986	1028.203
178.110	24.054	1277.029	1027.486
179.125	24.076	1275.919	1026.630
180.140	24.169	1274.664	1026.065
181.154	24.148	1273.556	1024.964
182.169	24.074	1272.486	1023.584
183.183	24.134	1271.577	1023.105
184.198	24.165	1270.407	1022.251
185.213	24.116	1269.796	1021.392
186.227	24.176	1268.832	1020.868
187.242	24.192	1267.679	1019.942
188.256	24.103	1266.984	1018.786
189.271	24.234	1266.040	1018.684
190.286	24.199	1265.396	1017.874
191.300	24.115	1264.841	1016.857
192.315	24.135	1264.078	1016.266
193.329	24.106	1264.374	1016.250
194.344	24.262	1263.490	1016.340
195.359	24.110	1263.072	1015.046
196.373	24.175	1262.273	1014.686
197.388	24.041	1262.411	1013.942
198.402	24.133	1261.710	1013.812
199.417	24.104	1261.204	1013.153
200.432	24.125	1260.713	1012.788
201.446	24.228	1259.868	1012.604
202.461	24.192	1259.355	1011.901
203.475	24.171	1258.506	1011.011
204.490	24.185	1257.347	1010.069
205.504	24.069	1256.461	1008.611
206.519	24.385	1255.048	1009.172
207.534	24.197	1254.769	1007.794
208.548	24.282	1253.049	1006.807
209.563	24.222	1252.694	1006.094
210.577	24.275	1251.567	1005.398
211.592	24.307	1250.705	1004.797
212.607	24.191	1250.213	1003.660
213.621	24.264	1249.350	1003.287
214.636	24.318	1248.676	1002.964
215.650	24.202	1247.771	1001.493
216.665	24.219	1246.561	1000.531
217.680	24.219	1245.788	999.824
218.694	24.442	1244.492	999.940
219.709	24.307	1244.412	999.033
220.723	24.366	1243.782	998.768
221.738	24.286	1242.785	997.432
222.753	24.245	1242.270	996.704
223.767	24.255	1241.522	996.070
224.782	24.398	1241.221	996.537
225.796	24.371	1240.527	995.741
226.811	24.427	1239.667	995.275
227.826	24.319	1239.601	994.535
228.840	24.454	1238.741	994.508
229.855	24.412	1238.186	993.741
230.869	24.335	1237.111	992.361
231.884	24.443	1236.405	992.306
232.899	24.333	1236.025	991.302
233.913	24.388	1235.254	990.902
234.928	24.439	1235.049	990.932
235.942	24.460	1234.384	990.430
236.957	24.435	1233.290	989.324
237.972	24.447	1232.883	988.976
238.986	24.448	1232.214	988.361
240.001	24.521	1231.413	988.031
241.015	24.632	1230.167	987.558
242.030	24.550	1229.831	986.746
243.045	24.599	1228.762	986.072
244.059	24.535	1228.265	985.234
245.074	24.551	1227.323	984.482
246.088	24.564	1226.587	983.876
247.103	24.623	1225.862	983.529
248.117	24.510	1225.078	982.195
249.132	24.623	1224.272	982.078
250.147	24.591	1223.637	981.306
251.161	24.581	1223.247	980.855
252.176	24.670	1222.007	980.262
253.190	24.725	1221.784	980.297
254.205	24.707	1221.014	979.495
255.220	24.558	1220.588	978.251
256.234	24.653	1219.894	978.128
257.249	24.667	1219.231	977.584
258.263	24.662	1218.591	976.956
259.278	24.597	1218.263	976.255
260.293	24.759	1217.432	976.387
261.307	24.749	1216.934	975.848
262.322	24.758	1216.186	975.210
263.336	24.671	1215.581	974.165
264.351	24.730	1214.661	973.661
265.366	24.703	1214.359	973.187
266.380	24.727	1213.245	972.338
267.395	24.706	1212.789	971.772
268.409	24.742	1212.039	971.279
269.424	24.631	1211.954	970.523
270.439	24.640	1211.194	969.878
271.453	24.643	1210.605	969.336
272.468	24.636	1209.733	968.517
273.482	24.663	1209.023	968.004
274.497	24.744	1208.680	968.084
275.512	24.831	1207.711	967.693
276.526	24.718	1207.348	966.707
277.541	24.736	1206.536	966.065
278.555	24.776	1206.112	965.857
279.570	24.931	1204.810	965.566
280.585	24.873	1204.188	964.670
281.599	24.825	1203.396	963.689
282.614	24.904	1202.544	963.351
283.628	24.794	1201.366	961.729
284.643	24.872	1200.966	961.741
285.657	25.003	1199.789	961.418
286.672	24.841	1199.156	959.956
287.687	24.929	1198.664	959.950
288.701	24.870	1198.131	959.122
289.716	24.949	1196.911	958.485
290.730	24.941	1196.029	957.652
291.745	24.875	1195.926	957.129
292.760	24.954	1195.442	957.077
293.774	25.019	1194.477	956.571
294.789	24.875	1194.160	955.462
295.803	25.013	1193.154	955.308
296.818	25.063	1192.612	955.058
297.833	24.993	1191.800	953.950
298.847	24.975	1191.516	953.542
299.862	25.064	1190.389	953.027
300.876	25.086	1189.652	952.470
301.891	25.061	1189.026	951.750
302.906	25.129	1188.711	951.780
303.920	25.147	1187.954	951.183
304.935	25.071	1187.559	950.379
305.949	25.136	1186.556	949.836
306.964	25.119	1186.125	949.317
307.979	25.148	1185.300	948.726
308.993	25.136	1185.021	948.357
310.008	24.968	1184.579	947.028
311.022	25.037	1183.233	946.236
312.037	25.062	1182.559	945.746
313.052	25.095	1181.755	945.192
314.066	25.107	1180.638	944.279
315.081	25.054	1179.960	943.374
316.095	25.185	1178.901	943.132
317.110	25.207	1178.638	942.954
318.125	25.262	1178.001	942.649
319.139	25.172	1177.421	941.631
320.154	25.225	1176.896	941.402
321.168	25.115	1176.824	940.688
322.183	25.238	1175.828	940.450
323.197	25.193	1175.293	939.703
324.212	25.296	1174.492	939.519
325.227	25.313	1174.076	939.190
326.241	25.287	1173.339	938.385
327.256	25.237	1172.773	937.585
328.270	25.200	1171.917	936.627
329.285	25.270	1171.238	936.366
330.300	25.233	1170.017	935.116
331.314	25.214	1169.752	934.724
332.329	25.251	1168.918	934.166
333.343	25.294	1168.176	933.710
334.358	25.328	1167.063	932.916
335.373	25.467	1166.255	932.910
336.387	25.440	1165.678	932.226
337.402	25.469	1164.735	931.538
338.416	25.547	1164.342	931.547
339.431	25.361	1163.662	929.956
340.446	25.460	1163.158	929.984
341.460	25.415	1162.840	929.413
342.475	25.489	1162.218	929.218
343.489	25.407	1161.021	927.756
344.504	25.408	1160.185	927.008
345.519	25.485	1158.934	926.324
346.533	25.561	1158.537	926.316
347.548	25.506	1157.642	925.238
348.562	25.535	1156.872	924.692
349.577	25.430	1156.257	923.577
350.592	25.431	1155.040	922.528
351.606	25.452	1154.466	922.095
352.621	25.531	1153.953	922.011
353.635	25.499	1154.032	921.825
354.650	25.521	1152.917	920.969
355.665	25.498	1152.560	920.484
356.679	25.611	1151.470	920.109
357.694	25.625	1150.970	919.697
358.708	25.698	1150.191	919.369
359.723	25.603	1149.632	918.356
360.738	25.566	1149.166	917.714
361.752	25.510	1148.924	917.155
362.767	25.672	1148.341	917.434
363.781	25.700	1147.293	916.656
364.796	25.683	1146.759	916.064
365.810	25.739	1146.249	915.858
366.825	25.718	1145.646	915.191
367.840	25.807	1145.279	915.266
368.854	25.737	1144.835	914.477
369.869	25.713	1143.849	913.486
370.883	25.770	1142.753	912.817
371.898	25.845	1141.965	912.487
372.913	25.822	1141.585	911.988
373.927	25.725	1141.394	911.261
374.942	25.860	1140.459	911.120
375.956	25.923	1140.062	911.040
376.971	25.811	1139.359	909.834
377.986	25.903	1139.046	909.964
379.000	25.955	1138.198	909.468
380.015	25.953	1137.705	908.986
381.029	25.846	1137.177	907.945
382.044	25.839	1136.562	907.337
383.059	25.884	1135.741	906.826
384.073	25.987	1134.938	906.625
385.088	25.923	1134.127	905.572
386.102	26.071	1133.189	905.490
387.117	26.075	1132.209	904.647
388.132	25.947	1131.927	903.696
389.146	26.043	1131.108	903.444
390.161	25.931	1130.641	902.430
391.175	26.005	1129.861	902.099
392.190	25.932	1129.063	901.019
393.205	26.033	1128.256	900.799
394.219	26.068	1127.475	900.271
395.234	26.070	1126.848	899.697
396.248	26.058	1125.981	898.868
397.263	26.007	1125.188	897.901
398.278	26.130	1124.739	898.076
399.292	26.102	1124.193	897.419
400.307	26.090	1123.387	896.639
401.321	26.167	1122.772	896.449
402.336	26.021	1122.405	895.354
403.350	26.182	1121.337	895.223
404.365	26.143	1120.802	894.521
405.380	26.071	1120.090	893.518
406.394	26.192	1119.027	893.190
407.409	26.341	1118.489	893.418
408.423	26.221	1117.678	892.098
409.438	26.249	1117.154	891.737
410.453	26.194	1116.845	891.144
411.467	26.250	1116.054	890.708
412.482	26.222	1115.284	889.873
413.496	26.356	1114.247	889.629
414.511	26.250	1113.751	888.631
415.526	26.306	1113.479	888.612
416.540	26.212	1112.891	887.602
417.555	26.396	1112.139	887.829
418.569	26.314	1111.901	887.155
419.584	26.423	1111.490	887.287
420.599	26.298	1111.246	886.397
421.613	144.233	1403.023	1787.293
422.628	134.062	1445.527	1787.400
