DTS Sentinel unit serial number:	SN413079Multiplexer serial number:	ORYXHardware model number:	OX4-SRSoftware version number:	ORYX F/W v4.00 Oryx Data Collector v3.7.2.0data status	okinstallation	princeton_trtdifferential loss correction	single-endedforward channel	channel 2reverse channel	N/Adate	2019/09/10time	17:17:11forward acquisition time	60.00reverse acquisition time	0.00gamma	496.2192k internal	0.2310k external	0.2310temperature offset calibration	0.9934default loss term (dB/km)	0.3790temperature slope calibration	1.0000multiplexer offset coefficient	1.0000multiplexer slope coefficient	1.0000fibre end	0.00T internal ref (°C)	37.62T ext. ref 1 (°C)	-0.40T ext. ref 2 (°C)	32.06length (m)	temperature (°C)	Stokes	anti-Stokes-747.200	-42.355	0.024	0.012
-746.185	98.064	0.132	-0.155
-745.171	431.256	-0.077	0.170
-744.156	319.205	0.208	0.400
-743.142	109.102	0.054	-0.066
-742.127	111.132	0.182	0.223
-741.112	25.452	0.126	-0.106
-740.098	467.707	0.134	0.306
-739.083	255.754	-0.111	-0.194
-738.069	-200.000	0.319	0.001
-737.054	-200.000	0.004	-0.257
-736.039	300.635	0.055	-0.104
-735.025	61.565	0.087	0.088
-734.010	-39.786	-0.106	0.056
-732.996	-200.000	0.015	-0.168
-731.981	-45.131	0.251	0.127
-730.966	800.000	-0.016	-0.062
-729.952	-200.000	-0.019	-0.093
-728.937	-200.000	0.008	-0.257
-727.923	-8.829	0.084	-0.057
-726.908	-59.578	0.067	-0.029
-725.894	232.237	0.112	-0.187
-724.879	800.000	0.060	-0.218
-723.864	-200.000	0.002	0.053
-722.850	139.309	0.177	0.237
-721.835	-200.000	0.036	-0.304
-720.821	-100.594	-0.175	0.044
-719.806	-33.086	-0.131	-0.074
-718.791	-200.000	0.031	-0.497
-717.777	-162.553	0.325	0.016
-716.762	16.167	0.268	-0.214
-715.748	-102.569	0.355	0.086
-714.733	-19.952	0.148	0.093
-713.718	-113.065	0.196	-0.039
-712.704	296.167	-0.199	-0.369
-711.689	800.000	-0.123	-0.367
-710.675	-200.000	0.071	-0.339
-709.660	136.220	0.258	-0.341
-708.645	-155.430	-0.262	0.017
-707.631	-163.740	-0.447	0.021
-706.616	74.754	0.242	0.258
-705.602	-9.196	0.242	-0.164
-704.587	163.302	0.177	-0.252
-703.572	-198.299	-0.498	0.003
-702.558	800.000	-0.069	0.263
-701.543	800.000	0.063	-0.267
-700.529	-200.000	0.036	0.175
-699.514	-132.872	0.262	-0.034
-698.499	66.244	-0.118	0.122
-697.485	25.987	0.260	0.220
-696.470	430.916	-0.123	-0.271
-695.456	800.000	-0.029	-0.091
-694.441	615.372	-0.054	0.136
-693.426	-26.911	0.127	0.075
-692.412	26.092	-0.076	0.065
-691.397	253.663	0.059	-0.103
-690.383	375.740	0.047	0.097
-689.368	50.920	-0.237	0.228
-688.354	-200.000	-0.031	-0.138
-687.339	169.468	-0.247	-0.357
-686.324	6.183	-0.142	-0.106
-685.310	-173.214	-0.161	0.005
-684.295	800.000	-0.043	-0.171
-683.281	-48.847	0.269	0.131
-682.266	-149.494	-0.124	-0.010
-681.251	213.505	0.078	0.125
-680.237	-200.000	0.049	-0.254
-679.222	116.333	-0.032	-0.039
-678.208	-133.204	0.159	-0.020
-677.193	283.462	-0.068	0.123
-676.178	-200.000	0.037	-0.413
-675.164	312.055	-0.152	-0.289
-674.149	-162.417	-0.346	-0.017
-673.135	-10.236	0.156	0.105
-672.120	-200.000	0.003	-0.083
-671.105	-19.496	0.166	-0.104
-670.091	-36.937	-0.043	-0.023
-669.076	800.000	0.019	0.078
-668.062	88.837	-0.015	0.017
-667.047	-55.194	-0.142	-0.065
-666.032	129.536	-0.097	-0.126
-665.018	-5.966	-0.285	-0.198
-664.003	-56.784	0.318	0.143
-662.989	-98.023	-0.289	-0.076
-661.974	35.086	0.182	-0.161
-660.959	372.145	-0.177	0.364
-659.945	-200.000	0.038	0.190
-658.930	-200.000	0.044	-0.414
-657.916	-116.899	0.353	0.065
-656.901	-109.384	0.351	0.075
-655.886	-200.000	0.001	-0.012
-654.872	-200.000	0.022	-0.329
-653.857	-198.315	-0.029	-0.000
-652.843	-131.445	0.183	0.024
-651.828	-34.132	-0.267	0.149
-650.814	31.039	-0.155	-0.135
-649.799	-46.667	0.161	0.080
-648.784	-7.860	-0.082	-0.056
-647.770	72.956	0.219	-0.231
-646.755	-57.713	0.195	0.086
-645.741	-124.904	0.208	-0.033
-644.726	-200.000	-0.040	0.192
-643.711	94.630	0.087	-0.100
-642.697	698.506	0.041	0.109
-641.682	0.811	-0.190	-0.137
-640.668	10.534	0.038	-0.029
-639.653	-105.073	0.453	0.105
-638.638	-200.000	0.013	0.200
-637.624	42.749	0.069	-0.064
-636.609	-19.346	-0.115	0.072
-635.595	304.734	-0.071	0.133
-634.580	-86.798	-0.255	-0.079
-633.565	-200.000	-0.015	0.116
-632.551	-200.000	-0.021	0.126
-631.536	-200.000	0.007	-0.284
-630.522	-109.554	-0.356	0.076
-629.507	165.186	0.025	0.035
-628.492	191.418	-0.053	-0.080
-627.478	94.440	-0.111	0.128
-626.463	-172.061	-0.275	0.009
-625.449	29.400	0.179	0.154
-624.434	-200.000	0.018	-0.094
-623.419	800.000	-0.151	-0.448
-622.405	125.659	-0.088	-0.113
-621.390	7.354	-0.276	-0.208
-620.376	-145.704	-0.077	0.007
-619.361	-124.106	-0.209	0.033
-618.346	419.872	0.097	-0.211
-617.332	129.241	0.088	0.114
-616.317	289.864	0.096	0.177
-615.303	16.579	0.116	-0.093
-614.288	800.000	0.110	-0.316
-613.273	-200.000	-0.041	-0.224
-612.259	800.000	0.058	-0.177
-611.244	-134.002	-0.347	-0.043
-610.230	-124.408	0.199	0.031
-609.215	-128.691	0.203	0.029
-608.201	446.289	0.069	-0.153
-607.186	-200.000	0.035	0.158
-606.171	-200.000	-0.004	0.220
-605.157	-62.565	0.251	0.105
-604.142	67.379	0.029	-0.030
-603.128	-132.243	-0.146	0.019
-602.113	221.572	0.088	0.142
-601.098	-151.469	-0.352	0.026
-600.084	-200.000	-0.025	-0.116
-599.069	0.713	-0.237	0.171
-598.055	800.000	0.023	0.103
-597.040	-5.554	0.143	-0.099
-596.025	24.569	-0.074	0.062
-595.011	-72.516	0.072	-0.027
-593.996	63.442	-0.169	0.171
-592.982	138.733	0.055	0.072
-591.967	-193.008	0.258	0.002
-590.952	800.000	-0.094	0.334
-589.938	138.164	0.305	0.403
-588.923	411.203	0.118	0.253
-587.909	10.471	0.088	0.068
-586.894	-96.438	0.268	-0.072
-585.879	800.000	-0.086	-0.317
-584.865	386.684	-0.163	0.340
-583.850	74.901	-0.200	0.212
-582.836	800.000	0.080	0.309
-581.821	48.369	-0.251	0.237
-580.806	-200.000	-0.005	-0.242
-579.792	-200.000	-0.014	0.180
-578.777	260.342	0.023	0.039
-577.763	-95.394	-0.387	-0.105
-576.748	800.000	0.040	0.160
-575.733	-42.955	-0.144	0.074
-574.719	139.345	-0.154	-0.205
-573.704	277.033	-0.188	-0.337
-572.690	-149.186	-0.332	0.027
-571.675	800.000	0.067	-0.232
-570.661	145.757	0.116	0.157
-569.646	-96.162	-0.167	0.045
-568.631	142.066	0.067	0.090
-567.617	800.000	-0.036	-0.126
-566.602	800.000	0.033	-0.108
-565.588	408.639	0.061	0.130
-564.573	337.220	-0.199	-0.390
-563.558	127.946	0.031	0.039
-562.544	757.496	0.051	0.139
-561.529	-12.049	-0.245	-0.162
-560.515	-171.194	0.126	0.004
-559.500	32.508	0.275	-0.239
-558.485	-69.104	0.362	0.141
-557.471	644.869	-0.122	-0.315
-556.456	339.142	-0.111	0.219
-555.442	800.000	-0.083	0.320
-554.427	-24.221	-0.114	-0.068
-553.412	122.451	-0.104	0.131
-552.398	565.816	0.185	-0.453
-551.383	498.719	0.094	-0.219
-550.369	0.803	-0.382	0.276
-549.354	-135.899	-0.027	0.003
-548.339	-200.000	-0.054	0.243
-547.325	800.000	0.003	-0.011
-546.310	0.075	0.342	-0.246
-545.296	25.768	-0.375	-0.315
-544.281	197.315	-0.153	-0.236
-543.266	-192.285	-0.299	-0.003
-542.252	-0.251	-0.196	0.140
-541.237	-133.485	-0.227	0.029
-540.223	701.353	-0.129	-0.342
-539.208	75.788	-0.050	0.053
-538.193	86.668	0.071	-0.079
-537.179	-200.000	0.070	0.320
-536.164	-91.958	0.061	-0.018
-535.150	-37.685	-0.175	0.094
-534.135	718.106	-0.069	-0.185
-533.121	-200.000	0.008	0.219
-532.106	800.000	-0.010	-0.038
-531.091	-89.420	-0.054	0.016
-530.077	-61.594	0.164	-0.069
-529.062	89.658	-0.135	0.152
-528.048	-200.000	0.000	0.086
-527.033	50.470	-0.300	0.285
-526.018	683.660	-0.083	0.217
-525.004	800.000	-0.090	0.286
-523.989	-35.536	0.253	-0.138
-522.975	-20.425	0.142	0.088
-521.960	-44.256	-0.238	0.120
-520.945	168.175	-0.191	0.274
-519.931	-108.316	0.173	0.038
-518.916	-78.156	0.193	-0.067
-517.902	-200.000	0.036	0.328
-516.887	487.512	-0.066	0.151
-515.872	158.635	0.113	-0.159
-514.858	-114.671	-0.143	-0.027
-513.843	-62.669	0.373	-0.156
-512.829	-200.000	-0.005	-0.133
-511.814	64.368	0.171	0.173
-510.799	565.149	-0.055	0.135
-509.785	199.657	0.143	-0.220
-508.770	-200.000	-0.029	0.272
-507.756	-200.000	-0.026	-0.363
-506.741	547.518	0.017	-0.042
-505.726	800.000	-0.030	-0.088
-504.712	0.836	-0.145	-0.105
-503.697	296.887	-0.071	0.131
-502.683	67.726	0.055	0.057
-501.668	800.000	0.053	0.208
-500.653	-200.000	0.058	0.282
-499.639	-200.000	-0.005	0.051
-498.624	-140.257	-0.195	0.021
-497.610	-102.930	0.128	-0.031
-496.595	-118.275	-0.088	-0.016
-495.581	-200.000	0.007	-0.383
-494.566	-200.000	0.027	-0.248
-493.551	32.726	0.214	0.186
-492.537	327.014	0.063	0.122
-491.522	800.000	0.087	-0.278
-490.508	86.935	0.022	-0.024
-489.493	348.453	-0.047	-0.093
-488.478	-28.342	-0.111	-0.065
-487.464	-89.045	0.217	-0.065
-486.449	-94.500	-0.163	-0.045
-485.435	-101.724	-0.265	0.064
-484.420	800.000	0.101	0.359
-483.405	-124.600	-0.141	-0.022
-482.391	407.070	-0.112	0.239
-481.376	14.099	-0.085	-0.067
-480.362	-119.839	-0.222	-0.038
-479.347	800.000	0.072	0.292
-478.332	-103.905	-0.095	0.022
-477.318	-72.357	-0.105	-0.039
-476.303	-198.172	-0.309	-0.002
-475.289	-66.443	0.143	0.057
-474.274	238.111	-0.070	-0.117
-473.259	38.430	0.056	-0.051
-472.245	-200.000	0.095	0.000
-471.230	-198.473	0.185	-0.001
-470.216	536.429	-0.114	-0.273
-469.201	-120.536	-0.276	-0.047
-468.186	-8.141	-0.039	-0.027
-467.172	-200.000	0.053	0.289
-466.157	-160.472	0.469	-0.025
-465.143	-44.916	-0.389	-0.195
-464.128	-132.268	-0.181	0.024
-463.113	194.210	-0.081	-0.124
-462.099	-200.000	-0.005	0.078
-461.084	-50.677	0.215	0.102
-460.070	178.008	0.161	-0.235
-459.055	98.983	0.075	-0.087
-458.040	-12.963	0.286	-0.187
-457.026	-165.930	-0.351	0.015
-456.011	800.000	-0.012	0.045
-454.997	212.959	-0.049	-0.078
-453.982	205.517	0.153	0.238
-452.968	422.651	0.115	0.248
-451.953	-172.350	-0.154	-0.005
-450.938	580.195	-0.057	-0.139
-449.924	800.000	-0.057	0.163
-448.909	-86.557	-0.287	0.089
-447.895	800.000	0.057	-0.205
-446.880	22.139	0.426	-0.349
-445.865	-143.909	-0.194	0.018
-444.851	-73.767	-0.314	0.115
-443.836	17.387	0.123	-0.098
-442.822	139.243	-0.048	-0.063
-441.807	-146.992	-0.168	0.014
-440.792	285.196	-0.063	-0.114
-439.778	800.000	0.120	-0.368
-438.763	90.388	0.057	0.064
-437.749	1.721	-0.308	-0.223
-436.734	-200.000	-0.022	-0.186
-435.719	-13.108	0.136	-0.089
-434.705	8.365	0.115	0.087
-433.690	33.244	-0.150	-0.130
-432.676	13.312	0.207	0.161
-431.661	-161.464	0.339	-0.018
-430.646	91.253	0.070	-0.078
-429.632	22.882	-0.049	-0.040
-428.617	800.000	0.020	-0.068
-427.603	-40.619	0.369	-0.192
-426.588	43.894	0.118	-0.109
-425.573	-130.105	0.258	-0.035
-424.559	42.556	0.048	0.043
-423.544	-200.000	-0.030	-0.210
-422.530	645.062	0.148	-0.379
-421.515	27.416	-0.054	-0.045
-420.500	800.000	0.056	0.185
-419.486	-144.803	0.083	0.008
-418.471	636.353	0.061	-0.154
-417.457	-200.000	0.007	-0.047
-416.442	203.744	-0.140	-0.217
-415.428	-200.000	0.022	-0.497
-414.413	-72.365	-0.099	0.037
-413.398	-24.336	-0.253	-0.151
-412.384	31.123	-0.178	-0.153
-411.369	124.353	0.090	-0.113
-410.355	31.666	-0.125	-0.108
-409.340	188.018	-0.065	-0.097
-408.325	200.521	-0.197	-0.304
-407.311	-53.597	-0.186	0.085
-406.296	66.026	0.236	0.240
-405.282	800.000	0.001	-0.002
-404.267	-59.983	-0.098	0.042
-403.252	31.764	-0.110	0.095
-402.238	-149.955	0.504	0.039
-401.223	86.597	0.226	0.249
-400.209	81.789	-0.045	0.049
-399.194	-200.000	-0.014	-0.235
-398.179	-193.659	0.223	0.002
-397.165	-72.247	-0.164	0.061
-396.150	52.489	0.170	-0.163
-395.136	71.585	-0.188	0.196
-394.121	-200.000	0.009	0.238
-393.106	200.189	-0.059	0.091
-392.092	-102.163	-0.185	0.045
-391.077	163.536	-0.122	-0.172
-390.063	-200.000	-0.007	0.189
-389.048	-200.000	0.038	-0.373
-388.033	-60.767	-0.103	-0.044
-387.019	23.571	0.135	-0.111
-386.004	-200.000	-0.008	-0.190
-384.990	-116.742	-0.081	0.015
-383.975	-200.000	0.024	0.393
-382.960	-69.329	-0.187	-0.072
-381.946	45.619	0.147	0.136
-380.931	306.592	-0.085	0.159
-379.917	-200.000	0.029	0.142
-378.902	-96.333	0.176	-0.047
-377.888	-200.000	-0.020	0.198
-376.873	800.000	0.110	0.423
-375.858	-155.915	-0.195	0.012
-374.844	-42.521	0.293	-0.150
-373.829	91.773	0.245	0.275
-372.815	-152.820	0.153	-0.011
-371.800	-102.090	0.173	0.042
-370.785	-200.000	-0.014	-0.114
-369.771	-91.401	-0.043	-0.012
-368.756	-200.000	-0.001	0.272
-367.742	44.647	-0.063	-0.058
-366.727	-73.939	0.179	-0.065
-365.712	-186.652	0.104	0.001
-364.698	-76.090	0.127	0.045
-363.683	-176.394	0.336	0.009
-362.669	-141.144	-0.226	0.023
-361.654	-130.335	-0.154	0.021
-360.639	-94.686	-0.039	0.011
-359.625	17.060	-0.264	0.209
-358.610	309.261	0.034	0.063
-357.596	-43.548	0.096	-0.048
-356.581	-52.469	0.121	-0.056
-355.566	-200.000	-0.031	-0.165
-354.552	172.086	0.288	-0.414
-353.537	-19.883	-0.266	-0.164
-352.523	-9.755	0.127	0.085
-351.508	-200.000	0.000	0.127
-350.493	-4.438	-0.038	-0.026
-349.479	517.760	0.033	-0.077
-348.464	800.000	-0.129	-0.475
-347.450	-23.836	-0.177	-0.106
-346.435	800.000	0.107	-0.316
-345.420	-132.236	-0.307	0.040
-344.406	-200.000	0.003	0.102
-343.391	47.787	0.095	-0.089
-342.377	-200.000	0.078	0.367
-341.362	17.287	0.065	0.051
-340.348	-200.000	-0.032	-0.239
-339.333	-38.060	-0.298	0.158
-338.318	-6.231	0.071	0.048
-337.304	-200.000	-0.010	0.224
-336.289	783.953	0.073	-0.200
-335.275	-200.000	0.001	0.073
-334.260	279.849	-0.060	-0.107
-333.245	601.364	-0.096	-0.239
-332.231	-72.012	0.179	-0.067
-331.216	800.000	0.028	-0.091
-330.202	38.566	0.047	0.042
-329.187	43.267	-0.082	0.075
-328.172	-114.843	-0.281	0.054
-327.158	-138.715	-0.122	-0.013
-326.143	12.811	-0.178	0.137
-325.129	49.792	0.245	0.231
-324.114	-133.034	-0.312	0.040
-323.099	-200.000	-0.016	0.153
-322.085	184.226	0.101	0.150
-321.070	800.000	0.101	-0.309
-320.056	800.000	0.046	0.175
-319.041	-65.794	-0.237	0.095
-318.026	50.673	0.345	0.326
-317.012	53.378	-0.256	-0.245
-315.997	-200.000	0.002	-0.196
-314.983	98.953	-0.115	-0.133
-313.968	-137.103	-0.121	-0.014
-312.953	80.399	-0.167	0.179
-311.939	79.252	-0.299	0.320
-310.924	89.563	-0.122	-0.136
-309.910	569.265	0.082	-0.198
-308.895	-200.000	-0.039	0.173
-307.880	68.655	-0.129	-0.133
-306.866	227.058	0.065	-0.105
-305.851	64.261	-0.025	0.025
-304.837	-200.000	-0.034	0.238
-303.822	800.000	0.059	-0.197
-302.807	-13.410	0.070	0.045
-301.793	31.216	-0.194	-0.166
-300.778	-60.967	0.366	-0.155
-299.764	800.000	-0.072	-0.240
-298.749	-33.427	0.123	-0.068
-297.735	-200.000	-0.075	-0.509
-296.720	-49.946	-0.096	0.046
-295.705	-156.084	0.354	0.022
-294.691	-32.666	0.080	0.044
-293.676	800.000	-0.055	-0.163
-292.662	-171.780	0.135	0.004
-291.647	87.060	0.147	0.162
-290.632	160.742	0.203	0.283
-289.618	-148.025	0.212	-0.018
-288.603	338.544	-0.213	-0.413
-287.589	117.904	0.065	-0.080
-286.574	800.000	0.012	-0.049
-285.559	83.994	-0.265	0.289
-284.545	-200.000	0.025	0.321
-283.530	50.685	0.105	0.099
-282.516	-105.215	-0.292	-0.066
-281.501	714.017	0.061	-0.160
-280.486	65.109	0.260	0.262
-279.472	-135.584	0.160	0.019
-278.457	37.485	0.073	0.065
-277.443	383.258	-0.100	0.205
-276.428	109.972	-0.025	0.029
-275.413	477.869	0.082	-0.185
-274.399	-86.065	-0.146	-0.045
-273.384	52.902	-0.023	0.022
-272.370	119.525	-0.099	0.122
-271.355	-200.000	0.066	0.399
-270.340	201.505	-0.213	0.327
-269.326	88.190	-0.144	-0.159
-268.311	-13.317	0.205	0.132
-267.297	-200.000	-0.020	-0.219
-266.282	34.455	0.129	0.113
-265.267	415.385	0.119	0.253
-264.253	-200.000	0.002	0.048
-263.238	15.098	-0.004	0.003
-262.224	110.113	0.082	-0.099
-261.209	24.302	-0.170	-0.140
-260.195	30.995	0.147	-0.126
-259.180	36.316	-0.279	-0.246
-258.165	47.414	-0.228	0.211
-257.151	-99.833	0.232	0.058
-256.136	-90.183	-0.174	0.050
-255.122	-200.000	0.001	0.256
-254.107	238.516	-0.054	0.090
-253.092	101.795	0.090	-0.104
-252.078	800.000	0.095	-0.317
-251.063	605.341	0.140	0.347
-250.049	121.797	-0.192	0.239
-249.034	-178.047	-0.246	-0.006
-248.019	104.661	0.136	0.159
-247.005	565.506	0.171	-0.413
-245.990	278.989	-0.138	0.245
-244.976	-200.000	-0.026	-0.239
-243.961	-13.946	-0.213	0.137
-242.946	800.000	-0.078	0.246
-241.932	80.558	0.250	-0.268
-240.917	-200.000	0.002	0.035
-239.903	-149.291	-0.037	0.003
-238.888	-166.974	0.418	0.017
-237.873	393.004	-0.100	0.208
-236.859	224.834	0.172	0.277
-235.844	-46.561	-0.295	0.144
-234.830	-84.182	0.380	0.120
-233.815	-60.255	-0.227	0.096
-232.800	800.000	-0.037	-0.140
-231.786	800.000	0.010	0.034
-230.771	-80.067	0.416	-0.139
-229.757	-200.000	0.036	-0.184
-228.742	800.000	0.087	0.307
-227.727	-200.000	-0.006	-0.035
-226.713	-40.809	0.185	0.095
-225.698	-148.683	-0.071	0.006
-224.684	-32.463	-0.122	0.068
-223.669	652.915	-0.062	0.159
-222.655	-165.149	0.612	0.027
-221.640	-126.362	-0.061	0.009
-220.625	335.132	-0.049	-0.094
-219.611	84.749	0.018	0.020
-218.596	8.235	-0.112	-0.084
-217.582	-55.341	0.304	-0.136
-216.567	-91.695	0.215	0.061
-215.552	-150.738	-0.182	0.014
-214.538	-128.826	-0.133	0.019
-213.523	-187.036	-0.107	0.001
-212.509	-141.211	0.181	0.018
-211.494	800.000	0.068	-0.212
-210.479	89.437	0.310	0.344
-209.465	800.000	-0.079	0.249
-208.450	-80.797	0.249	0.082
-207.436	237.117	0.173	-0.284
-206.421	16.362	0.324	-0.254
-205.406	-86.732	0.152	-0.046
-204.392	-85.973	-0.157	0.048
-203.377	357.075	-0.063	-0.124
-202.363	90.582	0.114	-0.127
-201.348	800.000	0.053	-0.165
-200.333	129.247	-0.117	0.149
-199.319	-200.000	0.002	-0.033
-198.304	-41.534	0.159	-0.081
-197.290	-200.000	-0.010	-0.078
-196.275	63.012	0.064	-0.063
-195.260	6.709	-0.217	-0.160
-194.246	800.000	-0.122	0.437
-193.231	-124.917	0.130	0.020
-192.217	32.897	-0.150	-0.129
-191.202	-54.341	-0.160	-0.072
-190.187	-27.429	-0.371	0.214
-189.173	111.677	-0.025	-0.030
-188.158	78.716	0.175	0.187
-187.144	370.315	0.013	0.026
-186.129	6.620	0.476	0.352
-185.114	-163.530	0.328	-0.015
-184.100	537.225	0.028	-0.067
-183.085	-10.027	-0.255	0.169
-182.071	-31.387	0.086	-0.048
-181.056	286.621	0.135	0.243
-180.042	277.837	0.038	0.068
-179.027	-64.558	0.123	-0.050
-178.012	-200.000	-0.028	0.257
-176.998	-41.983	0.197	-0.100
-175.983	800.000	-0.099	-0.394
-174.969	-141.379	0.365	0.037
-173.954	-89.545	-0.131	-0.038
-172.939	96.873	-0.100	-0.113
-171.925	-87.488	-0.305	-0.092
-170.910	317.373	0.098	0.185
-169.896	-4.538	0.098	-0.067
-168.881	-132.208	0.400	-0.051
-167.866	-71.792	-0.158	-0.059
-166.852	170.258	0.071	0.101
-165.837	33.269	-0.180	-0.155
-164.823	490.611	-0.095	-0.216
-163.808	-102.468	0.193	0.046
-162.793	-34.090	0.109	-0.059
-161.779	118.641	0.210	0.258
-160.764	-95.344	-0.306	0.082
-159.750	-11.653	0.074	-0.048
-158.735	-23.359	0.115	-0.069
-157.720	-200.000	0.002	-0.058
-156.706	800.000	-0.090	-0.385
-155.691	265.493	0.094	0.162
-154.677	-133.165	-0.344	-0.043
-153.662	-113.275	0.319	-0.062
-152.647	-72.389	-0.290	-0.107
-151.633	-104.479	-0.332	-0.076
-150.618	800.000	-0.062	0.248
-149.604	-200.000	-0.053	-0.247
-148.589	-5.651	-0.095	0.065
-147.574	107.325	-0.135	-0.159
-146.560	-86.920	0.173	0.052
-145.545	-37.223	0.300	0.159
-144.531	-86.369	0.302	0.092
-143.516	800.000	0.126	-0.384
-142.502	-62.153	0.171	0.071
-141.487	-109.425	0.196	-0.041
-140.472	-108.225	0.030	0.006
-139.458	-84.816	0.276	0.086
-138.443	800.000	0.083	-0.302
-137.429	11.528	0.385	-0.293
-136.414	501.970	0.025	-0.058
-135.399	800.000	0.152	0.454
-134.385	-5.671	0.383	0.260
-133.370	-48.884	0.081	-0.038
-132.356	-200.000	0.021	-0.112
-131.341	148.719	0.074	0.100
-130.326	49.394	0.017	-0.016
-129.312	177.122	-0.177	0.255
-128.297	530.631	0.101	0.237
-127.283	37.165	0.222	-0.195
-126.268	-121.508	-0.128	0.021
-125.253	62.505	-0.134	-0.133
-124.239	-89.338	-0.192	0.056
-123.224	-71.011	0.232	-0.087
-122.210	85.361	-0.124	0.135
-121.195	273.843	0.075	-0.131
-120.180	364.810	0.147	-0.294
-119.166	-96.815	-0.032	0.008
-118.151	-200.000	0.015	0.108
-117.137	76.202	-0.054	0.056
-116.122	800.000	0.089	0.258
-115.107	186.379	0.137	0.202
-114.093	-200.000	-0.010	0.239
-113.078	-149.989	0.319	-0.025
-112.064	-75.025	-0.104	-0.037
-111.049	27.570	0.293	0.244
-110.034	-44.467	-0.113	0.056
-109.020	-126.527	0.287	-0.042
-108.005	-122.791	0.192	-0.031
-106.991	-44.023	-0.318	0.159
-105.976	243.453	0.161	0.268
-104.962	-38.604	0.068	0.035
-103.947	-136.872	-0.372	-0.042
-102.932	800.000	0.091	0.275
-101.918	-64.072	0.377	0.152
-100.903	110.082	-0.025	0.030
-99.889	-160.671	-0.076	0.004
-98.874	-200.000	-0.028	-0.126
-97.859	-66.072	-0.151	-0.060
-96.845	-25.936	0.250	0.146
-95.830	800.000	0.074	-0.248
-94.816	187.249	-0.147	-0.217
-93.801	800.000	-0.050	0.164
-92.786	155.481	0.167	-0.227
-91.772	-35.142	-0.477	0.257
-90.757	449.365	-0.108	-0.236
-89.743	341.466	0.184	0.357
-88.728	-172.113	0.117	-0.004
-87.713	184.396	0.223	0.327
-86.699	-50.915	0.174	0.081
-85.684	371.774	0.174	0.350
-84.670	110.284	0.113	-0.134
-83.655	23.795	0.210	-0.171
-82.640	-200.000	-0.042	0.182
-81.626	-200.000	-0.018	-0.161
-80.611	105.753	0.139	0.162
-79.597	-200.000	0.020	0.109
-78.582	-38.953	-0.231	-0.120
-77.567	-148.337	-0.282	0.023
-76.553	-1.408	0.093	-0.065
-75.538	-71.096	0.432	0.161
-74.524	-24.216	0.191	0.113
-73.509	402.551	-0.051	-0.107
-72.494	197.521	0.167	-0.252
-71.480	-200.000	-0.032	0.174
-70.465	280.219	0.056	-0.100
-69.451	152.014	0.028	-0.038
-68.436	-200.000	-0.009	0.156
-67.422	800.000	0.050	-0.197
-66.407	-200.000	-0.043	0.210
-65.392	-200.000	0.006	0.317
-64.378	-200.000	0.042	0.199
-63.363	345.188	-0.061	0.118
-62.349	86.809	0.140	0.153
-61.334	79.940	-0.698	-0.741
-60.319	17.530	0.258	-0.203
-59.305	800.000	0.183	-0.718
-58.290	30.475	0.591	0.500
-57.276	437.814	0.669	1.443
-56.261	-200.000	85.941	504.283
-55.246	558.646	1374.563	3279.604
-54.232	181.679	2630.342	3827.540
-53.217	114.030	2374.047	2854.917
-52.203	46.667	1981.137	1818.710
-51.188	40.871	1764.343	1573.908
-50.173	38.056	1718.960	1511.597
-49.159	53.156	1759.789	1665.936
-48.144	56.806	1778.169	1711.827
-47.130	40.518	1739.061	1548.351
-46.115	37.670	1724.440	1513.179
-45.100	37.561	1719.389	1507.838
-44.086	37.514	1716.944	1505.271
-43.071	37.496	1714.610	1503.024
-42.057	37.549	1711.427	1500.585
-41.042	37.472	1709.457	1498.209
-40.027	37.534	1706.888	1496.369
-39.013	37.476	1704.849	1494.079
-37.998	37.333	1703.783	1491.986
-36.984	37.504	1702.026	1491.699
-35.969	37.618	1700.864	1491.499
-34.954	37.676	1699.219	1490.438
-33.940	37.661	1696.826	1488.167
-32.925	37.617	1695.319	1486.454
-31.911	37.591	1693.804	1484.867
-30.896	37.606	1692.249	1483.555
-29.881	37.585	1690.307	1481.633
-28.867	37.668	1688.416	1480.552
-27.852	37.710	1686.680	1479.288
-26.838	37.694	1685.237	1477.842
-25.823	37.700	1683.741	1476.515
-24.809	37.740	1682.603	1475.767
-23.794	37.616	1681.323	1473.642
-22.779	37.709	1679.688	1472.854
-21.765	37.625	1678.251	1470.899
-20.750	37.558	1676.501	1468.807
-19.736	37.609	1675.468	1468.227
-18.721	37.634	1673.445	1466.588
-17.706	37.674	1671.982	1465.546
-16.692	37.551	1670.773	1463.503
-15.677	37.524	1669.335	1461.978
-14.663	37.687	1667.882	1461.871
-13.648	37.715	1666.589	1460.896
-12.633	37.642	1665.035	1458.923
-11.619	37.722	1663.150	1457.819
-10.604	37.648	1661.945	1456.148
-9.590	37.676	1659.991	1454.583
-8.575	37.721	1658.749	1453.773
-7.560	37.649	1657.666	1452.231
-6.546	37.734	1656.176	1451.503
-5.531	37.643	1655.187	1449.904
-4.517	37.665	1654.255	1449.194
-3.502	37.582	1653.332	1447.709
-2.487	37.736	1651.454	1447.153
-1.473	37.532	1639.721	1435.302
-0.458	34.944	1618.865	1398.107
0.556	28.565	1618.427	1361.911
1.571	25.702	1643.728	1361.454
2.586	24.879	1657.998	1366.875
3.600	22.217	1603.539	1302.168
4.615	11.790	1485.643	1134.395
5.629	1.819	1412.054	1012.131
6.644	-0.305	1402.571	991.222
7.659	-0.344	1400.610	989.492
8.673	-0.476	1399.266	987.588
9.688	-0.475	1397.731	986.420
10.702	-0.760	1395.269	982.723
11.717	2.674	1402.455	1010.352
12.731	12.095	1420.149	1085.640
13.746	17.239	1427.743	1125.502
14.761	16.278	1424.903	1116.811
15.775	16.052	1423.988	1114.497
16.790	16.087	1422.873	1113.759
17.804	16.102	1422.608	1113.554
18.819	16.341	1421.944	1114.514
19.834	16.366	1421.420	1114.166
20.848	16.272	1420.624	1112.821
21.863	16.253	1419.879	1112.019
22.877	16.307	1418.883	1111.493
23.892	16.322	1417.956	1110.766
24.907	16.346	1417.138	1110.184
25.921	16.337	1415.542	1108.776
26.936	16.331	1415.037	1108.245
27.950	16.283	1414.327	1107.280
28.965	16.274	1412.653	1105.809
29.980	16.298	1410.908	1104.501
30.994	16.289	1409.320	1103.104
32.009	16.380	1408.190	1102.717
33.023	16.321	1407.131	1101.404
34.038	16.331	1405.656	1100.216
35.053	16.261	1405.115	1099.243
36.067	16.308	1403.868	1098.472
37.082	16.297	1402.473	1097.215
38.096	16.248	1401.641	1096.148
39.111	16.320	1400.967	1095.991
40.126	16.386	1400.181	1095.704
41.140	16.246	1399.243	1093.965
42.155	16.188	1399.419	1093.635
43.169	16.259	1399.006	1093.670
44.184	16.234	1398.464	1092.993
45.199	16.341	1397.659	1092.960
46.213	16.319	1397.272	1092.416
47.228	16.278	1396.266	1091.269
48.242	16.253	1394.707	1089.791
49.257	16.308	1393.374	1089.006
50.271	16.316	1391.699	1087.657
51.286	16.274	1390.609	1086.438
52.301	16.324	1389.171	1085.535
53.315	16.267	1388.590	1084.619
54.330	16.277	1387.548	1083.778
55.344	16.254	1386.172	1082.455
56.359	16.304	1384.768	1081.585
57.374	16.242	1384.419	1080.820
58.388	16.222	1383.502	1079.882
59.403	16.358	1382.631	1079.977
60.417	16.236	1382.360	1078.887
61.432	16.238	1380.978	1077.727
62.447	16.237	1380.087	1076.932
63.461	16.289	1378.859	1076.207
64.476	16.304	1377.536	1075.175
65.490	16.273	1376.047	1073.718
66.505	16.348	1374.121	1072.600
67.520	16.206	1373.004	1070.729
68.534	16.235	1372.042	1070.069
69.549	16.260	1370.657	1069.055
70.563	16.271	1369.841	1068.391
71.578	16.196	1369.027	1067.190
72.593	16.308	1367.842	1066.879
73.607	16.265	1367.110	1065.940
74.622	16.325	1365.922	1065.301
75.636	16.331	1365.415	1064.848
76.651	16.307	1364.676	1064.028
77.666	16.269	1364.307	1063.403
78.680	16.277	1363.617	1062.823
79.695	16.279	1362.316	1061.727
80.709	16.280	1361.376	1060.907
81.724	16.347	1360.170	1060.295
82.739	16.208	1359.625	1058.903
83.753	16.150	1358.411	1057.501
84.768	16.226	1357.228	1056.965
85.782	16.270	1355.967	1056.161
86.797	16.328	1354.205	1055.058
87.812	16.291	1353.273	1054.011
88.826	16.273	1351.922	1052.753
89.841	16.289	1351.074	1052.097
90.855	16.255	1349.989	1050.947
91.870	16.282	1348.935	1050.200
92.884	16.292	1348.148	1049.560
93.899	16.348	1346.858	1048.810
94.914	16.263	1346.165	1047.650
95.928	16.320	1345.397	1047.312
96.943	16.297	1344.316	1046.237
97.957	16.327	1343.407	1045.621
98.972	16.239	1342.666	1044.405
99.987	16.219	1341.238	1043.078
101.001	16.284	1340.198	1042.580
102.016	16.316	1338.969	1041.732
103.030	16.403	1337.935	1041.366
104.045	16.330	1336.809	1039.949
105.060	16.367	1335.251	1038.874
106.074	16.368	1334.163	1037.941
107.089	16.518	1332.005	1037.091
108.103	16.319	1331.453	1035.350
109.118	16.392	1329.982	1034.561
110.133	16.445	1328.553	1033.684
111.147	16.435	1327.218	1032.492
112.162	16.397	1325.852	1031.104
113.176	16.367	1325.215	1030.335
114.191	16.406	1323.818	1029.397
115.206	16.432	1322.265	1028.256
116.220	16.314	1321.238	1026.649
117.235	16.381	1319.845	1025.882
118.249	16.352	1319.163	1025.085
119.264	16.375	1318.355	1024.506
120.279	16.439	1316.600	1023.442
121.293	16.465	1315.712	1022.819
122.308	16.376	1314.872	1021.535
123.322	16.453	1313.035	1020.483
124.337	16.469	1312.179	1019.823
125.352	16.518	1310.572	1018.780
126.366	16.468	1309.801	1017.789
127.381	16.340	1309.275	1016.521
128.395	16.526	1307.353	1016.056
129.410	16.460	1306.675	1015.040
130.424	16.390	1305.732	1013.798
131.439	16.388	1304.965	1013.101
132.454	16.305	1303.678	1011.513
133.468	16.470	1303.356	1012.167
134.483	16.454	1302.309	1011.164
135.497	16.378	1301.295	1009.837
136.512	16.405	1299.787	1008.735
137.527	16.395	1298.741	1007.776
138.541	16.436	1296.808	1006.430
139.556	16.364	1295.747	1005.093
140.570	16.450	1294.224	1004.333
141.585	16.403	1292.928	1002.960
142.600	16.467	1291.680	1002.281
143.614	16.440	1290.724	1001.288
144.629	16.335	1289.495	999.623
145.643	16.309	1288.578	998.673
146.658	16.273	1287.397	997.459
147.673	16.390	1285.905	996.906
148.687	16.318	1284.767	995.506
149.702	16.279	1283.733	994.389
150.716	16.353	1282.521	993.799
151.731	16.376	1281.018	992.684
152.746	16.377	1279.972	991.791
153.760	16.400	1278.275	990.519
154.775	16.417	1277.971	990.297
155.789	16.414	1276.273	988.875
156.804	16.388	1275.418	987.977
157.819	16.399	1274.609	987.324
158.833	16.356	1273.459	986.094
159.848	16.337	1272.507	985.161
160.862	16.384	1271.693	984.718
161.877	16.404	1270.592	983.895
162.892	16.443	1269.920	983.514
163.906	16.487	1268.596	982.659
164.921	16.349	1268.072	981.359
165.935	16.294	1267.752	980.708
166.950	16.402	1266.721	980.451
167.964	16.472	1265.480	979.808
168.979	16.470	1264.717	979.120
169.994	16.513	1264.280	978.940
171.008	16.480	1263.527	978.081
172.023	16.493	1262.707	977.435
173.037	16.471	1262.109	976.759
174.052	16.435	1261.220	975.778
175.067	16.512	1260.126	975.288
176.081	16.458	1259.546	974.440
177.096	16.328	1258.742	972.983
178.110	16.509	1256.929	972.539
179.125	16.415	1256.604	971.664
180.140	16.463	1255.530	971.018
181.154	16.498	1253.969	969.931
182.169	16.503	1252.820	968.983
183.183	16.448	1252.118	968.041
184.198	16.473	1250.838	967.109
185.213	16.429	1249.736	965.917
186.227	16.520	1248.666	965.525
187.242	16.539	1247.682	964.787
188.256	16.578	1246.762	964.214
189.271	16.618	1245.823	963.631
190.286	16.453	1244.944	961.924
191.300	16.475	1244.556	961.662
192.315	16.543	1243.925	961.479
193.329	16.528	1243.627	961.077
194.344	16.622	1242.479	960.637
195.359	16.669	1242.301	960.685
196.373	16.600	1241.249	959.396
197.388	16.589	1240.700	958.820
198.402	16.571	1240.811	958.721
199.417	16.557	1239.771	957.755
200.432	16.706	1239.366	958.199
201.446	16.559	1238.415	956.549
202.461	16.444	1238.093	955.566
203.475	16.502	1237.005	954.968
204.490	16.717	1235.292	954.773
205.504	16.524	1234.636	953.095
206.519	16.673	1233.274	952.795
207.534	16.612	1232.527	951.790
208.548	16.556	1231.947	950.947
209.563	16.583	1230.969	950.258
210.577	16.623	1230.003	949.654
211.592	16.660	1228.778	948.830
212.607	16.555	1228.280	947.771
213.621	16.572	1227.266	947.001
214.636	16.690	1226.449	946.945
215.650	16.680	1225.433	946.025
216.665	16.659	1224.725	945.276
217.680	16.656	1223.858	944.509
218.694	16.656	1222.947	943.720
219.709	16.616	1222.242	942.869
220.723	16.668	1221.460	942.472
221.738	16.601	1220.797	941.506
222.753	16.625	1219.763	940.759
223.767	16.569	1219.108	939.856
224.782	16.671	1219.030	940.282
225.796	16.706	1218.265	939.801
226.811	16.704	1217.676	939.253
227.826	16.701	1217.056	938.678
228.840	16.764	1216.540	938.541
229.855	16.612	1215.671	936.949
230.869	16.722	1214.406	936.497
231.884	16.720	1213.679	935.842
232.899	16.711	1212.954	935.151
233.913	16.763	1212.469	934.982
234.928	16.733	1212.129	934.473
235.942	16.836	1211.349	934.359
236.957	16.767	1210.660	933.362
237.972	16.679	1210.124	932.382
238.986	16.784	1209.082	932.072
240.001	16.788	1208.225	931.355
241.015	16.791	1207.708	930.890
242.030	16.916	1206.522	930.580
243.045	16.832	1205.782	929.462
244.059	16.879	1204.611	928.739
245.074	16.834	1204.334	928.194
246.088	16.908	1203.453	927.838
247.103	16.914	1202.221	926.838
248.117	16.828	1202.013	926.125
249.132	16.878	1201.037	925.564
250.147	16.895	1200.254	924.973
251.161	16.902	1199.532	924.374
252.176	16.824	1198.845	923.338
253.190	16.835	1198.574	923.106
254.205	16.787	1198.030	922.347
255.220	16.886	1196.584	921.688
256.234	16.961	1196.285	921.785
257.249	16.820	1195.806	920.566
258.263	16.891	1195.129	920.349
259.278	16.841	1194.687	919.659
260.293	17.006	1193.869	919.840
261.307	16.979	1193.335	919.203
262.322	16.983	1192.603	918.577
263.336	16.999	1191.920	918.058
264.351	16.913	1191.536	917.214
265.366	16.948	1190.958	916.877
266.380	16.989	1190.321	916.529
267.395	17.049	1189.235	915.936
268.409	16.946	1188.635	914.837
269.424	16.918	1188.151	914.231
270.439	16.998	1187.564	914.132
271.453	17.025	1186.539	913.403
272.468	16.967	1185.861	912.492
273.482	16.974	1185.088	911.855
274.497	17.028	1184.607	911.694
275.512	17.089	1183.855	911.358
276.526	16.978	1182.977	910.010
277.541	17.099	1182.483	910.197
278.555	17.119	1181.806	909.701
279.570	17.008	1181.254	908.600
280.585	16.833	1180.520	907.021
281.599	16.952	1179.128	906.509
282.614	17.079	1178.332	906.492
283.628	17.019	1177.400	905.375
284.643	17.090	1176.341	904.858
285.657	17.023	1175.724	903.949
286.672	17.077	1175.001	903.601
287.687	17.087	1173.891	902.717
288.701	17.172	1173.248	902.595
289.716	17.197	1172.297	901.920
290.730	17.215	1171.707	901.479
291.745	17.100	1171.179	900.385
292.760	17.123	1170.973	900.269
293.774	17.218	1170.147	900.056
294.789	17.195	1169.599	899.432
295.803	17.119	1168.869	898.392
296.818	17.231	1167.913	898.168
297.833	17.205	1167.274	897.461
298.847	17.244	1166.506	896.994
299.862	17.257	1165.564	896.261
300.876	17.267	1165.001	895.799
301.891	17.254	1164.676	895.403
302.906	17.172	1163.806	894.227
303.920	17.224	1162.957	893.768
304.935	17.221	1162.264	893.138
305.949	17.374	1161.183	893.030
306.964	17.312	1160.807	892.341
307.979	17.249	1160.320	891.555
308.993	17.324	1159.388	891.152
310.008	17.306	1158.738	890.483
311.022	17.269	1157.983	889.626
312.037	17.398	1156.766	889.286
313.052	17.378	1155.954	888.481
314.066	17.367	1155.137	887.715
315.081	17.299	1154.881	887.089
316.095	17.423	1153.852	886.866
317.110	17.241	1153.648	885.678
318.125	17.316	1153.028	885.518
319.139	17.364	1151.700	884.667
320.154	17.416	1151.090	884.391
321.168	17.462	1150.440	884.056
322.183	17.381	1150.249	883.407
323.197	17.319	1149.245	882.235
324.212	17.318	1149.234	882.144
325.227	17.403	1148.626	882.040
326.241	17.550	1147.481	881.844
327.256	17.506	1146.417	880.720
328.270	17.472	1146.005	880.148
329.285	17.459	1144.995	879.232
330.300	17.509	1144.075	878.705
331.314	17.424	1143.128	877.463
332.329	17.478	1142.440	877.135
333.343	17.488	1141.459	876.354
334.358	17.481	1140.568	875.554
335.373	17.495	1140.112	875.200
336.387	17.520	1139.452	874.742
337.402	17.477	1139.049	874.138
338.416	17.520	1138.110	873.558
339.431	17.519	1137.460	872.977
340.446	17.707	1136.523	873.145
341.460	17.559	1135.925	871.853
342.475	17.598	1134.948	871.225
343.489	17.606	1134.170	870.588
344.504	17.704	1132.879	870.022
345.519	17.623	1132.379	869.148
346.533	17.693	1131.335	868.629
347.548	17.513	1130.894	867.294
348.562	17.704	1130.148	867.615
349.577	17.639	1128.992	866.325
350.592	17.566	1128.612	865.586
351.606	17.724	1127.751	865.651
352.621	17.684	1126.931	864.738
353.635	17.552	1126.589	863.731
354.650	17.836	1125.552	864.300
355.665	17.713	1125.034	863.204
356.679	17.701	1124.546	862.690
357.694	17.664	1124.448	862.350
358.708	17.820	1123.140	862.061
359.723	17.686	1122.287	860.653
360.738	17.794	1121.903	860.829
361.752	17.765	1121.584	860.361
362.767	17.886	1120.801	860.295
363.781	17.889	1119.966	859.593
364.796	17.766	1119.552	858.576
365.810	17.799	1119.103	858.323
366.825	17.793	1118.520	857.773
367.840	17.837	1117.755	857.328
368.854	17.819	1117.201	856.739
369.869	17.809	1116.780	856.290
370.883	17.866	1115.439	855.470
371.898	17.918	1114.847	855.201
372.913	18.016	1114.239	855.150
373.927	17.759	1114.348	853.872
374.942	17.936	1113.168	853.776
375.956	17.959	1113.261	853.890
376.971	17.852	1112.401	852.620
377.986	17.864	1111.559	851.955
379.000	17.955	1110.896	851.830
380.015	17.867	1110.752	851.201
381.029	17.955	1109.788	850.829
382.044	17.960	1109.021	850.190
383.059	18.038	1108.242	849.903
384.073	18.016	1107.221	848.937
385.088	18.045	1106.696	848.603
386.102	18.002	1105.606	847.480
387.117	18.044	1104.913	847.081
388.132	18.104	1103.948	846.562
389.146	18.187	1102.965	846.146
390.161	18.077	1102.559	845.215
391.175	18.088	1102.030	844.789
392.190	18.092	1101.173	844.078
393.205	18.084	1100.073	843.117
394.219	18.093	1099.673	842.785
395.234	18.194	1098.493	842.300
396.248	18.112	1098.005	841.449
397.263	18.149	1096.833	840.658
398.278	18.178	1096.690	840.616
399.292	18.142	1095.802	839.687
400.307	18.186	1094.730	839.007
401.321	18.150	1094.288	838.416
402.336	18.163	1093.599	837.877
403.350	18.102	1092.994	837.040
404.365	18.183	1092.713	837.148
405.380	18.212	1091.527	836.309
406.394	18.171	1091.072	835.684
407.409	18.201	1090.204	835.090
408.423	18.205	1089.186	834.259
409.438	18.291	1088.279	833.910
410.453	18.192	1087.809	832.991
411.467	18.357	1086.822	832.966
412.482	18.257	1085.885	831.687
413.496	18.284	1085.494	831.448
414.511	18.248	1084.962	830.791
415.526	18.403	1084.057	830.775
416.540	18.370	1084.174	830.633
417.555	18.248	1083.515	829.463
418.569	18.356	1082.918	829.453
419.584	18.430	1082.315	829.279
420.599	18.356	1081.698	828.371
421.613	144.007	1392.177	1780.138
422.628	133.126	1437.442	1780.227
