DTS Sentinel unit serial number:	SN413079Multiplexer serial number:	ORYXHardware model number:	OX4-SRSoftware version number:	ORYX F/W v4.00 Oryx Data Collector v3.7.2.0data status	okinstallation	princeton_trtdifferential loss correction	single-endedforward channel	channel 2reverse channel	N/Adate	2019/09/11time	13:49:11forward acquisition time	60.00reverse acquisition time	0.00gamma	496.2192k internal	0.2293k external	0.2293temperature offset calibration	1.0004default loss term (dB/km)	0.3790temperature slope calibration	1.0000multiplexer offset coefficient	1.0000multiplexer slope coefficient	1.0000fibre end	0.00T internal ref (°C)	41.92T ext. ref 1 (°C)	0.85T ext. ref 2 (°C)	36.20length (m)	temperature (°C)	Stokes	anti-Stokes-747.200	323.784	0.090	-0.176
-746.185	-39.567	-0.319	-0.171
-745.171	100.192	0.191	-0.226
-744.156	1.280	-0.201	0.148
-743.142	59.435	0.164	-0.166
-742.127	-133.392	0.058	0.007
-741.112	-200.000	-0.018	0.170
-740.098	-200.000	0.006	0.381
-739.083	-132.209	0.034	-0.004
-738.069	800.000	0.018	-0.063
-737.054	-94.741	0.350	0.097
-736.039	-97.779	-0.145	0.038
-735.025	58.900	0.153	0.154
-734.010	128.190	0.097	-0.126
-732.996	92.413	-0.284	-0.327
-731.981	11.703	-0.167	0.131
-730.966	-37.600	-0.218	-0.119
-729.952	128.993	0.150	-0.195
-728.937	215.002	0.222	-0.359
-727.923	-200.000	0.035	-0.209
-726.908	-11.586	0.200	-0.134
-725.894	-200.000	-0.020	-0.226
-724.879	-93.001	-0.057	0.016
-723.864	41.817	-0.304	0.282
-722.850	-77.095	0.223	0.079
-721.835	-139.801	-0.040	-0.004
-720.821	800.000	-0.044	-0.150
-719.806	-67.689	0.200	-0.080
-718.791	-99.900	0.110	0.028
-717.777	167.777	0.076	0.111
-716.762	188.153	-0.169	0.258
-715.748	-120.215	0.265	-0.046
-714.733	2.486	0.097	-0.072
-713.718	89.583	-0.066	-0.075
-712.704	-200.000	0.047	-0.288
-711.689	491.216	0.055	0.128
-710.675	260.100	-0.144	0.255
-709.660	-200.000	-0.002	0.126
-708.645	-92.362	0.196	0.056
-707.631	-113.723	0.590	0.118
-706.616	800.000	0.018	0.075
-705.602	-79.996	0.096	-0.033
-704.587	-200.000	-0.025	0.150
-703.572	-200.000	-0.030	0.415
-702.558	800.000	0.038	-0.162
-701.543	-5.932	0.297	0.207
-700.529	19.893	0.090	0.074
-699.514	-101.298	0.128	-0.032
-698.499	-113.993	-0.258	-0.051
-697.485	-200.000	0.042	0.240
-696.470	338.682	-0.090	-0.178
-695.456	131.041	0.036	0.047
-694.441	288.149	0.193	-0.358
-693.426	-200.000	0.005	-0.147
-692.412	-50.329	-0.236	0.114
-691.397	-72.008	0.236	-0.090
-690.383	-12.821	0.039	-0.026
-689.368	-126.049	-0.114	-0.018
-688.354	-110.079	0.375	-0.080
-687.339	493.613	0.090	0.212
-686.324	-200.000	0.023	-0.130
-685.310	565.798	0.121	-0.300
-684.295	85.460	-0.173	-0.194
-683.281	259.120	0.225	-0.396
-682.266	3.192	0.266	0.198
-681.251	295.383	0.228	0.427
-680.237	70.303	0.168	0.177
-679.222	269.916	0.102	0.184
-678.208	-109.237	0.091	-0.020
-677.193	-46.959	0.120	0.060
-676.178	-19.863	0.233	-0.147
-675.164	436.832	-0.072	-0.161
-674.149	-29.592	-0.243	-0.141
-673.135	203.315	0.108	0.171
-672.120	-200.000	0.033	-0.184
-671.105	-81.881	-0.283	-0.095
-670.091	-162.729	-0.109	0.005
-669.076	10.503	0.264	-0.205
-668.062	-118.945	-0.173	-0.031
-667.047	800.000	-0.041	0.181
-666.032	800.000	-0.038	0.129
-665.018	-83.796	-0.168	-0.055
-664.003	139.538	-0.034	-0.045
-662.989	-118.709	0.195	0.035
-661.974	-200.000	0.018	-0.129
-660.959	-47.644	-0.171	0.085
-659.945	65.129	-0.030	-0.031
-658.930	-200.000	-0.017	-0.286
-657.916	6.009	-0.157	-0.119
-656.901	233.927	-0.147	0.246
-655.886	-11.465	-0.128	-0.086
-654.872	-186.652	-0.052	-0.001
-653.857	194.639	0.130	0.201
-652.843	-115.945	-0.280	-0.053
-651.828	83.156	0.275	-0.305
-650.814	-200.000	0.016	0.184
-649.799	-55.333	-0.247	-0.113
-648.784	328.107	0.170	-0.333
-647.770	489.404	-0.067	-0.157
-646.755	556.780	0.072	0.177
-645.741	-67.468	-0.234	0.094
-644.726	-2.344	-0.278	0.199
-643.711	211.609	-0.097	0.155
-642.697	-156.296	-0.207	-0.013
-641.682	-130.772	0.030	0.004
-640.668	-23.400	-0.145	-0.089
-639.653	-33.977	-0.132	-0.074
-638.638	-200.000	0.047	0.245
-637.624	-200.000	-0.015	-0.277
-636.609	284.442	-0.036	0.066
-635.595	-91.482	0.395	-0.115
-634.580	711.334	-0.045	0.121
-633.565	-148.818	-0.196	-0.016
-632.551	800.000	-0.076	-0.254
-631.536	86.301	0.139	0.156
-630.522	800.000	-0.057	0.190
-629.507	800.000	-0.064	0.225
-628.492	-200.000	0.003	-0.178
-627.478	277.020	0.082	-0.149
-626.463	102.388	-0.025	-0.030
-625.449	-80.981	0.215	-0.073
-624.434	35.674	0.103	0.093
-623.419	22.567	-0.453	-0.378
-622.405	-76.582	-0.068	-0.024
-621.390	233.894	-0.064	0.107
-620.376	306.749	-0.048	0.090
-619.361	800.000	0.078	-0.250
-618.346	-85.078	-0.166	-0.053
-617.332	-200.000	-0.036	-0.218
-616.317	800.000	-0.087	0.282
-615.303	800.000	0.030	0.131
-614.288	-20.013	-0.152	-0.095
-613.273	-200.000	-0.032	0.170
-612.259	-77.519	0.120	0.042
-611.244	-95.965	-0.378	-0.102
-610.230	453.501	-0.009	0.019
-609.215	-200.000	-0.011	0.154
-608.201	-52.591	-0.352	0.165
-607.186	796.766	0.022	0.062
-606.171	800.000	0.066	-0.252
-605.157	159.687	0.086	0.122
-604.142	-76.074	-0.237	-0.085
-603.128	-200.000	0.026	0.168
-602.113	-91.566	-0.207	-0.060
-601.098	-122.314	0.211	-0.035
-600.084	-64.280	-0.146	-0.061
-599.069	-200.000	0.016	0.075
-598.055	10.776	-0.105	-0.082
-597.040	-29.996	0.105	0.061
-596.025	1.403	-0.114	-0.083
-595.011	-29.002	0.109	0.064
-593.996	800.000	0.092	0.292
-592.982	92.134	0.020	0.023
-591.967	-43.252	0.194	0.100
-590.952	-130.100	0.060	-0.008
-589.938	32.440	-0.234	0.206
-588.923	64.073	-0.075	0.077
-587.909	76.942	0.146	-0.158
-586.894	-99.009	0.161	0.041
-585.879	416.380	0.033	0.071
-584.865	800.000	0.071	-0.231
-583.850	800.000	0.088	0.266
-582.836	-28.902	-0.266	0.156
-581.821	-119.962	0.436	-0.076
-580.806	-172.855	0.205	0.006
-579.792	-200.000	0.070	-0.314
-578.777	698.357	-0.019	-0.052
-577.763	800.000	0.033	-0.143
-576.748	19.768	-0.198	0.162
-575.733	-200.000	-0.044	0.206
-574.719	71.971	-0.123	0.130
-573.704	3.694	-0.149	-0.110
-572.690	-22.153	-0.261	-0.161
-571.675	-106.635	-0.365	-0.083
-570.661	-108.667	0.328	0.071
-569.646	-22.242	-0.371	0.228
-568.631	800.000	-0.012	0.037
-567.617	-200.000	-0.022	0.464
-566.602	-200.000	-0.001	0.214
-565.588	800.000	0.037	0.134
-564.573	-58.627	-0.127	-0.056
-563.558	33.244	-0.256	-0.226
-562.544	-200.000	0.022	-0.276
-561.529	-40.435	-0.078	0.041
-560.515	-112.581	-0.266	-0.054
-559.500	14.070	0.184	-0.145
-558.485	-55.338	-0.126	-0.057
-557.471	11.641	-0.143	-0.111
-556.456	-25.122	0.065	-0.039
-555.442	-200.000	-0.012	-0.241
-554.427	800.000	0.092	-0.270
-553.412	185.702	-0.081	0.122
-552.398	206.914	-0.130	0.206
-551.383	800.000	0.029	-0.120
-550.369	-126.557	0.106	-0.016
-549.354	144.063	-0.232	0.315
-548.339	800.000	0.093	0.307
-547.325	-41.018	0.083	0.044
-546.310	-44.608	0.107	0.054
-545.296	32.200	0.095	0.083
-544.281	-98.561	0.187	-0.048
-543.266	38.440	0.236	-0.213
-542.252	75.396	-0.124	0.133
-541.237	156.507	-0.144	0.202
-540.223	26.348	0.204	0.173
-539.208	-200.000	-0.028	0.212
-538.193	-82.269	-0.166	0.055
-537.179	-63.978	-0.301	-0.125
-536.164	363.255	-0.120	0.245
-535.150	-51.823	-0.093	-0.044
-534.135	800.000	0.047	0.146
-533.121	547.328	-0.045	0.110
-532.106	-23.630	-0.207	0.126
-531.091	210.752	0.143	-0.228
-530.077	7.020	-0.150	0.113
-529.062	-100.219	-0.088	0.022
-528.048	9.452	0.080	-0.062
-527.033	260.395	-0.106	0.185
-526.018	115.799	0.075	-0.093
-525.004	1.965	0.281	-0.206
-523.989	800.000	0.107	0.307
-522.975	-200.000	0.016	0.145
-521.960	134.814	0.017	0.022
-520.945	19.827	-0.181	0.148
-519.931	-200.000	-0.055	-0.310
-518.916	-94.438	-0.336	-0.093
-517.902	75.653	-0.032	-0.034
-516.887	-60.435	0.139	0.060
-515.872	105.767	-0.166	-0.199
-514.858	-11.253	-0.294	0.196
-513.843	-31.854	0.144	-0.082
-512.829	-139.283	0.266	0.029
-511.814	-140.515	-0.176	-0.019
-510.799	-31.435	-0.053	0.030
-509.785	284.859	-0.177	-0.323
-508.770	-24.281	-0.481	-0.291
-507.756	800.000	-0.098	0.423
-506.741	40.806	0.089	-0.081
-505.726	-97.420	-0.202	0.053
-504.712	-200.000	0.014	-0.180
-503.697	344.525	0.090	-0.179
-502.683	-58.162	0.225	-0.099
-501.668	-34.164	-0.113	0.063
-500.653	-154.213	-0.331	-0.023
-499.639	119.429	-0.032	0.040
-498.624	-200.000	0.006	0.055
-497.610	-146.662	-0.340	-0.030
-496.595	800.000	0.041	-0.182
-495.581	41.659	-0.215	-0.197
-494.566	218.305	0.216	-0.349
-493.551	55.296	0.253	0.248
-492.537	-64.156	-0.210	0.087
-491.522	-67.283	0.202	-0.081
-490.508	8.379	0.107	0.082
-489.493	800.000	-0.060	0.173
-488.478	-200.000	-0.032	0.231
-487.464	-200.000	-0.019	-0.217
-486.449	800.000	-0.140	-0.409
-485.435	-10.061	-0.120	-0.081
-484.420	-74.644	0.019	-0.007
-483.405	-61.272	0.267	0.114
-482.391	231.207	0.120	-0.200
-481.376	709.524	0.046	0.122
-480.362	-131.156	-0.374	0.050
-479.347	-200.000	-0.020	0.118
-478.332	221.297	0.036	0.059
-477.318	-35.098	0.350	-0.193
-476.303	-129.398	0.103	-0.015
-475.289	394.066	0.046	0.097
-474.274	-81.741	-0.023	-0.008
-473.259	-200.000	0.057	-0.351
-472.245	-110.105	0.253	-0.054
-471.230	247.903	0.098	-0.168
-470.216	115.995	0.015	-0.019
-469.201	149.838	-0.100	-0.137
-468.186	-103.168	0.022	-0.005
-467.172	-157.268	0.333	0.020
-466.157	47.559	0.112	-0.105
-465.143	-95.465	-0.133	-0.036
-464.128	188.095	0.291	0.440
-463.113	800.000	-0.077	-0.249
-462.099	-200.000	0.007	-0.244
-461.084	-115.845	-0.098	-0.019
-460.070	-152.638	0.152	-0.011
-459.055	20.264	-0.099	-0.081
-458.040	-200.000	-0.044	0.212
-457.026	800.000	0.063	0.225
-456.011	-54.366	0.219	0.100
-454.997	800.000	0.026	0.114
-453.982	261.379	-0.203	-0.356
-452.968	800.000	-0.036	-0.130
-451.953	-132.098	-0.109	0.014
-450.938	201.569	0.050	0.079
-449.924	-200.000	-0.022	-0.162
-448.909	32.803	-0.181	0.159
-447.895	-136.616	-0.080	-0.009
-446.880	77.914	-0.125	0.134
-445.865	103.113	0.216	0.256
-444.851	-200.000	0.005	-0.109
-443.836	-151.565	0.125	-0.009
-442.822	-29.943	-0.302	-0.174
-441.807	489.109	0.114	-0.263
-440.792	-200.000	0.019	0.142
-439.778	-120.722	0.212	-0.036
-438.763	-132.510	-0.065	-0.008
-437.749	-151.648	0.064	-0.005
-436.734	545.869	0.170	-0.410
-435.719	-140.581	0.277	0.029
-434.705	32.075	0.024	0.021
-433.690	-200.000	0.013	-0.071
-432.676	35.042	0.062	-0.055
-431.661	-100.863	0.186	-0.046
-430.646	-90.487	-0.239	0.070
-429.632	408.086	0.075	0.160
-428.617	-136.967	0.578	-0.067
-427.603	800.000	0.023	0.083
-426.588	446.780	-0.015	-0.034
-425.573	800.000	0.039	-0.159
-424.559	-97.698	-0.130	0.034
-423.544	-176.125	0.184	0.005
-422.530	91.497	0.179	-0.203
-421.515	299.825	0.110	0.206
-420.500	-200.000	-0.033	0.163
-419.486	180.797	0.013	-0.019
-418.471	800.000	-0.079	-0.235
-417.457	157.641	0.257	0.359
-416.442	-69.028	0.277	0.108
-415.428	50.052	0.109	0.104
-414.413	133.688	0.115	-0.150
-413.398	800.000	0.042	-0.132
-412.384	-96.528	0.156	-0.042
-411.369	56.070	0.032	-0.032
-410.355	376.903	-0.064	-0.133
-409.340	-139.877	0.173	0.019
-408.325	-200.000	0.034	-0.171
-407.311	-200.000	-0.026	0.367
-406.296	800.000	0.097	0.368
-405.282	800.000	0.042	-0.136
-404.267	-200.000	0.005	-0.245
-403.252	-66.706	0.113	-0.045
-402.238	800.000	-0.066	-0.261
-401.223	48.867	-0.188	-0.178
-400.209	-200.000	0.006	0.188
-399.194	322.033	-0.027	0.052
-398.179	-142.361	-0.265	0.026
-397.165	-200.000	0.029	-0.147
-396.150	-200.000	-0.023	0.191
-395.136	800.000	0.025	-0.101
-394.121	-3.533	0.135	-0.095
-393.106	14.128	0.194	-0.153
-392.092	15.588	0.197	-0.156
-391.077	231.994	0.038	-0.063
-390.063	800.000	0.093	0.353
-389.048	-49.121	-0.093	0.045
-388.033	-151.926	-0.364	-0.027
-387.019	19.631	0.272	0.221
-386.004	-10.784	0.059	0.040
-384.990	171.578	-0.082	-0.119
-383.975	-161.197	0.019	0.001
-382.960	478.230	0.117	-0.267
-381.946	797.932	-0.077	-0.213
-380.931	-200.000	-0.046	0.459
-379.917	-86.148	0.149	0.046
-378.902	-79.900	-0.237	0.080
-377.888	-169.480	0.093	-0.003
-376.873	-79.185	-0.236	-0.081
-375.858	800.000	-0.066	-0.209
-374.844	199.791	0.114	-0.176
-373.829	-154.448	-0.072	0.005
-372.815	-72.720	0.126	0.047
-371.800	274.524	0.111	0.198
-370.785	118.034	0.049	0.060
-369.771	261.051	0.119	0.207
-368.756	-111.256	0.061	0.013
-367.742	-84.982	0.050	-0.016
-366.727	71.199	0.139	0.145
-365.712	138.877	-0.039	0.052
-364.698	-89.078	0.175	0.052
-363.683	800.000	-0.003	0.012
-362.669	747.654	0.048	0.131
-361.654	-123.552	-0.132	-0.021
-360.639	-200.000	0.247	-0.000
-359.625	-200.000	0.036	-0.236
-358.610	-200.000	-0.090	0.417
-357.596	-90.895	0.266	0.077
-356.581	250.216	-0.035	0.060
-355.566	-15.910	-0.110	0.070
-354.552	-132.759	-0.375	0.048
-353.537	-94.245	-0.332	0.092
-352.523	800.000	-0.108	0.306
-351.508	36.581	0.088	-0.078
-350.493	156.499	0.280	-0.390
-349.479	92.329	0.218	-0.247
-348.464	-13.637	-0.149	-0.097
-347.450	800.000	0.074	0.213
-346.435	-88.054	0.124	0.037
-345.420	800.000	-0.144	0.506
-344.406	-62.508	0.114	0.048
-343.391	-200.000	-0.008	-0.186
-342.377	800.000	-0.116	0.365
-341.362	800.000	-0.009	0.026
-340.348	-170.452	-0.169	-0.006
-339.333	4.533	-0.243	-0.180
-338.318	709.486	0.117	-0.312
-337.304	-49.111	0.310	0.149
-336.289	-173.406	-0.175	-0.005
-335.275	185.674	-0.125	0.186
-334.260	-200.000	0.031	-0.178
-333.245	-200.000	-0.008	-0.228
-332.231	387.668	-0.111	-0.232
-331.216	120.552	-0.218	0.273
-330.202	471.217	-0.181	-0.410
-329.187	47.495	0.107	0.100
-328.172	800.000	-0.073	-0.237
-327.158	800.000	0.011	0.035
-326.143	271.345	-0.063	0.112
-325.129	21.883	-0.091	-0.075
-324.114	-50.018	0.115	0.055
-323.099	800.000	-0.058	-0.175
-322.085	-39.740	0.033	0.017
-321.070	-200.000	-0.009	-0.081
-320.056	-19.300	-0.156	-0.097
-319.041	-200.000	0.024	-0.252
-318.026	-200.000	0.013	-0.140
-317.012	-67.641	0.128	0.050
-315.997	67.169	0.337	-0.346
-314.983	800.000	-0.042	-0.159
-313.968	-5.825	0.232	0.160
-312.953	-200.000	-0.015	0.160
-311.939	-150.925	-0.174	-0.013
-310.924	-16.765	-0.308	0.196
-309.910	-46.084	0.106	-0.052
-308.895	-200.000	0.037	0.294
-307.880	-200.000	-0.007	0.070
-306.866	-98.057	0.070	0.018
-305.851	456.236	-0.062	0.139
-304.837	25.753	-0.201	0.169
-303.822	-200.000	-0.003	0.125
-302.807	559.457	-0.098	0.237
-301.793	800.000	0.040	0.144
-300.778	-200.000	0.050	-0.344
-299.764	-200.000	0.007	-0.169
-298.749	800.000	0.032	0.095
-297.735	-129.200	0.058	-0.008
-296.720	13.894	0.125	-0.098
-295.705	-200.000	-0.038	-0.269
-294.691	36.665	0.214	-0.190
-293.676	0.448	-0.314	-0.226
-292.662	259.498	-0.015	0.027
-291.647	-51.987	0.218	0.102
-290.632	10.586	-0.192	0.147
-289.618	800.000	0.029	0.103
-288.603	-191.032	-0.159	-0.002
-287.589	-76.282	0.165	0.059
-286.574	-6.303	-0.044	0.031
-285.559	132.417	0.098	-0.127
-284.545	-200.000	0.101	0.477
-283.530	-200.000	-0.028	0.448
-282.516	-22.556	0.064	0.039
-281.501	-3.673	-0.326	0.228
-280.486	800.000	-0.027	-0.097
-279.472	-27.858	-0.196	-0.114
-278.457	10.932	0.383	-0.294
-277.443	152.307	0.087	-0.119
-276.428	137.094	0.091	-0.120
-275.413	87.752	-0.115	-0.128
-274.399	-200.000	0.011	-0.277
-273.384	228.190	0.163	-0.266
-272.370	183.583	0.027	0.039
-271.355	-86.943	0.332	-0.102
-270.340	-200.000	-0.017	-0.136
-269.326	154.552	-0.054	-0.075
-268.311	-51.005	0.089	0.042
-267.297	32.435	0.172	0.149
-266.282	67.312	0.202	-0.206
-265.267	57.995	-0.051	0.050
-264.253	-200.000	-0.060	-0.274
-263.238	131.646	0.020	-0.026
-262.224	-200.000	0.061	0.398
-261.209	800.000	-0.104	0.415
-260.195	-157.913	-0.186	-0.011
-259.180	39.231	0.113	0.101
-258.165	223.183	-0.057	-0.092
-257.151	-193.026	0.231	-0.002
-256.136	-27.600	0.234	0.136
-255.122	-135.659	-0.128	0.015
-254.107	183.946	0.223	0.332
-253.092	209.632	-0.087	-0.136
-252.078	-200.000	-0.002	0.247
-251.063	131.030	-0.013	0.017
-250.049	-74.780	-0.234	0.084
-249.034	388.145	-0.040	0.083
-248.019	454.000	-0.097	-0.215
-247.005	11.223	-0.223	0.171
-245.990	111.382	-0.188	-0.228
-244.976	-51.734	0.482	-0.226
-243.961	-63.317	-0.224	-0.093
-242.946	-146.794	0.187	0.016
-241.932	-173.221	-0.209	-0.006
-240.917	692.535	-0.137	-0.359
-239.903	4.439	-0.098	0.072
-238.888	800.000	-0.026	0.076
-237.873	17.071	-0.256	-0.204
-236.859	-47.059	-0.317	-0.155
-235.844	-86.842	0.164	-0.050
-234.830	-86.943	-0.279	-0.085
-233.815	585.115	0.026	0.064
-232.800	64.647	-0.212	-0.214
-231.786	147.413	0.092	-0.124
-230.771	-117.398	0.186	-0.034
-229.757	10.638	0.162	-0.124
-228.742	771.002	-0.063	0.171
-227.727	-21.201	0.067	-0.041
-226.713	800.000	-0.110	-0.418
-225.698	-200.000	-0.043	-0.216
-224.684	-200.000	0.007	-0.182
-223.669	-200.000	0.010	-0.106
-222.655	-83.782	-0.165	-0.053
-221.640	-54.454	-0.322	0.146
-220.625	-200.000	0.013	-0.316
-219.611	259.585	0.140	-0.242
-218.596	-19.227	0.356	0.221
-217.582	126.500	0.144	-0.182
-216.567	377.171	0.123	0.251
-215.552	-89.657	0.516	0.152
-214.538	476.510	0.116	0.264
-213.523	800.000	0.011	0.048
-212.509	-50.014	-0.091	0.043
-211.494	77.772	-0.117	-0.124
-210.479	-43.280	-0.247	-0.125
-209.465	-141.982	0.383	-0.038
-208.450	239.547	0.105	-0.175
-207.436	-134.398	0.254	0.031
-206.421	-14.717	0.155	0.100
-205.406	-54.639	-0.268	0.121
-204.392	-200.000	0.058	0.315
-203.377	-101.241	0.263	0.064
-202.363	-110.017	0.064	0.013
-201.348	198.783	-0.085	0.130
-200.333	45.218	-0.110	0.102
-199.319	96.866	-0.055	0.063
-198.304	-45.489	0.087	0.043
-197.290	364.704	-0.101	0.203
-196.275	-12.484	0.080	-0.052
-195.260	-129.822	0.204	0.028
-194.246	273.306	-0.067	-0.118
-193.231	-61.299	0.260	0.110
-192.217	-145.638	0.257	0.023
-191.202	800.000	-0.033	-0.098
-190.187	-200.000	-0.008	0.133
-189.173	-145.304	-0.200	0.018
-188.158	800.000	0.026	0.083
-187.144	-169.978	0.300	-0.011
-186.129	-18.562	0.142	0.089
-185.114	800.000	-0.027	-0.079
-184.100	216.687	0.063	0.101
-183.085	738.946	-0.091	0.245
-182.071	-16.402	-0.262	0.166
-181.056	-200.000	-0.010	-0.214
-180.042	-91.662	-0.180	0.051
-179.027	-31.916	0.187	0.105
-178.012	-117.789	-0.025	0.004
-176.998	1.956	-0.109	-0.079
-175.983	303.222	-0.082	0.151
-174.969	-71.417	-0.132	-0.050
-173.954	487.465	-0.084	0.192
-172.939	-103.738	-0.449	0.105
-171.925	-191.112	0.187	-0.002
-170.910	31.795	0.085	0.073
-169.896	-148.938	-0.136	0.011
-168.881	-200.000	-0.022	-0.312
-167.866	51.363	0.200	0.190
-166.852	184.563	-0.066	-0.098
-165.837	-99.228	0.103	0.026
-164.823	-200.000	0.125	0.591
-163.808	-53.388	-0.079	-0.036
-162.793	-120.305	-0.139	0.024
-161.779	40.214	0.099	-0.089
-160.764	172.533	0.043	-0.062
-159.750	-109.720	0.219	-0.046
-158.735	-200.000	-0.001	0.019
-157.720	-89.830	-0.199	0.058
-156.706	-200.000	-0.061	0.318
-155.691	163.100	-0.188	-0.265
-154.677	-145.190	0.244	-0.022
-153.662	-74.875	0.154	-0.055
-152.647	-103.668	0.200	-0.047
-151.633	401.584	0.047	-0.098
-150.618	151.610	-0.047	0.064
-149.604	800.000	0.023	-0.088
-148.589	-200.000	-0.002	0.193
-147.574	-82.141	-0.119	-0.039
-146.560	190.871	-0.034	0.051
-145.545	0.334	0.301	-0.215
-144.531	145.045	-0.115	0.153
-143.516	-142.021	0.267	0.027
-142.502	-63.487	-0.113	0.047
-141.487	-200.000	0.005	0.312
-140.472	186.186	0.096	-0.143
-139.458	-200.000	0.065	0.294
-138.443	52.102	0.064	-0.061
-137.429	-163.890	0.130	0.006
-136.414	15.767	-0.395	-0.311
-135.399	176.342	-0.087	-0.126
-134.385	-200.000	0.039	-0.253
-133.370	-108.996	-0.219	0.047
-132.356	-41.130	0.197	0.101
-131.341	-51.173	0.217	0.102
-130.326	-83.233	-0.121	-0.039
-129.312	-95.457	0.265	0.071
-128.297	-92.647	0.256	0.072
-127.283	248.885	-0.047	-0.079
-126.268	-157.026	0.249	-0.015
-125.253	-200.000	0.009	0.044
-124.239	-200.000	0.020	-0.147
-123.224	-200.000	-0.044	-0.245
-122.210	-200.000	-0.010	0.212
-121.195	21.064	0.040	0.032
-120.180	1.604	-0.280	0.201
-119.166	-145.037	0.124	0.011
-118.151	800.000	-0.064	0.187
-117.137	-200.000	-0.017	-0.265
-116.122	800.000	0.038	0.132
-115.107	-74.330	0.226	0.082
-114.093	-200.000	-0.046	-0.227
-113.078	-61.086	-0.284	-0.120
-112.064	141.038	-0.204	-0.270
-111.049	-200.000	0.030	-0.145
-110.034	-129.102	0.081	0.011
-109.020	-91.043	0.201	0.058
-108.005	474.486	0.084	-0.189
-106.991	-133.979	0.267	-0.033
-105.976	-88.684	0.161	-0.048
-104.962	-70.723	0.131	0.050
-103.947	-200.000	0.049	0.222
-102.932	-17.301	0.114	0.072
-101.918	-131.119	-0.056	-0.007
-100.903	-29.930	0.223	0.127
-99.889	-36.389	-0.131	-0.070
-98.874	-43.512	0.095	-0.048
-97.859	-22.630	0.259	0.156
-96.845	-52.087	0.457	-0.212
-95.830	-51.026	0.173	0.081
-94.816	-70.459	-0.188	-0.071
-93.801	-78.415	-0.217	-0.074
-92.786	114.037	0.039	-0.047
-91.772	-200.000	-0.020	-0.333
-90.757	112.138	0.157	0.189
-89.743	80.007	0.068	-0.073
-88.728	129.386	-0.143	0.182
-87.713	-108.392	0.223	0.048
-86.699	-200.000	-0.013	-0.210
-85.684	217.517	-0.186	0.296
-84.670	-44.765	0.129	0.064
-83.655	103.562	0.267	-0.313
-82.640	119.088	0.238	0.293
-81.626	-51.816	0.084	0.039
-80.611	187.494	-0.150	0.224
-79.597	-101.239	-0.162	0.040
-78.582	4.181	-0.252	-0.184
-77.567	-200.000	0.026	-0.209
-76.553	-200.000	0.004	-0.230
-75.538	800.000	0.002	0.009
-74.524	-27.639	0.314	0.182
-73.509	-84.139	0.059	-0.019
-72.494	92.575	0.096	0.108
-71.480	214.329	0.270	0.426
-70.465	129.312	-0.124	-0.158
-69.451	-136.487	0.539	-0.062
-68.436	800.000	0.024	-0.067
-67.422	-148.257	0.148	-0.012
-66.407	-21.561	0.215	0.131
-65.392	300.632	0.128	0.235
-64.378	-200.000	-0.257	-0.001
-63.363	391.485	0.156	0.323
-62.349	-19.483	0.100	0.062
-61.334	24.404	-0.869	-0.716
-60.319	105.649	0.324	0.382
-59.305	-200.000	-0.052	-0.628
-58.290	72.470	0.572	0.594
-57.276	705.721	0.622	1.634
-56.261	-200.000	75.992	527.771
-55.246	550.185	1310.216	3129.596
-54.232	145.086	2556.049	3405.433
-53.217	112.312	2353.947	2835.119
-52.203	51.475	1969.232	1863.283
-51.188	45.492	1756.367	1614.785
-50.173	42.588	1710.108	1549.829
-49.159	56.693	1744.826	1691.159
-48.144	62.367	1763.459	1753.186
-47.130	45.190	1726.620	1584.837
-46.115	41.889	1713.430	1547.191
-45.100	41.837	1708.066	1541.889
-44.086	41.875	1705.721	1540.003
-43.071	41.795	1702.693	1536.588
-42.057	41.806	1700.536	1534.667
-41.042	41.778	1698.616	1532.661
-40.027	41.762	1696.746	1530.787
-39.013	41.824	1694.733	1529.385
-37.998	41.669	1693.449	1526.985
-36.984	41.796	1690.881	1525.579
-35.969	41.940	1689.446	1525.319
-34.954	41.974	1687.736	1523.973
-33.940	41.987	1685.696	1522.168
-32.925	42.038	1683.712	1520.702
-31.911	42.024	1682.428	1519.378
-30.896	41.925	1680.501	1516.829
-29.881	41.977	1678.796	1515.622
-28.867	41.939	1677.347	1513.969
-27.852	41.955	1675.465	1512.326
-26.838	41.856	1674.028	1510.225
-25.823	41.965	1672.207	1509.344
-24.809	41.993	1670.755	1508.181
-23.794	41.887	1669.322	1506.034
-22.779	41.962	1668.013	1505.356
-21.765	41.854	1666.906	1503.483
-20.750	41.893	1665.033	1502.031
-19.736	41.977	1663.367	1501.094
-18.721	42.006	1661.837	1499.874
-17.706	41.806	1660.533	1497.142
-16.692	41.958	1658.517	1496.398
-15.677	41.972	1657.116	1495.177
-14.663	41.955	1656.100	1494.079
-13.648	42.042	1654.048	1492.814
-12.633	41.887	1653.134	1490.777
-11.619	41.921	1651.473	1489.469
-10.604	41.876	1650.244	1487.971
-9.590	41.944	1648.542	1486.881
-8.575	41.965	1647.368	1485.917
-7.560	41.968	1645.805	1484.469
-6.546	41.919	1644.687	1483.045
-5.531	41.942	1643.584	1482.159
-4.517	41.902	1642.283	1480.633
-3.502	41.880	1641.296	1479.518
-2.487	41.925	1639.960	1478.592
-1.473	41.842	1628.719	1467.785
-0.458	39.410	1608.567	1431.912
0.556	34.504	1607.788	1397.033
1.571	31.993	1632.539	1399.707
2.586	31.324	1647.500	1407.370
3.600	27.543	1592.818	1332.942
4.615	14.802	1471.153	1144.336
5.629	3.252	1393.654	1008.644
6.644	0.963	1383.368	986.217
7.659	0.807	1381.664	983.900
8.673	0.832	1380.482	983.130
9.688	0.778	1378.878	981.555
10.702	0.453	1376.381	977.586
11.717	4.732	1384.933	1011.428
12.731	16.525	1408.178	1105.853
13.746	24.155	1421.307	1166.225
14.761	24.478	1420.370	1167.462
15.775	24.413	1419.035	1165.836
16.790	24.467	1419.263	1166.275
17.804	24.565	1418.100	1165.855
18.819	24.653	1418.140	1166.358
19.834	24.737	1417.296	1166.114
20.848	24.693	1416.342	1164.937
21.863	24.802	1415.548	1164.890
22.877	24.674	1414.370	1162.987
23.892	24.787	1413.231	1162.678
24.907	24.736	1412.593	1161.721
25.921	24.702	1412.124	1161.010
26.936	24.779	1411.139	1160.598
27.950	24.763	1409.396	1158.961
28.965	24.768	1408.514	1158.161
29.980	24.782	1406.539	1156.526
30.994	24.718	1405.761	1155.374
32.009	24.766	1404.623	1154.644
33.023	24.819	1403.486	1153.952
34.038	24.789	1402.290	1152.672
35.053	24.910	1400.964	1152.256
36.067	24.753	1400.403	1150.686
37.082	24.819	1399.107	1149.941
38.096	24.753	1398.486	1148.906
39.111	24.730	1397.825	1148.110
40.126	24.742	1396.878	1147.309
41.140	24.816	1396.261	1147.176
42.155	24.700	1396.402	1146.447
43.169	24.832	1395.734	1146.644
44.184	24.700	1396.097	1145.992
45.199	24.690	1395.424	1145.273
46.213	24.656	1395.138	1144.720
47.228	24.749	1393.852	1144.160
48.242	24.769	1392.328	1142.934
49.257	24.732	1391.244	1141.707
50.271	24.693	1389.776	1140.152
51.286	24.674	1388.475	1138.864
52.301	24.695	1387.308	1137.941
53.315	24.683	1386.429	1137.043
54.330	24.682	1386.059	1136.635
55.344	24.691	1384.347	1135.186
56.359	24.685	1383.531	1134.378
57.374	24.710	1382.892	1133.914
58.388	24.667	1381.908	1132.735
59.403	24.653	1381.559	1132.258
60.417	24.734	1380.612	1131.896
61.432	24.693	1379.869	1130.927
62.447	24.702	1379.114	1130.264
63.461	24.720	1377.804	1129.204
64.476	24.810	1376.849	1128.887
65.490	24.709	1375.837	1127.320
66.505	24.773	1374.336	1126.396
67.520	24.700	1372.878	1124.643
68.534	24.772	1371.734	1124.055
69.549	24.802	1371.120	1123.643
70.563	24.716	1370.085	1122.157
71.578	24.846	1368.484	1121.561
72.593	24.687	1368.381	1120.380
73.607	24.675	1367.849	1119.769
74.622	24.819	1366.585	1119.538
75.636	24.816	1365.936	1118.890
76.651	24.754	1364.930	1117.576
77.666	24.844	1364.811	1117.941
78.680	24.676	1364.574	1116.602
79.695	24.836	1363.182	1116.363
80.709	24.699	1362.460	1114.815
81.724	24.720	1361.903	1114.394
82.739	24.720	1360.834	1113.419
83.753	24.750	1359.936	1112.775
84.768	24.761	1358.620	1111.663
85.782	24.756	1357.622	1110.721
86.797	24.737	1356.067	1109.233
87.812	24.786	1355.152	1108.690
88.826	24.736	1354.364	1107.639
89.841	24.782	1353.365	1107.004
90.855	24.830	1351.961	1106.057
91.870	24.810	1351.433	1105.405
92.884	24.752	1350.323	1104.039
93.899	24.794	1350.032	1103.962
94.914	24.784	1349.120	1103.059
95.928	24.827	1347.816	1102.159
96.943	24.768	1347.182	1101.184
97.957	24.793	1346.838	1100.954
98.972	24.721	1345.854	1099.608
99.987	24.846	1344.213	1098.940
101.001	24.845	1343.594	1098.329
102.016	24.772	1342.830	1097.159
103.030	24.826	1341.595	1096.386
104.045	24.695	1340.929	1094.941
105.060	24.915	1339.972	1095.410
106.074	24.801	1339.321	1094.087
107.089	24.834	1337.692	1092.859
108.103	24.862	1336.520	1091.975
109.118	24.815	1335.771	1090.983
110.133	24.857	1334.965	1090.484
111.147	24.876	1333.510	1089.311
112.162	24.858	1332.315	1088.133
113.176	24.886	1331.453	1087.501
114.191	24.821	1330.443	1086.186
115.206	24.865	1329.414	1085.512
116.220	24.786	1328.388	1084.101
117.235	24.857	1327.326	1083.569
118.249	24.742	1326.726	1082.286
119.264	24.905	1325.466	1082.150
120.279	24.881	1324.446	1081.079
121.293	24.970	1323.688	1080.897
122.308	24.804	1323.203	1079.405
123.322	24.867	1322.378	1079.019
124.337	24.960	1321.514	1078.778
125.352	25.004	1320.436	1078.068
126.366	24.899	1319.722	1076.758
127.381	24.880	1318.995	1075.953
128.395	24.979	1318.011	1075.650
129.410	24.979	1317.018	1074.747
130.424	24.962	1316.570	1074.185
131.439	24.953	1315.480	1073.146
132.454	24.732	1315.451	1071.700
133.468	24.898	1313.942	1071.368
134.483	24.971	1313.678	1071.498
135.497	24.929	1312.923	1070.534
136.512	24.865	1311.867	1069.197
137.527	24.918	1310.643	1068.422
138.541	24.890	1309.473	1067.207
139.556	24.903	1307.947	1065.947
140.570	24.938	1306.705	1065.049
141.585	24.953	1305.731	1064.247
142.600	24.852	1304.687	1062.702
143.614	24.921	1304.130	1062.565
144.629	24.885	1303.101	1061.420
145.643	24.823	1301.706	1059.822
146.658	24.813	1301.050	1059.137
147.673	24.793	1300.363	1058.366
148.687	24.807	1298.978	1057.228
149.702	24.865	1297.597	1056.351
150.716	24.896	1296.508	1055.552
151.731	24.831	1295.441	1054.208
152.746	24.855	1294.733	1053.683
153.760	24.896	1293.301	1052.659
154.775	24.858	1292.562	1051.743
155.789	24.914	1291.040	1050.740
156.804	24.874	1290.580	1050.041
157.819	24.896	1290.002	1049.608
158.833	24.941	1289.268	1049.179
159.848	24.935	1288.289	1048.255
160.862	24.893	1287.809	1047.527
161.877	24.942	1286.201	1046.412
162.892	24.942	1285.891	1046.066
163.906	25.002	1285.148	1045.717
164.921	24.875	1284.706	1044.529
165.935	25.085	1283.559	1044.726
166.950	25.082	1282.912	1044.089
167.964	24.980	1282.351	1042.945
168.979	24.949	1282.093	1042.464
169.994	24.951	1281.348	1041.779
171.008	25.015	1280.519	1041.380
172.023	24.917	1279.845	1040.172
173.037	25.123	1278.722	1040.364
174.052	25.030	1278.064	1039.195
175.067	24.999	1276.889	1037.969
176.081	24.981	1276.418	1037.389
177.096	25.098	1275.764	1037.445
178.110	25.026	1274.796	1036.152
179.125	25.143	1273.432	1035.624
180.140	24.977	1272.882	1034.129
181.154	25.099	1271.521	1033.634
182.169	24.962	1270.748	1032.124
183.183	24.977	1269.347	1030.980
184.198	25.143	1268.413	1031.087
185.213	25.143	1267.200	1030.007
186.227	25.236	1266.427	1029.826
187.242	25.115	1265.697	1028.447
188.256	24.990	1265.042	1027.107
189.271	25.100	1264.021	1026.814
190.286	25.049	1263.489	1025.998
191.300	25.056	1262.946	1025.509
192.315	25.060	1262.485	1025.066
193.329	25.052	1262.254	1024.741
194.344	25.120	1261.607	1024.518
195.359	25.160	1260.929	1024.100
196.373	24.965	1260.740	1022.747
197.388	25.096	1259.797	1022.639
198.402	25.005	1259.605	1021.872
199.417	25.029	1259.393	1021.746
200.432	25.166	1258.413	1021.640
201.446	25.118	1257.723	1020.718
202.461	25.084	1257.322	1020.106
203.475	25.188	1256.205	1019.704
204.490	25.069	1255.142	1018.072
205.504	25.062	1254.511	1017.434
206.519	25.074	1253.627	1016.692
207.534	25.243	1251.907	1016.163
208.548	25.095	1251.639	1015.017
209.563	25.129	1250.956	1014.567
210.577	25.178	1249.600	1013.656
211.592	25.159	1249.003	1012.972
212.607	25.184	1248.267	1012.429
213.621	25.232	1247.427	1011.928
214.636	25.207	1246.795	1011.184
215.650	25.205	1245.821	1010.295
216.665	25.246	1244.937	1009.720
217.680	25.174	1243.987	1008.455
218.694	25.177	1243.548	1008.029
219.709	25.185	1242.793	1007.369
220.723	25.282	1241.907	1007.109
221.738	25.189	1241.088	1005.835
222.753	25.184	1240.082	1004.901
223.767	25.268	1239.780	1005.039
224.782	25.295	1239.426	1004.813
225.796	25.353	1238.703	1004.464
226.811	25.354	1237.923	1003.745
227.826	25.262	1237.608	1002.885
228.840	25.404	1236.997	1003.096
229.855	25.237	1236.733	1001.860
230.869	25.213	1236.052	1001.086
231.884	25.320	1234.911	1000.670
232.899	25.285	1233.947	999.608
233.913	25.301	1233.364	999.135
234.928	25.393	1233.278	999.487
235.942	25.401	1232.232	998.596
236.957	25.427	1231.608	998.145
237.972	25.383	1231.144	997.439
238.986	25.352	1230.572	996.718
240.001	25.417	1229.752	996.321
241.015	25.333	1229.338	995.432
242.030	25.405	1227.923	994.597
243.045	25.421	1227.269	994.067
244.059	25.436	1226.539	993.470
245.074	25.452	1225.404	992.556
246.088	25.548	1225.015	992.684
247.103	25.499	1224.558	991.955
248.117	25.501	1223.598	991.099
249.132	25.566	1222.390	990.390
250.147	25.606	1221.959	990.174
251.161	25.534	1221.265	989.130
252.176	25.580	1220.580	988.738
253.190	25.578	1219.664	987.898
254.205	25.503	1219.108	986.948
255.220	25.521	1218.614	986.558
256.234	25.626	1218.194	986.710
257.249	25.566	1217.449	985.689
258.263	25.555	1217.130	985.284
259.278	25.615	1216.343	984.886
260.293	25.618	1215.627	984.236
261.307	25.639	1215.216	983.934
262.322	25.634	1214.646	983.356
263.336	25.605	1213.890	982.500
264.351	25.655	1213.265	982.176
265.366	25.647	1212.373	981.326
266.380	25.619	1211.782	980.610
267.395	25.540	1211.351	979.743
268.409	25.645	1210.625	979.640
269.424	25.607	1210.179	978.983
270.439	25.703	1209.689	979.025
271.453	25.733	1208.908	978.469
272.468	25.541	1208.088	976.675
273.482	25.534	1208.017	976.494
274.497	25.628	1207.398	976.415
275.512	25.740	1206.694	976.367
276.526	25.754	1205.660	975.525
277.541	25.729	1205.357	975.055
278.555	25.685	1204.588	974.106
279.570	25.868	1203.484	974.118
280.585	25.831	1202.726	973.221
281.599	25.741	1202.061	972.109
282.614	25.767	1201.095	971.382
283.628	25.768	1199.939	970.368
284.643	25.918	1199.078	970.391
285.657	25.808	1198.610	969.334
286.672	25.784	1197.847	968.503
287.687	25.841	1196.927	967.978
288.701	25.832	1196.344	967.374
289.716	25.889	1195.337	966.783
290.730	25.826	1195.015	966.100
291.745	25.923	1194.003	965.715
292.760	25.872	1193.928	965.294
293.774	25.851	1193.115	964.441
294.789	25.945	1192.464	964.333
295.803	25.902	1192.439	963.998
296.818	25.868	1191.397	962.888
297.833	25.887	1191.071	962.635
298.847	26.025	1190.099	962.501
299.862	25.936	1189.401	961.379
300.876	25.963	1188.600	960.791
301.891	26.000	1187.964	960.388
302.906	26.057	1187.266	960.043
303.920	26.073	1186.500	959.421
304.935	26.041	1185.758	958.567
305.949	26.035	1185.259	958.047
306.964	26.021	1184.810	957.525
307.979	26.046	1184.259	957.128
308.993	26.096	1183.392	956.611
310.008	25.933	1182.864	955.235
311.022	26.193	1181.570	955.480
312.037	26.080	1181.121	954.436
313.052	26.220	1179.860	954.068
314.066	26.110	1179.111	952.801
315.081	26.162	1178.271	952.312
316.095	25.984	1178.347	951.349
317.110	26.118	1177.591	951.362
318.125	26.121	1176.902	950.736
319.139	26.132	1176.110	950.073
320.154	26.118	1175.385	949.327
321.168	26.098	1174.962	948.799
322.183	26.116	1174.422	948.369
323.197	26.191	1173.773	948.156
324.212	26.101	1173.446	947.334
325.227	26.172	1172.825	947.122
326.241	26.274	1171.991	946.901
327.256	26.243	1171.660	946.388
328.270	26.214	1170.658	945.340
329.285	26.231	1169.622	944.509
330.300	26.287	1168.852	944.099
331.314	26.195	1168.167	942.983
332.329	26.281	1167.209	942.571
333.343	26.351	1166.770	942.501
334.358	26.331	1165.979	941.673
335.373	26.356	1165.358	941.220
336.387	26.380	1164.177	940.309
337.402	26.416	1163.613	939.953
338.416	26.355	1163.615	939.559
339.431	26.405	1162.570	938.886
340.446	26.430	1161.782	938.300
341.460	26.347	1161.626	937.659
342.475	26.366	1160.655	936.890
343.489	26.434	1159.448	936.187
344.504	26.373	1158.796	935.259
345.519	26.461	1157.666	934.721
346.533	26.475	1156.945	934.127
347.548	26.484	1156.425	933.672
348.562	26.493	1155.426	932.829
349.577	26.464	1155.061	932.305
350.592	26.438	1154.363	931.525
351.606	26.391	1153.462	930.472
352.621	26.487	1152.544	930.142
353.635	26.500	1152.250	929.891
354.650	26.487	1152.026	929.561
355.665	26.473	1151.457	928.947
356.679	26.685	1149.976	928.755
357.694	26.678	1149.723	928.436
358.708	26.589	1149.149	927.434
359.723	26.470	1148.875	926.519
360.738	26.635	1147.296	926.008
361.752	26.617	1147.097	925.674
362.767	26.500	1146.867	924.808
363.781	26.695	1145.788	924.854
364.796	26.589	1145.674	924.135
365.810	26.599	1145.207	923.731
366.825	26.666	1144.072	923.074
367.840	26.701	1144.124	923.210
368.854	26.688	1143.844	922.839
369.869	26.729	1142.604	921.963
370.883	26.712	1141.898	921.229
371.898	26.777	1141.119	920.847
372.913	26.669	1140.515	919.729
373.927	26.760	1140.034	919.725
374.942	26.798	1139.494	919.399
375.956	26.804	1138.953	918.913
376.971	26.755	1138.677	918.358
377.986	26.675	1138.024	917.345
379.000	26.941	1137.012	917.792
380.015	26.875	1136.717	917.139
381.029	26.851	1136.198	916.518
382.044	26.765	1135.908	915.769
383.059	26.790	1135.099	915.163
384.073	26.834	1134.066	914.473
385.088	26.898	1132.979	913.835
386.102	26.848	1132.450	913.076
387.117	26.842	1131.527	912.221
388.132	26.894	1130.574	911.635
389.146	26.847	1130.089	910.924
390.161	26.959	1129.479	910.918
391.175	26.952	1128.809	910.261
392.190	26.928	1128.350	909.687
393.205	27.025	1127.357	909.294
394.219	26.959	1126.699	908.352
395.234	26.923	1126.076	907.589
396.248	27.017	1124.909	907.037
397.263	27.069	1124.046	906.521
398.278	27.062	1123.555	906.012
399.292	27.064	1122.973	905.470
400.307	27.048	1122.469	904.905
401.321	27.036	1121.887	904.294
402.336	27.159	1120.826	903.973
403.350	27.007	1120.328	902.738
404.365	27.180	1119.582	902.915
405.380	27.053	1119.005	901.738
406.394	27.094	1118.347	901.332
407.409	27.064	1117.741	900.615
408.423	27.150	1116.755	900.167
409.438	27.179	1116.101	899.704
410.453	27.224	1115.153	899.081
411.467	27.289	1114.384	898.704
412.482	27.247	1113.910	898.034
413.496	27.113	1113.263	896.772
414.511	27.180	1112.759	896.617
415.526	27.201	1112.448	896.391
416.540	27.238	1112.268	896.349
417.555	27.269	1111.503	895.804
418.569	27.341	1110.755	895.478
419.584	27.234	1110.378	894.570
420.599	27.258	1110.193	894.458
421.613	84.352	1294.182	1357.328
422.628	79.197	1320.990	1357.473
