DTS Sentinel unit serial number:	SN413079Multiplexer serial number:	ORYXHardware model number:	OX4-SRSoftware version number:	ORYX F/W v4.00 Oryx Data Collector v3.7.2.0data status	okinstallation	princeton_trtdifferential loss correction	single-endedforward channel	channel 2reverse channel	N/Adate	2019/09/11time	13:05:11forward acquisition time	60.00reverse acquisition time	0.00gamma	496.2192k internal	0.2292k external	0.2292temperature offset calibration	0.9969default loss term (dB/km)	0.3790temperature slope calibration	1.0000multiplexer offset coefficient	1.0000multiplexer slope coefficient	1.0000fibre end	0.00T internal ref (°C)	41.70T ext. ref 1 (°C)	0.25T ext. ref 2 (°C)	39.04length (m)	temperature (°C)	Stokes	anti-Stokes-747.200	-54.658	0.202	-0.093
-746.185	17.268	-0.185	0.150
-745.171	711.441	-0.095	0.257
-744.156	-200.000	-0.020	0.435
-743.142	-200.000	-0.004	0.393
-742.127	-106.234	-0.442	0.101
-741.112	90.883	0.147	-0.168
-740.098	-102.834	-0.138	0.034
-739.083	-90.049	-0.071	0.021
-738.069	562.280	0.118	0.292
-737.054	-95.796	0.138	0.038
-736.039	800.000	-0.059	0.184
-735.025	36.436	0.119	0.108
-734.010	800.000	0.028	-0.111
-732.996	579.606	-0.161	0.404
-731.981	-57.441	-0.179	-0.080
-730.966	719.235	-0.009	0.024
-729.952	665.251	-0.101	-0.267
-728.937	77.951	0.126	-0.137
-727.923	800.000	-0.026	-0.110
-726.908	104.839	-0.081	-0.098
-725.894	-11.471	0.052	-0.035
-724.879	-75.319	-0.259	-0.094
-723.864	-77.850	-0.425	-0.150
-722.850	435.104	0.015	-0.033
-721.835	362.278	-0.140	-0.287
-720.821	-138.860	-0.124	-0.014
-719.806	-28.702	-0.034	0.020
-718.791	-200.000	0.038	0.441
-717.777	800.000	0.068	-0.219
-716.762	49.868	0.060	0.057
-715.748	800.000	0.148	-0.439
-714.733	44.827	-0.326	-0.307
-713.718	-28.134	-0.120	0.071
-712.704	56.495	-0.187	-0.186
-711.689	-86.672	0.277	-0.087
-710.675	55.719	-0.136	0.135
-709.660	8.241	-0.040	0.031
-708.645	75.795	-0.199	-0.215
-707.631	167.155	0.075	-0.109
-706.616	-21.383	0.348	-0.217
-705.602	800.000	0.052	-0.152
-704.587	-36.976	0.234	0.128
-703.572	-200.000	0.016	0.299
-702.558	157.693	0.105	-0.148
-701.543	14.804	-0.057	0.046
-700.529	800.000	0.009	-0.038
-699.514	23.707	0.306	-0.258
-698.499	-139.877	0.074	0.008
-697.485	-145.675	0.281	0.026
-696.470	-200.000	0.020	-0.190
-695.456	-49.089	0.218	0.106
-694.441	-198.267	-0.153	-0.001
-693.426	45.187	-0.384	0.361
-692.412	457.391	-0.101	-0.230
-691.397	800.000	-0.040	-0.129
-690.383	-200.000	-0.014	0.335
-689.368	62.561	-0.126	-0.128
-688.354	380.086	0.072	0.150
-687.339	-11.158	0.214	-0.144
-686.324	100.525	-0.179	-0.213
-685.310	-200.000	0.059	0.341
-684.295	-200.000	-0.011	0.175
-683.281	-122.779	-0.216	-0.036
-682.266	-21.101	-0.063	-0.040
-681.251	-200.000	-0.045	-0.221
-680.237	-120.328	-0.207	-0.036
-679.222	800.000	0.050	0.220
-678.208	-74.817	0.292	0.107
-677.193	50.475	0.067	-0.065
-676.178	-122.959	-0.104	-0.017
-675.164	114.652	-0.098	-0.122
-674.149	168.259	0.043	0.063
-673.135	176.100	-0.056	-0.083
-672.120	191.883	0.102	0.157
-671.105	-7.891	0.151	-0.104
-670.091	800.000	-0.020	-0.056
-669.076	-200.000	-0.015	-0.257
-668.062	23.839	-0.298	-0.250
-667.047	428.510	0.216	-0.477
-666.032	-125.495	0.237	0.037
-665.018	11.680	-0.186	-0.145
-664.003	-200.000	-0.039	0.402
-662.989	-14.742	-0.156	0.102
-661.974	217.606	0.090	0.147
-660.959	-200.000	0.011	-0.266
-659.945	800.000	-0.045	-0.133
-658.930	124.977	0.145	-0.187
-657.916	-200.000	0.052	-0.424
-656.901	586.210	0.066	0.166
-655.886	36.074	-0.071	-0.063
-654.872	-136.295	-0.261	-0.031
-653.857	478.479	0.077	0.177
-652.843	800.000	0.028	0.095
-651.828	462.182	-0.054	0.122
-650.814	541.026	-0.136	-0.331
-649.799	-47.490	-0.323	-0.160
-648.784	-200.000	-0.060	0.460
-647.770	180.226	-0.214	-0.319
-646.755	-200.000	-0.071	-0.403
-645.741	-25.018	-0.150	0.090
-644.726	654.289	-0.023	-0.059
-643.711	295.229	0.119	-0.221
-642.697	800.000	-0.038	-0.153
-641.682	597.375	0.012	0.029
-640.668	214.322	-0.175	0.283
-639.653	322.379	0.158	0.307
-638.638	-200.000	-0.012	-0.291
-637.624	602.948	-0.155	-0.392
-636.609	800.000	-0.160	-0.548
-635.595	2.000	0.148	-0.109
-634.580	-170.457	0.301	0.011
-633.565	800.000	-0.040	0.141
-632.551	295.798	0.133	0.248
-631.536	47.101	0.216	0.204
-630.522	81.081	0.042	0.047
-629.507	604.413	0.028	-0.070
-628.492	130.016	-0.147	0.192
-627.478	150.739	0.096	0.133
-626.463	-200.000	0.001	0.165
-625.449	-52.794	0.190	-0.089
-624.434	-105.557	-0.190	-0.044
-623.419	-200.000	0.037	0.169
-622.405	-32.221	0.034	0.019
-621.390	214.848	0.157	0.253
-620.376	-22.454	-0.229	-0.141
-619.361	800.000	-0.080	-0.268
-618.346	2.711	0.349	-0.257
-617.332	66.393	-0.189	0.195
-616.317	162.991	-0.312	0.447
-615.303	-79.633	-0.238	-0.082
-614.288	-94.469	-0.232	-0.064
-613.273	-128.665	-0.132	-0.019
-612.259	-74.647	-0.330	0.121
-611.244	518.697	-0.081	0.194
-610.230	199.498	-0.115	0.180
-609.215	-51.815	-0.072	-0.034
-608.201	-22.822	-0.086	-0.053
-607.186	670.747	0.020	-0.054
-606.171	-180.092	-0.049	0.001
-605.157	6.657	-0.202	-0.153
-604.142	28.682	-0.132	-0.114
-603.128	117.843	-0.206	-0.258
-602.113	-200.000	0.059	0.278
-601.098	6.994	0.154	-0.117
-600.084	95.160	-0.259	-0.300
-599.069	-162.535	0.228	-0.011
-598.055	-188.139	0.082	0.001
-597.040	47.820	-0.174	-0.165
-596.025	88.046	-0.091	0.102
-595.011	-200.000	-0.051	-0.264
-593.996	-20.053	-0.023	-0.015
-592.982	800.000	0.041	-0.153
-591.967	-26.283	-0.227	-0.136
-590.952	-200.000	0.044	-0.299
-589.938	424.017	0.045	-0.098
-588.923	287.051	-0.085	0.156
-587.909	800.000	0.024	-0.074
-586.894	-147.053	-0.220	-0.019
-585.879	-200.000	0.011	0.112
-584.865	-141.508	0.311	0.032
-583.850	-200.000	0.030	0.232
-582.836	80.225	-0.044	0.049
-581.821	800.000	-0.065	0.264
-580.806	-200.000	0.015	-0.243
-579.792	-71.325	0.261	-0.100
-578.777	-85.905	0.080	-0.025
-577.763	800.000	0.025	0.071
-576.748	101.183	-0.112	0.132
-575.733	209.645	-0.162	-0.258
-574.719	-43.104	0.160	-0.082
-573.704	-77.023	0.366	0.130
-572.690	-55.793	0.315	0.143
-571.675	45.829	-0.224	-0.211
-570.661	-15.304	0.012	0.008
-569.646	230.667	0.061	0.102
-568.631	800.000	0.082	0.309
-567.617	14.511	0.087	0.069
-566.602	-136.375	0.081	0.010
-565.588	-200.000	-0.060	0.285
-564.573	-200.000	0.034	-0.219
-563.558	-200.000	-0.042	0.222
-562.544	-34.334	-0.277	-0.154
-561.529	133.527	0.074	0.097
-560.515	117.089	-0.126	0.157
-559.500	-45.376	-0.297	0.150
-558.485	-174.531	-0.291	-0.008
-557.471	364.365	0.083	-0.170
-556.456	-40.998	-0.094	-0.049
-555.442	-67.352	-0.169	0.068
-554.427	655.519	0.132	-0.345
-553.412	107.231	-0.266	-0.321
-552.398	-101.749	0.141	-0.035
-551.383	286.666	-0.060	0.109
-550.369	-59.540	0.224	-0.098
-549.354	-99.337	-0.375	0.096
-548.339	800.000	-0.110	-0.365
-547.325	68.364	-0.097	0.101
-546.310	23.246	-0.169	-0.141
-545.296	-63.334	-0.128	0.054
-544.281	-111.285	0.164	0.034
-543.266	-200.000	-0.000	0.092
-542.252	-200.000	-0.015	0.206
-541.237	-67.659	-0.075	0.030
-540.223	800.000	-0.110	-0.448
-539.208	-170.237	0.084	0.003
-538.193	-200.000	-0.045	-0.335
-537.179	800.000	0.017	-0.050
-536.164	-200.000	-0.020	-0.269
-535.150	-200.000	0.010	0.113
-534.135	-200.000	0.006	-0.081
-533.121	-200.000	0.002	0.037
-532.106	60.514	-0.130	-0.131
-531.091	-43.128	0.134	0.069
-530.077	175.557	-0.083	-0.121
-529.062	290.807	0.061	-0.113
-528.048	14.706	-0.053	0.042
-527.033	800.000	0.045	-0.172
-526.018	-2.322	0.275	0.196
-525.004	-158.042	-0.090	0.005
-523.989	-153.983	-0.045	-0.003
-522.975	235.874	-0.096	0.162
-521.960	-114.150	0.229	0.045
-520.945	121.032	-0.089	0.112
-519.931	59.187	0.246	-0.245
-518.916	-200.000	0.065	0.485
-517.902	-34.430	0.157	-0.088
-516.887	100.912	-0.121	0.143
-515.872	-87.679	-0.116	0.036
-514.858	52.759	-0.207	-0.201
-513.843	-167.506	0.008	-0.000
-512.829	-127.859	-0.085	0.012
-511.814	-200.000	0.035	-0.197
-510.799	155.172	0.201	-0.280
-509.785	800.000	0.114	-0.344
-508.770	800.000	0.041	-0.132
-507.756	-41.446	0.162	-0.085
-506.741	46.960	-0.227	-0.214
-505.726	-200.000	-0.007	-0.050
-504.712	61.794	0.040	0.041
-503.697	-15.610	-0.236	0.153
-502.683	136.534	-0.063	0.084
-501.668	86.327	-0.146	-0.163
-500.653	12.583	-0.365	-0.285
-499.639	-193.344	-0.036	-0.000
-498.624	-200.000	0.043	0.213
-497.610	-75.666	-0.206	-0.074
-496.595	-7.485	0.237	0.163
-495.581	-38.592	0.183	0.098
-494.566	119.529	-0.060	-0.075
-493.551	-122.808	-0.322	-0.053
-492.537	620.000	0.044	-0.111
-491.522	79.266	0.027	0.029
-490.508	-130.844	-0.079	0.011
-489.493	125.783	-0.100	0.128
-488.478	101.674	0.333	0.394
-487.464	-200.000	-0.002	-0.082
-486.449	-92.580	0.304	0.086
-485.435	51.831	0.213	0.205
-484.420	800.000	-0.011	0.044
-483.405	800.000	0.080	-0.256
-482.391	658.620	-0.067	-0.174
-481.376	-200.000	-0.027	0.256
-480.362	138.628	-0.151	0.201
-479.347	37.841	0.100	0.090
-478.332	198.273	-0.040	-0.062
-477.318	100.660	0.233	0.274
-476.303	217.244	0.143	0.231
-475.289	98.251	0.076	-0.088
-474.274	-143.118	-0.180	-0.018
-473.259	-200.000	0.020	-0.151
-472.245	220.750	-0.095	0.154
-471.230	-47.067	0.247	0.122
-470.216	-98.044	0.193	0.050
-469.201	213.027	-0.078	-0.124
-468.186	-103.889	-0.284	0.067
-467.172	-122.530	0.195	0.032
-466.157	-132.856	0.209	-0.027
-465.143	147.857	0.041	0.056
-464.128	1.150	0.064	-0.046
-463.113	4.152	-0.185	-0.137
-462.099	141.948	0.151	-0.203
-461.084	-84.235	0.243	-0.078
-460.070	51.155	-0.068	0.065
-459.055	-145.187	-0.120	-0.011
-458.040	190.223	0.170	-0.258
-457.026	161.062	-0.057	-0.080
-456.011	-200.000	-0.009	-0.082
-454.997	-182.628	-0.130	-0.002
-453.982	256.290	-0.202	-0.351
-452.968	-115.456	0.293	-0.056
-451.953	398.248	0.067	0.142
-450.938	80.005	0.096	0.104
-449.924	-129.574	-0.182	-0.025
-448.909	378.984	0.076	-0.157
-447.895	74.126	0.240	-0.255
-446.880	629.349	-0.055	-0.141
-445.865	106.145	0.148	-0.177
-444.851	-200.000	0.012	0.205
-443.836	141.531	-0.130	0.174
-442.822	-62.266	0.247	-0.104
-441.807	-200.000	0.020	-0.126
-440.792	-24.203	0.084	-0.050
-439.778	465.823	-0.081	0.183
-438.763	342.878	0.050	0.100
-437.749	-159.455	0.042	-0.002
-436.734	800.000	0.045	0.126
-435.719	96.943	-0.290	0.336
-434.705	43.397	0.174	-0.161
-433.690	-24.286	-0.239	-0.144
-432.676	436.175	0.063	0.138
-431.661	-200.000	-0.011	0.109
-430.646	538.261	0.112	-0.269
-429.632	-200.000	-0.014	0.371
-428.617	-87.880	-0.276	0.084
-427.603	-200.000	0.069	-0.370
-426.588	134.304	-0.092	0.121
-425.573	43.357	0.109	0.101
-424.559	-200.000	-0.078	-0.373
-423.544	152.232	0.158	0.218
-422.530	-102.924	-0.208	-0.050
-421.515	67.854	0.215	-0.222
-420.500	-200.000	0.100	-0.000
-419.486	87.397	0.083	-0.093
-418.471	238.959	0.037	0.061
-417.457	-200.000	-0.068	-0.357
-416.442	-68.839	-0.124	0.048
-415.428	706.657	0.138	-0.369
-414.413	-200.000	0.007	0.261
-413.398	-34.273	-0.218	-0.121
-412.384	-136.962	-0.114	0.013
-411.369	-74.448	-0.248	0.090
-410.355	16.848	-0.078	-0.062
-409.340	52.945	-0.144	-0.139
-408.325	315.744	-0.082	-0.156
-407.311	-75.563	-0.381	-0.137
-406.296	-107.385	-0.605	-0.134
-405.282	147.553	-0.146	0.198
-404.267	84.484	0.200	0.221
-403.252	-146.328	0.259	0.023
-402.238	-3.486	0.139	0.098
-401.223	-200.000	-0.039	-0.327
-400.209	273.653	0.134	-0.240
-399.194	-86.995	0.180	-0.055
-398.179	42.023	-0.155	-0.142
-397.165	-200.000	0.049	-0.267
-396.150	48.117	-0.144	-0.136
-395.136	-67.532	0.487	0.193
-394.121	-41.940	0.084	0.043
-393.106	-72.113	-0.291	0.109
-392.092	18.807	0.058	-0.047
-391.077	-200.000	0.022	-0.127
-390.063	-26.787	-0.196	-0.115
-389.048	-17.997	0.158	-0.100
-388.033	-65.023	-0.158	-0.065
-387.019	-65.960	-0.028	0.011
-386.004	421.889	0.100	0.216
-384.990	-96.957	0.200	0.053
-383.975	-46.144	0.178	0.089
-382.960	90.670	-0.200	0.226
-381.946	-134.940	-0.126	0.015
-380.931	-171.593	0.112	0.004
-379.917	800.000	-0.064	0.182
-378.902	10.859	0.062	0.048
-377.888	-178.830	0.111	-0.003
-376.873	195.844	0.068	0.105
-375.858	-7.575	0.361	0.246
-374.844	-162.684	0.201	0.010
-373.829	494.175	-0.049	-0.113
-372.815	600.558	-0.072	-0.181
-371.800	-54.208	0.295	0.135
-370.785	-80.658	0.219	-0.073
-369.771	-200.000	-0.004	-0.142
-368.756	-153.027	-0.119	0.008
-367.742	-200.000	-0.006	0.199
-366.727	53.881	0.108	-0.105
-365.712	800.000	0.035	0.115
-364.698	800.000	0.105	0.406
-363.683	800.000	-0.109	0.317
-362.669	-200.000	-0.008	-0.063
-361.654	-200.000	-0.028	0.272
-360.639	-190.895	0.235	-0.002
-359.625	-19.014	0.124	0.078
-358.610	-200.000	0.018	0.094
-357.596	-2.180	-0.096	0.068
-356.581	-200.000	0.009	0.090
-355.566	-200.000	-0.042	0.257
-354.552	107.192	-0.083	-0.100
-353.537	800.000	0.150	-0.459
-352.523	-5.121	0.182	0.126
-351.508	-200.000	0.003	0.256
-350.493	-45.338	-0.266	-0.133
-349.479	153.720	-0.057	-0.079
-348.464	-200.000	0.051	0.238
-347.450	-81.033	0.407	-0.136
-346.435	-200.000	0.036	-0.165
-345.420	31.616	0.205	-0.177
-344.406	800.000	0.065	0.269
-343.391	-34.961	0.187	0.103
-342.377	-154.354	0.486	0.033
-341.362	-113.717	-0.289	-0.057
-340.348	-112.908	0.155	0.031
-339.333	237.625	-0.092	0.153
-338.318	3.967	-0.173	0.128
-337.304	-56.791	-0.600	-0.267
-336.289	-5.675	0.168	-0.116
-335.275	-134.239	0.188	-0.023
-334.260	3.223	0.398	-0.292
-333.245	2.597	0.125	0.091
-332.231	-20.872	0.155	0.096
-331.216	-103.334	-0.178	-0.042
-330.202	-163.273	-0.319	-0.015
-329.187	123.032	-0.144	0.181
-328.172	-107.071	-0.264	0.059
-327.158	-200.000	-0.001	-0.178
-326.143	800.000	0.007	0.030
-325.129	-200.000	-0.071	0.548
-324.114	-116.647	0.125	0.023
-323.099	-200.000	-0.022	0.410
-322.085	-31.519	0.276	0.156
-321.070	14.006	0.208	0.163
-320.056	-52.180	0.206	-0.096
-319.041	-200.000	-0.107	0.543
-318.026	105.294	-0.318	0.378
-317.012	-200.000	0.018	0.305
-315.997	66.378	-0.239	-0.244
-314.983	-200.000	0.004	0.243
-313.968	3.409	-0.096	-0.071
-312.953	800.000	-0.020	-0.087
-311.939	-101.652	-0.148	-0.036
-310.924	-200.000	0.018	-0.153
-309.910	-22.091	0.124	-0.076
-308.895	149.211	0.128	0.175
-307.880	313.981	0.233	0.442
-306.866	270.824	-0.051	0.090
-305.851	42.331	-0.162	0.148
-304.837	-91.191	-0.266	-0.077
-303.822	-73.953	0.260	0.095
-302.807	-12.339	0.216	0.142
-301.793	-70.265	0.292	0.112
-300.778	-200.000	-0.021	0.203
-299.764	103.870	0.028	-0.033
-298.749	-100.905	-0.158	0.039
-297.735	34.562	-0.054	-0.048
-296.720	121.720	0.117	0.147
-295.705	38.468	0.249	-0.223
-294.691	115.929	-0.176	-0.217
-293.676	-26.072	0.241	0.143
-292.662	-70.757	-0.243	-0.092
-291.647	-121.047	-0.186	-0.031
-290.632	206.239	-0.142	0.222
-289.618	-59.964	-0.272	-0.117
-288.603	-200.000	0.003	0.048
-287.589	-31.775	-0.087	0.049
-286.574	112.667	0.158	0.192
-285.559	-68.022	-0.133	-0.052
-284.545	-36.360	0.483	0.261
-283.530	800.000	-0.041	-0.155
-282.516	112.465	0.121	-0.147
-281.501	117.985	0.130	0.162
-280.486	-60.152	0.521	0.223
-279.472	-115.423	-0.333	0.063
-278.457	122.057	-0.076	-0.095
-277.443	-111.436	0.267	0.055
-276.428	272.714	0.164	-0.292
-275.413	-200.000	0.057	-0.397
-274.399	-87.717	-0.077	0.023
-273.384	-121.848	0.243	0.040
-272.370	-76.502	-0.158	0.056
-271.355	-97.760	-0.360	-0.094
-270.340	-107.827	-0.088	-0.019
-269.326	-124.365	0.163	-0.026
-268.311	492.314	-0.111	-0.257
-267.297	34.683	-0.235	0.206
-266.282	800.000	0.102	0.423
-265.267	-49.129	0.320	-0.154
-264.253	-90.970	-0.150	0.043
-263.238	800.000	-0.045	0.130
-262.224	260.094	-0.085	0.148
-261.209	-102.847	-0.136	-0.033
-260.195	-200.000	-0.019	-0.094
-259.180	385.172	-0.150	0.310
-258.165	-29.304	-0.145	-0.083
-257.151	-200.000	-0.034	-0.258
-256.136	800.000	-0.030	0.124
-255.122	229.682	0.100	0.163
-254.107	-77.736	0.308	0.107
-253.092	147.432	0.036	0.048
-252.078	-4.237	0.230	-0.160
-251.063	513.380	0.047	0.109
-250.049	-53.159	-0.232	0.107
-249.034	442.012	0.118	-0.259
-248.019	538.742	-0.080	0.190
-247.005	-81.425	0.105	0.035
-245.990	119.025	0.255	-0.316
-244.976	800.000	0.092	0.317
-243.961	31.244	0.280	0.241
-242.946	-126.742	-0.131	0.019
-241.932	-127.347	0.155	0.023
-240.917	-145.867	0.269	-0.024
-239.903	800.000	0.087	0.249
-238.888	-33.529	0.265	-0.147
-237.873	48.624	0.380	0.357
-236.859	96.066	0.170	-0.195
-235.844	20.270	-0.166	-0.135
-234.830	800.000	0.051	0.188
-233.815	-160.838	-0.240	0.013
-232.800	-83.326	0.039	0.012
-231.786	122.652	0.152	0.191
-230.771	21.847	-0.118	0.096
-229.757	-18.761	-0.178	0.111
-228.742	-200.000	-0.037	-0.197
-227.727	-169.529	-0.295	0.011
-226.713	-72.574	0.368	-0.136
-225.698	800.000	-0.084	0.232
-224.684	339.370	0.071	0.139
-223.669	-79.582	0.261	-0.088
-222.655	-81.118	0.393	0.130
-221.640	800.000	-0.064	0.232
-220.625	21.688	0.194	-0.159
-219.611	27.346	-0.221	-0.186
-218.596	-89.830	0.159	0.047
-217.582	-39.108	0.205	-0.108
-216.567	-139.300	0.096	-0.010
-215.552	-144.185	-0.131	0.012
-214.538	-200.000	0.045	-0.202
-213.523	-0.258	-0.104	-0.074
-212.509	800.000	-0.009	-0.026
-211.494	298.823	-0.170	0.314
-210.479	-36.372	0.366	-0.198
-209.465	-109.546	0.086	-0.018
-208.450	715.051	0.082	-0.217
-207.436	-31.047	-0.224	-0.127
-206.421	129.529	-0.120	0.154
-205.406	-159.273	-0.090	-0.005
-204.392	-23.015	-0.165	0.100
-203.377	-70.430	0.214	0.081
-202.363	-8.154	0.140	-0.095
-201.348	-33.284	-0.184	-0.102
-200.333	800.000	0.030	-0.097
-199.319	-200.000	0.020	-0.457
-198.304	-136.287	-0.391	0.046
-197.290	698.826	-0.114	0.300
-196.275	589.115	-0.086	-0.213
-195.260	800.000	-0.081	-0.248
-194.246	800.000	-0.068	-0.197
-193.231	-12.530	-0.207	-0.135
-192.217	-56.287	-0.119	-0.053
-191.202	-121.615	-0.260	-0.043
-190.187	800.000	-0.068	0.297
-189.173	-181.505	0.098	0.002
-188.158	116.158	-0.268	0.328
-187.144	-200.000	-0.042	-0.285
-186.129	15.253	0.224	-0.176
-185.114	266.546	-0.114	0.199
-184.100	390.839	0.064	-0.134
-183.085	-86.622	-0.039	0.012
-182.071	-37.172	0.270	0.145
-181.056	70.507	0.185	-0.191
-180.042	-200.000	-0.136	-0.000
-179.027	-200.000	-0.013	0.166
-178.012	800.000	0.059	-0.175
-176.998	-93.991	-0.083	-0.023
-175.983	175.997	0.084	0.122
-174.969	312.725	0.175	-0.329
-173.954	800.000	-0.076	-0.300
-172.939	-200.000	0.036	0.241
-171.925	-200.000	0.010	-0.188
-170.910	588.487	-0.119	-0.293
-169.896	-94.635	-0.343	0.093
-168.881	-31.577	-0.248	0.140
-167.866	-200.000	0.004	-0.016
-166.852	232.495	0.110	-0.181
-165.837	-44.101	-0.101	-0.051
-164.823	261.564	0.059	0.102
-163.808	668.349	0.085	0.220
-162.793	83.345	-0.153	0.166
-161.779	78.478	-0.229	-0.245
-160.764	-60.524	0.160	-0.068
-159.750	-200.000	-0.037	0.205
-158.735	-65.031	-0.079	-0.032
-157.720	800.000	-0.052	0.183
-156.706	67.266	0.248	0.253
-155.691	-200.000	0.007	-0.201
-154.677	163.226	-0.071	-0.100
-153.662	800.000	0.125	-0.464
-152.647	-56.698	-0.077	0.034
-151.633	-140.231	-0.361	0.038
-150.618	800.000	0.018	-0.052
-149.604	-70.075	0.100	-0.038
-148.589	-81.565	0.136	-0.045
-147.574	472.500	-0.150	-0.337
-146.560	123.723	-0.114	-0.143
-145.545	-83.571	0.102	-0.033
-144.531	146.726	-0.239	0.321
-143.516	-21.411	-0.143	-0.087
-142.502	-72.176	-0.172	-0.064
-141.487	-47.958	0.068	0.033
-140.472	800.000	-0.044	0.183
-139.458	174.538	-0.066	-0.096
-138.443	-200.000	0.037	-0.194
-137.429	-52.661	-0.279	-0.129
-136.414	86.854	0.170	0.188
-135.399	169.427	-0.178	-0.254
-134.385	-21.305	0.064	-0.039
-133.370	129.391	0.147	0.187
-132.356	-200.000	0.000	0.011
-131.341	247.876	-0.234	-0.396
-130.326	-56.355	-0.092	-0.041
-129.312	-41.604	-0.271	-0.139
-128.297	21.783	0.067	-0.055
-127.283	-172.473	-0.282	0.009
-126.268	-172.016	0.073	0.002
-125.253	14.416	-0.207	-0.161
-124.239	-65.513	-0.218	0.087
-123.224	-146.468	0.200	0.017
-122.210	-90.587	0.076	-0.022
-121.195	-200.000	0.005	0.295
-120.180	271.495	0.078	0.138
-119.166	-9.130	0.159	0.106
-118.151	-73.160	-0.144	0.053
-117.137	-200.000	0.044	-0.275
-116.122	-77.208	0.187	0.065
-115.107	800.000	0.055	0.203
-114.093	-200.000	-0.003	0.086
-113.078	85.874	0.137	0.150
-112.064	544.168	-0.050	-0.119
-111.049	800.000	0.014	0.058
-110.034	-200.000	-0.017	-0.149
-109.020	166.292	0.156	-0.221
-108.005	293.400	-0.152	-0.278
-106.991	800.000	0.090	-0.373
-105.976	-95.094	-0.156	-0.042
-104.962	-13.704	-0.206	0.133
-103.947	-200.000	-0.005	-0.120
-102.932	-126.289	-0.468	-0.070
-101.918	679.700	0.054	0.140
-100.903	91.268	0.115	-0.129
-99.889	-88.868	0.214	-0.063
-98.874	-30.988	-0.159	0.090
-97.859	800.000	-0.056	0.216
-96.845	9.663	-0.233	0.176
-95.830	201.722	-0.060	-0.092
-94.816	53.123	0.112	-0.107
-93.801	14.531	0.232	-0.181
-92.786	41.193	0.227	-0.205
-91.772	51.547	-0.064	-0.061
-90.757	196.293	-0.217	0.329
-89.743	100.518	-0.318	0.368
-88.728	396.887	0.105	-0.220
-87.713	800.000	0.118	0.379
-86.699	43.607	-0.072	-0.066
-85.684	80.381	0.084	-0.090
-84.670	27.579	0.119	-0.100
-83.655	-200.000	0.013	0.254
-82.640	-200.000	-0.021	-0.199
-81.626	115.566	-0.119	-0.146
-80.611	70.399	-0.216	0.223
-79.597	-68.615	-0.038	0.015
-78.582	36.023	0.171	0.150
-77.567	-42.137	-0.218	0.111
-76.553	73.410	0.199	-0.207
-75.538	335.487	0.093	0.179
-74.524	304.179	-0.156	-0.288
-73.509	-118.408	0.207	-0.037
-72.494	-65.209	-0.334	0.134
-71.480	600.469	0.083	0.205
-70.465	800.000	0.053	0.224
-69.451	96.016	0.292	-0.333
-68.436	511.618	-0.037	0.086
-67.422	-80.873	-0.301	-0.099
-66.407	6.262	-0.156	0.115
-65.392	-52.706	0.296	0.136
-64.378	-192.451	0.236	-0.002
-63.363	-200.000	-0.003	0.191
-62.349	-104.489	0.005	0.001
-61.334	245.963	-0.545	-0.915
-60.319	-136.145	0.434	0.051
-59.305	-200.000	-0.181	-0.891
-58.290	187.184	0.339	0.503
-57.276	372.123	0.865	1.751
-56.261	-200.000	74.899	525.040
-55.246	551.799	1303.900	3118.758
-54.232	144.227	2560.048	3403.065
-53.217	111.418	2368.074	2844.132
-52.203	51.227	1980.958	1872.526
-51.188	45.136	1765.866	1620.990
-50.173	42.236	1718.613	1555.095
-49.159	56.831	1752.664	1700.136
-48.144	62.403	1771.183	1761.471
-47.130	44.949	1735.098	1591.029
-46.115	41.731	1721.005	1553.086
-45.100	41.644	1716.347	1548.148
-44.086	41.624	1713.724	1545.566
-43.071	41.560	1710.634	1542.222
-42.057	41.609	1708.009	1540.178
-41.042	41.547	1706.608	1538.373
-40.027	41.508	1704.459	1536.073
-39.013	41.499	1702.488	1534.166
-37.998	41.538	1700.985	1533.051
-36.984	41.605	1698.669	1531.416
-35.969	41.708	1697.342	1530.950
-34.954	41.728	1695.985	1529.817
-33.940	41.798	1693.829	1528.350
-32.925	41.748	1691.820	1526.094
-31.911	41.752	1690.613	1524.975
-30.896	41.676	1688.612	1522.533
-29.881	41.761	1686.303	1521.032
-28.867	41.741	1684.945	1519.599
-27.852	41.732	1683.503	1518.169
-26.838	41.678	1681.835	1516.197
-25.823	41.710	1680.793	1515.435
-24.809	41.790	1678.877	1514.254
-23.794	41.749	1677.082	1512.265
-22.779	41.688	1675.743	1510.536
-21.765	41.651	1674.422	1509.007
-20.750	41.760	1672.296	1507.854
-19.736	41.807	1670.943	1506.931
-18.721	41.798	1669.795	1505.769
-17.706	41.718	1668.079	1503.553
-16.692	41.686	1666.112	1501.482
-15.677	41.720	1664.919	1500.606
-14.663	41.753	1663.625	1499.629
-13.648	41.626	1662.409	1497.519
-12.633	41.696	1660.626	1496.376
-11.619	41.742	1658.763	1494.983
-10.604	41.702	1657.137	1493.155
-9.590	41.748	1655.905	1492.334
-8.575	41.683	1654.722	1490.720
-7.560	41.706	1653.530	1489.758
-6.546	41.774	1652.221	1489.030
-5.531	41.689	1650.937	1487.177
-4.517	41.716	1649.999	1486.477
-3.502	41.675	1648.687	1484.933
-2.487	41.722	1647.265	1483.943
-1.473	41.741	1636.444	1474.273
-0.458	39.727	1617.276	1442.246
0.556	34.301	1616.027	1407.819
1.571	31.440	1639.928	1407.019
2.586	30.232	1654.382	1410.122
3.600	26.091	1598.813	1332.141
4.615	13.707	1476.175	1144.880
5.629	2.521	1399.946	1012.074
6.644	0.449	1389.792	991.037
7.659	0.249	1388.421	988.661
8.673	0.160	1387.665	987.452
9.688	0.123	1385.505	985.586
10.702	-0.101	1382.748	982.072
11.717	3.744	1391.544	1013.488
12.731	15.021	1413.414	1104.104
13.746	22.853	1426.512	1166.176
14.761	23.575	1426.595	1170.910
15.775	23.757	1425.837	1171.385
16.790	23.752	1425.460	1170.935
17.804	23.751	1425.141	1170.567
18.819	24.016	1424.811	1171.936
19.834	24.127	1423.516	1171.496
20.848	24.005	1423.129	1170.269
21.863	24.081	1422.282	1169.973
22.877	24.046	1421.272	1168.805
23.892	24.059	1420.470	1168.132
24.907	24.010	1419.764	1167.128
25.921	24.113	1418.268	1166.468
26.936	23.983	1417.670	1165.022
27.950	24.033	1416.549	1164.322
28.965	24.079	1415.366	1163.548
29.980	24.136	1413.604	1162.366
30.994	24.063	1412.517	1160.897
32.009	23.992	1411.154	1159.212
33.023	24.098	1410.194	1159.011
34.038	24.024	1409.390	1157.765
35.053	23.986	1408.122	1156.372
36.067	24.015	1407.638	1156.062
37.082	24.063	1406.448	1155.293
38.096	24.127	1405.237	1154.615
39.111	23.979	1404.684	1153.096
40.126	24.079	1403.617	1152.766
41.140	24.113	1403.514	1152.798
42.155	24.013	1402.759	1151.429
43.169	24.106	1403.284	1152.365
44.184	24.007	1402.920	1151.322
45.199	23.996	1402.227	1150.580
46.213	24.062	1401.364	1150.194
47.228	24.009	1400.773	1149.268
48.242	24.128	1399.324	1148.742
49.257	23.993	1397.873	1146.583
50.271	24.094	1396.285	1145.826
51.286	24.062	1395.256	1144.675
52.301	24.087	1393.792	1143.532
53.315	23.909	1393.175	1141.785
54.330	24.038	1392.368	1141.846
55.344	24.052	1391.261	1140.929
56.359	23.999	1390.161	1139.588
57.374	23.995	1389.010	1138.518
58.388	24.013	1388.965	1138.491
59.403	23.980	1387.758	1137.192
60.417	24.060	1387.307	1137.235
61.432	24.053	1386.199	1136.184
62.447	24.028	1385.837	1135.626
63.461	24.023	1384.866	1134.697
64.476	24.006	1383.465	1133.338
65.490	24.016	1382.784	1132.745
66.505	24.082	1380.774	1131.420
67.520	24.071	1379.309	1130.049
68.534	24.073	1378.580	1129.364
69.549	23.961	1378.028	1128.100
70.563	24.163	1376.737	1128.224
71.578	24.052	1375.305	1126.244
72.593	24.067	1374.659	1125.715
73.607	24.117	1373.874	1125.285
74.622	24.107	1372.935	1124.357
75.636	24.054	1372.616	1123.657
76.651	24.054	1372.097	1123.138
77.666	24.049	1371.480	1122.501
78.680	24.075	1370.951	1122.134
79.695	24.017	1369.722	1120.663
80.709	24.113	1368.956	1120.537
81.724	24.069	1368.248	1119.585
82.739	23.986	1367.279	1118.172
83.753	24.143	1366.347	1118.297
84.768	23.986	1365.499	1116.515
85.782	24.010	1364.575	1115.814
86.797	24.011	1363.105	1114.516
87.812	24.057	1361.961	1113.769
88.826	24.132	1360.735	1113.143
89.841	24.010	1359.993	1111.670
90.855	24.067	1358.387	1110.617
91.870	24.088	1357.615	1110.019
92.884	24.137	1356.866	1109.612
93.899	24.111	1355.968	1108.619
94.914	24.140	1355.286	1108.144
95.928	24.147	1354.566	1107.500
96.943	24.098	1353.837	1106.503
97.957	24.129	1353.394	1106.235
98.972	24.117	1351.915	1104.851
99.987	24.093	1351.185	1104.007
101.001	24.034	1350.134	1102.688
102.016	24.017	1349.302	1101.802
103.030	24.076	1348.189	1101.161
104.045	24.094	1347.491	1100.607
105.060	24.002	1347.077	1099.602
106.074	24.149	1345.713	1099.298
107.089	24.124	1344.485	1098.049
108.103	24.171	1343.146	1097.141
109.118	24.171	1342.181	1096.256
110.133	24.159	1341.395	1095.445
111.147	24.156	1339.681	1093.931
112.162	24.151	1338.757	1093.049
113.176	24.149	1337.579	1091.979
114.191	24.257	1336.241	1091.453
115.206	24.205	1335.596	1090.511
116.220	24.168	1334.844	1089.574
117.235	24.174	1333.680	1088.565
118.249	24.189	1332.802	1087.843
119.264	24.132	1331.439	1086.288
120.279	24.245	1330.980	1086.504
121.293	24.212	1330.398	1085.732
122.308	24.212	1329.422	1084.839
123.322	24.297	1328.187	1084.250
124.337	24.127	1327.810	1082.813
125.352	24.249	1326.675	1082.534
126.366	24.248	1325.836	1081.746
127.381	24.243	1325.269	1081.162
128.395	24.296	1323.974	1080.328
129.410	24.263	1323.190	1079.395
130.424	24.249	1322.262	1078.455
131.439	24.366	1321.307	1078.291
132.454	24.214	1320.801	1076.860
133.468	24.188	1320.145	1076.073
134.483	24.231	1319.736	1075.905
135.497	24.292	1318.572	1075.227
136.512	24.219	1317.619	1073.918
137.527	24.235	1316.543	1073.042
138.541	24.273	1315.040	1071.952
139.556	24.205	1313.794	1070.429
140.570	24.206	1313.366	1069.992
141.585	24.279	1312.135	1069.335
142.600	24.305	1310.288	1067.891
143.614	24.216	1309.929	1066.967
144.629	24.162	1309.222	1065.979
145.643	24.156	1308.095	1064.930
146.658	24.212	1306.897	1064.196
147.673	24.191	1305.659	1062.967
148.687	24.172	1305.072	1062.278
149.702	24.159	1303.697	1060.993
150.716	24.242	1302.403	1060.339
151.731	24.208	1301.452	1059.268
152.746	24.156	1300.378	1057.990
153.760	24.184	1298.867	1056.832
154.775	24.371	1298.201	1057.306
155.789	24.262	1297.131	1055.696
156.804	24.267	1296.431	1055.062
157.819	24.113	1295.822	1053.560
158.833	24.263	1294.703	1053.444
159.848	24.298	1294.349	1053.274
160.862	24.228	1293.378	1051.973
161.877	24.313	1292.340	1051.538
162.892	24.262	1291.789	1050.695
163.906	24.274	1291.003	1050.035
164.921	24.354	1289.913	1049.529
165.935	24.242	1289.301	1048.277
166.950	24.238	1288.810	1047.760
167.964	24.330	1288.180	1047.697
168.979	24.286	1287.899	1047.119
169.994	24.247	1286.925	1046.004
171.008	24.327	1286.064	1045.680
172.023	24.276	1285.214	1044.599
173.037	24.289	1284.659	1044.128
174.052	24.369	1283.961	1043.937
175.067	24.403	1282.547	1042.894
176.081	24.315	1282.056	1041.890
177.096	24.206	1281.721	1040.888
178.110	24.308	1280.418	1040.333
179.125	24.308	1279.568	1039.551
180.140	24.393	1278.592	1039.164
181.154	24.350	1277.529	1037.954
182.169	24.351	1276.446	1036.990
183.183	24.381	1275.123	1036.000
184.198	24.259	1274.484	1034.679
185.213	24.372	1273.500	1034.444
186.227	24.257	1272.442	1032.828
187.242	24.437	1271.067	1032.659
188.256	24.392	1270.546	1031.885
189.271	24.333	1269.993	1031.002
190.286	24.330	1269.264	1030.305
191.300	24.333	1268.726	1029.796
192.315	24.394	1267.811	1029.311
193.329	24.369	1267.710	1028.994
194.344	24.403	1267.372	1028.822
195.359	24.337	1266.869	1027.945
196.373	24.300	1266.379	1027.245
197.388	24.356	1265.438	1026.711
198.402	24.273	1265.329	1026.054
199.417	24.411	1264.699	1026.244
200.432	24.387	1264.034	1025.478
201.446	24.446	1262.891	1024.799
202.461	24.461	1262.368	1024.369
203.475	24.355	1262.108	1023.460
204.490	24.424	1260.832	1022.729
205.504	24.428	1259.930	1021.930
206.519	24.469	1259.144	1021.439
207.534	24.488	1258.092	1020.603
208.548	24.470	1256.972	1019.498
209.563	24.433	1256.496	1018.811
210.577	24.509	1255.324	1018.209
211.592	24.498	1254.593	1017.458
212.607	24.461	1253.946	1016.636
213.621	24.423	1253.192	1015.719
214.636	24.604	1252.020	1015.708
215.650	24.580	1251.252	1014.856
216.665	24.567	1250.025	1013.701
217.680	24.573	1249.482	1013.203
218.694	24.567	1248.719	1012.461
219.709	24.627	1248.100	1012.210
220.723	24.510	1247.349	1010.849
221.738	24.504	1246.510	1010.044
222.753	24.486	1245.854	1009.319
223.767	24.527	1245.429	1009.119
224.782	24.645	1244.837	1009.215
225.796	24.671	1244.277	1008.820
226.811	24.618	1244.015	1008.220
227.826	24.651	1242.970	1007.471
228.840	24.669	1242.436	1007.049
229.855	24.662	1241.476	1006.142
230.869	24.620	1240.783	1005.257
231.884	24.591	1240.117	1004.464
232.899	24.496	1239.757	1003.551
233.913	24.628	1239.170	1003.730
234.928	24.795	1238.364	1003.924
235.942	24.719	1237.710	1002.879
236.957	24.772	1237.201	1002.674
237.972	24.667	1236.336	1001.296
238.986	24.610	1235.548	1000.247
240.001	24.596	1235.748	1000.242
241.015	24.760	1234.275	999.882
242.030	24.734	1233.323	998.873
243.045	24.875	1232.564	998.961
244.059	24.830	1231.981	998.147
245.074	24.754	1231.368	997.138
246.088	24.756	1230.469	996.333
247.103	24.779	1229.572	995.648
248.117	24.707	1228.996	994.692
249.132	24.810	1228.116	994.464
250.147	24.877	1227.396	994.165
251.161	24.819	1226.533	993.057
252.176	24.781	1226.096	992.403
253.190	24.945	1225.198	992.497
254.205	24.868	1224.366	991.309
255.220	24.816	1224.355	990.924
256.234	24.822	1223.801	990.425
257.249	24.848	1223.089	989.905
258.263	24.837	1222.258	989.082
259.278	24.917	1221.856	989.109
260.293	24.931	1221.116	988.501
261.307	24.853	1220.638	987.599
262.322	24.904	1219.582	986.939
263.336	25.025	1219.296	987.282
264.351	24.942	1218.857	986.386
265.366	24.913	1217.948	985.400
266.380	24.906	1217.576	984.976
267.395	24.916	1216.779	984.296
268.409	24.915	1216.004	983.580
269.424	25.048	1215.122	983.509
270.439	24.905	1215.383	982.849
271.453	25.027	1213.991	982.302
272.468	24.878	1213.636	981.112
273.482	24.921	1212.851	980.629
274.497	24.989	1212.338	980.496
275.512	24.960	1211.912	979.906
276.526	24.915	1211.170	978.975
277.541	24.924	1210.187	978.144
278.555	25.059	1209.597	978.315
279.570	24.918	1208.904	976.902
280.585	24.983	1207.975	976.417
281.599	25.054	1207.003	975.932
282.614	24.904	1206.767	974.837
283.628	25.038	1205.174	974.195
284.643	25.134	1204.529	974.107
285.657	25.019	1203.906	972.893
286.672	25.083	1202.642	972.135
287.687	25.105	1201.644	971.361
288.701	25.034	1201.749	970.973
289.716	25.220	1200.407	970.809
290.730	25.226	1199.877	970.328
291.745	25.138	1199.789	969.697
292.760	25.090	1199.010	968.720
293.774	25.167	1198.420	968.573
294.789	25.181	1197.887	968.132
295.803	25.194	1197.045	967.437
296.818	25.121	1196.732	966.707
297.833	25.248	1195.402	966.231
298.847	25.131	1195.127	965.289
299.862	25.165	1194.329	964.745
300.876	25.288	1193.564	964.704
301.891	25.218	1192.994	963.780
302.906	25.348	1192.090	963.662
303.920	25.320	1191.533	962.974
304.935	25.335	1190.916	962.474
305.949	25.316	1189.919	961.482
306.964	25.340	1189.512	961.195
307.979	25.291	1188.977	960.415
308.993	25.416	1188.374	960.510
310.008	25.407	1187.564	959.722
311.022	25.335	1186.961	958.765
312.037	25.356	1186.173	958.157
313.052	25.360	1185.099	957.224
314.066	25.287	1184.169	956.004
315.081	25.275	1183.643	955.427
316.095	25.402	1182.774	955.320
317.110	25.334	1182.267	954.463
318.125	25.419	1181.591	954.286
319.139	25.411	1181.029	953.705
320.154	25.459	1180.314	953.295
321.168	25.414	1179.854	952.600
322.183	25.429	1179.310	952.160
323.197	25.377	1179.150	951.666
324.212	25.361	1178.290	950.805
325.227	25.466	1177.815	950.892
326.241	25.483	1177.371	950.539
327.256	25.465	1176.271	949.472
328.270	25.443	1175.170	948.382
329.285	25.525	1174.841	948.465
330.300	25.460	1173.618	947.055
331.314	25.505	1172.652	946.431
332.329	25.549	1172.305	946.298
333.343	25.702	1171.029	945.984
334.358	25.588	1170.350	944.756
335.373	25.616	1169.729	944.320
336.387	25.766	1168.981	944.415
337.402	25.623	1168.729	943.383
338.416	25.695	1167.966	943.059
339.431	25.608	1167.535	942.169
340.446	25.677	1166.753	941.815
341.460	25.602	1166.273	940.954
342.475	25.710	1165.513	940.821
343.489	25.711	1164.628	940.029
344.504	25.669	1163.509	938.822
345.519	25.685	1162.456	937.974
346.533	25.690	1161.584	937.217
347.548	25.742	1161.133	937.037
348.562	25.730	1160.586	936.453
349.577	25.780	1159.532	935.778
350.592	25.733	1158.786	934.848
351.606	25.750	1158.147	934.342
352.621	25.775	1158.093	934.340
353.635	25.809	1156.757	933.357
354.650	25.783	1156.542	932.967
355.665	25.776	1155.999	932.412
356.679	25.838	1154.978	931.827
357.694	25.853	1154.475	931.416
358.708	25.890	1153.901	931.060
359.723	25.767	1153.223	929.797
360.738	25.746	1152.739	929.212
361.752	25.781	1152.009	928.724
362.767	25.858	1151.434	928.578
363.781	25.962	1150.760	928.484
364.796	25.955	1150.399	928.078
365.810	25.896	1149.841	927.239
366.825	25.884	1149.246	926.619
367.840	25.975	1148.191	926.153
368.854	26.094	1147.815	926.379
369.869	25.961	1147.073	925.015
370.883	26.020	1146.014	924.379
371.898	26.014	1145.408	923.781
372.913	26.019	1145.096	923.470
373.927	26.077	1144.717	923.381
374.942	26.192	1144.013	923.321
375.956	26.020	1143.704	922.109
376.971	26.079	1143.084	921.832
377.986	26.014	1142.598	921.024
379.000	25.990	1141.976	920.321
380.015	26.101	1141.163	920.145
381.029	26.282	1140.487	920.442
382.044	26.102	1140.048	919.092
383.059	26.081	1139.666	918.598
384.073	26.353	1138.285	918.782
385.088	26.140	1137.687	917.138
386.102	26.147	1137.065	916.590
387.117	26.130	1136.039	915.595
388.132	26.059	1135.351	914.600
389.146	26.111	1134.162	913.823
390.161	26.145	1133.816	913.636
391.175	26.140	1133.229	913.058
392.190	26.187	1132.254	912.428
393.205	26.237	1132.107	912.483
394.219	26.240	1131.166	911.659
395.234	26.247	1130.378	910.980
396.248	26.420	1128.841	910.533
397.263	26.238	1128.652	909.379
398.278	26.364	1127.843	909.284
399.292	26.454	1127.265	909.188
400.307	26.281	1127.180	908.168
401.321	26.417	1126.023	907.837
402.336	26.409	1125.413	907.226
403.350	26.234	1125.195	906.096
404.365	26.343	1124.152	905.720
405.380	26.341	1123.531	905.131
406.394	26.384	1122.561	904.482
407.409	26.483	1122.139	904.560
408.423	26.472	1121.308	903.754
409.438	26.548	1120.485	903.388
410.453	26.437	1119.773	902.183
411.467	26.482	1119.174	901.845
412.482	26.509	1118.733	901.545
413.496	26.528	1117.783	900.793
414.511	26.621	1116.813	900.392
415.526	26.573	1116.626	899.922
416.540	26.489	1116.486	899.315
417.555	26.554	1115.701	898.924
418.569	26.592	1115.196	898.625
419.584	26.514	1114.945	897.956
420.599	26.640	1114.316	897.995
421.613	83.042	1293.832	1354.986
422.628	78.037	1320.007	1355.101
