DTS Sentinel unit serial number:	SN413079Multiplexer serial number:	ORYXHardware model number:	OX4-SRSoftware version number:	ORYX F/W v4.00 Oryx Data Collector v3.7.2.0data status	okinstallation	princeton_trtdifferential loss correction	single-endedforward channel	channel 2reverse channel	N/Adate	2019/09/11time	19:01:11forward acquisition time	60.00reverse acquisition time	0.00gamma	496.2192k internal	0.2295k external	0.2295temperature offset calibration	1.0035default loss term (dB/km)	0.3790temperature slope calibration	1.0000multiplexer offset coefficient	1.0000multiplexer slope coefficient	1.0000fibre end	0.00T internal ref (°C)	42.23T ext. ref 1 (°C)	1.25T ext. ref 2 (°C)	34.45length (m)	temperature (°C)	Stokes	anti-Stokes-747.200	-200.000	-0.057	0.437
-746.185	-200.000	-0.081	0.498
-745.171	-200.000	-0.010	0.236
-744.156	-200.000	-0.051	0.400
-743.142	-122.248	-0.321	0.054
-742.127	-0.562	-0.185	0.134
-741.112	800.000	-0.069	-0.233
-740.098	205.431	-0.082	0.130
-739.083	6.305	0.321	-0.243
-738.069	350.580	0.005	0.011
-737.054	-134.745	0.062	-0.008
-736.039	255.729	0.202	0.355
-735.025	7.645	-0.104	-0.080
-734.010	-136.766	-0.100	-0.012
-732.996	51.861	0.116	0.113
-731.981	8.557	0.079	-0.061
-730.966	572.170	-0.045	-0.112
-729.952	78.302	0.121	0.132
-728.937	723.396	-0.083	0.225
-727.923	800.000	0.096	0.291
-726.908	65.448	0.147	0.152
-725.894	-12.882	-0.309	-0.206
-724.879	407.968	-0.147	-0.318
-723.864	11.604	-0.102	-0.080
-722.850	133.178	0.232	-0.306
-721.835	312.863	-0.105	0.201
-720.821	-92.368	0.263	-0.075
-719.806	-120.986	0.079	0.014
-718.791	69.028	0.128	0.134
-717.777	-200.000	0.002	0.258
-716.762	-127.335	0.265	0.039
-715.748	92.026	-0.031	0.036
-714.733	-200.000	0.001	-0.524
-713.718	-200.000	-0.013	-0.117
-712.704	800.000	0.015	0.047
-711.689	-134.602	0.117	-0.015
-710.675	786.546	-0.091	0.256
-709.660	-153.145	0.251	-0.018
-708.645	-200.000	0.005	-0.190
-707.631	800.000	0.147	-0.474
-706.616	334.935	-0.160	0.317
-705.602	800.000	-0.103	0.381
-704.587	-98.613	-0.053	0.014
-703.572	-200.000	0.056	0.443
-702.558	-200.000	0.018	-0.081
-701.543	-200.000	-0.004	-0.118
-700.529	556.442	0.105	-0.259
-699.514	-200.000	-0.023	-0.197
-698.499	211.921	-0.108	0.174
-697.485	-120.616	0.263	-0.045
-696.470	-11.503	-0.127	-0.085
-695.456	800.000	0.063	0.216
-694.441	-200.000	-0.004	0.164
-693.426	-13.851	0.214	-0.141
-692.412	-105.644	-0.164	0.038
-691.397	800.000	-0.116	0.367
-690.383	393.775	0.027	-0.057
-689.368	470.065	-0.172	-0.395
-688.354	-126.378	0.187	0.028
-687.339	-32.367	-0.155	0.088
-686.324	800.000	-0.026	0.114
-685.310	-20.445	0.008	-0.005
-684.295	203.865	-0.087	0.138
-683.281	-31.624	-0.229	0.131
-682.266	46.362	0.273	0.258
-681.251	-85.574	-0.144	0.046
-680.237	-129.267	-0.125	-0.018
-679.222	28.550	0.119	-0.103
-678.208	-45.455	0.149	-0.075
-677.193	-200.000	-0.031	-0.204
-676.178	-200.000	-0.004	0.230
-675.164	379.804	0.046	0.096
-674.149	-124.520	-0.151	0.024
-673.135	800.000	-0.105	0.450
-672.120	-122.555	-0.047	-0.008
-671.105	-61.129	-0.181	-0.078
-670.091	-92.350	0.106	-0.030
-669.076	-117.381	0.174	0.032
-668.062	-127.786	0.424	-0.062
-667.047	45.297	0.344	-0.323
-666.032	-126.078	-0.306	-0.047
-665.018	782.680	0.043	-0.119
-664.003	-167.394	0.036	0.001
-662.989	-40.960	0.105	-0.056
-661.974	-200.000	0.096	-0.496
-660.959	-200.000	0.040	0.181
-659.945	-68.014	-0.223	-0.089
-658.930	343.850	-0.128	0.255
-657.916	800.000	0.021	-0.092
-656.901	55.349	-0.070	0.069
-655.886	-200.000	-0.034	-0.167
-654.872	-7.377	0.239	0.165
-653.857	320.380	0.063	-0.121
-652.843	800.000	0.060	0.187
-651.828	10.340	0.305	0.237
-650.814	-172.507	-0.107	-0.003
-649.799	94.561	0.183	0.212
-648.784	8.662	0.091	-0.069
-647.770	213.974	0.104	0.168
-646.755	-108.050	0.444	-0.098
-645.741	800.000	0.022	-0.085
-644.726	-55.722	0.305	-0.139
-643.711	29.813	-0.076	0.066
-642.697	-69.187	-0.118	0.046
-641.682	-200.000	-0.022	0.195
-640.668	-200.000	0.002	0.117
-639.653	144.580	0.174	-0.237
-638.638	-74.061	-0.490	0.181
-637.624	390.121	-0.174	-0.367
-636.609	738.386	0.167	0.457
-635.595	207.580	0.041	0.066
-634.580	77.979	-0.073	0.080
-633.565	800.000	-0.111	-0.336
-632.551	-83.344	0.221	-0.072
-631.536	-29.882	0.273	-0.159
-630.522	800.000	0.124	-0.465
-629.507	800.000	0.006	0.024
-628.492	-78.569	-0.109	0.038
-627.478	-93.775	-0.317	0.089
-626.463	-60.426	0.102	0.044
-625.449	-16.582	0.165	0.106
-624.434	138.057	-0.109	-0.145
-623.419	203.852	-0.165	0.260
-622.405	-95.334	0.096	0.026
-621.390	-50.797	0.123	0.059
-620.376	-78.209	-0.147	-0.051
-619.361	32.506	0.146	-0.129
-618.346	-21.526	0.335	0.208
-617.332	-55.609	-0.182	0.083
-616.317	-0.896	-0.099	-0.071
-615.303	-35.286	-0.292	0.162
-614.288	323.718	-0.099	-0.192
-613.273	26.936	-0.133	-0.114
-612.259	169.012	0.119	0.172
-611.244	-182.748	-0.120	0.002
-610.230	-200.000	0.001	-0.352
-609.215	-36.721	0.097	0.053
-608.201	-153.599	0.165	-0.012
-607.186	313.082	0.075	-0.142
-606.171	387.089	-0.182	-0.383
-605.157	-200.000	-0.019	-0.336
-604.142	800.000	0.060	-0.185
-603.128	-200.000	-0.091	-0.000
-602.113	-200.000	-0.153	-0.001
-601.098	-6.579	0.228	-0.158
-600.084	-200.000	-0.040	0.468
-599.069	213.104	-0.087	0.139
-598.055	2.256	0.238	-0.175
-597.040	800.000	-0.086	0.261
-596.025	505.065	-0.057	-0.134
-595.011	-200.000	0.002	-0.046
-593.996	445.380	0.062	-0.139
-592.982	-39.388	-0.147	-0.079
-591.967	-19.694	0.138	0.087
-590.952	53.916	0.224	0.219
-589.938	290.910	-0.065	-0.120
-588.923	-200.000	-0.009	0.220
-587.909	114.971	-0.221	-0.275
-586.894	-56.278	-0.554	-0.250
-585.879	-75.641	-0.078	-0.028
-584.865	158.461	-0.174	0.246
-583.850	110.064	-0.084	0.102
-582.836	31.186	0.085	0.074
-581.821	-7.705	0.154	0.105
-580.806	302.177	0.068	0.128
-579.792	-91.326	-0.208	0.060
-578.777	-200.000	0.021	-0.109
-577.763	93.872	-0.088	-0.101
-576.748	-200.000	0.015	-0.231
-575.733	-72.519	-0.022	0.008
-574.719	662.177	0.046	0.120
-573.704	162.143	0.173	-0.246
-572.690	177.147	0.055	0.082
-571.675	409.463	-0.134	-0.289
-570.661	-62.539	-0.397	0.168
-569.646	475.107	0.038	0.088
-568.631	3.458	-0.221	0.163
-567.617	34.550	-0.219	-0.194
-566.602	-200.000	-0.001	-0.207
-565.588	-118.083	-0.151	-0.027
-564.573	800.000	0.054	-0.234
-563.558	145.085	-0.069	0.094
-562.544	-159.239	0.050	-0.003
-561.529	800.000	-0.052	0.153
-560.515	252.495	0.152	-0.263
-559.500	5.734	0.251	-0.189
-558.485	22.051	0.272	0.225
-557.471	-114.005	-0.262	0.052
-556.456	157.094	0.197	0.276
-555.442	-98.371	-0.229	-0.060
-554.427	249.476	0.101	-0.173
-553.412	-200.000	0.036	0.169
-552.398	24.938	0.169	0.142
-551.383	364.471	0.177	-0.361
-550.369	-200.000	-0.040	-0.270
-549.354	800.000	0.076	0.317
-548.339	-176.772	-0.367	0.009
-547.325	199.604	-0.121	-0.188
-546.310	106.633	-0.210	0.252
-545.296	-50.762	-0.348	-0.166
-544.281	16.144	0.149	-0.119
-543.266	97.204	0.219	-0.255
-542.252	54.539	-0.036	-0.035
-541.237	-109.926	0.244	0.052
-540.223	-31.999	-0.177	0.100
-539.208	800.000	0.084	-0.256
-538.193	96.787	0.195	-0.226
-537.179	-149.359	0.098	-0.008
-536.164	800.000	-0.084	0.237
-535.150	-153.621	0.152	0.011
-534.135	-20.135	0.358	0.224
-533.121	-200.000	0.037	0.260
-532.106	294.049	0.150	-0.278
-531.091	-200.000	-0.012	0.183
-530.077	302.912	0.079	0.149
-529.062	207.371	-0.090	-0.143
-528.048	26.419	-0.076	0.065
-527.033	227.447	-0.087	-0.144
-526.018	239.632	0.170	-0.287
-525.004	-200.000	-0.007	0.282
-523.989	123.164	-0.086	-0.109
-522.975	54.404	-0.185	0.180
-521.960	-20.213	-0.245	0.153
-520.945	-12.769	-0.169	0.112
-519.931	-139.706	-0.249	-0.027
-518.916	399.480	0.064	-0.136
-517.902	800.000	0.056	0.161
-516.887	-124.211	-0.075	0.012
-515.872	33.201	0.124	-0.109
-514.858	-85.492	0.111	0.035
-513.843	-200.000	0.008	0.369
-512.829	247.911	-0.126	-0.216
-511.814	-200.000	-0.036	0.274
-510.799	2.290	-0.168	-0.123
-509.785	61.966	-0.195	-0.197
-508.770	17.570	-0.168	-0.136
-507.756	-17.665	-0.023	-0.014
-506.741	800.000	-0.071	0.216
-505.726	-115.578	0.097	0.019
-504.712	764.636	0.081	0.222
-503.697	32.289	-0.336	0.294
-502.683	109.145	-0.167	-0.203
-501.668	-20.133	0.169	-0.106
-500.653	121.880	-0.088	-0.112
-499.639	28.032	0.185	-0.158
-498.624	87.826	0.072	0.081
-497.610	129.707	-0.122	-0.157
-496.595	-26.997	-0.240	-0.142
-495.581	-91.770	0.186	0.053
-494.566	3.476	0.070	-0.052
-493.551	-53.398	-0.151	0.070
-492.537	-124.820	0.054	-0.008
-491.522	431.289	-0.095	-0.209
-490.508	710.653	0.118	-0.316
-489.493	-8.618	-0.147	-0.100
-488.478	-66.408	-0.601	0.242
-487.464	-129.261	0.244	-0.034
-486.449	-1.311	-0.376	0.269
-485.435	26.872	-0.198	-0.168
-484.420	-143.500	-0.222	0.021
-483.405	250.740	-0.246	-0.423
-482.391	156.481	0.127	-0.177
-481.376	-57.404	-0.066	0.029
-480.362	159.169	0.134	0.188
-479.347	93.212	0.020	-0.023
-478.332	-200.000	0.018	-0.217
-477.318	-200.000	0.006	-0.307
-476.303	-34.879	0.070	-0.038
-475.289	30.396	0.071	-0.062
-474.274	800.000	0.116	0.392
-473.259	90.478	0.234	0.265
-472.245	800.000	0.004	-0.017
-471.230	504.700	-0.081	-0.189
-470.216	-97.808	0.215	-0.056
-469.201	800.000	-0.021	-0.084
-468.186	-200.000	-0.004	-0.079
-467.172	30.013	-0.231	-0.199
-466.157	118.911	-0.135	-0.168
-465.143	99.785	0.128	0.150
-464.128	374.030	-0.176	0.362
-463.113	314.434	-0.210	0.400
-462.099	-113.820	-0.171	-0.034
-461.084	-155.748	-0.133	0.009
-460.070	32.776	0.189	-0.165
-459.055	190.507	-0.259	0.394
-458.040	-200.000	0.001	-0.047
-457.026	800.000	-0.070	-0.276
-456.011	400.307	0.129	-0.274
-454.997	161.453	0.117	0.166
-453.982	800.000	0.033	0.116
-452.968	-87.839	-0.128	-0.039
-451.953	-185.951	-0.360	-0.005
-450.938	-194.854	-0.302	0.002
-449.924	274.891	0.166	-0.297
-448.909	800.000	0.118	-0.416
-447.895	255.936	0.115	0.200
-446.880	-87.580	-0.402	-0.123
-445.865	201.198	0.285	0.443
-444.851	-200.000	0.179	0.000
-443.836	800.000	-0.015	-0.063
-442.822	-200.000	0.018	0.095
-441.807	-200.000	0.038	0.426
-440.792	96.480	-0.099	-0.115
-439.778	76.720	0.157	-0.168
-438.763	-98.818	0.087	0.022
-437.749	800.000	0.084	-0.355
-436.734	203.381	0.103	-0.160
-435.719	79.272	0.057	-0.062
-434.705	-18.629	-0.102	0.064
-433.690	18.493	0.242	-0.196
-432.676	311.546	0.201	0.380
-431.661	219.322	-0.018	-0.029
-430.646	166.369	-0.019	-0.027
-429.632	-200.000	0.038	0.243
-428.617	-145.947	0.282	0.025
-427.603	-35.207	0.045	0.025
-426.588	717.010	-0.058	-0.156
-425.573	156.617	-0.123	-0.171
-424.559	10.803	0.208	-0.160
-423.544	800.000	0.021	-0.078
-422.530	-65.776	0.590	0.239
-421.515	243.151	0.180	-0.304
-420.500	-57.109	-0.019	-0.009
-419.486	80.130	0.097	-0.105
-418.471	-133.186	0.157	-0.020
-417.457	152.454	0.178	0.246
-416.442	105.729	0.208	0.248
-415.428	69.499	0.088	0.092
-414.413	-200.000	-0.058	0.315
-413.398	34.476	0.129	0.114
-412.384	148.741	-0.090	0.123
-411.369	368.203	-0.063	0.128
-410.355	-200.000	0.345	0.000
-409.340	-200.000	0.008	0.127
-408.325	-200.000	-0.053	-0.376
-407.311	-200.000	0.041	-0.212
-406.296	-63.667	-0.161	0.067
-405.282	129.947	-0.023	-0.030
-404.267	-174.463	0.282	-0.008
-403.252	-200.000	0.016	0.130
-402.238	-200.000	0.046	-0.364
-401.223	-200.000	-0.026	0.234
-400.209	259.405	0.057	-0.099
-399.194	-200.000	-0.006	0.138
-398.179	-142.540	-0.217	-0.022
-397.165	-200.000	0.000	-0.036
-396.150	800.000	0.037	-0.141
-395.136	-200.000	-0.032	-0.199
-394.121	800.000	-0.039	0.131
-393.106	274.695	-0.222	0.396
-392.092	800.000	0.072	0.223
-391.077	800.000	0.079	-0.221
-390.063	800.000	0.121	-0.406
-389.048	-172.584	0.176	0.006
-388.033	-51.591	-0.214	-0.101
-387.019	33.671	-0.073	-0.064
-386.004	-200.000	-0.009	0.255
-384.990	-46.932	0.169	0.083
-383.975	-200.000	0.018	-0.147
-382.960	-30.307	0.352	-0.201
-381.946	-65.395	-0.307	-0.124
-380.931	-69.789	-0.034	0.013
-379.917	-79.932	-0.224	-0.076
-378.902	-197.051	0.336	0.002
-377.888	30.080	-0.118	-0.101
-376.873	-147.651	-0.295	-0.025
-375.858	59.710	-0.068	0.067
-374.844	-38.984	-0.058	0.031
-373.829	45.757	-0.371	0.345
-372.815	333.251	0.165	0.320
-371.800	152.382	-0.118	0.163
-370.785	-103.621	-0.469	-0.111
-369.771	-200.000	0.016	-0.156
-368.756	131.093	0.086	0.111
-367.742	619.510	-0.043	-0.109
-366.727	499.295	0.147	0.341
-365.712	597.394	0.056	0.140
-364.698	-200.000	-0.148	-0.001
-363.683	-200.000	0.007	0.274
-362.669	130.244	-0.051	0.066
-361.654	-36.560	0.310	0.168
-360.639	216.148	0.218	-0.349
-359.625	443.054	0.199	-0.439
-358.610	-200.000	0.073	-0.407
-357.596	91.469	0.124	-0.140
-356.581	314.435	0.153	0.290
-355.566	-69.192	0.092	-0.035
-354.552	-65.136	0.234	-0.095
-353.537	-138.434	0.190	-0.021
-352.523	562.166	0.103	-0.250
-351.508	-200.000	-0.002	0.106
-350.493	111.892	0.250	-0.304
-349.479	-112.143	-0.166	-0.034
-348.464	23.520	0.267	-0.221
-347.450	31.475	-0.087	-0.075
-346.435	234.209	0.231	0.383
-345.420	200.456	0.122	0.189
-344.406	335.992	0.071	-0.138
-343.391	-29.100	0.241	0.139
-342.377	800.000	-0.072	0.252
-341.362	103.978	-0.084	0.099
-340.348	-122.182	-0.183	0.030
-339.333	12.702	0.307	0.239
-338.318	800.000	0.071	0.207
-337.304	303.608	0.174	-0.324
-336.289	-42.266	-0.492	-0.253
-335.275	536.833	0.156	0.373
-334.260	546.556	-0.159	0.384
-333.245	-63.774	-0.359	-0.148
-332.231	132.226	-0.095	0.123
-331.216	-143.393	0.288	0.028
-330.202	-119.668	-0.037	0.006
-329.187	-25.019	0.149	0.089
-328.172	162.085	-0.094	0.132
-327.158	104.978	-0.047	-0.056
-326.143	614.650	-0.037	0.094
-325.129	800.000	0.005	0.014
-324.114	104.831	0.099	0.117
-323.099	-50.233	0.309	0.147
-322.085	557.621	-0.104	-0.252
-321.070	69.463	-0.116	0.120
-320.056	175.251	-0.209	0.304
-319.041	800.000	-0.010	0.031
-318.026	117.456	-0.289	0.357
-317.012	502.962	0.187	0.434
-315.997	-85.698	0.233	0.073
-314.983	-159.560	0.239	0.013
-313.968	-5.046	0.259	0.179
-312.953	6.067	0.234	-0.174
-311.939	-200.000	0.013	-0.310
-310.924	317.606	0.159	0.302
-309.910	-62.422	-0.125	-0.052
-308.895	127.112	-0.233	-0.297
-307.880	-200.000	0.059	0.369
-306.866	131.924	0.071	-0.092
-305.851	358.473	-0.177	-0.355
-304.837	-200.000	0.260	0.001
-303.822	96.877	-0.124	-0.143
-302.807	32.777	0.162	0.141
-301.793	51.038	0.051	-0.048
-300.778	125.168	-0.192	-0.244
-299.764	-106.092	-0.129	-0.029
-298.749	-200.000	0.088	-0.438
-297.735	-200.000	0.011	-0.224
-296.720	173.771	-0.087	-0.126
-295.705	-147.229	0.220	0.019
-294.691	62.280	-0.213	-0.214
-293.676	423.866	0.160	0.345
-292.662	-127.592	-0.206	-0.030
-291.647	-200.000	-0.036	0.324
-290.632	723.329	0.107	0.286
-289.618	79.031	-0.028	0.030
-288.603	355.728	0.088	-0.176
-287.589	-170.673	-0.087	-0.003
-286.574	111.335	0.141	0.171
-285.559	-200.000	-0.015	-0.233
-284.545	129.381	0.144	-0.184
-283.530	-59.026	0.217	0.094
-282.516	160.513	0.059	0.082
-281.501	116.587	-0.223	0.275
-280.486	800.000	0.099	-0.380
-279.472	-200.000	-0.019	-0.097
-278.457	46.989	0.070	0.066
-277.443	800.000	0.125	0.361
-276.428	-48.675	0.077	0.037
-275.413	-200.000	-0.001	0.059
-274.399	-200.000	-0.066	0.380
-273.384	800.000	0.037	0.103
-272.370	366.747	0.024	0.049
-271.355	15.517	-0.263	0.207
-270.340	81.487	-0.107	0.116
-269.326	108.189	0.083	0.099
-268.311	-29.764	-0.149	-0.085
-267.297	-117.912	-0.251	0.045
-266.282	-24.939	0.127	0.076
-265.267	625.007	-0.062	0.156
-264.253	-50.183	-0.233	-0.111
-263.238	6.781	0.329	-0.246
-262.224	-173.895	-0.141	-0.004
-261.209	328.606	-0.190	-0.366
-260.195	3.540	-0.127	0.093
-259.180	3.607	-0.135	-0.099
-258.165	-50.755	-0.380	0.179
-257.151	41.752	0.061	-0.055
-256.136	-24.742	-0.131	0.078
-255.122	165.222	-0.092	-0.131
-254.107	-122.237	0.240	0.039
-253.092	376.138	-0.108	0.222
-252.078	121.669	0.112	0.140
-251.063	-89.848	-0.262	-0.077
-250.049	80.793	0.112	0.121
-249.034	416.190	-0.048	-0.104
-248.019	-181.872	-0.162	0.003
-247.005	-55.684	0.137	0.061
-245.990	283.786	-0.229	0.412
-244.976	100.087	0.218	0.253
-243.961	800.000	0.110	-0.304
-242.946	-52.929	0.050	0.023
-241.932	780.120	0.018	0.049
-240.917	355.910	-0.186	-0.371
-239.903	251.790	0.018	-0.030
-238.888	-200.000	0.037	-0.298
-237.873	572.919	0.194	-0.473
-236.859	-138.048	0.113	0.013
-235.844	-49.491	-0.351	-0.168
-234.830	68.956	-0.137	0.141
-233.815	-200.000	-0.046	-0.255
-232.800	-65.705	-0.193	-0.078
-231.786	74.347	0.145	0.153
-230.771	-135.804	-0.091	-0.011
-229.757	235.714	0.176	-0.292
-228.742	-42.341	0.196	0.100
-227.727	447.041	-0.080	-0.176
-226.713	91.035	-0.169	-0.190
-225.698	800.000	0.080	0.335
-224.684	-25.536	-0.120	0.071
-223.669	87.963	0.089	0.099
-222.655	206.760	-0.162	0.252
-221.640	308.078	0.087	0.162
-220.625	-111.853	-0.334	-0.068
-219.611	-150.782	0.098	-0.007
-218.596	-200.000	-0.004	0.304
-217.582	-83.663	0.145	0.046
-216.567	-104.583	-0.269	-0.062
-215.552	309.189	0.083	0.155
-214.538	123.864	-0.124	-0.156
-213.523	-34.584	0.149	0.082
-212.509	800.000	0.096	-0.305
-211.494	220.250	0.217	-0.348
-210.479	-8.708	0.071	0.048
-209.465	-22.060	-0.230	0.140
-208.450	233.127	-0.084	0.139
-207.436	85.193	0.226	0.248
-206.421	-123.058	-0.190	0.031
-205.406	144.442	0.279	-0.373
-204.392	130.187	0.135	0.173
-203.377	26.107	-0.159	0.133
-202.363	132.151	0.147	0.189
-201.348	-158.489	0.092	-0.005
-200.333	196.392	0.115	-0.175
-199.319	75.506	0.086	-0.091
-198.304	800.000	0.025	-0.103
-197.290	800.000	-0.115	0.432
-196.275	174.395	0.182	0.263
-195.260	800.000	-0.108	0.461
-194.246	-42.618	-0.182	0.093
-193.231	-200.000	0.019	-0.162
-192.217	-84.483	0.432	0.136
-191.202	22.601	-0.113	0.093
-190.187	-20.707	0.208	0.127
-189.173	-119.573	-0.106	0.018
-188.158	4.581	0.162	-0.119
-187.144	84.147	-0.113	-0.123
-186.129	107.720	-0.148	-0.177
-185.114	-36.661	-0.170	0.092
-184.100	209.320	0.189	0.296
-183.085	203.013	0.043	0.067
-182.071	-35.421	-0.181	-0.099
-181.056	-45.971	0.122	-0.060
-180.042	-22.515	0.101	-0.061
-179.027	800.000	-0.097	0.270
-178.012	-200.000	-0.070	0.362
-176.998	513.055	-0.129	-0.301
-175.983	-134.115	0.218	-0.027
-174.969	-86.036	-0.260	0.080
-173.954	180.936	0.205	0.301
-172.939	31.832	-0.132	0.113
-171.925	-200.000	-0.045	-0.303
-170.910	-120.209	-0.248	-0.042
-169.896	4.074	-0.048	-0.035
-168.881	-18.895	-0.288	0.179
-167.866	101.631	-0.061	-0.071
-166.852	-48.310	-0.174	0.084
-165.837	22.207	0.053	0.043
-164.823	172.363	0.205	-0.295
-163.808	-200.000	0.012	-0.221
-162.793	-200.000	-0.057	-0.375
-161.779	-9.918	0.294	-0.195
-160.764	-200.000	-0.016	-0.167
-159.750	163.859	0.131	-0.184
-158.735	-138.437	-0.307	0.034
-157.720	178.795	0.022	0.033
-156.706	117.400	0.178	-0.218
-155.691	-145.344	-0.380	-0.034
-154.677	-12.771	0.171	-0.111
-153.662	-62.913	-0.331	0.137
-152.647	427.871	0.014	-0.031
-151.633	-82.196	0.355	0.115
-150.618	-57.327	0.135	-0.059
-149.604	-99.355	0.294	0.074
-148.589	159.043	-0.048	0.067
-147.574	-186.784	0.304	0.004
-146.560	324.214	-0.167	-0.318
-145.545	-158.011	0.100	0.006
-144.531	-148.393	-0.230	-0.019
-143.516	78.230	0.161	0.171
-142.502	682.373	0.066	-0.173
-141.487	-200.000	0.009	0.141
-140.472	-184.939	0.151	-0.002
-139.458	-200.000	-0.045	0.209
-138.443	-96.765	0.053	-0.014
-137.429	30.140	-0.090	-0.077
-136.414	92.183	0.089	0.100
-135.399	800.000	0.118	0.361
-134.385	-107.679	-0.361	0.079
-133.370	405.273	-0.169	0.355
-132.356	269.759	0.272	-0.477
-131.341	-200.000	-0.031	-0.202
-130.326	-163.140	0.244	-0.012
-129.312	83.478	-0.159	-0.173
-128.297	56.746	0.106	-0.103
-127.283	-200.000	0.051	0.232
-126.268	80.492	0.086	0.093
-125.253	501.761	0.037	-0.085
-124.239	196.069	-0.119	-0.181
-123.224	800.000	0.056	-0.157
-122.210	-73.330	-0.189	0.069
-121.195	-62.587	-0.068	-0.028
-120.180	217.815	0.132	0.210
-119.166	197.286	0.145	-0.220
-118.151	527.801	-0.064	-0.149
-117.137	30.451	-0.073	0.062
-116.122	-121.307	0.206	-0.034
-115.107	-200.000	-0.064	0.394
-114.093	-200.000	-0.016	-0.110
-113.078	-158.391	-0.366	0.021
-112.064	208.103	0.244	0.380
-111.049	-123.133	-0.209	0.033
-110.034	800.000	-0.138	-0.449
-109.020	800.000	0.006	-0.023
-108.005	-200.000	-0.014	0.082
-106.991	735.932	0.102	0.274
-105.976	539.301	0.153	0.362
-104.962	-74.060	-0.208	0.075
-103.947	64.163	-0.161	-0.161
-102.932	36.779	0.275	-0.243
-101.918	-200.000	0.003	-0.199
-100.903	-38.471	-0.096	-0.050
-99.889	86.637	0.172	0.189
-98.874	-12.969	-0.250	0.162
-97.859	95.945	0.067	0.076
-96.845	154.716	0.162	-0.222
-95.830	133.626	-0.295	-0.381
-94.816	24.536	0.180	0.148
-93.801	95.784	0.165	-0.187
-92.786	-200.000	0.013	-0.155
-91.772	800.000	0.027	0.105
-90.757	-139.997	0.211	-0.022
-89.743	155.478	-0.185	-0.254
-88.728	-200.000	0.036	-0.312
-87.713	70.099	-0.175	-0.180
-86.699	-58.123	-0.213	-0.093
-85.684	219.457	-0.036	-0.057
-84.670	-107.876	0.083	-0.018
-83.655	668.527	-0.040	0.102
-82.640	165.945	-0.164	-0.232
-81.626	387.542	-0.122	-0.252
-80.611	64.010	-0.108	0.108
-79.597	-200.000	-0.030	-0.228
-78.582	370.112	-0.225	0.453
-77.567	191.449	-0.183	0.274
-76.553	-6.088	0.182	0.124
-75.538	311.998	0.087	0.162
-74.524	-138.621	0.295	-0.032
-73.509	-200.000	0.039	0.179
-72.494	-4.798	0.199	0.137
-71.480	555.414	-0.024	-0.056
-70.465	647.242	-0.080	0.204
-69.451	-200.000	-0.037	-0.264
-68.436	-15.647	0.102	-0.065
-67.422	-123.922	0.303	-0.047
-66.407	277.356	-0.038	0.067
-65.392	-117.079	0.421	0.076
-64.378	-200.000	-0.021	0.286
-63.363	800.000	-0.027	0.080
-62.349	82.688	0.073	-0.078
-61.334	-53.557	-0.856	-0.390
-60.319	284.279	-0.034	-0.062
-59.305	-200.000	-0.190	-0.933
-58.290	409.771	0.391	0.824
-57.276	565.803	0.703	1.696
-56.261	-200.000	76.141	524.514
-55.246	553.215	1313.713	3141.773
-54.232	146.874	2546.068	3405.930
-53.217	114.866	2334.452	2832.750
-52.203	52.009	1954.973	1852.601
-51.188	45.635	1747.500	1606.157
-50.173	42.708	1702.852	1542.645
-49.159	57.657	1736.938	1689.227
-48.144	63.483	1754.622	1751.234
-47.130	45.505	1719.170	1578.866
-46.115	42.245	1705.467	1541.210
-45.100	42.113	1701.227	1536.308
-44.086	42.139	1698.334	1533.829
-43.071	42.166	1695.812	1531.697
-42.057	42.064	1693.588	1528.855
-41.042	42.167	1690.933	1527.177
-40.027	42.089	1689.551	1525.276
-39.013	42.135	1687.218	1523.459
-37.998	42.107	1685.412	1521.556
-36.984	42.144	1684.191	1520.677
-35.969	42.230	1682.599	1519.830
-34.954	42.255	1681.012	1518.520
-33.940	42.238	1678.509	1516.073
-32.925	42.248	1676.939	1514.675
-31.911	42.196	1675.573	1512.984
-30.896	42.215	1673.616	1511.303
-29.881	42.192	1671.901	1509.520
-28.867	42.170	1670.145	1507.705
-27.852	42.187	1668.946	1506.695
-26.838	42.204	1667.188	1505.173
-25.823	42.237	1665.853	1504.156
-24.809	42.296	1664.097	1502.955
-23.794	42.241	1662.978	1501.473
-22.779	42.250	1661.504	1500.151
-21.765	42.240	1659.944	1498.607
-20.750	42.217	1658.540	1497.108
-19.736	42.327	1656.858	1496.353
-18.721	42.371	1655.289	1495.201
-17.706	42.319	1653.479	1493.118
-16.692	42.270	1652.233	1491.569
-15.677	42.238	1650.781	1489.967
-14.663	42.264	1648.976	1488.470
-13.648	42.321	1647.695	1487.673
-12.633	42.231	1646.520	1485.891
-11.619	42.274	1644.378	1484.215
-10.604	42.217	1643.343	1482.798
-9.590	42.299	1641.871	1482.020
-8.575	42.232	1640.852	1480.543
-7.560	42.294	1639.549	1479.771
-6.546	42.278	1638.357	1478.515
-5.531	42.299	1637.048	1477.431
-4.517	42.214	1635.881	1475.696
-3.502	42.209	1634.819	1474.637
-2.487	42.286	1633.063	1473.561
-1.473	41.868	1620.915	1459.492
-0.458	38.323	1598.705	1413.862
0.556	32.959	1595.489	1369.390
1.571	29.724	1618.878	1365.493
2.586	28.847	1633.550	1371.206
3.600	25.551	1579.904	1302.234
4.615	14.230	1461.866	1128.514
5.629	3.444	1388.284	1001.833
6.644	1.346	1377.809	980.650
7.659	1.270	1375.929	978.732
8.673	1.185	1374.868	977.342
9.688	1.179	1373.122	975.977
10.702	0.923	1370.905	972.669
11.717	4.617	1378.117	1001.530
12.731	15.213	1398.833	1085.457
13.746	23.370	1413.083	1149.572
14.761	25.020	1414.490	1161.318
15.775	25.182	1414.511	1162.281
16.790	25.270	1413.194	1161.668
17.804	25.375	1412.480	1161.652
18.819	25.491	1413.039	1162.761
19.834	25.675	1411.895	1162.908
20.848	25.586	1411.356	1161.784
21.863	25.695	1410.000	1161.271
22.877	25.606	1409.258	1159.985
23.892	25.598	1408.867	1159.504
24.907	25.590	1407.857	1158.520
25.921	25.580	1406.846	1157.519
26.936	25.535	1406.107	1156.519
27.950	25.554	1404.723	1155.404
28.965	25.701	1402.693	1154.572
29.980	25.618	1401.652	1153.085
30.994	25.587	1400.987	1152.235
32.009	25.608	1400.215	1151.633
33.023	25.543	1398.426	1149.645
34.038	25.660	1397.404	1149.450
35.053	25.651	1396.144	1148.255
36.067	25.587	1395.082	1146.871
37.082	25.518	1394.436	1145.800
38.096	25.653	1393.167	1145.516
39.111	25.643	1392.655	1144.929
40.126	25.564	1392.006	1143.795
41.140	25.590	1391.452	1143.399
42.155	25.542	1391.117	1142.718
43.169	25.650	1390.967	1143.179
44.184	25.447	1391.441	1142.178
45.199	25.581	1390.730	1142.343
46.213	25.629	1389.856	1141.828
47.228	25.594	1388.790	1140.632
48.242	25.550	1387.854	1139.485
49.257	25.618	1386.000	1138.289
50.271	25.575	1384.444	1136.639
51.286	25.629	1383.408	1136.028
52.301	25.532	1382.405	1134.497
53.315	25.538	1381.392	1133.604
54.330	25.553	1380.482	1132.848
55.344	25.566	1379.145	1131.732
56.359	25.618	1378.048	1131.057
57.374	25.535	1377.463	1129.957
58.388	25.547	1376.745	1129.345
59.403	25.568	1376.465	1129.149
60.417	25.617	1375.569	1128.619
61.432	25.613	1374.727	1127.804
62.447	25.508	1374.084	1126.517
63.461	25.510	1373.264	1125.759
64.476	25.468	1372.405	1124.693
65.490	25.620	1370.780	1124.209
66.505	25.666	1369.003	1122.942
67.520	25.607	1367.828	1121.510
68.534	25.550	1367.130	1120.481
69.549	25.576	1366.028	1119.639
70.563	25.676	1364.991	1119.317
71.578	25.556	1364.022	1117.675
72.593	25.688	1363.577	1118.032
73.607	25.657	1362.300	1116.694
74.622	25.605	1361.786	1115.852
75.636	25.597	1361.493	1115.464
76.651	25.654	1360.006	1114.500
77.666	25.644	1359.900	1114.248
78.680	25.607	1359.246	1113.390
79.695	25.588	1358.544	1112.598
80.709	25.574	1357.744	1111.757
81.724	25.543	1356.778	1110.673
82.739	25.561	1356.045	1110.087
83.753	25.520	1355.358	1109.172
84.768	25.596	1353.582	1108.094
85.782	25.586	1352.983	1107.442
86.797	25.728	1351.146	1106.715
87.812	25.596	1350.561	1105.323
88.826	25.592	1349.737	1104.531
89.841	25.655	1348.280	1103.622
90.855	25.681	1347.340	1102.917
91.870	25.557	1346.824	1101.640
92.884	25.633	1346.049	1101.374
93.899	25.532	1345.330	1100.067
94.914	25.701	1343.905	1099.837
95.928	25.645	1343.347	1098.942
96.943	25.557	1343.122	1098.124
97.957	25.586	1342.029	1097.312
98.972	25.678	1340.923	1096.870
99.987	25.677	1339.730	1095.787
101.001	25.562	1339.164	1094.528
102.016	25.558	1338.279	1093.687
103.030	25.629	1337.144	1093.092
104.045	25.722	1336.470	1093.009
105.060	25.678	1335.679	1091.997
106.074	25.669	1334.535	1090.912
107.089	25.660	1333.836	1090.191
108.103	25.667	1332.279	1088.861
109.118	25.665	1331.529	1088.142
110.133	25.744	1330.009	1087.279
111.147	25.722	1328.978	1086.211
112.162	25.702	1327.750	1084.986
113.176	25.713	1326.636	1084.048
114.191	25.709	1326.011	1083.419
115.206	25.728	1324.662	1082.336
116.220	25.670	1324.289	1081.586
117.235	25.676	1323.336	1080.747
118.249	25.692	1322.295	1079.894
119.264	25.672	1320.929	1078.567
120.279	25.752	1319.997	1078.187
121.293	25.783	1319.670	1078.011
122.308	25.850	1318.649	1077.484
123.322	25.766	1318.111	1076.446
124.337	25.828	1317.012	1075.826
125.352	25.716	1316.950	1075.005
126.366	25.803	1315.386	1074.157
127.381	25.858	1314.020	1073.272
128.395	25.724	1314.260	1072.578
129.410	25.634	1313.379	1071.226
130.424	25.764	1312.037	1070.807
131.439	25.780	1311.273	1070.186
132.454	25.749	1310.450	1069.235
133.468	25.755	1309.412	1068.332
134.483	25.749	1309.258	1068.077
135.497	25.817	1308.595	1067.843
136.512	25.728	1307.762	1066.543
137.527	25.763	1306.387	1065.534
138.541	25.815	1304.627	1064.309
139.556	25.846	1303.633	1063.589
140.570	25.708	1303.162	1062.297
141.585	25.754	1301.983	1061.510
142.600	25.771	1300.672	1060.450
143.614	25.804	1299.871	1059.899
144.629	25.882	1298.614	1059.233
145.643	25.702	1297.788	1057.411
146.658	25.751	1296.866	1056.854
147.673	25.699	1295.589	1055.415
148.687	25.749	1294.442	1054.677
149.702	25.684	1293.661	1053.568
150.716	25.647	1292.445	1052.270
151.731	25.775	1291.501	1052.156
152.746	25.725	1290.507	1050.959
153.760	25.808	1289.512	1050.544
154.775	25.765	1288.902	1049.699
155.789	25.627	1288.083	1048.137
156.804	25.690	1286.660	1047.250
157.819	25.806	1285.472	1046.867
158.833	25.759	1284.745	1045.907
159.848	25.735	1284.659	1045.609
160.862	25.766	1283.811	1045.006
161.877	25.778	1282.685	1044.066
162.892	25.877	1281.802	1043.828
163.906	25.784	1281.424	1042.888
164.921	25.841	1280.366	1042.264
165.935	25.754	1279.785	1041.198
166.950	25.850	1278.666	1040.748
167.964	25.845	1278.053	1040.131
168.979	25.957	1277.402	1040.151
169.994	26.030	1276.875	1040.054
171.008	25.898	1276.317	1038.744
172.023	25.897	1275.906	1038.317
173.037	25.920	1275.231	1037.806
174.052	25.785	1274.499	1036.342
175.067	25.756	1273.361	1035.160
176.081	25.901	1272.196	1034.949
177.096	25.858	1271.710	1034.217
178.110	25.804	1270.999	1033.236
179.125	25.931	1269.840	1032.935
180.140	25.916	1269.002	1032.073
181.154	25.909	1267.333	1030.587
182.169	25.814	1266.301	1029.112
183.183	25.900	1265.280	1028.684
184.198	25.875	1264.711	1027.988
185.213	25.945	1263.491	1027.304
186.227	25.899	1262.660	1026.271
187.242	25.975	1261.735	1025.863
188.256	25.996	1261.020	1025.309
189.271	25.921	1260.550	1024.409
190.286	25.997	1259.342	1023.773
191.300	25.892	1258.629	1022.505
192.315	25.869	1258.551	1022.220
193.329	25.910	1258.121	1022.013
194.344	26.009	1257.609	1022.066
195.359	25.939	1257.017	1021.102
196.373	25.950	1256.580	1020.718
197.388	25.967	1255.704	1020.013
198.402	25.792	1255.774	1018.987
199.417	25.917	1255.523	1019.399
200.432	25.965	1254.810	1019.002
201.446	25.930	1254.094	1018.133
202.461	25.954	1253.250	1017.493
203.475	25.980	1252.160	1016.666
204.490	25.937	1250.847	1015.267
205.504	25.938	1250.172	1014.635
206.519	26.013	1249.557	1014.468
207.534	25.950	1248.622	1013.265
208.548	26.005	1247.631	1012.682
209.563	26.018	1246.675	1011.888
210.577	25.952	1246.262	1011.094
211.592	25.991	1245.335	1010.471
212.607	26.037	1244.158	1009.680
213.621	26.119	1243.705	1009.686
214.636	26.093	1242.505	1008.474
215.650	26.014	1241.825	1007.396
216.665	26.033	1240.377	1006.238
217.680	26.111	1239.987	1006.264
218.694	26.137	1238.937	1005.471
219.709	26.088	1238.256	1004.554
220.723	26.162	1238.306	1004.916
221.738	26.004	1237.296	1003.133
222.753	25.977	1236.391	1002.156
223.767	26.057	1235.886	1002.105
224.782	26.153	1235.630	1002.342
225.796	26.162	1234.907	1001.717
226.811	26.241	1233.741	1001.121
227.826	26.105	1233.704	1000.245
228.840	26.245	1232.854	1000.244
229.855	26.206	1232.400	999.572
230.869	26.101	1231.449	998.133
231.884	26.203	1230.423	997.774
232.899	26.188	1229.609	996.943
233.913	26.165	1229.506	996.646
234.928	26.252	1229.024	996.646
235.942	26.248	1228.299	995.948
236.957	26.297	1227.449	995.440
237.972	26.111	1227.262	994.176
238.986	26.266	1226.291	994.155
240.001	26.279	1225.776	993.721
241.015	26.210	1225.169	992.764
242.030	26.367	1224.108	992.675
243.045	26.367	1222.945	991.645
244.059	26.304	1222.566	990.903
245.074	26.392	1221.569	990.490
246.088	26.363	1221.044	989.817
247.103	26.333	1220.424	989.063
248.117	26.340	1219.205	988.028
249.132	26.259	1218.682	987.071
250.147	26.456	1218.016	987.521
251.161	26.371	1217.380	986.457
252.176	26.411	1216.358	985.755
253.190	26.353	1215.780	984.886
254.205	26.419	1215.195	984.686
255.220	26.364	1214.840	984.010
256.234	26.508	1214.112	984.119
257.249	26.480	1213.447	983.340
258.263	26.454	1212.378	982.244
259.278	26.441	1212.246	981.982
260.293	26.481	1211.445	981.462
261.307	26.513	1211.236	981.377
262.322	26.532	1210.241	980.589
263.336	26.359	1210.208	979.537
264.351	26.417	1209.449	979.148
265.366	26.448	1208.759	978.673
266.380	26.420	1208.109	977.910
267.395	26.513	1207.174	977.569
268.409	26.324	1207.005	976.322
269.424	26.466	1206.341	976.468
270.439	26.439	1206.031	975.984
271.453	26.433	1205.088	975.103
272.468	26.539	1203.925	974.644
273.482	26.401	1203.695	973.628
274.497	26.561	1202.784	973.669
275.512	26.526	1202.642	973.278
276.526	26.499	1201.802	972.366
277.541	26.506	1200.874	971.570
278.555	26.588	1200.494	971.613
279.570	26.572	1199.869	970.938
280.585	26.668	1198.648	970.377
281.599	26.602	1197.751	969.214
282.614	26.618	1197.171	968.742
283.628	26.511	1196.520	967.558
284.643	26.605	1195.591	967.222
285.657	26.619	1194.814	966.583
286.672	26.605	1193.518	965.375
287.687	26.579	1193.021	964.750
288.701	26.818	1192.412	965.445
289.716	26.744	1191.392	964.141
290.730	26.729	1190.813	963.503
291.745	26.654	1190.624	962.868
292.760	26.664	1189.757	962.136
293.774	26.746	1189.028	961.897
294.789	26.727	1189.130	961.790
295.803	26.820	1187.856	961.167
296.818	26.835	1186.973	960.448
297.833	26.732	1186.736	959.627
298.847	26.849	1185.678	959.305
299.862	26.754	1185.192	958.327
300.876	26.770	1184.363	957.656
301.891	26.810	1183.712	957.255
302.906	26.830	1183.346	956.979
303.920	26.882	1182.854	956.774
304.935	26.908	1181.998	956.133
305.949	26.813	1181.175	954.881
306.964	26.950	1180.421	954.908
307.979	26.871	1180.197	954.224
308.993	26.882	1179.643	953.753
310.008	26.834	1178.797	952.733
311.022	26.867	1177.973	952.153
312.037	26.832	1177.306	951.347
313.052	26.858	1176.148	950.466
314.066	26.808	1175.447	949.553
315.081	26.934	1174.666	949.498
316.095	27.011	1173.834	949.143
317.110	26.918	1173.668	948.437
318.125	27.015	1172.613	948.009
319.139	26.952	1172.164	947.231
320.154	26.987	1171.440	946.747
321.168	26.945	1171.562	946.541
322.183	27.013	1170.626	946.056
323.197	26.940	1169.850	944.963
324.212	26.996	1169.505	944.896
325.227	26.945	1169.172	944.277
326.241	27.050	1168.661	944.327
327.256	27.101	1167.416	943.499
328.270	26.979	1166.707	942.214
329.285	27.040	1165.796	941.708
330.300	27.156	1164.783	941.409
331.314	27.069	1164.527	940.664
332.329	27.185	1163.128	940.052
333.343	27.270	1162.742	940.099
334.358	27.134	1161.944	938.665
335.373	27.118	1161.618	938.239
336.387	27.182	1160.637	937.692
337.402	27.170	1159.935	936.983
338.416	27.219	1159.101	936.475
339.431	27.239	1158.492	936.004
340.446	27.169	1158.480	935.550
341.460	27.269	1157.693	935.347
342.475	27.239	1156.666	934.279
343.489	27.287	1155.593	933.580
344.504	27.265	1155.051	932.944
345.519	27.278	1153.937	932.028
346.533	27.300	1153.579	931.771
347.548	27.312	1152.857	931.168
348.562	27.378	1151.791	930.561
349.577	27.347	1151.352	929.964
350.592	27.373	1150.157	929.051
351.606	27.206	1149.388	927.494
352.621	27.290	1149.654	928.054
353.635	27.396	1148.581	927.648
354.650	27.362	1147.929	926.866
355.665	27.402	1147.144	926.355
356.679	27.416	1146.880	926.129
357.694	27.307	1146.481	925.169
358.708	27.451	1145.440	924.980
359.723	27.519	1144.263	924.292
360.738	27.412	1143.714	923.224
361.752	27.435	1143.563	923.138
362.767	27.500	1142.828	922.795
363.781	27.479	1142.641	922.452
364.796	27.593	1141.577	922.091
365.810	27.619	1140.881	921.577
366.825	27.478	1140.443	920.431
367.840	27.531	1139.908	920.185
368.854	27.570	1139.735	920.157
369.869	27.674	1138.278	919.427
370.883	27.564	1137.928	918.508
371.898	27.730	1137.185	918.665
372.913	27.520	1136.694	917.128
373.927	27.708	1136.044	917.468
374.942	27.539	1135.817	916.351
375.956	27.667	1135.470	916.634
376.971	27.681	1134.531	915.869
377.986	27.630	1134.078	915.166
379.000	27.749	1133.292	915.045
380.015	27.669	1133.036	914.360
381.029	27.678	1132.548	913.926
382.044	27.866	1131.396	913.860
383.059	27.762	1130.835	912.806
384.073	27.815	1130.260	912.526
385.088	27.769	1129.413	911.529
386.102	27.706	1128.762	910.609
387.117	27.662	1127.843	909.568
388.132	27.750	1127.090	909.320
389.146	27.809	1126.389	908.969
390.161	27.833	1125.516	908.301
391.175	27.668	1125.285	907.212
392.190	27.821	1124.314	907.110
393.205	27.770	1123.691	906.275
394.219	27.873	1122.977	906.129
395.234	27.926	1122.202	905.688
396.248	27.915	1120.866	904.475
397.263	27.901	1120.070	903.682
398.278	28.099	1119.575	904.180
399.292	27.903	1119.402	902.993
400.307	28.036	1118.674	902.985
401.321	27.825	1118.199	901.476
402.336	27.860	1117.525	901.030
403.350	27.979	1116.631	900.812
404.365	28.032	1116.047	900.526
405.380	27.986	1115.315	899.627
406.394	27.939	1114.475	898.637
407.409	28.016	1113.768	898.366
408.423	28.066	1113.150	898.037
409.438	28.004	1112.532	897.153
410.453	28.081	1111.800	896.860
411.467	28.182	1110.567	896.279
412.482	28.071	1110.302	895.447
413.496	28.070	1109.799	894.956
414.511	28.113	1109.217	894.619
415.526	28.100	1108.834	894.165
416.540	28.197	1108.027	893.909
417.555	28.252	1107.488	893.666
418.569	28.023	1107.542	892.510
419.584	28.211	1106.725	892.688
420.599	28.234	1106.053	892.183
421.613	85.213	1295.710	1357.809
422.628	79.887	1323.324	1357.957
