DTS Sentinel unit serial number:	SN413079Multiplexer serial number:	ORYXHardware model number:	OX4-SRSoftware version number:	ORYX F/W v4.00 Oryx Data Collector v3.7.2.0data status	okinstallation	princeton_trtdifferential loss correction	single-endedforward channel	channel 2reverse channel	N/Adate	2019/09/12time	01:29:11forward acquisition time	60.00reverse acquisition time	0.00gamma	496.2192k internal	0.2325k external	0.2325temperature offset calibration	1.0091default loss term (dB/km)	0.3790temperature slope calibration	1.0000multiplexer offset coefficient	1.0000multiplexer slope coefficient	1.0000fibre end	0.00T internal ref (°C)	32.94T ext. ref 1 (°C)	2.08T ext. ref 2 (°C)	27.87length (m)	temperature (°C)	Stokes	anti-Stokes-747.200	-200.000	-0.023	0.149
-746.185	-180.009	-0.202	0.004
-745.171	-131.715	-0.252	-0.033
-744.156	74.834	0.099	0.106
-743.142	163.656	-0.242	-0.344
-742.127	88.603	0.146	0.164
-741.112	-99.802	-0.160	0.040
-740.098	-158.907	0.029	0.002
-739.083	-25.152	0.192	-0.115
-738.069	68.545	-0.243	-0.251
-737.054	48.400	-0.175	0.165
-736.039	98.266	-0.177	0.205
-735.025	23.745	-0.062	-0.051
-734.010	218.379	0.148	-0.238
-732.996	-76.620	-0.251	-0.089
-731.981	-200.000	0.007	0.071
-730.966	800.000	-0.071	0.205
-729.952	-200.000	0.002	-0.264
-728.937	48.331	-0.138	-0.130
-727.923	143.013	0.170	-0.228
-726.908	-88.680	-0.577	0.173
-725.894	49.830	-0.173	-0.164
-724.879	122.360	-0.101	0.127
-723.864	390.986	-0.099	0.206
-722.850	8.770	-0.193	-0.146
-721.835	-13.078	-0.056	0.037
-720.821	259.303	0.085	0.147
-719.806	-9.459	0.195	0.131
-718.791	-39.686	-0.169	0.089
-717.777	-83.236	-0.204	-0.066
-716.762	800.000	-0.071	-0.213
-715.748	800.000	-0.065	0.249
-714.733	176.265	-0.205	-0.300
-713.718	691.505	0.056	-0.149
-712.704	-200.000	-0.023	-0.231
-711.689	-84.560	-0.243	-0.077
-710.675	7.365	0.039	-0.029
-709.660	800.000	-0.109	-0.351
-708.645	-70.137	-0.439	-0.168
-707.631	-137.894	0.376	0.042
-706.616	64.893	-0.075	0.076
-705.602	186.763	-0.166	-0.250
-704.587	-136.754	0.275	-0.032
-703.572	61.233	0.142	0.143
-702.558	-81.857	-0.083	-0.027
-701.543	-200.000	-0.065	0.327
-700.529	-84.009	-0.184	-0.059
-699.514	-200.000	-0.002	0.088
-698.499	160.676	0.034	0.047
-697.485	194.914	-0.159	-0.243
-696.470	-14.003	0.233	-0.152
-695.456	-67.165	-0.075	0.030
-694.441	-113.209	-0.117	0.023
-693.426	-59.213	0.142	-0.062
-692.412	361.625	0.181	0.366
-691.397	-200.000	-0.009	-0.087
-690.383	-161.486	0.164	0.009
-689.368	-112.803	-0.253	-0.051
-688.354	25.383	-0.128	0.107
-687.339	-19.326	0.076	-0.048
-686.324	389.147	-0.108	-0.225
-685.310	-65.870	-0.125	0.050
-684.295	-141.156	0.441	0.045
-683.281	-200.000	-0.014	0.337
-682.266	-23.997	-0.187	-0.112
-681.251	-12.236	-0.071	0.047
-680.237	-96.223	-0.278	0.074
-679.222	-83.141	0.292	0.095
-678.208	289.565	0.204	-0.372
-677.193	-80.204	-0.067	-0.023
-676.178	800.000	0.051	-0.174
-675.164	-200.000	-0.076	-0.370
-674.149	698.187	0.063	-0.167
-673.135	-200.000	0.006	-0.297
-672.120	351.495	-0.114	0.227
-671.105	-42.483	-0.157	0.081
-670.091	73.857	0.085	-0.090
-669.076	-200.000	-0.020	0.177
-668.062	-200.000	-0.002	-0.161
-667.047	-139.643	0.096	-0.010
-666.032	-20.408	0.094	-0.058
-665.018	-1.921	-0.314	0.222
-664.003	398.799	0.199	0.419
-662.989	268.200	0.079	-0.139
-661.974	60.208	-0.169	-0.168
-660.959	-200.000	-0.013	0.150
-659.945	-200.000	0.039	0.220
-658.930	-90.218	0.183	0.054
-657.916	800.000	-0.140	-0.428
-656.901	-146.956	-0.443	-0.038
-655.886	-131.873	-0.125	-0.016
-654.872	67.292	-0.307	0.315
-653.857	-7.107	0.139	0.095
-652.843	3.958	0.223	0.164
-651.828	33.907	0.120	0.105
-650.814	110.764	0.044	0.053
-649.799	-81.889	-0.113	-0.037
-648.784	358.006	-0.058	0.116
-647.770	-200.000	0.027	-0.122
-646.755	-97.878	0.110	0.029
-645.741	-37.533	0.242	0.130
-644.726	-5.567	0.056	0.039
-643.711	-191.709	0.278	-0.003
-642.697	-200.000	0.094	-0.435
-641.682	280.867	-0.199	-0.358
-640.668	800.000	0.053	-0.186
-639.653	-45.722	0.351	0.174
-638.638	-154.486	0.221	0.015
-637.624	-200.000	0.010	-0.203
-636.609	-63.862	-0.261	0.107
-635.595	-100.341	-0.347	-0.087
-634.580	80.838	0.191	0.207
-633.565	-48.350	0.123	0.060
-632.551	-200.000	0.005	-0.196
-631.536	39.115	0.164	-0.148
-630.522	-189.760	-0.553	-0.006
-629.507	-135.404	-0.094	0.011
-628.492	380.649	0.164	-0.338
-627.478	-81.868	-0.248	-0.082
-626.463	-200.000	-0.013	0.387
-625.449	-8.753	-0.230	-0.155
-624.434	455.332	0.029	0.064
-623.419	-71.664	-0.071	-0.027
-622.405	-2.013	0.201	-0.142
-621.390	-69.586	0.312	-0.120
-620.376	-121.699	0.131	0.022
-619.361	800.000	0.049	-0.139
-618.346	603.645	-0.081	0.202
-617.332	164.667	-0.197	-0.280
-616.317	-97.130	-0.163	-0.043
-615.303	143.871	0.316	-0.423
-614.288	-54.049	-0.194	-0.088
-613.273	770.714	-0.083	0.226
-612.259	7.214	-0.091	0.068
-611.244	36.495	0.010	-0.009
-610.230	218.431	-0.120	-0.193
-609.215	-2.460	0.111	0.078
-608.201	293.568	0.103	0.189
-607.186	-141.426	-0.353	-0.036
-606.171	417.801	-0.019	0.041
-605.157	-141.919	0.600	0.060
-604.142	-193.337	-0.147	-0.001
-603.128	-62.119	-0.020	-0.008
-602.113	-60.445	-0.286	-0.122
-601.098	800.000	0.065	-0.225
-600.084	800.000	0.052	-0.164
-599.069	196.877	0.033	0.051
-598.055	-160.538	-0.056	0.003
-597.040	25.525	-0.114	-0.095
-596.025	45.713	0.273	0.253
-595.011	0.920	0.269	0.193
-593.996	352.258	-0.109	-0.217
-592.982	49.818	-0.104	-0.098
-591.967	-200.000	-0.007	-0.079
-590.952	496.626	0.128	0.296
-589.938	23.673	-0.219	-0.181
-588.923	69.292	-0.065	-0.067
-587.909	-105.507	-0.105	0.024
-586.894	132.320	0.010	0.013
-585.879	-122.539	-0.425	0.069
-584.865	-110.267	-0.071	0.015
-583.850	-79.532	0.245	0.083
-582.836	304.063	-0.137	0.256
-581.821	-105.958	-0.131	-0.030
-580.806	-200.000	-0.040	-0.288
-579.792	-34.371	0.341	0.188
-578.777	-147.095	-0.482	0.041
-577.763	-200.000	-0.033	-0.439
-576.748	239.197	0.150	-0.250
-575.733	30.279	0.156	0.133
-574.719	-60.264	-0.359	0.153
-573.704	-108.278	0.115	-0.025
-572.690	-83.320	0.322	-0.103
-571.675	-107.947	-0.352	-0.077
-570.661	164.600	0.196	0.277
-569.646	-14.068	-0.344	0.223
-568.631	800.000	-0.028	-0.093
-567.617	-200.000	0.040	0.204
-566.602	-129.464	0.311	0.043
-565.588	-200.000	0.002	0.124
-564.573	800.000	0.097	0.327
-563.558	-200.000	0.039	-0.272
-562.544	800.000	-0.093	0.272
-561.529	-141.290	0.241	0.025
-560.515	-200.000	0.027	-0.448
-559.500	138.881	-0.235	-0.309
-558.485	10.516	0.259	-0.198
-557.471	-7.700	0.214	-0.145
-556.456	-200.000	0.064	0.000
-555.442	-35.246	0.145	0.079
-554.427	-114.032	0.225	0.044
-553.412	68.128	0.199	0.204
-552.398	-72.548	-0.126	-0.047
-551.383	-46.982	0.197	0.096
-550.369	-49.014	-0.277	0.133
-549.354	-200.000	0.013	-0.274
-548.339	-200.000	-0.012	0.117
-547.325	800.000	-0.108	-0.358
-546.310	140.303	0.175	-0.232
-545.296	228.202	-0.051	-0.084
-544.281	373.471	-0.115	-0.234
-543.266	-45.139	0.100	-0.050
-542.252	-200.000	0.035	0.184
-541.237	36.879	0.227	0.201
-540.223	248.519	-0.163	0.276
-539.208	80.264	-0.289	0.311
-538.193	-200.000	0.005	0.052
-537.179	52.202	-0.351	-0.335
-536.164	-32.135	-0.119	-0.067
-535.150	-111.057	-0.157	-0.032
-534.135	-133.550	0.351	0.044
-533.121	23.792	0.073	0.060
-532.106	57.547	0.070	-0.069
-531.091	800.000	0.047	-0.149
-530.077	-200.000	-0.074	-0.353
-529.062	-200.000	0.016	0.463
-528.048	-92.359	-0.113	-0.032
-527.033	-121.019	0.260	-0.044
-526.018	-137.210	-0.277	-0.032
-525.004	-130.175	-0.324	-0.044
-523.989	237.929	0.078	0.130
-522.975	-89.941	0.194	0.057
-521.960	800.000	-0.038	-0.141
-520.945	-94.906	0.139	-0.038
-519.931	56.580	-0.244	0.237
-518.916	36.463	0.023	0.020
-517.902	541.722	-0.080	0.190
-516.887	800.000	0.044	-0.160
-515.872	800.000	-0.074	0.252
-514.858	-165.590	-0.245	-0.011
-513.843	800.000	-0.110	-0.335
-512.829	-200.000	0.008	-0.163
-511.814	-92.359	-0.219	-0.062
-510.799	800.000	-0.065	0.189
-509.785	167.919	-0.173	0.246
-508.770	-180.362	-0.290	-0.006
-507.756	800.000	-0.086	-0.262
-506.741	-18.600	0.095	0.060
-505.726	-28.911	0.159	0.092
-504.712	-159.449	0.126	0.007
-503.697	40.175	0.039	-0.035
-502.683	-200.000	-0.091	0.407
-501.668	285.655	-0.076	-0.138
-500.653	176.702	0.035	-0.051
-499.639	-200.000	0.009	0.192
-498.624	263.643	-0.201	0.349
-497.610	43.709	-0.026	-0.024
-496.595	-200.000	-0.066	0.347
-495.581	574.861	-0.038	0.092
-494.566	141.158	-0.224	-0.296
-493.551	68.784	-0.068	-0.070
-492.537	800.000	0.081	-0.353
-491.522	451.590	-0.079	-0.174
-490.508	-84.789	0.245	-0.077
-489.493	-200.000	-0.025	0.281
-488.478	361.635	-0.079	0.157
-487.464	-10.675	0.195	0.129
-486.449	-125.745	-0.320	-0.048
-485.435	800.000	-0.057	0.167
-484.420	-175.574	0.100	0.003
-483.405	-119.941	0.107	0.018
-482.391	-58.094	0.225	0.098
-481.376	33.381	-0.103	-0.089
-480.362	-139.635	0.126	-0.013
-479.347	-140.151	0.250	-0.026
-478.332	229.141	-0.054	-0.087
-477.318	-68.148	0.273	-0.106
-476.303	29.149	-0.167	-0.141
-475.289	-200.000	-0.024	-0.196
-474.274	800.000	-0.035	0.120
-473.259	170.191	0.059	0.084
-472.245	-200.000	-0.001	-0.160
-471.230	-200.000	-0.024	-0.198
-470.216	439.548	-0.111	0.242
-469.201	629.636	0.163	0.411
-468.186	800.000	0.038	0.152
-467.172	-200.000	0.002	-0.026
-466.157	9.981	0.133	0.101
-465.143	346.421	0.071	-0.140
-464.128	162.592	0.074	0.104
-463.113	-161.196	0.198	0.010
-462.099	315.730	-0.096	-0.181
-461.084	-100.341	-0.153	0.038
-460.070	24.860	-0.071	0.059
-459.055	-155.275	-0.168	-0.011
-458.040	-200.000	-0.012	-0.125
-457.026	-200.000	-0.008	-0.197
-456.011	-200.000	-0.032	-0.156
-454.997	27.340	-0.036	0.030
-453.982	-200.000	-0.010	-0.059
-452.968	-200.000	-0.046	0.456
-451.953	364.036	-0.049	-0.097
-450.938	590.807	0.052	-0.129
-449.924	-30.389	-0.149	-0.084
-448.909	800.000	-0.021	-0.072
-447.895	-200.000	-0.028	-0.387
-446.880	639.990	-0.055	0.138
-445.865	205.026	0.037	-0.057
-444.851	238.118	0.035	-0.058
-443.836	-200.000	0.006	-0.068
-442.822	270.525	0.111	0.194
-441.807	-26.647	0.165	0.096
-440.792	-200.000	0.045	-0.218
-439.778	328.892	0.079	0.152
-438.763	800.000	-0.066	-0.248
-437.749	800.000	0.116	0.399
-436.734	31.909	-0.159	-0.136
-435.719	-58.262	0.153	0.066
-434.705	-58.703	-0.208	-0.090
-433.690	-123.798	-0.269	0.042
-432.676	-123.906	0.019	-0.003
-431.661	-200.000	-0.006	0.072
-430.646	-93.881	-0.194	0.053
-429.632	-100.866	-0.252	-0.062
-428.617	800.000	0.062	0.190
-427.603	-200.000	0.005	0.270
-426.588	135.837	-0.011	0.015
-425.573	-200.000	0.026	-0.217
-424.559	39.939	0.156	-0.140
-423.544	-149.739	0.236	-0.018
-422.530	338.281	0.113	-0.220
-421.515	218.522	-0.161	-0.257
-420.500	-78.026	0.201	0.069
-419.486	69.898	0.209	0.215
-418.471	800.000	0.074	-0.269
-417.457	-83.622	-0.318	0.101
-416.442	-95.691	-0.158	0.042
-415.428	92.817	-0.014	0.016
-414.413	-28.635	-0.175	-0.100
-413.398	63.498	0.071	0.071
-412.384	350.267	-0.076	-0.149
-411.369	-4.408	0.063	0.043
-410.355	376.705	0.067	0.136
-409.340	313.930	0.056	0.105
-408.325	-34.818	-0.073	-0.040
-407.311	-82.248	-0.344	-0.112
-406.296	104.109	0.073	-0.086
-405.282	513.164	0.112	-0.259
-404.267	46.820	0.173	-0.160
-403.252	273.169	0.037	0.066
-402.238	800.000	0.062	0.186
-401.223	800.000	-0.078	0.288
-400.209	-186.623	-0.204	0.003
-399.194	-200.000	0.070	-0.310
-398.179	-3.250	-0.107	-0.074
-397.165	43.190	-0.091	0.083
-396.150	-87.690	0.125	-0.037
-395.136	41.391	0.114	-0.103
-394.121	-198.104	0.465	0.003
-393.106	-76.521	0.017	-0.006
-392.092	-9.835	-0.112	-0.074
-391.077	14.050	0.226	0.175
-390.063	76.558	-0.112	0.118
-389.048	-128.170	-0.353	-0.050
-388.033	133.103	0.013	-0.017
-387.019	-28.040	0.077	-0.044
-386.004	15.080	0.153	-0.119
-384.990	-100.781	0.138	-0.034
-383.975	-2.191	-0.024	0.017
-382.960	-30.235	-0.073	0.041
-381.946	-200.000	0.007	-0.069
-380.931	197.209	-0.128	-0.194
-379.917	43.688	0.353	-0.321
-378.902	-20.690	-0.202	0.123
-377.888	-200.000	0.032	0.158
-376.873	59.696	0.216	0.212
-375.858	139.780	-0.120	0.157
-374.844	137.581	-0.095	-0.123
-373.829	-79.617	-0.101	0.034
-372.815	-16.348	-0.148	0.093
-371.800	55.385	0.210	0.202
-370.785	339.527	0.049	-0.095
-369.771	479.426	0.123	0.276
-368.756	-13.824	-0.344	0.221
-367.742	-80.291	0.177	-0.059
-366.727	-153.802	0.115	-0.008
-365.712	-158.128	-0.762	0.044
-364.698	800.000	-0.104	0.448
-363.683	283.610	0.191	0.342
-362.669	-137.934	-0.117	-0.013
-361.654	-66.923	0.195	0.077
-360.639	-200.000	-0.022	-0.265
-359.625	-106.110	0.241	-0.054
-358.610	-200.000	-0.006	-0.148
-357.596	-1.426	-0.222	0.155
-356.581	-52.949	0.365	0.167
-355.566	-149.027	-0.214	0.017
-354.552	-58.682	0.333	-0.144
-353.537	-88.413	0.285	0.084
-352.523	20.149	0.166	0.133
-351.508	355.243	-0.101	-0.199
-350.493	-87.073	0.249	0.075
-349.479	-63.854	-0.169	0.069
-348.464	-117.261	0.176	0.032
-347.450	403.308	-0.107	0.223
-346.435	13.520	-0.101	-0.078
-345.420	800.000	-0.101	0.286
-344.406	198.241	-0.135	0.205
-343.391	185.059	-0.104	-0.154
-342.377	800.000	0.034	0.100
-341.362	-200.000	-0.004	0.304
-340.348	94.969	0.175	-0.198
-339.333	329.746	0.028	-0.053
-338.318	-29.629	0.269	0.152
-337.304	-100.786	-0.089	0.022
-336.289	163.340	0.133	0.186
-335.275	-13.513	-0.093	-0.060
-334.260	137.729	0.148	-0.193
-333.245	200.398	0.188	-0.287
-332.231	-70.179	0.301	-0.113
-331.216	-107.978	-0.211	0.045
-330.202	-77.921	0.392	0.134
-329.187	505.845	-0.010	-0.024
-328.172	177.136	0.202	0.292
-327.158	-44.966	0.160	0.079
-326.143	-200.000	0.024	0.128
-325.129	-200.000	-0.053	-0.260
-324.114	-200.000	-0.003	-0.128
-323.099	-200.000	-0.100	-0.499
-322.085	99.231	0.147	0.169
-321.070	-200.000	-0.049	-0.391
-320.056	-200.000	0.012	0.060
-319.041	277.908	-0.121	-0.214
-318.026	-150.610	0.405	-0.031
-317.012	800.000	-0.053	-0.228
-315.997	116.846	0.112	-0.137
-314.983	137.988	0.228	0.296
-313.968	769.919	0.030	0.081
-312.953	44.554	-0.216	0.197
-311.939	190.543	-0.046	-0.068
-310.924	800.000	-0.058	-0.206
-309.910	-67.368	-0.272	0.106
-308.895	346.375	0.066	0.129
-307.880	72.520	-0.121	0.125
-306.866	69.375	-0.083	0.085
-305.851	44.573	-0.360	0.329
-304.837	70.193	-0.059	0.060
-303.822	18.115	-0.166	-0.131
-302.807	-122.259	0.322	-0.052
-301.793	800.000	0.107	0.358
-300.778	-75.655	0.186	0.066
-299.764	-49.320	0.253	-0.120
-298.749	126.297	-0.081	0.102
-297.735	-200.000	-0.006	-0.569
-296.720	-200.000	-0.001	0.047
-295.705	16.693	-0.426	-0.334
-294.691	-148.174	0.432	-0.035
-293.676	-200.000	-0.038	0.171
-292.662	-198.662	0.310	-0.002
-291.647	-200.000	0.016	0.215
-290.632	-6.631	0.084	0.057
-289.618	-33.773	-0.383	0.209
-288.603	-200.000	0.008	-0.062
-287.589	-200.000	0.015	0.232
-286.574	-45.840	-0.154	0.075
-285.559	79.817	-0.111	-0.118
-284.545	-106.192	-0.250	0.056
-283.530	-120.041	0.170	0.029
-282.516	-104.404	-0.461	0.106
-281.501	116.435	0.079	0.095
-280.486	253.695	0.084	0.143
-279.472	-200.000	-0.025	0.191
-278.457	-200.000	-0.035	0.165
-277.443	800.000	0.054	0.227
-276.428	-200.000	0.047	0.305
-275.413	-200.000	-0.009	-0.110
-274.399	-109.189	-0.063	-0.013
-273.384	191.611	0.040	0.059
-272.370	-200.000	0.013	-0.385
-271.355	-200.000	-0.024	-0.150
-270.340	-102.640	0.116	0.027
-269.326	-20.994	-0.192	-0.116
-268.311	-48.791	-0.283	-0.134
-267.297	-155.478	0.150	-0.010
-266.282	-179.802	0.192	-0.004
-265.267	19.277	-0.102	-0.081
-264.253	-200.000	-0.013	-0.103
-263.238	42.995	0.014	-0.012
-262.224	-37.351	0.032	0.017
-261.209	24.931	0.258	-0.212
-260.195	-119.970	0.183	-0.031
-259.180	-200.000	0.006	0.129
-258.165	262.925	-0.089	0.153
-257.151	-85.134	-0.143	-0.044
-256.136	-135.672	-0.506	0.059
-255.122	-200.000	0.020	-0.089
-254.107	4.633	-0.159	-0.116
-253.092	-40.988	-0.212	-0.109
-252.078	682.809	-0.072	-0.186
-251.063	49.570	-0.111	0.104
-250.049	-200.000	0.022	0.113
-249.034	-54.700	-0.188	0.084
-248.019	125.854	-0.179	0.224
-247.005	-78.932	-0.180	-0.060
-245.990	87.280	-0.206	0.225
-244.976	-200.000	0.014	-0.065
-243.961	-200.000	0.008	0.089
-242.946	-11.994	0.180	-0.117
-241.932	76.487	-0.131	-0.137
-240.917	167.649	0.214	-0.300
-239.903	-52.569	0.101	0.046
-238.888	-76.265	-0.374	0.130
-237.873	452.475	0.162	-0.354
-236.859	-127.951	-0.213	-0.030
-235.844	110.800	0.084	0.100
-234.830	-200.000	-0.003	0.072
-233.815	800.000	0.117	0.393
-232.800	-147.928	0.234	-0.019
-231.786	-146.382	-0.430	-0.037
-230.771	800.000	0.055	-0.178
-229.757	114.538	-0.064	-0.078
-228.742	6.541	0.075	0.055
-227.727	-86.789	0.237	0.072
-226.713	-45.722	0.364	0.178
-225.698	-101.423	0.120	-0.029
-224.684	-123.779	-0.119	-0.019
-223.669	102.963	-0.150	0.174
-222.655	458.098	0.140	0.307
-221.640	79.255	0.158	-0.168
-220.625	-51.455	0.059	-0.027
-219.611	-129.825	0.186	-0.025
-218.596	176.075	0.174	-0.249
-217.582	800.000	0.099	-0.389
-216.567	-200.000	-0.037	-0.202
-215.552	47.808	0.207	0.191
-214.538	-200.000	-0.096	-0.459
-213.523	-145.794	0.062	-0.005
-212.509	-148.652	0.163	0.013
-211.494	-39.874	-0.246	0.127
-210.479	-56.780	-0.185	-0.081
-209.465	-164.617	0.208	-0.009
-208.450	20.525	-0.031	-0.025
-207.436	-17.079	0.184	0.115
-206.421	-44.307	0.077	-0.038
-205.406	278.645	-0.077	0.135
-204.392	-19.821	0.144	0.088
-203.377	-178.619	-0.069	-0.002
-202.363	-200.000	0.029	-0.131
-201.348	800.000	-0.103	-0.320
-200.333	800.000	-0.107	0.317
-199.319	800.000	0.022	0.087
-198.304	79.100	-0.147	-0.156
-197.290	278.054	-0.041	0.073
-196.275	16.659	-0.246	-0.192
-195.260	-200.000	0.016	0.089
-194.246	-34.654	0.323	0.174
-193.231	69.315	0.058	0.059
-192.217	-6.049	0.065	-0.044
-191.202	-133.527	-0.221	0.027
-190.187	-104.012	-0.085	-0.020
-189.173	-98.200	0.227	0.058
-188.158	-129.196	-0.125	0.017
-187.144	249.575	0.015	0.026
-186.129	-36.313	-0.111	0.059
-185.114	-96.341	-0.262	0.068
-184.100	-70.898	0.301	-0.112
-183.085	375.026	-0.063	0.126
-182.071	16.870	-0.260	-0.203
-181.056	-200.000	0.019	0.151
-180.042	-200.000	-0.026	0.130
-179.027	-200.000	-0.011	-0.118
-178.012	-88.696	-0.091	0.027
-176.998	-6.921	0.071	-0.048
-175.983	-77.951	-0.068	0.023
-174.969	163.730	-0.228	0.316
-173.954	-8.841	0.208	0.138
-172.939	-200.000	0.008	0.423
-171.925	-200.000	-0.053	-0.358
-170.910	-31.032	-0.102	-0.057
-169.896	-110.118	0.074	-0.015
-168.881	800.000	0.037	-0.113
-167.866	-200.000	-0.006	0.188
-166.852	-36.685	0.289	-0.153
-165.837	-200.000	0.008	0.113
-164.823	-11.779	-0.079	-0.051
-163.808	-200.000	-0.001	-0.086
-162.793	800.000	0.113	-0.366
-161.779	-43.310	0.201	-0.101
-160.764	420.525	-0.070	-0.147
-159.750	104.059	0.182	0.211
-158.735	-200.000	-0.002	0.040
-157.720	228.972	0.166	-0.268
-156.706	-200.000	-0.019	0.091
-155.691	-95.142	-0.140	-0.037
-154.677	-200.000	-0.010	0.177
-153.662	154.843	-0.156	0.212
-152.647	179.008	0.251	0.361
-151.633	-30.377	0.087	-0.049
-150.618	34.360	0.232	-0.199
-149.604	800.000	-0.048	0.132
-148.589	114.036	0.237	0.284
-147.574	93.479	0.171	-0.190
-146.560	-148.448	-0.135	0.011
-145.545	3.813	0.315	-0.227
-144.531	159.054	-0.082	0.113
-143.516	-200.000	-0.003	-0.246
-142.502	-43.152	0.220	0.110
-141.487	-200.000	-0.065	0.316
-140.472	102.080	0.225	0.259
-139.458	800.000	-0.006	-0.023
-138.443	568.103	-0.107	-0.256
-137.429	-49.641	-0.093	-0.043
-136.414	-200.000	-0.051	-0.283
-135.399	-98.562	0.239	0.060
-134.385	95.360	-0.099	-0.111
-133.370	-105.990	0.315	-0.070
-132.356	-107.651	0.276	0.059
-131.341	15.207	-0.100	0.077
-130.326	33.975	-0.219	-0.188
-129.312	800.000	-0.049	-0.203
-128.297	-80.075	0.048	0.016
-127.283	441.602	-0.095	-0.204
-126.268	191.343	0.125	-0.185
-125.253	-83.652	-0.185	-0.058
-124.239	-62.345	0.344	0.141
-123.224	43.215	-0.109	0.098
-122.210	800.000	-0.094	0.262
-121.195	-75.482	0.165	0.058
-120.180	-31.512	-0.278	0.154
-119.166	-44.214	-0.379	0.187
-118.151	-200.000	-0.052	0.319
-117.137	800.000	-0.027	-0.113
-116.122	103.006	-0.108	-0.125
-115.107	125.273	-0.116	-0.144
-114.093	199.495	-0.147	-0.222
-113.078	-39.403	0.133	0.069
-112.064	17.898	0.147	-0.115
-111.049	-118.545	-0.059	-0.010
-110.034	-78.442	-0.081	0.027
-109.020	-200.000	0.061	-0.311
-108.005	-200.000	-0.015	-0.094
-106.991	44.213	0.392	-0.354
-105.976	-134.844	-0.441	0.053
-104.962	-58.061	-0.124	0.053
-103.947	-171.507	0.175	-0.006
-102.932	-200.000	-0.038	0.227
-101.918	-125.904	0.419	0.062
-100.903	5.027	-0.328	-0.237
-99.889	66.866	-0.248	-0.249
-98.874	-97.574	-0.346	0.088
-97.859	-191.826	-0.148	-0.001
-96.845	123.264	0.109	0.134
-95.830	132.388	-0.151	-0.191
-94.816	92.663	-0.190	-0.211
-93.801	800.000	-0.196	-0.554
-92.786	-151.210	-0.152	0.011
-91.772	85.168	0.360	0.388
-90.757	-7.002	0.125	-0.084
-89.743	35.197	-0.229	-0.197
-88.728	-200.000	-0.019	0.278
-87.713	681.156	-0.178	0.456
-86.699	74.812	0.079	0.082
-85.684	246.120	-0.147	-0.243
-84.670	230.686	0.122	-0.196
-83.655	283.891	0.028	0.050
-82.640	-11.657	0.285	0.184
-81.626	800.000	-0.056	-0.151
-80.611	375.638	0.080	-0.160
-79.597	-119.700	-0.229	0.039
-78.582	76.358	-0.165	0.172
-77.567	800.000	0.057	0.159
-76.553	-76.625	-0.347	0.120
-75.538	-50.329	-0.191	-0.089
-74.524	-111.160	0.046	-0.009
-73.509	255.902	-0.183	-0.308
-72.494	589.710	-0.148	0.359
-71.480	-155.446	0.181	-0.012
-70.465	429.135	0.052	-0.110
-69.451	-200.000	-0.001	0.130
-68.436	-91.230	0.358	-0.101
-67.422	-55.361	-0.076	-0.034
-66.407	800.000	-0.029	-0.116
-65.392	-51.273	-0.131	0.060
-64.378	-158.050	-0.567	-0.033
-63.363	27.846	-0.035	0.029
-62.349	94.442	0.064	0.071
-61.334	145.095	-0.809	-1.063
-60.319	83.587	0.273	0.293
-59.305	800.000	-0.296	-1.137
-58.290	460.290	0.502	1.098
-57.276	800.000	0.487	1.425
-56.261	-200.000	96.122	577.336
-55.246	562.704	1376.697	3271.789
-54.232	159.822	2561.496	3503.609
-53.217	106.512	2267.752	2640.651
-52.203	42.192	1892.809	1688.208
-51.188	36.325	1683.033	1456.932
-50.173	33.637	1638.135	1398.228
-49.159	50.928	1684.603	1567.427
-48.144	52.599	1701.151	1595.241
-47.130	35.710	1662.043	1433.948
-46.115	33.077	1646.857	1401.300
-45.100	32.897	1642.250	1395.989
-44.086	32.810	1639.439	1392.901
-43.071	32.869	1636.898	1391.127
-42.057	32.668	1634.800	1387.807
-41.042	32.711	1632.829	1386.398
-40.027	32.887	1630.538	1385.684
-39.013	32.773	1628.766	1383.293
-37.998	32.765	1627.180	1381.831
-36.984	32.864	1625.679	1381.222
-35.969	32.826	1624.915	1380.241
-34.954	33.058	1622.655	1379.963
-33.940	32.982	1620.829	1377.803
-32.925	32.917	1619.270	1375.944
-31.911	32.877	1617.721	1374.285
-30.896	32.899	1616.182	1373.083
-29.881	32.987	1613.889	1371.721
-28.867	33.011	1612.431	1370.601
-27.852	32.952	1611.116	1369.000
-26.838	32.925	1609.612	1367.475
-25.823	32.898	1608.127	1365.961
-24.809	32.991	1606.322	1365.049
-23.794	32.947	1605.071	1363.611
-22.779	32.937	1603.839	1362.441
-21.765	33.011	1601.770	1361.157
-20.750	32.885	1600.635	1359.232
-19.736	32.969	1599.022	1358.414
-18.721	33.014	1597.844	1357.683
-17.706	33.012	1595.927	1355.987
-16.692	32.983	1594.710	1354.690
-15.677	32.929	1593.415	1353.150
-14.663	32.966	1591.947	1352.112
-13.648	32.929	1590.340	1350.435
-12.633	32.935	1588.893	1349.189
-11.619	33.052	1586.969	1348.343
-10.604	32.947	1586.473	1347.114
-9.590	32.983	1584.742	1345.847
-8.575	33.047	1583.331	1345.051
-7.560	33.014	1582.438	1344.007
-6.546	32.932	1581.217	1342.334
-5.531	32.896	1579.918	1340.922
-4.517	32.965	1579.123	1340.684
-3.502	32.939	1578.095	1339.572
-2.487	32.915	1575.788	1337.394
-1.473	32.648	1564.576	1325.942
-0.458	30.150	1544.457	1291.465
0.556	27.261	1545.703	1262.686
1.571	25.078	1569.547	1266.643
2.586	24.757	1583.386	1275.408
3.600	22.134	1530.308	1214.443
4.615	12.620	1419.974	1065.473
5.629	3.828	1353.267	960.883
6.644	2.228	1344.843	944.929
7.659	2.169	1342.772	943.027
8.673	2.012	1342.342	941.669
9.688	1.902	1340.661	939.731
10.702	1.770	1336.887	936.194
11.717	5.307	1344.044	962.944
12.731	15.473	1363.573	1040.133
13.746	23.983	1377.818	1103.949
14.761	26.222	1380.659	1120.027
15.775	26.555	1380.470	1121.838
16.790	26.521	1380.338	1121.424
17.804	26.683	1379.437	1121.592
18.819	26.864	1379.186	1122.412
19.834	27.035	1378.019	1122.421
20.848	27.051	1377.716	1122.170
21.863	27.064	1376.828	1121.431
22.877	27.075	1375.694	1120.475
23.892	26.973	1375.195	1119.338
24.907	26.958	1374.254	1118.382
25.921	26.968	1373.392	1117.642
26.936	27.040	1372.093	1116.930
27.950	26.900	1371.617	1115.584
28.965	27.030	1370.404	1115.298
29.980	26.976	1368.919	1113.656
30.994	26.971	1367.781	1112.601
32.009	27.012	1366.145	1111.424
33.023	27.003	1365.075	1110.401
34.038	26.998	1363.957	1109.364
35.053	26.904	1363.463	1108.286
36.067	27.110	1362.159	1108.386
37.082	26.971	1361.349	1106.783
38.096	26.956	1360.086	1105.569
39.111	27.022	1359.692	1105.547
40.126	27.050	1358.788	1104.886
41.140	26.941	1358.414	1103.825
42.155	26.916	1358.573	1103.702
43.169	26.987	1358.151	1103.693
44.184	27.015	1357.434	1103.181
45.199	26.956	1357.294	1102.611
46.213	27.023	1356.611	1102.369
47.228	27.078	1355.548	1101.738
48.242	26.959	1354.902	1100.396
49.257	27.071	1353.120	1099.527
50.271	27.102	1351.617	1098.396
51.286	26.877	1350.836	1096.309
52.301	27.001	1349.475	1095.854
53.315	26.986	1348.469	1094.851
54.330	26.992	1347.534	1094.030
55.344	26.901	1346.912	1092.878
56.359	26.962	1345.740	1092.196
57.374	27.074	1344.724	1091.951
58.388	26.907	1344.416	1090.600
59.403	26.968	1344.045	1090.568
60.417	27.014	1342.792	1089.730
61.432	26.979	1342.057	1088.827
62.447	27.027	1341.400	1088.485
63.461	27.008	1340.550	1087.589
64.476	26.954	1339.545	1086.353
65.490	26.959	1338.259	1085.246
66.505	26.990	1336.768	1084.122
67.520	27.146	1335.227	1083.710
68.534	27.065	1334.980	1082.933
69.549	26.955	1334.102	1081.463
70.563	26.994	1333.172	1080.846
71.578	27.012	1332.088	1079.980
72.593	26.969	1331.303	1078.994
73.607	26.929	1331.036	1078.446
74.622	27.080	1329.786	1078.235
75.636	27.033	1329.201	1077.384
76.651	26.933	1328.688	1076.279
77.666	27.013	1327.740	1075.892
78.680	26.983	1327.649	1075.544
79.695	26.978	1326.576	1074.550
80.709	26.919	1326.023	1073.655
81.724	27.072	1324.628	1073.337
82.739	26.940	1324.115	1072.048
83.753	26.912	1323.415	1071.219
84.768	26.984	1322.323	1070.667
85.782	27.009	1320.798	1069.483
86.797	27.008	1319.861	1068.627
87.812	27.033	1318.392	1067.488
88.826	27.031	1317.671	1066.798
89.841	27.034	1316.886	1066.086
90.855	27.126	1315.776	1065.633
91.870	26.987	1314.781	1063.918
92.884	27.005	1314.189	1063.450
93.899	27.075	1313.322	1063.065
94.914	27.111	1312.413	1062.444
95.928	27.088	1311.679	1061.620
96.943	27.067	1311.032	1060.880
97.957	27.107	1310.241	1060.382
98.972	26.978	1309.870	1059.234
99.987	26.938	1308.783	1058.027
101.001	26.953	1307.808	1057.232
102.016	27.073	1306.928	1057.130
103.030	27.117	1305.738	1056.327
104.045	27.048	1305.311	1055.487
105.060	27.055	1304.080	1054.441
106.074	27.080	1302.996	1053.617
107.089	27.095	1302.318	1053.060
108.103	27.054	1301.194	1051.822
109.118	27.025	1300.389	1050.910
110.133	27.220	1298.462	1050.383
111.147	27.135	1297.571	1049.079
112.162	27.144	1296.504	1048.178
113.176	27.073	1295.654	1046.986
114.191	27.121	1295.023	1046.660
115.206	27.091	1293.829	1045.432
116.220	27.156	1292.737	1044.829
117.235	27.095	1292.244	1043.987
118.249	27.055	1291.274	1042.881
119.264	27.041	1290.138	1041.792
120.279	27.140	1289.942	1042.109
121.293	27.211	1288.861	1041.550
122.308	27.203	1287.756	1040.521
123.322	27.202	1286.710	1039.580
124.337	27.259	1285.835	1039.103
125.352	27.174	1285.825	1038.518
126.366	27.232	1284.599	1037.769
127.381	27.247	1283.714	1037.049
128.395	27.214	1282.583	1035.855
129.410	27.277	1281.814	1035.499
130.424	27.191	1281.282	1034.490
131.439	27.236	1280.346	1033.900
132.454	27.240	1279.651	1033.264
133.468	27.238	1279.129	1032.744
134.483	27.253	1278.756	1032.438
135.497	27.172	1277.848	1031.154
136.512	27.143	1276.842	1030.084
137.527	27.224	1274.965	1028.935
138.541	27.192	1274.175	1028.028
139.556	27.213	1273.006	1027.112
140.570	27.178	1272.002	1026.012
141.585	27.103	1271.321	1024.951
142.600	27.227	1270.239	1024.686
143.614	27.255	1269.178	1023.899
144.629	27.121	1268.591	1022.578
145.643	26.982	1267.677	1020.971
146.658	26.986	1266.636	1020.066
147.673	27.091	1265.614	1019.742
148.687	27.030	1264.250	1018.207
149.702	27.104	1263.680	1018.075
150.716	27.074	1262.371	1016.765
151.731	27.126	1261.585	1016.330
152.746	27.126	1260.379	1015.268
153.760	27.185	1259.678	1014.945
154.775	27.117	1258.658	1013.652
155.789	27.149	1257.763	1013.019
156.804	27.163	1256.802	1012.235
157.819	27.229	1256.096	1011.945
158.833	27.168	1255.316	1010.885
159.848	27.261	1254.349	1010.534
160.862	27.218	1254.255	1010.130
161.877	27.222	1252.872	1008.951
162.892	27.239	1252.218	1008.429
163.906	27.257	1251.442	1007.815
164.921	27.301	1250.231	1006.992
165.935	27.311	1249.746	1006.568
166.950	27.202	1249.585	1005.749
167.964	27.360	1248.757	1005.863
168.979	27.221	1248.334	1004.668
169.994	27.317	1247.783	1004.662
171.008	27.365	1246.759	1004.018
172.023	27.336	1245.976	1003.135
173.037	27.368	1245.395	1002.758
174.052	27.325	1244.743	1001.906
175.067	27.318	1243.979	1001.163
176.081	27.365	1242.940	1000.497
177.096	27.304	1242.424	999.657
178.110	27.285	1241.492	998.716
179.125	27.395	1240.316	998.284
180.140	27.399	1239.663	997.692
181.154	27.199	1238.682	995.719
182.169	27.256	1237.559	995.041
183.183	27.425	1236.119	994.721
184.198	27.381	1234.970	993.466
185.213	27.319	1234.861	992.950
186.227	27.424	1233.621	992.441
187.242	27.425	1232.467	991.427
188.256	27.415	1231.707	990.675
189.271	27.456	1230.688	989.990
190.286	27.450	1230.465	989.689
191.300	27.465	1229.644	989.027
192.315	27.275	1229.566	987.841
193.329	27.490	1228.830	988.333
194.344	27.428	1228.551	987.680
195.359	27.387	1228.258	987.139
196.373	27.243	1227.688	985.813
197.388	27.390	1226.918	985.904
198.402	27.373	1227.042	985.824
199.417	27.376	1226.319	985.170
200.432	27.448	1225.534	984.841
201.446	27.336	1225.391	984.032
202.461	27.346	1224.416	983.220
203.475	27.444	1223.566	982.976
204.490	27.338	1222.897	981.780
205.504	27.382	1221.381	980.712
206.519	27.508	1220.989	980.993
207.534	27.471	1219.983	979.897
208.548	27.409	1219.122	978.783
209.563	27.444	1218.011	977.996
210.577	27.453	1217.631	977.651
211.592	27.399	1216.918	976.706
212.607	27.467	1215.687	975.992
213.621	27.637	1214.465	975.835
214.636	27.562	1214.319	975.230
215.650	27.574	1213.242	974.341
216.665	27.416	1212.593	972.891
217.680	27.438	1211.708	972.215
218.694	27.502	1211.070	971.957
219.709	27.506	1210.411	971.366
220.723	27.487	1209.615	970.539
221.738	27.519	1208.831	969.991
222.753	27.537	1208.143	969.451
223.767	27.564	1207.657	969.119
224.782	27.602	1207.287	968.935
225.796	27.584	1206.710	968.296
226.811	27.618	1205.662	967.545
227.826	27.599	1205.385	967.136
228.840	27.697	1204.943	967.216
229.855	27.621	1204.540	966.408
230.869	27.659	1203.406	965.611
231.884	27.666	1202.718	965.012
232.899	27.610	1201.752	963.856
233.913	27.591	1201.649	963.587
234.928	27.655	1201.282	963.543
235.942	27.740	1200.474	963.260
236.957	27.689	1199.633	962.231
237.972	27.602	1199.159	961.305
238.986	27.658	1198.661	961.117
240.001	27.789	1198.058	961.238
241.015	27.903	1197.296	961.143
242.030	27.909	1195.949	960.006
243.045	27.734	1195.506	958.646
244.059	27.852	1194.559	958.422
245.074	27.827	1193.882	957.666
246.088	27.808	1193.003	956.774
247.103	27.727	1192.705	956.027
248.117	27.812	1191.631	955.528
249.132	27.803	1190.532	954.512
250.147	27.919	1190.231	954.793
251.161	27.947	1189.307	954.115
252.176	27.958	1188.714	953.610
253.190	27.841	1188.381	952.650
254.205	27.959	1187.257	952.282
255.220	27.968	1186.830	951.900
256.234	27.967	1186.479	951.528
257.249	27.903	1185.718	950.502
258.263	27.858	1185.481	949.992
259.278	27.913	1184.936	949.756
260.293	27.972	1184.186	949.380
261.307	27.902	1183.816	948.634
262.322	27.975	1182.901	948.196
263.336	27.885	1182.423	947.261
264.351	28.046	1181.866	947.569
265.366	27.857	1181.235	946.001
266.380	27.988	1180.555	946.048
267.395	27.879	1179.841	944.827
268.409	27.922	1179.288	944.526
269.424	27.914	1178.901	944.089
270.439	27.995	1178.107	943.790
271.453	28.014	1177.473	943.297
272.468	27.864	1177.118	942.151
273.482	27.870	1176.404	941.532
274.497	28.074	1175.572	941.832
275.512	28.047	1175.277	941.374
276.526	28.107	1174.195	940.731
277.541	28.119	1173.216	939.926
278.555	28.009	1172.970	939.079
279.570	28.004	1172.637	938.705
280.585	28.183	1171.457	938.594
281.599	28.028	1170.651	937.072
282.614	28.186	1169.590	936.946
283.628	28.135	1168.673	935.870
284.643	28.233	1167.956	935.716
285.657	28.064	1167.530	934.429
286.672	28.133	1166.608	933.957
287.687	28.126	1165.800	933.191
288.701	28.326	1164.621	933.184
289.716	28.152	1164.870	932.416
290.730	28.155	1164.041	931.685
291.745	28.217	1163.205	931.251
292.760	28.241	1162.598	930.803
293.774	28.316	1161.890	930.536
294.789	28.185	1161.892	929.788
295.803	28.136	1161.372	929.041
296.818	28.141	1160.610	928.377
297.833	28.162	1160.059	927.957
298.847	28.308	1159.413	928.099
299.862	28.387	1158.292	927.519
300.876	28.277	1157.614	926.341
301.891	28.307	1157.161	926.047
302.906	28.329	1156.387	925.454
303.920	28.412	1155.997	925.479
304.935	28.486	1154.994	924.968
305.949	28.299	1154.421	923.486
306.964	28.301	1154.013	923.088
307.979	28.333	1153.311	922.604
308.993	28.442	1152.740	922.614
310.008	28.363	1152.361	921.836
311.022	28.326	1151.200	920.635
312.037	28.423	1150.214	920.253
313.052	28.374	1149.679	919.499
314.066	28.413	1148.546	918.708
315.081	28.352	1148.168	918.017
316.095	28.412	1147.629	917.804
317.110	28.418	1146.812	917.103
318.125	28.400	1146.345	916.558
319.139	28.358	1145.923	915.926
320.154	28.456	1144.889	915.511
321.168	28.514	1144.513	915.417
322.183	28.427	1144.022	914.512
323.197	28.396	1143.183	913.605
324.212	28.596	1142.184	913.722
325.227	28.544	1142.241	913.428
326.241	28.460	1141.907	912.660
327.256	28.577	1140.886	912.344
328.270	28.627	1140.274	912.026
329.285	28.574	1139.333	910.930
330.300	28.565	1138.510	910.142
331.314	28.541	1138.046	909.572
332.329	28.571	1136.901	908.726
333.343	28.671	1136.729	909.005
334.358	28.621	1135.579	907.755
335.373	28.656	1134.855	907.271
336.387	28.582	1134.235	906.328
337.402	28.633	1133.798	906.150
338.416	28.669	1133.148	905.730
339.431	28.686	1132.594	905.288
340.446	28.708	1131.955	904.809
341.460	28.769	1131.279	904.487
342.475	28.798	1130.196	903.684
343.489	28.707	1129.691	902.755
344.504	28.793	1128.883	902.449
345.519	28.771	1127.794	901.390
346.533	28.728	1127.417	900.800
347.548	28.755	1126.872	900.420
348.562	28.860	1125.737	899.944
349.577	28.880	1125.113	899.464
350.592	28.713	1124.420	898.015
351.606	28.824	1123.575	897.802
352.621	28.830	1123.216	897.464
353.635	28.782	1123.031	897.003
354.650	28.844	1121.690	896.156
355.665	28.876	1121.426	896.020
356.679	28.871	1120.745	895.373
357.694	28.866	1120.082	894.741
358.708	28.835	1119.521	894.063
359.723	28.779	1119.097	893.373
360.738	28.833	1118.403	893.001
361.752	28.909	1117.868	892.862
362.767	28.985	1117.183	892.604
363.781	29.022	1116.687	892.312
364.796	29.085	1115.835	891.855
365.810	28.925	1115.567	890.786
366.825	29.014	1114.902	890.609
367.840	29.105	1114.445	890.604
368.854	29.142	1113.486	889.939
369.869	29.099	1113.043	889.299
370.883	29.118	1112.386	888.789
371.898	29.033	1111.762	887.799
372.913	29.075	1111.248	887.511
373.927	29.063	1110.884	887.087
374.942	29.047	1110.403	886.544
375.956	29.043	1109.653	885.849
376.971	29.023	1109.488	885.544
377.986	29.109	1108.890	885.402
379.000	29.209	1108.116	885.184
380.015	29.181	1107.717	884.654
381.029	29.208	1107.305	884.378
382.044	29.208	1106.198	883.415
383.059	29.163	1105.757	882.768
384.073	29.236	1105.095	882.512
385.088	29.274	1103.782	881.566
386.102	29.268	1102.980	880.820
387.117	29.263	1102.308	880.179
388.132	29.292	1101.318	879.451
389.146	29.290	1100.817	878.964
390.161	29.170	1100.431	878.004
391.175	29.284	1099.527	877.748
392.190	29.285	1099.004	877.260
393.205	29.359	1098.245	876.924
394.219	29.322	1097.708	876.245
395.234	29.429	1096.632	875.815
396.248	29.489	1095.664	875.251
397.263	29.400	1095.003	874.223
398.278	29.426	1094.807	874.112
399.292	29.427	1094.057	873.442
400.307	29.382	1093.623	872.801
401.321	29.397	1093.028	872.322
402.336	29.459	1091.973	871.696
403.350	29.353	1091.715	870.911
404.365	29.468	1090.719	870.584
405.380	29.494	1090.328	870.316
406.394	29.402	1089.469	869.120
407.409	29.524	1088.957	869.212
408.423	29.455	1088.386	868.352
409.438	29.556	1087.396	867.961
410.453	29.640	1086.567	867.617
411.467	29.500	1086.101	866.511
412.482	29.515	1085.575	866.083
413.496	29.494	1084.988	865.443
414.511	29.652	1084.196	865.474
415.526	29.660	1083.798	865.117
416.540	29.614	1083.448	864.547
417.555	29.627	1083.056	864.215
418.569	29.668	1082.143	863.603
419.584	29.634	1082.012	863.264
420.599	29.659	1081.453	862.858
421.613	104.227	1319.910	1455.671
422.628	96.961	1354.635	1455.766
