DTS Sentinel unit serial number:	SN413079Multiplexer serial number:	ORYXHardware model number:	OX4-SRSoftware version number:	ORYX F/W v4.00 Oryx Data Collector v3.7.2.0data status	okinstallation	princeton_trtdifferential loss correction	single-endedforward channel	channel 2reverse channel	N/Adate	2019/09/11time	09:53:11forward acquisition time	60.00reverse acquisition time	0.00gamma	496.2192k internal	0.2315k external	0.2315temperature offset calibration	0.9968default loss term (dB/km)	0.3790temperature slope calibration	1.0000multiplexer offset coefficient	1.0000multiplexer slope coefficient	1.0000fibre end	0.00T internal ref (°C)	35.12T ext. ref 1 (°C)	0.15T ext. ref 2 (°C)	32.42length (m)	temperature (°C)	Stokes	anti-Stokes-747.200	-119.015	0.193	-0.034
-746.185	800.000	0.082	0.268
-745.171	-166.191	-0.305	-0.013
-744.156	-78.778	0.272	-0.094
-743.142	-67.827	-0.231	0.092
-742.127	504.344	-0.052	-0.123
-741.112	326.641	-0.097	0.188
-740.098	-82.749	-0.079	0.026
-739.083	-200.000	-0.018	-0.212
-738.069	-200.000	-0.028	0.179
-737.054	-143.489	-0.439	-0.042
-736.039	-98.682	-0.192	-0.049
-735.025	586.243	0.017	0.043
-734.010	40.691	-0.282	-0.257
-732.996	-91.151	0.214	0.062
-731.981	-19.903	0.252	-0.158
-730.966	-18.580	-0.229	0.145
-729.952	535.434	-0.029	0.070
-728.937	297.255	-0.063	0.116
-727.923	-48.540	-0.141	-0.069
-726.908	-35.197	0.182	0.100
-725.894	91.368	0.117	-0.133
-724.879	16.221	-0.084	-0.067
-723.864	288.740	-0.147	-0.270
-722.850	-84.158	0.152	0.049
-721.835	800.000	-0.106	-0.310
-720.821	15.660	-0.139	0.111
-719.806	-129.962	-0.327	-0.045
-718.791	-200.000	0.021	-0.197
-717.777	528.715	0.053	-0.126
-716.762	800.000	0.021	0.093
-715.748	-200.000	0.031	-0.286
-714.733	-132.885	-0.086	0.011
-713.718	800.000	0.076	0.230
-712.704	800.000	-0.037	0.122
-711.689	-47.939	-0.192	0.094
-710.675	252.939	0.133	-0.229
-709.660	172.185	0.311	-0.452
-708.645	-81.991	-0.214	0.071
-707.631	338.618	-0.056	-0.111
-706.616	-72.053	-0.106	-0.040
-705.602	144.846	-0.089	-0.121
-704.587	-143.603	-0.133	-0.013
-703.572	155.502	-0.122	-0.169
-702.558	-137.742	0.069	0.008
-701.543	-196.808	-0.368	-0.002
-700.529	-174.043	0.021	-0.001
-699.514	-41.866	-0.169	-0.088
-698.499	32.705	0.113	0.098
-697.485	724.585	-0.045	-0.122
-696.470	-57.155	-0.184	-0.082
-695.456	521.293	0.088	0.210
-694.441	71.080	-0.177	-0.185
-693.426	41.460	0.121	-0.111
-692.412	80.857	0.065	-0.071
-691.397	-182.385	-0.408	-0.008
-690.383	800.000	0.028	-0.089
-689.368	31.469	0.014	0.012
-688.354	174.806	-0.098	0.143
-687.339	-200.000	0.015	-0.160
-686.324	78.233	0.139	0.150
-685.310	-118.798	-0.083	-0.015
-684.295	-163.999	-0.250	-0.012
-683.281	539.309	0.101	-0.242
-682.266	281.215	-0.235	-0.425
-681.251	37.547	0.032	0.029
-680.237	-116.900	0.222	-0.041
-679.222	-130.621	0.336	-0.046
-678.208	-200.000	0.029	-0.168
-677.193	140.004	-0.064	-0.086
-676.178	-64.500	-0.374	0.154
-675.164	-92.872	-0.115	-0.033
-674.149	38.823	0.195	-0.176
-673.135	-69.106	-0.023	0.009
-672.120	-99.744	-0.239	-0.061
-671.105	20.506	0.410	-0.335
-670.091	311.984	0.037	0.071
-669.076	-121.860	-0.263	0.044
-668.062	447.097	-0.069	-0.154
-667.047	-10.121	0.447	0.300
-666.032	-194.148	-0.336	0.003
-665.018	175.849	-0.094	0.138
-664.003	-200.000	-0.020	-0.093
-662.989	228.889	-0.186	0.307
-661.974	-200.000	-0.052	0.515
-660.959	-150.097	-0.411	0.032
-659.945	-200.000	0.062	-0.331
-658.930	-112.661	-0.217	-0.044
-657.916	-200.000	-0.022	0.161
-656.901	-119.480	-0.008	-0.001
-655.886	341.986	0.034	-0.067
-654.872	-96.977	0.163	0.043
-653.857	-84.546	-0.063	-0.020
-652.843	238.107	0.115	0.193
-651.828	400.696	-0.063	-0.133
-650.814	800.000	-0.051	0.172
-649.799	-103.508	0.101	-0.024
-648.784	-12.132	-0.019	-0.013
-647.770	50.199	-0.092	0.087
-646.755	39.178	0.270	-0.244
-645.741	-148.454	-0.262	-0.022
-644.726	-200.000	-0.010	0.065
-643.711	-22.503	0.142	-0.087
-642.697	-115.840	0.284	0.054
-641.682	-200.000	-0.008	-0.128
-640.668	290.614	-0.060	-0.110
-639.653	-165.702	-0.210	0.009
-638.638	-26.987	-0.214	0.126
-637.624	640.932	-0.136	0.350
-636.609	772.880	-0.063	-0.174
-635.595	476.315	-0.045	0.103
-634.580	49.063	0.182	0.173
-633.565	-77.748	-0.208	-0.072
-632.551	33.523	0.087	0.076
-631.536	800.000	-0.109	-0.343
-630.522	460.161	0.079	-0.177
-629.507	3.754	-0.371	0.274
-628.492	716.036	0.087	0.232
-627.478	393.517	-0.128	-0.269
-626.463	10.232	0.205	-0.157
-625.449	36.694	0.353	-0.314
-624.434	-27.042	0.106	-0.062
-623.419	91.743	0.051	-0.057
-622.405	708.198	-0.102	-0.271
-621.390	-200.000	0.006	-0.153
-620.376	-5.336	-0.130	-0.090
-619.361	59.779	0.202	-0.201
-618.346	-120.752	-0.189	-0.032
-617.332	503.827	-0.116	-0.271
-616.317	-141.728	-0.222	-0.022
-615.303	-174.608	-0.014	0.000
-614.288	-200.000	-0.035	0.378
-613.273	800.000	-0.145	0.454
-612.259	437.377	-0.110	0.242
-611.244	-8.808	0.063	-0.042
-610.230	-138.722	0.076	0.008
-609.215	-15.057	-0.140	0.090
-608.201	-118.297	0.246	0.044
-607.186	-34.962	-0.286	-0.158
-606.171	-200.000	-0.038	-0.224
-605.157	-200.000	0.050	0.293
-604.142	120.049	0.203	0.254
-603.128	-86.383	0.187	-0.058
-602.113	-35.745	0.155	-0.085
-601.098	800.000	-0.026	0.113
-600.084	-139.223	0.124	-0.013
-599.069	456.122	-0.070	0.157
-598.055	-28.289	-0.563	0.328
-597.040	-9.153	0.322	0.217
-596.025	16.080	-0.135	0.107
-595.011	169.339	-0.188	-0.270
-593.996	-108.321	-0.120	0.026
-592.982	95.897	0.103	0.118
-591.967	20.044	0.134	-0.109
-590.952	95.078	0.103	0.118
-589.938	-162.036	0.142	-0.007
-588.923	428.139	-0.098	-0.214
-587.909	139.228	0.186	-0.247
-586.894	602.764	0.067	-0.169
-585.879	86.218	0.062	0.069
-584.865	-117.690	0.329	0.060
-583.850	-200.000	-0.012	-0.216
-582.836	-62.440	0.298	-0.125
-581.821	172.963	0.024	-0.034
-580.806	-56.037	-0.277	-0.124
-579.792	83.018	-0.299	0.327
-578.777	-200.000	-0.028	0.133
-577.763	159.548	0.011	-0.016
-576.748	-5.311	0.045	-0.031
-575.733	-200.000	-0.021	0.229
-574.719	-132.364	0.103	-0.013
-573.704	-200.000	-0.029	0.187
-572.690	98.697	0.046	-0.053
-571.675	-200.000	-0.030	-0.327
-570.661	800.000	0.038	0.139
-569.646	-200.000	-0.007	-0.134
-568.631	-54.008	-0.161	0.074
-567.617	-85.431	-0.193	0.061
-566.602	22.621	-0.258	-0.212
-565.588	-200.000	0.024	0.203
-564.573	-75.137	0.214	-0.077
-563.558	800.000	-0.067	0.200
-562.544	319.016	-0.221	0.422
-561.529	-47.434	0.108	0.053
-560.515	252.421	0.116	-0.199
-559.500	-64.947	0.367	0.149
-558.485	172.406	-0.127	0.184
-557.471	-200.000	0.003	-0.218
-556.456	-50.837	-0.154	0.073
-555.442	-30.265	0.140	0.080
-554.427	-200.000	0.009	0.257
-553.412	-200.000	0.009	0.105
-552.398	226.391	-0.190	0.310
-551.383	-78.018	0.157	-0.055
-550.369	102.138	0.184	0.216
-549.354	6.504	-0.126	-0.094
-548.339	-200.000	-0.007	0.333
-547.325	245.350	0.119	-0.202
-546.310	-112.790	0.361	0.072
-545.296	132.308	-0.109	-0.142
-544.281	-200.000	-0.023	-0.282
-543.266	-100.163	-0.333	0.083
-542.252	407.756	-0.007	-0.016
-541.237	778.042	0.087	-0.239
-540.223	800.000	0.020	-0.072
-539.208	-111.710	-0.376	-0.077
-538.193	90.102	-0.170	0.192
-537.179	-200.000	0.063	0.407
-536.164	210.689	0.120	0.189
-535.150	124.798	0.210	0.266
-534.135	180.034	-0.301	-0.444
-533.121	-0.767	0.109	-0.078
-532.106	-56.279	-0.315	-0.141
-531.091	-130.028	0.171	-0.024
-530.077	326.863	-0.057	0.109
-529.062	-22.975	0.086	-0.052
-528.048	800.000	0.050	-0.144
-527.033	-63.280	0.118	-0.049
-526.018	20.688	0.150	0.122
-525.004	124.398	0.098	-0.124
-523.989	-68.647	-0.144	-0.056
-522.975	603.387	-0.109	0.271
-521.960	-41.737	0.241	0.124
-520.945	4.788	0.355	-0.262
-519.931	67.919	0.250	0.257
-518.916	14.840	-0.226	0.177
-517.902	3.221	0.111	0.081
-516.887	-121.198	-0.236	-0.040
-515.872	675.068	-0.044	-0.115
-514.858	45.069	-0.246	0.228
-513.843	-129.861	0.297	-0.041
-512.829	55.054	0.070	0.068
-511.814	22.684	0.263	0.217
-510.799	-152.821	-0.180	0.013
-509.785	-200.000	0.018	0.233
-508.770	89.308	0.047	-0.053
-507.756	-41.056	0.306	-0.159
-506.741	643.852	-0.096	0.246
-505.726	-63.810	-0.525	-0.216
-504.712	444.252	-0.132	-0.291
-503.697	-48.272	0.056	0.027
-502.683	-62.974	0.196	-0.081
-501.668	580.949	-0.140	-0.345
-500.653	-142.455	-0.381	-0.038
-499.639	63.860	-0.324	0.326
-498.624	-155.866	-0.270	0.017
-497.610	369.656	-0.180	-0.366
-496.595	60.037	0.110	-0.109
-495.581	714.582	0.077	-0.206
-494.566	286.954	-0.219	-0.398
-493.551	-88.662	-0.312	0.093
-492.537	-140.102	-0.209	-0.022
-491.522	5.822	0.070	-0.052
-490.508	23.768	0.089	0.074
-489.493	94.680	0.111	0.126
-488.478	17.272	0.210	-0.168
-487.464	379.150	0.096	-0.198
-486.449	-200.000	-0.040	0.195
-485.435	800.000	0.037	-0.143
-484.420	329.733	-0.056	-0.107
-483.405	-27.227	-0.173	-0.101
-482.391	-5.602	0.103	0.071
-481.376	574.882	-0.086	0.210
-480.362	-200.000	0.050	-0.359
-479.347	-79.792	0.457	-0.154
-478.332	89.560	0.125	0.139
-477.318	-200.000	0.040	-0.337
-476.303	-79.916	0.162	-0.055
-475.289	-63.570	-0.281	0.116
-474.274	-23.803	-0.180	-0.108
-473.259	-57.104	-0.485	-0.214
-472.245	507.267	-0.045	0.105
-471.230	-200.000	0.025	-0.145
-470.216	-89.399	0.142	0.042
-469.201	162.394	0.050	-0.070
-468.186	-200.000	0.010	0.075
-467.172	-200.000	-0.022	-0.265
-466.157	-94.974	-0.111	0.030
-465.143	-141.824	0.156	-0.016
-464.128	-132.672	0.175	0.022
-463.113	-64.412	-0.239	-0.097
-462.099	-12.372	-0.125	0.082
-461.084	-181.632	-0.231	-0.004
-460.070	-19.054	0.158	0.099
-459.055	-76.052	-0.018	0.006
-458.040	-79.662	-0.089	-0.030
-457.026	-51.815	0.171	0.080
-456.011	-200.000	-0.002	0.094
-454.997	-200.000	-0.026	0.296
-453.982	800.000	0.092	-0.269
-452.968	68.434	-0.122	0.125
-451.953	182.346	-0.206	-0.304
-450.938	645.606	0.117	0.298
-449.924	800.000	0.042	0.131
-448.909	147.401	0.139	-0.188
-447.895	101.517	-0.035	0.040
-446.880	-44.937	0.140	-0.070
-445.865	27.524	0.281	-0.237
-444.851	-72.469	-0.441	-0.163
-443.836	-200.000	-0.018	-0.306
-442.822	-92.724	-0.340	-0.095
-441.807	-84.213	0.063	0.020
-440.792	800.000	-0.090	-0.330
-439.778	92.176	-0.030	0.034
-438.763	-24.255	0.265	0.159
-437.749	-27.511	-0.248	-0.144
-436.734	658.074	0.053	-0.138
-435.719	-200.000	-0.049	-0.312
-434.705	-5.676	-0.164	-0.112
-433.690	201.824	0.153	-0.236
-432.676	473.874	-0.119	-0.268
-431.661	-74.608	0.075	-0.027
-430.646	800.000	0.056	-0.166
-429.632	-115.872	0.176	-0.033
-428.617	800.000	0.044	-0.180
-427.603	-85.611	-0.144	-0.045
-426.588	-200.000	-0.010	0.215
-425.573	274.443	0.064	0.113
-424.559	-77.800	0.257	0.089
-423.544	800.000	0.062	0.175
-422.530	102.617	-0.121	-0.142
-421.515	-34.805	-0.145	0.079
-420.500	-30.759	-0.263	0.149
-419.486	321.944	0.013	-0.026
-418.471	-141.559	-0.031	-0.003
-417.457	-133.943	0.131	-0.016
-416.442	-42.318	-0.144	0.074
-415.428	-29.628	-0.306	0.175
-414.413	800.000	0.010	-0.039
-413.398	-102.983	-0.130	-0.031
-412.384	-114.838	0.134	0.026
-411.369	238.330	-0.123	-0.204
-410.355	-135.189	-0.166	-0.020
-409.340	3.069	-0.057	0.041
-408.325	-44.748	-0.082	-0.041
-407.311	800.000	0.079	0.224
-406.296	-97.201	0.318	0.083
-405.282	69.367	0.122	-0.125
-404.267	-200.000	0.086	-0.453
-403.252	800.000	0.086	-0.275
-402.238	-35.680	-0.171	0.093
-401.223	37.328	0.149	-0.132
-400.209	-124.155	-0.249	-0.039
-399.194	-101.588	0.149	-0.036
-398.179	213.463	0.092	-0.145
-397.165	-200.000	0.066	0.316
-396.150	-1.514	-0.246	0.173
-395.136	241.648	0.181	0.302
-394.121	52.039	-0.217	0.207
-393.106	-200.000	0.039	-0.310
-392.092	196.160	0.021	-0.032
-391.077	70.957	-0.121	0.126
-390.063	-200.000	-0.030	-0.165
-389.048	114.450	-0.133	-0.161
-388.033	-80.777	0.137	-0.045
-387.019	-145.582	-0.229	0.021
-386.004	166.604	-0.324	-0.459
-384.990	51.199	-0.146	0.138
-383.975	36.200	0.047	0.041
-382.960	-107.632	-0.165	-0.036
-381.946	-78.547	0.326	-0.111
-380.931	206.821	-0.241	0.375
-379.917	70.158	-0.140	-0.144
-378.902	503.356	0.139	-0.322
-377.888	-164.499	0.365	0.017
-376.873	-114.443	0.133	-0.026
-375.858	361.186	0.102	-0.205
-374.844	548.158	-0.098	0.235
-373.829	-200.000	-0.024	-0.123
-372.815	-200.000	-0.037	-0.178
-371.800	328.075	0.097	0.186
-370.785	100.594	-0.168	0.195
-369.771	0.423	-0.160	-0.114
-368.756	-54.307	0.291	0.132
-367.742	-150.277	0.285	-0.022
-366.727	-16.570	-0.176	0.111
-365.712	-39.394	0.100	0.052
-364.698	196.169	0.140	-0.212
-363.683	-12.078	0.173	0.113
-362.669	-200.000	0.014	-0.192
-361.654	-200.000	-0.044	0.327
-360.639	-15.900	-0.188	0.120
-359.625	-200.000	0.016	0.194
-358.610	-60.200	-0.236	-0.100
-357.596	-50.864	-0.123	0.058
-356.581	-108.810	-0.370	0.079
-355.566	-200.000	-0.008	0.221
-354.552	-28.847	0.307	0.176
-353.537	607.097	-0.033	-0.083
-352.523	125.954	0.165	0.208
-351.508	-96.532	0.132	0.035
-350.493	234.365	-0.067	-0.109
-349.479	-79.192	0.126	-0.043
-348.464	-127.923	-0.318	-0.046
-347.450	12.590	0.268	0.206
-346.435	-200.000	0.005	-0.074
-345.420	463.326	-0.072	-0.161
-344.406	34.638	0.065	-0.057
-343.391	79.542	-0.175	0.187
-342.377	-6.504	0.241	0.164
-341.362	-34.778	0.378	0.206
-340.348	-130.339	-0.204	0.028
-339.333	400.031	0.057	-0.120
-338.318	-105.029	-0.092	0.021
-337.304	-200.000	-0.001	-0.036
-336.289	-79.745	0.130	0.044
-335.275	-151.807	-0.300	-0.022
-334.260	220.886	0.058	-0.092
-333.245	78.240	-0.199	-0.212
-332.231	-200.000	-0.001	-0.003
-331.216	-200.000	0.043	-0.198
-330.202	800.000	0.063	0.221
-329.187	-152.015	0.164	-0.012
-328.172	-200.000	-0.009	-0.224
-327.158	-107.707	0.170	0.037
-326.143	-200.000	0.058	0.411
-325.129	-112.934	-0.143	0.028
-324.114	114.340	0.051	0.062
-323.099	-200.000	0.044	-0.243
-322.085	-83.855	0.266	-0.084
-321.070	11.270	-0.178	-0.136
-320.056	-200.000	-0.002	-0.022
-319.041	800.000	0.051	0.171
-318.026	66.305	-0.194	-0.196
-317.012	-1.148	0.139	0.098
-315.997	-200.000	-0.076	0.335
-314.983	141.081	-0.171	-0.225
-313.968	-200.000	-0.021	0.308
-312.953	618.255	-0.061	0.153
-311.939	177.018	0.164	-0.238
-310.924	800.000	0.033	-0.131
-309.910	-78.472	0.106	-0.036
-308.895	62.333	0.199	-0.198
-307.880	78.203	0.063	-0.067
-306.866	-200.000	0.025	0.325
-305.851	334.230	0.086	0.166
-304.837	-39.621	-0.139	0.072
-303.822	-99.741	-0.303	0.076
-302.807	440.868	0.043	0.094
-301.793	60.293	-0.202	0.199
-300.778	-92.884	-0.145	-0.040
-299.764	182.575	0.097	0.143
-298.749	-115.313	0.352	0.066
-297.735	-110.887	-0.184	0.038
-296.720	99.670	0.348	0.401
-295.705	-64.533	0.247	-0.100
-294.691	-200.000	-0.020	0.098
-293.676	800.000	-0.081	-0.295
-292.662	-21.687	0.206	0.125
-291.647	129.050	-0.065	0.083
-290.632	-8.048	-0.241	-0.162
-289.618	-200.000	-0.006	-0.177
-288.603	-47.844	-0.295	-0.142
-287.589	-152.179	-0.089	-0.006
-286.574	-200.000	0.041	0.208
-285.559	-200.000	0.003	0.130
-284.545	1.774	0.030	-0.022
-283.530	349.422	0.123	-0.241
-282.516	419.980	0.176	0.375
-281.501	-148.445	0.326	0.027
-280.486	-71.839	-0.111	0.041
-279.472	189.600	-0.060	0.089
-278.457	-51.262	-0.196	0.091
-277.443	-200.000	0.006	0.056
-276.428	-200.000	0.016	0.259
-275.413	242.397	-0.046	-0.077
-274.399	185.304	-0.113	0.167
-273.384	800.000	-0.065	-0.208
-272.370	-92.626	0.054	-0.015
-271.355	-70.288	-0.332	-0.125
-270.340	-104.872	-0.113	-0.026
-269.326	-89.746	0.346	0.101
-268.311	2.605	0.236	0.170
-267.297	163.957	0.283	0.397
-266.282	-43.572	0.237	-0.119
-265.267	544.276	-0.113	-0.268
-264.253	-200.000	0.033	0.283
-263.238	1.512	0.131	-0.094
-262.224	201.913	-0.221	0.339
-261.209	49.216	0.025	-0.024
-260.195	-200.000	-0.037	0.190
-259.180	-101.860	0.328	-0.079
-258.165	800.000	0.065	0.264
-257.151	800.000	-0.042	-0.131
-256.136	-200.000	0.029	0.181
-255.122	345.659	-0.174	-0.340
-254.107	-148.928	0.343	-0.027
-253.092	-200.000	-0.004	0.156
-252.078	145.635	0.264	0.351
-251.063	-123.215	-0.087	0.014
-250.049	-61.508	-0.085	-0.035
-249.034	800.000	0.057	0.170
-248.019	353.385	-0.091	-0.179
-247.005	-200.000	0.050	-0.331
-245.990	432.103	-0.104	-0.224
-244.976	-19.709	0.168	-0.103
-243.961	-3.491	-0.147	-0.102
-242.946	-87.595	-0.233	-0.070
-241.932	-102.946	-0.320	-0.075
-240.917	-151.773	0.442	-0.032
-239.903	488.090	-0.154	-0.350
-238.888	-23.686	0.138	0.082
-237.873	800.000	-0.135	-0.535
-236.859	-73.671	-0.135	0.049
-235.844	-8.310	-0.116	0.078
-234.830	-61.390	-0.185	0.077
-233.815	-200.000	-0.044	0.390
-232.800	-200.000	0.030	0.180
-231.786	-129.874	-0.376	-0.051
-230.771	800.000	-0.119	0.375
-229.757	238.064	-0.061	0.101
-228.742	-199.008	-0.070	-0.000
-227.727	28.612	-0.268	0.226
-226.713	-65.876	-0.434	-0.172
-225.698	445.320	-0.056	0.123
-224.684	88.758	0.051	0.056
-223.669	-170.671	0.334	-0.011
-222.655	800.000	-0.033	-0.104
-221.640	-41.356	0.078	-0.040
-220.625	-86.225	-0.115	-0.035
-219.611	-149.979	-0.202	-0.016
-218.596	10.456	-0.060	-0.045
-217.582	-163.267	-0.108	0.005
-216.567	56.668	-0.087	0.084
-215.552	-50.432	-0.073	0.034
-214.538	25.559	-0.182	0.151
-213.523	246.736	0.176	0.294
-212.509	-66.327	-0.208	-0.082
-211.494	467.050	0.223	-0.496
-210.479	-127.731	0.221	-0.032
-209.465	-200.000	0.021	0.401
-208.450	100.830	-0.118	0.136
-207.436	786.447	0.052	-0.143
-206.421	30.470	0.147	-0.124
-205.406	440.776	0.065	0.142
-204.392	166.416	0.012	-0.017
-203.377	800.000	0.073	-0.254
-202.363	497.407	-0.069	0.159
-201.348	-29.958	0.273	0.154
-200.333	149.180	-0.005	-0.007
-199.319	-45.449	0.314	0.154
-198.304	-22.498	-0.011	0.007
-197.290	87.092	0.122	0.134
-196.275	-200.000	0.039	-0.318
-195.260	6.545	0.146	-0.108
-194.246	-200.000	0.034	-0.181
-193.231	0.222	-0.234	-0.166
-192.217	-139.603	-0.266	0.028
-191.202	370.662	0.195	0.393
-190.187	170.513	-0.191	0.271
-189.173	-192.254	0.059	0.001
-188.158	191.645	0.156	0.233
-187.144	-180.194	-0.137	-0.003
-186.129	-158.445	-0.285	0.016
-185.114	-140.832	0.311	-0.032
-184.100	-63.011	0.232	0.095
-183.085	-13.783	-0.142	-0.091
-182.071	67.412	0.201	-0.203
-181.056	-200.000	0.019	0.226
-180.042	-124.159	0.043	-0.007
-179.027	164.723	0.277	-0.387
-178.012	-20.116	0.195	-0.119
-176.998	490.231	0.053	0.121
-175.983	800.000	-0.028	-0.104
-174.969	102.003	0.101	0.117
-173.954	241.862	0.063	0.105
-172.939	-200.000	-0.008	-0.092
-171.925	215.656	-0.058	-0.092
-170.910	173.727	0.077	0.110
-169.896	314.492	-0.042	0.079
-168.881	-86.843	0.258	0.078
-167.866	-71.058	0.202	0.075
-166.852	732.773	-0.107	-0.284
-165.837	-200.000	0.025	-0.326
-164.823	123.327	0.325	-0.404
-163.808	200.980	0.099	-0.151
-162.793	-26.114	-0.095	-0.055
-161.779	-27.441	-0.329	0.190
-160.764	800.000	0.057	-0.224
-159.750	-14.893	0.137	0.087
-158.735	-82.928	-0.199	0.063
-157.720	10.567	0.213	0.161
-156.706	-143.009	0.267	-0.026
-155.691	-96.683	0.433	0.113
-154.677	4.970	-0.152	0.111
-153.662	-200.000	0.044	0.219
-152.647	93.752	0.165	-0.185
-151.633	34.403	0.015	-0.013
-150.618	361.938	-0.067	0.134
-149.604	-131.096	-0.435	-0.057
-148.589	14.838	-0.356	0.275
-147.574	413.295	-0.112	0.236
-146.560	-200.000	0.028	0.130
-145.545	438.514	-0.016	0.035
-144.531	81.321	0.265	-0.284
-143.516	-42.917	0.213	0.107
-142.502	-127.752	0.384	0.055
-141.487	-38.871	0.156	-0.082
-140.472	21.640	-0.276	-0.223
-139.458	-29.074	-0.117	-0.066
-138.443	37.785	-0.159	0.140
-137.429	-200.000	-0.058	0.372
-136.414	10.067	-0.201	-0.151
-135.399	-107.492	-0.215	-0.047
-134.385	-61.973	0.210	-0.087
-133.370	108.197	-0.059	-0.070
-132.356	800.000	0.133	0.390
-131.341	142.303	-0.227	-0.298
-130.326	-74.538	0.339	-0.121
-129.312	-200.000	0.008	-0.523
-128.297	265.587	0.116	-0.200
-127.283	102.404	-0.147	0.170
-126.268	-31.908	0.112	0.062
-125.253	504.431	-0.042	0.097
-124.239	-200.000	-0.022	0.195
-123.224	-18.071	-0.212	0.131
-122.210	800.000	0.034	-0.103
-121.195	68.740	0.058	-0.059
-120.180	-200.000	0.013	-0.107
-119.166	800.000	0.043	-0.153
-118.151	260.496	-0.211	-0.361
-117.137	46.831	-0.148	-0.136
-116.122	-64.330	-0.152	0.061
-115.107	109.778	0.104	0.123
-114.093	80.202	-0.333	0.355
-113.078	417.637	-0.100	0.211
-112.064	-38.634	-0.232	-0.121
-111.049	-100.847	0.200	0.049
-110.034	-200.000	0.030	0.198
-109.020	-15.726	0.260	0.164
-108.005	-105.391	0.045	-0.010
-106.991	-90.379	0.495	0.142
-105.976	1.566	0.354	0.252
-104.962	79.431	0.168	0.178
-103.947	2.602	-0.103	-0.073
-102.932	-44.288	0.296	0.147
-101.918	-200.000	0.006	0.311
-100.903	-19.076	0.263	-0.162
-99.889	44.742	0.084	0.077
-98.874	489.336	0.124	0.280
-97.859	247.135	-0.022	0.036
-96.845	-154.198	-0.125	0.008
-95.830	800.000	0.129	-0.353
-94.816	-29.367	0.202	0.114
-93.801	54.969	0.212	0.203
-92.786	37.327	0.216	0.189
-91.772	-65.682	-0.448	-0.177
-90.757	-74.318	-0.154	0.055
-89.743	273.668	-0.106	0.184
-88.728	-136.229	0.222	-0.026
-87.713	21.996	-0.054	-0.044
-86.699	-173.013	0.168	-0.005
-85.684	-200.000	-0.000	0.004
-84.670	152.217	0.049	-0.066
-83.655	-31.115	-0.305	-0.170
-82.640	158.693	0.060	0.082
-81.626	800.000	0.044	0.162
-80.611	-19.073	0.168	0.103
-79.597	800.000	0.078	0.292
-78.582	44.957	-0.250	-0.227
-77.567	48.047	-0.288	0.266
-76.553	136.485	0.076	0.097
-75.538	46.101	0.135	-0.124
-74.524	402.207	-0.071	-0.147
-73.509	84.341	0.147	-0.159
-72.494	-152.431	0.129	0.009
-71.480	-38.132	0.179	0.094
-70.465	800.000	-0.064	0.175
-69.451	-137.418	0.447	0.050
-68.436	35.464	0.112	-0.097
-67.422	-95.397	0.138	0.037
-66.407	107.995	-0.184	-0.217
-65.392	-18.628	-0.331	0.204
-64.378	-27.319	-0.227	-0.130
-63.363	-22.281	-0.101	-0.061
-62.349	-63.048	0.068	0.028
-61.334	54.275	-0.867	-0.823
-60.319	215.262	0.405	0.634
-59.305	-200.000	-0.011	-1.031
-58.290	129.228	0.465	0.586
-57.276	582.703	0.662	1.602
-56.261	-200.000	91.191	511.423
-55.246	567.860	1366.080	3273.021
-54.232	185.801	2617.970	3838.005
-53.217	112.066	2334.494	2782.511
-52.203	44.508	1944.353	1762.064
-51.188	38.456	1728.043	1519.175
-50.173	35.646	1681.996	1457.361
-49.159	50.945	1729.305	1616.374
-48.144	54.367	1746.877	1659.065
-47.130	38.037	1704.584	1495.108
-46.115	35.122	1689.192	1459.376
-45.100	35.012	1683.779	1453.809
-44.086	34.939	1681.566	1451.284
-43.071	34.996	1678.556	1449.059
-42.057	34.931	1676.351	1446.610
-41.042	34.977	1673.933	1444.813
-40.027	35.012	1672.053	1443.392
-39.013	34.901	1670.945	1441.543
-37.998	34.857	1669.710	1440.087
-36.984	34.973	1667.836	1439.293
-35.969	35.056	1666.247	1438.482
-34.954	35.152	1664.766	1437.870
-33.940	35.116	1661.877	1435.048
-32.925	35.140	1660.748	1434.198
-31.911	35.208	1659.053	1433.183
-30.896	35.088	1657.363	1430.766
-29.881	35.070	1656.108	1429.496
-28.867	35.164	1654.092	1428.401
-27.852	35.116	1652.806	1426.874
-26.838	35.141	1651.122	1425.549
-25.823	35.059	1649.954	1423.876
-24.809	35.170	1648.781	1423.635
-23.794	35.216	1647.073	1422.440
-22.779	35.194	1645.619	1420.965
-21.765	35.252	1643.652	1419.641
-20.750	35.077	1642.080	1416.928
-19.736	35.223	1640.260	1416.385
-18.721	35.204	1639.032	1415.129
-17.706	35.134	1637.866	1413.546
-16.692	35.070	1636.371	1411.734
-15.677	35.100	1634.769	1410.516
-14.663	35.192	1633.135	1409.727
-13.648	35.186	1632.161	1408.780
-12.633	35.181	1630.268	1407.055
-11.619	35.230	1628.451	1405.795
-10.604	35.194	1627.037	1404.253
-9.590	35.178	1625.565	1402.810
-8.575	35.195	1624.843	1402.254
-7.560	35.100	1623.713	1400.530
-6.546	35.202	1622.421	1400.104
-5.531	35.173	1621.169	1398.758
-4.517	35.099	1619.941	1397.099
-3.502	35.146	1618.746	1396.357
-2.487	35.204	1617.309	1395.488
-1.473	35.184	1605.509	1385.104
-0.458	33.023	1586.752	1353.408
0.556	27.961	1587.808	1324.128
1.571	25.897	1613.673	1330.365
2.586	25.380	1627.950	1338.164
3.600	22.092	1572.880	1269.074
4.615	11.320	1455.162	1101.596
5.629	1.835	1385.236	987.342
6.644	0.296	1376.152	970.864
7.659	0.138	1374.780	968.795
8.673	0.079	1373.640	967.530
9.688	0.087	1371.497	965.986
10.702	-0.203	1369.131	962.371
11.717	3.277	1376.284	989.711
12.731	13.773	1396.376	1072.218
13.746	21.732	1410.139	1134.429
14.761	23.094	1412.079	1144.711
15.775	23.365	1411.217	1145.659
16.790	23.426	1410.337	1145.242
17.804	23.392	1409.963	1144.613
18.819	23.643	1409.824	1146.020
19.834	23.650	1408.945	1145.252
20.848	23.794	1408.200	1145.471
21.863	23.719	1407.279	1144.136
22.877	23.781	1406.302	1143.642
23.892	23.680	1405.384	1142.143
24.907	23.710	1405.041	1141.960
25.921	23.707	1403.973	1140.969
26.936	23.772	1402.615	1140.185
27.950	23.668	1402.046	1138.953
28.965	23.720	1400.567	1137.984
29.980	23.790	1398.973	1137.031
30.994	23.760	1397.790	1135.778
32.009	23.736	1396.843	1134.759
33.023	23.692	1395.688	1133.436
34.038	23.689	1394.644	1132.468
35.053	23.677	1393.528	1131.387
36.067	23.748	1392.534	1130.929
37.082	23.683	1391.442	1129.534
38.096	23.773	1390.743	1129.438
39.111	23.721	1389.662	1128.130
40.126	23.717	1389.365	1127.764
41.140	23.706	1389.093	1127.375
42.155	23.727	1388.197	1126.681
43.169	23.716	1388.422	1126.689
44.184	23.637	1387.994	1125.746
45.199	23.578	1387.865	1125.165
46.213	23.720	1387.193	1125.417
47.228	23.806	1385.399	1124.409
48.242	23.692	1385.028	1123.290
49.257	23.734	1383.668	1122.350
50.271	23.752	1381.578	1120.668
51.286	23.716	1380.343	1119.340
52.301	23.768	1379.044	1118.520
53.315	23.641	1378.878	1117.484
54.330	23.639	1377.788	1116.492
55.344	23.649	1376.553	1115.452
56.359	23.619	1375.539	1114.341
57.374	23.622	1375.044	1113.860
58.388	23.582	1374.314	1112.921
59.403	23.748	1373.160	1112.930
60.417	23.682	1372.824	1112.142
61.432	23.637	1372.246	1111.299
62.447	23.671	1371.181	1110.549
63.461	23.672	1370.280	1109.727
64.476	23.676	1369.086	1108.686
65.490	23.675	1368.339	1107.981
66.505	23.734	1366.163	1106.484
67.520	23.667	1365.005	1105.032
68.534	23.725	1364.273	1104.704
69.549	23.705	1363.205	1103.617
70.563	23.749	1362.190	1102.970
71.578	23.773	1360.808	1101.899
72.593	23.678	1360.576	1101.030
73.607	23.736	1359.716	1100.595
74.622	23.688	1358.710	1099.383
75.636	23.727	1357.994	1098.951
76.651	23.649	1358.091	1098.448
77.666	23.621	1357.397	1097.619
78.680	23.706	1356.636	1097.429
79.695	23.769	1355.596	1096.876
80.709	23.675	1354.834	1095.584
81.724	23.724	1354.140	1095.232
82.739	23.727	1352.921	1094.166
83.753	23.654	1352.229	1093.058
84.768	23.696	1350.944	1092.182
85.782	23.790	1349.754	1091.704
86.797	23.788	1348.450	1090.538
87.812	23.627	1347.870	1088.987
88.826	23.746	1346.512	1088.519
89.841	23.769	1345.505	1087.750
90.855	23.792	1344.421	1086.921
91.870	23.712	1343.617	1085.683
92.884	23.754	1343.005	1085.347
93.899	23.766	1342.145	1084.632
94.914	23.841	1341.132	1084.177
95.928	23.772	1340.453	1083.112
96.943	23.784	1339.988	1082.711
97.957	23.828	1339.004	1082.090
98.972	23.779	1338.147	1081.001
99.987	23.905	1336.541	1080.377
101.001	23.812	1335.858	1079.161
102.016	23.721	1335.284	1078.051
103.030	23.765	1334.560	1077.636
104.045	23.800	1333.281	1076.724
105.060	23.902	1332.087	1076.279
106.074	23.756	1331.477	1074.810
107.089	23.751	1330.462	1073.865
108.103	23.844	1329.224	1073.329
109.118	23.744	1328.227	1071.826
110.133	23.890	1326.809	1071.470
111.147	23.899	1325.398	1070.286
112.162	23.880	1324.669	1069.491
113.176	23.880	1323.342	1068.323
114.191	23.842	1322.985	1067.713
115.206	23.838	1321.510	1066.402
116.220	23.781	1320.746	1065.354
117.235	23.765	1319.903	1064.484
118.249	23.782	1318.693	1063.514
119.264	23.747	1318.316	1062.908
120.279	23.794	1317.227	1062.216
121.293	23.875	1316.125	1061.716
122.308	23.886	1315.214	1060.955
123.322	23.863	1314.408	1060.073
124.337	23.902	1313.553	1059.523
125.352	23.931	1312.926	1059.092
126.366	23.923	1311.628	1057.904
127.381	23.826	1311.078	1056.794
128.395	23.829	1309.960	1055.812
129.410	23.960	1309.225	1055.906
130.424	23.934	1308.253	1054.877
131.439	23.822	1307.647	1053.627
132.454	23.809	1306.767	1052.752
133.468	23.935	1306.317	1053.039
134.483	23.973	1305.432	1052.456
135.497	23.888	1304.343	1050.986
136.512	23.944	1303.163	1050.273
137.527	23.908	1302.270	1049.247
138.541	23.889	1301.085	1048.088
139.556	23.953	1299.306	1046.937
140.570	23.835	1298.952	1045.863
141.585	23.820	1297.994	1044.913
142.600	23.874	1297.118	1044.433
143.614	23.959	1295.902	1043.859
144.629	23.811	1295.136	1042.285
145.643	23.822	1293.781	1041.162
146.658	23.664	1293.238	1039.708
147.673	23.697	1292.177	1038.958
148.687	23.830	1290.908	1038.623
149.702	23.660	1289.953	1036.769
150.716	23.691	1288.719	1035.867
151.731	23.758	1287.798	1035.425
152.746	23.783	1286.662	1034.569
153.760	23.922	1285.343	1034.226
154.775	23.793	1284.339	1032.578
155.789	23.979	1283.038	1032.515
156.804	23.809	1282.588	1031.080
157.819	23.954	1281.205	1030.714
158.833	23.717	1281.468	1029.462
159.848	23.844	1280.508	1029.337
160.862	23.875	1279.723	1028.793
161.877	23.888	1278.737	1027.982
162.892	23.964	1277.975	1027.719
163.906	23.985	1276.919	1026.901
164.921	23.861	1276.592	1025.833
165.935	23.966	1275.571	1025.525
166.950	23.971	1275.088	1025.073
167.964	23.972	1274.386	1024.426
168.979	23.968	1274.137	1024.112
169.994	24.059	1273.262	1023.841
171.008	23.948	1272.482	1022.482
172.023	24.016	1271.909	1022.327
173.037	23.936	1271.576	1021.506
174.052	23.923	1270.725	1020.656
175.067	23.977	1269.282	1019.719
176.081	23.927	1268.844	1018.988
177.096	23.809	1268.328	1017.808
178.110	24.000	1267.236	1017.935
179.125	23.980	1266.233	1016.927
180.140	23.983	1265.155	1015.988
181.154	23.955	1264.048	1014.846
182.169	23.924	1262.918	1013.672
183.183	24.007	1261.681	1013.065
184.198	23.977	1260.634	1011.965
185.213	23.977	1260.061	1011.414
186.227	24.039	1259.257	1011.032
187.242	24.041	1258.119	1010.040
188.256	24.006	1257.306	1009.101
189.271	24.061	1256.274	1008.496
190.286	24.030	1255.570	1007.662
191.300	24.031	1255.127	1007.223
192.315	24.033	1254.708	1006.808
193.329	24.007	1254.424	1006.348
194.344	24.111	1254.063	1006.555
195.359	24.039	1253.493	1005.601
196.373	24.021	1253.004	1005.020
197.388	23.995	1252.342	1004.254
198.402	24.035	1252.197	1004.271
199.417	24.016	1251.671	1003.653
200.432	24.065	1250.649	1003.023
201.446	23.975	1250.072	1001.964
202.461	23.915	1249.691	1001.232
203.475	24.013	1248.723	1000.919
204.490	24.214	1247.538	1001.010
205.504	23.980	1246.340	998.649
206.519	24.178	1245.450	998.956
207.534	24.173	1244.520	998.092
208.548	24.174	1243.579	997.255
209.563	24.210	1243.105	996.993
210.577	24.103	1242.109	995.504
211.592	24.121	1241.652	995.149
212.607	24.032	1240.731	993.831
213.621	24.166	1239.475	993.484
214.636	24.329	1238.759	993.726
215.650	24.221	1237.985	992.420
216.665	24.061	1237.044	990.688
217.680	24.299	1235.984	991.072
218.694	24.256	1235.298	990.196
219.709	24.305	1234.521	989.756
220.723	24.237	1233.768	988.690
221.738	24.210	1233.491	988.226
222.753	24.132	1232.965	987.290
223.767	24.243	1232.077	987.105
224.782	24.207	1231.573	986.415
225.796	24.221	1231.060	985.995
226.811	24.220	1230.958	985.818
227.826	24.281	1230.029	985.324
228.840	24.309	1229.097	984.648
229.855	24.319	1228.386	984.046
230.869	24.246	1227.831	983.110
231.884	24.303	1226.807	982.517
232.899	24.274	1226.200	981.781
233.913	24.285	1225.522	981.214
234.928	24.366	1225.315	981.408
235.942	24.385	1224.853	981.054
236.957	24.276	1224.308	979.935
237.972	24.312	1223.004	979.000
238.986	24.424	1222.205	978.890
240.001	24.372	1221.939	978.304
241.015	24.435	1220.710	977.581
242.030	24.322	1220.656	976.829
243.045	24.388	1219.755	976.383
244.059	24.459	1218.803	975.924
245.074	24.515	1218.024	975.520
246.088	24.543	1216.971	974.743
247.103	24.477	1216.213	973.686
248.117	24.469	1215.895	973.306
249.132	24.435	1215.361	972.608
250.147	24.554	1214.155	972.204
251.161	24.592	1213.626	971.902
252.176	24.476	1212.954	970.646
253.190	24.462	1212.454	970.084
254.205	24.592	1211.811	970.186
255.220	24.644	1210.903	969.657
256.234	24.539	1210.494	968.676
257.249	24.484	1209.938	967.848
258.263	24.590	1209.055	967.625
259.278	24.578	1208.735	967.219
260.293	24.522	1208.534	966.673
261.307	24.642	1207.595	966.483
262.322	24.615	1207.118	965.872
263.336	24.576	1206.476	965.060
264.351	24.513	1206.313	964.502
265.366	24.581	1205.076	963.795
266.380	24.656	1204.520	963.673
267.395	24.717	1203.361	962.990
268.409	24.596	1202.990	961.954
269.424	24.606	1202.673	961.671
270.439	24.592	1202.200	961.132
271.453	24.702	1201.234	960.862
272.468	24.706	1200.466	960.188
273.482	24.587	1199.514	958.701
274.497	24.552	1199.575	958.478
275.512	24.590	1199.003	958.140
276.526	24.692	1197.965	957.774
277.541	24.698	1197.680	957.490
278.555	24.701	1196.626	956.580
279.570	24.708	1196.095	956.109
280.585	24.646	1195.286	955.047
281.599	24.746	1194.473	954.845
282.614	24.597	1193.617	953.283
283.628	24.638	1193.008	952.928
284.643	24.722	1191.495	952.086
285.657	24.825	1190.716	951.923
286.672	24.847	1189.988	951.377
287.687	24.805	1189.272	950.495
288.701	24.829	1188.689	950.075
289.716	24.914	1187.946	949.847
290.730	24.798	1187.450	948.752
291.745	24.712	1186.940	947.802
292.760	24.821	1186.564	947.998
293.774	24.832	1185.267	946.936
294.789	24.783	1185.174	946.520
295.803	24.846	1184.309	946.077
296.818	24.871	1183.746	945.678
297.833	24.906	1182.800	945.019
298.847	24.851	1182.453	944.371
299.862	24.964	1181.542	944.153
300.876	24.941	1180.880	943.422
301.891	24.959	1180.254	942.930
302.906	25.101	1179.746	943.189
303.920	24.939	1178.947	941.617
304.935	24.977	1178.329	941.236
305.949	25.034	1177.262	940.602
306.964	25.022	1176.808	940.094
307.979	25.063	1176.208	939.744
308.993	25.145	1175.802	939.767
310.008	24.950	1175.222	938.200
311.022	24.959	1174.230	937.373
312.037	25.020	1173.185	936.772
313.052	24.922	1172.522	935.651
314.066	24.987	1171.489	935.079
315.081	24.997	1171.129	934.765
316.095	24.900	1170.800	933.914
317.110	25.052	1170.013	933.996
318.125	25.029	1169.123	933.079
319.139	25.008	1168.459	932.360
320.154	25.066	1168.156	932.335
321.168	25.009	1167.274	931.252
322.183	25.137	1166.624	931.316
323.197	25.095	1165.960	930.486
324.212	25.118	1165.344	930.032
325.227	25.086	1165.344	929.784
326.241	25.133	1164.616	929.367
327.256	25.040	1164.135	928.419
328.270	25.145	1163.036	928.002
329.285	25.153	1162.532	927.561
330.300	25.196	1161.051	926.517
331.314	25.175	1160.116	925.579
332.329	25.117	1160.004	925.108
333.343	25.203	1159.130	924.774
334.358	25.276	1158.049	924.206
335.373	25.355	1157.241	923.889
336.387	25.356	1156.535	923.245
337.402	25.351	1155.842	922.586
338.416	25.245	1155.796	921.922
339.431	25.263	1154.895	921.215
340.446	25.347	1154.553	921.294
341.460	25.423	1153.545	920.795
342.475	25.426	1152.586	919.965
343.489	25.353	1152.056	919.085
344.504	25.342	1151.216	918.277
345.519	25.396	1149.866	917.394
346.533	25.478	1149.260	917.250
347.548	25.339	1148.811	916.103
348.562	25.453	1148.182	916.098
349.577	25.442	1147.379	915.324
350.592	25.408	1146.497	914.363
351.606	25.448	1145.574	913.751
352.621	25.363	1145.390	913.092
353.635	25.411	1145.076	913.003
354.650	25.401	1143.987	912.003
355.665	25.507	1143.209	911.841
356.679	25.407	1143.217	911.261
357.694	25.481	1142.281	910.806
358.708	25.502	1141.499	910.210
359.723	25.515	1140.479	909.380
360.738	25.617	1139.865	909.328
361.752	25.525	1139.808	908.733
362.767	25.474	1139.062	907.803
363.781	25.475	1139.007	907.683
364.796	25.559	1138.460	907.593
365.810	25.524	1137.623	906.666
366.825	25.527	1136.982	906.092
367.840	25.644	1136.701	906.378
368.854	25.609	1136.057	905.605
369.869	25.661	1135.059	904.994
370.883	25.673	1134.291	904.360
371.898	25.653	1133.561	903.600
372.913	25.723	1133.027	903.443
373.927	25.636	1132.555	902.552
374.942	25.651	1132.002	902.106
375.956	25.670	1131.605	901.805
376.971	25.782	1130.302	901.249
377.986	25.850	1129.936	901.214
379.000	25.789	1129.695	900.637
380.015	25.831	1129.278	900.438
381.029	25.637	1128.677	898.909
382.044	25.712	1127.923	898.602
383.059	25.871	1127.005	898.585
384.073	25.787	1126.766	897.894
385.088	25.868	1125.559	897.261
386.102	25.891	1124.525	896.467
387.117	25.810	1123.846	895.444
388.132	25.783	1123.110	894.645
389.146	25.852	1122.514	894.436
390.161	25.928	1121.644	894.037
391.175	25.838	1121.158	893.125
392.190	25.815	1120.368	892.305
393.205	25.890	1119.942	892.259
394.219	25.955	1118.932	891.693
395.234	26.022	1118.037	891.235
396.248	26.051	1117.137	890.579
397.263	25.990	1116.382	889.598
398.278	25.938	1116.249	889.157
399.292	26.015	1115.650	888.983
400.307	26.028	1114.789	888.282
401.321	26.042	1113.917	887.574
402.336	26.042	1113.028	886.790
403.350	25.986	1112.861	886.305
404.365	26.080	1112.024	886.019
405.380	26.071	1111.222	885.260
406.394	26.061	1110.629	884.660
407.409	26.091	1109.970	884.201
408.423	26.139	1108.966	883.558
409.438	26.236	1108.368	883.479
410.453	26.326	1107.309	882.994
411.467	26.211	1106.893	882.026
412.482	26.176	1106.328	881.327
413.496	26.211	1105.688	880.910
414.511	26.216	1104.870	880.203
415.526	26.334	1104.424	880.343
416.540	26.151	1104.347	879.316
417.555	26.075	1103.877	878.493
418.569	26.178	1103.444	878.573
419.584	26.172	1102.842	877.987
420.599	26.252	1102.567	878.077
421.613	145.481	1402.794	1790.948
422.628	134.965	1446.520	1791.063
