DTS Sentinel unit serial number:	SN413079Multiplexer serial number:	ORYXHardware model number:	OX4-SRSoftware version number:	ORYX F/W v4.00 Oryx Data Collector v3.7.2.0data status	okinstallation	princeton_trtdifferential loss correction	single-endedforward channel	channel 2reverse channel	N/Adate	2019/09/10time	19:01:11forward acquisition time	60.00reverse acquisition time	0.00gamma	496.2192k internal	0.2323k external	0.2323temperature offset calibration	0.9945default loss term (dB/km)	0.3790temperature slope calibration	1.0000multiplexer offset coefficient	1.0000multiplexer slope coefficient	1.0000fibre end	0.00T internal ref (°C)	34.52T ext. ref 1 (°C)	-0.33T ext. ref 2 (°C)	26.66length (m)	temperature (°C)	Stokes	anti-Stokes-747.200	-200.000	0.053	0.305
-746.185	597.371	0.039	0.098
-745.171	-155.039	0.100	0.007
-744.156	-4.571	0.209	0.146
-743.142	268.555	-0.065	-0.115
-742.127	-64.736	0.154	0.063
-741.112	-200.000	-0.017	0.281
-740.098	78.385	-0.127	-0.137
-739.083	28.370	-0.167	-0.143
-738.069	-200.000	-0.056	0.288
-737.054	521.529	0.042	-0.098
-736.039	800.000	-0.064	-0.209
-735.025	326.272	-0.139	0.269
-734.010	-11.779	0.130	-0.086
-732.996	-66.661	-0.147	0.059
-731.981	-82.767	0.143	-0.047
-730.966	31.747	-0.179	-0.155
-729.952	-12.362	0.111	-0.073
-728.937	-138.090	-0.195	-0.022
-727.923	-200.000	-0.017	0.160
-726.908	-102.890	0.124	-0.030
-725.894	47.644	0.125	0.118
-724.879	-200.000	-0.061	-0.316
-723.864	-200.000	0.059	0.274
-722.850	800.000	0.068	0.269
-721.835	17.268	-0.210	0.168
-720.821	800.000	-0.013	0.047
-719.806	-86.811	-0.125	0.039
-718.791	89.894	0.158	-0.178
-717.777	609.989	0.097	-0.244
-716.762	800.000	-0.051	-0.222
-715.748	-137.321	0.361	-0.041
-714.733	-6.164	0.185	-0.127
-713.718	-123.631	-0.335	0.054
-712.704	-200.000	-0.047	0.215
-711.689	107.581	0.016	-0.019
-710.675	664.553	0.162	0.422
-709.660	-87.942	0.136	0.041
-708.645	178.488	-0.060	0.089
-707.631	-86.296	0.185	0.057
-706.616	7.155	0.049	-0.037
-705.602	-200.000	0.010	0.185
-704.587	-200.000	-0.011	-0.207
-703.572	-134.347	0.179	0.022
-702.558	-200.000	0.074	-0.348
-701.543	43.825	-0.078	0.072
-700.529	-200.000	0.037	-0.218
-699.514	34.171	0.182	0.160
-698.499	144.275	0.196	-0.264
-697.485	-58.212	-0.353	0.155
-696.470	121.557	-0.147	0.185
-695.456	-98.970	-0.479	0.123
-694.441	6.638	-0.196	-0.147
-693.426	19.988	-0.187	-0.152
-692.412	-200.000	0.052	-0.273
-691.397	-200.000	0.006	-0.037
-690.383	-200.000	-0.031	0.426
-689.368	-30.809	-0.251	0.143
-688.354	-130.503	-0.173	0.024
-687.339	-200.000	0.032	0.290
-686.324	114.798	-0.158	-0.194
-685.310	800.000	-0.067	-0.250
-684.295	-98.453	-0.051	0.013
-683.281	128.749	0.042	-0.054
-682.266	80.122	-0.068	0.074
-681.251	-74.994	0.393	-0.142
-680.237	-128.198	-0.249	-0.036
-679.222	-157.604	0.210	0.013
-678.208	143.059	-0.043	0.057
-677.193	800.000	-0.094	-0.279
-676.178	36.530	-0.395	-0.351
-675.164	-72.418	0.347	-0.129
-674.149	383.625	0.058	-0.119
-673.135	800.000	0.088	-0.387
-672.120	800.000	-0.042	-0.179
-671.105	-108.252	-0.286	0.062
-670.091	27.092	-0.123	-0.104
-669.076	-53.013	0.166	-0.077
-668.062	-200.000	-0.006	0.320
-667.047	-111.698	0.031	0.006
-666.032	-110.141	-0.205	0.043
-665.018	-200.000	0.053	0.258
-664.003	800.000	0.024	-0.083
-662.989	-200.000	-0.033	-0.166
-661.974	-72.437	-0.149	0.055
-660.959	753.832	0.088	-0.239
-659.945	69.014	-0.157	0.163
-658.930	-120.305	-0.151	-0.026
-657.916	-110.326	0.206	-0.043
-656.901	800.000	-0.046	-0.140
-655.886	-20.081	-0.386	0.240
-654.872	89.033	0.028	0.031
-653.857	-62.210	-0.053	-0.022
-652.843	7.448	-0.209	0.157
-651.828	-97.560	-0.174	0.045
-650.814	1.569	-0.130	0.094
-649.799	-99.646	0.207	-0.052
-648.784	339.467	-0.066	-0.130
-647.770	800.000	0.021	0.069
-646.755	-86.922	0.124	-0.038
-645.741	633.897	-0.072	0.184
-644.726	-125.483	0.093	0.014
-643.711	-200.000	0.022	-0.159
-642.697	-41.398	0.103	0.053
-641.682	-43.304	0.146	0.074
-640.668	-36.748	-0.138	-0.074
-639.653	800.000	0.034	-0.100
-638.638	292.734	-0.102	-0.187
-637.624	-65.725	-0.206	0.083
-636.609	-58.060	-0.160	-0.070
-635.595	102.457	-0.092	0.108
-634.580	-44.075	-0.122	0.061
-633.565	189.418	-0.111	-0.168
-632.551	800.000	0.080	0.295
-631.536	-147.965	-0.170	0.014
-630.522	23.655	-0.042	-0.035
-629.507	134.096	0.374	-0.487
-628.492	734.377	-0.059	-0.159
-627.478	20.717	-0.036	0.029
-626.463	-200.000	0.012	0.280
-625.449	800.000	0.082	0.283
-624.434	-189.594	0.069	0.001
-623.419	90.082	0.216	-0.243
-622.405	-200.000	-0.038	0.445
-621.390	-200.000	0.071	0.378
-620.376	800.000	-0.035	-0.106
-619.361	-103.565	0.096	0.023
-618.346	223.081	-0.156	0.254
-617.332	-200.000	-0.033	0.301
-616.317	-133.824	-0.232	-0.029
-615.303	16.665	0.225	0.179
-614.288	470.468	-0.055	-0.125
-613.273	-11.138	0.160	-0.106
-612.259	-88.507	0.291	-0.087
-611.244	165.390	-0.071	0.100
-610.230	223.610	-0.105	0.170
-609.215	-12.331	-0.161	0.106
-608.201	75.183	-0.048	-0.051
-607.186	-102.337	-0.104	0.025
-606.171	-162.863	0.211	-0.010
-605.157	-130.008	-0.342	-0.047
-604.142	133.493	0.041	0.053
-603.128	336.306	0.019	-0.038
-602.113	800.000	-0.032	-0.128
-601.098	42.779	0.143	-0.130
-600.084	-0.143	0.214	-0.153
-599.069	-110.642	-0.225	-0.047
-598.055	-200.000	0.017	-0.257
-597.040	800.000	0.076	-0.258
-596.025	-84.175	-0.124	0.040
-595.011	774.557	0.162	0.444
-593.996	84.735	-0.262	0.288
-592.982	-200.000	-0.010	0.244
-591.967	-124.083	0.122	0.019
-590.952	157.219	-0.041	-0.057
-589.938	-60.306	-0.261	-0.112
-588.923	-1.705	0.081	-0.057
-587.909	-30.193	-0.100	0.057
-586.894	619.766	-0.152	0.383
-585.879	-200.000	-0.026	-0.254
-584.865	363.236	0.190	-0.383
-583.850	360.892	0.219	0.441
-582.836	78.481	0.268	0.287
-581.821	-22.105	-0.153	-0.093
-580.806	320.495	-0.078	-0.148
-579.792	-200.000	-0.013	0.138
-578.777	-166.247	0.165	-0.007
-577.763	140.964	-0.102	-0.136
-576.748	2.721	0.085	0.062
-575.733	-144.631	0.275	-0.025
-574.719	-200.000	-0.003	0.029
-573.704	258.122	-0.152	0.262
-572.690	-200.000	0.016	0.282
-571.675	63.535	-0.257	0.259
-570.661	193.378	0.275	-0.418
-569.646	-200.000	-0.012	0.191
-568.631	-88.769	0.261	-0.078
-567.617	132.419	-0.034	-0.044
-566.602	143.875	0.128	-0.171
-565.588	-50.129	0.200	-0.095
-564.573	-200.000	-0.002	0.205
-563.558	-5.161	-0.329	0.227
-562.544	-200.000	-0.053	-0.663
-561.529	-143.361	0.313	-0.030
-560.515	800.000	-0.060	-0.173
-559.500	-70.668	-0.136	-0.052
-558.485	-139.771	-0.303	-0.032
-557.471	-112.335	-0.243	0.049
-556.456	-78.053	-0.069	-0.024
-555.442	70.151	0.278	-0.287
-554.427	-39.045	0.228	-0.120
-553.412	-187.378	-0.246	0.003
-552.398	800.000	0.075	0.299
-551.383	21.241	0.129	-0.105
-550.369	-75.490	-0.185	-0.066
-549.354	125.856	0.127	-0.161
-548.339	644.329	0.064	-0.162
-547.325	170.197	0.148	0.212
-546.310	73.257	-0.204	0.214
-545.296	153.163	0.109	-0.149
-544.281	12.229	0.100	0.077
-543.266	800.000	-0.138	-0.481
-542.252	-98.852	-0.022	0.006
-541.237	149.750	-0.112	-0.152
-540.223	741.636	-0.020	0.053
-539.208	-60.276	0.153	0.065
-538.193	100.851	0.166	0.194
-537.179	800.000	-0.028	-0.125
-536.164	-200.000	-0.037	-0.219
-535.150	-68.737	0.154	-0.060
-534.135	-22.493	-0.028	-0.017
-533.121	-60.503	-0.464	0.198
-532.106	-200.000	-0.010	0.169
-531.091	185.367	0.219	-0.326
-530.077	-121.975	-0.252	-0.042
-529.062	-200.000	0.008	0.317
-528.048	20.406	0.194	0.157
-527.033	111.805	0.107	0.129
-526.018	-54.865	-0.248	-0.112
-525.004	-89.777	0.156	0.046
-523.989	-200.000	-0.002	0.017
-522.975	-99.376	0.629	-0.159
-521.960	800.000	-0.109	0.328
-520.945	215.855	0.118	0.188
-519.931	41.954	-0.103	-0.094
-518.916	-200.000	-0.000	-0.328
-517.902	314.236	-0.062	0.118
-516.887	147.196	-0.079	-0.107
-515.872	-165.786	-0.307	-0.013
-514.858	-62.949	-0.197	0.082
-513.843	800.000	-0.073	0.318
-512.829	148.473	-0.052	0.071
-511.814	-39.808	0.150	-0.079
-510.799	-71.923	-0.316	0.118
-509.785	150.748	0.066	-0.090
-508.770	267.091	-0.116	-0.203
-507.756	68.051	-0.145	0.148
-506.741	800.000	0.006	-0.017
-505.726	-200.000	0.017	0.208
-504.712	61.187	-0.245	0.244
-503.697	-8.361	0.031	-0.021
-502.683	-163.452	-0.220	-0.010
-501.668	-60.332	0.106	0.045
-500.653	-200.000	0.045	0.277
-499.639	4.818	0.168	-0.123
-498.624	-200.000	-0.023	0.135
-497.610	-48.437	0.245	-0.118
-496.595	-33.392	-0.068	-0.038
-495.581	-86.047	-0.095	0.029
-494.566	552.787	0.022	-0.053
-493.551	136.799	0.004	0.006
-492.537	63.168	-0.084	-0.084
-491.522	-200.000	-0.001	-0.498
-490.508	-142.262	-0.184	0.018
-489.493	11.886	-0.247	-0.190
-488.478	99.291	0.129	-0.149
-487.464	-200.000	-0.053	-0.372
-486.449	-27.308	-0.106	-0.062
-485.435	-20.196	0.209	-0.129
-484.420	70.845	-0.177	-0.183
-483.405	-58.201	-0.188	-0.082
-482.391	-200.000	0.011	-0.250
-481.376	-200.000	-0.028	-0.208
-480.362	-200.000	-0.011	-0.113
-479.347	-54.219	0.164	0.074
-478.332	-33.707	0.157	-0.086
-477.318	-135.828	-0.525	0.062
-476.303	49.538	0.172	0.162
-475.289	-82.795	0.155	-0.050
-474.274	-200.000	0.551	-0.001
-473.259	415.005	-0.044	-0.093
-472.245	15.608	-0.228	-0.179
-471.230	800.000	0.054	-0.225
-470.216	98.604	-0.085	0.098
-469.201	-200.000	-0.041	0.220
-468.186	416.805	0.038	-0.082
-467.172	-69.029	-0.073	-0.028
-466.157	-55.362	-0.365	0.164
-465.143	27.216	0.134	0.112
-464.128	-8.734	0.272	-0.182
-463.113	-71.017	0.230	0.087
-462.099	-86.990	-0.181	0.055
-461.084	-200.000	-0.042	0.319
-460.070	800.000	-0.041	-0.153
-459.055	-46.473	0.301	0.148
-458.040	2.258	0.263	-0.190
-457.026	-89.216	-0.172	-0.051
-456.011	-101.210	-0.044	-0.011
-454.997	-42.323	-0.198	-0.101
-453.982	342.031	-0.160	0.313
-452.968	284.731	0.080	-0.145
-451.953	150.265	-0.256	-0.347
-450.938	54.186	0.131	-0.126
-449.924	-41.145	0.179	0.092
-448.909	302.688	0.141	-0.261
-447.895	-200.000	0.009	0.043
-446.880	124.635	0.194	0.244
-445.865	108.855	-0.128	0.153
-444.851	87.711	-0.113	0.125
-443.836	19.054	0.077	0.061
-442.822	681.173	-0.167	0.433
-441.807	-200.000	0.065	0.294
-440.792	162.299	-0.110	0.154
-439.778	6.816	0.132	-0.098
-438.763	-114.063	-0.050	0.010
-437.749	-200.000	0.006	0.096
-436.734	-1.785	0.470	-0.330
-435.719	750.484	-0.062	-0.166
-434.705	-12.106	-0.233	-0.152
-433.690	47.207	-0.079	0.074
-432.676	800.000	-0.069	-0.209
-431.661	-22.814	0.283	-0.171
-430.646	523.384	0.060	0.140
-429.632	118.346	0.003	0.004
-428.617	-29.356	-0.323	-0.185
-427.603	-153.312	0.102	-0.007
-426.588	800.000	0.089	-0.312
-425.573	-200.000	-0.013	0.188
-424.559	16.177	-0.253	0.199
-423.544	-165.151	0.378	-0.017
-422.530	-22.750	0.229	-0.138
-421.515	-200.000	-0.018	0.114
-420.500	395.785	-0.107	0.222
-419.486	-53.327	0.084	-0.038
-418.471	-12.615	0.140	0.091
-417.457	-95.187	0.273	0.074
-416.442	322.734	-0.165	-0.313
-415.428	800.000	-0.040	-0.154
-414.413	-123.807	0.451	0.071
-413.398	-151.022	-0.307	-0.023
-412.384	217.326	-0.045	0.071
-411.369	800.000	-0.087	0.258
-410.355	76.979	-0.149	-0.158
-409.340	115.591	0.173	0.211
-408.325	19.698	-0.039	0.032
-407.311	239.869	-0.124	0.206
-406.296	-134.590	0.152	-0.018
-405.282	-36.993	-0.026	-0.014
-404.267	291.049	-0.104	0.189
-403.252	-200.000	0.041	-0.325
-402.238	800.000	0.080	0.287
-401.223	141.778	0.146	0.193
-400.209	-200.000	0.015	0.377
-399.194	-35.615	0.237	-0.128
-398.179	-45.247	0.049	-0.024
-397.165	800.000	0.023	0.074
-396.150	267.644	-0.018	0.032
-395.136	-130.739	-0.112	-0.015
-394.121	42.591	-0.018	0.016
-393.106	-15.342	-0.220	-0.140
-392.092	188.849	0.138	0.206
-391.077	-12.222	-0.108	0.071
-390.063	448.022	0.049	-0.107
-389.048	-4.859	0.096	-0.066
-388.033	132.390	-0.083	0.107
-387.019	-200.000	-0.026	-0.135
-386.004	-200.000	-0.058	-0.309
-384.990	800.000	0.113	0.341
-383.975	112.387	-0.035	-0.042
-382.960	-200.000	0.016	0.231
-381.946	-200.000	0.017	-0.091
-380.931	344.071	-0.074	0.144
-379.917	-132.726	-0.240	-0.031
-378.902	-200.000	-0.017	-0.108
-377.888	-200.000	0.029	0.229
-376.873	-90.649	0.130	-0.037
-375.858	-57.213	-0.220	-0.096
-374.844	98.858	-0.084	0.097
-373.829	-72.892	0.455	0.167
-372.815	-50.022	-0.247	0.117
-371.800	-200.000	0.030	-0.146
-370.785	0.615	0.170	0.121
-369.771	-55.506	0.338	-0.151
-368.756	-115.192	-0.416	-0.078
-367.742	-200.000	-0.021	-0.125
-366.727	-200.000	-0.007	-0.475
-365.712	-25.116	-0.232	0.137
-364.698	-128.265	-0.212	-0.030
-363.683	189.920	-0.088	0.131
-362.669	-65.552	0.121	0.048
-361.654	-149.533	0.124	0.010
-360.639	800.000	0.058	0.170
-359.625	-200.000	-0.010	-0.355
-358.610	66.972	-0.110	0.111
-357.596	140.119	0.120	0.157
-356.581	374.592	0.103	-0.209
-355.566	624.332	0.106	0.265
-354.552	-6.012	0.494	-0.336
-353.537	-87.535	-0.141	0.043
-352.523	373.689	-0.036	-0.074
-351.508	3.102	-0.157	0.113
-350.493	-200.000	-0.022	-0.149
-349.479	-0.426	0.199	0.141
-348.464	-38.436	0.183	-0.096
-347.450	61.024	-0.183	-0.181
-346.435	-40.965	-0.317	0.163
-345.420	800.000	0.137	0.410
-344.406	-62.801	0.024	0.010
-343.391	-200.000	-0.060	0.423
-342.377	539.128	-0.114	0.270
-341.362	784.365	0.132	0.360
-340.348	32.847	-0.167	0.144
-339.333	228.929	0.092	0.149
-338.318	-8.958	0.195	0.130
-337.304	37.688	0.179	-0.158
-336.289	-50.937	0.049	0.023
-335.275	-40.340	-0.085	-0.044
-334.260	-157.890	0.296	0.017
-333.245	-126.754	0.369	-0.054
-332.231	-122.944	-0.419	0.067
-331.216	800.000	-0.061	0.192
-330.202	-87.721	-0.019	0.006
-329.187	217.005	-0.160	0.253
-328.172	-200.000	0.000	-0.178
-327.158	56.420	0.156	-0.151
-326.143	-87.757	-0.381	0.114
-325.129	9.550	-0.037	0.028
-324.114	-158.497	-0.252	-0.014
-323.099	174.310	0.095	0.136
-322.085	-200.000	0.043	-0.220
-321.070	348.627	0.072	-0.141
-320.056	-49.591	-0.153	0.072
-319.041	569.023	-0.104	-0.251
-318.026	800.000	-0.017	-0.058
-317.012	-85.912	0.149	-0.046
-315.997	-142.762	-0.208	0.020
-314.983	726.615	-0.081	-0.214
-313.968	376.220	-0.043	-0.088
-312.953	76.510	0.223	-0.235
-311.939	-144.870	-0.539	0.049
-310.924	-200.000	0.003	0.028
-309.910	310.543	-0.015	0.028
-308.895	-59.556	-0.102	0.044
-307.880	-46.326	0.236	0.115
-306.866	-142.268	0.377	-0.037
-305.851	800.000	0.048	-0.147
-304.837	-200.000	0.032	-0.193
-303.822	156.237	-0.169	0.232
-302.807	-21.880	-0.042	0.026
-301.793	466.784	-0.106	-0.237
-300.778	-200.000	-0.008	-0.100
-299.764	-138.090	-0.065	0.007
-298.749	241.426	0.091	-0.152
-297.735	-200.000	-0.041	0.375
-296.720	-104.919	0.027	0.006
-295.705	-106.535	0.206	-0.046
-294.691	-200.000	-0.031	0.259
-293.676	-200.000	-0.001	0.182
-292.662	285.290	-0.095	-0.170
-291.647	-57.200	-0.181	-0.079
-290.632	-113.167	-0.119	-0.023
-289.618	96.134	0.191	-0.217
-288.603	-76.682	-0.173	-0.060
-287.589	77.361	0.214	0.225
-286.574	31.614	-0.182	-0.155
-285.559	685.971	-0.047	-0.123
-284.545	181.187	-0.100	0.145
-283.530	-200.000	-0.010	-0.081
-282.516	-200.000	0.054	-0.374
-281.501	3.198	0.165	-0.119
-280.486	-55.006	-0.275	0.123
-279.472	800.000	0.071	0.250
-278.457	-12.289	0.119	0.077
-277.443	128.697	0.096	-0.121
-276.428	27.364	-0.324	-0.270
-275.413	137.279	0.052	0.068
-274.399	-28.162	0.076	0.043
-273.384	-82.208	0.191	0.062
-272.370	-55.011	-0.252	0.112
-271.355	-155.897	-0.225	-0.014
-270.340	-105.387	0.087	0.020
-269.326	-169.938	-0.136	-0.005
-268.311	-191.653	0.297	0.003
-267.297	-95.167	-0.191	0.051
-266.282	77.148	-0.157	0.165
-265.267	64.939	0.253	0.254
-264.253	91.428	-0.282	-0.314
-263.238	-123.487	-0.157	-0.025
-262.224	220.239	-0.130	-0.206
-261.209	246.385	-0.067	-0.112
-260.195	-200.000	-0.001	-0.115
-259.180	397.533	0.080	0.167
-258.165	-74.941	-0.115	-0.041
-257.151	186.655	-0.163	-0.240
-256.136	-200.000	-0.002	0.225
-255.122	108.746	0.104	-0.123
-254.107	320.809	-0.091	-0.172
-253.092	69.382	0.232	-0.237
-252.078	-200.000	-0.016	-0.271
-251.063	-134.468	0.478	-0.058
-250.049	569.898	0.076	0.182
-249.034	65.480	0.108	-0.108
-248.019	-200.000	0.011	0.100
-247.005	-83.275	-0.205	0.065
-245.990	119.780	-0.101	0.124
-244.976	22.283	0.253	-0.205
-243.961	-144.248	-0.216	-0.020
-242.946	27.559	0.156	0.130
-241.932	-21.619	0.202	0.122
-240.917	64.645	0.030	0.030
-239.903	47.824	0.080	-0.074
-238.888	-11.919	-0.102	0.066
-237.873	-200.000	-0.004	-0.262
-236.859	-42.985	0.263	-0.132
-235.844	124.839	-0.321	-0.400
-234.830	-149.305	0.270	0.021
-233.815	-123.250	-0.240	-0.038
-232.800	701.314	-0.108	0.281
-231.786	-70.484	0.198	0.074
-230.771	230.819	0.218	0.353
-229.757	499.119	-0.094	-0.215
-228.742	190.269	-0.256	-0.380
-227.727	-46.835	0.349	0.169
-226.713	45.708	-0.153	0.140
-225.698	-200.000	0.005	0.115
-224.684	260.964	-0.110	0.188
-223.669	-111.822	0.300	-0.060
-222.655	800.000	0.113	-0.310
-221.640	-200.000	-0.006	0.061
-220.625	185.482	0.233	0.342
-219.611	800.000	-0.034	-0.092
-218.596	47.061	-0.209	-0.192
-217.582	-24.551	0.140	-0.082
-216.567	-200.000	-0.011	-0.170
-215.552	-143.497	0.125	-0.012
-214.538	-114.691	0.162	0.031
-213.523	-195.111	0.262	-0.002
-212.509	-87.724	0.301	0.090
-211.494	-200.000	-0.029	0.233
-210.479	-103.616	-0.131	0.030
-209.465	-166.782	-0.510	-0.021
-208.450	-19.518	0.227	0.139
-207.436	-184.213	-0.284	-0.005
-206.421	-200.000	0.036	0.304
-205.406	800.000	-0.059	0.174
-204.392	-200.000	-0.041	-0.195
-203.377	-17.127	0.085	-0.053
-202.363	-184.593	0.154	-0.002
-201.348	273.650	-0.021	0.037
-200.333	-153.957	-0.371	-0.025
-199.319	452.968	-0.045	-0.099
-198.304	-80.161	0.063	-0.021
-197.290	-200.000	-0.007	-0.068
-196.275	800.000	0.082	-0.254
-195.260	800.000	-0.074	0.276
-194.246	79.625	0.129	-0.136
-193.231	-104.643	-0.202	0.046
-192.217	365.046	-0.208	0.413
-191.202	-200.000	0.009	-0.104
-190.187	394.852	0.212	-0.436
-189.173	-200.000	-0.039	-0.199
-188.158	-100.909	0.297	-0.072
-187.144	-71.819	0.098	-0.036
-186.129	-133.659	0.506	0.063
-185.114	800.000	-0.036	-0.103
-184.100	-27.834	-0.212	-0.121
-183.085	-2.613	0.097	-0.067
-182.071	-200.000	0.004	0.195
-181.056	166.508	-0.119	0.167
-180.042	-59.466	0.079	0.034
-179.027	12.407	0.104	-0.079
-178.012	-51.768	-0.263	-0.121
-176.998	341.376	-0.033	0.064
-175.983	-44.705	0.211	-0.104
-174.969	800.000	0.016	-0.045
-173.954	-37.160	0.076	0.040
-172.939	604.871	-0.121	0.298
-171.925	-200.000	0.014	-0.367
-170.910	-30.983	-0.407	-0.227
-169.896	564.292	-0.114	0.274
-168.881	-111.508	0.188	0.038
-167.866	800.000	-0.075	-0.209
-166.852	-200.000	-0.055	0.300
-165.837	2.836	-0.184	0.132
-164.823	115.144	-0.071	0.085
-163.808	-146.429	-0.342	0.029
-162.793	-68.420	-0.017	0.006
-161.779	-200.000	-0.054	-0.353
-160.764	-48.332	0.229	-0.109
-159.750	-32.928	0.170	-0.093
-158.735	270.287	-0.080	-0.139
-157.720	-200.000	-0.030	0.235
-156.706	800.000	0.034	0.138
-155.691	-101.240	-0.088	-0.021
-154.677	60.932	0.062	-0.061
-153.662	-15.128	0.229	0.145
-152.647	800.000	-0.056	0.238
-151.633	38.238	-0.032	0.028
-150.618	800.000	-0.059	-0.193
-149.604	-200.000	0.042	-0.294
-148.589	-16.833	0.089	-0.056
-147.574	-150.216	-0.269	-0.021
-146.560	-79.151	-0.185	0.062
-145.545	-119.027	0.165	-0.029
-144.531	-171.410	-0.199	-0.007
-143.516	-200.000	-0.002	-0.027
-142.502	356.948	-0.141	0.277
-141.487	-200.000	0.022	0.154
-140.472	-200.000	0.047	-0.267
-139.458	-51.501	0.181	0.083
-138.443	214.534	-0.183	0.286
-137.429	149.550	-0.132	0.177
-136.414	625.992	-0.081	0.201
-135.399	533.598	0.074	-0.174
-134.385	-112.426	0.110	-0.022
-133.370	-34.482	0.136	0.074
-132.356	-47.737	-0.182	-0.087
-131.341	-174.768	0.120	-0.003
-130.326	-187.073	0.200	-0.003
-129.312	-121.804	0.287	-0.047
-128.297	353.073	0.054	0.106
-127.283	-0.757	0.323	0.226
-126.268	8.918	-0.220	0.164
-125.253	-54.501	-0.047	-0.021
-124.239	-200.000	0.005	-0.131
-123.224	52.499	-0.136	0.128
-122.210	-135.854	0.273	0.032
-121.195	138.787	-0.210	-0.272
-120.180	-37.194	0.094	0.050
-119.166	800.000	-0.031	0.092
-118.151	28.882	-0.272	0.228
-117.137	-58.106	0.268	0.115
-116.122	-200.000	0.032	-0.217
-115.107	-15.378	0.331	0.209
-114.093	800.000	0.097	0.333
-113.078	800.000	-0.027	0.107
-112.064	377.035	-0.035	-0.071
-111.049	-60.552	-0.206	-0.086
-110.034	-106.031	0.153	0.034
-109.020	800.000	0.057	0.225
-108.005	-95.103	0.049	0.013
-106.991	800.000	0.046	0.191
-105.976	306.093	0.202	0.371
-104.962	-75.666	0.352	0.123
-103.947	-164.939	-0.239	0.010
-102.932	22.903	0.096	-0.078
-101.918	-101.786	-0.152	0.036
-100.903	-29.340	0.118	-0.067
-99.889	114.087	-0.106	-0.128
-98.874	-29.369	0.185	0.105
-97.859	-130.059	-0.070	-0.009
-96.845	32.972	-0.109	0.093
-95.830	184.184	-0.097	-0.141
-94.816	-56.818	-0.240	-0.104
-93.801	-102.004	-0.066	-0.016
-92.786	480.259	0.090	0.201
-91.772	-17.256	-0.192	-0.119
-90.757	800.000	0.046	0.162
-89.743	-27.928	-0.029	-0.017
-88.728	-200.000	-0.014	0.312
-87.713	-200.000	0.004	0.587
-86.699	-54.740	0.258	-0.115
-85.684	800.000	-0.033	0.105
-84.670	231.402	0.242	-0.390
-83.655	-46.965	0.288	0.139
-82.640	102.549	-0.176	-0.203
-81.626	8.241	-0.201	0.149
-80.611	405.163	-0.140	0.290
-79.597	490.445	-0.068	0.153
-78.582	647.036	0.084	0.210
-77.567	297.270	0.181	0.327
-76.553	-93.604	-0.214	-0.058
-75.538	6.085	-0.102	-0.075
-74.524	-61.711	0.297	-0.123
-73.509	39.628	0.097	-0.085
-72.494	160.690	-0.054	0.074
-71.480	526.451	0.049	-0.113
-70.465	1.310	0.111	-0.079
-69.451	254.072	0.110	0.185
-68.436	94.763	0.113	0.127
-67.422	681.483	-0.083	0.214
-66.407	-61.439	-0.258	0.107
-65.392	-129.939	0.089	-0.012
-64.378	800.000	-0.081	0.224
-63.363	-8.493	-0.176	-0.117
-62.349	-43.010	0.093	-0.047
-61.334	14.598	-1.089	-0.836
-60.319	7.276	0.394	0.289
-59.305	800.000	-0.187	-0.678
-58.290	13.748	0.923	0.705
-57.276	514.500	0.671	1.540
-56.261	-200.000	101.903	595.819
-55.246	603.291	1428.314	3493.308
-54.232	181.627	2653.064	3838.492
-53.217	114.048	2311.850	2764.705
-52.203	44.085	1921.282	1731.871
-51.188	37.828	1707.032	1491.012
-50.173	34.992	1662.726	1431.079
-49.159	52.384	1713.642	1607.349
-48.144	55.263	1730.906	1645.319
-47.130	37.363	1684.922	1467.951
-46.115	34.555	1670.010	1433.837
-45.100	34.361	1664.753	1427.816
-44.086	34.354	1661.892	1425.252
-43.071	34.380	1659.507	1423.344
-42.057	34.281	1657.506	1420.832
-41.042	34.301	1655.448	1419.160
-40.027	34.313	1653.399	1417.438
-39.013	34.405	1651.050	1416.051
-37.998	34.366	1649.563	1414.431
-36.984	34.353	1648.164	1413.075
-35.969	34.499	1646.691	1412.839
-34.954	34.598	1644.851	1411.936
-33.940	34.484	1643.075	1409.517
-32.925	34.450	1641.255	1407.646
-31.911	34.572	1639.675	1407.137
-30.896	34.468	1638.242	1405.086
-29.881	34.484	1636.232	1403.425
-28.867	34.569	1634.649	1402.636
-27.852	34.606	1632.553	1401.054
-26.838	34.576	1631.531	1399.902
-25.823	34.490	1630.388	1398.234
-24.809	34.520	1628.875	1397.098
-23.794	34.517	1627.670	1395.988
-22.779	34.590	1625.873	1394.925
-21.765	34.542	1624.323	1393.187
-20.750	34.504	1622.464	1391.263
-19.736	34.550	1620.776	1390.094
-18.721	34.584	1619.390	1389.100
-17.706	34.526	1617.737	1387.202
-16.692	34.470	1616.763	1385.906
-15.677	34.526	1615.219	1384.936
-14.663	34.559	1613.824	1383.923
-13.648	34.557	1612.694	1382.884
-12.633	34.476	1611.165	1380.934
-11.619	34.558	1609.116	1379.710
-10.604	34.526	1607.820	1378.313
-9.590	34.595	1606.286	1377.444
-8.575	34.553	1605.105	1376.072
-7.560	34.571	1603.708	1374.956
-6.546	34.607	1602.475	1374.097
-5.531	34.536	1602.170	1373.275
-4.517	34.511	1600.501	1371.607
-3.502	34.521	1599.349	1370.640
-2.487	34.565	1597.861	1369.625
-1.473	34.143	1585.574	1356.032
-0.458	30.813	1564.662	1314.628
0.556	24.208	1563.207	1275.489
1.571	21.597	1586.611	1275.472
2.586	20.920	1601.308	1282.197
3.600	19.023	1549.650	1227.206
4.615	10.397	1437.931	1081.298
5.629	1.596	1369.675	973.729
6.644	-0.222	1360.846	955.802
7.659	-0.352	1359.821	954.165
8.673	-0.356	1357.995	952.779
9.688	-0.390	1356.587	951.488
10.702	-0.614	1353.299	947.683
11.717	2.714	1359.950	973.403
12.731	11.850	1377.660	1044.516
13.746	18.097	1388.037	1092.333
14.761	18.705	1387.498	1095.695
15.775	18.773	1386.583	1095.308
16.790	18.826	1386.268	1095.303
17.804	18.824	1386.019	1094.995
18.819	19.046	1385.279	1095.726
19.834	19.101	1384.902	1095.681
20.848	19.015	1384.436	1094.668
21.863	19.162	1383.216	1094.538
22.877	19.135	1381.931	1093.257
23.892	19.118	1381.108	1092.398
24.907	19.133	1380.552	1091.956
25.921	19.122	1379.621	1091.056
26.936	19.115	1378.533	1090.055
27.950	19.083	1377.514	1088.951
28.965	19.145	1376.183	1088.192
29.980	19.103	1374.779	1086.722
30.994	19.171	1373.474	1086.025
32.009	19.140	1372.590	1085.033
33.023	19.154	1371.310	1084.011
34.038	19.089	1370.127	1082.573
35.053	19.076	1369.410	1081.827
36.067	19.142	1367.921	1080.972
37.082	19.169	1366.934	1080.264
38.096	19.128	1366.165	1079.307
39.111	19.072	1365.687	1078.480
40.126	19.049	1364.964	1077.671
41.140	19.035	1364.339	1076.993
42.155	19.072	1364.326	1077.116
43.169	19.116	1363.618	1076.738
44.184	19.079	1363.635	1076.429
45.199	19.079	1363.147	1075.944
46.213	19.084	1362.699	1075.526
47.228	19.043	1361.760	1074.439
48.242	19.100	1360.421	1073.644
49.257	19.107	1358.908	1072.395
50.271	19.089	1357.715	1071.248
51.286	18.995	1356.569	1069.666
52.301	19.002	1355.362	1068.658
53.315	19.094	1353.972	1068.043
54.330	19.114	1352.964	1067.277
55.344	19.050	1351.647	1065.745
56.359	19.071	1351.239	1065.461
57.374	19.097	1350.305	1064.792
58.388	19.069	1349.602	1063.970
59.403	19.005	1349.532	1063.426
60.417	19.181	1348.378	1063.506
61.432	19.120	1347.749	1062.539
62.447	19.163	1346.793	1061.955
63.461	19.224	1344.973	1060.801
64.476	19.128	1344.591	1059.820
65.490	19.136	1343.470	1058.888
66.505	19.036	1341.706	1056.795
67.520	19.090	1340.411	1056.013
68.534	19.122	1339.482	1055.379
69.549	19.173	1338.687	1054.974
70.563	19.162	1337.137	1053.591
71.578	19.169	1336.445	1052.997
72.593	19.134	1335.700	1052.100
73.607	19.036	1334.981	1050.843
74.622	19.152	1334.092	1050.760
75.636	19.161	1333.016	1049.870
76.651	19.111	1332.579	1049.133
77.666	19.252	1331.500	1049.046
78.680	19.102	1331.650	1048.156
79.695	19.039	1330.681	1046.919
80.709	19.248	1328.929	1046.719
81.724	19.201	1328.456	1045.966
82.739	19.201	1327.653	1045.241
83.753	19.070	1326.855	1043.726
84.768	19.100	1325.407	1042.679
85.782	19.123	1324.239	1041.804
86.797	19.141	1322.984	1040.833
87.812	19.107	1321.964	1039.738
88.826	19.184	1320.712	1039.123
89.841	19.092	1319.904	1037.845
90.855	19.169	1318.866	1037.396
91.870	19.177	1317.950	1036.637
92.884	19.233	1316.811	1035.984
93.899	19.146	1316.260	1034.937
94.914	19.297	1315.010	1034.768
95.928	19.233	1314.586	1033.957
96.943	19.316	1313.041	1033.147
97.957	19.197	1312.925	1032.255
98.972	19.201	1312.031	1031.484
99.987	19.206	1310.922	1030.551
101.001	19.235	1310.172	1030.042
102.016	19.119	1308.833	1028.208
103.030	19.161	1307.910	1027.641
104.045	19.190	1306.591	1026.687
105.060	19.292	1305.248	1026.144
106.074	19.239	1304.681	1025.293
107.089	19.290	1303.039	1024.219
108.103	19.181	1302.553	1023.098
109.118	19.168	1301.474	1022.082
110.133	19.197	1300.189	1021.154
111.147	19.350	1298.352	1020.526
112.162	19.170	1297.716	1018.873
113.176	19.318	1296.222	1018.480
114.191	19.182	1295.528	1017.047
115.206	19.357	1294.180	1016.926
116.220	19.227	1293.194	1015.299
117.235	19.304	1292.254	1014.922
118.249	19.231	1290.921	1013.359
119.264	19.213	1290.344	1012.707
120.279	19.293	1289.131	1012.137
121.293	19.333	1287.765	1011.212
122.308	19.304	1287.020	1010.366
123.322	19.426	1285.786	1010.020
124.337	19.232	1285.529	1008.593
125.352	19.249	1284.006	1007.410
126.366	19.362	1282.930	1007.136
127.381	19.295	1282.292	1006.155
128.395	19.325	1280.559	1004.878
129.410	19.396	1280.005	1004.773
130.424	19.288	1279.711	1003.822
131.439	19.217	1278.499	1002.371
132.454	19.364	1277.650	1002.472
133.468	19.320	1277.107	1001.700
134.483	19.338	1276.306	1001.087
135.497	19.349	1274.922	999.976
136.512	19.302	1273.964	998.863
137.527	19.270	1272.886	997.744
138.541	19.217	1271.738	996.453
139.556	19.236	1270.182	995.251
140.570	19.277	1268.689	994.231
141.585	19.330	1267.439	993.469
142.600	19.302	1266.309	992.333
143.614	19.303	1265.890	991.924
144.629	19.279	1264.598	990.686
145.643	19.360	1263.314	990.061
146.658	19.225	1262.475	988.542
147.673	19.276	1261.569	988.034
148.687	19.266	1260.156	986.782
149.702	19.222	1259.189	985.689
150.716	19.266	1258.263	985.127
151.731	19.294	1256.995	984.208
152.746	19.348	1255.746	983.447
153.760	19.367	1254.802	982.730
154.775	19.364	1253.676	981.744
155.789	19.285	1252.916	980.612
156.804	19.278	1251.932	979.718
157.819	19.281	1251.110	979.004
158.833	19.224	1250.038	977.756
159.848	19.369	1249.114	977.766
160.862	19.432	1248.347	977.442
161.877	19.413	1247.415	976.514
162.892	19.346	1246.790	975.562
163.906	19.398	1245.996	975.145
164.921	19.409	1245.306	974.581
165.935	19.456	1244.357	974.017
166.950	19.341	1244.077	973.065
167.964	19.401	1242.951	972.438
168.979	19.385	1242.349	971.792
169.994	19.548	1241.912	972.277
171.008	19.471	1240.819	970.905
172.023	19.460	1239.872	970.017
173.037	19.500	1239.498	969.861
174.052	19.505	1238.596	969.097
175.067	19.464	1237.805	968.163
176.081	19.493	1236.985	967.601
177.096	19.438	1236.107	966.517
178.110	19.484	1235.286	966.049
179.125	19.480	1234.163	965.061
180.140	19.597	1232.969	964.697
181.154	19.449	1232.274	963.241
182.169	19.375	1231.681	962.281
183.183	19.487	1229.908	961.431
184.198	19.572	1228.854	960.996
185.213	19.514	1227.914	959.857
186.227	19.557	1227.055	959.337
187.242	19.549	1226.247	958.576
188.256	19.513	1225.580	957.768
189.271	19.552	1224.544	957.095
190.286	19.554	1223.615	956.294
191.300	19.491	1223.130	955.478
192.315	19.503	1222.899	955.283
193.329	19.561	1222.336	955.076
194.344	19.586	1221.804	954.717
195.359	19.555	1221.277	954.049
196.373	19.470	1220.781	953.109
197.388	19.344	1220.791	952.336
198.402	19.374	1220.553	952.231
199.417	19.466	1219.387	951.743
200.432	19.557	1218.674	951.603
201.446	19.418	1218.281	950.445
202.461	19.446	1217.454	949.871
203.475	19.550	1216.464	949.586
204.490	19.489	1215.389	948.328
205.504	19.573	1214.605	948.097
206.519	19.563	1213.089	946.771
207.534	19.605	1212.311	946.314
208.548	19.648	1211.132	945.543
209.563	19.563	1210.412	944.433
210.577	19.582	1209.801	943.978
211.592	19.552	1209.119	943.198
212.607	19.640	1208.021	942.738
213.621	19.574	1207.273	941.711
214.636	19.635	1206.947	941.706
215.650	19.572	1206.041	940.570
216.665	19.799	1204.416	940.458
217.680	19.653	1203.860	939.146
218.694	19.668	1203.358	938.752
219.709	19.518	1203.027	937.598
220.723	19.717	1201.762	937.607
221.738	19.558	1201.154	936.185
222.753	19.539	1200.698	935.643
223.767	19.545	1199.909	934.980
224.782	19.723	1199.331	935.411
225.796	19.759	1199.005	935.266
226.811	19.705	1197.938	934.059
227.826	19.728	1197.551	933.802
228.840	19.664	1197.061	932.992
229.855	19.690	1196.495	932.608
230.869	19.669	1195.722	931.810
231.884	19.774	1194.808	931.580
232.899	19.799	1193.673	930.749
233.913	19.766	1193.290	930.190
234.928	19.741	1192.825	929.610
235.942	19.780	1192.068	929.147
236.957	19.856	1191.115	928.732
237.972	19.787	1190.548	927.834
238.986	19.660	1190.246	926.836
240.001	19.692	1189.504	926.347
241.015	19.872	1188.624	926.544
242.030	19.831	1187.770	925.581
243.045	19.759	1187.295	924.739
244.059	19.857	1186.394	924.481
245.074	19.844	1185.504	923.634
246.088	19.870	1184.723	923.085
247.103	19.896	1183.988	922.570
248.117	19.935	1183.190	922.072
249.132	19.832	1182.727	921.086
250.147	19.867	1182.093	920.694
251.161	19.996	1180.848	920.326
252.176	19.942	1180.441	919.644
253.190	19.998	1179.634	919.232
254.205	19.984	1179.291	918.810
255.220	19.800	1179.000	917.525
256.234	19.972	1178.035	917.600
257.249	19.953	1177.314	916.859
258.263	19.835	1177.268	916.119
259.278	19.921	1176.253	915.699
260.293	20.061	1175.695	915.927
261.307	20.062	1175.027	915.330
262.322	19.956	1174.832	914.535
263.336	19.918	1173.951	913.573
264.351	19.945	1173.551	913.318
265.366	19.911	1172.878	912.538
266.380	19.897	1172.283	911.920
267.395	19.991	1171.195	911.487
268.409	20.040	1170.304	910.969
269.424	20.110	1169.911	910.951
270.439	20.007	1169.484	909.995
271.453	20.065	1168.332	909.323
272.468	20.002	1167.815	908.510
273.482	20.055	1167.069	908.130
274.497	20.073	1166.702	907.857
275.512	20.124	1166.217	907.669
276.526	20.088	1165.747	907.031
277.541	20.076	1164.969	906.282
278.555	20.124	1164.511	906.100
279.570	20.211	1162.803	905.144
280.585	20.081	1162.821	904.399
281.599	20.201	1161.616	904.005
282.614	20.053	1160.761	902.490
283.628	20.166	1159.934	902.356
284.643	20.169	1158.929	901.510
285.657	20.140	1158.068	900.609
286.672	20.240	1157.690	900.755
287.687	20.079	1157.102	899.381
288.701	20.258	1156.051	899.412
289.716	20.324	1155.289	899.083
290.730	20.185	1154.878	897.963
291.745	20.189	1154.148	897.335
292.760	20.268	1153.391	897.078
293.774	20.306	1153.178	897.032
294.789	20.271	1152.392	896.158
295.803	20.220	1151.819	895.370
296.818	20.312	1150.920	895.068
297.833	20.250	1150.130	894.053
298.847	20.356	1149.687	894.177
299.862	20.294	1149.133	893.345
300.876	20.321	1148.177	892.661
301.891	20.301	1147.509	891.963
302.906	20.394	1147.201	892.122
303.920	20.287	1146.622	891.043
304.935	20.340	1145.977	890.737
305.949	20.406	1145.059	890.279
306.964	20.506	1144.175	890.029
307.979	20.360	1143.805	888.912
308.993	20.294	1143.067	887.923
310.008	20.475	1141.990	887.933
311.022	20.461	1141.304	887.248
312.037	20.483	1140.764	886.866
313.052	20.469	1140.098	886.197
314.066	20.438	1139.403	885.419
315.081	20.495	1138.150	884.659
316.095	20.557	1137.873	884.681
317.110	20.460	1137.224	883.605
318.125	20.473	1136.623	883.125
319.139	20.411	1135.991	882.242
320.154	20.570	1134.872	882.097
321.168	20.379	1134.885	881.064
322.183	20.515	1134.149	881.100
323.197	20.455	1133.840	880.482
324.212	20.417	1132.979	879.540
325.227	20.371	1132.644	878.968
326.241	20.573	1131.609	879.111
327.256	20.577	1130.991	878.573
328.270	20.546	1130.268	877.777
329.285	20.464	1130.013	877.091
330.300	20.535	1128.380	876.103
331.314	20.558	1128.032	875.868
332.329	20.704	1127.045	875.762
333.343	20.620	1126.247	874.640
334.358	20.702	1125.556	874.438
335.373	20.516	1124.868	872.893
336.387	20.602	1124.081	872.633
337.402	20.591	1123.564	872.102
338.416	20.801	1122.475	872.233
339.431	20.783	1121.624	871.405
340.446	20.760	1121.550	871.151
341.460	20.727	1120.766	870.303
342.475	20.748	1120.082	869.798
343.489	20.628	1119.069	868.339
344.504	20.763	1118.029	868.125
345.519	20.645	1117.790	867.276
346.533	20.755	1116.942	867.089
347.548	20.783	1116.094	866.491
348.562	20.816	1115.237	865.915
349.577	20.755	1114.610	865.051
350.592	20.814	1113.619	864.496
351.606	20.797	1112.932	863.801
352.621	20.901	1112.111	863.603
353.635	20.819	1112.302	863.269
354.650	20.830	1111.010	862.245
355.665	20.939	1110.280	862.140
356.679	20.867	1109.838	861.366
357.694	20.775	1109.493	860.566
358.708	20.892	1108.455	860.265
359.723	20.952	1108.026	860.150
360.738	20.815	1107.413	858.924
361.752	20.803	1107.329	858.720
362.767	20.840	1106.431	858.133
363.781	20.979	1105.668	858.146
364.796	20.939	1105.529	857.770
365.810	20.981	1104.654	857.218
366.825	21.069	1104.073	857.126
367.840	21.059	1103.056	856.213
368.854	21.093	1102.876	856.160
369.869	21.068	1101.996	855.282
370.883	20.964	1101.426	854.253
371.898	21.011	1100.752	853.886
372.913	21.084	1100.221	853.752
373.927	21.107	1099.525	853.250
374.942	21.167	1099.059	853.108
375.956	21.055	1098.551	852.088
376.971	21.044	1098.155	851.655
377.986	21.117	1097.550	851.467
379.000	21.104	1097.225	851.074
380.015	21.119	1096.380	850.419
381.029	21.171	1095.709	850.075
382.044	21.141	1095.261	849.508
383.059	21.284	1093.827	849.015
384.073	21.181	1093.315	848.043
385.088	21.267	1092.649	847.866
386.102	21.163	1091.743	846.582
387.117	21.145	1091.013	845.856
388.132	21.110	1090.346	845.095
389.146	21.288	1089.591	845.298
390.161	21.331	1088.977	844.951
391.175	21.176	1088.508	843.764
392.190	21.162	1087.562	842.889
393.205	21.200	1087.046	842.596
394.219	21.255	1085.898	841.897
395.234	21.394	1084.985	841.788
396.248	21.327	1084.513	841.022
397.263	21.415	1083.464	840.558
398.278	21.335	1083.003	839.741
399.292	21.363	1082.403	839.335
400.307	21.382	1081.797	838.883
401.321	21.321	1081.270	838.109
402.336	21.385	1080.440	837.698
403.350	21.289	1079.757	836.632
404.365	21.356	1079.179	836.431
405.380	21.418	1078.353	836.013
406.394	21.394	1077.702	835.320
407.409	21.460	1076.518	834.645
408.423	21.436	1076.065	834.105
409.438	21.492	1075.157	833.594
410.453	21.546	1074.599	833.344
411.467	21.537	1073.901	832.687
412.482	21.385	1073.633	831.682
413.496	21.504	1072.747	831.489
414.511	21.501	1072.272	831.035
415.526	21.519	1071.446	830.406
416.540	21.522	1071.017	830.010
417.555	21.648	1070.569	830.190
418.569	21.597	1070.163	829.560
419.584	21.549	1069.952	829.093
420.599	21.444	1069.682	828.317
421.613	147.516	1396.368	1791.180
422.628	135.942	1443.966	1791.283
