DTS Sentinel unit serial number:	SN413079Multiplexer serial number:	ORYXHardware model number:	OX4-SRSoftware version number:	ORYX F/W v4.00 Oryx Data Collector v3.7.2.0data status	okinstallation	princeton_trtdifferential loss correction	single-endedforward channel	channel 2reverse channel	N/Adate	2019/09/11time	11:45:11forward acquisition time	60.00reverse acquisition time	0.00gamma	496.2192k internal	0.2302k external	0.2302temperature offset calibration	0.9970default loss term (dB/km)	0.3790temperature slope calibration	1.0000multiplexer offset coefficient	1.0000multiplexer slope coefficient	1.0000fibre end	0.00T internal ref (°C)	38.62T ext. ref 1 (°C)	0.19T ext. ref 2 (°C)	36.31length (m)	temperature (°C)	Stokes	anti-Stokes-747.200	800.000	0.020	0.065
-746.185	165.114	0.294	0.424
-745.171	-200.000	0.034	-0.211
-744.156	-191.797	-0.176	0.002
-743.142	-16.880	0.327	0.211
-742.127	-200.000	-0.023	0.207
-741.112	392.014	-0.158	-0.334
-740.098	800.000	0.038	-0.109
-739.083	182.173	0.134	-0.201
-738.069	-128.635	0.247	0.036
-737.054	-123.855	-0.127	0.020
-736.039	56.192	-0.225	0.223
-735.025	520.307	0.069	0.165
-734.010	-22.179	-0.337	-0.209
-732.996	-200.000	-0.008	-0.106
-731.981	2.537	0.222	-0.164
-730.966	-55.316	-0.130	-0.059
-729.952	800.000	0.150	-0.479
-728.937	121.014	-0.026	0.033
-727.923	23.251	-0.136	-0.114
-726.908	571.047	-0.057	0.142
-725.894	61.207	-0.153	0.155
-724.879	-43.963	0.199	0.102
-723.864	263.994	-0.058	-0.103
-722.850	-133.521	-0.091	0.012
-721.835	131.963	0.126	0.165
-720.821	-200.000	-0.003	0.089
-719.806	-200.000	-0.028	-0.142
-718.791	-19.014	-0.159	0.101
-717.777	38.805	-0.143	-0.130
-716.762	38.794	0.109	-0.099
-715.748	499.472	0.116	0.272
-714.733	-200.000	-0.056	-0.285
-713.718	-142.951	-0.028	0.003
-712.704	23.775	0.107	0.090
-711.689	76.395	-0.148	-0.159
-710.675	-200.000	0.038	-0.372
-709.660	-67.755	0.168	-0.067
-708.645	146.681	0.076	-0.104
-707.631	-200.000	-0.046	-0.294
-706.616	380.379	0.120	-0.250
-705.602	-120.145	0.224	0.039
-704.587	-49.603	0.216	-0.104
-703.572	117.975	0.187	0.235
-702.558	800.000	-0.033	-0.129
-701.543	67.892	-0.129	-0.134
-700.529	-186.989	-0.267	-0.004
-699.514	-0.539	0.127	-0.092
-698.499	46.891	-0.275	-0.260
-697.485	98.080	0.280	0.327
-696.470	-107.806	0.122	0.027
-695.456	17.808	0.182	0.147
-694.441	52.040	-0.271	0.262
-693.426	-156.564	0.197	0.012
-692.412	-45.898	0.135	-0.068
-691.397	-117.380	-0.332	-0.061
-690.383	-118.396	0.093	-0.017
-689.368	800.000	0.056	-0.214
-688.354	-24.186	-0.174	-0.106
-687.339	4.378	-0.203	0.151
-686.324	-200.000	-0.021	-0.105
-685.310	465.423	-0.145	-0.331
-684.295	-62.701	-0.118	-0.050
-683.281	-145.984	0.296	0.027
-682.266	-86.463	0.129	-0.040
-681.251	50.347	-0.140	0.134
-680.237	800.000	-0.038	0.145
-679.222	95.468	-0.154	0.178
-678.208	64.805	0.105	-0.108
-677.193	202.151	-0.161	0.252
-676.178	71.027	0.278	-0.293
-675.164	54.658	0.106	-0.104
-674.149	-78.812	0.172	-0.060
-673.135	50.809	-0.178	0.172
-672.120	-14.092	0.142	-0.093
-671.105	-80.489	-0.304	-0.103
-670.091	32.512	-0.070	-0.062
-669.076	199.674	-0.161	0.251
-668.062	-63.455	0.228	0.095
-667.047	344.440	0.084	0.168
-666.032	236.019	-0.201	-0.337
-665.018	800.000	-0.066	-0.207
-664.003	-200.000	0.056	-0.259
-662.989	-64.104	0.266	0.110
-661.974	-113.098	-0.203	0.041
-660.959	388.450	0.073	0.153
-659.945	-0.909	-0.010	0.007
-658.930	742.173	0.086	-0.234
-657.916	-37.295	-0.251	0.136
-656.901	232.176	0.007	-0.012
-655.886	-106.525	-0.261	-0.059
-654.872	-40.522	0.160	-0.085
-653.857	-200.000	-0.032	-0.175
-652.843	467.815	-0.157	0.357
-651.828	92.031	0.137	0.157
-650.814	15.493	0.347	0.276
-649.799	800.000	-0.064	-0.226
-648.784	-200.000	-0.023	-0.133
-647.770	-41.718	-0.246	-0.128
-646.755	-200.000	0.026	-0.347
-645.741	472.313	-0.046	-0.104
-644.726	-106.471	0.123	0.028
-643.711	-118.776	-0.225	-0.040
-642.697	-110.840	0.269	-0.056
-641.682	241.563	-0.093	-0.158
-640.668	28.961	0.018	0.016
-639.653	800.000	-0.052	0.186
-638.638	618.089	0.190	0.483
-637.624	-133.305	0.015	0.002
-636.609	-200.000	0.022	0.413
-635.595	-200.000	-0.067	0.315
-634.580	-130.224	-0.073	0.010
-633.565	-84.962	0.293	0.093
-632.551	-200.000	-0.044	0.234
-631.536	-115.004	0.185	-0.036
-630.522	62.969	-0.216	0.220
-629.507	25.774	-0.189	-0.159
-628.492	1.325	-0.275	0.200
-627.478	163.031	-0.038	-0.054
-626.463	653.877	-0.116	-0.303
-625.449	-71.658	-0.272	0.103
-624.434	394.837	0.079	0.168
-623.419	-60.645	-0.200	-0.086
-622.405	-54.255	-0.120	-0.055
-621.390	-89.151	0.136	0.041
-620.376	-130.458	0.196	-0.027
-619.361	800.000	-0.078	0.231
-618.346	392.874	0.055	-0.116
-617.332	-72.065	0.294	-0.111
-616.317	-52.110	0.127	-0.060
-615.303	401.747	-0.156	-0.333
-614.288	162.320	-0.173	-0.246
-613.273	-200.000	-0.048	0.226
-612.259	-200.000	0.030	-0.249
-611.244	-62.512	-0.295	0.124
-610.230	-200.000	0.053	0.303
-609.215	98.283	-0.089	-0.103
-608.201	-145.376	0.401	0.037
-607.186	-114.144	0.217	-0.043
-606.171	-200.000	-0.011	-0.163
-605.157	539.317	-0.147	0.354
-604.142	-200.000	-0.009	0.089
-603.128	-109.076	0.208	-0.045
-602.113	266.958	0.172	0.305
-601.098	-128.216	0.290	0.042
-600.084	-18.507	0.191	0.121
-599.069	237.973	0.107	0.180
-598.055	-200.000	-0.049	-0.267
-597.040	26.365	0.125	-0.106
-596.025	-21.398	-0.153	-0.095
-595.011	67.814	-0.254	0.263
-593.996	-18.054	-0.255	0.162
-592.982	-200.000	0.012	0.361
-591.967	800.000	-0.180	-0.531
-590.952	-19.213	-0.180	0.113
-589.938	-200.000	-0.022	0.207
-588.923	768.676	0.100	-0.275
-587.909	771.680	-0.098	0.271
-586.894	-94.253	0.190	0.053
-585.879	-93.988	0.158	0.044
-584.865	-200.000	-0.001	0.148
-583.850	-200.000	0.035	-0.280
-582.836	-200.000	-0.014	-0.108
-581.821	32.627	-0.168	0.147
-580.806	-31.926	-0.327	0.185
-579.792	-12.368	0.023	-0.015
-578.777	-200.000	-0.039	-0.291
-577.763	-200.000	-0.040	-0.204
-576.748	92.059	-0.168	0.191
-575.733	32.837	0.084	-0.074
-574.719	-121.672	0.155	-0.026
-573.704	35.806	0.214	0.190
-572.690	-181.807	-0.196	0.004
-571.675	-114.022	0.200	0.039
-570.661	800.000	-0.017	-0.053
-569.646	-200.000	-0.039	0.411
-568.631	-94.907	-0.199	0.055
-567.617	-87.978	0.087	0.027
-566.602	385.983	-0.154	0.322
-565.588	39.852	0.291	0.264
-564.573	-160.017	0.166	0.009
-563.558	383.826	-0.095	-0.198
-562.544	552.785	0.067	-0.164
-561.529	251.151	0.006	-0.010
-560.515	211.685	-0.030	-0.048
-559.500	218.680	-0.097	0.157
-558.485	-76.075	0.123	-0.044
-557.471	-200.000	-0.002	0.352
-556.456	94.371	0.111	-0.127
-555.442	-27.536	0.158	-0.093
-554.427	-56.782	-0.066	0.029
-553.412	-11.108	0.242	-0.161
-552.398	1.857	0.190	0.139
-551.383	-78.948	-0.149	0.051
-550.369	-200.000	0.011	0.300
-549.354	-84.905	0.099	0.031
-548.339	636.508	-0.144	-0.371
-547.325	-200.000	-0.035	0.188
-546.310	112.835	-0.067	-0.083
-545.296	-172.539	0.093	-0.003
-544.281	-63.043	-0.071	-0.030
-543.266	-43.806	0.186	-0.094
-542.252	282.191	0.149	-0.270
-541.237	-108.229	0.359	-0.079
-540.223	-94.096	-0.131	0.036
-539.208	-27.535	-0.037	0.022
-538.193	-20.723	-0.258	-0.160
-537.179	-200.000	0.012	-0.163
-536.164	-200.000	-0.003	0.140
-535.150	162.563	0.045	-0.064
-534.135	-121.722	-0.282	0.047
-533.121	-157.076	-0.111	-0.007
-532.106	-200.000	0.009	-0.059
-531.091	-61.728	0.086	-0.037
-530.077	-200.000	-0.007	-0.126
-529.062	800.000	-0.088	0.308
-528.048	-104.860	-0.038	0.009
-527.033	243.033	-0.169	-0.287
-526.018	-102.953	0.332	-0.080
-525.004	-71.983	-0.319	-0.120
-523.989	800.000	0.056	-0.230
-522.975	800.000	0.016	0.054
-521.960	-200.000	0.020	-0.224
-520.945	-72.217	0.107	-0.040
-519.931	246.336	0.071	0.120
-518.916	800.000	0.031	-0.095
-517.902	-200.000	-0.076	-0.391
-516.887	130.768	-0.155	-0.201
-515.872	-200.000	0.024	0.243
-514.858	91.613	-0.113	0.128
-513.843	37.452	0.203	-0.182
-512.829	276.975	0.118	-0.212
-511.814	248.002	0.186	-0.318
-510.799	-178.038	-0.217	-0.005
-509.785	-169.328	0.078	0.003
-508.770	-29.026	0.303	-0.176
-507.756	-187.640	-0.318	0.004
-506.741	174.120	-0.337	-0.492
-505.726	-200.000	0.038	-0.271
-504.712	508.958	-0.072	0.169
-503.697	800.000	-0.041	0.161
-502.683	-200.000	0.002	-0.332
-501.668	644.610	0.097	-0.250
-500.653	-112.830	-0.101	0.020
-499.639	-134.065	-0.258	-0.032
-498.624	-19.955	0.148	-0.092
-497.610	580.941	0.070	0.173
-496.595	-99.318	-0.218	-0.056
-495.581	4.843	0.157	0.116
-494.566	41.573	-0.089	0.082
-493.551	-200.000	0.013	-0.236
-492.537	10.425	-0.118	0.091
-491.522	573.742	-0.055	-0.135
-490.508	-112.146	-0.122	-0.025
-489.493	23.574	0.144	-0.120
-488.478	-26.559	0.107	-0.063
-487.464	155.782	-0.210	0.292
-486.449	187.579	-0.182	0.275
-485.435	800.000	-0.107	0.328
-484.420	596.445	0.155	-0.388
-483.405	33.643	0.132	-0.116
-482.391	103.183	-0.278	-0.329
-481.376	-200.000	0.050	0.370
-480.362	800.000	-0.024	0.087
-479.347	-200.000	0.023	-0.197
-478.332	7.622	0.218	-0.165
-477.318	-180.599	0.267	-0.006
-476.303	84.776	-0.143	-0.158
-475.289	-200.000	0.056	-0.493
-474.274	-200.000	0.009	0.110
-473.259	-45.228	-0.099	0.050
-472.245	-12.310	-0.194	0.128
-471.230	32.243	0.097	-0.084
-470.216	646.792	0.027	-0.070
-469.201	800.000	-0.009	-0.037
-468.186	-17.200	-0.025	0.016
-467.172	26.388	0.216	-0.182
-466.157	51.200	-0.232	-0.222
-465.143	75.480	0.050	0.053
-464.128	-127.876	-0.176	-0.026
-463.113	-30.198	-0.141	-0.081
-462.099	-200.000	-0.018	-0.117
-461.084	-200.000	-0.045	0.368
-460.070	-63.169	0.272	0.113
-459.055	-105.579	0.273	-0.062
-458.040	-96.935	0.201	0.053
-457.026	-139.264	0.119	-0.013
-456.011	-200.000	-0.010	0.083
-454.997	266.886	-0.038	-0.067
-453.982	-200.000	0.035	0.414
-452.968	-0.174	-0.064	-0.046
-451.953	164.091	0.195	0.276
-450.938	-15.642	-0.085	-0.055
-449.924	-200.000	-0.048	-0.324
-448.909	-20.397	0.291	-0.181
-447.895	73.370	-0.225	-0.237
-446.880	-125.861	-0.373	-0.057
-445.865	494.065	-0.114	0.264
-444.851	27.786	-0.055	-0.046
-443.836	42.622	0.147	0.135
-442.822	800.000	0.128	-0.375
-441.807	349.232	0.173	-0.344
-440.792	-200.000	0.004	-0.313
-439.778	22.943	-0.231	-0.190
-438.763	-200.000	0.017	-0.081
-437.749	-200.000	-0.039	0.215
-436.734	-89.645	-0.100	0.030
-435.719	427.235	-0.093	0.202
-434.705	69.913	-0.281	-0.292
-433.690	-125.492	-0.277	0.042
-432.676	-119.901	-0.099	0.017
-431.661	-25.000	-0.118	-0.071
-430.646	131.226	0.127	-0.164
-429.632	-68.578	0.194	-0.076
-428.617	141.231	0.104	0.138
-427.603	-89.355	0.057	0.017
-426.588	-200.000	-0.030	-0.426
-425.573	276.141	0.296	-0.530
-424.559	66.769	-0.074	-0.076
-423.544	-65.661	-0.083	-0.034
-422.530	159.869	0.099	-0.138
-421.515	-53.260	0.221	-0.102
-420.500	800.000	0.012	-0.041
-419.486	57.127	-0.176	0.172
-418.471	80.063	0.282	-0.306
-417.457	184.052	-0.129	0.193
-416.442	-34.124	-0.107	0.059
-415.428	-86.554	-0.148	0.046
-414.413	110.030	0.102	-0.123
-413.398	18.216	0.160	0.128
-412.384	800.000	-0.058	0.169
-411.369	55.107	0.086	-0.084
-410.355	800.000	-0.037	-0.106
-409.340	-24.470	0.172	0.103
-408.325	-200.000	-0.002	0.100
-407.311	-23.640	-0.149	0.090
-406.296	24.423	-0.141	-0.117
-405.282	-69.547	0.110	0.042
-404.267	-40.379	-0.155	-0.081
-403.252	433.926	-0.200	0.438
-402.238	-81.597	0.067	-0.022
-401.223	-75.413	0.136	0.049
-400.209	-24.552	-0.078	-0.047
-399.194	-200.000	-0.002	-0.106
-398.179	-200.000	-0.031	0.318
-397.165	-52.293	-0.027	-0.013
-396.150	648.349	-0.063	-0.162
-395.136	-114.805	-0.219	0.042
-394.121	-200.000	0.017	0.110
-393.106	171.941	-0.172	-0.248
-392.092	66.133	-0.128	0.131
-391.077	-69.753	0.065	0.025
-390.063	-79.985	0.120	-0.040
-389.048	-200.000	0.031	0.201
-388.033	-25.229	0.156	0.093
-387.019	149.006	0.089	-0.122
-386.004	800.000	-0.042	-0.149
-384.990	-63.237	0.140	-0.058
-383.975	-82.638	0.292	-0.095
-382.960	458.558	-0.046	-0.102
-381.946	-95.425	0.365	0.098
-380.931	345.250	-0.121	-0.238
-379.917	118.989	-0.207	-0.257
-378.902	338.121	-0.114	0.223
-377.888	-24.160	-0.112	0.067
-376.873	-200.000	0.026	-0.235
-375.858	286.393	-0.175	0.318
-374.844	661.901	0.114	0.296
-373.829	800.000	-0.027	0.094
-372.815	-183.809	0.339	0.006
-371.800	54.409	-0.026	-0.025
-370.785	-121.741	-0.291	0.048
-369.771	-200.000	-0.020	-0.257
-368.756	736.375	-0.107	-0.289
-367.742	-9.512	-0.277	0.186
-366.727	661.083	-0.080	0.207
-365.712	800.000	-0.141	-0.401
-364.698	-98.974	0.248	-0.063
-363.683	-42.926	0.142	-0.072
-362.669	645.244	0.084	-0.216
-361.654	-200.000	0.001	-0.152
-360.639	17.730	0.161	-0.129
-359.625	-200.000	0.001	0.140
-358.610	-47.855	-0.215	0.104
-357.596	222.775	0.135	-0.218
-356.581	-136.947	-0.354	-0.041
-355.566	800.000	0.041	-0.138
-354.552	-163.104	-0.165	0.008
-353.537	501.142	-0.114	0.265
-352.523	39.488	-0.206	-0.185
-351.508	-1.160	-0.204	0.145
-350.493	-66.543	0.236	0.094
-349.479	201.669	-0.225	0.348
-348.464	-95.774	0.155	0.042
-347.450	-85.800	-0.151	-0.047
-346.435	-51.514	-0.189	0.089
-345.420	144.046	0.128	0.171
-344.406	-200.000	-0.008	-0.165
-343.391	-127.361	0.532	0.078
-342.377	450.264	-0.112	0.247
-341.362	309.941	0.114	0.213
-340.348	62.902	-0.150	0.151
-339.333	-200.000	0.040	0.239
-338.318	-200.000	0.028	-0.132
-337.304	-200.000	-0.038	0.171
-336.289	234.465	-0.069	0.114
-335.275	111.466	0.159	-0.193
-334.260	-68.408	-0.261	-0.101
-333.245	-175.396	0.083	-0.002
-332.231	95.414	-0.235	-0.269
-331.216	-179.782	0.510	-0.011
-330.202	15.207	0.353	0.278
-329.187	77.650	0.130	-0.138
-328.172	-2.107	0.124	-0.088
-327.158	-59.641	0.124	-0.053
-326.143	378.532	0.162	0.332
-325.129	6.714	0.190	0.142
-324.114	14.668	0.121	-0.095
-323.099	-19.836	0.106	0.065
-322.085	394.260	0.061	-0.128
-321.070	-34.649	-0.326	0.179
-320.056	285.003	-0.205	-0.370
-319.041	-155.570	0.280	0.018
-318.026	-70.099	0.177	0.067
-317.012	212.144	-0.153	0.241
-315.997	-200.000	-0.028	0.133
-314.983	80.002	-0.123	-0.133
-313.968	800.000	0.063	-0.237
-312.953	-200.000	0.020	0.511
-311.939	-102.981	-0.223	-0.053
-310.924	-200.000	-0.010	0.113
-309.910	735.747	-0.114	-0.305
-308.895	-166.581	0.385	-0.016
-307.880	-147.730	-0.249	0.021
-306.866	-56.470	0.189	0.084
-305.851	92.430	0.211	0.238
-304.837	-200.000	-0.026	0.146
-303.822	-91.428	0.218	-0.062
-302.807	-200.000	0.004	0.018
-301.793	800.000	-0.082	0.239
-300.778	-103.933	-0.385	0.090
-299.764	62.451	-0.044	0.044
-298.749	-112.988	-0.128	-0.025
-297.735	230.953	0.104	0.171
-296.720	44.393	0.095	0.087
-295.705	-13.286	-0.188	0.122
-294.691	604.620	0.067	-0.168
-293.676	-131.857	0.158	-0.021
-292.662	-73.265	-0.194	-0.071
-291.647	280.154	0.135	0.242
-290.632	241.408	-0.213	0.356
-289.618	-95.225	0.121	0.033
-288.603	-64.707	-0.278	0.113
-287.589	-112.010	-0.219	0.044
-286.574	-200.000	-0.058	0.312
-285.559	-200.000	-0.065	-0.397
-284.545	38.800	0.291	0.260
-283.530	-75.885	0.222	-0.079
-282.516	58.954	0.117	0.115
-281.501	269.958	-0.070	-0.123
-280.486	146.179	-0.236	0.317
-279.472	46.315	-0.147	-0.137
-278.457	-200.000	-0.027	0.182
-277.443	15.937	-0.127	0.100
-276.428	-93.542	0.105	0.029
-275.413	152.261	0.187	0.256
-274.399	-200.000	0.007	0.190
-273.384	-69.477	-0.095	0.037
-272.370	91.347	-0.016	0.018
-271.355	252.499	0.122	0.208
-270.340	-200.000	-0.045	-0.217
-269.326	-23.341	0.103	0.062
-268.311	-45.812	0.220	-0.109
-267.297	800.000	0.036	0.136
-266.282	-200.000	0.302	0.001
-265.267	800.000	0.047	-0.197
-264.253	-4.918	0.103	-0.071
-263.238	-176.934	-0.277	-0.007
-262.224	179.972	0.106	0.155
-261.209	-200.000	0.029	0.247
-260.195	-146.499	0.166	0.014
-259.180	199.264	0.089	-0.136
-258.165	304.905	0.101	0.188
-257.151	-200.000	-0.020	0.198
-256.136	-2.125	-0.161	0.113
-255.122	447.114	-0.037	-0.081
-254.107	301.633	0.064	-0.118
-253.092	-116.400	0.380	0.070
-252.078	285.833	0.029	-0.052
-251.063	414.698	0.050	-0.106
-250.049	385.664	-0.074	-0.153
-249.034	-200.000	0.040	-0.288
-248.019	124.072	-0.309	0.388
-247.005	36.222	0.172	-0.151
-245.990	8.910	-0.105	0.079
-244.976	220.190	0.074	-0.118
-243.961	135.078	-0.082	0.106
-242.946	657.980	-0.023	0.060
-241.932	24.823	0.212	-0.176
-240.917	160.900	-0.169	-0.236
-239.903	800.000	-0.065	-0.205
-238.888	-18.745	0.115	-0.071
-237.873	34.378	0.244	0.213
-236.859	29.692	0.144	0.123
-235.844	800.000	0.101	0.280
-234.830	-58.139	0.165	0.072
-233.815	40.309	-0.044	-0.039
-232.800	-105.609	0.331	0.075
-231.786	13.119	0.120	-0.092
-230.771	-36.250	-0.119	-0.064
-229.757	-59.324	0.095	0.041
-228.742	107.621	0.089	-0.106
-227.727	-200.000	0.035	0.290
-226.713	-155.574	-0.267	0.017
-225.698	16.020	0.277	-0.218
-224.684	219.725	-0.054	-0.086
-223.669	105.112	-0.234	0.276
-222.655	800.000	0.142	0.408
-221.640	254.490	0.074	-0.126
-220.625	-200.000	0.038	0.233
-219.611	-200.000	0.016	0.094
-218.596	-111.112	0.039	-0.008
-217.582	292.036	-0.144	-0.262
-216.567	-49.087	-0.359	0.171
-215.552	6.985	0.147	0.109
-214.538	1.760	0.046	0.033
-213.523	-49.446	-0.097	-0.046
-212.509	-154.032	-0.074	0.005
-211.494	-200.000	0.013	0.115
-210.479	204.458	0.032	-0.049
-209.465	800.000	0.056	0.168
-208.450	-140.828	0.355	0.036
-207.436	800.000	0.069	0.244
-206.421	104.467	-0.181	0.213
-205.406	90.556	-0.177	-0.198
-204.392	-135.476	-0.179	0.021
-203.377	124.054	-0.295	-0.370
-202.363	62.430	-0.118	-0.118
-201.348	325.187	0.070	0.133
-200.333	-90.876	-0.224	-0.064
-199.319	89.691	-0.169	0.188
-198.304	62.529	0.158	0.158
-197.290	76.153	0.190	0.200
-196.275	-15.810	-0.238	-0.151
-195.260	-74.891	0.109	0.039
-194.246	-123.926	-0.261	0.041
-193.231	-200.000	-0.005	-0.041
-192.217	7.209	-0.173	0.129
-191.202	-127.804	-0.518	0.075
-190.187	-132.487	0.526	-0.067
-189.173	-200.000	0.018	0.130
-188.158	60.765	-0.249	0.246
-187.144	159.443	0.176	-0.244
-186.129	-15.389	0.250	-0.159
-185.114	42.930	-0.135	-0.123
-184.100	800.000	-0.108	0.448
-183.085	-92.533	-0.268	-0.075
-182.071	-14.866	0.214	0.137
-181.056	-143.838	-0.176	0.017
-180.042	-67.646	0.194	0.076
-179.027	490.809	0.061	-0.139
-178.012	-73.298	0.235	0.086
-176.998	11.894	-0.110	0.084
-175.983	83.444	-0.076	-0.083
-174.969	-40.410	0.455	0.236
-173.954	293.156	0.093	0.169
-172.939	420.579	-0.061	-0.131
-171.925	-21.187	-0.398	-0.243
-170.910	-63.871	-0.340	0.139
-169.896	-8.134	0.243	0.163
-168.881	-200.000	-0.008	-0.177
-167.866	-146.333	-0.080	0.007
-166.852	-119.510	0.191	-0.033
-165.837	-49.068	-0.105	0.050
-164.823	8.684	-0.129	-0.097
-163.808	225.394	0.082	-0.132
-162.793	800.000	-0.055	-0.165
-161.779	-70.363	-0.072	0.027
-160.764	-46.888	0.225	-0.109
-159.750	-200.000	0.019	-0.226
-158.735	586.911	0.060	-0.146
-157.720	393.803	0.149	-0.310
-156.706	-200.000	-0.001	-0.134
-155.691	-200.000	-0.042	-0.328
-154.677	-149.281	-0.322	0.026
-153.662	122.296	-0.101	-0.126
-152.647	204.942	0.167	-0.258
-151.633	800.000	0.061	0.193
-150.618	492.607	-0.035	-0.081
-149.604	332.762	-0.030	-0.058
-148.589	-50.320	0.577	0.272
-147.574	753.374	-0.133	0.359
-146.560	-60.829	0.257	0.109
-145.545	136.386	-0.082	0.106
-144.531	-110.642	0.352	-0.072
-143.516	271.893	0.026	-0.046
-142.502	15.102	0.244	-0.191
-141.487	149.566	0.387	-0.522
-140.472	188.116	-0.070	0.104
-139.458	-111.701	-0.365	-0.074
-138.443	-133.401	0.377	-0.047
-137.429	175.454	0.076	-0.110
-136.414	145.222	0.029	-0.039
-135.399	127.273	-0.071	0.090
-134.385	5.771	-0.125	-0.092
-133.370	-140.541	-0.182	0.019
-132.356	-200.000	0.023	0.136
-131.341	-37.304	0.212	-0.113
-130.326	-83.119	0.188	-0.060
-129.312	316.682	0.140	-0.263
-128.297	800.000	-0.122	-0.335
-127.283	427.067	0.044	0.095
-126.268	576.148	-0.102	0.248
-125.253	14.913	-0.232	0.180
-124.239	-200.000	0.058	0.349
-123.224	157.231	0.152	0.210
-122.210	141.873	-0.191	0.252
-121.195	5.603	-0.211	-0.155
-120.180	173.574	0.170	0.244
-119.166	-135.274	-0.128	-0.015
-118.151	61.090	-0.170	0.168
-117.137	-200.000	0.008	0.301
-116.122	-89.336	0.293	-0.086
-115.107	486.373	-0.070	-0.158
-114.093	-200.000	-0.024	0.163
-113.078	4.085	0.259	0.189
-112.064	-61.690	0.110	-0.046
-111.049	-200.000	0.021	0.189
-110.034	-200.000	-0.012	0.314
-109.020	386.340	-0.128	-0.262
-108.005	-72.769	-0.160	-0.058
-106.991	287.939	0.157	-0.283
-105.976	282.800	-0.024	-0.043
-104.962	146.424	-0.120	0.160
-103.947	-200.000	0.054	0.530
-102.932	800.000	-0.132	0.380
-101.918	-200.000	0.222	0.000
-100.903	144.341	-0.195	-0.259
-99.889	800.000	-0.064	0.247
-98.874	107.663	0.001	0.002
-97.859	-200.000	0.047	0.286
-96.845	32.157	0.099	0.085
-95.830	149.478	0.100	-0.134
-94.816	-200.000	0.006	0.061
-93.801	-130.153	-0.176	0.024
-92.786	-200.000	-0.064	0.301
-91.772	291.329	0.167	0.301
-90.757	18.142	-0.176	0.139
-89.743	32.343	-0.114	0.098
-88.728	268.492	-0.061	-0.106
-87.713	-200.000	-0.049	-0.220
-86.699	-93.432	-0.071	0.019
-85.684	43.420	-0.101	-0.092
-84.670	-200.000	-0.002	0.252
-83.655	800.000	0.068	0.233
-82.640	-200.000	-0.018	0.226
-81.626	313.302	0.076	0.142
-80.611	-200.000	0.009	-0.075
-79.597	504.276	-0.100	-0.229
-78.582	-63.681	0.214	-0.087
-77.567	800.000	0.035	0.110
-76.553	-200.000	0.004	0.116
-75.538	106.501	0.153	0.180
-74.524	153.108	0.016	-0.022
-73.509	-200.000	-0.007	-0.038
-72.494	800.000	0.005	0.013
-71.480	-103.088	0.123	0.029
-70.465	-31.824	0.199	-0.111
-69.451	83.440	-0.133	-0.144
-68.436	59.916	0.213	-0.209
-67.422	-1.046	-0.235	-0.165
-66.407	800.000	0.069	-0.279
-65.392	-67.353	-0.230	-0.090
-64.378	82.765	0.045	-0.049
-63.363	79.363	0.073	-0.077
-62.349	-108.566	0.124	0.026
-61.334	32.204	-0.724	-0.619
-60.319	-76.060	0.458	0.161
-59.305	-200.000	-0.168	-0.773
-58.290	123.057	0.638	0.793
-57.276	-200.000	0.433	1.938
-56.261	-200.000	80.535	498.837
-55.246	564.442	1372.342	3299.046
-54.232	180.800	2620.040	3817.465
-53.217	117.475	2373.765	2896.859
-52.203	47.903	1978.470	1833.368
-51.188	41.778	1761.534	1583.939
-50.173	39.057	1714.984	1520.991
-49.159	53.997	1751.370	1670.128
-48.144	58.291	1768.871	1720.229
-47.130	41.814	1732.557	1557.924
-46.115	38.665	1718.993	1521.268
-45.100	38.603	1714.174	1516.456
-44.086	38.538	1711.455	1513.490
-43.071	38.563	1709.284	1511.703
-42.057	38.441	1706.944	1508.633
-41.042	38.488	1704.521	1506.793
-40.027	38.524	1702.672	1505.379
-39.013	38.518	1700.624	1503.457
-37.998	38.491	1698.883	1501.654
-36.984	38.558	1697.325	1500.729
-35.969	38.660	1695.996	1500.281
-34.954	38.690	1694.125	1498.792
-33.940	38.655	1692.315	1496.865
-32.925	38.560	1691.424	1495.291
-31.911	38.583	1688.960	1493.226
-30.896	38.726	1686.422	1492.018
-29.881	38.562	1685.245	1489.666
-28.867	38.573	1683.720	1488.340
-27.852	38.669	1681.582	1487.127
-26.838	38.570	1681.057	1485.846
-25.823	38.611	1679.639	1484.845
-24.809	38.687	1677.757	1483.696
-23.794	38.675	1676.142	1482.125
-22.779	38.703	1674.422	1480.751
-21.765	38.668	1672.863	1479.049
-20.750	38.623	1671.015	1477.021
-19.736	38.605	1669.912	1475.853
-18.721	38.711	1668.594	1475.423
-17.706	38.635	1667.126	1473.498
-16.692	38.606	1665.346	1471.646
-15.677	38.636	1664.132	1470.741
-14.663	38.727	1662.272	1469.723
-13.648	38.661	1661.073	1468.113
-12.633	38.653	1659.593	1466.682
-11.619	38.632	1657.825	1464.907
-10.604	38.666	1655.725	1463.248
-9.590	38.672	1654.435	1462.091
-8.575	38.641	1653.266	1460.768
-7.560	38.654	1652.031	1459.721
-6.546	38.624	1650.972	1458.498
-5.531	38.610	1650.013	1457.492
-4.517	38.604	1648.485	1456.040
-3.502	38.572	1647.752	1455.096
-2.487	38.632	1646.101	1454.027
-1.473	38.761	1634.745	1444.887
-0.458	36.612	1616.126	1412.694
0.556	31.477	1615.843	1381.080
1.571	29.008	1640.957	1383.877
2.586	28.339	1655.082	1390.589
3.600	24.683	1599.018	1316.494
4.615	12.836	1478.182	1135.748
5.629	2.251	1404.560	1009.469
6.644	0.358	1394.751	989.909
7.659	0.225	1392.849	987.600
8.673	0.162	1391.614	986.222
9.688	0.005	1390.471	984.295
10.702	-0.153	1386.956	980.691
11.717	3.616	1395.145	1011.114
12.731	14.793	1417.465	1101.236
13.746	22.711	1430.676	1163.858
14.761	23.425	1430.869	1168.620
15.775	23.520	1430.216	1168.609
16.790	23.613	1429.540	1168.568
17.804	23.540	1429.385	1167.856
18.819	23.850	1429.040	1169.511
19.834	23.856	1428.100	1168.677
20.848	23.816	1427.215	1167.587
21.863	24.010	1426.130	1167.869
22.877	23.869	1425.509	1166.333
23.892	23.858	1424.934	1165.688
24.907	23.889	1423.700	1164.774
25.921	23.874	1422.697	1163.757
26.936	23.956	1421.369	1163.100
27.950	23.862	1420.803	1161.919
28.965	23.837	1419.091	1160.258
29.980	23.964	1417.640	1159.792
30.994	23.815	1416.986	1158.183
32.009	23.821	1415.731	1157.095
33.023	23.896	1414.574	1156.535
34.038	23.894	1413.351	1155.421
35.053	23.822	1412.662	1154.290
36.067	23.953	1410.946	1153.636
37.082	23.804	1410.430	1152.147
38.096	23.870	1409.433	1151.655
39.111	23.780	1409.034	1150.646
40.126	23.785	1408.005	1149.735
41.140	23.753	1407.781	1149.241
42.155	23.923	1406.693	1149.351
43.169	23.771	1407.109	1148.606
44.184	23.880	1406.678	1148.856
45.199	23.781	1406.635	1148.079
46.213	23.784	1405.570	1147.130
47.228	23.808	1404.805	1146.556
48.242	23.752	1403.590	1145.106
49.257	23.901	1402.060	1144.714
50.271	23.838	1400.606	1143.023
51.286	23.946	1398.959	1142.269
52.301	23.838	1398.164	1140.824
53.315	23.708	1397.278	1139.167
54.330	23.868	1396.080	1139.115
55.344	23.884	1395.289	1138.474
56.359	23.854	1393.907	1137.050
57.374	23.834	1393.449	1136.453
58.388	23.851	1392.965	1136.063
59.403	23.801	1392.259	1135.068
60.417	23.767	1391.555	1134.176
61.432	23.792	1390.995	1133.779
62.447	23.832	1389.930	1133.065
63.461	23.893	1388.377	1132.091
64.476	23.840	1387.230	1130.714
65.490	23.911	1386.203	1130.230
66.505	23.854	1384.395	1128.292
67.520	23.859	1383.516	1127.507
68.534	23.940	1382.220	1126.865
69.549	23.838	1382.028	1125.967
70.563	23.903	1380.803	1125.277
71.578	23.864	1379.601	1123.955
72.593	23.913	1378.642	1123.384
73.607	23.967	1377.816	1122.946
74.622	23.948	1376.861	1121.955
75.636	23.799	1376.769	1120.841
76.651	23.860	1376.031	1120.524
77.666	23.817	1375.811	1119.970
78.680	23.766	1375.088	1118.967
79.695	23.795	1374.151	1118.287
80.709	23.830	1373.308	1117.722
81.724	23.910	1371.927	1117.001
82.739	23.896	1371.394	1116.377
83.753	23.854	1370.249	1115.083
84.768	23.848	1369.171	1114.071
85.782	23.882	1367.966	1113.204
86.797	23.899	1366.628	1112.121
87.812	23.900	1365.750	1111.316
88.826	24.000	1364.603	1110.910
89.841	23.908	1363.813	1109.592
90.855	23.903	1362.704	1108.562
91.870	23.882	1362.018	1107.775
92.884	23.880	1361.089	1106.909
93.899	23.967	1359.760	1106.269
94.914	23.962	1358.915	1105.454
95.928	23.943	1358.297	1104.739
96.943	23.887	1357.844	1103.922
97.957	23.982	1356.955	1103.693
98.972	23.942	1355.986	1102.556
99.987	23.899	1355.151	1101.516
101.001	23.871	1353.990	1100.304
102.016	23.976	1353.257	1100.260
103.030	23.945	1352.000	1098.949
104.045	23.971	1351.004	1098.203
105.060	24.010	1349.859	1097.413
106.074	23.878	1349.584	1096.277
107.089	23.925	1348.283	1095.412
108.103	24.031	1346.717	1094.699
109.118	23.996	1345.997	1093.803
110.133	24.008	1344.780	1092.789
111.147	24.018	1343.439	1091.662
112.162	23.987	1342.456	1090.576
113.176	24.008	1341.146	1089.543
114.191	23.954	1340.422	1088.531
115.206	23.920	1339.902	1087.803
116.220	24.005	1338.434	1087.033
117.235	24.023	1337.399	1086.208
118.249	23.903	1336.409	1084.577
119.264	24.013	1335.791	1084.647
120.279	24.009	1334.662	1083.610
121.293	23.905	1334.211	1082.518
122.308	24.038	1332.918	1082.183
123.322	24.046	1332.641	1081.907
124.337	24.052	1331.820	1081.181
125.352	24.012	1330.818	1080.034
126.366	24.175	1329.297	1079.691
127.381	24.010	1329.018	1078.369
128.395	24.174	1327.659	1078.160
129.410	24.040	1327.212	1076.890
130.424	24.023	1326.488	1076.108
131.439	24.028	1325.337	1075.110
132.454	24.106	1324.807	1075.055
133.468	24.056	1324.133	1074.109
134.483	24.075	1323.604	1073.701
135.497	23.970	1322.723	1072.259
136.512	24.139	1321.447	1072.145
137.527	24.036	1320.430	1070.606
138.541	24.001	1319.138	1069.258
139.556	24.031	1317.943	1068.374
140.570	24.036	1317.503	1067.953
141.585	24.020	1316.046	1066.580
142.600	24.018	1314.839	1065.497
143.614	24.092	1314.277	1065.388
144.629	24.081	1313.068	1064.244
145.643	24.031	1311.972	1062.965
146.658	23.988	1311.274	1062.052
147.673	23.958	1309.934	1060.691
148.687	23.901	1308.953	1059.465
149.702	23.945	1307.480	1058.439
150.716	23.993	1306.396	1057.752
151.731	23.921	1305.838	1056.779
152.746	24.025	1304.640	1056.336
153.760	24.066	1303.223	1055.340
154.775	24.063	1302.067	1054.293
155.789	24.069	1301.895	1054.093
156.804	24.043	1300.562	1052.767
157.819	24.083	1299.531	1052.074
158.833	23.978	1299.179	1051.080
159.848	24.079	1298.368	1050.927
160.862	24.085	1297.639	1050.278
161.877	23.959	1296.737	1048.713
162.892	24.018	1296.119	1048.465
163.906	24.141	1294.819	1048.046
164.921	24.141	1294.204	1047.458
165.935	24.101	1293.731	1046.746
166.950	24.144	1292.880	1046.218
167.964	24.074	1292.144	1045.116
168.979	24.071	1291.705	1044.651
169.994	24.099	1291.215	1044.330
171.008	24.143	1290.374	1043.815
172.023	24.248	1289.204	1043.391
173.037	24.196	1288.399	1042.338
174.052	24.122	1288.168	1041.631
175.067	24.118	1287.059	1040.617
176.081	24.062	1286.431	1039.689
177.096	24.168	1285.843	1039.739
178.110	24.125	1284.551	1038.355
179.125	24.153	1283.865	1037.869
180.140	24.160	1282.482	1036.701
181.154	24.188	1281.503	1035.979
182.169	24.261	1279.822	1034.953
183.183	24.161	1279.350	1033.899
184.198	24.207	1278.563	1033.440
185.213	24.118	1277.606	1032.056
186.227	24.189	1276.716	1031.658
187.242	24.167	1275.661	1030.589
188.256	24.197	1274.545	1029.769
189.271	24.302	1273.592	1029.517
190.286	24.242	1273.414	1028.932
191.300	24.114	1273.139	1027.880
192.315	24.166	1272.421	1027.509
193.329	24.134	1271.895	1026.809
194.344	24.236	1271.515	1026.999
195.359	24.273	1270.753	1026.506
196.373	24.269	1270.206	1025.949
197.388	24.142	1270.089	1025.036
198.402	23.994	1269.668	1023.754
199.417	24.184	1268.786	1024.042
200.432	24.164	1268.505	1023.608
201.446	24.202	1267.661	1023.057
202.461	24.223	1266.972	1022.534
203.475	24.204	1265.980	1021.533
204.490	24.294	1265.104	1021.248
205.504	24.266	1263.756	1019.909
206.519	24.289	1262.893	1019.258
207.534	24.288	1262.014	1018.452
208.548	24.115	1261.276	1016.775
209.563	24.303	1260.314	1016.986
210.577	24.328	1259.581	1016.444
211.592	24.245	1258.770	1015.229
212.607	24.385	1258.074	1015.376
213.621	24.341	1257.007	1014.173
214.636	24.436	1256.077	1013.873
215.650	24.411	1255.303	1013.013
216.665	24.318	1254.399	1011.671
217.680	24.381	1253.394	1011.127
218.694	24.299	1253.183	1010.404
219.709	24.299	1252.644	1009.880
220.723	24.508	1251.354	1009.931
221.738	24.420	1250.702	1008.817
222.753	24.275	1249.738	1007.133
223.767	24.341	1249.990	1007.619
224.782	24.441	1249.078	1007.361
225.796	24.565	1248.102	1007.180
226.811	24.395	1247.909	1005.979
227.826	24.406	1247.705	1005.789
228.840	24.338	1247.220	1004.922
229.855	24.410	1246.173	1004.398
230.869	24.463	1245.360	1003.949
231.884	24.349	1244.479	1002.511
232.899	24.505	1243.750	1002.712
233.913	24.581	1242.455	1002.004
234.928	24.485	1242.691	1001.571
235.942	24.574	1241.940	1001.371
236.957	24.560	1241.265	1000.663
237.972	24.509	1240.302	999.512
238.986	24.539	1239.836	999.217
240.001	24.530	1239.309	998.649
241.015	24.610	1238.709	998.526
242.030	24.671	1237.481	997.791
243.045	24.706	1236.606	997.193
244.059	24.664	1235.633	996.085
245.074	24.585	1235.656	995.575
246.088	24.628	1234.865	995.088
247.103	24.576	1233.769	993.827
248.117	24.648	1232.856	993.406
249.132	24.681	1232.383	993.118
250.147	24.680	1231.941	992.668
251.161	24.626	1230.841	991.394
252.176	24.757	1229.733	991.143
253.190	24.709	1229.310	990.444
254.205	24.693	1228.535	989.647
255.220	24.658	1228.007	988.939
256.234	24.793	1227.408	989.119
257.249	24.752	1226.596	988.145
258.263	24.633	1226.096	986.997
259.278	24.752	1225.698	987.249
260.293	24.696	1225.464	986.665
261.307	24.643	1224.992	985.907
262.322	24.789	1223.894	985.739
263.336	24.823	1223.028	985.139
264.351	24.752	1222.611	984.329
265.366	24.743	1221.909	983.624
266.380	24.627	1221.867	982.867
267.395	24.691	1220.835	982.301
268.409	24.653	1220.059	981.379
269.424	24.769	1219.252	981.279
270.439	24.773	1219.177	981.156
271.453	24.861	1218.134	980.712
272.468	24.843	1217.098	979.692
273.482	24.822	1216.325	978.870
274.497	24.769	1216.600	978.713
275.512	24.876	1215.743	978.524
276.526	24.816	1214.808	977.354
277.541	24.813	1214.515	977.018
278.555	24.795	1213.973	976.397
279.570	24.918	1212.713	975.967
280.585	24.903	1212.059	975.270
281.599	24.973	1210.752	974.513
282.614	24.927	1209.859	973.460
283.628	25.032	1209.253	973.455
284.643	24.835	1209.009	972.104
285.657	24.898	1207.801	971.392
286.672	24.929	1207.076	970.890
287.687	24.830	1206.271	969.617
288.701	25.005	1205.330	969.724
289.716	24.912	1204.657	968.593
290.730	24.903	1204.192	968.084
291.745	25.045	1203.356	968.094
292.760	24.997	1203.119	967.560
293.774	25.071	1202.463	967.343
294.789	25.018	1201.770	966.415
295.803	24.937	1201.406	965.601
296.818	24.957	1200.597	964.974
297.833	24.989	1199.952	964.540
298.847	25.061	1198.775	963.899
299.862	25.088	1198.129	963.436
300.876	25.145	1197.345	963.031
301.891	25.075	1196.954	962.255
302.906	25.176	1196.280	962.166
303.920	25.128	1195.661	961.330
304.935	25.156	1194.971	960.836
305.949	25.060	1194.311	959.711
306.964	25.149	1194.040	959.879
307.979	25.178	1193.187	959.265
308.993	25.207	1192.780	959.009
310.008	25.214	1191.804	958.178
311.022	25.282	1190.756	957.610
312.037	25.248	1190.143	956.855
313.052	25.131	1189.328	955.489
314.066	25.162	1188.485	954.891
315.081	25.300	1187.254	954.554
316.095	25.275	1186.615	953.825
317.110	25.297	1186.173	953.501
318.125	25.232	1185.966	952.906
319.139	25.259	1185.106	952.270
320.154	25.286	1184.570	951.899
321.168	25.170	1183.968	950.715
322.183	25.153	1183.595	950.242
323.197	25.228	1182.863	949.968
324.212	25.286	1182.075	949.557
325.227	25.281	1181.726	949.165
326.241	25.417	1180.835	949.086
327.256	25.286	1180.400	947.962
328.270	25.434	1179.460	947.905
329.285	25.379	1178.820	947.017
330.300	25.313	1177.911	945.852
331.314	25.288	1177.215	945.078
332.329	25.197	1176.238	943.734
333.343	25.320	1175.669	943.840
334.358	25.529	1174.909	944.244
335.373	25.503	1173.723	943.070
336.387	25.425	1173.293	942.234
337.402	25.534	1172.397	942.002
338.416	25.435	1171.752	940.882
339.431	25.489	1171.523	940.896
340.446	25.570	1170.922	940.751
341.460	25.589	1170.105	940.114
342.475	25.561	1169.377	939.299
343.489	25.494	1168.270	937.980
344.504	25.532	1167.527	937.497
345.519	25.487	1166.713	936.527
346.533	25.679	1165.485	936.457
347.548	25.536	1165.169	935.374
348.562	25.656	1164.127	935.079
349.577	25.667	1163.621	934.647
350.592	25.605	1162.624	933.444
351.606	25.554	1162.475	932.977
352.621	25.558	1161.788	932.362
353.635	25.691	1160.886	932.245
354.650	25.633	1160.313	931.402
355.665	25.741	1159.537	931.254
356.679	25.716	1159.231	930.798
357.694	25.664	1158.657	929.985
358.708	25.692	1157.899	929.438
359.723	25.661	1157.125	928.577
360.738	25.658	1156.343	927.851
361.752	25.765	1155.832	927.912
362.767	25.819	1155.299	927.678
363.781	25.828	1154.777	927.226
364.796	25.870	1154.250	926.933
365.810	25.748	1153.333	925.490
366.825	25.720	1153.015	925.010
367.840	25.757	1152.804	924.948
368.854	25.888	1152.055	924.936
369.869	25.925	1150.995	924.192
370.883	25.795	1150.230	922.830
371.898	25.879	1149.804	922.840
372.913	25.855	1149.123	922.087
373.927	25.955	1148.224	921.793
374.942	25.802	1148.198	920.911
375.956	25.889	1147.621	920.810
376.971	25.881	1147.320	920.448
377.986	25.904	1146.673	919.963
379.000	25.886	1146.222	919.426
380.015	25.954	1145.572	919.172
381.029	25.893	1144.946	918.276
382.044	25.929	1143.865	917.514
383.059	26.117	1142.942	917.647
384.073	25.968	1142.704	916.617
385.088	26.079	1141.506	916.137
386.102	26.047	1140.503	915.092
387.117	26.002	1140.221	914.554
388.132	25.989	1139.153	913.550
389.146	26.059	1138.624	913.401
390.161	26.137	1137.845	913.089
391.175	25.961	1137.610	911.929
392.190	25.921	1137.116	911.249
393.205	26.108	1135.583	910.889
394.219	26.077	1135.023	910.201
395.234	26.134	1134.362	909.876
396.248	26.231	1133.022	909.209
397.263	26.103	1132.730	908.250
398.278	26.205	1132.067	908.150
399.292	26.119	1131.313	907.036
400.307	26.255	1130.559	907.031
401.321	26.251	1130.271	906.701
402.336	26.211	1129.348	905.679
403.350	26.153	1128.967	905.005
404.365	26.136	1128.522	904.484
405.380	26.208	1127.447	903.902
406.394	26.221	1126.738	903.317
407.409	26.291	1126.075	903.056
408.423	26.403	1125.392	902.988
409.438	26.359	1124.423	901.909
410.453	26.355	1124.012	901.481
411.467	26.289	1123.258	900.467
412.482	26.301	1122.517	899.854
413.496	26.433	1121.755	899.822
414.511	26.280	1120.933	898.318
415.526	26.330	1120.969	898.520
416.540	26.408	1120.111	898.138
417.555	26.382	1119.665	897.571
418.569	26.376	1119.144	897.044
419.584	26.485	1118.881	897.295
420.599	26.579	1118.253	897.178
421.613	140.320	1398.996	1769.724
422.628	130.678	1439.904	1769.863
