DTS Sentinel unit serial number:	SN413079Multiplexer serial number:	ORYXHardware model number:	OX4-SRSoftware version number:	ORYX F/W v4.00 Oryx Data Collector v3.7.2.0data status	okinstallation	princeton_trtdifferential loss correction	single-endedforward channel	channel 2reverse channel	N/Adate	2019/09/11time	22:25:11forward acquisition time	60.00reverse acquisition time	0.00gamma	496.2192k internal	0.2325k external	0.2325temperature offset calibration	1.0074default loss term (dB/km)	0.3790temperature slope calibration	1.0000multiplexer offset coefficient	1.0000multiplexer slope coefficient	1.0000fibre end	0.00T internal ref (°C)	35.14T ext. ref 1 (°C)	1.79T ext. ref 2 (°C)	29.36length (m)	temperature (°C)	Stokes	anti-Stokes-747.200	75.204	0.065	0.069
-746.185	-153.362	-0.029	-0.002
-745.171	-8.237	0.118	-0.080
-744.156	94.743	0.134	0.154
-743.142	161.871	0.164	-0.231
-742.127	-141.758	-0.410	-0.041
-741.112	-27.707	0.158	0.092
-740.098	-16.209	0.315	0.202
-739.083	56.629	-0.074	-0.072
-738.069	530.922	0.195	0.465
-737.054	-31.175	-0.158	0.090
-736.039	57.535	-0.172	0.170
-735.025	-200.000	-0.028	0.354
-734.010	-138.156	-0.138	0.015
-732.996	180.859	-0.083	0.123
-731.981	-200.000	0.010	0.095
-730.966	132.961	0.196	-0.255
-729.952	-200.000	0.002	-0.121
-728.937	-200.000	-0.010	0.118
-727.923	78.253	0.140	-0.151
-726.908	82.996	-0.199	-0.218
-725.894	-66.969	0.080	0.032
-724.879	-99.349	-0.195	0.050
-723.864	-48.699	0.261	0.126
-722.850	-78.245	0.273	0.095
-721.835	-200.000	0.002	-0.079
-720.821	299.135	0.045	0.083
-719.806	-130.927	-0.316	-0.043
-718.791	-200.000	-0.046	0.218
-717.777	-79.419	0.049	-0.017
-716.762	28.218	0.125	-0.106
-715.748	17.729	0.380	-0.305
-714.733	22.777	-0.149	0.123
-713.718	-122.040	0.284	-0.047
-712.704	-200.000	-0.013	0.222
-711.689	800.000	-0.056	0.204
-710.675	412.997	-0.195	-0.418
-709.660	122.338	0.060	-0.075
-708.645	100.339	0.179	0.210
-707.631	31.799	0.319	0.277
-706.616	-34.599	-0.124	-0.069
-705.602	-200.000	-0.039	-0.230
-704.587	227.927	-0.463	0.759
-703.572	-117.771	0.292	0.053
-702.558	109.597	-0.102	0.124
-701.543	-3.999	0.298	0.208
-700.529	-200.000	-0.047	0.317
-699.514	-131.981	0.275	0.036
-698.499	-48.621	0.336	-0.163
-697.485	662.860	-0.065	0.168
-696.470	-128.040	0.096	0.014
-695.456	-129.785	-0.201	0.028
-694.441	393.034	0.103	-0.217
-693.426	800.000	-0.095	0.337
-692.412	-200.000	0.015	-0.127
-691.397	81.708	-0.341	0.371
-690.383	-96.171	-0.198	0.053
-689.368	-200.000	-0.015	-0.139
-688.354	-95.977	0.118	-0.032
-687.339	800.000	0.061	-0.191
-686.324	-200.000	0.004	0.145
-685.310	34.525	0.068	0.060
-684.295	-26.447	0.171	0.101
-683.281	-36.801	-0.418	-0.226
-682.266	66.680	-0.098	-0.100
-681.251	13.252	-0.107	-0.083
-680.237	800.000	-0.026	-0.075
-679.222	-200.000	-0.038	-0.258
-678.208	439.420	-0.080	0.175
-677.193	-58.949	-0.262	0.114
-676.178	-154.219	-0.221	-0.015
-675.164	-200.000	0.001	-0.158
-674.149	-200.000	-0.021	0.203
-673.135	-51.924	-0.248	0.116
-672.120	-10.887	-0.199	-0.132
-671.105	-128.209	-0.298	0.043
-670.091	178.705	0.049	-0.072
-669.076	64.584	-0.211	-0.214
-668.062	-200.000	0.086	-0.382
-667.047	-49.518	0.395	-0.189
-666.032	94.802	-0.110	-0.126
-665.018	-120.139	0.112	0.019
-664.003	16.616	-0.274	0.218
-662.989	-24.659	-0.139	0.083
-661.974	-5.088	0.107	-0.074
-660.959	251.332	0.075	-0.128
-659.945	-136.780	-0.281	-0.033
-658.930	-85.147	-0.136	-0.043
-657.916	-52.991	-0.270	-0.125
-656.901	-123.264	0.215	-0.035
-655.886	65.337	-0.266	0.271
-654.872	40.235	-0.372	0.337
-653.857	-160.681	0.157	0.008
-652.843	63.648	-0.130	0.131
-651.828	76.471	0.072	-0.077
-650.814	-76.960	0.095	0.033
-649.799	800.000	0.049	0.165
-648.784	88.940	-0.074	-0.083
-647.770	118.828	0.031	-0.039
-646.755	-200.000	-0.056	-0.306
-645.741	-23.923	-0.095	-0.057
-644.726	-72.507	0.463	-0.172
-643.711	-200.000	-0.189	0.001
-642.697	60.278	0.016	0.016
-641.682	216.641	-0.122	-0.196
-640.668	188.212	-0.139	-0.209
-639.653	-107.880	0.168	-0.037
-638.638	38.573	0.065	-0.058
-637.624	-200.000	-0.015	0.245
-636.609	-46.817	0.134	0.066
-635.595	231.645	0.096	0.158
-634.580	800.000	0.056	0.159
-633.565	-83.027	0.155	0.050
-632.551	194.666	-0.117	-0.178
-631.536	-86.848	-0.196	0.060
-630.522	-200.000	0.021	0.095
-629.507	-2.350	-0.233	-0.164
-628.492	-105.331	0.055	0.013
-627.478	-161.184	-0.205	-0.011
-626.463	-100.199	-0.201	0.050
-625.449	800.000	-0.048	-0.146
-624.434	-89.008	0.490	0.146
-623.419	132.305	0.079	0.102
-622.405	2.606	-0.102	0.074
-621.390	-200.000	0.017	-0.117
-620.376	-73.303	-0.553	0.203
-619.361	-81.186	-0.222	0.074
-618.346	-28.330	0.344	-0.200
-617.332	112.091	-0.089	0.108
-616.317	-200.000	-0.040	0.178
-615.303	28.348	0.239	-0.203
-614.288	394.922	-0.109	-0.229
-613.273	-113.502	-0.336	0.066
-612.259	-50.170	0.234	0.111
-611.244	262.386	-0.131	-0.228
-610.230	-8.911	0.085	0.057
-609.215	44.162	-0.084	-0.078
-608.201	272.778	-0.147	-0.260
-607.186	-200.000	0.011	0.219
-606.171	-200.000	-0.023	0.140
-605.157	-91.491	-0.299	-0.086
-604.142	-200.000	-0.055	-0.263
-603.128	42.718	-0.102	-0.093
-602.113	703.579	0.064	-0.168
-601.098	-21.149	0.114	0.070
-600.084	533.006	-0.103	-0.245
-599.069	-79.904	-0.089	0.030
-598.055	25.909	-0.211	0.177
-597.040	-200.000	0.079	-0.498
-596.025	-98.609	-0.133	0.034
-595.011	-72.714	0.045	-0.017
-593.996	340.231	0.174	0.340
-592.982	-200.000	0.020	0.333
-591.967	-39.913	0.206	0.108
-590.952	299.600	-0.038	0.070
-589.938	-142.569	-0.136	0.013
-588.923	-40.410	-0.201	0.105
-587.909	88.780	-0.085	-0.095
-586.894	194.141	-0.168	0.255
-585.879	-200.000	0.018	0.314
-584.865	-200.000	0.052	0.293
-583.850	-37.854	-0.325	0.173
-582.836	-25.277	0.128	0.076
-581.821	-118.251	0.222	-0.040
-580.806	-36.433	-0.317	-0.171
-579.792	119.759	-0.070	0.087
-578.777	183.683	-0.178	0.264
-577.763	-200.000	0.005	-0.047
-576.748	81.013	-0.163	-0.176
-575.733	114.917	0.160	0.196
-574.719	-200.000	-0.026	0.298
-573.704	-200.000	-0.004	0.027
-572.690	11.592	0.284	-0.218
-571.675	-200.000	0.009	-0.299
-570.661	61.012	0.173	-0.172
-569.646	547.429	0.040	0.096
-568.631	453.878	-0.209	0.465
-567.617	433.058	-0.120	0.261
-566.602	75.918	0.082	-0.087
-565.588	-156.853	-0.134	-0.008
-564.573	-20.430	-0.062	-0.038
-563.558	-88.623	0.356	-0.106
-562.544	162.309	-0.074	0.103
-561.529	-80.156	-0.223	0.075
-560.515	-27.926	0.239	-0.139
-559.500	18.839	0.194	0.156
-558.485	-4.520	-0.125	-0.086
-557.471	-41.332	0.023	-0.012
-556.456	-200.000	0.009	-0.240
-555.442	-81.317	0.157	-0.052
-554.427	-26.449	0.035	-0.021
-553.412	-200.000	-0.039	-0.174
-552.398	-77.947	0.209	0.072
-551.383	-89.813	0.186	0.055
-550.369	73.455	-0.147	-0.154
-549.354	-4.985	-0.149	0.103
-548.339	-78.557	0.356	-0.122
-547.325	135.887	0.090	0.118
-546.310	106.328	0.037	0.043
-545.296	70.593	0.113	0.117
-544.281	-200.000	-0.037	-0.350
-543.266	220.167	-0.237	-0.379
-542.252	-200.000	-0.002	0.058
-541.237	-176.021	-0.081	-0.002
-540.223	57.358	0.092	-0.090
-539.208	800.000	-0.083	0.258
-538.193	-200.000	0.003	0.234
-537.179	-196.467	-0.360	0.002
-536.164	-33.277	0.313	0.173
-535.150	800.000	-0.028	-0.085
-534.135	-200.000	-0.021	0.241
-533.121	-200.000	-0.032	0.173
-532.106	-200.000	0.028	0.177
-531.091	194.382	0.120	-0.183
-530.077	800.000	-0.034	-0.105
-529.062	-41.782	-0.247	0.127
-528.048	-7.920	0.404	0.273
-527.033	-107.352	0.285	-0.063
-526.018	-200.000	-0.039	-0.232
-525.004	-182.084	-0.051	0.001
-523.989	176.350	0.129	0.187
-522.975	-78.569	0.102	0.035
-521.960	-72.174	0.475	-0.176
-520.945	105.186	0.054	0.064
-519.931	3.278	0.101	-0.074
-518.916	-141.909	0.137	0.014
-517.902	-35.061	0.176	0.096
-516.887	800.000	-0.012	-0.036
-515.872	-137.876	-0.286	-0.032
-514.858	800.000	0.059	0.245
-513.843	201.871	0.061	0.095
-512.829	-200.000	-0.009	0.161
-511.814	-19.177	-0.072	0.045
-510.799	-137.899	-0.282	0.032
-509.785	81.730	-0.112	-0.121
-508.770	23.288	-0.123	-0.101
-507.756	-93.097	0.130	-0.036
-506.741	-71.135	-0.239	-0.090
-505.726	-9.872	0.274	-0.182
-504.712	-200.000	0.005	0.097
-503.697	-128.300	-0.234	-0.033
-502.683	-168.911	-0.354	0.013
-501.668	106.710	0.260	-0.308
-500.653	-167.353	0.046	-0.002
-499.639	430.880	-0.167	-0.362
-498.624	-200.000	-0.021	-0.135
-497.610	800.000	-0.070	-0.196
-496.595	-26.823	-0.190	0.111
-495.581	92.234	0.072	-0.081
-494.566	121.549	0.122	0.152
-493.551	-200.000	0.012	-0.358
-492.537	800.000	0.030	-0.114
-491.522	-26.008	0.322	0.189
-490.508	36.156	-0.082	0.072
-489.493	-30.031	0.288	0.164
-488.478	-135.648	-0.281	0.033
-487.464	566.478	-0.036	-0.087
-486.449	-12.343	-0.229	-0.150
-485.435	-69.846	0.148	0.056
-484.420	79.283	-0.186	-0.199
-483.405	105.200	-0.064	-0.075
-482.391	240.813	0.064	0.107
-481.376	369.366	-0.106	0.213
-480.362	-200.000	-0.018	0.168
-479.347	-200.000	-0.004	-0.286
-478.332	800.000	0.046	-0.187
-477.318	-163.539	-0.312	0.015
-476.303	-138.409	0.474	0.052
-475.289	-44.968	0.315	-0.156
-474.274	-66.895	-0.105	-0.042
-473.259	-20.324	-0.121	-0.075
-472.245	424.334	-0.021	0.044
-471.230	-200.000	-0.006	0.050
-470.216	-200.000	0.038	0.183
-469.201	-158.630	0.229	0.013
-468.186	-200.000	-0.033	-0.146
-467.172	-16.855	-0.145	-0.092
-466.157	800.000	0.052	0.144
-465.143	-199.587	0.130	0.001
-464.128	-144.419	0.187	0.017
-463.113	800.000	-0.020	-0.087
-462.099	10.919	-0.106	-0.081
-461.084	800.000	-0.163	-0.522
-460.070	800.000	0.060	-0.252
-459.055	-103.367	-0.365	0.086
-458.040	-87.152	0.122	-0.037
-457.026	242.831	-0.158	0.264
-456.011	800.000	0.021	-0.078
-454.997	-200.000	0.003	0.392
-453.982	-200.000	0.006	0.080
-452.968	310.665	-0.114	-0.212
-451.953	110.623	0.011	0.014
-450.938	109.989	-0.028	-0.033
-449.924	311.533	-0.083	-0.155
-448.909	356.717	0.106	0.211
-447.895	-79.549	0.261	-0.088
-446.880	-65.215	0.343	-0.138
-445.865	82.110	0.246	-0.266
-444.851	306.318	-0.073	-0.135
-443.836	-200.000	0.001	-0.031
-442.822	11.687	0.054	0.042
-441.807	66.333	-0.152	0.154
-440.792	368.598	0.093	-0.187
-439.778	-200.000	0.013	0.299
-438.763	-200.000	0.059	-0.408
-437.749	681.738	-0.148	-0.384
-436.734	800.000	0.061	0.262
-435.719	-200.000	-0.059	-0.311
-434.705	142.085	0.052	0.068
-433.690	-61.598	0.249	0.104
-432.676	591.558	0.130	0.320
-431.661	474.672	-0.040	-0.089
-430.646	142.981	0.239	0.317
-429.632	169.903	-0.158	-0.226
-428.617	-18.035	-0.117	0.073
-427.603	695.968	0.101	-0.264
-426.588	13.326	-0.369	0.285
-425.573	129.195	0.107	-0.136
-424.559	-44.398	-0.041	-0.020
-423.544	129.040	-0.131	0.166
-422.530	-200.000	-0.023	0.156
-421.515	-16.930	0.144	0.090
-420.500	800.000	0.084	-0.278
-419.486	-112.193	-0.314	-0.063
-418.471	-200.000	-0.057	-0.285
-417.457	-124.938	-0.216	0.033
-416.442	800.000	0.082	0.294
-415.428	800.000	0.033	0.114
-414.413	-25.479	0.255	-0.150
-413.398	-92.847	0.058	0.016
-412.384	13.403	-0.139	-0.107
-411.369	23.070	-0.081	0.066
-410.355	529.840	-0.141	0.331
-409.340	-200.000	-0.005	-0.137
-408.325	94.153	0.117	-0.133
-407.311	295.683	-0.175	0.319
-406.296	-90.738	0.323	-0.093
-405.282	800.000	0.057	0.169
-404.267	173.921	0.219	0.315
-403.252	25.480	0.384	0.318
-402.238	-19.672	0.154	0.095
-401.223	-200.000	0.043	0.236
-400.209	69.643	0.143	-0.147
-399.194	-200.000	0.034	-0.204
-398.179	145.946	0.178	-0.238
-397.165	3.147	-0.109	-0.079
-396.150	-5.753	0.182	-0.124
-395.136	-200.000	-0.054	-0.246
-394.121	131.803	-0.127	-0.162
-393.106	59.463	-0.122	0.120
-392.092	-93.846	-0.152	0.042
-391.077	-119.527	0.277	-0.048
-390.063	35.512	-0.249	0.218
-389.048	29.641	0.082	-0.069
-388.033	-92.481	0.185	0.052
-387.019	-78.717	-0.119	0.040
-386.004	131.767	0.151	0.194
-384.990	101.882	0.088	0.102
-383.975	-27.876	0.249	0.144
-382.960	800.000	0.077	-0.322
-381.946	161.861	-0.231	0.322
-380.931	413.814	0.094	0.199
-379.917	-200.000	-0.001	0.430
-378.902	569.819	0.079	-0.190
-377.888	-200.000	-0.046	0.348
-376.873	-58.611	0.171	-0.074
-375.858	800.000	-0.106	0.341
-374.844	-200.000	-0.012	-0.176
-373.829	-159.928	0.503	-0.027
-372.815	126.151	-0.122	-0.153
-371.800	123.491	-0.101	0.126
-370.785	-124.704	-0.167	-0.026
-369.771	-5.956	0.147	-0.100
-368.756	800.000	0.053	-0.156
-367.742	240.525	0.131	-0.218
-366.727	-135.919	-0.302	-0.035
-365.712	-181.128	-0.109	0.002
-364.698	-178.949	-0.123	-0.003
-363.683	15.790	0.161	-0.126
-362.669	14.433	-0.107	-0.083
-361.654	276.862	0.070	-0.123
-360.639	23.217	0.129	-0.105
-359.625	-38.527	0.065	-0.034
-358.610	800.000	0.017	0.053
-357.596	-190.149	-0.276	0.003
-356.581	-76.546	0.464	0.162
-355.566	-200.000	-0.033	0.274
-354.552	-114.802	0.211	-0.040
-353.537	479.375	0.097	0.218
-352.523	800.000	0.021	-0.066
-351.508	685.899	-0.095	-0.247
-350.493	800.000	0.035	0.113
-349.479	366.081	-0.022	0.045
-348.464	-116.833	0.043	0.008
-347.450	291.256	-0.121	0.219
-346.435	38.595	0.286	-0.254
-345.420	220.043	0.120	0.191
-344.406	-146.543	-0.027	-0.002
-343.391	97.346	-0.157	-0.179
-342.377	305.066	-0.141	0.259
-341.362	64.536	-0.112	0.112
-340.348	-9.372	-0.094	-0.062
-339.333	22.150	0.108	0.088
-338.318	97.634	0.120	0.137
-337.304	76.653	0.103	0.108
-336.289	67.894	-0.061	0.062
-335.275	61.504	-0.245	-0.242
-334.260	-112.713	0.102	0.020
-333.245	-113.139	0.275	0.054
-332.231	-80.056	0.273	-0.091
-331.216	-109.980	-0.116	-0.024
-330.202	-46.017	0.214	0.105
-329.187	-92.777	-0.434	0.121
-328.172	-88.265	0.132	0.039
-327.158	800.000	-0.118	0.330
-326.143	118.105	-0.038	-0.046
-325.129	315.236	0.107	0.200
-324.114	-196.273	0.207	-0.001
-323.099	441.885	-0.215	-0.467
-322.085	44.637	0.218	0.199
-321.070	-97.134	-0.398	0.103
-320.056	-45.286	0.184	-0.091
-319.041	-179.612	0.148	0.003
-318.026	127.416	-0.201	0.253
-317.012	-59.464	-0.590	0.252
-315.997	-45.879	-0.294	0.144
-314.983	282.711	-0.144	0.256
-313.968	-200.000	0.005	0.033
-312.953	124.957	-0.147	0.184
-311.939	-63.122	0.104	0.043
-310.924	-10.461	-0.185	0.122
-309.910	800.000	-0.075	-0.258
-308.895	800.000	0.018	0.056
-307.880	-15.699	-0.278	0.176
-306.866	-87.283	0.238	0.072
-305.851	-200.000	0.039	0.197
-304.837	-172.221	0.366	0.012
-303.822	356.613	0.099	-0.195
-302.807	-112.945	0.145	-0.029
-301.793	47.504	-0.316	-0.292
-300.778	-99.481	0.390	-0.097
-299.764	-71.744	-0.128	-0.047
-298.749	800.000	-0.055	0.185
-297.735	-200.000	-0.012	0.192
-296.720	-200.000	0.010	-0.140
-295.705	81.426	-0.071	0.076
-294.691	-200.000	-0.017	-0.256
-293.676	-20.322	-0.101	0.062
-292.662	212.850	0.086	-0.135
-291.647	-200.000	-0.064	-0.381
-290.632	249.434	-0.157	-0.264
-289.618	362.179	-0.075	0.149
-288.603	-102.485	0.259	0.062
-287.589	92.836	0.135	-0.151
-286.574	95.980	-0.227	-0.258
-285.559	-73.238	-0.356	-0.129
-284.545	0.847	-0.036	-0.025
-283.530	12.336	-0.100	0.076
-282.516	91.022	-0.139	-0.155
-281.501	114.743	-0.102	0.124
-280.486	-135.995	-0.080	0.009
-279.472	-200.000	-0.029	-0.306
-278.457	-33.305	-0.278	0.152
-277.443	45.099	-0.136	0.124
-276.428	91.838	-0.109	0.121
-275.413	800.000	0.062	-0.177
-274.399	-4.303	-0.038	-0.026
-273.384	-75.617	-0.231	0.081
-272.370	14.250	-0.208	0.160
-271.355	16.616	0.210	0.164
-270.340	-200.000	-0.062	0.318
-269.326	-167.200	0.050	0.002
-268.311	-133.353	0.322	-0.040
-267.297	349.008	-0.077	0.151
-266.282	-146.366	-0.244	-0.021
-265.267	535.752	0.057	-0.135
-264.253	-200.000	0.018	0.188
-263.238	-132.629	-0.172	0.022
-262.224	120.299	-0.076	0.094
-261.209	48.044	-0.205	0.189
-260.195	-200.000	-0.042	-0.438
-259.180	-55.321	-0.382	0.170
-258.165	-93.021	-0.217	0.060
-257.151	51.491	0.232	0.218
-256.136	45.286	0.171	0.156
-255.122	-76.864	-0.067	0.023
-254.107	110.338	0.016	-0.019
-253.092	254.080	0.231	-0.391
-252.078	-138.110	0.531	0.058
-251.063	800.000	0.061	0.168
-250.049	339.793	-0.031	-0.060
-249.034	-200.000	0.048	-0.262
-248.019	-34.914	-0.381	-0.206
-247.005	800.000	0.071	0.272
-245.990	-200.000	-0.013	-0.254
-244.976	34.233	-0.270	-0.233
-243.961	388.063	0.033	-0.067
-242.946	275.726	0.177	0.310
-241.932	-55.001	-0.283	-0.126
-240.917	134.637	0.094	0.121
-239.903	-106.153	-0.193	0.043
-238.888	70.152	0.195	0.199
-237.873	246.431	-0.030	-0.050
-236.859	-44.441	0.106	-0.052
-235.844	-89.757	0.390	-0.113
-234.830	650.695	0.099	0.252
-233.815	-77.686	0.132	-0.045
-232.800	800.000	-0.060	-0.214
-231.786	7.374	0.144	-0.107
-230.771	-32.887	-0.115	0.063
-229.757	6.306	0.191	0.140
-228.742	-200.000	0.010	0.163
-227.727	153.697	-0.076	-0.103
-226.713	-65.824	-0.060	0.024
-225.698	-115.562	0.244	0.045
-224.684	-43.344	-0.235	-0.117
-223.669	122.818	-0.169	0.210
-222.655	18.434	-0.280	0.221
-221.640	-200.000	0.016	0.160
-220.625	-124.606	0.148	0.023
-219.611	44.530	0.154	-0.140
-218.596	267.421	-0.097	0.169
-217.582	-39.421	-0.466	-0.242
-216.567	-75.742	0.221	-0.077
-215.552	206.625	0.070	0.108
-214.538	-45.044	-0.291	-0.143
-213.523	421.748	0.116	0.247
-212.509	197.684	0.229	0.346
-211.494	116.265	-0.133	-0.161
-210.479	205.286	0.138	-0.211
-209.465	312.888	-0.021	-0.040
-208.450	-166.065	0.199	-0.008
-207.436	103.317	-0.068	0.079
-206.421	2.696	0.158	-0.113
-205.406	265.215	-0.110	0.189
-204.392	673.217	-0.091	0.233
-203.377	-42.976	0.079	-0.040
-202.363	-200.000	-0.000	0.024
-201.348	697.864	0.017	0.045
-200.333	-38.674	-0.356	-0.185
-199.319	-200.000	-0.018	-0.175
-198.304	-140.048	-0.086	0.009
-197.290	800.000	0.186	-0.541
-196.275	-66.998	0.205	0.080
-195.260	-74.379	0.066	-0.024
-194.246	-200.000	-0.001	-0.161
-193.231	-108.410	-0.140	-0.030
-192.217	115.890	0.089	0.108
-191.202	-119.654	0.335	0.057
-190.187	-102.760	0.652	0.153
-189.173	-88.930	-0.188	0.055
-188.158	144.715	-0.113	0.149
-187.144	574.745	-0.149	-0.360
-186.129	-8.319	0.136	-0.091
-185.114	-200.000	-0.031	-0.253
-184.100	-200.000	-0.015	-0.168
-183.085	264.501	-0.047	-0.081
-182.071	-133.190	-0.039	0.005
-181.056	800.000	0.051	-0.194
-180.042	181.342	0.147	-0.214
-179.027	-200.000	-0.014	0.169
-178.012	-53.001	0.135	-0.062
-176.998	-1.243	-0.099	0.069
-175.983	746.411	0.088	0.234
-174.969	-200.000	-0.022	-0.538
-173.954	111.137	-0.184	-0.218
-172.939	179.002	0.294	0.424
-171.925	-117.073	-0.352	0.063
-170.910	-62.479	-0.110	0.045
-169.896	-11.340	-0.238	0.155
-168.881	-104.067	-0.151	-0.035
-167.866	-200.000	-0.013	-0.209
-166.852	203.640	0.090	-0.137
-165.837	-200.000	-0.016	0.142
-164.823	-126.423	-0.237	0.035
-163.808	447.363	0.033	-0.071
-162.793	800.000	-0.017	0.069
-161.779	-200.000	0.036	-0.171
-160.764	-140.344	0.158	-0.016
-159.750	-200.000	0.027	-0.142
-158.735	-76.264	0.031	-0.011
-157.720	-200.000	0.047	-0.386
-156.706	-167.383	-0.140	-0.006
-155.691	-12.371	-0.218	0.140
-154.677	172.701	0.220	-0.312
-153.662	-140.303	0.225	-0.023
-152.647	800.000	-0.053	0.205
-151.633	-130.469	0.186	-0.025
-150.618	800.000	-0.075	0.266
-149.604	-46.438	-0.265	-0.128
-148.589	5.002	0.203	-0.148
-147.574	800.000	-0.028	-0.082
-146.560	202.528	-0.062	-0.095
-145.545	-132.983	0.581	-0.073
-144.531	328.814	-0.112	-0.211
-143.516	-96.646	-0.084	0.022
-142.502	800.000	-0.023	-0.068
-141.487	48.364	0.207	0.191
-140.472	800.000	-0.073	0.260
-139.458	129.390	-0.214	0.270
-138.443	-200.000	0.002	-0.093
-137.429	520.854	0.090	-0.208
-136.414	331.674	0.013	0.024
-135.399	3.580	-0.231	0.166
-134.385	103.478	-0.200	0.232
-133.370	22.571	-0.281	0.226
-132.356	-200.000	-0.007	-0.102
-131.341	13.048	0.166	0.126
-130.326	121.338	0.090	-0.111
-129.312	800.000	0.047	-0.147
-128.297	-169.505	-0.279	0.010
-127.283	184.332	0.022	-0.032
-126.268	-200.000	0.009	-0.131
-125.253	-200.000	-0.051	-0.362
-124.239	-83.778	-0.422	-0.133
-123.224	223.710	-0.232	0.369
-122.210	-200.000	-0.024	0.149
-121.195	-94.637	-0.333	0.089
-120.180	-104.974	-0.624	0.141
-119.166	-102.813	-0.229	-0.054
-118.151	800.000	-0.042	0.140
-117.137	-60.674	-0.094	0.039
-116.122	800.000	0.057	-0.244
-115.107	-200.000	-0.004	0.147
-114.093	-34.934	-0.118	0.064
-113.078	109.352	0.123	-0.145
-112.064	-177.369	0.223	-0.005
-111.049	-47.523	-0.290	-0.139
-110.034	-200.000	-0.004	-0.246
-109.020	-200.000	-0.003	0.298
-108.005	-59.182	-0.254	0.108
-106.991	57.494	-0.164	-0.158
-105.976	-38.924	-0.014	-0.007
-104.962	-163.750	0.124	-0.006
-103.947	-71.790	-0.047	-0.017
-102.932	88.920	0.184	0.202
-101.918	-200.000	-0.048	-0.248
-100.903	-200.000	0.015	0.077
-99.889	-122.686	0.476	-0.076
-98.874	18.898	-0.198	0.156
-97.859	-40.286	-0.166	0.085
-96.845	-81.742	0.131	-0.042
-95.830	-63.379	0.292	-0.118
-94.816	800.000	-0.090	0.255
-93.801	-128.852	0.160	0.022
-92.786	-200.000	0.000	0.417
-91.772	206.260	0.259	0.397
-90.757	-200.000	-0.048	0.243
-89.743	104.095	-0.240	-0.278
-88.728	-200.000	-0.030	0.180
-87.713	-86.956	0.172	-0.052
-86.699	-12.030	0.281	0.181
-85.684	-91.317	0.134	-0.038
-84.670	-200.000	-0.024	0.206
-83.655	497.004	0.043	-0.098
-82.640	201.286	0.136	0.206
-81.626	105.147	-0.092	-0.107
-80.611	800.000	-0.077	-0.271
-79.597	99.139	0.154	0.175
-78.582	800.000	0.054	-0.160
-77.567	112.174	0.048	-0.057
-76.553	-200.000	-0.016	0.315
-75.538	83.505	-0.257	0.276
-74.524	234.956	0.140	-0.227
-73.509	-200.000	-0.003	-0.244
-72.494	430.502	-0.142	0.303
-71.480	-106.822	0.227	-0.049
-70.465	66.416	0.080	0.080
-69.451	-200.000	0.074	-0.379
-68.436	8.850	-0.126	0.094
-67.422	-67.893	0.361	0.139
-66.407	-200.000	0.020	0.215
-65.392	568.709	0.123	-0.294
-64.378	423.868	-0.084	0.176
-63.363	-7.488	0.496	0.330
-62.349	-132.761	0.266	0.033
-61.334	31.818	-0.941	-0.796
-60.319	-3.479	0.513	0.350
-59.305	-200.000	-0.063	-0.889
-58.290	190.946	0.474	0.701
-57.276	800.000	0.503	1.524
-56.261	-200.000	96.363	582.976
-55.246	575.103	1373.242	3293.015
-54.232	154.648	2586.906	3490.705
-53.217	110.875	2282.352	2698.221
-52.203	44.930	1899.234	1717.562
-51.188	38.517	1687.361	1477.692
-50.173	35.567	1642.735	1416.829
-49.159	53.888	1691.655	1596.435
-48.144	57.566	1709.625	1640.787
-47.130	38.116	1665.192	1455.055
-46.115	35.193	1650.255	1420.322
-45.100	35.005	1645.094	1414.430
-44.086	35.053	1642.133	1412.185
-43.071	35.052	1639.603	1409.943
-42.057	34.948	1637.334	1407.174
-41.042	35.017	1635.517	1406.059
-40.027	34.995	1633.491	1404.107
-39.013	35.006	1631.379	1402.314
-37.998	35.046	1629.743	1401.143
-36.984	35.002	1628.498	1399.694
-35.969	35.114	1626.740	1398.946
-34.954	35.188	1625.505	1398.367
-33.940	35.153	1623.526	1396.360
-32.925	35.111	1621.838	1394.543
-31.911	35.123	1620.077	1393.060
-30.896	35.159	1618.387	1391.813
-29.881	35.181	1616.534	1390.327
-28.867	35.113	1615.434	1388.828
-27.852	35.081	1613.550	1386.922
-26.838	35.163	1612.000	1386.133
-25.823	35.182	1610.556	1384.971
-24.809	35.171	1608.693	1383.231
-23.794	35.099	1608.148	1382.188
-22.779	35.186	1606.491	1381.341
-21.765	35.092	1604.689	1379.061
-20.750	35.179	1602.871	1378.064
-19.736	35.126	1601.696	1376.624
-18.721	35.171	1600.182	1375.587
-17.706	35.131	1598.536	1373.834
-16.692	35.154	1596.834	1372.483
-15.677	35.126	1595.457	1371.038
-14.663	35.141	1594.248	1370.056
-13.648	35.115	1592.994	1368.738
-12.633	35.151	1590.945	1367.177
-11.619	35.210	1590.059	1366.787
-10.604	35.257	1587.845	1365.166
-9.590	35.211	1586.991	1364.045
-8.575	35.336	1585.140	1363.287
-7.560	35.151	1584.625	1361.475
-6.546	35.245	1583.421	1361.056
-5.531	35.167	1582.620	1359.760
-4.517	35.194	1581.081	1358.580
-3.502	35.145	1580.091	1357.321
-2.487	35.250	1578.515	1356.661
-1.473	34.901	1567.584	1344.757
-0.458	32.238	1547.887	1309.287
0.556	28.788	1548.637	1278.357
1.571	26.490	1572.764	1281.904
2.586	25.920	1587.147	1289.430
3.600	23.110	1533.881	1226.590
4.615	13.062	1421.997	1072.089
5.629	3.605	1354.351	962.267
6.644	1.920	1345.140	945.200
7.659	1.856	1343.306	943.433
8.673	1.708	1342.516	941.879
9.688	1.686	1340.207	940.039
10.702	1.489	1337.542	936.871
11.717	5.076	1345.020	964.231
12.731	15.624	1364.699	1044.098
13.746	23.947	1378.429	1106.516
14.761	25.814	1380.826	1119.964
15.775	26.055	1380.628	1121.203
16.790	26.177	1379.722	1121.124
17.804	26.105	1379.475	1120.376
18.819	26.319	1379.824	1121.890
19.834	26.506	1378.535	1121.902
20.848	26.516	1377.825	1121.288
21.863	26.414	1377.095	1119.961
22.877	26.451	1376.277	1119.425
23.892	26.507	1375.306	1118.887
24.907	26.551	1374.389	1118.309
25.921	26.493	1373.437	1117.077
26.936	26.540	1372.142	1116.214
27.950	26.434	1371.760	1115.154
28.965	26.504	1370.359	1114.350
29.980	26.462	1368.853	1112.767
30.994	26.399	1368.224	1111.769
32.009	26.422	1367.308	1111.068
33.023	26.466	1365.370	1109.665
34.038	26.474	1364.476	1108.889
35.053	26.419	1363.753	1107.864
36.067	26.468	1362.688	1107.202
37.082	26.495	1361.527	1106.326
38.096	26.623	1360.332	1106.042
39.111	26.487	1360.142	1104.955
40.126	26.560	1359.007	1104.383
41.140	26.580	1358.517	1104.005
42.155	26.491	1358.410	1103.283
43.169	26.482	1358.639	1103.312
44.184	26.535	1358.179	1103.163
45.199	26.504	1357.793	1102.565
46.213	26.520	1357.052	1101.963
47.228	26.500	1356.165	1101.024
48.242	26.570	1354.501	1100.002
49.257	26.505	1353.786	1098.929
50.271	26.577	1352.002	1097.820
51.286	26.558	1350.928	1096.735
52.301	26.488	1349.826	1095.318
53.315	26.433	1349.073	1094.281
54.330	26.508	1348.251	1093.967
55.344	26.439	1347.183	1092.588
56.359	26.451	1345.970	1091.579
57.374	26.548	1345.004	1091.289
58.388	26.463	1344.640	1090.380
59.403	26.511	1344.221	1090.236
60.417	26.534	1343.496	1089.687
61.432	26.445	1342.924	1088.592
62.447	26.468	1342.016	1087.900
63.461	26.570	1340.614	1087.282
64.476	26.505	1339.888	1086.207
65.490	26.442	1338.609	1084.693
66.505	26.419	1337.505	1083.562
67.520	26.480	1336.199	1082.777
68.534	26.485	1335.354	1082.025
69.549	26.530	1333.994	1081.094
70.563	26.551	1332.959	1080.289
71.578	26.606	1332.255	1079.951
72.593	26.460	1331.615	1078.466
73.607	26.456	1330.812	1077.692
74.622	26.563	1330.130	1077.683
75.636	26.651	1328.947	1077.154
76.651	26.491	1329.148	1076.267
77.666	26.486	1328.646	1075.741
78.680	26.439	1328.061	1074.892
79.695	26.566	1327.031	1074.713
80.709	26.488	1326.507	1073.733
81.724	26.443	1325.719	1072.735
82.739	26.401	1324.422	1071.341
83.753	26.507	1323.410	1071.052
84.768	26.567	1322.392	1070.493
85.782	26.557	1321.167	1069.343
86.797	26.592	1320.186	1068.660
87.812	26.663	1318.550	1067.660
88.826	26.552	1317.849	1066.344
89.841	26.527	1316.778	1065.240
90.855	26.526	1315.801	1064.346
91.870	26.547	1315.443	1064.089
92.884	26.632	1314.230	1063.512
93.899	26.638	1313.483	1062.848
94.914	26.590	1312.494	1061.670
95.928	26.518	1312.261	1060.966
96.943	26.563	1311.296	1060.358
97.957	26.661	1310.010	1059.795
98.972	26.581	1309.594	1058.901
99.987	26.576	1308.985	1058.283
101.001	26.522	1307.761	1056.884
102.016	26.529	1306.892	1056.131
103.030	26.540	1306.222	1055.558
104.045	26.498	1305.692	1054.794
105.060	26.588	1304.459	1054.229
106.074	26.483	1303.668	1052.881
107.089	26.603	1302.527	1052.569
108.103	26.650	1301.350	1051.796
109.118	26.670	1300.441	1051.084
110.133	26.592	1299.208	1049.541
111.147	26.516	1298.492	1048.432
112.162	26.691	1296.798	1047.981
113.176	26.650	1295.914	1046.936
114.191	26.563	1295.453	1045.970
115.206	26.657	1294.363	1045.541
116.220	26.705	1292.907	1044.549
117.235	26.627	1291.873	1043.170
118.249	26.635	1291.346	1042.701
119.264	26.565	1290.767	1041.739
120.279	26.695	1289.829	1041.634
121.293	26.635	1288.939	1040.480
122.308	26.623	1288.189	1039.716
123.322	26.679	1287.500	1039.384
124.337	26.718	1286.767	1038.927
125.352	26.649	1285.716	1037.588
126.366	26.700	1284.932	1037.157
127.381	26.715	1283.803	1036.239
128.395	26.709	1282.886	1035.373
129.410	26.758	1281.789	1034.679
130.424	26.775	1281.179	1034.190
131.439	26.768	1280.641	1033.625
132.454	26.685	1280.014	1032.555
133.468	26.624	1279.520	1031.719
134.483	26.606	1278.872	1031.003
135.497	26.725	1278.022	1030.902
136.512	26.616	1276.543	1029.000
137.527	26.604	1275.830	1028.263
138.541	26.669	1274.649	1027.588
139.556	26.688	1273.093	1026.353
140.570	26.645	1272.485	1025.525
141.585	26.677	1271.286	1024.652
142.600	26.632	1270.217	1023.443
143.614	26.615	1269.550	1022.720
144.629	26.618	1268.792	1022.035
145.643	26.530	1267.051	1020.048
146.658	26.636	1266.066	1019.765
147.673	26.595	1265.218	1018.755
148.687	26.604	1264.420	1018.074
149.702	26.569	1263.060	1016.695
150.716	26.659	1262.020	1016.274
151.731	26.663	1261.177	1015.524
152.746	26.621	1260.290	1014.489
153.760	26.671	1259.093	1013.710
154.775	26.721	1257.995	1013.019
155.789	26.707	1257.547	1012.488
156.804	26.706	1256.763	1011.765
157.819	26.560	1255.865	1010.139
158.833	26.690	1255.187	1010.225
159.848	26.751	1254.104	1009.603
160.862	26.673	1253.699	1008.755
161.877	26.779	1252.433	1008.237
162.892	26.678	1252.284	1007.466
163.906	26.811	1250.971	1007.063
164.921	26.707	1250.375	1005.914
165.935	26.771	1249.876	1005.780
166.950	26.781	1249.419	1005.377
167.964	26.746	1248.544	1004.388
168.979	26.796	1248.034	1004.166
169.994	26.844	1247.545	1003.954
171.008	26.770	1246.795	1002.849
172.023	26.811	1245.761	1002.155
173.037	26.813	1245.335	1001.734
174.052	26.810	1244.630	1001.064
175.067	26.748	1244.031	1000.151
176.081	26.748	1243.210	999.401
177.096	26.766	1242.570	998.900
178.110	26.834	1241.611	998.413
179.125	26.623	1240.742	996.466
180.140	26.835	1239.270	996.359
181.154	26.842	1238.196	995.447
182.169	26.731	1237.432	994.137
183.183	26.826	1236.378	993.721
184.198	26.863	1234.851	992.608
185.213	26.860	1234.168	991.955
186.227	26.935	1233.276	991.560
187.242	26.925	1232.629	990.899
188.256	26.817	1231.662	989.442
189.271	26.893	1230.969	989.216
190.286	26.862	1230.427	988.524
191.300	26.879	1229.861	988.070
192.315	26.775	1229.297	986.963
193.329	26.786	1228.952	986.660
194.344	26.842	1228.340	986.387
195.359	26.909	1228.121	986.486
196.373	26.793	1227.796	985.508
197.388	26.749	1227.346	984.824
198.402	26.975	1226.272	985.101
199.417	26.909	1226.021	984.455
200.432	26.832	1225.540	983.563
201.446	26.833	1224.880	982.948
202.461	26.782	1224.187	982.030
203.475	26.956	1223.029	981.958
204.490	26.833	1222.193	980.534
205.504	26.893	1221.730	980.397
206.519	26.974	1220.301	979.604
207.534	26.962	1219.151	978.528
208.548	26.878	1218.803	977.708
209.563	26.852	1218.198	976.997
210.577	26.940	1217.161	976.554
211.592	26.981	1216.188	975.905
212.607	26.934	1216.095	975.491
213.621	27.129	1214.904	975.498
214.636	26.904	1214.354	973.763
215.650	27.088	1213.233	973.764
216.665	26.971	1212.293	972.295
217.680	26.987	1211.530	971.688
218.694	27.078	1210.571	971.315
219.709	27.025	1210.086	970.558
220.723	27.043	1209.495	970.096
221.738	27.030	1208.291	968.976
222.753	26.910	1208.375	968.314
223.767	26.888	1207.956	967.774
224.782	27.075	1206.999	967.922
225.796	27.102	1206.124	967.276
226.811	27.214	1205.676	967.426
227.826	27.090	1205.145	966.256
228.840	27.045	1204.340	965.287
229.855	27.015	1203.772	964.588
230.869	27.082	1203.028	964.262
231.884	27.165	1202.357	964.078
232.899	27.030	1201.774	962.808
233.913	27.063	1200.939	962.231
234.928	27.137	1201.012	962.593
235.942	27.182	1200.037	961.967
236.957	27.092	1199.298	960.813
237.972	27.161	1199.002	960.855
238.986	27.150	1197.993	959.902
240.001	27.231	1197.506	959.858
241.015	27.278	1196.705	959.380
242.030	27.222	1196.244	958.626
243.045	27.228	1195.086	957.647
244.059	27.326	1194.192	957.363
245.074	27.247	1193.609	956.391
246.088	27.349	1193.067	956.409
247.103	27.253	1192.052	955.008
248.117	27.336	1191.160	954.643
249.132	27.307	1190.469	953.852
250.147	27.357	1189.904	953.580
251.161	27.349	1189.135	952.835
252.176	27.246	1189.047	952.143
253.190	27.307	1188.155	951.662
254.205	27.295	1187.238	950.784
255.220	27.263	1186.849	950.217
256.234	27.416	1186.094	950.328
257.249	27.394	1185.739	949.845
258.263	27.312	1185.018	948.755
259.278	27.338	1184.504	948.394
260.293	27.312	1184.133	947.882
261.307	27.327	1183.665	947.502
262.322	27.381	1182.724	946.946
263.336	27.366	1182.382	946.506
264.351	27.459	1181.220	945.978
265.366	27.395	1180.729	945.167
266.380	27.412	1180.459	944.954
267.395	27.383	1179.387	943.863
268.409	27.375	1178.915	943.359
269.424	27.355	1178.333	942.711
270.439	27.546	1178.106	943.431
271.453	27.433	1177.155	942.002
272.468	27.457	1176.275	941.339
273.482	27.449	1175.372	940.494
274.497	27.484	1175.360	940.580
275.512	27.472	1175.102	940.228
276.526	27.444	1174.063	939.169
277.541	27.478	1173.463	938.781
278.555	27.511	1172.535	938.128
279.570	27.598	1171.764	937.876
280.585	27.488	1171.063	936.664
281.599	27.538	1170.177	936.129
282.614	27.552	1169.623	935.674
283.628	27.586	1168.562	934.921
284.643	27.613	1167.707	934.290
285.657	27.593	1166.852	933.419
286.672	27.604	1165.887	932.622
287.687	27.525	1165.505	931.832
288.701	27.515	1165.055	931.337
289.716	27.677	1164.238	931.431
290.730	27.732	1163.476	931.018
291.745	27.574	1162.888	929.659
292.760	27.676	1162.271	929.602
293.774	27.671	1161.621	928.975
294.789	27.558	1161.476	928.200
295.803	27.613	1160.858	927.907
296.818	27.588	1160.105	927.097
297.833	27.785	1159.055	927.172
298.847	27.721	1158.666	926.454
299.862	27.769	1157.612	925.774
300.876	27.759	1157.132	925.257
301.891	27.664	1156.953	924.553
302.906	27.874	1156.234	924.957
303.920	27.906	1155.057	924.101
304.935	27.772	1154.911	923.220
305.949	27.840	1153.940	922.705
306.964	27.839	1153.334	922.137
307.979	27.859	1153.086	921.955
308.993	27.938	1152.288	921.634
310.008	27.819	1151.590	920.396
311.022	27.923	1150.621	920.063
312.037	27.964	1149.718	919.467
313.052	27.849	1149.433	918.580
314.066	27.886	1148.352	917.819
315.081	27.921	1147.169	916.970
316.095	27.832	1146.714	916.078
317.110	27.862	1146.590	916.047
318.125	27.919	1146.151	915.902
319.139	27.925	1144.961	914.900
320.154	27.944	1144.546	914.583
321.168	27.961	1143.852	914.034
322.183	27.863	1143.875	913.478
323.197	28.016	1142.817	913.319
324.212	27.975	1142.465	912.750
325.227	27.983	1141.976	912.319
326.241	27.996	1141.655	912.046
327.256	28.090	1140.805	911.754
328.270	27.999	1139.913	910.508
329.285	27.950	1139.229	909.636
330.300	27.965	1138.677	909.190
331.314	28.075	1137.742	908.912
332.329	28.043	1136.549	907.722
333.343	28.193	1135.679	907.687
334.358	28.175	1135.114	907.069
335.373	28.105	1134.825	906.410
336.387	28.096	1134.290	905.859
337.402	28.130	1133.252	905.116
338.416	28.161	1132.613	904.679
339.431	28.195	1132.232	904.461
340.446	28.149	1131.497	903.569
341.460	28.258	1130.381	903.133
342.475	28.229	1129.576	902.270
343.489	28.295	1128.861	901.945
344.504	28.244	1128.367	901.217
345.519	28.163	1127.596	900.122
346.533	28.266	1126.798	899.916
347.548	28.322	1125.850	899.350
348.562	28.214	1125.518	898.475
349.577	28.142	1124.908	897.556
350.592	28.232	1123.944	897.149
351.606	28.132	1122.999	895.826
352.621	28.327	1122.554	896.346
353.635	28.224	1122.403	895.644
354.650	28.173	1121.903	894.917
355.665	28.377	1120.938	895.063
356.679	28.365	1120.338	894.447
357.694	28.388	1119.871	894.106
358.708	28.513	1118.890	893.853
359.723	28.401	1118.015	892.526
360.738	28.391	1117.965	892.362
361.752	28.462	1116.962	891.830
362.767	28.437	1116.425	891.198
363.781	28.309	1116.271	890.373
364.796	28.409	1115.329	890.030
365.810	28.499	1114.717	889.899
366.825	28.524	1114.212	889.539
367.840	28.505	1114.001	889.198
368.854	28.628	1113.329	889.182
369.869	28.630	1112.401	888.372
370.883	28.608	1111.824	887.724
371.898	28.657	1110.773	887.042
372.913	28.596	1110.357	886.337
373.927	28.518	1110.092	885.670
374.942	28.606	1109.668	885.679
375.956	28.646	1109.167	885.393
376.971	28.687	1108.319	884.837
377.986	28.615	1107.998	884.155
379.000	28.690	1107.562	884.091
380.015	28.743	1106.955	883.781
381.029	28.643	1106.056	882.507
382.044	28.615	1105.709	882.016
383.059	28.630	1105.196	881.600
384.073	28.722	1104.384	881.316
385.088	28.732	1103.498	880.578
386.102	28.687	1102.800	879.728
387.117	28.653	1101.887	878.759
388.132	28.651	1101.231	878.148
389.146	28.748	1100.428	877.893
390.161	28.732	1099.524	877.022
391.175	28.802	1098.808	876.704
392.190	28.748	1098.457	876.090
393.205	28.819	1097.860	875.875
394.219	28.702	1097.287	874.780
395.234	28.798	1096.343	874.408
396.248	28.861	1095.179	873.705
397.263	28.835	1094.674	873.098
398.278	28.903	1093.904	872.730
399.292	28.879	1093.561	872.265
400.307	28.897	1092.708	871.594
401.321	28.932	1092.490	871.508
402.336	28.937	1091.671	870.804
403.350	28.924	1091.124	870.229
404.365	28.860	1090.563	869.398
405.380	29.001	1089.338	869.011
406.394	28.964	1088.686	868.242
407.409	28.909	1088.158	867.483
408.423	29.003	1087.556	867.371
409.438	29.044	1086.737	866.833
410.453	28.989	1086.541	866.340
411.467	29.073	1085.536	865.857
412.482	28.932	1085.006	864.695
413.496	29.118	1084.075	864.752
414.511	29.001	1083.975	864.046
415.526	29.026	1083.562	863.756
416.540	29.101	1082.953	863.547
417.555	29.189	1082.072	863.182
418.569	29.068	1081.733	862.269
419.584	29.169	1081.465	862.449
420.599	29.152	1080.867	861.818
421.613	101.959	1315.799	1442.652
422.628	94.868	1350.013	1442.782
