DTS Sentinel unit serial number:	SN413079Multiplexer serial number:	ORYXHardware model number:	OX4-SRSoftware version number:	ORYX F/W v4.00 Oryx Data Collector v3.7.2.0data status	okinstallation	princeton_trtdifferential loss correction	single-endedforward channel	channel 2reverse channel	N/Adate	2019/09/12time	01:53:11forward acquisition time	60.00reverse acquisition time	0.00gamma	496.2192k internal	0.2326k external	0.2326temperature offset calibration	1.0088default loss term (dB/km)	0.3790temperature slope calibration	1.0000multiplexer offset coefficient	1.0000multiplexer slope coefficient	1.0000fibre end	0.00T internal ref (°C)	32.81T ext. ref 1 (°C)	2.05T ext. ref 2 (°C)	27.35length (m)	temperature (°C)	Stokes	anti-Stokes-747.200	-51.376	-0.122	-0.057
-746.185	-47.557	-0.375	-0.184
-745.171	-21.205	-0.319	-0.197
-744.156	-200.000	0.012	0.206
-743.142	-18.933	-0.163	0.102
-742.127	-200.000	0.009	0.148
-741.112	800.000	0.047	0.139
-740.098	36.313	-0.217	0.193
-739.083	-177.992	-0.268	0.006
-738.069	-200.000	0.021	0.169
-737.054	88.493	-0.074	-0.083
-736.039	241.474	-0.257	-0.433
-735.025	-200.000	0.020	-0.113
-734.010	-164.897	-0.259	0.012
-732.996	71.320	-0.174	-0.182
-731.981	183.711	-0.170	-0.254
-730.966	-66.603	-0.128	0.051
-729.952	-37.529	-0.175	0.094
-728.937	-97.427	-0.169	-0.044
-727.923	-200.000	-0.053	0.324
-726.908	-85.043	-0.326	0.103
-725.894	562.046	0.168	-0.409
-724.879	81.972	-0.131	-0.143
-723.864	167.981	0.226	0.324
-722.850	360.728	-0.052	0.104
-721.835	-39.695	-0.342	-0.180
-720.821	293.319	0.018	-0.033
-719.806	800.000	-0.133	0.558
-718.791	764.322	0.011	0.030
-717.777	-71.448	0.265	0.100
-716.762	-23.244	-0.156	-0.095
-715.748	-46.678	-0.320	-0.158
-714.733	-102.486	0.084	-0.020
-713.718	-19.706	0.188	-0.117
-712.704	800.000	-0.083	-0.262
-711.689	34.624	-0.320	-0.281
-710.675	-2.862	0.015	0.010
-709.660	-62.172	-0.152	0.064
-708.645	-101.409	0.139	0.034
-707.631	3.045	-0.283	-0.207
-706.616	337.882	-0.077	-0.152
-705.602	128.654	0.309	0.397
-704.587	-111.684	-0.187	0.038
-703.572	-111.685	0.367	0.075
-702.558	-200.000	-0.060	-0.412
-701.543	-200.000	-0.130	0.657
-700.529	-112.731	0.098	-0.020
-699.514	800.000	-0.078	-0.257
-698.499	-53.634	-0.163	0.075
-697.485	-72.921	-0.447	-0.165
-696.470	55.683	0.153	0.149
-695.456	-24.612	-0.300	-0.179
-694.441	666.699	0.068	0.176
-693.426	-64.279	-0.062	-0.026
-692.412	26.220	0.306	0.257
-691.397	13.076	0.316	-0.246
-690.383	-9.152	-0.062	0.042
-689.368	800.000	-0.041	0.140
-688.354	95.227	0.143	-0.165
-687.339	-127.728	-0.194	-0.028
-686.324	455.054	-0.130	-0.290
-685.310	-66.145	0.061	-0.024
-684.295	-200.000	0.052	-0.291
-683.281	113.644	-0.309	0.377
-682.266	-86.186	-0.147	-0.046
-681.251	7.080	-0.156	-0.117
-680.237	-143.106	0.100	0.010
-679.222	635.850	0.082	0.210
-678.208	-200.000	0.027	-0.235
-677.193	-163.061	-0.116	-0.006
-676.178	-94.592	-0.145	0.040
-675.164	-50.804	0.098	0.046
-674.149	-200.000	0.014	-0.085
-673.135	30.156	-0.337	0.290
-672.120	-200.000	-0.044	-0.257
-671.105	265.712	-0.131	-0.230
-670.091	800.000	0.061	0.180
-669.076	469.665	-0.060	0.136
-668.062	22.038	-0.159	0.131
-667.047	69.641	-0.364	0.378
-666.032	213.793	-0.026	-0.042
-665.018	-200.000	0.004	-0.058
-664.003	-76.942	0.243	0.085
-662.989	-119.824	-0.231	-0.040
-661.974	-200.000	0.006	-0.285
-660.959	-109.137	-0.315	-0.067
-659.945	447.866	-0.061	0.136
-658.930	-200.000	0.006	-0.118
-657.916	-200.000	-0.025	0.318
-656.901	118.195	0.033	0.041
-655.886	13.452	0.146	-0.114
-654.872	-200.000	0.003	-0.270
-653.857	-200.000	0.084	-0.390
-652.843	219.376	0.062	0.099
-651.828	-200.000	0.019	-0.297
-650.814	292.383	0.084	0.154
-649.799	463.043	-0.149	-0.335
-648.784	183.991	0.053	-0.079
-647.770	490.470	0.127	0.293
-646.755	-17.403	0.268	0.170
-645.741	123.339	0.087	-0.109
-644.726	508.876	-0.067	-0.156
-643.711	676.627	0.094	-0.246
-642.697	-4.110	0.356	0.248
-641.682	-6.954	0.089	-0.061
-640.668	39.424	-0.084	-0.076
-639.653	-89.666	0.255	-0.075
-638.638	-103.773	-0.108	0.025
-637.624	-9.100	0.266	-0.179
-636.609	-4.456	0.111	0.077
-635.595	222.738	-0.096	-0.155
-634.580	292.941	0.176	-0.323
-633.565	-139.399	-0.418	0.045
-632.551	-30.558	-0.168	-0.096
-631.536	-200.000	-0.008	-0.059
-630.522	29.188	-0.115	-0.098
-629.507	-74.008	-0.115	0.042
-628.492	-174.451	-0.134	-0.004
-627.478	316.528	-0.058	0.110
-626.463	170.961	0.116	-0.168
-625.449	166.204	0.270	0.384
-624.434	-128.882	0.260	0.037
-623.419	-46.069	-0.312	-0.154
-622.405	-122.508	-0.258	-0.042
-621.390	12.472	0.263	0.204
-620.376	83.122	-0.028	-0.030
-619.361	-155.930	0.126	0.008
-618.346	-76.915	0.300	0.105
-617.332	-146.207	0.253	0.022
-616.317	36.836	-0.179	-0.158
-615.303	-200.000	-0.037	-0.356
-614.288	-50.850	-0.262	-0.124
-613.273	-107.060	0.311	0.069
-612.259	24.509	-0.145	0.120
-611.244	-46.029	0.150	0.074
-610.230	800.000	-0.064	0.188
-609.215	9.459	-0.198	0.150
-608.201	-11.181	-0.172	0.114
-607.186	-200.000	-0.033	-0.157
-606.171	-169.917	0.346	0.012
-605.157	800.000	-0.026	-0.112
-604.142	440.706	0.213	0.466
-603.128	641.808	-0.117	0.298
-602.113	1.676	-0.050	0.036
-601.098	-38.877	-0.276	0.146
-600.084	148.941	0.162	-0.219
-599.069	800.000	-0.056	0.200
-598.055	-64.905	-0.050	0.020
-597.040	-151.420	-0.229	0.017
-596.025	49.533	0.147	0.139
-595.011	-133.443	-0.368	0.046
-593.996	34.977	-0.300	-0.263
-592.982	9.934	0.065	0.049
-591.967	-200.000	-0.018	-0.091
-590.952	655.804	-0.120	-0.309
-589.938	221.480	-0.164	0.263
-588.923	-38.667	0.123	-0.065
-587.909	394.766	0.049	-0.103
-586.894	800.000	0.023	-0.096
-585.879	-99.323	-0.337	0.085
-584.865	-128.482	-0.200	0.028
-583.850	313.977	-0.050	-0.095
-582.836	800.000	0.161	-0.463
-581.821	-200.000	0.009	-0.192
-580.806	-200.000	-0.017	0.209
-579.792	-135.174	0.129	-0.016
-578.777	-200.000	-0.017	0.400
-577.763	74.759	-0.149	0.157
-576.748	392.299	0.063	-0.131
-575.733	104.594	0.271	-0.320
-574.719	800.000	-0.088	-0.380
-573.704	-157.301	0.365	-0.022
-572.690	-112.350	-0.328	0.066
-571.675	31.618	0.197	0.169
-570.661	105.052	0.150	0.178
-569.646	145.877	0.148	-0.199
-568.631	-97.919	0.422	-0.109
-567.617	800.000	0.058	0.221
-566.602	-116.565	0.045	0.008
-565.588	642.569	0.071	0.182
-564.573	15.938	-0.309	-0.244
-563.558	643.199	0.133	-0.340
-562.544	455.986	-0.169	0.374
-561.529	213.023	0.125	0.197
-560.515	8.132	0.265	-0.200
-559.500	-2.132	-0.160	-0.113
-558.485	-200.000	0.011	-0.313
-557.471	-123.076	0.077	-0.012
-556.456	-23.139	0.235	-0.142
-555.442	355.264	-0.091	0.181
-554.427	-200.000	0.048	-0.250
-553.412	-118.157	0.155	-0.028
-552.398	-144.333	0.450	-0.042
-551.383	-44.114	-0.222	0.111
-550.369	-90.100	0.338	0.099
-549.354	-200.000	-0.053	0.322
-548.339	352.861	-0.168	0.333
-547.325	720.834	0.125	0.333
-546.310	240.164	0.139	0.232
-545.296	-142.466	-0.208	0.020
-544.281	-101.582	0.207	0.050
-543.266	15.310	0.066	0.052
-542.252	-52.792	-0.082	0.038
-541.237	17.595	-0.102	-0.081
-540.223	800.000	0.042	0.148
-539.208	-152.157	0.276	-0.020
-538.193	-37.560	0.180	-0.096
-537.179	132.427	-0.247	0.319
-536.164	-200.000	0.017	0.114
-535.150	65.392	0.093	0.094
-534.135	88.878	0.173	-0.192
-533.121	241.636	0.175	-0.293
-532.106	800.000	-0.015	-0.046
-531.091	-8.419	-0.123	-0.082
-530.077	49.443	0.309	-0.290
-529.062	44.436	0.089	-0.082
-528.048	-71.043	-0.276	-0.104
-527.033	-96.330	0.034	-0.009
-526.018	-142.472	0.286	-0.028
-525.004	400.949	0.100	-0.210
-523.989	-81.698	-0.253	-0.083
-522.975	296.584	-0.111	-0.204
-521.960	-77.561	0.194	-0.067
-520.945	-200.000	0.010	0.188
-519.931	249.206	-0.143	-0.242
-518.916	74.427	0.047	-0.049
-517.902	33.662	-0.105	-0.092
-516.887	428.393	0.066	0.144
-515.872	-22.361	0.189	0.114
-514.858	412.860	-0.109	0.232
-513.843	-200.000	-0.009	0.114
-512.829	133.676	0.148	-0.191
-511.814	-142.863	0.164	0.016
-510.799	254.357	-0.086	0.148
-509.785	433.540	-0.084	-0.183
-508.770	-113.981	0.111	0.021
-507.756	-10.924	0.078	-0.051
-506.741	605.822	0.068	0.169
-505.726	-200.000	-0.023	-0.215
-504.712	-17.437	0.200	-0.126
-503.697	29.447	-0.107	0.091
-502.683	20.593	0.182	-0.147
-501.668	800.000	0.062	0.246
-500.653	-200.000	-0.012	-0.103
-499.639	-200.000	0.011	0.440
-498.624	130.315	-0.110	0.140
-497.610	35.294	0.035	0.031
-496.595	77.374	-0.197	-0.209
-495.581	85.172	-0.068	0.074
-494.566	538.408	-0.173	0.411
-493.551	-26.066	0.269	-0.158
-492.537	-200.000	0.026	-0.335
-491.522	24.519	-0.052	0.043
-490.508	-142.147	-0.204	-0.020
-489.493	-132.658	0.202	0.026
-488.478	602.655	0.116	0.287
-487.464	521.433	0.064	0.150
-486.449	88.215	-0.140	0.155
-485.435	230.757	-0.134	-0.219
-484.420	279.309	0.238	-0.425
-483.405	800.000	-0.129	-0.461
-482.391	87.961	-0.046	0.051
-481.376	688.081	-0.128	0.333
-480.362	-200.000	-0.070	-0.328
-479.347	-115.963	-0.040	-0.007
-478.332	-116.434	0.177	0.033
-477.318	420.705	-0.083	-0.177
-476.303	800.000	0.054	-0.183
-475.289	48.578	0.129	-0.120
-474.274	358.510	0.082	0.164
-473.259	800.000	-0.148	0.454
-472.245	-2.984	0.007	-0.005
-471.230	-200.000	-0.019	-0.445
-470.216	307.772	0.119	-0.221
-469.201	-114.990	-0.247	0.047
-468.186	-180.117	0.303	-0.006
-467.172	-182.055	-0.139	-0.003
-466.157	800.000	-0.141	0.407
-465.143	690.365	0.085	0.222
-464.128	-162.560	0.103	-0.005
-463.113	-200.000	-0.052	-0.275
-462.099	-20.122	-0.231	0.142
-461.084	79.481	-0.127	-0.136
-460.070	-29.533	-0.328	0.187
-459.055	186.493	0.193	0.287
-458.040	-106.762	-0.163	0.036
-457.026	0.351	-0.122	-0.087
-456.011	26.671	0.182	0.152
-454.997	800.000	-0.090	0.324
-453.982	283.578	0.228	0.409
-452.968	-166.688	0.310	0.013
-451.953	-119.186	-0.193	-0.034
-450.938	664.786	-0.009	0.022
-449.924	97.473	0.261	0.299
-448.909	-171.956	-0.176	0.006
-447.895	121.108	-0.236	0.293
-446.880	-38.497	0.492	-0.259
-445.865	350.394	0.085	0.168
-444.851	468.743	-0.075	0.168
-443.836	-121.717	-0.293	-0.048
-442.822	800.000	-0.066	-0.267
-441.807	131.972	-0.258	-0.331
-440.792	-200.000	0.004	-0.113
-439.778	142.795	-0.156	0.207
-438.763	168.771	0.165	0.235
-437.749	-96.672	0.203	-0.053
-436.734	443.728	0.074	0.161
-435.719	21.532	0.118	0.095
-434.705	-1.049	-0.191	-0.135
-433.690	-144.110	0.086	-0.008
-432.676	-109.654	0.303	-0.064
-431.661	699.238	-0.080	0.209
-430.646	-22.127	-0.184	0.111
-429.632	14.810	0.082	0.064
-428.617	-67.230	0.077	0.030
-427.603	-25.709	-0.360	-0.211
-426.588	32.812	-0.173	-0.149
-425.573	800.000	0.070	0.234
-424.559	107.126	0.205	-0.243
-423.544	716.368	-0.082	0.218
-422.530	-200.000	-0.027	0.216
-421.515	290.719	0.146	0.264
-420.500	-200.000	-0.021	0.111
-419.486	-114.664	-0.122	0.023
-418.471	-200.000	0.043	-0.301
-417.457	-124.536	-0.325	0.050
-416.442	-126.779	0.124	-0.018
-415.428	26.854	-0.160	-0.134
-414.413	-200.000	-0.003	-0.023
-413.398	-3.588	0.354	-0.245
-412.384	800.000	-0.023	-0.096
-411.369	-29.130	0.024	-0.014
-410.355	-85.758	-0.212	0.066
-409.340	800.000	0.047	-0.148
-408.325	136.142	-0.197	0.255
-407.311	800.000	0.040	0.131
-406.296	-31.702	-0.167	-0.093
-405.282	-21.996	0.150	-0.091
-404.267	30.758	-0.334	0.285
-403.252	82.967	-0.227	-0.245
-402.238	11.275	-0.066	0.050
-401.223	800.000	-0.048	-0.176
-400.209	-21.437	0.150	-0.091
-399.194	67.756	0.207	-0.210
-398.179	-42.690	-0.068	-0.034
-397.165	118.833	0.051	-0.063
-396.150	38.312	0.158	-0.140
-395.136	-200.000	0.051	0.235
-394.121	-200.000	-0.046	-0.420
-393.106	-121.469	-0.037	0.006
-392.092	-22.066	0.052	-0.031
-391.077	800.000	-0.054	-0.157
-390.063	800.000	-0.089	0.298
-389.048	-200.000	0.047	-0.207
-388.033	-106.738	0.222	0.049
-387.019	118.400	0.156	-0.191
-386.004	10.505	-0.160	-0.122
-384.990	36.350	-0.267	0.234
-383.975	-200.000	0.009	0.107
-382.960	5.640	0.274	-0.202
-381.946	-16.914	0.099	0.062
-380.931	800.000	0.055	0.213
-379.917	-200.000	0.005	-0.126
-378.902	800.000	0.017	0.053
-377.888	-26.942	0.101	-0.059
-376.873	-160.095	-0.309	0.017
-375.858	-8.640	0.122	0.081
-374.844	88.620	0.202	0.224
-373.829	-200.000	0.020	0.101
-372.815	772.748	0.098	-0.266
-371.800	78.536	-0.223	0.237
-370.785	85.776	-0.039	-0.042
-369.771	-62.932	0.182	0.075
-368.756	-31.406	-0.430	-0.240
-367.742	-200.000	-0.029	-0.146
-366.727	-123.663	0.320	-0.050
-365.712	-200.000	-0.034	-0.231
-364.698	3.282	-0.428	-0.310
-363.683	244.200	0.142	0.237
-362.669	38.578	-0.195	-0.173
-361.654	-80.074	0.236	0.079
-360.639	800.000	-0.059	0.181
-359.625	800.000	-0.031	-0.120
-358.610	428.187	0.083	-0.179
-357.596	97.977	-0.196	-0.224
-356.581	98.393	0.077	-0.088
-355.566	105.814	-0.079	-0.093
-354.552	543.951	0.046	0.108
-353.537	-9.736	0.310	0.205
-352.523	276.179	0.164	0.289
-351.508	-200.000	0.008	-0.193
-350.493	30.215	-0.131	-0.111
-349.479	45.103	-0.264	-0.242
-348.464	307.313	0.060	0.111
-347.450	-200.000	0.073	0.402
-346.435	-109.763	0.463	0.097
-345.420	-148.647	0.082	-0.007
-344.406	-200.000	-0.027	0.126
-343.391	-125.348	0.121	-0.018
-342.377	142.829	-0.217	-0.287
-341.362	-200.000	-0.020	0.093
-340.348	-18.986	-0.206	0.127
-339.333	-101.998	-0.223	0.053
-338.318	-40.036	0.149	0.077
-337.304	-65.488	0.103	0.041
-336.289	-200.000	0.034	0.192
-335.275	-95.808	0.111	-0.029
-334.260	-15.304	0.335	-0.213
-333.245	800.000	-0.124	-0.346
-332.231	506.258	-0.036	0.083
-331.216	-200.000	0.005	-0.058
-330.202	46.451	-0.158	-0.146
-329.187	-27.822	-0.271	-0.156
-328.172	-200.000	0.018	-0.330
-327.158	231.317	0.026	0.043
-326.143	16.666	-0.107	0.084
-325.129	70.576	-0.330	0.339
-324.114	-123.503	0.051	0.008
-323.099	78.919	-0.060	-0.064
-322.085	130.818	0.131	-0.167
-321.070	-200.000	-0.004	0.169
-320.056	160.375	-0.099	-0.136
-319.041	-86.310	0.153	-0.047
-318.026	-199.483	0.197	0.001
-317.012	-200.000	0.024	0.200
-315.997	2.089	0.287	-0.206
-314.983	527.647	-0.069	-0.160
-313.968	-200.000	-0.014	-0.279
-312.953	20.305	-0.057	0.046
-311.939	720.429	-0.063	0.167
-310.924	-101.896	0.170	-0.041
-309.910	-200.000	-0.024	-0.200
-308.895	-200.000	0.036	0.292
-307.880	-52.345	-0.390	-0.179
-306.866	142.959	0.306	-0.404
-305.851	-200.000	0.005	-0.105
-304.837	14.325	0.432	0.334
-303.822	154.018	-0.210	0.285
-302.807	-36.662	0.159	-0.085
-301.793	-95.576	-0.212	0.056
-300.778	-200.000	-0.001	-0.452
-299.764	800.000	-0.034	0.109
-298.749	-30.624	-0.072	0.040
-297.735	253.669	0.191	-0.324
-296.720	42.705	0.163	0.147
-295.705	-200.000	-0.023	0.160
-294.691	82.182	-0.077	0.083
-293.676	24.684	0.105	0.086
-292.662	47.584	0.051	-0.047
-291.647	-63.460	-0.117	-0.047
-290.632	248.849	-0.013	0.022
-289.618	-167.372	-0.231	-0.009
-288.603	-200.000	-0.035	0.395
-287.589	80.349	-0.145	-0.155
-286.574	-42.928	-0.230	0.116
-285.559	-57.589	-0.140	-0.061
-284.545	668.216	-0.009	0.023
-283.530	-200.000	-0.003	-0.064
-282.516	-43.233	-0.186	-0.093
-281.501	-200.000	-0.031	-0.153
-280.486	-200.000	0.001	0.190
-279.472	-26.543	-0.066	-0.038
-278.457	-200.000	-0.016	0.287
-277.443	114.360	0.199	-0.240
-276.428	-99.977	-0.143	0.035
-275.413	377.650	-0.128	0.258
-274.399	-149.310	-0.110	-0.009
-273.384	-200.000	-0.113	0.507
-272.370	-200.000	0.013	0.065
-271.355	489.559	0.108	-0.244
-270.340	306.390	-0.127	0.234
-269.326	216.859	0.038	0.060
-268.311	-120.399	0.316	-0.053
-267.297	-67.717	-0.132	0.051
-266.282	-98.137	0.191	0.049
-265.267	145.998	-0.135	-0.179
-264.253	579.563	0.086	0.209
-263.238	105.330	-0.198	-0.232
-262.224	-200.000	-0.004	-0.180
-261.209	-19.349	-0.211	-0.130
-260.195	543.376	-0.086	-0.203
-259.180	756.720	0.067	0.179
-258.165	800.000	-0.011	0.035
-257.151	54.229	-0.046	-0.044
-256.136	222.584	-0.097	0.154
-255.122	-62.343	0.125	-0.052
-254.107	49.123	0.133	-0.124
-253.092	-74.616	0.152	-0.054
-252.078	-66.267	0.118	-0.046
-251.063	-133.458	0.073	-0.009
-250.049	800.000	0.039	0.161
-249.034	72.801	-0.099	0.102
-248.019	-116.737	-0.035	0.006
-247.005	-200.000	-0.019	-0.156
-245.990	110.444	-0.047	0.056
-244.976	36.778	0.065	-0.057
-243.961	800.000	0.044	0.154
-242.946	476.868	0.094	0.210
-241.932	13.129	0.159	0.122
-240.917	-12.697	-0.154	0.100
-239.903	130.863	0.183	0.232
-238.888	392.842	0.085	-0.175
-237.873	101.578	-0.370	-0.427
-236.859	800.000	-0.068	-0.236
-235.844	-47.847	-0.219	-0.105
-234.830	-200.000	-0.014	0.370
-233.815	-131.671	-0.549	-0.071
-232.800	-42.290	-0.087	0.044
-231.786	-23.557	0.231	0.137
-230.771	-108.890	0.139	-0.029
-229.757	-149.432	-0.254	0.020
-228.742	-200.000	0.001	0.103
-227.727	-200.000	-0.014	0.136
-226.713	76.742	0.270	-0.283
-225.698	800.000	0.120	0.431
-224.684	-31.663	0.253	-0.140
-223.669	13.618	0.192	0.147
-222.655	-35.435	0.144	-0.078
-221.640	800.000	-0.076	0.209
-220.625	-200.000	0.037	-0.225
-219.611	-88.024	0.105	0.031
-218.596	-94.966	0.189	-0.051
-217.582	293.321	-0.057	0.103
-216.567	-200.000	0.010	-0.177
-215.552	-91.332	-0.345	-0.097
-214.538	38.345	0.077	0.068
-213.523	-57.894	-0.208	0.090
-212.509	-105.271	-0.259	0.058
-211.494	633.367	-0.128	-0.319
-210.479	800.000	-0.009	0.035
-209.465	23.533	0.104	-0.084
-208.450	-200.000	0.005	-0.035
-207.436	-3.994	-0.281	-0.193
-206.421	82.132	-0.174	-0.187
-205.406	335.976	0.152	-0.291
-204.392	-200.000	0.005	0.115
-203.377	-51.525	0.083	-0.038
-202.363	88.085	0.068	0.074
-201.348	-153.410	-0.048	0.003
-200.333	800.000	0.028	-0.106
-199.319	23.543	0.286	0.233
-198.304	251.720	0.109	-0.184
-197.290	800.000	-0.074	-0.256
-196.275	-113.665	0.225	-0.043
-195.260	-49.730	0.108	0.051
-194.246	18.675	-0.187	0.148
-193.231	-200.000	0.046	-0.200
-192.217	535.184	-0.215	0.503
-191.202	-156.450	-0.360	0.022
-190.187	-200.000	0.001	-0.073
-189.173	-123.058	0.010	0.002
-188.158	800.000	0.079	-0.242
-187.144	-107.635	-0.146	-0.032
-186.129	-200.000	0.068	0.477
-185.114	-3.683	0.054	0.037
-184.100	-73.965	-0.201	-0.072
-183.085	-40.177	-0.029	0.015
-182.071	-120.660	-0.328	-0.055
-181.056	252.169	-0.216	-0.363
-180.042	-42.037	0.313	0.158
-179.027	-200.000	-0.008	-0.115
-178.012	800.000	-0.018	-0.056
-176.998	102.744	0.095	0.109
-175.983	38.693	-0.089	-0.078
-174.969	-200.000	-0.014	0.126
-173.954	-200.000	-0.021	-0.252
-172.939	-35.894	-0.367	0.196
-171.925	99.451	-0.207	0.236
-170.910	-200.000	0.036	-0.165
-169.896	800.000	0.059	0.203
-168.881	-200.000	-0.030	0.190
-167.866	-79.454	-0.257	0.086
-166.852	-173.818	0.159	0.005
-165.837	-16.181	-0.017	0.011
-164.823	-133.515	-0.142	0.018
-163.808	12.593	-0.152	-0.116
-162.793	-38.558	-0.089	0.046
-161.779	169.626	0.164	0.231
-160.764	77.359	-0.152	0.159
-159.750	-50.159	0.228	0.107
-158.735	-32.955	-0.210	0.115
-157.720	-122.824	0.186	-0.030
-156.706	-85.253	-0.165	-0.051
-155.691	-98.013	-0.215	0.055
-154.677	-46.824	0.181	-0.087
-153.662	800.000	-0.020	0.066
-152.647	2.645	0.144	-0.103
-151.633	293.821	0.117	0.211
-150.618	48.384	0.202	0.186
-149.604	-102.473	-0.197	-0.047
-148.589	119.444	-0.262	0.320
-147.574	-73.953	0.330	0.118
-146.560	-27.569	0.059	-0.034
-145.545	-200.000	0.031	-0.324
-144.531	105.579	0.325	-0.379
-143.516	-63.750	-0.044	0.018
-142.502	59.836	0.153	-0.148
-141.487	-74.714	-0.132	0.047
-140.472	330.274	-0.052	-0.099
-139.458	-200.000	-0.048	-0.338
-138.443	-141.252	-0.181	0.018
-137.429	-128.210	0.196	-0.028
-136.414	1.048	-0.115	-0.081
-135.399	175.715	-0.028	0.040
-134.385	800.000	0.094	-0.265
-133.370	545.930	0.107	0.253
-132.356	745.362	-0.040	-0.107
-131.341	167.432	0.199	-0.278
-130.326	-7.629	0.119	0.079
-129.312	-51.005	0.163	-0.075
-128.297	800.000	-0.040	0.152
-127.283	186.671	-0.153	-0.225
-126.268	-47.810	0.176	-0.084
-125.253	338.338	-0.148	-0.284
-124.239	-76.453	0.201	-0.070
-123.224	-85.047	0.125	-0.038
-122.210	800.000	0.131	0.414
-121.195	-64.560	0.451	0.180
-120.180	177.274	-0.120	0.172
-119.166	-200.000	0.013	0.082
-118.151	800.000	-0.031	-0.108
-117.137	-134.312	0.173	-0.021
-116.122	-100.309	-0.286	-0.070
-115.107	172.592	-0.257	-0.365
-114.093	-200.000	-0.024	-0.272
-113.078	177.202	-0.133	-0.190
-112.064	-98.674	0.162	0.041
-111.049	800.000	-0.128	0.348
-110.034	-200.000	-0.012	-0.106
-109.020	-120.504	0.116	-0.019
-108.005	170.328	-0.050	0.071
-106.991	57.424	-0.234	-0.225
-105.976	280.804	-0.137	0.241
-104.962	274.947	-0.188	0.327
-103.947	-152.690	0.547	-0.038
-102.932	199.900	-0.216	0.326
-101.918	800.000	0.025	-0.092
-100.903	10.321	0.273	0.204
-99.889	96.389	-0.134	-0.151
-98.874	800.000	-0.049	-0.140
-97.859	73.788	-0.015	-0.016
-96.845	-200.000	-0.012	0.282
-95.830	173.302	0.011	-0.016
-94.816	182.295	0.206	-0.298
-93.801	-200.000	0.094	0.661
-92.786	-98.360	0.115	0.029
-91.772	-55.919	0.114	0.050
-90.757	-106.315	-0.041	-0.009
-89.743	-200.000	0.012	0.318
-88.728	66.482	-0.287	0.287
-87.713	-200.000	-0.018	-0.128
-86.699	800.000	-0.040	-0.137
-85.684	-111.107	-0.089	-0.018
-84.670	-200.000	-0.002	-0.026
-83.655	100.475	-0.106	0.121
-82.640	-19.673	0.098	0.059
-81.626	-35.436	0.045	-0.024
-80.611	-179.633	0.339	0.007
-79.597	-118.483	-0.263	0.046
-78.582	-109.058	-0.184	-0.039
-77.567	-200.000	-0.056	0.000
-76.553	-53.959	-0.052	-0.023
-75.538	722.081	0.086	-0.224
-74.524	298.940	-0.086	-0.155
-73.509	800.000	0.089	-0.306
-72.494	-1.319	0.159	-0.110
-71.480	-37.917	-0.118	0.062
-70.465	260.807	-0.008	0.013
-69.451	-9.454	-0.089	0.058
-68.436	800.000	0.040	0.110
-67.422	71.427	-0.263	-0.269
-66.407	331.074	0.105	-0.198
-65.392	-200.000	-0.053	-0.290
-64.378	800.000	0.020	-0.073
-63.363	-21.624	0.354	-0.212
-62.349	-42.304	-0.329	0.165
-61.334	56.530	-0.916	-0.875
-60.319	-27.248	0.495	0.283
-59.305	-200.000	-0.114	-0.930
-58.290	665.347	0.401	1.018
-57.276	208.982	1.099	1.690
-56.261	-200.000	96.258	574.636
-55.246	556.256	1376.926	3256.939
-54.232	160.231	2559.196	3503.895
-53.217	105.910	2267.021	2634.059
-52.203	42.094	1891.962	1686.464
-51.188	36.140	1681.973	1454.475
-50.173	33.367	1637.658	1395.688
-49.159	50.514	1683.419	1563.106
-48.144	52.178	1700.397	1591.240
-47.130	35.622	1660.988	1432.239
-46.115	32.951	1646.545	1399.955
-45.100	32.672	1642.086	1394.047
-44.086	32.674	1639.034	1391.413
-43.071	32.693	1636.235	1389.128
-42.057	32.662	1634.145	1387.067
-41.042	32.576	1632.259	1384.783
-40.027	32.692	1629.838	1383.525
-39.013	32.723	1627.757	1381.929
-37.998	32.621	1626.916	1380.414
-36.984	32.647	1626.157	1379.903
-35.969	32.780	1623.601	1378.653
-34.954	32.883	1622.264	1378.217
-33.940	32.741	1620.443	1375.578
-32.925	32.809	1619.221	1374.978
-31.911	32.850	1616.706	1373.091
-30.896	32.847	1615.008	1371.572
-29.881	32.907	1612.977	1370.223
-28.867	32.807	1612.016	1368.632
-27.852	32.861	1610.238	1367.460
-26.838	32.848	1608.997	1366.254
-25.823	32.866	1607.240	1364.839
-24.809	32.842	1606.298	1363.810
-23.794	32.769	1604.912	1362.054
-22.779	32.861	1602.880	1360.942
-21.765	32.756	1601.702	1359.131
-20.750	32.776	1600.189	1357.932
-19.736	32.836	1598.598	1356.963
-18.721	32.863	1597.066	1355.802
-17.706	32.881	1595.749	1354.756
-16.692	32.793	1594.680	1353.164
-15.677	32.838	1592.664	1351.725
-14.663	32.873	1591.639	1351.049
-13.648	32.808	1590.372	1349.455
-12.633	32.778	1588.705	1347.771
-11.619	32.838	1587.252	1346.915
-10.604	32.851	1585.334	1345.328
-9.590	32.858	1584.210	1344.373
-8.575	32.905	1582.451	1343.159
-7.560	32.853	1581.856	1342.235
-6.546	32.861	1580.578	1341.151
-5.531	32.833	1579.453	1339.945
-4.517	32.795	1578.344	1338.682
-3.502	32.861	1577.070	1338.012
-2.487	32.833	1575.503	1336.437
-1.473	32.518	1564.104	1324.495
-0.458	29.785	1545.041	1289.280
0.556	26.774	1545.966	1259.828
1.571	24.498	1569.138	1262.530
2.586	23.963	1582.261	1269.154
3.600	21.554	1529.330	1209.959
4.615	12.409	1419.130	1063.738
5.629	3.745	1352.934	960.370
6.644	2.183	1344.203	944.436
7.659	2.010	1343.178	942.565
8.673	2.097	1341.697	941.977
9.688	1.909	1340.158	939.656
10.702	1.706	1337.138	936.203
11.717	5.133	1344.243	962.256
12.731	15.366	1362.900	1039.209
13.746	23.928	1377.378	1103.524
14.761	26.125	1380.580	1119.639
15.775	26.470	1380.113	1121.296
16.790	26.614	1379.744	1121.792
17.804	26.645	1378.924	1121.216
18.819	26.950	1378.564	1122.710
19.834	26.895	1378.278	1122.041
20.848	26.934	1377.962	1121.927
21.863	26.983	1376.783	1121.170
22.877	26.998	1375.848	1120.398
23.892	26.911	1374.875	1118.974
24.907	26.999	1374.031	1118.729
25.921	27.015	1373.243	1118.088
26.936	27.057	1372.213	1117.408
27.950	27.011	1370.829	1115.899
28.965	26.986	1369.997	1114.967
29.980	26.962	1368.265	1113.311
30.994	26.931	1367.494	1112.399
32.009	27.014	1366.478	1111.979
33.023	26.976	1365.134	1110.556
34.038	27.030	1364.208	1110.034
35.053	26.911	1363.266	1108.446
36.067	26.893	1362.604	1107.697
37.082	26.983	1361.035	1106.872
38.096	26.984	1360.189	1106.093
39.111	26.835	1359.994	1104.931
40.126	26.970	1359.081	1104.912
41.140	26.894	1358.673	1104.018
42.155	26.937	1358.115	1103.729
43.169	26.895	1358.529	1103.715
44.184	26.966	1357.834	1103.482
45.199	26.954	1357.422	1102.973
46.213	26.968	1356.681	1102.361
47.228	27.036	1355.430	1101.663
48.242	26.984	1354.719	1100.668
49.257	27.041	1353.120	1099.615
50.271	26.998	1351.666	1098.079
51.286	27.033	1350.177	1096.985
52.301	27.056	1348.897	1095.983
53.315	27.016	1348.207	1095.088
54.330	26.928	1347.672	1094.024
55.344	26.963	1346.177	1092.926
56.359	26.927	1345.228	1091.843
57.374	26.981	1344.485	1091.465
58.388	26.982	1343.948	1090.938
59.403	27.041	1343.393	1090.747
60.417	26.952	1342.522	1089.410
61.432	26.843	1342.153	1088.360
62.447	26.966	1341.165	1088.202
63.461	27.083	1339.864	1087.749
64.476	27.010	1338.915	1086.444
65.490	26.995	1337.846	1085.391
66.505	26.969	1336.416	1083.982
67.520	26.983	1335.387	1083.135
68.534	26.858	1334.719	1081.751
69.549	26.999	1333.621	1081.603
70.563	26.973	1332.546	1080.482
71.578	27.016	1331.320	1079.646
72.593	26.936	1331.175	1078.960
73.607	26.919	1330.268	1078.029
74.622	27.011	1329.301	1077.695
75.636	26.954	1328.840	1076.890
76.651	27.077	1327.899	1076.757
77.666	27.013	1327.489	1075.955
78.680	27.050	1327.211	1075.849
79.695	27.047	1326.231	1074.943
80.709	26.995	1325.686	1074.098
81.724	27.066	1324.469	1073.436
82.739	27.040	1323.510	1072.410
83.753	27.002	1322.887	1071.587
84.768	26.912	1322.050	1070.282
85.782	27.077	1320.408	1069.835
86.797	26.994	1319.433	1068.458
87.812	27.068	1318.043	1067.676
88.826	27.013	1317.059	1066.458
89.841	27.023	1315.595	1065.241
90.855	26.974	1315.476	1064.762
91.870	27.057	1314.345	1064.236
92.884	27.037	1313.441	1063.294
93.899	26.960	1313.034	1062.418
94.914	26.996	1312.108	1061.786
95.928	27.027	1311.275	1061.201
96.943	27.017	1310.899	1060.746
97.957	27.090	1309.686	1060.093
98.972	26.990	1309.190	1059.013
99.987	27.030	1307.917	1058.128
101.001	27.082	1307.215	1057.764
102.016	26.940	1306.689	1056.420
103.030	27.106	1305.144	1056.042
104.045	27.116	1304.434	1055.433
105.060	27.034	1303.651	1054.231
106.074	27.031	1302.988	1053.584
107.089	27.095	1301.440	1052.606
108.103	27.054	1300.704	1051.686
109.118	27.107	1299.875	1051.225
110.133	27.027	1298.993	1049.960
111.147	27.031	1297.336	1048.547
112.162	27.068	1296.160	1047.718
113.176	27.096	1295.427	1047.197
114.191	27.041	1294.467	1046.010
115.206	27.189	1293.243	1045.777
116.220	27.069	1292.215	1044.167
117.235	27.064	1291.682	1043.614
118.249	27.061	1291.071	1043.010
119.264	27.172	1289.800	1042.531
120.279	27.152	1289.091	1041.747
121.293	27.134	1288.316	1040.929
122.308	27.155	1287.670	1040.432
123.322	27.139	1286.983	1039.696
124.337	27.179	1286.007	1039.040
125.352	27.206	1284.421	1037.824
126.366	27.205	1284.434	1037.737
127.381	27.229	1282.966	1036.592
128.395	27.218	1282.361	1035.951
129.410	27.237	1281.565	1035.325
130.424	27.089	1281.113	1034.025
131.439	27.107	1280.279	1033.364
132.454	27.129	1279.369	1032.665
133.468	27.092	1279.020	1032.082
134.483	27.222	1278.127	1032.004
135.497	27.137	1277.392	1030.839
136.512	27.129	1276.213	1029.750
137.527	27.145	1275.340	1029.046
138.541	27.188	1273.834	1027.981
139.556	27.144	1272.841	1026.842
140.570	27.080	1272.378	1026.017
141.585	26.986	1271.088	1024.355
142.600	27.112	1270.000	1024.098
143.614	27.155	1269.189	1023.593
144.629	27.107	1268.199	1022.437
145.643	27.045	1267.528	1021.456
146.658	27.077	1265.937	1020.264
147.673	27.132	1265.122	1019.828
148.687	27.110	1264.205	1018.871
149.702	27.058	1263.113	1017.613
150.716	27.071	1262.019	1016.709
151.731	27.108	1260.705	1015.773
152.746	27.156	1259.728	1015.159
153.760	27.203	1258.805	1014.588
154.775	27.249	1257.604	1013.787
155.789	27.145	1257.213	1012.802
156.804	27.287	1255.875	1012.425
157.819	27.146	1256.031	1011.676
158.833	27.117	1255.208	1010.764
159.848	27.202	1254.116	1010.270
160.862	27.210	1253.398	1009.642
161.877	27.257	1252.620	1009.191
162.892	27.136	1252.076	1007.992
163.906	27.181	1251.354	1007.568
164.921	27.288	1250.393	1007.299
165.935	27.180	1249.721	1006.072
166.950	27.189	1249.245	1005.647
167.964	27.278	1248.537	1005.485
168.979	27.215	1248.386	1004.923
169.994	27.154	1247.795	1004.021
171.008	27.156	1246.901	1003.227
172.023	27.312	1245.658	1002.997
173.037	27.268	1245.095	1002.212
174.052	27.269	1244.291	1001.479
175.067	27.419	1243.237	1001.368
176.081	27.264	1243.091	1000.311
177.096	27.228	1241.867	999.040
178.110	27.208	1240.708	997.911
179.125	27.319	1239.894	997.776
180.140	27.408	1238.702	997.213
181.154	27.459	1237.635	996.549
182.169	27.297	1237.001	995.063
183.183	27.193	1236.406	993.925
184.198	27.256	1235.417	993.387
185.213	27.364	1234.178	992.892
186.227	27.404	1233.095	992.151
187.242	27.394	1232.329	991.393
188.256	27.329	1231.615	990.378
189.271	27.501	1230.776	990.550
190.286	27.388	1230.099	989.304
191.300	27.305	1229.425	988.225
192.315	27.381	1228.740	987.995
193.329	27.421	1228.691	988.088
194.344	27.429	1227.601	987.169
195.359	27.342	1227.604	986.613
196.373	27.305	1227.070	985.894
197.388	27.284	1226.917	985.572
198.402	27.359	1226.380	985.456
199.417	27.354	1225.865	984.928
200.432	27.384	1225.215	984.482
201.446	27.381	1224.991	984.197
202.461	27.419	1224.163	983.652
203.475	27.314	1223.310	982.312
204.490	27.399	1222.269	981.849
205.504	27.587	1221.007	981.762
206.519	27.452	1220.384	980.443
207.534	27.337	1219.686	979.177
208.548	27.449	1218.474	978.720
209.563	27.385	1218.151	978.034
210.577	27.471	1216.946	977.439
211.592	27.516	1216.099	976.913
212.607	27.459	1215.513	976.049
213.621	27.356	1215.081	975.067
214.636	27.412	1214.151	974.535
215.650	27.510	1213.422	974.383
216.665	27.464	1212.487	973.304
217.680	27.445	1211.503	972.324
218.694	27.468	1210.771	971.774
219.709	27.458	1210.008	971.024
220.723	27.496	1209.229	970.515
221.738	27.544	1208.247	969.897
222.753	27.414	1207.882	968.825
223.767	27.465	1207.266	968.519
224.782	27.639	1206.639	968.852
225.796	27.588	1206.411	968.314
226.811	27.602	1205.737	967.763
227.826	27.505	1205.349	966.847
228.840	27.437	1204.552	965.766
229.855	27.630	1203.913	966.191
230.869	27.503	1203.382	965.007
231.884	27.547	1202.324	964.302
232.899	27.515	1201.860	963.676
233.913	27.663	1200.946	963.641
234.928	27.666	1200.512	963.224
235.942	27.740	1199.623	962.815
236.957	27.751	1198.985	962.276
237.972	27.612	1198.619	961.163
238.986	27.722	1197.939	961.111
240.001	27.687	1197.596	960.568
241.015	27.712	1196.926	960.079
242.030	27.777	1195.941	959.547
243.045	27.779	1194.968	958.691
244.059	27.900	1193.577	958.126
245.074	27.801	1193.463	957.430
246.088	27.927	1192.129	956.933
247.103	27.752	1191.963	955.796
248.117	27.848	1190.855	955.329
249.132	27.784	1190.531	954.649
250.147	27.870	1189.643	954.303
251.161	27.865	1188.680	953.416
252.176	27.890	1188.160	953.050
253.190	27.936	1187.864	952.968
254.205	27.850	1187.385	952.049
255.220	27.943	1186.159	951.467
256.234	27.983	1185.678	951.202
257.249	27.884	1185.353	950.342
258.263	27.892	1184.728	949.802
259.278	27.931	1183.878	949.239
260.293	27.854	1183.925	948.789
261.307	27.961	1182.930	948.467
262.322	27.728	1182.780	947.052
263.336	27.964	1181.435	947.112
264.351	27.895	1181.413	946.653
265.366	27.870	1180.839	945.981
266.380	27.934	1179.981	945.544
267.395	27.903	1179.189	944.664
268.409	27.890	1178.963	944.332
269.424	27.952	1177.849	943.678
270.439	27.913	1177.700	943.271
271.453	27.896	1177.050	942.580
272.468	27.957	1176.308	942.218
273.482	27.900	1175.421	941.128
274.497	27.923	1175.202	940.992
275.512	27.967	1174.467	940.546
276.526	27.973	1173.820	939.975
277.541	28.018	1172.811	939.311
278.555	28.076	1171.952	938.839
279.570	28.067	1171.591	938.424
280.585	28.059	1170.847	937.704
281.599	27.868	1170.487	936.350
282.614	27.939	1169.428	935.783
283.628	27.973	1168.621	935.230
284.643	28.016	1167.358	934.358
285.657	28.074	1166.642	933.998
286.672	28.249	1165.875	934.194
287.687	28.097	1165.433	932.981
288.701	28.033	1164.982	932.211
289.716	28.192	1164.191	932.309
290.730	28.174	1163.628	931.682
291.745	28.148	1162.887	930.873
292.760	28.237	1161.949	930.493
293.774	28.210	1161.656	930.039
294.789	28.168	1160.977	929.197
295.803	28.179	1160.866	929.083
296.818	28.191	1159.918	928.303
297.833	28.314	1159.293	928.343
298.847	28.175	1158.918	927.259
299.862	28.227	1157.758	926.510
300.876	28.274	1157.030	926.083
301.891	28.173	1156.765	925.282
302.906	28.324	1156.252	925.551
303.920	28.383	1155.166	924.897
304.935	28.368	1154.514	924.219
305.949	28.333	1153.939	923.499
306.964	28.234	1153.810	922.814
307.979	28.279	1153.191	922.463
308.993	28.461	1152.275	922.567
310.008	28.388	1151.580	921.560
311.022	28.331	1150.722	920.509
312.037	28.381	1150.029	920.122
313.052	28.362	1149.228	919.306
314.066	28.404	1148.216	918.623
315.081	28.502	1147.169	918.197
316.095	28.400	1147.256	917.673
317.110	28.346	1146.575	916.778
318.125	28.396	1145.659	916.215
319.139	28.438	1145.097	915.894
320.154	28.437	1144.299	915.169
321.168	28.393	1144.127	914.729
322.183	28.516	1143.441	914.716
323.197	28.337	1143.078	913.451
324.212	28.445	1142.166	913.177
325.227	28.452	1142.221	913.178
326.241	28.428	1141.874	912.701
327.256	28.535	1140.390	911.963
328.270	28.637	1139.815	911.932
329.285	28.577	1139.125	911.001
330.300	28.614	1138.300	910.441
331.314	28.478	1137.730	909.232
332.329	28.582	1136.856	908.971
333.343	28.678	1135.765	908.491
334.358	28.581	1135.294	907.555
335.373	28.660	1134.752	907.432
336.387	28.627	1134.002	906.589
337.402	28.567	1133.478	905.791
338.416	28.578	1133.074	905.443
339.431	28.559	1132.618	904.906
340.446	28.631	1131.729	904.472
341.460	28.736	1130.733	904.109
342.475	28.822	1129.809	903.715
343.489	28.845	1128.722	902.881
344.504	28.709	1128.141	901.666
345.519	28.657	1127.637	900.930
346.533	28.838	1126.666	900.960
347.548	28.815	1125.999	900.235
348.562	28.802	1125.200	899.452
349.577	28.733	1124.789	898.708
350.592	28.705	1124.124	897.961
351.606	28.736	1123.228	897.318
352.621	28.769	1122.631	896.919
353.635	28.863	1122.256	896.999
354.650	28.869	1121.189	896.099
355.665	28.800	1120.901	895.453
356.679	28.815	1120.410	895.053
357.694	28.779	1120.092	894.545
358.708	28.880	1119.053	894.126
359.723	28.860	1118.215	893.281
360.738	28.778	1117.518	892.249
361.752	28.890	1117.022	892.315
362.767	28.883	1116.915	892.117
363.781	28.955	1116.127	891.760
364.796	28.901	1115.798	891.153
365.810	29.046	1115.087	891.208
366.825	28.915	1114.280	889.854
367.840	29.094	1113.518	890.033
368.854	29.045	1113.345	889.574
369.869	29.119	1112.669	889.314
370.883	29.043	1111.588	888.008
371.898	28.889	1111.364	887.007
372.913	28.946	1111.063	886.962
373.927	29.021	1110.151	886.519
374.942	29.071	1109.742	886.350
375.956	29.062	1109.251	885.838
376.971	29.065	1108.560	885.222
377.986	29.222	1107.918	885.386
379.000	29.100	1107.857	884.674
380.015	29.206	1107.403	884.738
381.029	29.105	1106.597	883.536
382.044	29.184	1105.818	883.213
383.059	29.153	1105.375	882.633
384.073	29.200	1104.367	881.973
385.088	29.177	1103.542	881.126
386.102	29.258	1102.736	880.792
387.117	29.168	1102.080	879.759
388.132	29.238	1101.105	879.240
389.146	29.242	1100.570	878.751
390.161	29.287	1099.867	878.328
391.175	29.243	1099.013	877.361
392.190	29.176	1098.674	876.691
393.205	29.260	1097.684	876.224
394.219	29.317	1096.864	875.761
395.234	29.305	1096.561	875.387
396.248	29.293	1095.778	874.628
397.263	29.352	1094.883	874.116
398.278	29.375	1094.188	873.593
399.292	29.263	1093.848	872.713
400.307	29.416	1092.979	872.667
401.321	29.455	1092.213	872.161
402.336	29.317	1092.043	871.295
403.350	29.333	1091.274	870.682
404.365	29.412	1090.751	870.559
405.380	29.343	1089.984	869.547
406.394	29.491	1088.968	869.355
407.409	29.464	1088.160	868.504
408.423	29.584	1087.454	868.428
409.438	29.544	1086.876	867.705
410.453	29.401	1086.258	866.463
411.467	29.515	1085.601	866.394
412.482	29.537	1085.227	866.125
413.496	29.427	1084.364	864.841
414.511	29.457	1084.132	864.722
415.526	29.493	1083.653	864.433
416.540	29.507	1083.278	864.121
417.555	29.591	1082.564	863.869
418.569	29.687	1081.758	863.597
419.584	29.624	1081.658	863.146
420.599	29.614	1081.338	862.767
421.613	104.009	1320.821	1455.929
422.628	96.733	1355.687	1456.051
