DTS Sentinel unit serial number:	SN413079Multiplexer serial number:	ORYXHardware model number:	OX4-SRSoftware version number:	ORYX F/W v4.00 Oryx Data Collector v3.7.2.0data status	okinstallation	princeton_trtdifferential loss correction	single-endedforward channel	channel 2reverse channel	N/Adate	2019/09/10time	20:57:11forward acquisition time	60.00reverse acquisition time	0.00gamma	496.2192k internal	0.2331k external	0.2331temperature offset calibration	0.9946default loss term (dB/km)	0.3790temperature slope calibration	1.0000multiplexer offset coefficient	1.0000multiplexer slope coefficient	1.0000fibre end	0.00T internal ref (°C)	31.67T ext. ref 1 (°C)	-0.32T ext. ref 2 (°C)	25.04length (m)	temperature (°C)	Stokes	anti-Stokes-747.200	180.910	0.162	0.240
-746.185	-102.968	-0.202	0.048
-745.171	48.822	0.179	0.169
-744.156	-112.208	-0.328	0.066
-743.142	-14.964	-0.148	0.096
-742.127	729.229	0.120	0.323
-741.112	-112.105	0.102	-0.021
-740.098	-78.451	0.404	-0.139
-739.083	-79.632	0.464	0.158
-738.069	53.078	-0.041	0.039
-737.054	171.085	0.191	-0.275
-736.039	143.327	-0.200	0.268
-735.025	-57.455	0.572	0.253
-734.010	7.043	-0.162	0.122
-732.996	-115.411	-0.156	-0.030
-731.981	-148.633	-0.160	0.013
-730.966	-138.963	0.145	-0.016
-729.952	150.815	0.122	0.167
-728.937	144.700	-0.149	-0.201
-727.923	-200.000	-0.000	-0.227
-726.908	-3.985	0.138	0.097
-725.894	-179.108	0.210	-0.005
-724.879	-104.187	0.130	0.030
-723.864	780.463	0.117	-0.322
-722.850	192.701	-0.028	-0.043
-721.835	800.000	-0.096	0.277
-720.821	303.528	0.016	-0.030
-719.806	295.685	0.162	-0.299
-718.791	-200.000	0.002	-0.043
-717.777	263.305	0.205	0.357
-716.762	64.443	-0.259	-0.262
-715.748	-8.760	-0.204	-0.138
-714.733	151.051	0.075	-0.103
-713.718	256.998	-0.070	0.121
-712.704	800.000	-0.087	-0.326
-711.689	614.734	-0.083	0.208
-710.675	-140.847	0.204	0.021
-709.660	256.482	-0.105	0.181
-708.645	-200.000	0.032	-0.145
-707.631	-58.988	0.169	-0.073
-706.616	-200.000	-0.003	-0.105
-705.602	17.207	0.347	-0.277
-704.587	-200.000	-0.035	-0.196
-703.572	-200.000	0.007	0.035
-702.558	-200.000	0.032	0.222
-701.543	800.000	0.041	0.169
-700.529	-30.270	0.392	-0.224
-699.514	-77.716	-0.290	0.101
-698.499	93.509	-0.149	0.170
-697.485	-143.684	-0.270	0.026
-696.470	-122.259	-0.215	0.035
-695.456	-88.673	0.189	-0.056
-694.441	-0.814	0.136	-0.097
-693.426	-145.173	0.321	0.029
-692.412	-147.221	-0.396	0.034
-691.397	-114.540	-0.229	0.044
-690.383	-200.000	-0.027	-0.167
-689.368	24.191	-0.109	0.090
-688.354	-15.700	-0.237	-0.152
-687.339	-111.841	0.218	-0.044
-686.324	53.263	-0.207	0.199
-685.310	120.146	-0.100	0.124
-684.295	-200.000	0.034	-0.303
-683.281	41.053	-0.106	-0.096
-682.266	-200.000	0.028	0.175
-681.251	800.000	0.026	0.080
-680.237	331.959	0.065	0.126
-679.222	-160.806	-0.097	-0.005
-678.208	-156.821	-0.040	-0.002
-677.193	-200.000	-0.014	-0.280
-676.178	-108.304	-0.146	0.032
-675.164	-126.235	-0.412	-0.062
-674.149	739.823	0.088	-0.236
-673.135	800.000	0.086	-0.306
-672.120	800.000	0.015	-0.047
-671.105	-20.144	0.234	-0.145
-670.091	280.213	0.075	-0.135
-669.076	-85.018	-0.306	-0.096
-668.062	800.000	0.068	-0.222
-667.047	-13.407	-0.123	-0.080
-666.032	800.000	-0.081	0.230
-665.018	268.361	-0.053	-0.094
-664.003	-156.935	-0.361	0.022
-662.989	-100.469	0.390	0.097
-661.974	397.218	-0.190	-0.398
-660.959	56.354	-0.236	-0.230
-659.945	-67.188	-0.166	0.066
-658.930	113.701	-0.098	-0.120
-657.916	-147.407	-0.228	-0.019
-656.901	136.305	0.052	0.068
-655.886	-88.279	-0.286	0.086
-654.872	83.586	0.128	0.139
-653.857	-187.725	0.521	0.007
-652.843	-152.341	0.087	0.006
-651.828	181.218	-0.142	0.209
-650.814	192.292	0.152	0.230
-649.799	-55.870	0.062	-0.028
-648.784	-200.000	-0.063	0.314
-647.770	-88.754	0.069	-0.020
-646.755	170.287	-0.135	-0.194
-645.741	-55.555	-0.171	0.077
-644.726	25.712	0.091	0.076
-643.711	800.000	-0.020	0.083
-642.697	800.000	0.061	0.267
-641.682	71.499	-0.233	0.243
-640.668	-125.361	-0.585	0.089
-639.653	422.598	0.081	-0.174
-638.638	-50.894	0.260	-0.122
-637.624	800.000	-0.134	-0.548
-636.609	180.055	0.036	0.053
-635.595	-18.823	-0.060	0.038
-634.580	-200.000	0.033	-0.455
-633.565	800.000	-0.055	-0.226
-632.551	32.145	0.237	-0.204
-631.536	229.879	0.118	0.193
-630.522	-2.127	0.323	-0.227
-629.507	-93.405	0.009	-0.002
-628.492	-146.138	-0.294	-0.026
-627.478	-116.288	-0.224	0.042
-626.463	-8.912	0.139	0.093
-625.449	-200.000	-0.016	-0.226
-624.434	135.637	0.192	0.250
-623.419	-165.477	0.203	-0.009
-622.405	707.850	-0.132	0.349
-621.390	-185.020	0.299	-0.005
-620.376	7.595	0.192	0.144
-619.361	-90.435	0.203	0.059
-618.346	233.039	0.108	-0.178
-617.332	-200.000	-0.035	0.183
-616.317	129.522	-0.056	-0.072
-615.303	-27.719	0.151	0.088
-614.288	-176.173	0.213	-0.006
-613.273	-10.511	0.144	0.096
-612.259	-168.080	0.155	-0.006
-611.244	193.969	0.239	0.363
-610.230	-54.461	-0.343	0.156
-609.215	638.615	0.117	0.298
-608.201	-2.059	0.204	-0.144
-607.186	-200.000	0.002	-0.392
-606.171	800.000	0.100	0.298
-605.157	-0.650	-0.251	0.178
-604.142	194.111	0.338	-0.513
-603.128	28.005	-0.119	0.100
-602.113	-200.000	-0.006	-0.054
-601.098	412.300	0.034	-0.073
-600.084	-200.000	-0.065	0.324
-599.069	-102.338	0.282	-0.068
-598.055	-200.000	0.042	-0.270
-597.040	800.000	-0.097	0.283
-596.025	800.000	-0.036	0.144
-595.011	-0.978	-0.091	0.064
-593.996	-152.307	-0.215	-0.016
-592.982	-84.659	-0.172	0.054
-591.967	504.437	0.066	0.152
-590.952	692.600	-0.098	0.258
-589.938	-89.340	-0.435	-0.128
-588.923	747.097	-0.063	0.170
-587.909	22.603	-0.087	0.071
-586.894	-107.774	0.137	-0.030
-585.879	201.595	-0.043	-0.066
-584.865	-137.998	0.314	-0.035
-583.850	-39.649	0.085	-0.045
-582.836	-52.985	0.033	-0.015
-581.821	800.000	0.080	-0.284
-580.806	-124.596	-0.315	-0.049
-579.792	118.393	-0.246	-0.303
-578.777	7.869	0.328	0.246
-577.763	435.538	-0.057	-0.124
-576.748	401.301	0.116	0.244
-575.733	-200.000	0.044	0.228
-574.719	-200.000	-0.011	0.368
-573.704	-67.572	0.200	-0.078
-572.690	-33.228	0.196	0.109
-571.675	-66.021	-0.226	0.090
-570.661	172.579	0.081	-0.116
-569.646	800.000	0.018	0.075
-568.631	-103.090	-0.229	-0.054
-567.617	-56.054	0.297	0.132
-566.602	237.435	-0.080	0.132
-565.588	800.000	-0.071	-0.233
-564.573	800.000	0.092	0.339
-563.558	-200.000	0.036	-0.265
-562.544	31.963	-0.085	0.073
-561.529	692.340	-0.012	-0.032
-560.515	-8.395	-0.483	-0.325
-559.500	85.568	-0.243	-0.267
-558.485	58.414	-0.155	0.152
-557.471	170.967	-0.126	-0.180
-556.456	-200.000	-0.004	-0.363
-555.442	256.273	-0.152	0.261
-554.427	26.859	-0.280	-0.235
-553.412	-83.290	0.317	-0.102
-552.398	-46.284	0.109	-0.053
-551.383	-127.683	0.220	0.032
-550.369	362.830	0.068	0.137
-549.354	110.973	0.136	0.163
-548.339	-65.595	-0.359	-0.144
-547.325	-200.000	-0.023	0.257
-546.310	-68.456	-0.267	-0.103
-545.296	97.038	0.110	-0.126
-544.281	800.000	-0.036	0.104
-543.266	134.419	-0.099	-0.129
-542.252	37.648	0.092	-0.082
-541.237	800.000	-0.096	-0.291
-540.223	-154.679	-0.096	-0.006
-539.208	-86.499	-0.313	-0.096
-538.193	-200.000	0.042	0.289
-537.179	-65.591	0.272	-0.109
-536.164	46.295	-0.267	-0.247
-535.150	800.000	-0.063	0.254
-534.135	-200.000	0.006	-0.164
-533.121	-44.983	-0.016	-0.008
-532.106	800.000	-0.050	0.197
-531.091	-61.233	-0.291	-0.122
-530.077	-20.820	0.209	-0.128
-529.062	-21.411	0.247	-0.150
-528.048	164.597	-0.146	-0.206
-527.033	-200.000	0.034	-0.366
-526.018	-93.765	0.278	0.077
-525.004	-28.208	0.323	-0.186
-523.989	-200.000	-0.073	-0.340
-522.975	-162.193	-0.184	-0.009
-521.960	-83.519	0.379	-0.121
-520.945	-177.556	-0.188	-0.005
-519.931	9.658	0.210	0.158
-518.916	33.683	0.043	-0.037
-517.902	363.191	0.175	-0.351
-516.887	-66.861	0.456	-0.180
-515.872	-52.283	0.263	-0.122
-514.858	-200.000	0.013	-0.210
-513.843	-125.169	0.348	-0.053
-512.829	16.903	0.059	0.047
-511.814	-52.574	-0.215	-0.099
-510.799	-200.000	-0.019	-0.277
-509.785	87.076	-0.155	0.171
-508.770	-200.000	0.026	0.315
-507.756	412.773	-0.166	0.351
-506.741	781.494	-0.106	0.290
-505.726	-200.000	-0.006	-0.037
-504.712	-166.371	0.169	-0.007
-503.697	46.542	-0.215	-0.199
-502.683	-148.472	-0.363	-0.030
-501.668	-140.321	0.160	0.017
-500.653	-46.871	-0.260	0.127
-499.639	451.903	-0.091	0.201
-498.624	-101.664	0.213	-0.052
-497.610	169.801	-0.115	0.165
-496.595	-142.236	0.319	-0.031
-495.581	66.773	0.036	-0.036
-494.566	-200.000	0.002	0.113
-493.551	800.000	-0.151	-0.436
-492.537	-90.361	-0.241	0.070
-491.522	-200.000	-0.030	0.306
-490.508	-34.083	-0.061	-0.033
-489.493	314.035	0.150	0.281
-488.478	63.132	-0.042	-0.042
-487.464	-200.000	0.052	-0.308
-486.449	-145.747	0.143	-0.013
-485.435	622.479	-0.114	0.285
-484.420	-134.302	0.419	-0.051
-483.405	-200.000	0.007	-0.081
-482.391	-94.929	-0.239	-0.065
-481.376	-200.000	0.004	0.227
-480.362	41.655	-0.123	-0.111
-479.347	-82.820	-0.159	-0.051
-478.332	-200.000	0.008	0.063
-477.318	-194.428	-0.265	0.002
-476.303	800.000	0.051	-0.178
-475.289	800.000	-0.047	-0.167
-474.274	41.073	-0.280	-0.252
-473.259	-139.964	-0.264	-0.028
-472.245	-119.120	0.373	-0.065
-471.230	164.640	0.105	-0.148
-470.216	-200.000	0.112	0.508
-469.201	-81.202	0.128	0.042
-468.186	258.510	0.018	0.031
-467.172	-200.000	-0.032	0.217
-466.157	13.340	-0.352	-0.272
-465.143	-137.727	-0.067	-0.008
-464.128	364.964	-0.056	0.112
-463.113	-200.000	-0.015	-0.282
-462.099	-200.000	-0.005	-0.191
-461.084	90.810	0.339	-0.378
-460.070	-76.497	0.158	-0.055
-459.055	-60.994	-0.140	0.059
-458.040	800.000	0.077	-0.332
-457.026	-69.592	0.477	0.182
-456.011	-102.051	-0.348	0.083
-454.997	197.668	0.140	0.213
-453.982	8.603	-0.211	-0.158
-452.968	454.325	0.170	-0.375
-451.953	467.599	0.135	0.301
-450.938	116.786	-0.237	-0.290
-449.924	21.699	-0.032	0.026
-448.909	397.618	0.049	0.103
-447.895	426.284	-0.068	0.147
-446.880	-136.208	0.310	-0.036
-445.865	-113.842	0.743	-0.144
-444.851	11.277	0.148	0.113
-443.836	94.947	0.109	0.124
-442.822	-70.659	0.319	-0.120
-441.807	270.124	0.093	0.162
-440.792	-64.417	-0.138	0.056
-439.778	-93.987	0.183	-0.050
-438.763	800.000	0.098	-0.281
-437.749	-200.000	-0.027	0.242
-436.734	606.810	-0.092	-0.229
-435.719	-200.000	-0.002	0.175
-434.705	-108.113	-0.310	0.067
-433.690	-155.164	-0.299	-0.019
-432.676	29.511	-0.020	0.017
-431.661	9.314	-0.117	-0.088
-430.646	368.679	-0.111	-0.222
-429.632	-200.000	0.027	0.313
-428.617	-200.000	-0.022	-0.202
-427.603	588.214	-0.153	0.375
-426.588	-200.000	-0.002	-0.033
-425.573	800.000	0.050	0.169
-424.559	-56.164	0.316	0.140
-423.544	-200.000	0.021	-0.173
-422.530	-62.502	0.241	0.100
-421.515	31.090	0.237	0.202
-420.500	124.148	-0.193	-0.241
-419.486	229.435	0.100	0.162
-418.471	-200.000	0.072	0.411
-417.457	31.817	0.174	0.149
-416.442	-14.203	-0.097	0.062
-415.428	-58.764	-0.139	-0.060
-414.413	-131.586	0.263	0.034
-413.398	-74.603	-0.115	0.041
-412.384	-193.040	0.372	0.003
-411.369	331.063	0.061	-0.116
-410.355	-62.352	-0.254	0.105
-409.340	244.469	0.058	0.096
-408.325	-200.000	0.050	0.277
-407.311	154.427	-0.040	0.055
-406.296	-200.000	-0.016	0.225
-405.282	-103.987	0.411	-0.095
-404.267	-200.000	-0.010	-0.152
-403.252	731.764	0.122	-0.323
-402.238	226.799	-0.197	-0.318
-401.223	-145.738	0.153	0.014
-400.209	-95.720	-0.068	0.018
-399.194	219.987	-0.166	0.263
-398.179	-200.000	0.041	-0.323
-397.165	-8.174	0.227	-0.152
-396.150	-200.000	0.016	0.124
-395.136	-81.918	0.140	0.046
-394.121	106.262	-0.150	-0.176
-393.106	800.000	-0.058	0.217
-392.092	-9.768	0.113	0.075
-391.077	800.000	0.064	0.220
-390.063	-39.422	-0.317	0.165
-389.048	-158.203	-0.338	0.020
-388.033	800.000	-0.097	-0.333
-387.019	-75.676	0.113	-0.040
-386.004	-21.141	-0.135	-0.082
-384.990	60.954	-0.187	0.184
-383.975	-81.909	-0.078	-0.025
-382.960	176.214	0.178	-0.257
-381.946	123.353	0.151	-0.188
-380.931	-19.503	0.215	-0.132
-379.917	55.187	0.285	0.273
-378.902	-8.431	-0.206	-0.137
-377.888	-200.000	0.066	-0.309
-376.873	472.101	-0.103	0.231
-375.858	-114.876	-0.311	0.059
-374.844	-91.139	0.058	0.017
-373.829	-200.000	0.009	-0.077
-372.815	-38.227	0.094	0.049
-371.800	103.022	-0.210	0.244
-370.785	-200.000	0.005	0.025
-369.771	-62.820	-0.358	-0.147
-368.756	-73.096	-0.128	-0.047
-367.742	-200.000	-0.014	0.106
-366.727	200.175	0.154	-0.234
-365.712	136.500	-0.167	0.217
-364.698	-124.823	-0.214	0.033
-363.683	272.872	-0.044	-0.077
-362.669	-97.948	0.085	-0.022
-361.654	-2.190	-0.219	0.153
-360.639	-200.000	-0.037	0.450
-359.625	800.000	0.093	0.273
-358.610	616.605	-0.080	-0.200
-357.596	-41.205	0.267	-0.137
-356.581	-71.915	-0.198	0.073
-355.566	297.682	0.015	-0.027
-354.552	-31.733	-0.148	0.082
-353.537	184.968	-0.040	0.058
-352.523	-200.000	0.042	0.265
-351.508	800.000	0.091	0.262
-350.493	-140.627	-0.151	-0.016
-349.479	-200.000	-0.001	-0.140
-348.464	153.302	0.203	-0.276
-347.450	-65.208	0.102	0.041
-346.435	-37.510	-0.270	-0.143
-345.420	-134.511	0.125	0.015
-344.406	181.745	-0.282	-0.412
-343.391	47.135	-0.105	-0.097
-342.377	182.427	0.036	0.052
-341.362	-200.000	-0.040	0.249
-340.348	145.087	-0.135	0.178
-339.333	129.459	0.282	-0.357
-338.318	-49.740	0.103	-0.048
-337.304	-200.000	0.018	0.275
-336.289	-43.704	0.017	-0.008
-335.275	668.295	0.015	0.038
-334.260	-141.327	0.193	-0.019
-333.245	346.051	-0.065	-0.126
-332.231	484.854	0.009	-0.021
-331.216	-4.076	-0.125	-0.085
-330.202	-62.139	-0.053	0.022
-329.187	15.675	-0.083	0.064
-328.172	-133.531	-0.170	-0.021
-327.158	46.055	0.320	-0.294
-326.143	-97.896	-0.377	-0.096
-325.129	-101.157	0.131	0.032
-324.114	800.000	0.035	-0.098
-323.099	-56.570	0.249	-0.109
-322.085	-161.088	0.154	-0.008
-321.070	-200.000	-0.024	-0.295
-320.056	-200.000	0.007	-0.176
-319.041	308.961	0.137	0.254
-318.026	-105.750	-0.386	0.086
-317.012	-53.542	0.080	0.036
-315.997	258.293	0.131	-0.224
-314.983	-12.693	0.047	-0.030
-313.968	-15.555	-0.263	0.166
-312.953	620.416	-0.116	-0.289
-311.939	266.054	-0.018	0.031
-310.924	-39.011	0.193	-0.100
-309.910	-11.328	-0.452	-0.295
-308.895	-119.202	0.358	-0.062
-307.880	73.289	0.090	0.094
-306.866	44.541	-0.290	-0.264
-305.851	-73.726	0.249	-0.090
-304.837	-200.000	0.048	-0.369
-303.822	57.853	0.261	-0.253
-302.807	-73.763	-0.245	-0.088
-301.793	-200.000	0.062	0.423
-300.778	-200.000	-0.006	0.047
-299.764	-77.877	-0.179	0.061
-298.749	-108.887	0.108	0.023
-297.735	-200.000	-0.017	-0.311
-296.720	31.665	-0.115	-0.098
-295.705	-119.101	0.273	0.047
-294.691	-130.910	-0.078	-0.010
-293.676	761.734	0.034	-0.092
-292.662	-118.782	0.100	-0.017
-291.647	800.000	-0.042	-0.117
-290.632	421.407	0.062	0.132
-289.618	777.710	0.011	0.028
-288.603	-73.749	-0.431	0.155
-287.589	-152.445	0.196	-0.014
-286.574	37.325	0.175	0.153
-285.559	-80.896	-0.035	-0.012
-284.545	800.000	-0.012	-0.051
-283.530	-200.000	-0.029	0.418
-282.516	20.121	-0.236	-0.188
-281.501	655.175	-0.117	0.298
-280.486	131.267	-0.139	0.176
-279.472	-43.029	0.204	0.102
-278.457	215.505	0.199	-0.313
-277.443	-200.000	-0.007	-0.059
-276.428	-177.703	-0.091	-0.002
-275.413	-185.448	-0.371	-0.006
-274.399	-76.826	0.179	-0.062
-273.384	40.733	0.013	0.012
-272.370	123.977	0.172	0.214
-271.355	457.444	0.041	-0.089
-270.340	-141.692	-0.359	0.036
-269.326	285.126	-0.129	-0.230
-268.311	-156.840	-0.045	0.003
-267.297	76.484	-0.101	0.105
-266.282	-200.000	0.044	0.194
-265.267	-159.966	-0.331	0.018
-264.253	-200.000	-0.032	-0.299
-263.238	133.425	0.355	0.454
-262.224	-4.624	0.153	0.104
-261.209	55.464	-0.098	0.094
-260.195	-133.949	-0.066	-0.008
-259.180	-4.089	-0.274	0.187
-258.165	-113.033	-0.403	-0.079
-257.151	69.490	0.238	-0.242
-256.136	-200.000	0.032	-0.250
-255.122	173.208	-0.136	0.194
-254.107	7.395	0.137	0.101
-253.092	-173.528	0.366	0.011
-252.078	103.610	0.176	-0.204
-251.063	-122.660	-0.035	-0.006
-250.049	252.605	-0.256	0.431
-249.034	291.622	-0.058	-0.105
-248.019	-53.024	0.156	0.071
-247.005	-100.133	0.200	0.049
-245.990	-153.101	-0.161	0.011
-244.976	53.322	-0.355	0.336
-243.961	58.728	-0.042	0.040
-242.946	-200.000	-0.039	0.293
-241.932	-200.000	0.022	-0.338
-240.917	3.925	0.337	0.243
-239.903	19.038	-0.106	0.084
-238.888	-118.346	0.321	-0.056
-237.873	119.045	0.137	0.167
-236.859	8.500	-0.322	-0.239
-235.844	42.961	0.333	0.300
-234.830	182.339	0.238	-0.346
-233.815	-200.000	-0.080	0.512
-232.800	-133.044	-0.120	0.015
-231.786	-48.963	-0.202	-0.095
-230.771	385.119	-0.086	0.174
-229.757	59.682	0.109	-0.106
-228.742	-200.000	0.006	-0.104
-227.727	-6.940	0.207	-0.139
-226.713	800.000	-0.057	0.175
-225.698	232.119	-0.103	0.167
-224.684	800.000	0.054	-0.170
-223.669	-200.000	0.029	0.135
-222.655	74.662	0.190	-0.197
-221.640	336.743	-0.139	0.267
-220.625	416.269	0.188	0.396
-219.611	-7.440	-0.033	-0.022
-218.596	-53.332	-0.252	-0.114
-217.582	-9.598	0.170	0.112
-216.567	-170.234	-0.125	0.004
-215.552	584.695	0.058	0.141
-214.538	381.469	0.117	-0.237
-213.523	-97.916	0.212	-0.054
-212.509	-200.000	-0.042	-0.310
-211.494	3.133	-0.109	-0.078
-210.479	-63.876	-0.308	0.124
-209.465	800.000	-0.115	0.349
-208.450	-1.803	0.086	0.060
-207.436	-90.575	-0.375	0.107
-206.421	-200.000	0.008	0.201
-205.406	167.057	0.138	-0.193
-204.392	306.187	-0.032	0.059
-203.377	22.028	0.343	-0.276
-202.363	1.198	-0.249	-0.176
-201.348	-123.146	-0.160	0.025
-200.333	251.394	-0.102	0.171
-199.319	430.233	-0.015	0.033
-198.304	180.040	0.162	0.233
-197.290	-130.730	-0.061	0.008
-196.275	496.047	0.083	0.188
-195.260	511.067	-0.112	0.257
-194.246	16.921	0.161	-0.125
-193.231	-88.752	0.153	0.045
-192.217	-83.736	-0.168	0.053
-191.202	-177.225	-0.405	-0.010
-190.187	-25.403	0.374	-0.218
-189.173	-200.000	0.034	0.180
-188.158	-36.146	-0.255	0.135
-187.144	594.303	0.046	-0.111
-186.129	800.000	-0.092	-0.385
-185.114	-200.000	-0.083	0.450
-184.100	-46.696	-0.029	0.014
-183.085	105.917	-0.075	-0.088
-182.071	28.669	0.111	-0.093
-181.056	-26.237	-0.167	0.096
-180.042	-100.234	0.382	-0.093
-179.027	13.572	0.205	-0.157
-178.012	-79.320	-0.053	-0.018
-176.998	800.000	0.116	-0.341
-175.983	97.574	0.181	-0.205
-174.969	800.000	-0.025	0.100
-173.954	-36.034	0.055	-0.029
-172.939	-200.000	-0.011	-0.077
-171.925	57.129	0.344	0.330
-170.910	-66.776	-0.153	0.060
-169.896	800.000	0.066	0.252
-168.881	-134.316	0.300	0.036
-167.866	-62.000	-0.279	-0.115
-166.852	57.788	0.098	-0.094
-165.837	63.439	-0.214	-0.212
-164.823	-200.000	0.011	-0.273
-163.808	-92.737	0.129	-0.035
-162.793	-200.000	0.017	0.147
-161.779	-96.846	-0.051	0.013
-160.764	-58.022	0.216	0.093
-159.750	-135.167	-0.447	-0.053
-158.735	-131.953	0.224	0.029
-157.720	-108.606	-0.158	0.033
-156.706	-87.994	-0.163	-0.048
-155.691	-63.037	-0.040	-0.016
-154.677	-186.908	-0.225	-0.003
-153.662	800.000	-0.079	0.298
-152.647	42.487	-0.205	-0.183
-151.633	-200.000	-0.060	0.260
-150.618	52.648	0.159	-0.149
-149.604	800.000	-0.041	0.158
-148.589	-146.595	0.158	-0.013
-147.574	40.552	-0.139	0.123
-146.560	-65.810	0.463	0.182
-145.545	-200.000	0.002	0.187
-144.531	519.071	0.045	-0.103
-143.516	-26.178	-0.187	0.108
-142.502	-1.930	-0.113	0.078
-141.487	-109.900	-0.158	-0.033
-140.472	800.000	-0.106	0.451
-139.458	800.000	0.057	-0.179
-138.443	800.000	0.134	0.531
-137.429	343.694	-0.166	-0.319
-136.414	800.000	0.094	-0.324
-135.399	-200.000	-0.038	0.223
-134.385	-200.000	-0.017	0.130
-133.370	31.725	0.148	0.125
-132.356	-82.967	-0.045	0.014
-131.341	84.977	-0.194	0.209
-130.326	154.004	-0.128	0.172
-129.312	399.721	-0.013	-0.027
-128.297	251.318	0.180	-0.301
-127.283	-200.000	0.003	-0.250
-126.268	15.527	0.228	0.176
-125.253	-106.768	0.382	-0.083
-124.239	415.011	0.193	-0.404
-123.224	551.233	0.099	0.233
-122.210	-200.000	-0.021	0.229
-121.195	-28.263	0.346	-0.196
-120.180	-200.000	-0.039	-0.291
-119.166	-107.510	0.266	-0.057
-118.151	-200.000	0.012	-0.142
-117.137	-200.000	0.018	0.144
-116.122	-200.000	-0.011	0.141
-115.107	40.493	-0.181	-0.160
-114.093	67.326	-0.115	0.115
-113.078	743.871	-0.134	-0.354
-112.064	-200.000	-0.015	-0.078
-111.049	-38.210	-0.232	-0.121
-110.034	-94.572	0.264	-0.070
-109.020	-124.012	0.082	0.013
-108.005	144.139	0.251	-0.329
-106.991	800.000	-0.036	0.140
-105.976	-79.506	-0.121	0.040
-104.962	-22.855	-0.113	0.067
-103.947	465.503	-0.043	0.096
-102.932	12.269	-0.291	-0.220
-101.918	282.698	0.069	0.122
-100.903	-74.802	0.222	-0.078
-99.889	800.000	0.055	-0.164
-98.874	305.072	-0.024	-0.044
-97.859	-140.723	0.098	0.010
-96.845	434.563	0.136	0.290
-95.830	-200.000	-0.045	-0.216
-94.816	800.000	-0.149	-0.542
-93.801	303.223	0.179	-0.326
-92.786	605.620	-0.080	0.196
-91.772	-200.000	0.053	0.255
-90.757	-200.000	0.024	0.221
-89.743	403.430	0.063	-0.129
-88.728	-117.581	-0.071	0.013
-87.713	-1.487	0.422	-0.292
-86.699	-123.788	0.215	-0.033
-85.684	21.807	-0.254	-0.203
-84.670	44.502	0.162	-0.146
-83.655	14.869	0.063	0.048
-82.640	173.992	-0.284	-0.402
-81.626	109.346	0.292	-0.343
-80.611	-200.000	0.028	0.293
-79.597	146.504	0.096	0.126
-78.582	-66.063	0.368	-0.144
-77.567	53.005	0.086	-0.080
-76.553	-93.912	0.377	-0.102
-75.538	-17.396	0.227	0.140
-74.524	-37.206	-0.143	-0.075
-73.509	800.000	-0.052	0.222
-72.494	54.658	0.322	-0.304
-71.480	800.000	-0.121	-0.352
-70.465	33.000	-0.094	0.080
-69.451	-52.889	0.330	0.149
-68.436	68.316	0.069	-0.069
-67.422	-70.195	-0.305	-0.114
-66.407	518.401	0.041	0.093
-65.392	-24.748	-0.119	-0.069
-64.378	190.772	0.186	0.275
-63.363	182.335	0.222	-0.321
-62.349	-23.481	-0.002	0.001
-61.334	108.663	-0.963	-1.128
-60.319	-37.726	0.517	0.270
-59.305	766.855	-0.253	-0.673
-58.290	212.567	0.786	1.215
-57.276	800.000	0.471	1.475
-56.261	-200.000	97.405	609.136
-55.246	615.461	1396.873	3431.114
-54.232	192.892	2596.573	3843.831
-53.217	111.565	2273.698	2687.369
-52.203	41.283	1894.255	1678.057
-51.188	34.970	1682.904	1443.334
-50.173	32.276	1638.925	1385.737
-49.159	49.808	1686.940	1557.789
-48.144	51.497	1702.374	1584.593
-47.130	34.557	1662.934	1422.906
-46.115	31.697	1648.694	1389.481
-45.100	31.713	1643.365	1385.054
-44.086	31.612	1640.874	1382.155
-43.071	31.543	1638.743	1379.796
-42.057	31.474	1636.341	1377.210
-41.042	31.573	1634.124	1376.015
-40.027	31.557	1632.394	1374.390
-39.013	31.585	1630.333	1372.802
-37.998	31.458	1629.246	1370.904
-36.984	31.519	1627.591	1369.903
-35.969	31.646	1625.749	1369.224
-34.954	31.695	1624.103	1368.146
-33.940	31.678	1622.610	1366.710
-32.925	31.690	1620.686	1365.124
-31.911	31.653	1619.025	1363.401
-30.896	31.715	1616.950	1362.051
-29.881	31.660	1615.411	1360.300
-28.867	31.693	1613.710	1359.048
-27.852	31.634	1612.670	1357.696
-26.838	31.664	1610.763	1356.253
-25.823	31.698	1609.577	1355.442
-24.809	31.747	1608.277	1354.651
-23.794	31.703	1606.569	1352.841
-22.779	31.704	1605.245	1351.680
-21.765	31.635	1604.131	1350.190
-20.750	31.610	1602.492	1348.579
-19.736	31.708	1600.668	1347.691
-18.721	31.788	1599.050	1346.852
-17.706	31.576	1597.938	1344.341
-16.692	31.699	1596.291	1343.786
-15.677	31.745	1594.922	1342.907
-14.663	31.716	1593.614	1341.544
-13.648	31.707	1592.516	1340.504
-12.633	31.698	1590.641	1338.807
-11.619	31.824	1588.928	1338.213
-10.604	31.706	1587.479	1336.097
-9.590	31.719	1586.321	1335.161
-8.575	31.694	1584.903	1333.737
-7.560	31.696	1584.262	1333.156
-6.546	31.678	1582.531	1331.520
-5.531	31.743	1581.353	1330.941
-4.517	31.727	1580.336	1329.919
-3.502	31.654	1579.786	1328.882
-2.487	31.769	1577.468	1327.697
-1.473	31.388	1565.829	1315.167
-0.458	28.425	1546.094	1277.914
0.556	22.450	1546.341	1244.917
1.571	20.029	1569.725	1246.236
2.586	19.664	1582.896	1253.934
3.600	17.586	1531.024	1198.134
4.615	9.372	1421.865	1058.745
5.629	1.368	1356.796	959.774
6.644	-0.210	1348.664	944.021
7.659	-0.332	1347.434	942.310
8.673	-0.348	1346.103	941.194
9.688	-0.390	1344.079	939.435
10.702	-0.544	1340.899	936.168
11.717	2.363	1347.224	958.733
12.731	11.425	1364.114	1027.970
13.746	18.509	1375.979	1081.674
14.761	19.897	1377.333	1091.402
15.775	19.972	1377.365	1091.801
16.790	20.048	1376.478	1091.484
17.804	20.108	1375.851	1091.266
18.819	20.366	1375.542	1092.546
19.834	20.284	1375.432	1091.851
20.848	20.410	1373.998	1091.408
21.863	20.458	1373.038	1090.848
22.877	20.536	1372.231	1090.602
23.892	20.496	1371.285	1089.499
24.907	20.348	1371.051	1088.293
25.921	20.329	1370.189	1087.388
26.936	20.512	1368.717	1087.274
27.950	20.380	1368.150	1085.900
28.965	20.416	1366.590	1084.790
29.980	20.554	1365.145	1084.407
30.994	20.398	1364.505	1082.830
32.009	20.444	1363.630	1082.324
33.023	20.466	1361.704	1080.839
34.038	20.341	1361.040	1079.442
35.053	20.462	1359.718	1079.050
36.067	20.541	1358.234	1078.264
37.082	20.363	1357.780	1076.705
38.096	20.503	1356.576	1076.519
39.111	20.524	1355.814	1075.953
40.126	20.533	1355.087	1075.338
41.140	20.456	1354.834	1074.565
42.155	20.490	1354.525	1074.433
43.169	20.506	1354.228	1074.204
44.184	20.454	1353.901	1073.524
45.199	20.413	1353.922	1073.195
46.213	20.443	1352.862	1072.442
47.228	20.423	1351.938	1071.490
48.242	20.491	1350.889	1070.986
49.257	20.430	1349.559	1069.462
50.271	20.451	1347.893	1068.173
51.286	20.411	1346.730	1066.913
52.301	20.486	1345.482	1066.290
53.315	20.537	1344.346	1065.611
54.330	20.437	1343.926	1064.567
55.344	20.491	1342.531	1063.701
56.359	20.458	1341.513	1062.599
57.374	20.320	1341.199	1061.412
58.388	20.472	1339.777	1061.118
59.403	20.502	1339.407	1060.917
60.417	20.468	1338.841	1060.168
61.432	20.407	1337.936	1058.982
62.447	20.523	1336.772	1058.675
63.461	20.463	1335.918	1057.541
64.476	20.403	1334.930	1056.302
65.490	20.497	1333.847	1055.918
66.505	20.465	1332.178	1054.312
67.520	20.482	1331.111	1053.476
68.534	20.491	1330.248	1052.757
69.549	20.427	1329.165	1051.418
70.563	20.409	1328.287	1050.522
71.578	20.464	1327.310	1049.987
72.593	20.487	1326.526	1049.416
73.607	20.418	1325.851	1048.371
74.622	20.494	1324.671	1047.800
75.636	20.515	1324.143	1047.417
76.651	20.535	1323.731	1047.119
77.666	20.456	1323.116	1046.067
78.680	20.455	1322.588	1045.551
79.695	20.435	1321.812	1044.726
80.709	20.521	1320.964	1044.480
81.724	20.393	1319.956	1042.820
82.739	20.417	1318.841	1041.990
83.753	20.468	1318.439	1041.885
84.768	20.528	1316.533	1040.650
85.782	20.486	1315.883	1039.790
86.797	20.471	1314.412	1038.447
87.812	20.476	1313.473	1037.642
88.826	20.412	1312.836	1036.666
89.841	20.562	1311.149	1036.139
90.855	20.499	1310.173	1034.895
91.870	20.579	1308.855	1034.240
92.884	20.440	1308.873	1033.339
93.899	20.559	1307.590	1032.942
94.914	20.562	1306.398	1031.926
95.928	20.499	1306.192	1031.299
96.943	20.564	1305.547	1031.080
97.957	20.572	1304.723	1030.388
98.972	20.534	1303.967	1029.473
99.987	20.689	1302.094	1028.820
101.001	20.566	1301.539	1027.563
102.016	20.532	1300.580	1026.514
103.030	20.612	1299.789	1026.274
104.045	20.578	1299.095	1025.435
105.060	20.658	1297.573	1024.610
106.074	20.610	1296.370	1023.291
107.089	20.571	1295.876	1022.578
108.103	20.567	1294.490	1021.372
109.118	20.566	1293.450	1020.453
110.133	20.498	1292.424	1019.155
111.147	20.644	1290.681	1018.547
112.162	20.567	1289.708	1017.237
113.176	20.595	1289.061	1016.805
114.191	20.583	1287.932	1015.754
115.206	20.692	1286.091	1014.842
116.220	20.712	1285.130	1014.115
117.235	20.610	1284.372	1012.834
118.249	20.620	1283.539	1012.144
119.264	20.632	1282.612	1011.391
120.279	20.558	1282.086	1010.460
121.293	20.693	1280.734	1010.085
122.308	20.568	1280.148	1008.811
123.322	20.705	1278.757	1008.416
124.337	20.701	1277.752	1007.514
125.352	20.712	1277.016	1006.907
126.366	20.673	1276.176	1005.930
127.381	20.747	1275.219	1005.518
128.395	20.711	1274.115	1004.346
129.410	20.594	1273.137	1002.816
130.424	20.637	1272.770	1002.684
131.439	20.667	1271.548	1001.806
132.454	20.697	1270.661	1001.191
133.468	20.618	1270.043	1000.162
134.483	20.632	1269.679	999.867
135.497	20.630	1268.517	998.850
136.512	20.616	1267.232	997.669
137.527	20.690	1266.156	997.159
138.541	20.722	1264.448	995.908
139.556	20.667	1262.965	994.339
140.570	20.678	1261.835	993.424
141.585	20.607	1261.290	992.503
142.600	20.650	1260.284	991.868
143.614	20.556	1259.884	990.926
144.629	20.649	1258.091	989.963
145.643	20.525	1257.186	988.454
146.658	20.527	1256.060	987.492
147.673	20.587	1254.856	986.799
148.687	20.605	1254.093	986.217
149.702	20.581	1252.862	985.021
150.716	20.647	1251.697	984.394
151.731	20.674	1250.472	983.496
152.746	20.574	1250.036	982.500
153.760	20.689	1248.452	981.819
154.775	20.725	1247.658	981.312
155.789	20.673	1246.612	980.109
156.804	20.706	1245.551	979.374
157.819	20.632	1245.090	978.506
158.833	20.724	1243.650	977.807
159.848	20.780	1243.150	977.640
160.862	20.749	1242.314	976.726
161.877	20.723	1241.501	975.853
162.892	20.736	1240.649	975.168
163.906	20.838	1239.732	974.933
164.921	20.767	1239.200	974.030
165.935	20.760	1238.346	973.235
166.950	20.719	1237.767	972.461
167.964	20.799	1236.813	972.077
168.979	20.835	1236.587	972.011
169.994	20.904	1235.653	971.574
171.008	20.821	1234.985	970.501
172.023	20.694	1234.683	969.473
173.037	20.795	1233.700	969.177
174.052	20.882	1233.072	969.079
175.067	20.778	1231.893	967.490
176.081	20.792	1231.260	966.985
177.096	20.765	1230.478	966.134
178.110	20.772	1229.710	965.487
179.125	20.815	1228.436	964.642
180.140	20.848	1227.528	964.024
181.154	20.816	1226.476	962.936
182.169	20.784	1225.387	961.819
183.183	20.870	1223.913	961.049
184.198	20.731	1223.645	959.986
185.213	20.899	1222.373	959.829
186.227	20.863	1221.587	958.933
187.242	20.842	1220.649	957.997
188.256	20.840	1219.881	957.296
189.271	20.779	1219.247	956.378
190.286	20.849	1218.548	956.128
191.300	20.830	1217.876	955.414
192.315	20.778	1217.396	954.666
193.329	20.764	1217.032	954.222
194.344	20.849	1216.508	954.189
195.359	20.911	1215.484	953.640
196.373	20.857	1215.205	953.045
197.388	20.670	1215.501	952.170
198.402	20.704	1215.013	951.886
199.417	20.826	1213.955	951.644
200.432	20.949	1212.974	951.462
201.446	20.921	1212.656	950.973
202.461	20.941	1211.575	950.150
203.475	20.895	1210.974	949.343
204.490	20.848	1210.265	948.446
205.504	20.826	1209.144	947.366
206.519	20.811	1208.431	946.645
207.534	20.919	1206.851	945.905
208.548	20.889	1206.244	945.185
209.563	20.906	1205.384	944.521
210.577	20.870	1204.622	943.643
211.592	20.986	1203.921	943.638
212.607	20.918	1202.843	942.345
213.621	20.940	1202.409	942.041
214.636	20.974	1201.670	941.560
215.650	21.072	1200.769	941.299
216.665	20.930	1199.906	939.773
217.680	20.998	1198.255	938.766
218.694	20.963	1198.000	938.291
219.709	20.979	1197.433	937.852
220.723	20.977	1196.954	937.385
221.738	21.035	1195.910	936.796
222.753	20.939	1195.496	935.872
223.767	20.992	1195.010	935.693
224.782	21.134	1194.082	935.645
225.796	20.988	1193.748	934.516
226.811	21.114	1192.969	934.499
227.826	21.047	1192.637	933.799
228.840	21.144	1191.340	933.217
229.855	21.158	1190.910	932.877
230.869	20.978	1190.327	931.372
231.884	21.056	1189.507	931.065
232.899	21.140	1188.873	930.934
233.913	21.003	1188.848	930.101
234.928	21.102	1187.978	929.866
235.942	21.203	1187.419	929.886
236.957	21.105	1186.836	928.825
237.972	21.027	1186.232	927.854
238.986	21.093	1185.494	927.546
240.001	21.130	1184.769	927.093
241.015	21.200	1183.960	926.750
242.030	21.235	1183.099	926.183
243.045	21.224	1182.119	925.270
244.059	21.254	1181.462	924.837
245.074	21.225	1180.963	924.208
246.088	21.252	1180.227	923.696
247.103	21.185	1179.085	922.366
248.117	21.248	1178.799	922.394
249.132	21.202	1177.614	921.142
250.147	21.349	1177.038	921.382
251.161	21.313	1176.629	920.792
252.176	21.290	1175.941	920.049
253.190	21.289	1175.149	919.343
254.205	21.287	1174.504	918.750
255.220	21.311	1173.671	918.142
256.234	21.400	1173.130	918.102
257.249	21.266	1172.837	917.090
258.263	21.262	1172.213	916.500
259.278	21.413	1171.441	916.607
260.293	21.315	1171.237	915.854
261.307	21.311	1170.629	915.276
262.322	21.292	1169.978	914.585
263.336	21.381	1169.353	914.480
264.351	21.390	1168.421	913.720
265.366	21.418	1168.184	913.600
266.380	21.436	1167.165	912.818
267.395	21.387	1166.568	912.014
268.409	21.319	1166.386	911.433
269.424	21.253	1165.924	910.648
270.439	21.332	1165.428	910.593
271.453	21.389	1164.559	910.132
272.468	21.454	1163.062	909.218
273.482	21.446	1162.767	908.862
274.497	21.403	1162.460	908.324
275.512	21.540	1161.561	908.249
276.526	21.555	1160.625	907.514
277.541	21.523	1160.192	906.931
278.555	21.570	1159.575	906.611
279.570	21.477	1159.001	905.601
280.585	21.406	1158.466	904.736
281.599	21.393	1157.838	904.100
282.614	21.484	1156.590	903.514
283.628	21.524	1155.719	902.957
284.643	21.597	1154.545	902.338
285.657	21.590	1153.773	901.621
286.672	21.519	1153.147	900.683
287.687	21.580	1152.284	900.245
288.701	21.490	1151.980	899.466
289.716	21.697	1150.712	899.458
290.730	21.712	1150.073	898.957
291.745	21.645	1150.060	898.523
292.760	21.581	1149.701	897.836
293.774	21.720	1148.762	897.733
294.789	21.704	1148.010	896.983
295.803	21.605	1147.271	895.820
296.818	21.618	1146.966	895.569
297.833	21.732	1146.254	895.516
298.847	21.766	1145.163	894.759
299.862	21.775	1144.590	894.280
300.876	21.596	1144.338	893.087
301.891	21.727	1143.863	893.309
302.906	21.786	1142.930	892.799
303.920	21.773	1142.441	892.271
304.935	21.719	1141.738	891.369
305.949	21.665	1141.614	890.918
306.964	21.668	1140.822	890.239
307.979	21.809	1139.680	889.985
308.993	21.848	1138.856	889.461
310.008	21.856	1138.519	889.160
311.022	21.840	1137.327	888.070
312.037	21.902	1136.835	887.917
313.052	21.761	1136.126	886.573
314.066	21.704	1135.127	885.429
315.081	21.854	1134.382	885.527
316.095	21.732	1134.212	884.700
317.110	21.927	1133.194	884.810
318.125	21.943	1133.009	884.668
319.139	21.770	1131.913	882.864
320.154	21.975	1131.531	883.520
321.168	21.905	1131.023	882.690
322.183	21.863	1130.493	881.990
323.197	21.747	1130.069	880.998
324.212	21.954	1129.166	881.252
325.227	21.793	1128.802	880.084
326.241	21.896	1128.522	880.304
327.256	21.928	1127.410	879.517
328.270	21.873	1126.755	878.656
329.285	21.910	1125.895	878.090
330.300	21.936	1125.073	877.502
331.314	22.022	1124.251	877.212
332.329	22.114	1122.996	876.618
333.343	22.079	1122.668	876.106
334.358	21.993	1121.865	874.974
335.373	22.060	1121.307	874.798
336.387	22.039	1120.583	874.049
337.402	22.083	1119.729	873.523
338.416	22.012	1119.474	872.894
339.431	22.047	1118.367	872.129
340.446	22.179	1118.242	872.610
341.460	22.149	1117.256	871.615
342.475	22.116	1116.790	871.009
343.489	22.148	1115.712	870.250
344.504	22.181	1114.815	869.637
345.519	22.289	1113.917	869.395
346.533	21.999	1113.752	867.756
347.548	22.290	1112.451	868.103
348.562	22.206	1111.516	866.882
349.577	22.198	1111.156	866.481
350.592	22.192	1110.149	865.593
351.606	22.142	1110.015	865.163
352.621	22.234	1109.199	864.907
353.635	22.302	1108.490	864.610
354.650	22.294	1107.913	864.045
355.665	22.245	1107.325	863.271
356.679	22.308	1106.596	862.933
357.694	22.376	1106.147	862.839
358.708	22.401	1105.407	862.310
359.723	22.219	1104.914	860.957
360.738	22.165	1104.339	860.168
361.752	22.268	1103.477	859.922
362.767	22.420	1103.010	860.226
363.781	22.364	1102.532	859.504
364.796	22.393	1102.044	859.191
365.810	22.357	1101.696	858.667
366.825	22.271	1101.411	857.950
367.840	22.445	1100.478	857.991
368.854	22.489	1099.389	857.284
369.869	22.460	1098.790	856.597
370.883	22.407	1098.450	855.999
371.898	22.461	1097.725	855.623
372.913	22.433	1097.119	854.939
373.927	22.495	1096.533	854.705
374.942	22.425	1096.248	854.071
375.956	22.397	1095.695	853.426
376.971	22.399	1094.998	852.820
377.986	22.472	1094.714	852.877
379.000	22.591	1094.051	852.861
380.015	22.531	1093.413	851.996
381.029	22.484	1092.652	851.102
382.044	22.616	1091.953	851.120
383.059	22.543	1091.489	850.330
384.073	22.627	1090.650	850.003
385.088	22.595	1089.744	849.071
386.102	22.626	1088.947	848.523
387.117	22.599	1088.180	847.719
388.132	22.621	1086.878	846.735
389.146	22.600	1086.792	846.492
390.161	22.748	1085.706	846.285
391.175	22.601	1085.689	845.491
392.190	22.735	1084.495	845.128
393.205	22.662	1083.945	844.273
394.219	22.760	1083.268	844.140
395.234	22.743	1082.401	843.309
396.248	22.655	1081.458	842.080
397.263	22.758	1080.666	841.878
398.278	22.816	1080.001	841.565
399.292	22.797	1079.435	840.959
400.307	22.798	1078.909	840.478
401.321	22.805	1078.550	840.160
402.336	22.680	1077.654	838.790
403.350	22.864	1077.298	839.314
404.365	22.830	1076.636	838.563
405.380	22.766	1075.752	837.495
406.394	22.859	1074.771	837.100
407.409	22.979	1073.936	836.944
408.423	22.886	1073.546	836.125
409.438	22.835	1072.692	835.144
410.453	22.927	1072.013	834.975
411.467	22.976	1071.364	834.632
412.482	22.927	1070.693	833.802
413.496	22.841	1069.924	832.725
414.511	22.919	1069.534	832.715
415.526	22.923	1069.100	832.323
416.540	22.899	1069.018	832.070
417.555	23.039	1068.010	831.869
418.569	22.996	1067.398	831.118
419.584	22.993	1067.595	831.182
420.599	22.978	1066.571	830.242
421.613	149.497	1397.891	1796.797
422.628	137.673	1446.153	1796.913
