DTS Sentinel unit serial number:	SN413079Multiplexer serial number:	ORYXHardware model number:	OX4-SRSoftware version number:	ORYX F/W v4.00 Oryx Data Collector v3.7.2.0data status	okinstallation	princeton_trtdifferential loss correction	single-endedforward channel	channel 2reverse channel	N/Adate	2019/09/10time	21:17:10forward acquisition time	60.00reverse acquisition time	0.00gamma	496.2192k internal	0.2330k external	0.2330temperature offset calibration	0.9945default loss term (dB/km)	0.3790temperature slope calibration	1.0000multiplexer offset coefficient	1.0000multiplexer slope coefficient	1.0000fibre end	0.00T internal ref (°C)	31.33T ext. ref 1 (°C)	-0.31T ext. ref 2 (°C)	24.48length (m)	temperature (°C)	Stokes	anti-Stokes-747.200	164.816	-0.144	-0.205
-746.185	800.000	-0.103	0.311
-745.171	-200.000	0.015	0.445
-744.156	231.906	-0.145	0.239
-743.142	695.098	-0.012	-0.032
-742.127	447.357	0.079	0.175
-741.112	800.000	-0.133	0.497
-740.098	-62.694	-0.272	0.113
-739.083	-36.251	0.190	-0.103
-738.069	-200.000	0.007	0.221
-737.054	-200.000	-0.030	-0.237
-736.039	-77.081	-0.436	-0.153
-735.025	62.483	-0.181	-0.182
-734.010	32.972	-0.051	-0.044
-732.996	390.643	0.149	-0.312
-731.981	252.557	-0.076	-0.131
-730.966	-22.134	-0.296	0.181
-729.952	493.101	0.057	0.131
-728.937	-89.118	-0.192	-0.057
-727.923	71.938	-0.026	-0.027
-726.908	800.000	0.062	0.225
-725.894	63.155	-0.297	0.299
-724.879	86.714	0.045	-0.050
-723.864	112.324	-0.181	-0.220
-722.850	-5.725	-0.234	-0.161
-721.835	-200.000	0.007	0.159
-720.821	-114.084	-0.260	-0.051
-719.806	-114.823	-0.145	0.028
-718.791	138.330	0.053	-0.070
-717.777	-200.000	-0.021	0.156
-716.762	59.554	-0.294	-0.292
-715.748	47.348	0.172	0.161
-714.733	-100.494	-0.229	-0.057
-713.718	-45.355	-0.269	-0.134
-712.704	-200.000	-0.042	-0.334
-711.689	64.970	-0.069	-0.070
-710.675	-81.936	0.263	-0.087
-709.660	-200.000	-0.017	-0.117
-708.645	800.000	-0.120	0.344
-707.631	-200.000	-0.013	0.332
-706.616	-200.000	-0.015	0.088
-705.602	-99.420	0.226	-0.057
-704.587	-56.653	0.039	-0.017
-703.572	-43.010	0.058	-0.029
-702.558	-200.000	-0.006	-0.048
-701.543	-143.445	0.168	0.016
-700.529	-117.373	-0.342	0.062
-699.514	459.757	0.052	0.117
-698.499	-200.000	0.040	0.305
-697.485	-200.000	-0.024	-0.178
-696.470	-200.000	0.021	-0.262
-695.456	396.740	-0.071	0.149
-694.441	303.370	-0.024	0.046
-693.426	-200.000	0.016	0.086
-692.412	-200.000	0.023	0.235
-691.397	9.686	-0.208	0.159
-690.383	-165.447	-0.170	0.007
-689.368	-57.377	0.263	0.116
-688.354	309.347	0.104	-0.195
-687.339	22.952	0.180	0.149
-686.324	315.519	-0.084	0.160
-685.310	114.694	0.201	0.246
-684.295	356.238	-0.129	-0.258
-683.281	-155.587	-0.273	-0.018
-682.266	-71.023	-0.159	0.060
-681.251	-72.050	-0.247	0.092
-680.237	-31.070	-0.031	-0.017
-679.222	137.145	-0.200	-0.263
-678.208	-153.738	-0.314	0.022
-677.193	-161.014	0.220	-0.012
-676.178	-102.420	0.220	-0.053
-675.164	124.836	-0.276	-0.350
-674.149	8.639	-0.189	-0.143
-673.135	-200.000	0.055	-0.264
-672.120	7.251	0.097	-0.073
-671.105	800.000	-0.039	-0.142
-670.091	-53.409	0.091	-0.042
-669.076	-200.000	0.010	-0.196
-668.062	-19.536	0.118	0.073
-667.047	-169.072	-0.107	-0.004
-666.032	64.571	-0.164	0.166
-665.018	-200.000	0.012	-0.137
-664.003	209.298	-0.125	-0.197
-662.989	-200.000	-0.031	-0.263
-661.974	146.045	0.119	-0.161
-660.959	-200.000	-0.012	0.054
-659.945	300.487	-0.138	-0.256
-658.930	118.906	0.133	0.165
-657.916	51.146	-0.175	0.167
-656.901	-29.814	-0.314	-0.179
-655.886	800.000	-0.069	0.213
-654.872	193.450	0.113	0.172
-653.857	102.697	0.182	0.213
-652.843	-200.000	0.004	0.139
-651.828	104.691	0.103	0.121
-650.814	-68.389	-0.197	0.077
-649.799	221.708	0.145	-0.234
-648.784	-5.387	-0.159	-0.109
-647.770	-200.000	-0.042	-0.240
-646.755	-27.339	0.254	0.148
-645.741	-200.000	0.012	-0.213
-644.726	50.166	-0.055	-0.052
-643.711	182.043	0.110	-0.162
-642.697	77.143	0.220	0.235
-641.682	-53.827	0.090	0.041
-640.668	-200.000	-0.000	0.343
-639.653	800.000	0.071	-0.290
-638.638	800.000	0.059	-0.251
-637.624	-200.000	-0.009	0.059
-636.609	102.316	0.196	-0.229
-635.595	-70.018	0.141	0.054
-634.580	278.346	0.044	0.079
-633.565	236.259	-0.245	-0.407
-632.551	-42.412	0.356	-0.182
-631.536	-158.812	-0.165	-0.009
-630.522	34.995	0.244	-0.214
-629.507	-200.000	-0.069	-0.431
-628.492	-88.426	-0.042	0.012
-627.478	-143.140	-0.238	0.023
-626.463	27.380	-0.103	-0.087
-625.449	390.720	0.096	-0.200
-624.434	271.526	-0.126	0.223
-623.419	47.803	0.170	0.159
-622.405	-95.296	-0.014	0.004
-621.390	177.242	0.113	-0.165
-620.376	800.000	-0.018	0.070
-619.361	-130.538	-0.287	0.039
-618.346	-24.007	0.060	-0.036
-617.332	-125.452	0.143	-0.022
-616.317	-200.000	-0.003	-0.109
-615.303	177.237	-0.164	-0.239
-614.288	800.000	-0.091	-0.270
-613.273	-200.000	-0.044	-0.326
-612.259	297.274	-0.063	-0.116
-611.244	-178.430	0.116	0.003
-610.230	388.589	-0.060	0.124
-609.215	-147.145	-0.233	0.020
-608.201	647.090	0.140	-0.357
-607.186	-14.756	0.320	-0.206
-606.171	-130.988	0.096	-0.013
-605.157	-114.932	-0.157	0.030
-604.142	-36.360	0.080	0.043
-603.128	800.000	0.009	-0.029
-602.113	43.989	-0.196	0.180
-601.098	58.401	-0.136	-0.133
-600.084	-21.280	-0.272	-0.167
-599.069	-61.420	-0.234	0.099
-598.055	-200.000	-0.011	0.098
-597.040	-26.994	0.265	-0.155
-596.025	-181.399	0.287	-0.006
-595.011	311.506	0.082	0.153
-593.996	416.406	0.064	0.137
-592.982	179.022	-0.032	0.046
-591.967	276.809	-0.144	0.256
-590.952	319.020	0.064	-0.121
-589.938	530.073	0.058	0.137
-588.923	312.573	-0.128	-0.241
-587.909	800.000	0.041	0.150
-586.894	192.456	-0.124	-0.187
-585.879	800.000	-0.047	0.140
-584.865	-108.495	-0.088	0.019
-583.850	-177.368	-0.229	0.006
-582.836	-119.648	0.163	0.028
-581.821	-56.755	0.156	0.069
-580.806	285.701	0.014	-0.025
-579.792	-200.000	0.005	0.071
-578.777	800.000	0.040	-0.159
-577.763	-120.648	0.261	0.044
-576.748	-10.042	0.193	0.128
-575.733	85.284	-0.017	-0.019
-574.719	443.871	0.086	-0.189
-573.704	382.511	0.110	0.226
-572.690	13.435	-0.144	-0.111
-571.675	98.036	-0.259	-0.299
-570.661	-180.799	0.126	0.003
-569.646	233.077	-0.066	-0.108
-568.631	-200.000	0.051	0.267
-567.617	800.000	0.092	-0.374
-566.602	800.000	-0.058	0.184
-565.588	800.000	0.033	0.113
-564.573	-25.530	0.279	0.165
-563.558	67.481	0.235	0.240
-562.544	800.000	-0.021	0.079
-561.529	800.000	0.071	-0.215
-560.515	-170.837	-0.440	-0.015
-559.500	-200.000	0.051	-0.278
-558.485	-200.000	0.026	-0.139
-557.471	-200.000	0.066	-0.333
-556.456	-86.425	-0.153	0.047
-555.442	-165.943	-0.031	0.001
-554.427	132.471	0.099	-0.128
-553.412	60.990	0.095	-0.094
-552.398	-83.762	-0.410	-0.131
-551.383	800.000	-0.013	-0.059
-550.369	179.717	-0.146	-0.214
-549.354	-88.788	-0.101	0.030
-548.339	800.000	0.024	0.099
-547.325	-200.000	0.012	0.269
-546.310	24.968	-0.427	0.353
-545.296	-59.504	-0.117	0.050
-544.281	32.579	-0.136	0.117
-543.266	800.000	0.068	0.233
-542.252	-90.179	-0.226	0.066
-541.237	-200.000	-0.023	-0.193
-540.223	176.935	0.031	0.045
-539.208	100.802	0.105	-0.122
-538.193	167.952	-0.081	0.115
-537.179	554.977	0.033	-0.078
-536.164	800.000	-0.049	0.151
-535.150	1.643	-0.100	-0.072
-534.135	-69.338	-0.372	0.143
-533.121	800.000	-0.158	0.462
-532.106	73.037	0.309	-0.323
-531.091	19.987	-0.151	-0.122
-530.077	97.607	-0.153	-0.175
-529.062	-200.000	0.080	0.392
-528.048	-186.383	-0.132	-0.002
-527.033	-27.994	-0.202	0.117
-526.018	424.524	0.097	-0.208
-525.004	-20.771	-0.273	-0.167
-523.989	-137.301	-0.412	-0.047
-522.975	-133.657	0.075	0.009
-521.960	-115.343	-0.104	-0.020
-520.945	-154.638	-0.279	0.019
-519.931	-125.370	-0.510	0.078
-518.916	-149.598	-0.512	0.040
-517.902	-2.027	0.129	-0.090
-516.887	800.000	-0.017	-0.060
-515.872	-200.000	0.003	-0.021
-514.858	139.699	-0.139	-0.182
-513.843	362.788	-0.089	0.178
-512.829	-179.351	-0.350	-0.008
-511.814	-79.618	0.283	0.095
-510.799	227.406	-0.149	0.242
-509.785	90.997	0.132	0.148
-508.770	233.779	-0.038	0.063
-507.756	-200.000	-0.171	-0.001
-506.741	139.793	-0.188	-0.247
-505.726	196.073	0.117	-0.178
-504.712	-42.758	0.265	-0.135
-503.697	-135.384	-0.358	-0.043
-502.683	687.977	-0.135	0.351
-501.668	-93.646	-0.440	0.121
-500.653	-200.000	-0.043	0.241
-499.639	-73.444	0.144	-0.053
-498.624	163.653	-0.140	-0.197
-497.610	450.245	0.103	-0.227
-496.595	173.960	-0.147	0.211
-495.581	-106.213	0.196	0.044
-494.566	22.565	0.053	0.043
-493.551	-10.817	-0.092	0.060
-492.537	-83.404	0.080	0.026
-491.522	265.334	0.019	0.032
-490.508	48.412	-0.149	-0.139
-489.493	-56.419	-0.307	-0.136
-488.478	319.881	-0.156	-0.295
-487.464	-200.000	0.027	0.398
-486.449	34.700	-0.315	0.274
-485.435	-127.349	0.169	-0.025
-484.420	177.676	-0.242	-0.352
-483.405	468.218	-0.027	0.061
-482.391	800.000	-0.029	-0.083
-481.376	-32.363	-0.187	0.104
-480.362	-1.493	-0.162	0.114
-479.347	-177.882	0.054	-0.001
-478.332	58.906	-0.167	-0.163
-477.318	203.496	-0.151	0.232
-476.303	-138.835	-0.179	-0.019
-475.289	179.641	0.137	0.200
-474.274	30.286	0.068	0.058
-473.259	693.692	0.050	-0.131
-472.245	504.669	0.077	-0.177
-471.230	8.327	-0.186	0.139
-470.216	540.549	-0.023	-0.053
-469.201	223.834	0.196	-0.315
-468.186	34.206	-0.133	-0.115
-467.172	-86.540	0.221	0.068
-466.157	86.609	0.073	0.081
-465.143	-200.000	0.353	-0.001
-464.128	468.122	0.088	0.196
-463.113	-200.000	-0.055	-0.344
-462.099	-200.000	-0.026	-0.357
-461.084	-33.278	0.141	-0.078
-460.070	72.813	0.044	-0.046
-459.055	-13.188	0.206	-0.133
-458.040	-200.000	-0.031	0.152
-457.026	-25.436	0.193	0.114
-456.011	-200.000	0.042	0.334
-454.997	35.199	-0.263	-0.230
-453.982	-18.900	-0.241	0.149
-452.968	-18.808	-0.162	0.101
-451.953	-109.182	0.255	0.054
-450.938	-74.113	-0.219	-0.079
-449.924	-200.000	0.014	0.188
-448.909	-2.148	0.291	0.204
-447.895	725.260	-0.134	0.356
-446.880	93.359	-0.063	-0.071
-445.865	80.408	0.116	0.124
-444.851	-31.969	-0.377	0.210
-443.836	-54.267	0.150	-0.068
-442.822	322.498	0.165	0.314
-441.807	152.788	-0.098	-0.133
-440.792	50.826	-0.113	0.106
-439.778	175.492	0.135	-0.195
-438.763	-137.797	-0.312	0.035
-437.749	38.827	0.031	0.027
-436.734	-115.005	0.192	0.036
-435.719	124.958	0.209	-0.262
-434.705	-200.000	-0.009	0.216
-433.690	207.239	-0.136	-0.212
-432.676	36.726	0.335	0.294
-431.661	745.996	-0.089	0.239
-430.646	-200.000	-0.016	-0.108
-429.632	65.055	0.055	0.055
-428.617	-1.901	-0.161	-0.113
-427.603	-168.976	-0.124	0.005
-426.588	-200.000	0.030	0.250
-425.573	-53.025	0.179	-0.082
-424.559	129.493	0.083	0.106
-423.544	9.074	-0.151	-0.113
-422.530	-102.327	0.117	-0.028
-421.515	800.000	-0.066	-0.247
-420.500	-39.511	0.112	0.058
-419.486	-40.693	0.246	-0.127
-418.471	-91.450	0.165	-0.047
-417.457	-200.000	0.006	-0.134
-416.442	22.251	-0.299	0.243
-415.428	-91.952	0.295	-0.083
-414.413	-21.636	0.060	0.036
-413.398	94.406	-0.192	0.217
-412.384	-80.124	0.327	-0.109
-411.369	-200.000	0.041	-0.236
-410.355	-143.220	0.433	0.041
-409.340	-200.000	-0.039	0.217
-408.325	12.528	-0.118	-0.091
-407.311	56.381	0.149	0.144
-406.296	15.756	-0.080	0.062
-405.282	-200.000	0.013	-0.187
-404.267	-200.000	0.010	0.197
-403.252	288.945	0.033	-0.060
-402.238	9.917	-0.132	0.100
-401.223	-40.209	0.107	0.055
-400.209	-28.531	0.236	-0.135
-399.194	90.590	-0.043	0.047
-398.179	43.246	0.155	-0.141
-397.165	121.270	-0.170	-0.210
-396.150	-50.380	-0.242	-0.113
-395.136	514.817	-0.014	0.033
-394.121	-182.897	-0.244	0.004
-393.106	41.840	-0.207	0.186
-392.092	269.898	0.118	0.206
-391.077	-79.624	-0.215	0.072
-390.063	-200.000	0.064	-0.292
-389.048	46.976	0.173	0.160
-388.033	-81.473	0.168	0.055
-387.019	-3.350	-0.158	-0.109
-386.004	-132.098	0.073	-0.009
-384.990	8.791	0.445	0.333
-383.975	-159.054	0.108	-0.006
-382.960	-113.172	-0.127	-0.025
-381.946	800.000	0.063	0.177
-380.931	-121.563	-0.098	0.016
-379.917	-72.909	0.138	-0.050
-378.902	-64.377	-0.075	0.030
-377.888	-19.458	0.164	0.101
-376.873	-81.035	0.314	0.103
-375.858	14.237	-0.123	-0.095
-374.844	242.467	0.082	-0.136
-373.829	38.889	0.198	-0.175
-372.815	178.909	-0.100	0.145
-371.800	6.149	0.101	-0.074
-370.785	228.321	-0.199	-0.322
-369.771	-146.412	0.134	0.012
-368.756	46.666	0.095	0.087
-367.742	800.000	-0.096	0.401
-366.727	48.217	-0.507	0.471
-365.712	285.140	-0.082	-0.147
-364.698	82.588	0.199	-0.214
-363.683	45.230	0.075	-0.069
-362.669	144.689	0.044	0.058
-361.654	-200.000	0.011	0.210
-360.639	-163.089	0.350	-0.017
-359.625	-200.000	-0.043	0.300
-358.610	-61.874	-0.052	-0.022
-357.596	-115.828	0.044	0.008
-356.581	-3.455	-0.146	-0.101
-355.566	-91.899	0.194	0.054
-354.552	-161.276	0.426	-0.022
-353.537	800.000	0.018	0.060
-352.523	313.763	-0.127	-0.238
-351.508	800.000	0.032	-0.109
-350.493	-162.866	0.138	0.007
-349.479	64.709	0.280	0.280
-348.464	-200.000	0.005	0.043
-347.450	119.881	-0.037	-0.046
-346.435	800.000	0.003	0.010
-345.420	147.413	-0.089	0.119
-344.406	98.121	0.251	-0.286
-343.391	-121.349	0.080	-0.013
-342.377	116.530	-0.121	0.147
-341.362	74.766	0.191	-0.200
-340.348	-17.854	0.115	0.071
-339.333	78.203	0.183	0.194
-338.318	798.078	-0.123	0.337
-337.304	800.000	-0.064	0.232
-336.289	-200.000	0.357	0.001
-335.275	55.243	-0.279	0.267
-334.260	-200.000	-0.040	-0.178
-333.245	6.635	-0.212	0.156
-332.231	-200.000	-0.002	0.019
-331.216	80.857	-0.127	-0.136
-330.202	52.940	0.219	0.208
-329.187	-147.366	0.183	-0.015
-328.172	-200.000	0.024	-0.142
-327.158	-200.000	-0.029	-0.269
-326.143	-54.732	0.084	-0.038
-325.129	499.376	-0.051	-0.117
-324.114	-69.430	-0.075	-0.028
-323.099	101.914	0.096	0.111
-322.085	-200.000	-0.019	-0.322
-321.070	-61.109	-0.018	-0.007
-320.056	-134.547	0.375	0.045
-319.041	-78.075	-0.287	-0.098
-318.026	527.949	-0.063	0.148
-317.012	-179.128	-0.316	0.007
-315.997	-17.415	0.162	-0.101
-314.983	-200.000	0.148	0.696
-313.968	800.000	0.025	-0.089
-312.953	304.887	-0.116	0.212
-311.939	-200.000	0.005	0.344
-310.924	-200.000	0.007	0.103
-309.910	388.787	0.052	0.107
-308.895	-47.015	-0.194	-0.094
-307.880	800.000	0.016	0.055
-306.866	39.230	0.176	0.156
-305.851	-200.000	-0.025	0.161
-304.837	146.941	-0.110	0.146
-303.822	37.895	0.142	0.125
-302.807	134.830	0.078	-0.101
-301.793	-33.820	-0.040	0.022
-300.778	270.426	0.234	-0.407
-299.764	101.154	-0.142	0.164
-298.749	-126.389	0.133	0.020
-297.735	8.037	0.140	-0.104
-296.720	-165.089	0.345	0.015
-295.705	800.000	0.048	0.191
-294.691	-200.000	-0.018	0.183
-293.676	800.000	0.144	-0.463
-292.662	-200.000	0.025	-0.330
-291.647	-16.112	0.344	-0.216
-290.632	90.969	-0.156	0.173
-289.618	-28.667	-0.307	-0.175
-288.603	-200.000	-0.012	0.284
-287.589	77.899	0.177	0.186
-286.574	-143.618	-0.123	-0.012
-285.559	-77.578	-0.254	-0.087
-284.545	-80.577	-0.078	0.026
-283.530	-41.185	0.173	0.088
-282.516	-15.441	0.192	-0.121
-281.501	-170.699	0.369	-0.013
-280.486	-200.000	0.021	0.193
-279.472	800.000	-0.016	0.066
-278.457	120.329	0.328	-0.402
-277.443	-125.899	0.140	-0.021
-276.428	800.000	-0.048	0.167
-275.413	-200.000	0.037	0.213
-274.399	-32.375	0.258	0.142
-273.384	-83.250	0.167	-0.053
-272.370	52.602	-0.057	-0.053
-271.355	180.452	-0.047	-0.068
-270.340	800.000	-0.077	0.280
-269.326	-37.322	0.131	-0.069
-268.311	800.000	-0.028	-0.095
-267.297	800.000	-0.064	0.225
-266.282	52.232	-0.134	-0.127
-265.267	73.045	-0.291	-0.300
-264.253	-200.000	0.010	-0.359
-263.238	-26.189	-0.090	-0.052
-262.224	-54.080	0.101	-0.045
-261.209	-76.500	0.171	0.059
-260.195	-105.821	-0.353	-0.079
-259.180	-129.813	-0.462	-0.063
-258.165	43.930	0.150	0.135
-257.151	-200.000	-0.027	-0.158
-256.136	-27.544	-0.118	-0.068
-255.122	-34.314	-0.158	0.085
-254.107	-111.413	-0.324	0.065
-253.092	800.000	0.028	-0.114
-252.078	800.000	0.081	-0.310
-251.063	339.008	-0.097	-0.186
-250.049	-81.755	0.136	0.044
-249.034	800.000	0.076	0.209
-248.019	800.000	-0.024	0.086
-247.005	-200.000	-0.002	0.043
-245.990	140.054	-0.062	0.081
-244.976	-85.177	0.240	0.074
-243.961	163.836	-0.195	0.271
-242.946	102.550	-0.071	0.082
-241.932	92.683	-0.162	-0.180
-240.917	-81.966	-0.143	0.046
-239.903	102.413	-0.066	-0.076
-238.888	305.983	0.037	-0.067
-237.873	-120.769	0.323	0.054
-236.859	-107.753	-0.349	-0.075
-235.844	378.186	-0.068	-0.138
-234.830	69.413	0.082	0.083
-233.815	-200.000	-0.023	0.219
-232.800	-44.080	0.258	0.128
-231.786	195.898	0.033	0.049
-230.771	-63.667	0.059	-0.024
-229.757	186.304	0.118	-0.174
-228.742	-135.257	-0.437	-0.052
-227.727	-200.000	0.010	-0.175
-226.713	-119.468	0.221	-0.038
-225.698	63.106	0.137	0.135
-224.684	63.632	0.146	0.144
-223.669	80.281	0.264	-0.280
-222.655	40.536	-0.105	-0.093
-221.640	-162.224	-0.052	0.003
-220.625	-200.000	0.053	-0.233
-219.611	-46.375	0.484	0.235
-218.596	101.160	-0.053	0.061
-217.582	-80.277	-0.083	-0.027
-216.567	19.919	0.116	0.092
-215.552	-81.959	-0.196	0.063
-214.538	-50.349	-0.248	0.116
-213.523	-45.481	-0.233	-0.114
-212.509	-68.218	-0.196	0.075
-211.494	-7.722	0.152	0.101
-210.479	-200.000	-0.027	0.196
-209.465	-65.887	-0.440	-0.173
-208.450	-96.280	-0.033	-0.009
-207.436	800.000	-0.067	0.217
-206.421	-200.000	-0.039	0.295
-205.406	235.570	-0.089	0.145
-204.392	-120.890	-0.279	0.046
-203.377	7.263	-0.149	-0.110
-202.363	27.154	0.184	0.152
-201.348	385.629	0.129	0.263
-200.333	-200.000	-0.032	-0.184
-199.319	-98.993	-0.215	0.054
-198.304	-168.286	-0.113	0.004
-197.290	800.000	0.042	-0.152
-196.275	-125.043	-0.386	0.058
-195.260	13.323	-0.051	0.039
-194.246	-200.000	-0.013	0.149
-193.231	-89.998	0.290	-0.083
-192.217	-200.000	0.043	-0.258
-191.202	-53.919	-0.075	-0.034
-190.187	-102.123	0.221	-0.052
-189.173	800.000	-0.052	0.169
-188.158	-59.525	0.293	0.124
-187.144	-200.000	-0.007	-0.127
-186.129	-103.778	-0.211	0.049
-185.114	86.803	0.067	0.072
-184.100	-52.905	0.345	-0.157
-183.085	30.540	0.131	-0.110
-182.071	33.018	0.327	-0.279
-181.056	672.845	0.121	0.310
-180.042	-200.000	0.017	-0.098
-179.027	-33.830	0.192	-0.104
-178.012	-182.258	0.186	0.003
-176.998	-200.000	-0.002	-0.470
-175.983	-73.720	-0.186	-0.067
-174.969	-179.471	0.396	-0.009
-173.954	24.288	0.096	0.078
-172.939	28.595	0.063	-0.053
-171.925	256.962	0.084	0.142
-170.910	205.369	-0.049	0.075
-169.896	-200.000	0.031	-0.145
-168.881	-159.870	-0.034	0.002
-167.866	-200.000	-0.013	-0.170
-166.852	82.414	-0.068	0.072
-165.837	800.000	-0.016	0.055
-164.823	-200.000	0.013	-0.066
-163.808	128.184	-0.177	-0.222
-162.793	-15.976	0.132	0.083
-161.779	800.000	0.032	-0.106
-160.764	43.502	-0.037	0.033
-159.750	118.496	0.198	0.241
-158.735	56.498	-0.094	-0.090
-157.720	-29.699	-0.054	-0.031
-156.706	546.767	-0.023	0.054
-155.691	-200.000	-0.012	0.104
-154.677	43.940	0.211	-0.190
-153.662	65.869	0.132	0.132
-152.647	23.130	0.134	0.108
-151.633	210.855	-0.153	-0.237
-150.618	42.813	0.132	-0.118
-149.604	-103.568	0.298	0.069
-148.589	-200.000	-0.032	-0.210
-147.574	-200.000	-0.047	0.248
-146.560	-90.576	0.260	-0.074
-145.545	-200.000	-0.043	-0.238
-144.531	-191.086	0.243	-0.002
-143.516	-100.582	0.192	-0.047
-142.502	-200.000	-0.007	-0.095
-141.487	66.774	0.284	0.284
-140.472	800.000	-0.034	-0.101
-139.458	-79.959	-0.268	0.089
-138.443	368.869	0.085	-0.169
-137.429	-200.000	-0.030	-0.198
-136.414	658.101	-0.123	0.311
-135.399	-80.393	0.041	0.013
-134.385	-61.117	0.168	0.070
-133.370	264.444	-0.032	-0.055
-132.356	800.000	-0.077	-0.234
-131.341	-33.314	-0.222	-0.121
-130.326	-200.000	-0.029	0.160
-129.312	-19.399	0.241	0.147
-128.297	-116.954	-0.425	0.076
-127.283	800.000	-0.038	-0.107
-126.268	-200.000	-0.092	-0.537
-125.253	-66.617	0.033	-0.013
-124.239	247.840	0.093	0.155
-123.224	161.720	-0.078	0.108
-122.210	-46.138	0.103	0.050
-121.195	-29.704	0.150	-0.084
-120.180	-193.038	-0.097	-0.001
-119.166	53.787	-0.231	0.218
-118.151	135.838	-0.165	-0.212
-117.137	71.952	-0.257	0.262
-116.122	800.000	0.042	0.165
-115.107	-140.403	-0.188	-0.019
-114.093	-47.119	0.294	-0.141
-113.078	-200.000	-0.025	0.460
-112.064	771.957	0.077	-0.206
-111.049	-69.313	-0.106	0.040
-110.034	172.323	-0.187	-0.264
-109.020	-200.000	0.050	0.329
-108.005	54.806	0.188	-0.178
-106.991	-200.000	0.037	0.220
-105.976	-76.209	-0.236	-0.082
-104.962	145.858	-0.068	-0.090
-103.947	-99.531	-0.310	-0.076
-102.932	800.000	-0.068	-0.200
-101.918	297.286	-0.090	0.162
-100.903	-63.392	0.148	0.060
-99.889	-188.049	-0.214	0.003
-98.874	-11.293	-0.238	0.154
-97.859	-53.633	0.277	-0.124
-96.845	-200.000	-0.012	0.071
-95.830	-75.378	-0.214	0.075
-94.816	-200.000	-0.022	-0.195
-93.801	-98.978	-0.194	-0.048
-92.786	-200.000	0.012	0.391
-91.772	146.537	-0.086	-0.113
-90.757	-33.917	0.134	0.072
-89.743	-162.882	0.119	0.006
-88.728	-88.992	0.341	-0.099
-87.713	-200.000	0.020	-0.274
-86.699	14.288	0.215	0.164
-85.684	800.000	0.119	-0.336
-84.670	123.763	0.111	-0.137
-83.655	-200.000	0.003	-0.179
-82.640	319.098	-0.150	-0.279
-81.626	800.000	-0.062	-0.207
-80.611	800.000	-0.063	0.173
-79.597	-132.520	-0.210	0.026
-78.582	-200.000	-0.027	0.122
-77.567	800.000	0.087	0.295
-76.553	7.483	-0.211	0.155
-75.538	-200.000	0.041	-0.215
-74.524	-77.686	-0.149	0.051
-73.509	148.783	0.031	-0.041
-72.494	-43.953	0.142	0.070
-71.480	800.000	-0.051	0.211
-70.465	2.603	0.065	0.046
-69.451	800.000	0.117	-0.318
-68.436	388.247	-0.165	-0.335
-67.422	116.852	-0.099	-0.119
-66.407	-55.142	-0.161	-0.071
-65.392	800.000	-0.031	-0.090
-64.378	-90.705	0.212	-0.060
-63.363	-200.000	0.001	0.050
-62.349	-100.847	0.051	0.012
-61.334	99.816	-0.968	-1.099
-60.319	-6.432	0.772	0.516
-59.305	-200.000	-0.232	-1.149
-58.290	657.718	0.426	1.074
-57.276	800.000	0.499	1.471
-56.261	-200.000	98.608	610.402
-55.246	593.731	1406.467	3407.598
-54.232	190.864	2607.949	3843.806
-53.217	110.624	2273.242	2679.086
-52.203	40.875	1891.626	1672.753
-51.188	34.625	1680.465	1439.039
-50.173	31.922	1636.867	1381.771
-49.159	49.620	1685.235	1555.245
-48.144	51.104	1700.667	1580.508
-47.130	34.214	1660.725	1418.852
-46.115	31.448	1646.399	1386.085
-45.100	31.348	1641.106	1380.833
-44.086	31.226	1639.219	1378.294
-43.071	31.092	1636.981	1375.364
-42.057	31.170	1634.598	1373.884
-41.042	31.318	1632.312	1372.995
-40.027	31.252	1630.397	1370.848
-39.013	31.219	1628.701	1369.122
-37.998	31.192	1626.610	1367.116
-36.984	31.122	1626.029	1366.057
-35.969	31.376	1623.715	1365.920
-34.954	31.413	1622.149	1364.818
-33.940	31.343	1620.277	1362.680
-32.925	31.349	1618.845	1361.466
-31.911	31.267	1616.977	1359.242
-30.896	31.290	1615.184	1357.844
-29.881	31.254	1614.146	1356.658
-28.867	31.312	1611.925	1355.155
-27.852	31.383	1610.402	1354.338
-26.838	31.356	1609.161	1353.044
-25.823	31.332	1607.786	1351.666
-24.809	31.364	1606.672	1350.901
-23.794	31.391	1604.705	1349.392
-22.779	31.259	1603.645	1347.494
-21.765	31.303	1601.798	1346.205
-20.750	31.341	1600.043	1344.949
-19.736	31.388	1598.651	1344.069
-18.721	31.431	1597.050	1342.973
-17.706	31.282	1595.578	1340.611
-16.692	31.301	1594.276	1339.605
-15.677	31.346	1593.066	1338.855
-14.663	31.373	1591.881	1338.002
-13.648	31.453	1590.027	1336.962
-12.633	31.426	1588.648	1335.559
-11.619	31.412	1587.113	1334.112
-10.604	31.360	1585.258	1332.132
-9.590	31.381	1584.263	1331.393
-8.575	31.331	1583.129	1330.029
-7.560	31.372	1582.000	1329.323
-6.546	31.357	1580.582	1327.969
-5.531	31.316	1579.884	1327.040
-4.517	31.347	1578.627	1326.149
-3.502	31.426	1577.093	1325.368
-2.487	31.420	1576.084	1324.425
-1.473	31.022	1564.104	1311.503
-0.458	28.016	1544.747	1274.308
0.556	22.058	1544.614	1241.157
1.571	19.676	1568.088	1242.799
2.586	19.312	1581.658	1250.805
3.600	17.493	1529.295	1196.511
4.615	9.330	1420.048	1057.457
5.629	1.375	1355.335	959.096
6.644	-0.224	1347.182	943.203
7.659	-0.300	1346.520	942.177
8.673	-0.396	1345.327	940.658
9.688	-0.321	1342.854	939.315
10.702	-0.585	1339.867	935.492
11.717	2.479	1346.123	958.986
12.731	11.501	1362.943	1027.895
13.746	18.594	1375.348	1082.064
14.761	19.980	1376.299	1091.456
15.775	20.138	1376.115	1092.209
16.790	20.289	1375.677	1092.719
17.804	20.267	1374.896	1091.865
18.819	20.375	1375.014	1092.541
19.834	20.596	1373.815	1092.875
20.848	20.537	1373.371	1092.056
21.863	20.643	1372.367	1091.830
22.877	20.654	1371.591	1091.180
23.892	20.602	1370.712	1090.059
24.907	20.503	1370.027	1088.802
25.921	20.620	1368.914	1088.549
26.936	20.691	1367.785	1088.000
27.950	20.575	1367.024	1086.577
28.965	20.560	1365.929	1085.514
29.980	20.542	1364.076	1083.833
30.994	20.621	1363.297	1083.614
32.009	20.607	1362.447	1082.751
33.023	20.600	1361.055	1081.506
34.038	20.527	1359.910	1080.049
35.053	20.627	1358.826	1079.711
36.067	20.555	1357.629	1078.219
37.082	20.640	1356.812	1078.002
38.096	20.574	1355.773	1076.675
39.111	20.697	1354.585	1076.391
40.126	20.624	1354.403	1075.702
41.140	20.528	1354.224	1074.874
42.155	20.611	1353.668	1074.848
43.169	20.521	1353.580	1074.124
44.184	20.493	1353.597	1073.870
45.199	20.588	1353.084	1073.960
46.213	20.565	1352.572	1073.312
47.228	20.607	1351.853	1072.909
48.242	20.550	1349.991	1070.983
49.257	20.650	1348.601	1070.399
50.271	20.597	1347.322	1068.965
51.286	20.606	1345.939	1067.826
52.301	20.572	1344.765	1066.592
53.315	20.552	1344.264	1065.979
54.330	20.639	1343.176	1065.556
55.344	20.621	1341.671	1064.158
56.359	20.597	1341.164	1063.513
57.374	20.619	1339.966	1062.609
58.388	20.692	1339.404	1062.509
59.403	20.585	1339.212	1061.613
60.417	20.557	1338.623	1060.883
61.432	20.552	1337.406	1059.794
62.447	20.591	1336.584	1059.284
63.461	20.611	1335.667	1058.586
64.476	20.543	1334.843	1057.422
65.490	20.547	1333.252	1056.093
66.505	20.627	1331.905	1055.423
67.520	20.465	1330.774	1053.451
68.534	20.628	1329.383	1053.239
69.549	20.563	1328.705	1052.219
70.563	20.623	1327.812	1051.783
71.578	20.673	1326.808	1051.192
72.593	20.640	1325.784	1050.090
73.607	20.574	1325.265	1049.188
74.622	20.610	1324.100	1048.389
75.636	20.600	1323.630	1047.863
76.651	20.669	1323.089	1047.761
77.666	20.572	1322.514	1046.627
78.680	20.604	1322.084	1046.388
79.695	20.640	1321.099	1045.729
80.709	20.643	1320.242	1044.977
81.724	20.589	1319.316	1043.831
82.739	20.629	1318.322	1043.189
83.753	20.475	1317.797	1041.760
84.768	20.503	1316.914	1041.139
85.782	20.585	1314.946	1039.977
86.797	20.607	1314.043	1039.306
87.812	20.638	1312.933	1038.522
88.826	20.711	1311.601	1037.807
89.841	20.620	1310.687	1036.454
90.855	20.688	1310.055	1036.265
91.870	20.671	1308.629	1034.943
92.884	20.631	1308.287	1034.343
93.899	20.623	1307.195	1033.340
94.914	20.678	1306.478	1033.013
95.928	20.715	1305.603	1032.449
96.943	20.577	1304.964	1031.033
97.957	20.645	1304.065	1030.633
98.972	20.733	1302.846	1030.099
99.987	20.685	1301.989	1029.045
101.001	20.594	1301.097	1027.714
102.016	20.614	1300.473	1027.245
103.030	20.648	1299.512	1026.598
104.045	20.711	1298.260	1025.890
105.060	20.679	1297.403	1024.934
106.074	20.687	1296.053	1023.826
107.089	20.652	1294.998	1022.695
108.103	20.670	1294.337	1022.188
109.118	20.750	1293.001	1021.511
110.133	20.804	1291.710	1020.718
111.147	20.796	1290.162	1019.355
112.162	20.833	1289.070	1018.622
113.176	20.818	1287.986	1017.585
114.191	20.823	1287.247	1016.939
115.206	20.742	1286.201	1015.551
116.220	20.780	1285.100	1014.816
117.235	20.789	1284.371	1014.203
118.249	20.731	1283.418	1013.022
119.264	20.787	1282.557	1012.580
120.279	20.868	1281.512	1012.132
121.293	20.809	1280.878	1011.199
122.308	20.856	1279.772	1010.512
123.322	20.834	1278.472	1009.269
124.337	20.758	1277.919	1008.300
125.352	20.733	1276.881	1007.250
126.366	20.819	1276.451	1007.315
127.381	20.859	1274.590	1005.991
128.395	20.739	1274.124	1004.842
129.410	20.873	1272.790	1004.473
130.424	20.773	1272.606	1003.663
131.439	20.813	1271.482	1002.918
132.454	20.819	1270.656	1002.211
133.468	20.850	1269.652	1001.513
134.483	20.857	1268.980	1000.930
135.497	20.796	1268.619	1000.208
136.512	20.859	1266.954	999.168
137.527	20.889	1265.966	998.469
138.541	20.798	1264.663	996.833
139.556	20.783	1263.267	995.561
140.570	20.837	1262.553	995.220
141.585	20.822	1260.919	993.759
142.600	20.720	1260.132	992.468
143.614	20.637	1259.642	991.518
144.629	20.765	1258.168	991.001
145.643	20.635	1257.161	989.383
146.658	20.597	1256.404	988.484
147.673	20.746	1255.080	988.201
148.687	20.692	1254.220	987.127
149.702	20.725	1253.029	986.289
150.716	20.718	1252.187	985.503
151.731	20.669	1251.122	984.296
152.746	20.764	1249.890	983.779
153.760	20.837	1248.323	982.872
154.775	20.896	1247.834	982.733
155.789	20.768	1247.141	981.378
156.804	20.750	1246.238	980.476
157.819	20.803	1245.437	980.061
158.833	20.822	1244.301	979.186
159.848	20.925	1243.092	978.727
160.862	20.763	1243.064	977.708
161.877	20.876	1242.029	977.440
162.892	20.847	1241.485	976.765
163.906	21.002	1240.058	976.425
164.921	20.883	1239.925	975.567
165.935	20.863	1238.771	974.458
166.950	20.911	1238.360	974.319
167.964	20.901	1237.610	973.588
168.979	20.866	1237.132	972.928
169.994	21.003	1236.262	972.924
171.008	20.937	1235.731	972.050
172.023	21.014	1234.535	971.455
173.037	20.931	1234.243	970.673
174.052	21.018	1232.887	970.005
175.067	20.993	1232.525	969.497
176.081	20.884	1231.892	968.308
177.096	20.866	1231.258	967.624
178.110	20.908	1230.008	966.786
179.125	21.048	1228.590	966.365
180.140	20.985	1228.139	965.577
181.154	20.955	1226.647	964.149
182.169	20.910	1225.447	962.873
183.183	20.839	1225.039	962.076
184.198	20.962	1223.685	961.604
185.213	21.052	1222.638	961.195
186.227	21.121	1221.930	960.933
187.242	21.138	1220.663	959.943
188.256	21.040	1220.305	959.040
189.271	20.907	1219.616	957.681
190.286	21.037	1218.644	957.546
191.300	20.953	1218.197	956.648
192.315	20.901	1217.914	956.059
193.329	20.993	1217.162	955.888
194.344	21.073	1216.730	955.900
195.359	21.086	1216.283	955.535
196.373	21.083	1215.570	954.879
197.388	20.970	1215.120	953.819
198.402	20.922	1214.873	953.277
199.417	21.034	1214.388	953.427
200.432	21.116	1213.455	953.056
201.446	20.907	1213.512	951.876
202.461	21.068	1212.242	951.677
203.475	20.957	1211.899	950.715
204.490	20.910	1211.073	949.725
205.504	21.039	1209.576	949.173
206.519	21.044	1208.970	948.638
207.534	21.111	1207.649	947.885
208.548	21.029	1207.224	947.020
209.563	21.095	1206.077	946.395
210.577	21.136	1205.115	945.779
211.592	21.099	1204.649	945.129
212.607	21.163	1203.941	944.837
213.621	21.111	1203.273	943.944
214.636	21.179	1202.390	943.536
215.650	21.098	1201.581	942.380
216.665	21.168	1200.612	941.917
217.680	21.128	1199.299	940.586
218.694	21.166	1198.801	940.318
219.709	21.132	1198.192	939.574
220.723	21.114	1197.564	938.900
221.738	21.180	1196.520	938.355
222.753	20.999	1196.119	936.984
223.767	21.154	1195.679	937.389
224.782	21.183	1194.825	936.793
225.796	21.261	1194.403	936.795
226.811	21.219	1193.933	936.120
227.826	21.274	1193.280	935.818
228.840	21.293	1192.552	935.271
229.855	21.134	1192.141	934.010
230.869	21.365	1191.197	934.423
231.884	21.285	1190.333	933.237
232.899	21.110	1190.152	932.079
233.913	21.335	1189.442	932.639
234.928	21.367	1189.123	932.479
235.942	21.343	1188.088	931.459
236.957	21.262	1187.803	930.721
237.972	21.278	1186.719	929.873
238.986	21.253	1186.419	929.423
240.001	21.395	1185.626	929.471
241.015	21.390	1184.583	928.546
242.030	21.387	1183.754	927.801
243.045	21.487	1182.598	927.339
244.059	21.334	1182.337	926.244
245.074	21.487	1181.678	926.455
246.088	21.429	1180.859	925.426
247.103	21.385	1180.536	924.857
248.117	21.475	1178.957	924.013
249.132	21.466	1178.616	923.618
250.147	21.458	1178.109	923.095
251.161	21.477	1177.051	922.286
252.176	21.457	1176.442	921.620
253.190	21.447	1175.781	920.968
254.205	21.414	1175.747	920.687
255.220	21.450	1174.649	919.936
256.234	21.506	1174.366	919.924
257.249	21.580	1173.543	919.590
258.263	21.456	1173.070	918.485
259.278	21.456	1172.497	917.955
260.293	21.439	1172.149	917.516
261.307	21.559	1171.247	917.357
262.322	21.505	1170.637	916.513
263.336	21.411	1170.182	915.585
264.351	21.492	1169.670	915.528
265.366	21.528	1169.295	915.340
266.380	21.612	1167.948	914.644
267.395	21.571	1167.427	913.941
268.409	21.466	1166.858	912.868
269.424	21.519	1166.513	912.791
270.439	21.427	1166.595	912.298
271.453	21.563	1165.341	911.941
272.468	21.527	1164.506	911.022
273.482	21.509	1163.884	910.358
274.497	21.562	1163.123	909.960
275.512	21.658	1162.543	909.926
276.526	21.640	1161.812	909.177
277.541	21.645	1161.077	908.550
278.555	21.678	1160.922	908.519
279.570	21.689	1159.930	907.716
280.585	21.580	1159.287	906.571
281.599	21.614	1158.717	906.220
282.614	21.669	1157.417	905.407
283.628	21.739	1156.399	904.893
284.643	21.679	1155.801	904.032
285.657	21.669	1155.412	903.599
286.672	21.802	1153.984	903.090
287.687	21.677	1153.520	901.999
288.701	21.778	1152.679	901.784
289.716	21.731	1152.064	900.980
290.730	21.851	1151.017	900.699
291.745	21.748	1151.125	900.174
292.760	21.759	1150.366	899.555
293.774	21.734	1149.850	898.946
294.789	21.713	1149.422	898.425
295.803	21.805	1148.696	898.249
296.818	21.788	1148.002	897.540
297.833	21.826	1147.162	897.000
298.847	21.896	1146.034	896.394
299.862	21.825	1145.590	895.605
300.876	21.952	1144.875	895.616
301.891	21.933	1144.084	894.820
302.906	21.905	1143.816	894.389
303.920	21.869	1143.452	893.840
304.935	21.988	1142.586	893.689
305.949	21.949	1141.830	892.821
306.964	21.921	1141.188	892.099
307.979	21.876	1140.670	891.386
308.993	22.000	1139.571	891.079
310.008	21.950	1139.011	890.309
311.022	21.893	1138.437	889.493
312.037	21.981	1137.262	888.941
313.052	21.896	1136.807	888.078
314.066	21.933	1136.021	887.570
315.081	22.055	1134.781	887.138
316.095	22.039	1134.427	886.705
317.110	22.074	1133.854	886.351
318.125	22.069	1133.284	885.806
319.139	21.996	1132.908	885.066
320.154	22.082	1132.388	885.010
321.168	22.063	1131.629	884.246
322.183	21.994	1131.024	883.347
323.197	21.900	1130.658	882.508
324.212	21.946	1130.185	882.296
325.227	22.036	1129.523	882.149
326.241	22.007	1129.269	881.728
327.256	22.062	1128.046	880.973
328.270	22.106	1127.196	880.450
329.285	22.075	1126.470	879.651
330.300	22.063	1125.814	879.001
331.314	22.064	1124.994	878.290
332.329	22.178	1123.874	877.907
333.343	22.209	1123.162	877.425
334.358	22.146	1122.638	876.624
335.373	22.163	1122.014	876.144
336.387	22.197	1121.333	875.707
337.402	22.282	1120.609	875.487
338.416	22.387	1119.130	874.773
339.431	22.325	1119.137	874.392
340.446	22.316	1118.570	873.827
341.460	22.306	1118.069	873.312
342.475	22.252	1117.388	872.436
343.489	22.238	1116.503	871.596
344.504	22.278	1115.608	871.019
345.519	22.217	1114.368	869.671
346.533	22.287	1114.030	869.674
347.548	22.311	1113.400	869.228
348.562	22.423	1112.034	868.637
349.577	22.464	1111.733	868.528
350.592	22.264	1111.193	867.043
351.606	22.215	1110.749	866.377
352.621	22.372	1109.786	866.321
353.635	22.454	1109.151	866.152
354.650	22.532	1107.990	865.553
355.665	22.399	1107.931	864.775
356.679	22.470	1107.278	864.538
357.694	22.453	1106.629	863.870
358.708	22.465	1106.292	863.593
359.723	22.355	1105.297	862.200
360.738	22.495	1104.615	862.276
361.752	22.405	1104.461	861.638
362.767	22.392	1104.376	861.434
363.781	22.530	1103.630	861.450
364.796	22.654	1102.530	861.122
365.810	22.428	1102.390	859.831
366.825	22.504	1101.432	859.380
367.840	22.578	1101.332	859.586
368.854	22.562	1100.412	858.714
369.869	22.506	1100.039	858.075
370.883	22.544	1098.693	857.134
371.898	22.506	1098.283	856.555
372.913	22.609	1097.856	856.645
373.927	22.588	1097.467	856.161
374.942	22.490	1097.155	855.368
375.956	22.594	1096.636	855.393
376.971	22.603	1096.095	854.940
377.986	22.506	1095.538	853.959
379.000	22.636	1094.689	853.848
380.015	22.758	1094.007	853.836
381.029	22.807	1093.224	853.384
382.044	22.759	1092.392	852.429
383.059	22.715	1092.045	851.869
384.073	22.758	1090.953	851.151
385.088	22.823	1090.456	850.997
386.102	22.761	1089.701	850.036
387.117	22.792	1088.573	849.230
388.132	22.766	1087.837	848.456
389.146	22.784	1087.455	848.167
390.161	22.772	1086.795	847.520
391.175	22.826	1086.097	847.162
392.190	22.756	1085.509	846.292
393.205	22.811	1084.651	845.809
394.219	22.764	1084.111	845.090
395.234	22.786	1083.252	844.453
396.248	22.849	1082.433	844.041
397.263	22.889	1081.566	843.482
398.278	23.023	1080.781	843.432
399.292	23.031	1080.231	842.966
400.307	22.989	1079.675	842.260
401.321	22.897	1079.108	841.304
402.336	22.931	1078.413	840.846
403.350	22.922	1077.829	840.274
404.365	23.055	1077.105	840.269
405.380	23.013	1076.183	839.277
406.394	23.058	1075.424	838.825
407.409	22.969	1074.837	837.870
408.423	23.039	1074.555	837.907
409.438	23.170	1073.709	837.796
410.453	23.051	1073.298	836.835
411.467	23.001	1072.079	835.572
412.482	23.132	1070.967	835.251
413.496	23.042	1070.660	834.516
414.511	23.045	1070.026	833.962
415.526	23.093	1069.516	833.717
416.540	23.068	1069.128	833.221
417.555	23.170	1068.633	833.244
418.569	23.116	1068.278	832.638
419.584	23.192	1068.243	832.894
420.599	23.248	1067.231	832.294
421.613	149.097	1398.980	1796.783
422.628	137.284	1447.302	1796.864
