DTS Sentinel unit serial number:	SN413079Multiplexer serial number:	ORYXHardware model number:	OX4-SRSoftware version number:	ORYX F/W v4.00 Oryx Data Collector v3.7.2.0data status	okinstallation	princeton_trtdifferential loss correction	single-endedforward channel	channel 2reverse channel	N/Adate	2019/09/11time	02:53:10forward acquisition time	60.00reverse acquisition time	0.00gamma	496.2192k internal	0.2332k external	0.2332temperature offset calibration	0.9935default loss term (dB/km)	0.3790temperature slope calibration	1.0000multiplexer offset coefficient	1.0000multiplexer slope coefficient	1.0000fibre end	0.00T internal ref (°C)	29.31T ext. ref 1 (°C)	-0.32T ext. ref 2 (°C)	23.67length (m)	temperature (°C)	Stokes	anti-Stokes-747.200	106.233	-0.263	0.313
-746.185	-50.495	-0.345	0.164
-745.171	15.451	0.162	0.128
-744.156	-200.000	-0.021	0.241
-743.142	176.310	-0.060	0.087
-742.127	-63.141	0.206	0.086
-741.112	291.695	-0.169	0.309
-740.098	-107.273	-0.219	0.048
-739.083	73.015	0.155	-0.163
-738.069	156.834	0.180	0.251
-737.054	59.137	0.243	-0.240
-736.039	-1.413	-0.192	0.136
-735.025	-6.535	0.410	0.281
-734.010	606.685	-0.130	0.326
-732.996	-79.602	-0.267	-0.090
-731.981	-78.638	-0.245	-0.084
-730.966	-75.986	-0.193	0.069
-729.952	138.824	0.094	-0.124
-728.937	-82.487	-0.310	-0.101
-727.923	800.000	0.014	-0.043
-726.908	50.193	-0.193	-0.183
-725.894	-200.000	0.006	-0.307
-724.879	82.085	0.178	-0.194
-723.864	-200.000	-0.022	-0.348
-722.850	-133.405	0.172	0.022
-721.835	-68.202	-0.281	0.110
-720.821	108.902	-0.191	-0.229
-719.806	-6.620	0.179	0.122
-718.791	800.000	0.043	-0.126
-717.777	-46.259	-0.157	-0.078
-716.762	-15.678	0.376	-0.241
-715.748	211.850	-0.076	0.120
-714.733	139.003	-0.083	0.109
-713.718	426.284	-0.131	-0.284
-712.704	-38.063	-0.334	-0.178
-711.689	-75.998	-0.079	-0.028
-710.675	-119.143	0.315	0.055
-709.660	800.000	-0.048	0.165
-708.645	-25.743	-0.295	0.175
-707.631	-115.700	-0.183	-0.034
-706.616	56.660	-0.131	0.128
-705.602	-200.000	0.015	0.195
-704.587	-174.399	0.082	0.002
-703.572	-74.877	0.144	0.052
-702.558	-200.000	-0.019	-0.138
-701.543	201.401	0.152	-0.235
-700.529	62.584	-0.052	0.052
-699.514	-81.334	0.118	-0.039
-698.499	-200.000	0.001	-0.200
-697.485	-200.000	-0.006	0.032
-696.470	714.018	0.066	0.177
-695.456	80.564	-0.170	0.184
-694.441	327.579	-0.027	0.051
-693.426	-42.803	0.222	0.113
-692.412	27.612	0.374	0.316
-691.397	-37.279	0.225	-0.121
-690.383	-200.000	-0.015	0.241
-689.368	-78.107	0.100	0.034
-688.354	176.177	0.194	-0.283
-687.339	-147.155	0.133	0.011
-686.324	-6.457	0.250	-0.171
-685.310	-200.000	0.028	-0.201
-684.295	-26.984	0.175	-0.102
-683.281	314.616	-0.111	-0.210
-682.266	-39.474	-0.109	0.057
-681.251	-115.181	-0.560	0.106
-680.237	-174.672	-0.078	0.002
-679.222	-39.021	-0.269	-0.142
-678.208	-15.384	-0.225	-0.144
-677.193	-133.901	-0.083	-0.010
-676.178	-200.000	-0.018	-0.119
-675.164	-103.563	-0.180	-0.042
-674.149	-200.000	-0.009	0.050
-673.135	98.628	-0.188	0.217
-672.120	-11.369	-0.162	0.107
-671.105	-51.133	-0.261	0.123
-670.091	518.473	-0.087	-0.205
-669.076	800.000	-0.078	0.271
-668.062	142.425	0.113	-0.151
-667.047	-111.758	-0.403	-0.082
-666.032	-147.417	0.189	-0.016
-665.018	-200.000	-0.056	0.270
-664.003	160.074	0.104	0.146
-662.989	-200.000	-0.012	-0.139
-661.974	-200.000	0.026	-0.197
-660.959	299.461	0.072	0.133
-659.945	97.266	-0.082	-0.094
-658.930	800.000	-0.035	-0.101
-657.916	36.321	0.081	-0.072
-656.901	39.423	-0.149	0.134
-655.886	-90.681	-0.402	-0.116
-654.872	-200.000	-0.034	-0.153
-653.857	-29.835	-0.148	-0.084
-652.843	31.312	-0.286	0.246
-651.828	-114.368	0.091	0.018
-650.814	199.436	-0.154	0.237
-649.799	-182.675	0.390	0.007
-648.784	-200.000	-0.010	-0.321
-647.770	-81.669	-0.199	-0.066
-646.755	-104.112	0.216	0.050
-645.741	800.000	-0.111	-0.351
-644.726	-200.000	-0.007	-0.451
-643.711	115.693	-0.123	-0.151
-642.697	192.759	0.059	-0.089
-641.682	800.000	0.101	0.349
-640.668	-132.867	-0.131	0.017
-639.653	-5.932	-0.151	0.103
-638.638	-59.739	0.112	0.048
-637.624	-169.888	-0.186	-0.007
-636.609	-30.055	0.156	-0.089
-635.595	-200.000	-0.016	-0.265
-634.580	-200.000	0.023	-0.239
-633.565	-200.000	-0.009	-0.450
-632.551	278.572	0.018	-0.032
-631.536	-200.000	-0.007	0.143
-630.522	-138.649	-0.277	0.030
-629.507	-49.128	-0.285	-0.136
-628.492	-157.465	0.221	0.013
-627.478	800.000	-0.061	0.184
-626.463	206.545	-0.175	-0.272
-625.449	42.794	-0.197	-0.180
-624.434	132.170	-0.110	-0.142
-623.419	-3.497	-0.401	-0.280
-622.405	262.401	-0.209	-0.364
-621.390	-200.000	-0.046	-0.511
-620.376	189.538	-0.162	-0.243
-619.361	214.110	-0.012	0.018
-618.346	-200.000	0.000	0.220
-617.332	-36.237	-0.247	-0.133
-616.317	-132.419	0.058	0.008
-615.303	189.477	0.095	-0.143
-614.288	20.023	0.129	-0.104
-613.273	-73.083	-0.163	-0.060
-612.259	-154.763	-0.185	0.012
-611.244	42.003	-0.286	-0.259
-610.230	-86.048	0.172	-0.053
-609.215	-9.346	0.171	-0.114
-608.201	207.838	-0.161	-0.251
-607.186	-91.701	0.298	0.085
-606.171	-57.006	-0.237	-0.105
-605.157	-42.844	0.200	-0.102
-604.142	-13.075	-0.158	0.103
-603.128	106.240	0.135	-0.160
-602.113	-200.000	0.003	-0.227
-601.098	-105.623	-0.086	0.019
-600.084	564.395	0.083	0.202
-599.069	-200.000	-0.013	-0.093
-598.055	244.045	0.213	-0.357
-597.040	623.418	-0.147	-0.371
-596.025	37.404	-0.367	-0.326
-595.011	-200.000	0.008	-0.173
-593.996	-112.275	0.049	0.010
-592.982	-200.000	-0.029	-0.258
-591.967	6.271	-0.261	0.194
-590.952	-200.000	-0.065	0.319
-589.938	-200.000	0.013	-0.254
-588.923	304.299	-0.162	-0.301
-587.909	-93.716	0.306	-0.084
-586.894	321.694	-0.178	0.340
-585.879	-200.000	0.053	-0.271
-584.865	510.142	0.086	0.199
-583.850	-200.000	0.061	-0.362
-582.836	-25.728	0.147	0.087
-581.821	800.000	0.075	0.221
-580.806	5.515	-0.077	-0.057
-579.792	-12.283	-0.238	-0.156
-578.777	149.546	0.113	-0.153
-577.763	-94.391	-0.321	0.088
-576.748	-108.255	0.033	-0.007
-575.733	800.000	0.054	0.163
-574.719	181.209	-0.280	-0.411
-573.704	800.000	-0.075	0.317
-572.690	-110.415	0.196	-0.041
-571.675	-200.000	0.044	-0.213
-570.661	-179.800	0.213	0.005
-569.646	-200.000	0.009	0.161
-568.631	-68.507	0.198	-0.077
-567.617	-114.505	-0.212	0.041
-566.602	-23.604	-0.335	0.201
-565.588	53.491	-0.111	0.106
-564.573	-200.000	0.007	-0.152
-563.558	48.318	-0.014	0.013
-562.544	-99.795	-0.277	-0.069
-561.529	-143.666	-0.153	0.014
-560.515	-77.952	0.167	-0.058
-559.500	-107.942	-0.472	0.102
-558.485	203.313	-0.048	0.075
-557.471	9.375	0.349	0.264
-556.456	-200.000	0.045	-0.369
-555.442	325.022	0.025	-0.047
-554.427	800.000	-0.041	0.126
-553.412	-120.548	-0.292	0.049
-552.398	-10.417	-0.212	0.140
-551.383	344.305	0.181	-0.355
-550.369	29.286	0.200	-0.169
-549.354	545.425	-0.148	0.354
-548.339	-42.972	-0.050	-0.025
-547.325	-63.855	-0.381	-0.156
-546.310	-17.651	0.148	-0.093
-545.296	-100.151	-0.314	0.078
-544.281	-200.000	0.014	0.075
-543.266	-50.131	-0.114	-0.054
-542.252	105.751	0.088	-0.103
-541.237	-4.016	-0.131	0.091
-540.223	-135.344	-0.079	0.009
-539.208	800.000	-0.028	0.114
-538.193	-92.503	-0.108	-0.030
-537.179	102.235	-0.193	0.225
-536.164	-35.973	-0.141	0.076
-535.150	19.982	0.405	-0.326
-534.135	103.359	-0.215	-0.252
-533.121	445.199	-0.062	-0.136
-532.106	-200.000	0.012	-0.116
-531.091	-171.337	0.149	0.005
-530.077	251.157	-0.022	-0.037
-529.062	-200.000	-0.020	-0.369
-528.048	800.000	-0.128	-0.530
-527.033	-52.758	-0.099	0.046
-526.018	238.904	0.032	0.052
-525.004	-200.000	-0.003	-0.280
-523.989	-84.015	-0.469	-0.149
-522.975	-79.501	-0.056	0.019
-521.960	56.391	0.182	-0.176
-520.945	-67.193	-0.087	0.034
-519.931	800.000	0.031	-0.101
-518.916	266.064	-0.164	-0.285
-517.902	-35.816	0.297	0.160
-516.887	-122.609	-0.503	-0.081
-515.872	-4.404	0.289	-0.199
-514.858	-24.026	-0.349	-0.208
-513.843	-112.057	0.216	0.043
-512.829	800.000	0.030	0.102
-511.814	-200.000	0.006	0.133
-510.799	16.298	0.105	0.082
-509.785	-98.176	0.257	0.066
-508.770	-144.991	-0.089	0.008
-507.756	-176.186	0.199	-0.005
-506.741	426.543	0.054	-0.117
-505.726	-5.295	-0.102	0.070
-504.712	260.636	0.157	-0.271
-503.697	21.694	0.158	-0.129
-502.683	-17.143	0.241	-0.152
-501.668	449.530	0.050	0.109
-500.653	169.880	-0.230	0.328
-499.639	673.898	0.064	0.165
-498.624	77.578	0.081	0.086
-497.610	284.112	0.105	-0.188
-496.595	726.955	-0.017	0.044
-495.581	10.184	0.109	0.083
-494.566	346.333	0.111	-0.218
-493.551	247.218	0.161	-0.272
-492.537	-172.700	0.321	0.010
-491.522	-200.000	-0.016	-0.102
-490.508	-200.000	-0.054	0.460
-489.493	-62.783	0.142	-0.059
-488.478	115.580	-0.116	0.142
-487.464	-200.000	0.051	-0.254
-486.449	800.000	0.018	-0.050
-485.435	-2.236	0.254	0.178
-484.420	-200.000	0.007	0.164
-483.405	529.283	-0.051	0.121
-482.391	-200.000	-0.014	0.074
-481.376	520.469	-0.087	-0.202
-480.362	-89.796	-0.202	-0.059
-479.347	-83.602	0.110	-0.035
-478.332	-200.000	0.009	-0.094
-477.318	800.000	-0.059	0.168
-476.303	79.634	-0.047	0.051
-475.289	-136.521	-0.109	-0.013
-474.274	103.036	-0.116	0.135
-473.259	10.503	0.308	0.234
-472.245	52.055	0.253	-0.240
-471.230	-200.000	0.014	0.118
-470.216	125.042	-0.218	0.273
-469.201	800.000	0.055	0.156
-468.186	20.673	0.172	0.139
-467.172	199.522	0.024	0.037
-466.157	133.213	0.053	0.068
-465.143	323.119	0.107	0.202
-464.128	-130.744	0.173	-0.023
-463.113	61.875	-0.062	-0.061
-462.099	439.742	0.149	0.325
-461.084	800.000	0.036	0.140
-460.070	-169.519	0.100	-0.004
-459.055	-200.000	0.051	0.378
-458.040	11.156	0.213	0.162
-457.026	-102.259	0.152	-0.036
-456.011	13.073	0.255	-0.197
-454.997	-130.052	0.151	-0.020
-453.982	424.999	-0.076	0.162
-452.968	-90.619	0.195	0.056
-451.953	-200.000	0.069	-0.310
-450.938	351.864	-0.160	-0.316
-449.924	-91.646	0.083	0.024
-448.909	-154.048	0.309	0.021
-447.895	337.637	-0.080	0.155
-446.880	-200.000	0.077	0.350
-445.865	-125.351	0.346	0.052
-444.851	800.000	0.025	0.077
-443.836	18.251	0.325	0.258
-442.822	375.502	0.163	-0.331
-441.807	143.046	0.228	0.301
-440.792	355.804	-0.094	-0.186
-439.778	-200.000	0.034	-0.156
-438.763	-200.000	0.005	-0.267
-437.749	-149.612	0.167	-0.013
-436.734	-131.594	0.061	0.008
-435.719	-200.000	0.002	0.098
-434.705	-32.537	0.132	-0.073
-433.690	-115.602	0.139	-0.026
-432.676	-89.171	-0.251	0.074
-431.661	800.000	-0.052	0.199
-430.646	-200.000	-0.037	-0.169
-429.632	20.852	-0.175	0.141
-428.617	-149.910	0.262	-0.020
-427.603	-21.154	0.115	-0.070
-426.588	-62.232	0.135	-0.056
-425.573	115.844	0.176	-0.214
-424.559	97.191	0.156	-0.178
-423.544	487.388	0.028	0.063
-422.530	-43.183	-0.105	-0.053
-421.515	-200.000	-0.002	0.177
-420.500	-109.569	-0.112	0.023
-419.486	-128.210	0.324	0.046
-418.471	-110.192	-0.226	-0.047
-417.457	800.000	-0.094	0.333
-416.442	-21.723	0.155	-0.094
-415.428	-106.671	0.092	-0.020
-414.413	800.000	-0.038	-0.163
-413.398	326.189	-0.039	-0.075
-412.384	-174.206	-0.426	-0.012
-411.369	-134.106	0.137	0.017
-410.355	-200.000	0.051	0.469
-409.340	-11.155	-0.118	0.077
-408.325	-200.000	-0.024	0.147
-407.311	-91.360	0.220	0.063
-406.296	255.331	-0.095	0.162
-405.282	172.822	0.164	-0.235
-404.267	98.694	-0.144	-0.165
-403.252	467.759	0.097	0.216
-402.238	85.181	0.186	0.202
-401.223	800.000	-0.096	-0.271
-400.209	-200.000	-0.030	0.191
-399.194	239.109	0.096	0.159
-398.179	-134.710	0.216	-0.026
-397.165	-47.020	-0.193	-0.093
-396.150	-97.442	-0.273	0.071
-395.136	-200.000	-0.034	0.235
-394.121	44.581	-0.227	-0.207
-393.106	-200.000	-0.019	-0.313
-392.092	265.561	-0.049	-0.084
-391.077	59.187	-0.174	0.170
-390.063	-49.328	0.260	0.123
-389.048	-200.000	-0.055	-0.425
-388.033	800.000	-0.091	-0.251
-387.019	-147.736	-0.149	0.012
-386.004	-5.325	-0.300	-0.204
-384.990	-91.881	-0.132	-0.037
-383.975	31.794	-0.179	-0.153
-382.960	-67.632	-0.244	0.095
-381.946	-147.585	0.369	0.031
-380.931	233.170	0.079	0.129
-379.917	158.172	-0.196	-0.270
-378.902	132.045	0.304	-0.389
-377.888	-200.000	0.012	-0.123
-376.873	-200.000	0.050	0.263
-375.858	-24.285	-0.080	-0.048
-374.844	-6.917	-0.244	0.164
-373.829	0.688	-0.162	-0.115
-372.815	430.249	-0.068	-0.146
-371.800	-38.593	0.101	0.053
-370.785	267.846	0.152	0.265
-369.771	9.875	0.201	0.151
-368.756	73.900	-0.185	-0.192
-367.742	-13.488	-0.175	-0.112
-366.727	-10.059	0.118	0.078
-365.712	20.384	-0.261	-0.209
-364.698	-200.000	0.035	0.285
-363.683	165.686	0.145	0.203
-362.669	-26.977	0.177	0.103
-361.654	-200.000	0.005	-0.085
-360.639	7.686	-0.059	-0.044
-359.625	64.395	0.224	-0.224
-358.610	-91.592	0.264	-0.075
-357.596	-92.851	0.146	0.040
-356.581	11.273	-0.130	-0.099
-355.566	192.727	0.185	0.276
-354.552	-200.000	0.011	0.401
-353.537	-200.000	0.041	0.316
-352.523	800.000	-0.028	0.116
-351.508	-1.387	0.149	0.104
-350.493	160.411	0.067	-0.092
-349.479	90.998	0.090	0.100
-348.464	-123.224	-0.176	0.028
-347.450	-134.740	0.445	0.054
-346.435	29.865	-0.122	-0.103
-345.420	-200.000	0.019	-0.128
-344.406	-80.253	-0.091	-0.030
-343.391	37.581	-0.262	0.230
-342.377	-118.001	0.130	0.023
-341.362	-200.000	0.014	0.343
-340.348	-122.801	-0.213	-0.034
-339.333	-77.637	0.224	0.077
-338.318	238.749	-0.092	-0.151
-337.304	306.777	-0.087	-0.160
-336.289	175.702	-0.143	0.205
-335.275	140.279	0.085	-0.112
-334.260	394.852	0.101	-0.209
-333.245	-66.442	-0.142	-0.056
-332.231	187.483	0.048	0.070
-331.216	-134.788	-0.131	-0.016
-330.202	108.818	-0.290	0.344
-329.187	25.363	0.293	0.241
-328.172	271.119	-0.081	0.142
-327.158	-200.000	-0.007	-0.069
-326.143	-28.335	-0.111	-0.064
-325.129	-141.428	-0.108	-0.011
-324.114	-200.000	-0.023	0.242
-323.099	231.618	-0.103	-0.167
-322.085	145.231	-0.138	-0.183
-321.070	-181.680	0.241	-0.005
-320.056	-200.000	-0.031	0.185
-319.041	-164.019	0.316	0.015
-318.026	-200.000	0.035	-0.413
-317.012	-126.356	-0.090	0.013
-315.997	334.873	0.106	-0.202
-314.983	136.000	-0.045	0.058
-313.968	-98.463	-0.152	0.039
-312.953	-64.084	-0.238	0.096
-311.939	-91.937	-0.134	-0.038
-310.924	-102.681	0.120	0.028
-309.910	800.000	-0.027	-0.081
-308.895	122.409	0.221	0.274
-307.880	71.502	-0.042	-0.043
-306.866	800.000	0.053	-0.229
-305.851	-155.165	-0.256	-0.017
-304.837	19.818	0.226	0.180
-303.822	800.000	0.048	0.168
-302.807	-39.546	-0.253	0.131
-301.793	0.613	0.157	0.111
-300.778	-200.000	-0.071	0.321
-299.764	5.403	-0.139	0.102
-298.749	77.967	-0.042	-0.044
-297.735	-200.000	-0.008	0.103
-296.720	422.427	-0.202	0.428
-295.705	24.884	0.053	-0.043
-294.691	-86.569	0.185	-0.056
-293.676	-78.159	0.250	0.085
-292.662	-58.165	-0.136	0.058
-291.647	71.847	0.048	-0.050
-290.632	32.851	-0.163	0.140
-289.618	-200.000	-0.005	-0.065
-288.603	-185.717	0.199	0.003
-287.589	279.983	0.137	0.243
-286.574	382.652	0.084	0.171
-285.559	-105.330	-0.212	-0.048
-284.545	632.315	0.072	-0.179
-283.530	-111.913	0.237	0.047
-282.516	-61.971	-0.076	0.032
-281.501	0.793	-0.082	-0.058
-280.486	-89.675	0.286	0.083
-279.472	-127.844	-0.293	0.042
-278.457	14.974	0.150	0.116
-277.443	800.000	-0.063	-0.177
-276.428	-73.847	-0.303	0.109
-275.413	-72.612	0.152	0.055
-274.399	234.145	-0.082	0.134
-273.384	-200.000	0.035	0.185
-272.370	-11.901	0.062	0.040
-271.355	-200.000	-0.009	-0.099
-270.340	-104.858	-0.230	-0.052
-269.326	800.000	0.010	0.033
-268.311	-17.538	-0.284	-0.176
-267.297	-108.907	0.369	-0.078
-266.282	-200.000	0.038	-0.217
-265.267	-6.848	-0.221	-0.148
-264.253	-108.380	-0.313	-0.067
-263.238	19.334	0.336	-0.267
-262.224	78.827	0.020	-0.021
-261.209	44.595	-0.209	-0.190
-260.195	-200.000	0.029	-0.156
-259.180	-200.000	-0.028	0.474
-258.165	800.000	0.065	0.223
-257.151	1.002	0.171	-0.121
-256.136	3.949	-0.076	-0.055
-255.122	-129.469	0.318	0.044
-254.107	-200.000	-0.018	0.147
-253.092	58.148	0.121	-0.117
-252.078	212.512	-0.217	0.338
-251.063	588.374	-0.038	0.092
-250.049	174.723	-0.164	0.234
-249.034	-200.000	0.012	-0.331
-248.019	-200.000	-0.029	0.384
-247.005	-74.840	-0.360	0.127
-245.990	10.794	-0.171	-0.129
-244.976	354.681	0.005	-0.009
-243.961	287.098	-0.133	0.238
-242.946	-108.090	0.183	0.039
-241.932	306.908	-0.018	0.034
-240.917	-150.750	0.316	0.024
-239.903	42.649	0.360	0.323
-238.888	-142.678	0.004	0.000
-237.873	-166.086	0.248	-0.010
-236.859	800.000	-0.072	-0.218
-235.844	566.589	0.067	-0.160
-234.830	340.006	0.195	0.375
-233.815	47.182	0.079	0.072
-232.800	-200.000	-0.067	0.320
-231.786	800.000	0.058	-0.206
-230.771	-131.792	-0.167	-0.022
-229.757	-71.655	-0.066	-0.024
-228.742	800.000	0.077	0.274
-227.727	800.000	0.063	0.195
-226.713	151.561	-0.072	-0.097
-225.698	-200.000	0.032	-0.194
-224.684	721.162	0.158	0.414
-223.669	574.127	-0.034	0.081
-222.655	229.252	-0.105	-0.170
-221.640	-93.725	-0.190	0.052
-220.625	-200.000	0.042	0.267
-219.611	373.881	0.053	0.107
-218.596	-82.923	-0.203	0.065
-217.582	-200.000	-0.007	0.181
-216.567	224.041	0.067	-0.107
-215.552	58.123	0.269	-0.259
-214.538	800.000	-0.089	-0.350
-213.523	-120.848	-0.079	0.013
-212.509	-43.130	-0.105	-0.052
-211.494	-33.669	-0.318	0.173
-210.479	86.860	0.095	0.103
-209.465	-67.141	-0.108	-0.042
-208.450	-148.185	-0.027	0.002
-207.436	-200.000	-0.022	0.276
-206.421	-57.304	0.306	-0.133
-205.406	176.440	-0.017	-0.024
-204.392	13.914	-0.035	0.027
-203.377	-133.015	-0.313	-0.039
-202.363	-94.959	0.446	0.119
-201.348	800.000	0.040	0.159
-200.333	60.553	0.309	-0.302
-199.319	29.295	0.204	0.170
-198.304	12.882	-0.229	0.175
-197.290	66.792	0.275	0.275
-196.275	-200.000	-0.002	-0.059
-195.260	193.007	0.059	0.087
-194.246	149.492	-0.139	0.185
-193.231	-5.937	-0.303	-0.204
-192.217	-169.984	0.349	0.012
-191.202	-95.857	0.230	0.060
-190.187	59.719	-0.143	-0.139
-189.173	18.912	-0.088	-0.070
-188.158	-200.000	-0.031	-0.273
-187.144	-55.574	-0.088	-0.039
-186.129	413.176	-0.056	-0.116
-185.114	-47.108	-0.171	0.082
-184.100	-50.013	0.349	0.163
-183.085	556.380	0.110	0.260
-182.071	318.214	-0.127	0.236
-181.056	607.941	0.129	0.316
-180.042	-200.000	0.018	0.141
-179.027	-178.935	0.094	-0.002
-178.012	800.000	0.076	0.266
-176.998	182.322	-0.070	0.102
-175.983	-200.000	-0.004	-0.346
-174.969	247.856	-0.138	0.230
-173.954	695.048	-0.063	0.162
-172.939	-83.174	-0.410	-0.130
-171.925	-127.197	0.190	-0.027
-170.910	-98.279	0.277	0.070
-169.896	603.002	0.073	-0.179
-168.881	326.311	0.066	-0.124
-167.866	-200.000	-0.020	0.141
-166.852	45.113	-0.080	0.073
-165.837	-38.043	-0.229	0.119
-164.823	143.094	-0.092	0.120
-163.808	-71.245	0.136	0.050
-162.793	30.185	0.048	0.040
-161.779	443.897	-0.067	-0.144
-160.764	-116.121	-0.045	0.008
-159.750	-119.621	0.047	0.008
-158.735	-68.928	0.257	-0.098
-157.720	-93.978	0.242	-0.065
-156.706	-118.950	-0.264	0.046
-155.691	-4.241	0.260	0.177
-154.677	328.207	-0.208	0.392
-153.662	-92.642	-0.289	-0.080
-152.647	-200.000	-0.002	-0.074
-151.633	-200.000	0.020	0.296
-150.618	73.376	0.297	0.305
-149.604	105.250	-0.203	-0.235
-148.589	497.712	-0.073	-0.165
-147.574	-29.011	0.261	0.147
-146.560	-157.577	0.224	0.013
-145.545	800.000	0.007	0.025
-144.531	473.918	0.101	-0.224
-143.516	11.541	-0.191	-0.144
-142.502	689.974	0.080	0.205
-141.487	-164.668	-0.212	0.009
-140.472	158.825	0.189	-0.258
-139.458	-200.000	0.002	0.387
-138.443	-200.000	0.005	0.170
-137.429	486.632	-0.015	-0.034
-136.414	358.605	-0.024	-0.048
-135.399	632.897	-0.094	0.233
-134.385	-155.992	-0.300	0.019
-133.370	44.984	0.068	0.061
-132.356	496.351	-0.081	-0.182
-131.341	400.454	0.255	0.526
-130.326	542.492	-0.102	0.239
-129.312	186.479	0.033	0.048
-128.297	92.466	0.132	0.146
-127.283	574.860	-0.069	-0.166
-126.268	-200.000	0.054	-0.316
-125.253	800.000	0.125	0.402
-124.239	800.000	0.055	0.167
-123.224	800.000	-0.037	0.129
-122.210	-83.253	-0.157	0.049
-121.195	-110.672	-0.095	0.019
-120.180	83.795	0.153	-0.164
-119.166	305.609	0.107	-0.196
-118.151	-134.745	0.129	0.015
-117.137	162.742	-0.063	0.087
-116.122	-32.666	-0.332	-0.181
-115.107	37.361	0.308	-0.268
-114.093	-127.372	0.326	-0.047
-113.078	-200.000	0.084	0.376
-112.064	27.123	0.078	-0.064
-111.049	-116.557	0.149	0.027
-110.034	-66.824	0.082	-0.032
-109.020	-200.000	0.001	-0.107
-108.005	-157.460	0.377	0.022
-106.991	-15.547	0.172	0.108
-105.976	320.870	0.006	0.012
-104.962	747.996	0.107	0.284
-103.947	46.726	0.108	-0.098
-102.932	800.000	0.066	0.202
-101.918	168.606	0.122	-0.170
-100.903	-137.287	0.469	0.052
-99.889	-75.968	0.246	0.085
-98.874	-200.000	0.007	0.043
-97.859	-150.086	0.084	0.006
-96.845	-65.701	-0.070	0.027
-95.830	-123.107	0.587	-0.092
-94.816	-29.235	-0.216	-0.122
-93.801	-200.000	0.084	-0.439
-92.786	56.343	-0.121	0.115
-91.772	783.468	0.046	-0.124
-90.757	87.073	0.022	0.024
-89.743	-5.807	0.104	-0.070
-88.728	-100.223	0.183	-0.045
-87.713	-164.601	0.510	0.023
-86.699	337.095	0.052	0.098
-85.684	-200.000	-0.014	0.105
-84.670	-37.450	0.191	0.100
-83.655	-200.000	-0.002	-0.139
-82.640	-111.161	0.215	-0.043
-81.626	-69.071	-0.360	0.136
-80.611	-45.376	0.179	0.087
-79.597	75.957	0.055	-0.057
-78.582	63.855	-0.184	-0.181
-77.567	-200.000	0.005	0.152
-76.553	78.327	-0.037	-0.039
-75.538	-116.408	0.268	-0.049
-74.524	-200.000	-0.017	-0.186
-73.509	-109.173	-0.113	-0.024
-72.494	-77.681	-0.155	0.052
-71.480	-22.607	-0.129	-0.077
-70.465	102.813	0.225	-0.258
-69.451	87.991	0.343	0.373
-68.436	561.219	0.074	0.174
-67.422	119.356	-0.253	0.306
-66.407	-184.172	0.277	-0.005
-65.392	117.554	-0.116	-0.140
-64.378	135.576	0.134	-0.171
-63.363	-70.028	-0.042	-0.016
-62.349	-200.000	-0.013	0.244
-61.334	70.696	-0.994	-1.007
-60.319	27.107	0.549	0.452
-59.305	711.581	-0.441	-1.142
-58.290	288.701	0.519	0.921
-57.276	159.174	0.766	1.044
-56.261	-200.000	106.557	618.737
-55.246	513.898	1511.515	3452.987
-54.232	175.046	2711.729	3845.901
-53.217	104.252	2299.968	2650.096
-52.203	38.494	1904.124	1662.374
-51.188	32.539	1690.080	1430.390
-50.173	29.913	1646.456	1373.950
-49.159	48.994	1700.498	1563.498
-48.144	49.091	1715.780	1578.218
-47.130	32.048	1672.756	1411.807
-46.115	29.365	1658.766	1379.901
-45.100	29.213	1653.507	1374.339
-44.086	29.250	1650.669	1372.205
-43.071	29.154	1648.238	1369.410
-42.057	29.210	1645.408	1367.420
-41.042	29.199	1643.907	1366.043
-40.027	29.272	1641.490	1364.520
-39.013	29.190	1639.890	1362.530
-37.998	29.165	1638.548	1361.173
-36.984	29.243	1637.206	1360.579
-35.969	29.396	1635.462	1360.204
-34.954	29.302	1634.514	1358.669
-33.940	29.328	1631.852	1356.594
-32.925	29.297	1630.668	1355.326
-31.911	29.319	1628.409	1353.559
-30.896	29.307	1626.689	1351.990
-29.881	29.282	1625.491	1350.758
-28.867	29.316	1623.308	1349.135
-27.852	29.304	1622.361	1348.205
-26.838	29.355	1620.596	1347.061
-25.823	29.386	1619.569	1346.378
-24.809	29.338	1618.201	1344.837
-23.794	29.313	1616.695	1343.348
-22.779	29.379	1615.448	1342.740
-21.765	29.348	1613.473	1340.823
-20.750	29.333	1611.832	1339.298
-19.736	29.259	1610.639	1337.711
-18.721	29.335	1609.340	1337.137
-17.706	29.291	1607.729	1335.425
-16.692	29.325	1606.093	1334.255
-15.677	29.356	1604.928	1333.461
-14.663	29.387	1603.487	1332.432
-13.648	29.278	1602.900	1331.106
-12.633	29.321	1600.878	1329.687
-11.619	29.343	1599.062	1328.279
-10.604	29.348	1597.442	1326.922
-9.590	29.366	1596.443	1326.166
-8.575	29.371	1595.147	1325.072
-7.560	29.294	1594.024	1323.533
-6.546	29.359	1593.211	1323.276
-5.531	29.322	1592.198	1322.113
-4.517	29.327	1590.975	1321.083
-3.502	29.359	1589.465	1320.008
-2.487	29.349	1587.970	1318.641
-1.473	29.173	1575.933	1307.346
-0.458	26.407	1556.995	1272.156
0.556	20.632	1558.453	1242.430
1.571	18.536	1583.368	1246.955
2.586	18.412	1596.707	1256.439
3.600	16.546	1544.084	1201.679
4.615	8.729	1434.482	1064.495
5.629	1.240	1370.607	969.294
6.644	-0.241	1362.529	954.087
7.659	-0.347	1361.116	952.342
8.673	-0.294	1360.519	952.175
9.688	-0.387	1358.213	949.886
10.702	-0.546	1355.219	946.707
11.717	2.973	1362.648	974.148
12.731	12.262	1379.858	1045.780
13.746	19.379	1392.800	1101.099
14.761	21.346	1394.321	1114.757
15.775	21.688	1393.990	1116.580
16.790	21.732	1393.784	1116.593
17.804	21.743	1393.518	1116.355
18.819	22.064	1392.523	1117.499
19.834	22.075	1392.555	1117.498
20.848	22.062	1391.755	1116.670
21.863	22.121	1390.670	1116.076
22.877	22.187	1390.074	1115.917
23.892	22.105	1389.354	1114.720
24.907	22.113	1388.310	1113.834
25.921	22.171	1387.190	1113.208
26.936	22.126	1386.269	1112.083
27.950	22.159	1385.273	1111.393
28.965	22.179	1383.828	1110.267
29.980	22.254	1382.528	1109.598
30.994	22.234	1381.395	1108.461
32.009	22.184	1380.307	1107.176
33.023	22.255	1379.339	1106.747
34.038	22.179	1378.708	1105.665
35.053	22.245	1377.193	1104.770
36.067	22.207	1376.184	1103.625
37.082	22.130	1375.949	1102.853
38.096	22.209	1374.073	1101.746
39.111	22.240	1373.986	1101.772
40.126	22.162	1372.698	1100.156
41.140	22.142	1372.576	1099.836
42.155	22.186	1371.871	1099.446
43.169	22.168	1372.228	1099.527
44.184	22.053	1372.483	1098.912
45.199	22.141	1371.173	1098.315
46.213	22.156	1370.061	1097.421
47.228	22.176	1369.924	1097.340
48.242	22.177	1368.507	1096.112
49.257	22.212	1367.088	1095.101
50.271	22.171	1365.678	1093.617
51.286	22.106	1364.854	1092.456
52.301	22.167	1363.371	1091.554
53.315	22.151	1362.481	1090.643
54.330	22.177	1361.146	1089.637
55.344	22.040	1360.749	1088.373
56.359	22.113	1359.126	1087.432
57.374	22.132	1358.564	1087.007
58.388	22.210	1357.811	1086.787
59.403	22.185	1357.504	1086.296
60.417	22.173	1356.465	1085.288
61.432	22.111	1356.219	1084.618
62.447	22.197	1354.806	1083.920
63.461	22.073	1354.115	1082.508
64.476	22.155	1353.125	1082.123
65.490	22.182	1351.797	1081.135
66.505	22.175	1350.562	1080.005
67.520	22.081	1349.500	1078.482
68.534	22.206	1347.892	1077.868
69.549	22.184	1346.900	1076.846
70.563	22.218	1346.119	1076.333
71.578	22.172	1345.662	1075.591
72.593	22.181	1344.580	1074.689
73.607	22.245	1343.700	1074.279
74.622	22.205	1343.305	1073.625
75.636	22.185	1341.912	1072.297
76.651	22.139	1341.558	1071.637
77.666	22.054	1341.597	1071.052
78.680	22.135	1340.568	1070.633
79.695	22.128	1339.767	1069.853
80.709	22.152	1338.984	1069.280
81.724	22.235	1337.910	1068.835
82.739	22.244	1336.707	1067.831
83.753	22.176	1335.975	1066.740
84.768	22.188	1334.503	1065.546
85.782	22.215	1333.687	1064.962
86.797	22.271	1332.238	1064.047
87.812	22.218	1331.350	1062.925
88.826	22.192	1330.306	1061.842
89.841	22.237	1329.391	1061.287
90.855	22.126	1328.608	1059.900
91.870	22.241	1327.553	1059.655
92.884	22.281	1326.786	1059.193
93.899	22.262	1326.096	1058.433
94.914	22.293	1325.130	1057.753
95.928	22.203	1324.205	1056.380
96.943	22.226	1323.708	1056.030
97.957	22.274	1322.956	1055.626
98.972	22.218	1321.767	1054.245
99.987	22.255	1320.594	1053.437
101.001	22.200	1319.891	1052.455
102.016	22.210	1318.880	1051.616
103.030	22.156	1318.680	1051.043
104.045	22.118	1317.528	1049.803
105.060	22.148	1316.533	1049.099
106.074	22.251	1315.097	1048.473
107.089	22.262	1314.396	1047.889
108.103	22.276	1313.227	1046.945
109.118	22.218	1311.932	1045.478
110.133	22.321	1310.842	1045.130
111.147	22.363	1309.346	1044.094
112.162	22.377	1308.132	1043.117
113.176	22.395	1307.235	1042.411
114.191	22.254	1306.787	1041.131
115.206	22.220	1305.794	1040.046
116.220	22.246	1304.711	1039.244
117.235	22.363	1303.114	1038.571
118.249	22.291	1302.225	1037.344
119.264	22.341	1301.797	1037.204
120.279	22.283	1300.950	1036.100
121.293	22.346	1299.959	1035.587
122.308	22.368	1298.905	1034.787
123.322	22.358	1298.251	1034.113
124.337	22.337	1297.478	1033.286
125.352	22.428	1296.221	1032.725
126.366	22.405	1295.083	1031.592
127.381	22.285	1294.663	1030.467
128.395	22.311	1293.663	1029.727
129.410	22.418	1292.637	1029.446
130.424	22.373	1292.272	1028.801
131.439	22.447	1291.025	1028.151
132.454	22.392	1290.462	1027.291
133.468	22.378	1289.979	1026.731
134.483	22.396	1288.867	1025.864
135.497	22.343	1288.577	1025.234
136.512	22.361	1287.447	1024.344
137.527	22.368	1285.678	1022.888
138.541	22.264	1284.801	1021.494
139.556	22.285	1283.552	1020.536
140.570	22.318	1282.742	1019.994
141.585	22.243	1281.685	1018.628
142.600	22.254	1281.038	1018.088
143.614	22.365	1279.566	1017.467
144.629	22.286	1278.552	1016.115
145.643	22.301	1277.702	1015.439
146.658	22.191	1277.056	1014.198
147.673	22.227	1275.820	1013.334
148.687	22.171	1274.721	1012.051
149.702	22.306	1273.225	1011.549
150.716	22.220	1272.730	1010.571
151.731	22.228	1271.888	1009.861
152.746	22.259	1270.602	1008.926
153.760	22.430	1269.055	1008.588
154.775	22.337	1268.481	1007.512
155.789	22.384	1266.859	1006.403
156.804	22.502	1266.145	1006.422
157.819	22.436	1265.372	1005.343
158.833	22.456	1264.760	1004.882
159.848	22.424	1263.836	1003.877
160.862	22.427	1263.406	1003.461
161.877	22.476	1261.870	1002.431
162.892	22.452	1261.368	1001.810
163.906	22.512	1261.063	1001.817
164.921	22.474	1259.890	1000.580
165.935	22.551	1259.092	1000.297
166.950	22.423	1258.484	998.999
167.964	22.390	1258.092	998.413
168.979	22.472	1257.234	998.105
169.994	22.504	1256.746	997.811
171.008	22.540	1255.986	997.327
172.023	22.559	1254.784	996.392
173.037	22.481	1254.607	995.720
174.052	22.539	1253.938	995.430
175.067	22.444	1253.161	994.185
176.081	22.408	1252.473	993.351
177.096	22.450	1251.517	992.740
178.110	22.450	1250.248	991.644
179.125	22.514	1249.409	991.253
180.140	22.506	1248.294	990.236
181.154	22.609	1247.067	989.754
182.169	22.640	1245.809	988.844
183.183	22.496	1245.365	987.595
184.198	22.527	1244.207	986.764
185.213	22.553	1243.234	986.047
186.227	22.535	1242.725	985.457
187.242	22.535	1241.751	984.595
188.256	22.579	1240.595	983.842
189.271	22.598	1239.976	983.369
190.286	22.526	1239.569	982.559
191.300	22.588	1238.711	982.133
192.315	22.547	1237.852	981.141
193.329	22.592	1237.606	981.105
194.344	22.656	1236.819	980.753
195.359	22.538	1236.645	979.870
196.373	22.467	1236.383	979.183
197.388	22.428	1235.771	978.395
198.402	22.518	1235.431	978.536
199.417	22.611	1234.765	978.439
200.432	22.678	1233.893	978.036
201.446	22.525	1233.679	976.929
202.461	22.535	1232.920	976.299
203.475	22.503	1232.137	975.417
204.490	22.576	1230.946	974.791
205.504	22.632	1229.638	973.975
206.519	22.617	1229.291	973.531
207.534	22.569	1228.531	972.579
208.548	22.585	1226.894	971.283
209.563	22.692	1226.187	971.227
210.577	22.566	1225.813	970.154
211.592	22.654	1224.768	969.725
212.607	22.717	1223.828	969.239
213.621	22.696	1223.150	968.500
214.636	22.787	1222.248	968.200
215.650	22.753	1221.797	967.570
216.665	22.654	1220.805	966.158
217.680	22.690	1219.838	965.507
218.694	22.636	1219.272	964.676
219.709	22.663	1218.287	963.960
220.723	22.728	1217.601	963.687
221.738	22.651	1217.249	962.904
222.753	22.632	1216.222	961.900
223.767	22.617	1216.008	961.564
224.782	22.758	1215.155	961.575
225.796	22.804	1214.611	961.307
226.811	22.758	1214.077	960.548
227.826	22.706	1213.643	959.838
228.840	22.852	1212.893	959.957
229.855	22.671	1212.527	958.598
230.869	22.757	1211.704	958.327
231.884	22.828	1210.530	957.699
232.899	22.896	1209.755	957.372
233.913	22.825	1209.433	956.645
234.928	22.946	1208.805	956.720
235.942	22.892	1208.187	955.853
236.957	22.811	1207.627	954.888
237.972	22.825	1206.992	954.378
238.986	22.926	1206.129	954.156
240.001	22.986	1205.075	953.564
241.015	23.003	1204.905	953.434
242.030	22.988	1204.173	952.692
243.045	22.945	1203.374	951.741
244.059	22.976	1202.991	951.522
245.074	23.018	1201.679	950.624
246.088	22.958	1200.949	949.640
247.103	22.983	1200.201	949.099
248.117	23.024	1199.416	948.613
249.132	23.038	1198.708	948.049
250.147	23.034	1197.983	947.368
251.161	23.026	1197.139	946.575
252.176	23.075	1196.387	946.157
253.190	22.969	1196.034	945.227
254.205	23.041	1195.437	945.055
255.220	22.952	1195.366	944.443
256.234	23.040	1194.538	944.173
257.249	23.112	1193.450	943.613
258.263	23.079	1192.889	942.911
259.278	23.072	1192.639	942.593
260.293	22.966	1192.279	941.661
261.307	23.025	1191.705	941.440
262.322	22.979	1190.971	940.530
263.336	23.077	1190.328	940.459
264.351	23.052	1189.794	939.821
265.366	23.092	1189.232	939.506
266.380	23.092	1188.679	938.985
267.395	23.091	1187.650	938.086
268.409	23.040	1186.882	937.127
269.424	23.129	1186.283	937.040
270.439	23.183	1185.689	936.776
271.453	23.043	1185.625	935.904
272.468	23.056	1184.339	934.874
273.482	23.105	1183.495	934.380
274.497	23.262	1183.165	934.868
275.512	23.307	1182.561	934.547
276.526	23.212	1181.671	933.256
277.541	23.136	1181.439	932.592
278.555	23.180	1181.094	932.470
279.570	23.210	1180.091	931.750
280.585	23.244	1178.990	930.982
281.599	23.249	1178.157	930.267
282.614	23.229	1177.420	929.497
283.628	23.198	1176.874	928.822
284.643	23.282	1175.635	928.201
285.657	23.244	1174.928	927.360
286.672	23.214	1174.246	926.587
287.687	23.297	1173.536	926.376
288.701	23.248	1172.785	925.447
289.716	23.313	1171.905	925.008
290.730	23.227	1171.477	924.138
291.745	23.222	1170.952	923.617
292.760	23.387	1170.399	923.959
293.774	23.415	1169.583	923.378
294.789	23.357	1168.967	922.509
295.803	23.324	1168.754	922.089
296.818	23.259	1168.003	921.075
297.833	23.325	1167.275	920.762
298.847	23.450	1166.514	920.729
299.862	23.366	1165.624	919.513
300.876	23.315	1165.137	918.783
301.891	23.373	1164.331	918.364
302.906	23.440	1163.636	918.081
303.920	23.517	1162.872	917.797
304.935	23.476	1162.640	917.318
305.949	23.451	1161.869	916.503
306.964	23.503	1161.611	916.488
307.979	23.493	1160.688	915.626
308.993	23.543	1159.954	915.223
310.008	23.506	1159.304	914.436
311.022	23.444	1158.845	913.678
312.037	23.584	1157.564	913.306
313.052	23.517	1157.048	912.471
314.066	23.565	1155.920	911.750
315.081	23.660	1155.083	911.497
316.095	23.524	1154.607	910.342
317.110	23.572	1154.117	910.119
318.125	23.673	1153.205	909.840
319.139	23.600	1152.656	908.950
320.154	23.649	1152.264	908.811
321.168	23.640	1151.568	908.136
322.183	23.592	1151.164	907.495
323.197	23.678	1150.227	907.116
324.212	23.625	1149.932	906.530
325.227	23.576	1149.652	905.977
326.241	23.656	1148.654	905.522
327.256	23.698	1148.120	905.235
328.270	23.762	1147.250	904.794
329.285	23.794	1146.670	904.419
330.300	23.726	1145.739	903.260
331.314	23.738	1144.855	902.544
332.329	23.717	1144.218	901.855
333.343	23.811	1143.220	901.463
334.358	23.858	1142.479	901.039
335.373	23.730	1141.867	899.830
336.387	23.808	1141.265	899.668
337.402	23.888	1140.344	899.267
338.416	23.829	1139.810	898.471
339.431	23.914	1139.389	898.486
340.446	23.956	1138.203	897.683
341.460	23.930	1137.799	897.155
342.475	23.837	1137.366	896.266
343.489	23.892	1136.320	895.636
344.504	23.885	1135.555	894.920
345.519	23.827	1134.821	893.970
346.533	23.886	1134.010	893.548
347.548	23.951	1133.000	893.002
348.562	23.941	1132.420	892.414
349.577	23.885	1131.802	891.571
350.592	23.920	1131.193	891.185
351.606	23.840	1130.764	890.367
352.621	23.994	1129.920	890.395
353.635	23.947	1129.060	889.403
354.650	23.992	1128.775	889.324
355.665	24.050	1127.901	888.846
356.679	23.991	1127.298	887.998
357.694	23.936	1127.031	887.438
358.708	23.939	1126.393	886.868
359.723	23.911	1125.663	886.076
360.738	24.060	1124.636	885.932
361.752	24.048	1124.268	885.504
362.767	23.945	1124.353	884.981
363.781	24.002	1123.166	884.250
364.796	24.068	1122.583	884.041
365.810	24.084	1122.010	883.590
366.825	24.206	1121.192	883.474
367.840	24.265	1120.644	883.255
368.854	24.165	1120.336	882.441
369.869	24.149	1119.249	881.424
370.883	24.235	1118.213	880.960
371.898	24.157	1117.893	880.243
372.913	24.151	1117.791	880.053
373.927	24.129	1117.286	879.472
374.942	24.328	1116.474	879.737
375.956	24.291	1115.909	879.031
376.971	24.242	1115.393	878.302
377.986	24.257	1114.721	877.772
379.000	24.254	1114.240	877.299
380.015	24.329	1113.684	877.154
381.029	24.362	1113.166	876.832
382.044	24.422	1112.115	876.221
383.059	24.337	1111.705	875.399
384.073	24.251	1111.368	874.637
385.088	24.225	1109.808	873.203
386.102	24.373	1109.573	873.665
387.117	24.414	1108.684	873.091
388.132	24.381	1108.000	872.314
389.146	24.436	1107.107	871.799
390.161	24.274	1106.872	870.746
391.175	24.531	1105.483	870.833
392.190	24.460	1104.901	869.951
393.205	24.381	1104.733	869.355
394.219	24.479	1103.709	868.952
395.234	24.515	1102.782	868.316
396.248	24.502	1101.533	867.194
397.263	24.538	1101.327	867.130
398.278	24.538	1100.556	866.448
399.292	24.587	1100.156	866.292
400.307	24.601	1099.503	865.771
401.321	24.603	1098.606	864.996
402.336	24.545	1098.330	864.421
403.350	24.453	1097.622	863.341
404.365	24.584	1096.796	863.253
405.380	24.572	1096.271	862.702
406.394	24.558	1095.615	862.043
407.409	24.632	1094.871	861.736
408.423	24.609	1094.194	861.016
409.438	24.679	1093.217	860.510
410.453	24.577	1092.751	859.575
411.467	24.717	1092.136	859.688
412.482	24.648	1091.667	858.910
413.496	24.741	1090.321	858.226
414.511	24.668	1089.917	857.478
415.526	24.683	1089.744	857.340
416.540	24.549	1089.649	856.546
417.555	24.726	1088.483	856.401
418.569	24.752	1088.341	856.339
419.584	24.670	1087.872	855.503
420.599	24.748	1087.442	855.459
421.613	148.523	1402.954	1799.480
422.628	137.333	1448.897	1799.576
