DTS Sentinel unit serial number:	SN413079Multiplexer serial number:	ORYXHardware model number:	OX4-SRSoftware version number:	ORYX F/W v4.00 Oryx Data Collector v3.7.2.0data status	okinstallation	princeton_trtdifferential loss correction	single-endedforward channel	channel 2reverse channel	N/Adate	2019/09/10time	20:33:10forward acquisition time	60.00reverse acquisition time	0.00gamma	496.2192k internal	0.2330k external	0.2330temperature offset calibration	0.9942default loss term (dB/km)	0.3790temperature slope calibration	1.0000multiplexer offset coefficient	1.0000multiplexer slope coefficient	1.0000fibre end	0.00T internal ref (°C)	32.00T ext. ref 1 (°C)	-0.31T ext. ref 2 (°C)	25.34length (m)	temperature (°C)	Stokes	anti-Stokes-747.200	16.861	-0.207	-0.165
-746.185	18.703	-0.077	0.062
-745.171	101.656	-0.277	-0.325
-744.156	385.730	-0.167	0.346
-743.142	-121.280	0.191	0.032
-742.127	37.421	-0.154	0.137
-741.112	175.877	0.211	-0.308
-740.098	800.000	-0.021	0.072
-739.083	800.000	0.123	0.403
-738.069	-187.391	-0.105	-0.001
-737.054	-200.000	0.068	0.374
-736.039	-74.008	-0.376	0.137
-735.025	217.546	-0.126	0.201
-734.010	-200.000	0.045	-0.394
-732.996	345.616	-0.155	-0.307
-731.981	-171.989	0.230	-0.007
-730.966	257.109	-0.072	-0.125
-729.952	-200.000	0.009	-0.122
-728.937	-3.066	-0.444	-0.311
-727.923	-35.828	-0.043	0.023
-726.908	800.000	-0.125	-0.350
-725.894	152.581	-0.062	0.085
-724.879	56.608	-0.256	0.251
-723.864	-200.000	0.013	-0.168
-722.850	-127.512	-0.391	0.057
-721.835	125.763	-0.241	-0.306
-720.821	800.000	-0.028	-0.116
-719.806	13.879	0.231	-0.180
-718.791	38.016	-0.084	0.075
-717.777	-90.844	-0.123	-0.036
-716.762	51.575	0.307	0.294
-715.748	-200.000	-0.062	-0.296
-714.733	800.000	-0.079	-0.230
-713.718	-142.203	-0.135	0.013
-712.704	22.449	-0.190	0.156
-711.689	-81.427	0.279	-0.092
-710.675	-200.000	0.012	-0.134
-709.660	-28.694	-0.111	-0.064
-708.645	375.593	-0.096	-0.196
-707.631	-200.000	-0.008	0.084
-706.616	571.784	0.092	0.226
-705.602	-42.270	-0.128	-0.066
-704.587	800.000	-0.028	0.116
-703.572	800.000	-0.031	0.096
-702.558	-21.175	0.369	0.227
-701.543	40.316	-0.109	-0.099
-700.529	-153.857	-0.296	0.020
-699.514	285.898	0.098	-0.178
-698.499	-200.000	-0.036	-0.189
-697.485	-171.116	-0.168	-0.006
-696.470	-200.000	-0.015	0.153
-695.456	-56.747	0.022	0.010
-694.441	-200.000	-0.022	-0.163
-693.426	106.484	-0.154	0.183
-692.412	-97.800	0.179	0.047
-691.397	156.434	0.196	0.272
-690.383	-200.000	-0.104	-0.459
-689.368	7.628	-0.159	-0.120
-688.354	264.436	-0.188	-0.328
-687.339	-17.631	-0.063	0.040
-686.324	-200.000	0.006	-0.219
-685.310	-58.018	-0.207	-0.091
-684.295	800.000	0.118	-0.344
-683.281	-113.458	0.084	0.017
-682.266	142.956	0.097	-0.130
-681.251	-16.376	0.164	0.105
-680.237	-50.631	-0.197	0.093
-679.222	-59.638	0.257	-0.111
-678.208	-55.715	0.180	-0.081
-677.193	142.644	0.120	0.159
-676.178	45.239	-0.293	0.271
-675.164	-13.784	-0.061	0.040
-674.149	-114.095	0.209	0.041
-673.135	-75.111	-0.077	-0.028
-672.120	-49.396	0.249	0.119
-671.105	-200.000	-0.008	-0.262
-670.091	23.679	0.326	-0.270
-669.076	178.113	-0.052	0.076
-668.062	160.907	-0.083	-0.116
-667.047	98.615	-0.239	0.277
-666.032	180.833	-0.160	-0.235
-665.018	336.451	-0.167	-0.326
-664.003	32.238	0.068	-0.059
-662.989	109.666	-0.263	0.316
-661.974	-72.508	-0.137	0.051
-660.959	109.351	0.088	-0.106
-659.945	-154.486	0.253	-0.017
-658.930	36.990	-0.092	0.081
-657.916	64.326	-0.086	-0.087
-656.901	-69.434	0.172	0.066
-655.886	-36.967	0.181	0.097
-654.872	-200.000	-0.013	0.241
-653.857	-70.801	0.296	-0.112
-652.843	37.995	0.096	-0.085
-651.828	800.000	-0.037	-0.116
-650.814	-200.000	0.042	-0.200
-649.799	-1.400	0.333	-0.236
-648.784	-2.905	-0.279	0.195
-647.770	-200.000	-0.002	-0.007
-646.755	-200.000	-0.006	0.332
-645.741	-200.000	0.027	0.280
-644.726	-131.453	-0.343	0.045
-643.711	52.319	-0.191	-0.183
-642.697	-52.375	-0.211	-0.098
-641.682	498.252	-0.117	0.271
-640.668	-200.000	-0.040	0.218
-639.653	-120.224	-0.216	-0.037
-638.638	-81.628	0.311	-0.102
-637.624	-67.999	-0.108	-0.042
-636.609	-102.714	0.206	0.049
-635.595	-13.412	-0.066	-0.043
-634.580	-130.845	-0.254	-0.034
-633.565	-113.468	-0.236	-0.046
-632.551	-107.953	-0.383	0.083
-631.536	-200.000	0.016	0.116
-630.522	366.945	0.020	0.040
-629.507	-139.408	0.151	0.016
-628.492	-56.129	-0.286	0.127
-627.478	-129.672	0.401	0.055
-626.463	26.643	-0.192	0.161
-625.449	116.572	-0.144	-0.177
-624.434	-103.497	0.481	-0.113
-623.419	120.983	-0.184	0.229
-622.405	-154.327	-0.190	0.013
-621.390	6.752	0.093	-0.069
-620.376	-47.319	-0.331	-0.161
-619.361	-69.782	-0.211	0.081
-618.346	-6.120	-0.088	0.060
-617.332	-200.000	-0.012	-0.088
-616.317	-152.059	-0.160	-0.012
-615.303	-8.666	-0.131	-0.088
-614.288	78.646	-0.200	-0.214
-613.273	-33.921	-0.010	-0.005
-612.259	-53.276	0.488	-0.224
-611.244	32.213	-0.207	0.179
-610.230	-183.697	-0.508	-0.009
-609.215	800.000	0.056	0.187
-608.201	-28.411	0.135	-0.078
-607.186	377.691	0.127	-0.259
-606.171	38.471	-0.078	-0.069
-605.157	177.347	-0.271	-0.395
-604.142	800.000	-0.035	-0.122
-603.128	101.083	-0.023	0.027
-602.113	-6.705	-0.452	-0.308
-601.098	213.081	0.204	-0.322
-600.084	449.413	-0.028	-0.061
-599.069	-136.565	-0.280	-0.032
-598.055	-141.731	-0.393	-0.040
-597.040	-29.471	0.181	-0.103
-596.025	-200.000	-0.034	-0.189
-595.011	1.720	-0.213	-0.154
-593.996	-74.299	0.172	-0.062
-592.982	-54.556	-0.062	-0.028
-591.967	186.796	-0.011	-0.016
-590.952	12.041	0.172	-0.132
-589.938	32.764	-0.224	0.194
-588.923	106.721	0.251	0.298
-587.909	254.745	0.154	0.263
-586.894	-32.606	-0.238	-0.133
-585.879	109.829	0.191	0.229
-584.865	-200.000	0.023	0.233
-583.850	-200.000	-0.002	-0.012
-582.836	-59.723	-0.103	-0.044
-581.821	-78.106	0.079	-0.027
-580.806	86.326	-0.157	0.173
-579.792	519.656	0.154	-0.362
-578.777	-200.000	-0.011	0.355
-577.763	-200.000	0.022	-0.174
-576.748	-139.344	-0.375	-0.040
-575.733	202.285	0.199	0.308
-574.719	800.000	-0.032	-0.121
-573.704	3.172	-0.233	0.169
-572.690	481.585	0.185	-0.420
-571.675	-200.000	0.020	-0.304
-570.661	800.000	-0.060	0.194
-569.646	-68.373	0.377	0.147
-568.631	5.912	0.235	0.174
-567.617	-97.429	-0.318	0.083
-566.602	63.995	-0.002	-0.002
-565.588	-200.000	0.013	0.339
-564.573	-6.095	-0.093	0.064
-563.558	-200.000	0.055	0.284
-562.544	28.878	-0.142	-0.120
-561.529	-200.000	0.092	0.501
-560.515	800.000	-0.110	-0.311
-559.500	-200.000	0.045	0.240
-558.485	800.000	-0.080	-0.270
-557.471	105.700	-0.221	-0.261
-556.456	154.792	0.178	-0.244
-555.442	-200.000	0.019	-0.178
-554.427	-11.626	-0.299	0.196
-553.412	85.448	0.135	-0.148
-552.398	800.000	0.052	-0.150
-551.383	54.873	0.120	-0.115
-550.369	-27.101	-0.098	0.057
-549.354	-74.907	0.201	0.072
-548.339	-50.846	0.242	-0.114
-547.325	-142.929	-0.036	0.003
-546.310	-200.000	-0.000	0.201
-545.296	-119.201	0.208	0.036
-544.281	-200.000	0.078	-0.355
-543.266	-135.236	0.149	-0.018
-542.252	391.255	-0.063	-0.131
-541.237	-112.369	0.253	0.051
-540.223	-87.867	-0.051	0.015
-539.208	-75.294	-0.137	-0.049
-538.193	800.000	-0.064	0.213
-537.179	-83.152	0.308	-0.099
-536.164	393.893	-0.154	-0.319
-535.150	-200.000	-0.120	0.001
-534.135	45.154	0.319	-0.294
-533.121	175.944	-0.120	-0.174
-532.106	-124.091	-0.097	-0.015
-531.091	-123.399	0.279	0.044
-530.077	562.440	-0.079	0.191
-529.062	173.605	0.028	0.041
-528.048	114.875	-0.042	0.051
-527.033	-200.000	-0.009	0.109
-526.018	-55.366	-0.087	0.039
-525.004	80.423	-0.164	0.176
-523.989	37.348	-0.361	0.319
-522.975	0.485	-0.210	0.150
-521.960	279.945	-0.090	-0.160
-520.945	800.000	-0.073	-0.269
-519.931	25.292	0.239	-0.198
-518.916	-200.000	-0.014	-0.211
-517.902	-27.400	0.213	-0.124
-516.887	-177.765	-0.139	-0.003
-515.872	446.335	0.076	0.167
-514.858	-9.567	0.221	-0.147
-513.843	-145.130	-0.161	0.015
-512.829	21.505	0.181	-0.147
-511.814	-56.655	0.508	-0.224
-510.799	327.214	-0.036	0.069
-509.785	1.986	-0.030	0.022
-508.770	-112.680	0.190	0.038
-507.756	50.478	0.177	-0.167
-506.741	11.090	-0.010	0.007
-505.726	90.028	-0.191	0.213
-504.712	-13.501	0.247	0.160
-503.697	-3.892	-0.141	0.097
-502.683	800.000	0.080	-0.244
-501.668	800.000	0.060	0.216
-500.653	-116.876	-0.425	-0.078
-499.639	185.012	-0.052	0.078
-498.624	91.732	0.138	0.155
-497.610	112.704	0.204	0.246
-496.595	-200.000	-0.032	-0.207
-495.581	-46.715	-0.335	-0.163
-494.566	-200.000	0.018	0.108
-493.551	-171.579	-0.201	-0.007
-492.537	182.429	-0.033	0.049
-491.522	-59.075	0.130	0.056
-490.508	-170.127	0.313	-0.011
-489.493	39.101	-0.204	0.182
-488.478	-60.493	0.302	-0.128
-487.464	-40.452	0.093	0.048
-486.449	800.000	0.029	0.088
-485.435	352.571	0.116	-0.229
-484.420	326.493	-0.044	-0.084
-483.405	161.137	-0.254	0.354
-482.391	-83.094	0.132	-0.042
-481.376	64.429	0.146	0.146
-480.362	-200.000	0.017	0.247
-479.347	-11.558	-0.157	-0.103
-478.332	114.547	0.070	0.085
-477.318	-30.096	0.266	-0.151
-476.303	-200.000	-0.026	-0.146
-475.289	1.298	0.070	-0.050
-474.274	-114.728	0.532	-0.101
-473.259	-140.071	-0.081	0.008
-472.245	800.000	0.068	0.231
-471.230	87.572	-0.199	-0.220
-470.216	544.630	0.156	-0.372
-469.201	-200.000	-0.005	-0.081
-468.186	-200.000	0.014	-0.374
-467.172	351.082	-0.107	0.212
-466.157	-149.692	0.056	-0.004
-465.143	-86.794	0.159	-0.048
-464.128	-200.000	-0.047	0.226
-463.113	-200.000	0.023	-0.259
-462.099	241.157	0.146	-0.242
-461.084	-122.966	-0.333	0.053
-460.070	148.248	-0.078	-0.104
-459.055	12.141	0.286	-0.219
-458.040	800.000	-0.105	0.329
-457.026	27.510	-0.068	-0.057
-456.011	-128.316	0.085	0.012
-454.997	-30.674	0.488	0.275
-453.982	-144.916	-0.196	-0.018
-452.968	422.041	-0.123	-0.264
-451.953	-191.597	-0.395	0.004
-450.938	-200.000	-0.015	-0.203
-449.924	-79.657	0.199	0.067
-448.909	-136.958	0.398	0.045
-447.895	-200.000	0.039	0.190
-446.880	-172.746	-0.063	0.002
-445.865	-200.000	0.056	0.331
-444.851	-85.600	-0.293	-0.091
-443.836	217.055	-0.082	0.130
-442.822	-200.000	-0.026	0.116
-441.807	-70.257	0.033	-0.012
-440.792	99.468	-0.065	-0.075
-439.778	43.309	-0.147	0.133
-438.763	-97.993	-0.299	0.077
-437.749	-200.000	-0.019	-0.309
-436.734	294.689	0.056	-0.103
-435.719	102.535	-0.090	0.104
-434.705	135.706	0.110	-0.143
-433.690	5.642	-0.213	-0.157
-432.676	-129.164	0.232	0.032
-431.661	80.395	0.049	0.052
-430.646	22.331	0.194	0.158
-429.632	-120.106	0.195	0.033
-428.617	-200.000	-0.004	0.070
-427.603	-61.205	-0.335	0.140
-426.588	-18.531	0.182	-0.113
-425.573	217.498	0.134	0.213
-424.559	452.258	-0.108	0.237
-423.544	-113.139	-0.403	-0.079
-422.530	653.647	-0.059	-0.151
-421.515	273.720	0.140	0.247
-420.500	-36.249	-0.100	0.053
-419.486	-200.000	0.018	0.151
-418.471	72.276	-0.009	-0.009
-417.457	69.513	0.272	0.279
-416.442	-200.000	0.054	-0.320
-415.428	-94.263	0.072	0.020
-414.413	258.613	-0.198	0.340
-413.398	-200.000	0.001	0.213
-412.384	75.155	-0.076	0.080
-411.369	63.981	0.129	-0.129
-410.355	-200.000	-0.015	0.386
-409.340	199.841	0.131	0.200
-408.325	-103.326	-0.047	0.011
-407.311	519.603	-0.095	-0.221
-406.296	77.538	0.115	-0.121
-405.282	35.506	0.243	-0.212
-404.267	-74.974	-0.249	-0.089
-403.252	-119.429	0.423	0.073
-402.238	-83.196	0.297	-0.095
-401.223	-200.000	-0.014	0.185
-400.209	83.777	0.171	0.186
-399.194	-200.000	-0.021	-0.378
-398.179	7.495	0.141	-0.105
-397.165	72.343	0.128	0.133
-396.150	260.579	-0.114	0.196
-395.136	-200.000	-0.009	-0.135
-394.121	12.788	-0.199	0.153
-393.106	746.229	0.125	-0.334
-392.092	-93.660	-0.312	0.086
-391.077	794.704	-0.029	-0.079
-390.063	203.475	-0.190	-0.292
-389.048	-186.118	0.290	0.004
-388.033	-12.532	0.338	0.219
-387.019	-59.933	-0.297	-0.126
-386.004	7.917	0.131	0.097
-384.990	-200.000	-0.024	-0.401
-383.975	60.425	0.099	-0.097
-382.960	-105.405	-0.167	0.038
-381.946	443.471	0.050	0.109
-380.931	37.084	0.148	-0.130
-379.917	-200.000	0.019	-0.305
-378.902	-116.162	0.210	0.039
-377.888	130.562	-0.056	0.071
-376.873	35.334	-0.078	0.068
-375.858	-179.617	-0.056	0.001
-374.844	75.217	0.103	0.108
-373.829	-86.119	-0.584	0.179
-372.815	130.609	-0.098	0.125
-371.800	-200.000	-0.018	0.249
-370.785	800.000	0.021	-0.078
-369.771	45.222	-0.131	0.120
-368.756	-152.783	0.418	0.029
-367.742	58.628	-0.198	0.193
-366.727	136.051	-0.041	0.053
-365.712	396.796	0.111	-0.230
-364.698	-200.000	-0.061	0.341
-363.683	-102.597	0.304	0.072
-362.669	-48.297	-0.020	0.010
-361.654	-143.479	-0.215	0.020
-360.639	-200.000	-0.002	0.050
-359.625	-200.000	0.030	-0.265
-358.610	800.000	-0.071	-0.285
-357.596	-58.292	0.314	0.135
-356.581	39.031	0.215	-0.191
-355.566	-166.658	-0.082	-0.003
-354.552	-200.000	-0.300	0.001
-353.537	2.245	0.142	-0.102
-352.523	118.191	0.200	-0.245
-351.508	-120.584	-0.164	-0.028
-350.493	-200.000	-0.002	-0.195
-349.479	64.063	0.058	0.058
-348.464	-72.654	-0.280	0.102
-347.450	-126.384	0.187	-0.028
-346.435	17.080	-0.033	0.026
-345.420	-200.000	0.006	0.298
-344.406	-200.000	0.096	0.460
-343.391	365.912	0.159	0.318
-342.377	-62.558	0.107	-0.044
-341.362	-97.136	-0.099	0.026
-340.348	175.638	-0.115	-0.165
-339.333	153.845	-0.070	-0.096
-338.318	0.442	0.153	0.108
-337.304	112.089	-0.106	0.126
-336.289	-152.998	-0.171	-0.012
-335.275	166.315	-0.140	-0.196
-334.260	70.906	-0.236	-0.242
-333.245	303.932	-0.103	-0.188
-332.231	-80.297	0.232	0.077
-331.216	800.000	-0.056	0.159
-330.202	215.572	0.138	-0.216
-329.187	-153.740	-0.209	-0.014
-328.172	224.308	-0.200	-0.320
-327.158	-52.503	-0.196	-0.090
-326.143	-170.987	0.209	-0.007
-325.129	-49.116	0.403	-0.191
-324.114	-5.306	0.342	0.233
-323.099	-56.022	0.073	0.032
-322.085	-79.741	0.119	-0.040
-321.070	689.920	-0.085	-0.220
-320.056	-69.212	-0.161	0.061
-319.041	-68.878	-0.166	-0.064
-318.026	-63.292	-0.329	-0.134
-317.012	19.241	0.184	0.147
-315.997	21.766	-0.160	-0.129
-314.983	166.068	0.018	0.025
-313.968	188.874	-0.120	-0.178
-312.953	223.073	0.038	-0.061
-311.939	800.000	-0.031	0.093
-310.924	-200.000	0.025	0.142
-309.910	103.755	-0.213	-0.248
-308.895	-114.541	0.514	-0.098
-307.880	51.629	-0.207	0.195
-306.866	-174.673	0.286	0.008
-305.851	209.262	0.126	-0.196
-304.837	-58.790	0.116	0.050
-303.822	-183.259	-0.210	-0.004
-302.807	-103.171	-0.259	0.061
-301.793	762.266	0.051	0.137
-300.778	7.468	-0.256	-0.190
-299.764	-18.076	0.272	0.169
-298.749	8.514	0.204	0.152
-297.735	38.794	-0.334	0.295
-296.720	142.446	0.084	-0.111
-295.705	-148.508	0.281	-0.023
-294.691	-200.000	0.078	-0.426
-293.676	779.630	0.082	-0.222
-292.662	144.998	0.132	-0.175
-291.647	800.000	0.072	0.249
-290.632	-55.239	0.136	-0.060
-289.618	236.022	0.199	-0.326
-288.603	-84.976	-0.222	0.069
-287.589	264.275	-0.038	-0.065
-286.574	76.846	-0.204	0.215
-285.559	116.019	0.074	-0.090
-284.545	-107.952	0.328	-0.070
-283.530	800.000	-0.059	-0.229
-282.516	-79.675	-0.217	0.072
-281.501	-26.635	-0.094	-0.055
-280.486	-99.825	0.104	0.026
-279.472	-200.000	-0.026	0.224
-278.457	-113.577	-0.184	-0.036
-277.443	800.000	-0.061	0.183
-276.428	800.000	-0.117	-0.382
-275.413	238.869	-0.102	-0.168
-274.399	800.000	0.093	-0.352
-273.384	230.074	0.211	0.340
-272.370	94.501	0.207	0.233
-271.355	-14.228	0.210	-0.134
-270.340	49.441	0.111	-0.103
-269.326	47.984	0.249	-0.230
-268.311	-200.000	-0.007	-0.053
-267.297	-82.814	-0.117	-0.037
-266.282	-200.000	-0.043	0.186
-265.267	27.385	-0.360	0.299
-264.253	800.000	-0.030	0.103
-263.238	118.635	-0.210	-0.256
-262.224	96.243	0.123	-0.139
-261.209	-106.507	0.227	0.050
-260.195	-9.488	0.061	-0.040
-259.180	128.503	-0.170	-0.214
-258.165	-58.499	-0.031	0.013
-257.151	-200.000	0.030	-0.350
-256.136	149.094	-0.165	0.220
-255.122	-200.000	0.046	0.337
-254.107	-200.000	-0.103	0.453
-253.092	-115.698	0.212	0.039
-252.078	-19.288	-0.016	0.010
-251.063	800.000	-0.082	0.274
-250.049	800.000	0.028	-0.077
-249.034	446.319	-0.041	-0.088
-248.019	500.853	-0.011	0.025
-247.005	218.077	-0.125	0.197
-245.990	-176.940	0.311	0.008
-244.976	-125.251	-0.125	-0.019
-243.961	-200.000	0.074	-0.325
-242.946	-130.847	0.216	0.029
-241.932	-200.000	0.060	0.279
-240.917	214.723	-0.100	0.156
-239.903	171.422	-0.097	0.137
-238.888	800.000	-0.078	-0.264
-237.873	49.208	0.081	-0.075
-236.859	-86.929	-0.180	-0.054
-235.844	-16.497	0.142	0.089
-234.830	175.667	-0.247	-0.353
-233.815	-49.248	0.298	0.140
-232.800	539.667	0.076	0.178
-231.786	-81.416	-0.097	-0.032
-230.771	5.038	-0.112	-0.081
-229.757	263.916	-0.068	0.117
-228.742	-171.429	0.219	-0.007
-227.727	-200.000	-0.014	0.132
-226.713	-192.882	-0.173	0.002
-225.698	-126.840	-0.119	0.017
-224.684	800.000	0.069	0.206
-223.669	-104.868	0.411	0.093
-222.655	-15.352	-0.081	-0.051
-221.640	-200.000	-0.045	0.361
-220.625	43.849	0.043	0.038
-219.611	-97.618	-0.378	-0.097
-218.596	-144.569	-0.312	0.028
-217.582	28.988	0.040	0.033
-216.567	-135.695	0.020	-0.002
-215.552	800.000	-0.058	0.207
-214.538	92.946	-0.204	0.227
-213.523	-200.000	-0.001	0.124
-212.509	37.123	0.043	-0.037
-211.494	-142.009	-0.225	-0.022
-210.479	-117.078	0.204	-0.037
-209.465	-200.000	-0.074	0.330
-208.450	303.094	0.150	-0.274
-207.436	-44.076	-0.032	-0.016
-206.421	199.590	0.100	0.151
-205.406	-101.313	-0.141	0.034
-204.392	800.000	0.071	0.221
-203.377	180.051	-0.176	-0.254
-202.363	-144.896	-0.093	0.008
-201.348	7.117	0.148	-0.109
-200.333	152.442	0.087	-0.117
-199.319	-113.553	-0.346	0.067
-198.304	-200.000	-0.023	-0.221
-197.290	-189.889	-0.216	0.002
-196.275	171.633	-0.153	-0.216
-195.260	582.234	0.091	0.219
-194.246	-200.000	-0.010	0.084
-193.231	-95.073	0.147	-0.039
-192.217	171.522	-0.166	-0.234
-191.202	-15.109	0.327	-0.207
-190.187	-200.000	0.013	0.116
-189.173	38.811	-0.076	-0.067
-188.158	-92.538	-0.181	-0.050
-187.144	-133.187	0.425	-0.053
-186.129	-200.000	0.021	0.198
-185.114	-138.736	-0.186	-0.020
-184.100	-102.284	-0.369	-0.087
-183.085	-107.100	0.206	0.045
-182.071	358.725	-0.051	0.101
-181.056	-94.327	0.091	0.024
-180.042	-200.000	0.019	0.320
-179.027	-4.458	0.251	0.171
-178.012	-157.057	0.564	-0.034
-176.998	131.579	-0.123	0.156
-175.983	-148.497	-0.270	0.022
-174.969	-38.173	0.141	0.074
-173.954	72.994	-0.055	0.056
-172.939	223.993	0.066	-0.106
-171.925	-200.000	0.005	0.070
-170.910	-47.902	0.053	0.025
-169.896	800.000	-0.062	0.176
-168.881	-200.000	0.017	-0.281
-167.866	-117.733	-0.393	-0.070
-166.852	-9.883	0.088	0.058
-165.837	-140.595	0.259	-0.026
-164.823	-200.000	-0.010	0.048
-163.808	-88.803	0.129	-0.038
-162.793	320.671	-0.103	-0.193
-161.779	-85.929	0.291	0.089
-160.764	800.000	0.106	-0.302
-159.750	20.066	0.017	0.014
-158.735	-75.667	0.247	0.086
-157.720	38.334	0.239	0.209
-156.706	-64.189	0.330	0.132
-155.691	24.027	-0.110	-0.090
-154.677	19.201	-0.156	0.123
-153.662	161.727	0.072	-0.099
-152.647	-155.767	0.028	-0.002
-151.633	58.223	-0.176	0.169
-150.618	-123.942	0.391	-0.061
-149.604	-200.000	0.011	-0.383
-148.589	-98.476	-0.004	0.001
-147.574	-200.000	-0.029	-0.336
-146.560	-200.000	0.041	-0.207
-145.545	-85.325	0.077	0.023
-144.531	9.450	-0.068	0.050
-143.516	-185.463	0.252	-0.004
-142.502	-21.163	0.157	0.095
-141.487	-200.000	0.007	0.237
-140.472	-138.058	-0.191	0.021
-139.458	762.811	-0.021	0.057
-138.443	-30.758	-0.067	0.037
-137.429	100.414	0.138	0.157
-136.414	-200.000	-0.016	-0.141
-135.399	213.528	-0.012	-0.019
-134.385	800.000	-0.038	-0.154
-133.370	-28.330	0.079	0.045
-132.356	-66.753	0.244	-0.095
-131.341	628.808	0.080	-0.199
-130.326	-200.000	-0.043	0.191
-129.312	-141.174	-0.079	0.008
-128.297	-1.200	-0.233	0.162
-127.283	-200.000	0.080	0.384
-126.268	-153.768	-0.103	-0.007
-125.253	-147.493	0.181	0.015
-124.239	-112.308	-0.404	0.080
-123.224	-151.263	0.330	-0.024
-122.210	212.146	0.027	0.041
-121.195	-200.000	-0.045	-0.231
-120.180	800.000	-0.121	0.440
-119.166	219.059	0.141	-0.221
-118.151	112.416	-0.112	-0.133
-117.137	-157.024	0.046	0.003
-116.122	-129.422	-0.214	-0.029
-115.107	186.181	0.116	-0.169
-114.093	-200.000	0.008	-0.052
-113.078	277.858	0.112	0.196
-112.064	483.451	0.142	0.317
-111.049	-89.241	-0.486	0.141
-110.034	800.000	-0.061	-0.217
-109.020	-200.000	-0.041	-0.181
-108.005	-200.000	-0.021	-0.128
-106.991	-83.244	0.032	-0.010
-105.976	-200.000	-0.028	0.194
-104.962	-101.018	0.267	-0.064
-103.947	-152.119	-0.140	0.010
-102.932	-124.584	-0.098	0.015
-101.918	-185.418	-0.347	0.005
-100.903	-59.880	0.232	-0.097
-99.889	-200.000	0.013	0.224
-98.874	37.864	-0.071	-0.062
-97.859	334.417	-0.113	-0.214
-96.845	608.830	0.082	0.202
-95.830	42.645	0.170	0.152
-94.816	25.838	0.115	-0.094
-93.801	71.875	-0.161	0.164
-92.786	-200.000	0.063	-0.358
-91.772	-57.384	0.092	-0.040
-90.757	117.384	0.319	-0.385
-89.743	151.656	-0.034	-0.045
-88.728	-200.000	-0.021	0.135
-87.713	-22.418	0.153	-0.091
-86.699	69.181	0.186	0.187
-85.684	-141.743	0.139	0.014
-84.670	47.071	0.086	0.079
-83.655	-46.200	0.314	-0.152
-82.640	71.867	-0.137	-0.140
-81.626	-148.014	0.067	-0.005
-80.611	52.374	0.215	-0.201
-79.597	-200.000	0.011	-0.115
-78.582	-140.887	0.249	0.025
-77.567	-200.000	-0.047	-0.215
-76.553	-142.220	-0.424	0.041
-75.538	267.782	-0.096	-0.164
-74.524	53.482	0.339	-0.319
-73.509	-70.121	0.156	-0.058
-72.494	-74.197	0.247	0.088
-71.480	410.771	-0.100	0.208
-70.465	114.350	0.289	0.345
-69.451	174.508	0.021	0.030
-68.436	-35.921	-0.003	-0.002
-67.422	-24.720	0.163	0.095
-66.407	119.367	0.143	0.174
-65.392	-64.284	-0.373	0.149
-64.378	365.095	0.085	-0.168
-63.363	20.321	0.165	0.131
-62.349	96.969	0.140	0.158
-61.334	43.733	-0.805	-0.722
-60.319	-14.807	0.650	0.409
-59.305	321.779	-0.345	-0.643
-58.290	339.513	0.516	0.985
-57.276	216.236	0.855	1.331
-56.261	-200.000	97.668	604.364
-55.246	621.165	1399.989	3451.609
-54.232	191.922	2600.161	3841.245
-53.217	112.183	2276.345	2696.519
-52.203	41.664	1895.554	1682.696
-51.188	35.377	1684.310	1447.852
-50.173	32.543	1640.793	1389.520
-49.159	50.090	1689.023	1562.063
-48.144	51.773	1704.185	1588.600
-47.130	34.961	1664.085	1427.141
-46.115	32.116	1650.076	1393.987
-45.100	31.940	1645.228	1388.532
-44.086	31.899	1643.170	1386.441
-43.071	31.873	1640.305	1383.775
-42.057	31.881	1637.838	1381.695
-41.042	31.996	1635.906	1380.859
-40.027	31.935	1634.071	1378.806
-39.013	31.889	1631.962	1376.638
-37.998	31.803	1630.661	1374.852
-36.984	31.816	1629.389	1373.819
-35.969	31.941	1627.663	1373.227
-34.954	32.069	1625.648	1372.411
-33.940	32.053	1624.160	1370.984
-32.925	31.972	1622.254	1368.728
-31.911	32.042	1620.664	1367.842
-30.896	31.978	1618.681	1365.650
-29.881	31.974	1617.111	1364.241
-28.867	32.018	1615.569	1363.207
-27.852	31.957	1614.032	1361.411
-26.838	31.984	1612.943	1360.635
-25.823	31.864	1611.789	1358.740
-24.809	31.981	1610.004	1358.026
-23.794	32.050	1608.519	1357.216
-22.779	32.011	1606.835	1355.462
-21.765	32.099	1605.261	1354.713
-20.750	31.976	1604.324	1352.984
-19.736	32.000	1602.692	1351.726
-18.721	31.990	1601.187	1350.327
-17.706	31.973	1599.627	1348.836
-16.692	32.058	1597.882	1347.928
-15.677	32.086	1596.487	1346.894
-14.663	32.089	1595.122	1345.715
-13.648	32.113	1593.826	1344.736
-12.633	32.077	1592.351	1343.182
-11.619	32.052	1591.104	1341.899
-10.604	31.967	1589.561	1339.935
-9.590	32.176	1587.941	1340.005
-8.575	32.002	1587.209	1338.097
-7.560	32.099	1585.992	1337.711
-6.546	32.032	1584.701	1336.089
-5.531	32.063	1583.256	1335.041
-4.517	32.231	1581.861	1335.006
-3.502	32.089	1580.994	1333.212
-2.487	32.071	1579.712	1331.945
-1.473	31.772	1567.785	1319.735
-0.458	28.945	1548.111	1283.430
0.556	22.777	1548.436	1249.543
1.571	20.551	1571.315	1251.879
2.586	20.177	1585.275	1260.175
3.600	18.175	1533.277	1204.648
4.615	9.727	1423.215	1062.619
5.629	1.448	1357.394	961.182
6.644	-0.180	1349.019	944.927
7.659	-0.355	1347.980	943.021
8.673	-0.316	1346.480	942.129
9.688	-0.399	1344.998	940.492
10.702	-0.601	1341.693	936.834
11.717	2.643	1348.439	961.837
12.731	11.985	1365.648	1033.169
13.746	18.707	1376.482	1083.863
14.761	19.658	1377.435	1090.521
15.775	19.806	1377.106	1091.099
16.790	19.864	1375.906	1090.415
17.804	20.004	1375.581	1090.942
18.819	20.184	1375.557	1091.960
19.834	20.229	1374.748	1091.507
20.848	20.104	1374.421	1090.364
21.863	20.170	1373.476	1089.929
22.877	20.260	1372.431	1089.567
23.892	20.283	1371.085	1088.551
24.907	20.241	1370.643	1087.840
25.921	20.165	1369.754	1086.562
26.936	20.122	1368.926	1085.540
27.950	20.176	1367.743	1084.840
28.965	20.150	1366.508	1083.605
29.980	20.276	1364.772	1082.916
30.994	20.198	1364.003	1081.728
32.009	20.271	1362.743	1081.085
33.023	20.220	1362.052	1080.124
34.038	20.203	1360.813	1078.937
35.053	20.226	1359.582	1078.010
36.067	20.210	1358.546	1076.998
37.082	20.104	1357.596	1075.491
38.096	20.182	1356.395	1074.928
39.111	20.265	1355.796	1074.871
40.126	20.155	1355.604	1073.942
41.140	20.249	1354.482	1073.543
42.155	20.212	1354.356	1073.116
43.169	20.206	1354.531	1073.122
44.184	20.274	1353.679	1072.774
45.199	20.191	1353.393	1071.938
46.213	20.175	1353.096	1071.508
47.228	20.266	1351.689	1070.861
48.242	20.268	1350.872	1070.135
49.257	20.190	1349.702	1068.631
50.271	20.242	1347.794	1067.346
51.286	20.186	1346.646	1065.995
52.301	20.183	1345.268	1064.792
53.315	20.241	1344.593	1064.523
54.330	20.224	1343.771	1063.670
55.344	20.165	1342.724	1062.390
56.359	20.286	1341.492	1062.058
57.374	20.272	1340.799	1061.330
58.388	20.157	1340.449	1060.258
59.403	20.147	1340.208	1059.912
60.417	20.250	1339.048	1059.530
61.432	20.216	1338.214	1058.570
62.447	20.244	1336.903	1057.607
63.461	20.277	1336.042	1057.033
64.476	20.234	1335.018	1055.869
65.490	20.328	1333.748	1055.345
66.505	20.261	1332.214	1053.627
67.520	20.159	1331.317	1052.209
68.534	20.201	1330.185	1051.477
69.549	20.216	1328.861	1050.426
70.563	20.167	1327.882	1049.262
71.578	20.306	1326.678	1049.060
72.593	20.191	1325.935	1047.683
73.607	20.212	1325.452	1047.338
74.622	20.203	1324.667	1046.568
75.636	20.279	1324.183	1046.550
76.651	20.257	1323.258	1045.595
77.666	20.249	1323.090	1045.323
78.680	20.191	1322.610	1044.502
79.695	20.274	1321.717	1044.203
80.709	20.215	1320.656	1042.915
81.724	20.243	1319.797	1042.314
82.739	20.316	1318.655	1041.758
83.753	20.224	1317.811	1040.448
84.768	20.222	1316.656	1039.433
85.782	20.300	1315.342	1038.768
86.797	20.300	1314.114	1037.705
87.812	20.202	1313.388	1036.459
88.826	20.270	1312.238	1035.862
89.841	20.228	1311.323	1034.801
90.855	20.317	1310.053	1034.239
91.870	20.242	1309.497	1033.259
92.884	20.262	1308.191	1032.259
93.899	20.338	1307.645	1032.184
94.914	20.307	1306.427	1030.949
95.928	20.277	1305.774	1030.166
96.943	20.349	1304.979	1029.874
97.957	20.304	1304.142	1028.856
98.972	20.357	1303.125	1028.276
99.987	20.278	1302.494	1027.220
101.001	20.252	1301.541	1026.223
102.016	20.221	1300.717	1025.299
103.030	20.201	1299.547	1024.169
104.045	20.309	1298.833	1024.151
105.060	20.346	1297.879	1023.527
106.074	20.308	1296.604	1022.210
107.089	20.320	1295.237	1021.112
108.103	20.307	1294.459	1020.329
109.118	20.412	1292.811	1019.554
110.133	20.341	1291.747	1018.209
111.147	20.453	1290.356	1017.681
112.162	20.364	1289.703	1016.555
113.176	20.468	1287.809	1015.581
114.191	20.427	1287.161	1014.741
115.206	20.371	1286.300	1013.645
116.220	20.377	1284.970	1012.540
117.235	20.357	1284.182	1011.714
118.249	20.475	1282.906	1011.308
119.264	20.353	1282.097	1009.871
120.279	20.384	1281.224	1009.275
121.293	20.378	1280.679	1008.722
122.308	20.412	1279.277	1007.724
123.322	20.459	1278.407	1007.221
124.337	20.438	1277.290	1006.130
125.352	20.440	1276.484	1005.420
126.366	20.457	1275.520	1004.670
127.381	20.350	1275.302	1003.788
128.395	20.401	1273.406	1002.505
129.410	20.524	1272.679	1002.549
130.424	20.483	1272.313	1001.939
131.439	20.417	1271.483	1000.815
132.454	20.451	1270.050	999.795
133.468	20.302	1269.763	998.623
134.483	20.378	1269.033	998.394
135.497	20.345	1268.305	997.548
136.512	20.479	1266.722	996.984
137.527	20.337	1265.968	995.484
138.541	20.297	1264.103	993.701
139.556	20.316	1262.829	992.722
140.570	20.390	1261.836	992.273
141.585	20.329	1260.662	990.914
142.600	20.487	1259.214	990.591
143.614	20.475	1258.678	990.016
144.629	20.274	1258.078	988.312
145.643	20.259	1256.704	987.054
146.658	20.300	1255.657	986.379
147.673	20.313	1254.653	985.581
148.687	20.311	1253.841	984.841
149.702	20.352	1252.859	984.216
150.716	20.443	1251.189	983.330
151.731	20.263	1250.744	981.876
152.746	20.336	1249.288	981.057
153.760	20.423	1247.887	980.362
154.775	20.535	1246.625	979.916
155.789	20.317	1246.359	978.392
156.804	20.375	1245.606	978.040
157.819	20.408	1244.510	977.280
158.833	20.463	1243.380	976.619
159.848	20.480	1242.784	976.157
160.862	20.483	1242.291	975.700
161.877	20.407	1241.179	974.315
162.892	20.406	1240.633	973.795
163.906	20.479	1239.425	973.169
164.921	20.479	1238.714	972.526
165.935	20.530	1238.052	972.201
166.950	20.475	1237.601	971.452
167.964	20.451	1236.715	970.537
168.979	20.557	1236.542	970.909
169.994	20.509	1235.889	970.046
171.008	20.506	1235.435	969.582
172.023	20.558	1233.945	968.618
173.037	20.517	1233.328	967.822
174.052	20.478	1233.264	967.465
175.067	20.516	1232.335	966.865
176.081	20.549	1231.061	965.963
177.096	20.537	1230.547	965.407
178.110	20.625	1229.379	964.897
179.125	20.555	1228.477	963.712
180.140	20.606	1227.506	963.146
181.154	20.596	1226.662	962.345
182.169	20.538	1225.591	961.098
183.183	20.604	1224.073	960.190
184.198	20.588	1222.764	958.988
185.213	20.620	1222.165	958.610
186.227	20.534	1221.717	957.703
187.242	20.610	1220.370	956.976
188.256	20.629	1219.747	956.507
189.271	20.688	1219.034	956.189
190.286	20.618	1218.548	955.340
191.300	20.555	1218.044	954.513
192.315	20.529	1217.482	953.845
193.329	20.579	1216.894	953.574
194.344	20.626	1216.525	953.461
195.359	20.691	1215.652	953.046
196.373	20.613	1215.313	952.270
197.388	20.528	1214.984	951.465
198.402	20.551	1214.729	951.302
199.417	20.578	1214.149	950.914
200.432	20.550	1213.408	950.098
201.446	20.603	1212.563	949.640
202.461	20.572	1212.029	948.968
203.475	20.576	1210.934	948.047
204.490	20.518	1210.039	946.947
205.504	20.610	1208.886	946.465
206.519	20.688	1207.906	946.036
207.534	20.719	1206.878	945.313
208.548	20.738	1205.857	944.535
209.563	20.606	1205.235	943.248
210.577	20.551	1204.837	942.553
211.592	20.656	1203.998	942.387
212.607	20.750	1202.726	941.814
213.621	20.711	1202.669	941.476
214.636	20.696	1201.539	940.425
215.650	20.750	1200.531	939.846
216.665	20.683	1200.128	939.086
217.680	20.729	1198.876	938.273
218.694	20.785	1197.888	937.718
219.709	20.726	1197.487	936.999
220.723	20.875	1196.647	937.062
221.738	20.781	1195.917	935.905
222.753	20.760	1195.256	935.189
223.767	20.788	1194.505	934.671
224.782	20.814	1194.166	934.462
225.796	20.812	1193.303	933.692
226.811	20.906	1192.255	933.295
227.826	20.804	1192.233	932.646
228.840	20.973	1191.633	933.002
229.855	20.841	1190.613	931.413
230.869	20.876	1190.017	931.049
231.884	20.912	1189.583	930.822
232.899	20.832	1188.625	929.565
233.913	20.726	1188.453	928.780
234.928	20.881	1187.960	929.142
235.942	20.946	1186.895	928.570
236.957	20.839	1186.480	927.594
237.972	20.954	1185.617	927.447
238.986	20.895	1185.070	926.623
240.001	20.855	1184.900	926.197
241.015	20.980	1183.712	925.854
242.030	21.022	1182.689	925.193
243.045	21.003	1182.152	924.589
244.059	21.065	1180.898	923.856
245.074	21.022	1180.649	923.351
246.088	21.057	1179.961	922.914
247.103	20.993	1179.122	921.838
248.117	21.000	1178.426	921.253
249.132	20.960	1177.892	920.542
250.147	21.000	1176.983	919.961
251.161	21.116	1176.027	919.743
252.176	20.965	1175.788	918.679
253.190	21.064	1175.417	918.830
254.205	21.029	1174.354	917.734
255.220	21.001	1173.916	917.161
256.234	21.036	1173.308	916.789
257.249	21.098	1172.260	916.214
258.263	21.084	1172.078	915.917
259.278	21.165	1171.299	915.651
260.293	21.165	1170.739	915.136
261.307	21.005	1170.664	914.155
262.322	21.064	1170.026	913.888
263.336	21.096	1169.353	913.446
264.351	21.142	1168.314	912.793
265.366	21.105	1167.538	911.913
266.380	21.015	1167.906	911.651
267.395	21.170	1166.604	911.366
268.409	21.068	1166.047	910.318
269.424	21.020	1165.518	909.573
270.439	21.152	1164.950	909.736
271.453	21.152	1164.551	909.342
272.468	21.148	1163.558	908.468
273.482	21.165	1162.590	907.719
274.497	21.265	1162.001	907.698
275.512	21.262	1161.923	907.545
276.526	21.220	1161.028	906.544
277.541	21.276	1160.068	906.008
278.555	21.276	1159.564	905.532
279.570	21.266	1158.881	904.864
280.585	21.291	1158.028	904.248
281.599	21.259	1157.166	903.333
282.614	21.175	1156.907	902.613
283.628	21.372	1155.469	902.430
284.643	21.238	1154.950	901.255
285.657	21.229	1154.187	900.534
286.672	21.233	1153.177	899.684
287.687	21.368	1151.890	899.297
288.701	21.323	1151.405	898.604
289.716	21.385	1150.985	898.520
290.730	21.351	1150.561	897.930
291.745	21.330	1149.913	897.241
292.760	21.353	1149.243	896.757
293.774	21.445	1148.322	896.430
294.789	21.397	1147.803	895.700
295.803	21.406	1147.314	895.285
296.818	21.420	1146.458	894.607
297.833	21.476	1145.821	894.320
298.847	21.453	1145.473	893.849
299.862	21.414	1144.413	892.744
300.876	21.498	1143.749	892.577
301.891	21.508	1143.370	892.254
302.906	21.485	1142.531	891.400
303.920	21.556	1141.542	890.912
304.935	21.574	1141.086	890.567
305.949	21.555	1140.610	890.021
306.964	21.629	1139.939	889.794
307.979	21.565	1139.428	888.991
308.993	21.566	1138.821	888.448
310.008	21.563	1138.141	887.820
311.022	21.576	1137.095	886.991
312.037	21.507	1136.733	886.281
313.052	21.596	1135.725	885.867
314.066	21.543	1135.081	885.018
315.081	21.587	1134.280	884.541
316.095	21.628	1133.712	884.227
317.110	21.595	1133.254	883.621
318.125	21.509	1132.606	882.606
319.139	21.656	1131.631	882.508
320.154	21.622	1131.169	881.902
321.168	21.598	1131.105	881.653
322.183	21.573	1130.121	880.679
323.197	21.489	1130.001	880.085
324.212	21.621	1129.162	880.018
325.227	21.734	1128.306	879.840
326.241	21.724	1127.334	878.954
327.256	21.668	1126.927	878.277
328.270	21.653	1126.145	877.516
329.285	21.650	1125.263	876.734
330.300	21.683	1124.341	876.107
331.314	21.692	1123.772	875.629
332.329	21.740	1122.929	875.135
333.343	21.814	1121.774	874.525
334.358	21.667	1121.218	873.282
335.373	21.755	1120.751	873.278
336.387	21.856	1119.824	872.984
337.402	21.772	1119.575	872.292
338.416	21.768	1118.635	871.465
339.431	21.836	1117.999	871.230
340.446	21.802	1117.797	870.824
341.460	21.891	1116.883	870.478
342.475	21.884	1116.048	869.718
343.489	21.898	1115.070	868.948
344.504	21.863	1113.953	867.829
345.519	21.937	1113.053	867.415
346.533	21.894	1112.850	866.967
347.548	21.926	1111.922	866.324
348.562	21.900	1111.143	865.515
349.577	21.862	1110.934	865.084
350.592	21.976	1109.776	864.671
351.606	21.846	1109.368	863.637
352.621	21.855	1109.227	863.494
353.635	21.888	1108.534	863.037
354.650	21.878	1107.853	862.385
355.665	22.011	1106.992	862.290
356.679	21.927	1106.168	861.162
357.694	22.105	1105.759	861.638
358.708	22.086	1104.848	860.761
359.723	22.031	1104.346	860.022
360.738	22.024	1103.169	858.996
361.752	21.988	1103.521	859.018
362.767	22.014	1103.039	858.694
363.781	22.104	1102.211	858.411
364.796	22.102	1101.463	857.745
365.810	22.176	1100.756	857.480
366.825	22.033	1100.440	856.461
367.840	22.180	1099.849	856.641
368.854	22.126	1099.329	855.895
369.869	22.221	1098.167	855.377
370.883	22.187	1097.459	854.588
371.898	22.183	1096.971	854.110
372.913	22.191	1096.412	853.638
373.927	22.243	1096.072	853.551
374.942	22.274	1095.782	853.401
375.956	22.239	1095.010	852.556
376.971	22.082	1094.968	851.686
377.986	22.317	1093.766	851.813
379.000	22.319	1093.572	851.596
380.015	22.267	1092.914	850.756
381.029	22.341	1092.011	850.336
382.044	22.340	1091.586	849.925
383.059	22.287	1091.014	849.148
384.073	22.382	1089.911	848.672
385.088	22.419	1089.147	848.181
386.102	22.447	1088.067	847.398
387.117	22.430	1087.189	846.560
388.132	22.271	1087.088	845.641
389.146	22.220	1086.345	844.745
390.161	22.375	1085.288	844.589
391.175	22.304	1084.906	843.876
392.190	22.378	1083.992	843.446
393.205	22.356	1083.509	842.891
394.219	22.365	1082.914	842.398
395.234	22.455	1082.163	842.171
396.248	22.488	1081.136	841.450
397.263	22.487	1080.233	840.670
398.278	22.535	1079.579	840.315
399.292	22.513	1079.074	839.746
400.307	22.564	1078.173	839.209
401.321	22.523	1077.755	838.614
402.336	22.527	1077.052	838.015
403.350	22.549	1076.345	837.494
404.365	22.511	1076.043	837.005
405.380	22.508	1075.333	836.363
406.394	22.645	1074.316	836.149
407.409	22.536	1073.770	835.134
408.423	22.611	1073.183	834.956
409.438	22.643	1072.306	834.355
410.453	22.565	1071.897	833.594
411.467	22.670	1071.028	833.338
412.482	22.741	1069.825	832.665
413.496	22.621	1069.629	831.871
414.511	22.633	1069.253	831.560
415.526	22.648	1068.630	831.075
416.540	22.764	1067.852	830.942
417.555	22.774	1067.341	830.519
418.569	22.703	1067.288	830.069
419.584	22.877	1066.256	830.011
420.599	22.615	1066.713	829.064
421.613	148.827	1397.691	1794.096
422.628	137.060	1445.875	1794.220
