DTS Sentinel unit serial number:	SN413079Multiplexer serial number:	ORYXHardware model number:	OX4-SRSoftware version number:	ORYX F/W v4.00 Oryx Data Collector v3.7.2.0data status	okinstallation	princeton_trtdifferential loss correction	single-endedforward channel	channel 2reverse channel	N/Adate	2019/09/12time	07:25:11forward acquisition time	60.00reverse acquisition time	0.00gamma	496.2192k internal	0.2323k external	0.2323temperature offset calibration	1.0059default loss term (dB/km)	0.3790temperature slope calibration	1.0000multiplexer offset coefficient	1.0000multiplexer slope coefficient	1.0000fibre end	0.00T internal ref (°C)	32.37T ext. ref 1 (°C)	1.62T ext. ref 2 (°C)	28.89length (m)	temperature (°C)	Stokes	anti-Stokes-747.200	-96.088	0.427	0.115
-746.185	591.140	-0.059	-0.147
-745.171	-93.556	0.129	0.036
-744.156	-39.095	0.116	0.062
-743.142	-63.212	0.335	0.139
-742.127	99.708	-0.276	0.323
-741.112	228.265	0.071	0.117
-740.098	-200.000	0.074	0.551
-739.083	90.621	-0.123	0.140
-738.069	37.528	0.168	0.151
-737.054	616.372	0.087	0.222
-736.039	668.096	0.130	-0.339
-735.025	92.356	-0.110	0.125
-734.010	-102.725	0.119	-0.029
-732.996	-200.000	0.035	-0.290
-731.981	260.754	0.112	0.195
-730.966	-29.358	-0.125	-0.072
-729.952	19.058	-0.225	-0.182
-728.937	800.000	-0.109	0.313
-727.923	-142.872	0.277	0.027
-726.908	800.000	-0.025	0.108
-725.894	-200.000	0.018	-0.147
-724.879	-75.647	-0.262	-0.094
-723.864	14.169	-0.257	-0.202
-722.850	800.000	0.043	0.145
-721.835	-94.757	0.601	-0.165
-720.821	-92.870	0.131	0.037
-719.806	-200.000	-0.022	0.121
-718.791	50.428	-0.080	-0.076
-717.777	-30.268	-0.044	-0.025
-716.762	-172.607	-0.193	0.006
-715.748	-138.485	0.063	0.007
-714.733	-200.000	-0.016	-0.297
-713.718	286.492	0.148	-0.270
-712.704	-98.902	-0.116	-0.030
-711.689	124.785	0.029	0.037
-710.675	97.680	0.172	-0.199
-709.660	34.463	0.266	-0.234
-708.645	800.000	-0.093	-0.406
-707.631	201.946	-0.237	-0.369
-706.616	-28.109	0.066	0.039
-705.602	-200.000	0.015	0.266
-704.587	-200.000	-0.046	0.222
-703.572	-143.839	-0.348	0.033
-702.558	-23.634	-0.069	0.042
-701.543	-200.000	0.009	-0.201
-700.529	-200.000	-0.004	-0.085
-699.514	800.000	0.064	0.255
-698.499	800.000	-0.021	-0.081
-697.485	-200.000	-0.008	-0.148
-696.470	800.000	-0.054	-0.164
-695.456	-4.327	-0.366	-0.255
-694.441	-83.394	-0.336	0.109
-693.426	-125.801	-0.047	-0.007
-692.412	-59.216	-0.203	0.088
-691.397	150.970	0.023	0.031
-690.383	-151.121	-0.221	-0.017
-689.368	324.163	-0.039	-0.075
-688.354	-24.490	0.116	-0.069
-687.339	-81.900	0.315	-0.104
-686.324	-81.669	0.227	-0.075
-685.310	-156.872	-0.341	-0.021
-684.295	-200.000	0.002	0.013
-683.281	-119.839	0.116	-0.020
-682.266	-200.000	-0.000	-0.024
-681.251	344.457	0.025	0.050
-680.237	-3.703	-0.133	-0.093
-679.222	27.435	0.177	0.150
-678.208	-200.000	-0.051	0.363
-677.193	-200.000	0.011	-0.127
-676.178	-91.977	0.120	-0.034
-675.164	521.987	-0.077	0.181
-674.149	208.918	0.057	-0.089
-673.135	800.000	0.041	-0.140
-672.120	380.572	-0.025	0.052
-671.105	-46.459	-0.187	-0.092
-670.091	-28.796	0.139	0.081
-669.076	3.648	-0.203	0.149
-668.062	572.406	-0.045	0.110
-667.047	800.000	0.078	-0.226
-666.032	-71.229	0.161	0.061
-665.018	5.370	-0.097	-0.072
-664.003	117.015	0.185	-0.229
-662.989	157.774	-0.123	0.172
-661.974	-200.000	-0.016	-0.146
-660.959	33.917	-0.332	-0.291
-659.945	-14.702	0.313	-0.202
-658.930	75.657	0.281	0.299
-657.916	-132.728	0.343	0.044
-656.901	714.505	0.080	0.213
-655.886	-200.000	-0.018	-0.377
-654.872	212.517	0.037	0.059
-653.857	54.527	-0.014	-0.014
-652.843	-27.197	0.109	-0.064
-651.828	-200.000	0.010	-0.053
-650.814	-143.996	-0.138	0.013
-649.799	-93.147	0.036	0.010
-648.784	-42.720	0.232	-0.119
-647.770	-114.524	0.178	-0.034
-646.755	200.559	-0.091	-0.141
-645.741	23.917	0.094	0.078
-644.726	-141.050	-0.242	-0.025
-643.711	359.692	-0.144	-0.289
-642.697	-6.242	0.219	-0.150
-641.682	-200.000	0.006	-0.071
-640.668	-200.000	-0.023	0.269
-639.653	-1.740	-0.163	-0.115
-638.638	-97.721	-0.295	0.077
-637.624	-71.211	0.377	-0.142
-636.609	-200.000	0.028	-0.236
-635.595	159.280	0.062	0.086
-634.580	458.472	-0.087	-0.194
-633.565	223.734	0.101	-0.164
-632.551	-87.764	-0.278	-0.084
-631.536	390.973	0.083	0.174
-630.522	-88.274	0.429	0.129
-629.507	420.977	-0.056	-0.121
-628.492	259.866	-0.017	0.030
-627.478	94.421	-0.281	-0.321
-626.463	-200.000	-0.051	0.271
-625.449	565.717	-0.117	0.285
-624.434	800.000	-0.030	-0.119
-623.419	76.861	-0.268	0.286
-622.405	800.000	0.097	0.272
-621.390	-58.783	0.132	-0.058
-620.376	291.461	0.175	-0.319
-619.361	-20.669	0.096	-0.059
-618.346	536.887	-0.042	-0.100
-617.332	-200.000	-0.017	-0.124
-616.317	767.551	-0.095	-0.260
-615.303	-187.253	0.460	0.006
-614.288	-200.000	-0.034	0.251
-613.273	500.948	-0.074	-0.172
-612.259	482.602	0.077	-0.175
-611.244	409.016	-0.120	0.255
-610.230	383.386	0.044	0.092
-609.215	-97.431	-0.103	-0.027
-608.201	-36.154	0.175	0.095
-607.186	447.562	0.133	0.294
-606.171	57.760	0.357	0.351
-605.157	-92.738	0.195	-0.055
-604.142	-200.000	0.010	0.239
-603.128	-4.707	-0.098	-0.068
-602.113	-200.000	-0.049	0.444
-601.098	69.313	-0.349	0.360
-600.084	501.509	-0.051	-0.119
-599.069	-105.286	-0.294	0.067
-598.055	745.728	-0.022	0.059
-597.040	122.413	0.247	0.310
-596.025	-36.818	-0.181	-0.097
-595.011	0.034	0.114	0.082
-593.996	-107.052	0.244	0.054
-592.982	-172.321	0.244	-0.008
-591.967	-181.384	0.256	-0.005
-590.952	686.926	0.115	-0.302
-589.938	-41.211	0.258	-0.134
-588.923	-41.318	0.342	-0.177
-587.909	-130.675	-0.132	-0.018
-586.894	87.014	0.065	-0.072
-585.879	-112.156	-0.335	0.068
-584.865	24.236	0.218	-0.181
-583.850	36.401	0.077	0.068
-582.836	166.234	-0.100	0.142
-581.821	-56.098	-0.194	0.087
-580.806	-42.676	-0.063	0.032
-579.792	323.467	0.148	-0.283
-578.777	-200.000	0.047	-0.262
-577.763	153.103	-0.126	0.173
-576.748	-1.274	-0.103	-0.073
-575.733	769.648	-0.138	0.376
-574.719	1.054	-0.524	0.377
-573.704	800.000	0.003	-0.010
-572.690	800.000	-0.079	0.281
-571.675	800.000	0.036	-0.116
-570.661	246.052	0.017	0.029
-569.646	-135.499	0.068	-0.008
-568.631	-101.245	0.183	-0.045
-567.617	216.198	-0.144	-0.230
-566.602	-23.945	0.127	-0.076
-565.588	-46.223	-0.250	-0.123
-564.573	-31.141	-0.311	0.176
-563.558	-1.499	-0.107	-0.075
-562.544	703.495	-0.023	-0.059
-561.529	-50.954	-0.337	0.159
-560.515	-136.748	0.149	-0.017
-559.500	-117.706	-0.168	0.030
-558.485	135.809	-0.072	0.094
-557.471	43.058	0.289	0.264
-556.456	-100.150	0.213	0.053
-555.442	-200.000	-0.014	-0.294
-554.427	630.261	-0.114	-0.288
-553.412	-117.255	0.206	0.038
-552.398	-165.789	0.236	-0.010
-551.383	524.466	0.109	-0.258
-550.369	-49.440	-0.017	-0.008
-549.354	800.000	0.060	0.256
-548.339	-79.452	-0.105	-0.035
-547.325	23.824	-0.151	0.125
-546.310	443.992	-0.172	-0.379
-545.296	-10.896	-0.203	0.135
-544.281	-34.669	-0.244	-0.134
-543.266	-200.000	-0.058	0.361
-542.252	-103.830	-0.161	0.038
-541.237	-9.375	-0.241	-0.161
-540.223	-83.227	-0.090	0.029
-539.208	-7.563	-0.173	0.117
-538.193	-35.028	0.106	-0.058
-537.179	550.353	0.167	-0.401
-536.164	85.415	0.187	0.206
-535.150	1.831	0.385	0.278
-534.135	-166.621	0.072	0.003
-533.121	-120.107	0.205	-0.035
-532.106	800.000	-0.026	0.092
-531.091	-61.287	-0.194	0.082
-530.077	112.849	-0.246	0.299
-529.062	-65.255	-0.065	-0.026
-528.048	-200.000	0.022	-0.206
-527.033	-73.328	0.376	-0.138
-526.018	-102.103	0.047	0.011
-525.004	58.171	0.262	-0.257
-523.989	200.618	-0.173	0.266
-522.975	-112.225	-0.191	-0.038
-521.960	715.379	0.191	0.508
-520.945	-200.000	-0.037	-0.243
-519.931	-177.889	0.184	-0.004
-518.916	800.000	-0.050	-0.214
-517.902	-75.105	-0.194	-0.069
-516.887	-146.882	0.291	0.025
-515.872	-182.937	-0.122	-0.002
-514.858	-26.635	0.233	0.137
-513.843	425.515	-0.164	0.353
-512.829	438.999	0.082	0.179
-511.814	216.605	0.056	0.089
-510.799	800.000	-0.017	-0.059
-509.785	252.652	-0.179	0.306
-508.770	1.080	0.241	-0.173
-507.756	538.173	-0.145	-0.345
-506.741	202.628	0.100	-0.155
-505.726	-88.593	-0.307	0.091
-504.712	-200.000	-0.051	0.224
-503.697	800.000	-0.039	-0.110
-502.683	-26.584	-0.199	-0.116
-501.668	54.157	0.059	0.057
-500.653	118.247	-0.119	-0.147
-499.639	-81.502	-0.294	0.097
-498.624	517.529	0.053	-0.124
-497.610	340.337	0.106	0.206
-496.595	-200.000	0.023	-0.368
-495.581	-171.256	-0.204	0.007
-494.566	-107.813	-0.333	0.073
-493.551	20.035	-0.308	-0.248
-492.537	800.000	-0.064	-0.202
-491.522	-80.008	-0.257	-0.086
-490.508	-200.000	-0.025	-0.114
-489.493	-100.348	0.192	-0.048
-488.478	-100.854	0.158	0.039
-487.464	658.697	-0.089	-0.230
-486.449	-48.935	0.383	-0.183
-485.435	-32.052	-0.091	-0.051
-484.420	159.467	0.141	-0.196
-483.405	104.001	0.168	0.197
-482.391	23.977	0.194	0.160
-481.376	-46.050	-0.040	0.020
-480.362	174.029	-0.219	0.316
-479.347	-54.665	0.074	0.033
-478.332	-200.000	-0.037	0.303
-477.318	800.000	0.049	0.177
-476.303	-55.114	0.135	0.061
-475.289	72.225	0.095	0.098
-474.274	317.557	0.140	0.265
-473.259	246.749	0.087	-0.147
-472.245	800.000	0.048	0.185
-471.230	-150.364	-0.470	0.036
-470.216	800.000	0.049	-0.194
-469.201	-62.498	0.238	0.099
-468.186	-176.211	-0.306	0.008
-467.172	140.607	0.065	0.086
-466.157	-200.000	-0.004	-0.131
-465.143	80.221	0.185	0.199
-464.128	-200.000	0.064	-0.466
-463.113	189.280	0.117	-0.175
-462.099	-200.000	-0.018	-0.208
-461.084	204.422	0.085	-0.132
-460.070	-200.000	0.032	-0.302
-459.055	12.198	-0.454	-0.349
-458.040	290.225	-0.079	0.144
-457.026	-200.000	-0.010	-0.243
-456.011	5.135	0.391	-0.287
-454.997	-156.555	0.274	0.017
-453.982	-26.237	-0.311	0.182
-452.968	-200.000	0.005	-0.031
-451.953	378.999	0.126	-0.257
-450.938	-86.648	-0.322	-0.098
-449.924	28.448	-0.116	0.098
-448.909	308.931	0.020	-0.037
-447.895	98.668	0.125	-0.144
-446.880	-17.140	-0.178	0.112
-445.865	-200.000	0.056	0.282
-444.851	345.673	-0.078	-0.154
-443.836	693.902	0.019	0.050
-442.822	-125.667	-0.332	0.050
-441.807	625.630	-0.101	-0.255
-440.792	122.546	0.138	-0.172
-439.778	49.532	0.229	-0.215
-438.763	-126.821	0.115	0.017
-437.749	-102.610	0.062	0.015
-436.734	-95.260	0.403	-0.108
-435.719	-200.000	-0.024	-0.292
-434.705	140.611	0.079	-0.104
-433.690	800.000	0.008	0.029
-432.676	-30.149	-0.216	0.122
-431.661	-200.000	0.001	-0.225
-430.646	575.488	0.051	0.124
-429.632	-99.796	0.172	0.043
-428.617	-72.287	0.200	-0.074
-427.603	-51.282	-0.156	0.073
-426.588	-46.095	0.185	0.091
-425.573	800.000	0.075	0.279
-424.559	-113.023	-0.193	0.038
-423.544	257.802	-0.226	0.388
-422.530	-200.000	-0.025	0.209
-421.515	16.873	0.227	-0.179
-420.500	18.178	0.247	-0.197
-419.486	-93.635	-0.355	0.098
-418.471	590.204	0.085	0.209
-417.457	800.000	0.110	-0.376
-416.442	-132.534	0.230	0.029
-415.428	9.844	-0.486	0.368
-414.413	-87.857	0.218	0.065
-413.398	5.213	-0.218	0.160
-412.384	-96.440	-0.189	-0.050
-411.369	-200.000	-0.014	0.127
-410.355	462.887	-0.061	-0.136
-409.340	259.119	-0.122	0.209
-408.325	35.046	-0.222	0.194
-407.311	-13.059	0.341	-0.221
-406.296	800.000	-0.070	-0.252
-405.282	-200.000	0.028	-0.192
-404.267	130.053	-0.161	0.205
-403.252	-17.652	0.234	-0.146
-402.238	800.000	0.066	-0.215
-401.223	-157.642	-0.232	0.014
-400.209	-200.000	0.038	0.186
-399.194	477.541	0.095	-0.214
-398.179	800.000	-0.087	0.244
-397.165	-200.000	-0.013	0.064
-396.150	-52.291	-0.266	0.123
-395.136	-200.000	0.032	0.142
-394.121	-98.409	0.330	0.084
-393.106	-200.000	0.075	0.478
-392.092	688.752	0.085	0.220
-391.077	-200.000	0.042	0.412
-390.063	62.131	0.059	-0.058
-389.048	124.064	0.087	0.109
-388.033	48.945	0.077	-0.072
-387.019	323.006	-0.127	0.240
-386.004	108.060	-0.310	0.368
-384.990	-200.000	-0.043	-0.402
-383.975	34.360	0.251	-0.218
-382.960	800.000	-0.118	0.350
-381.946	-200.000	0.022	-0.104
-380.931	-59.924	-0.144	-0.061
-379.917	-111.955	-0.378	-0.076
-378.902	-96.285	0.066	-0.018
-377.888	226.363	0.048	0.078
-376.873	53.539	0.021	0.020
-375.858	-200.000	-0.057	-0.456
-374.844	-200.000	0.032	-0.269
-373.829	-33.771	0.280	0.153
-372.815	-113.132	0.131	0.026
-371.800	130.550	0.211	0.269
-370.785	53.049	0.161	0.153
-369.771	-191.488	0.411	-0.004
-368.756	51.990	-0.098	0.093
-367.742	-81.845	-0.180	-0.059
-366.727	407.726	0.073	-0.154
-365.712	800.000	0.050	-0.149
-364.698	16.073	0.189	0.148
-363.683	-41.090	-0.330	0.170
-362.669	-200.000	-0.062	0.313
-361.654	-80.766	-0.113	-0.037
-360.639	-186.692	0.413	0.006
-359.625	-200.000	0.016	-0.084
-358.610	2.660	-0.181	0.131
-357.596	559.850	0.183	-0.439
-356.581	2.321	-0.304	-0.219
-355.566	784.824	0.086	0.233
-354.552	800.000	-0.103	0.377
-353.537	-34.409	0.067	-0.037
-352.523	-24.659	-0.255	-0.151
-351.508	-200.000	0.002	0.021
-350.493	329.711	0.089	-0.169
-349.479	-51.813	-0.494	-0.229
-348.464	317.530	-0.191	-0.360
-347.450	-94.741	0.199	0.054
-346.435	-200.000	0.005	0.301
-345.420	82.499	0.182	-0.197
-344.406	-73.254	0.229	-0.083
-343.391	16.820	-0.251	-0.197
-342.377	800.000	0.085	0.317
-341.362	-52.527	-0.198	0.091
-340.348	502.548	-0.031	-0.070
-339.333	-26.592	0.120	-0.070
-338.318	-200.000	0.002	-0.247
-337.304	7.649	0.050	-0.037
-336.289	402.149	-0.093	-0.193
-335.275	-200.000	0.015	0.077
-334.260	88.560	0.143	0.158
-333.245	-86.175	-0.295	0.090
-332.231	1.259	0.151	-0.107
-331.216	800.000	0.020	-0.081
-330.202	-152.154	-0.187	0.014
-329.187	-200.000	-0.065	-0.450
-328.172	-200.000	-0.025	-0.144
-327.158	-53.035	0.273	-0.125
-326.143	-79.150	0.327	-0.110
-325.129	248.209	0.231	-0.388
-324.114	-54.377	0.149	-0.067
-323.099	-107.424	-0.114	0.025
-322.085	-200.000	0.021	0.100
-321.070	80.776	0.199	0.213
-320.056	-90.564	-0.296	-0.085
-319.041	800.000	0.077	-0.295
-318.026	-152.211	0.235	0.017
-317.012	-86.344	0.103	-0.032
-315.997	43.671	0.184	0.167
-314.983	632.421	0.042	0.106
-313.968	-65.954	-0.206	0.082
-312.953	535.419	0.175	-0.412
-311.939	-200.000	-0.019	0.285
-310.924	33.997	-0.060	-0.052
-309.910	800.000	0.063	0.202
-308.895	-200.000	0.011	0.163
-307.880	800.000	0.031	-0.129
-306.866	-109.414	-0.119	-0.025
-305.851	106.109	-0.095	0.112
-304.837	258.372	0.077	-0.132
-303.822	-80.813	-0.320	0.105
-302.807	269.593	-0.221	0.384
-301.793	119.304	0.330	-0.405
-300.778	25.883	-0.222	-0.184
-299.764	-106.804	-0.200	-0.044
-298.749	800.000	-0.083	-0.290
-297.735	-200.000	-0.014	0.214
-296.720	2.650	-0.224	0.161
-295.705	204.762	0.169	0.261
-294.691	-200.000	0.036	0.524
-293.676	35.610	0.079	-0.069
-292.662	-145.383	0.078	-0.007
-291.647	-200.000	0.012	-0.081
-290.632	130.076	0.259	0.329
-289.618	-200.000	0.019	0.311
-288.603	219.037	-0.105	-0.167
-287.589	65.030	0.040	-0.040
-286.574	-200.000	-0.043	-0.196
-285.559	224.237	-0.150	-0.240
-284.545	-200.000	0.021	-0.304
-283.530	36.756	0.094	0.083
-282.516	114.582	0.097	-0.117
-281.501	5.475	0.152	-0.111
-280.486	800.000	0.059	0.180
-279.472	-64.990	-0.049	0.020
-278.457	-108.626	-0.226	0.048
-277.443	800.000	0.129	-0.360
-276.428	-15.028	0.189	0.120
-275.413	800.000	-0.083	0.301
-274.399	-127.220	-0.170	-0.025
-273.384	-50.345	-0.255	0.119
-272.370	239.506	-0.036	0.059
-271.355	110.067	0.049	-0.058
-270.340	800.000	0.036	-0.108
-269.326	144.344	-0.226	-0.299
-268.311	71.421	0.061	0.063
-267.297	-86.891	0.115	0.035
-266.282	62.711	-0.114	-0.113
-265.267	-56.778	0.128	0.056
-264.253	-67.455	-0.211	0.082
-263.238	33.076	-0.147	0.126
-262.224	800.000	0.071	0.228
-261.209	164.135	0.214	0.299
-260.195	-12.233	-0.204	0.132
-259.180	106.424	-0.116	-0.136
-258.165	-138.528	0.238	0.026
-257.151	-120.031	0.252	-0.043
-256.136	82.735	-0.122	0.131
-255.122	670.981	0.028	-0.071
-254.107	-21.853	0.185	-0.111
-253.092	44.501	0.073	-0.067
-252.078	235.446	0.135	0.221
-251.063	55.811	0.013	0.013
-250.049	31.564	-0.328	0.280
-249.034	479.469	-0.056	0.125
-248.019	8.987	-0.155	0.116
-247.005	-200.000	-0.042	-0.313
-245.990	-181.066	-0.317	0.006
-244.976	-32.054	-0.056	-0.031
-243.961	-200.000	-0.015	0.080
-242.946	266.817	0.185	-0.321
-241.932	174.693	-0.096	-0.138
-240.917	-31.051	-0.185	-0.104
-239.903	800.000	-0.061	0.187
-238.888	8.888	0.366	-0.273
-237.873	149.650	0.339	-0.455
-236.859	-178.664	-0.163	0.004
-235.844	172.585	0.147	-0.209
-234.830	28.011	-0.109	-0.091
-233.815	-101.326	0.242	0.058
-232.800	73.907	-0.111	0.115
-231.786	84.868	0.097	0.105
-230.771	-127.048	0.315	0.046
-229.757	5.818	-0.033	-0.024
-228.742	-75.355	0.230	0.081
-227.727	93.531	0.146	-0.164
-226.713	65.388	-0.072	-0.072
-225.698	-90.344	0.292	0.084
-224.684	-200.000	0.002	-0.105
-223.669	800.000	0.060	-0.183
-222.655	208.303	-0.152	0.235
-221.640	-126.796	-0.216	0.032
-220.625	-100.876	0.211	0.051
-219.611	31.783	-0.074	0.063
-218.596	-200.000	-0.036	-0.395
-217.582	-19.516	0.148	0.091
-216.567	-109.115	0.263	0.055
-215.552	-170.218	0.320	0.011
-214.538	68.085	-0.260	0.263
-213.523	-0.551	-0.086	-0.060
-212.509	83.361	0.141	-0.152
-211.494	-72.819	0.368	0.134
-210.479	720.007	0.153	-0.403
-209.465	-200.000	0.022	-0.168
-208.450	73.636	-0.292	0.302
-207.436	-28.865	-0.129	-0.073
-206.421	-119.609	-0.177	0.030
-205.406	-31.006	-0.055	-0.031
-204.392	-51.490	-0.395	-0.182
-203.377	-19.184	0.278	0.171
-202.363	26.087	-0.301	-0.248
-201.348	-144.473	-0.289	0.026
-200.333	-11.304	0.060	0.039
-199.319	-141.696	0.196	0.019
-198.304	1.114	-0.235	0.166
-197.290	-106.446	-0.354	0.078
-196.275	185.007	-0.060	-0.088
-195.260	-26.865	0.090	-0.052
-194.246	-133.716	-0.256	0.032
-193.231	42.478	0.217	0.195
-192.217	0.914	-0.103	0.073
-191.202	258.255	-0.153	0.261
-190.187	58.309	0.150	-0.145
-189.173	-52.507	0.183	0.084
-188.158	-200.000	0.004	-0.172
-187.144	461.997	0.198	0.435
-186.129	59.840	-0.063	-0.062
-185.114	-11.359	-0.158	-0.103
-184.100	58.945	-0.335	0.325
-183.085	-16.276	-0.177	0.111
-182.071	77.169	-0.258	0.270
-181.056	-174.454	0.108	-0.003
-180.042	800.000	-0.050	0.184
-179.027	-92.286	0.130	0.036
-178.012	-20.977	-0.121	-0.073
-176.998	18.665	-0.240	-0.190
-175.983	-29.538	0.084	-0.047
-174.969	-60.053	0.203	0.086
-173.954	-43.054	0.159	0.080
-172.939	-100.400	0.149	0.036
-171.925	-116.535	-0.196	0.036
-170.910	-139.221	0.371	0.040
-169.896	549.886	0.061	-0.144
-168.881	-200.000	-0.002	-0.180
-167.866	61.128	-0.086	-0.085
-166.852	-105.208	-0.293	-0.066
-165.837	-72.651	0.201	-0.073
-164.823	784.455	-0.087	-0.236
-163.808	6.864	0.193	-0.142
-162.793	617.346	0.080	-0.197
-161.779	418.899	-0.157	0.332
-160.764	-38.051	0.106	0.056
-159.750	150.545	-0.179	0.239
-158.735	-21.285	-0.261	0.157
-157.720	431.806	-0.224	0.478
-156.706	346.742	0.102	-0.198
-155.691	509.444	0.114	-0.262
-154.677	-200.000	0.062	-0.368
-153.662	-59.639	0.240	0.102
-152.647	-21.977	-0.085	0.051
-151.633	232.006	-0.119	0.193
-150.618	-119.686	0.370	-0.063
-149.604	179.628	-0.162	0.234
-148.589	-66.214	0.627	0.246
-147.574	-200.000	-0.041	0.249
-146.560	30.963	-0.432	-0.365
-145.545	-36.599	-0.104	0.055
-144.531	-103.318	0.170	-0.040
-143.516	-52.513	0.154	-0.070
-142.502	800.000	-0.152	0.428
-141.487	328.139	0.093	0.176
-140.472	-87.833	0.263	-0.078
-139.458	-15.828	-0.120	0.075
-138.443	-104.128	0.170	-0.039
-137.429	-200.000	-0.010	0.052
-136.414	244.114	-0.196	-0.325
-135.399	21.502	0.093	0.075
-134.385	204.354	0.151	0.231
-133.370	121.353	0.171	-0.210
-132.356	23.328	0.155	0.125
-131.341	137.421	-0.081	-0.104
-130.326	249.113	-0.043	-0.072
-129.312	-200.000	-0.020	0.220
-128.297	157.509	0.114	-0.155
-127.283	182.972	0.133	-0.193
-126.268	-162.760	-0.244	0.012
-125.253	-200.000	-0.053	-0.274
-124.239	-138.388	-0.224	0.024
-123.224	-51.680	-0.164	0.075
-122.210	137.584	0.062	-0.080
-121.195	-80.174	0.155	-0.051
-120.180	-85.427	-0.223	-0.069
-119.166	-200.000	0.007	0.075
-118.151	-70.744	0.203	-0.076
-117.137	157.848	-0.162	-0.221
-116.122	59.291	0.253	-0.246
-115.107	271.496	0.123	-0.213
-114.093	350.993	0.048	0.094
-113.078	800.000	0.052	0.177
-112.064	800.000	0.093	0.374
-111.049	628.553	-0.101	0.251
-110.034	-200.000	0.011	0.125
-109.020	-200.000	-0.004	-0.198
-108.005	704.436	0.044	-0.114
-106.991	-200.000	0.204	-0.000
-105.976	-200.000	-0.003	0.111
-104.962	175.914	0.213	0.305
-103.947	649.154	0.086	-0.217
-102.932	-27.382	-0.190	-0.109
-101.918	-200.000	0.024	0.127
-100.903	166.849	-0.086	-0.120
-99.889	-80.917	0.472	0.154
-98.874	-124.801	-0.091	-0.014
-97.859	800.000	0.101	-0.301
-96.845	-65.806	0.113	-0.045
-95.830	462.957	-0.038	0.082
-94.816	79.887	-0.153	0.162
-93.801	425.392	0.117	0.248
-92.786	-30.337	0.104	0.058
-91.772	387.883	0.049	-0.101
-90.757	44.621	-0.280	-0.253
-89.743	-200.000	0.015	0.158
-88.728	-200.000	0.018	-0.140
-87.713	-73.656	0.326	0.117
-86.699	-59.422	-0.581	-0.246
-85.684	551.589	-0.054	-0.128
-84.670	800.000	0.024	-0.090
-83.655	-200.000	0.001	0.065
-82.640	-143.076	-0.142	0.014
-81.626	336.686	-0.099	-0.189
-80.611	-141.411	0.235	0.023
-79.597	-147.925	0.180	0.015
-78.582	-200.000	-0.012	-0.471
-77.567	-62.425	0.339	-0.139
-76.553	97.750	0.120	-0.135
-75.538	-165.841	0.254	0.011
-74.524	-85.229	-0.354	-0.109
-73.509	-55.642	-0.276	0.121
-72.494	484.838	-0.053	-0.120
-71.480	800.000	-0.053	-0.143
-70.465	86.231	0.236	-0.256
-69.451	6.069	0.206	0.150
-68.436	-200.000	0.022	0.258
-67.422	-186.674	-0.339	-0.005
-66.407	-105.796	-0.309	-0.069
-65.392	-200.000	0.009	0.272
-64.378	-181.751	0.142	-0.003
-63.363	370.621	0.044	-0.087
-62.349	-134.218	0.169	0.020
-61.334	132.681	-1.023	-1.298
-60.319	-52.923	0.517	0.234
-59.305	-200.000	-0.117	-0.708
-58.290	244.776	0.640	1.057
-57.276	550.981	0.574	1.354
-56.261	-200.000	96.894	591.881
-55.246	556.746	1392.829	3298.772
-54.232	156.683	2582.080	3505.216
-53.217	106.698	2280.143	2658.974
-52.203	41.885	1901.674	1694.917
-51.188	35.639	1691.100	1459.911
-50.173	32.990	1646.491	1401.724
-49.159	50.700	1692.537	1574.415
-48.144	52.432	1709.074	1602.744
-47.130	35.195	1669.830	1437.990
-46.115	32.532	1655.564	1405.800
-45.100	32.428	1650.314	1400.516
-44.086	32.271	1647.765	1397.130
-43.071	32.288	1645.014	1394.870
-42.057	32.235	1642.720	1392.471
-41.042	32.318	1640.542	1391.188
-40.027	32.357	1638.639	1389.805
-39.013	32.351	1636.565	1387.949
-37.998	32.228	1635.598	1386.165
-36.984	32.164	1634.806	1384.970
-35.969	32.326	1632.929	1384.519
-34.954	32.506	1630.739	1383.925
-33.940	32.362	1629.586	1381.834
-32.925	32.371	1627.344	1379.944
-31.911	32.396	1625.243	1378.293
-30.896	32.320	1623.817	1376.472
-29.881	32.368	1622.543	1375.691
-28.867	32.304	1620.635	1373.548
-27.852	32.350	1618.845	1372.316
-26.838	32.314	1617.923	1371.216
-25.823	32.447	1616.232	1370.699
-24.809	32.383	1615.104	1369.220
-23.794	32.476	1613.285	1368.302
-22.779	32.443	1612.140	1367.034
-21.765	32.348	1610.564	1364.952
-20.750	32.342	1609.085	1363.603
-19.736	32.484	1607.596	1363.313
-18.721	32.394	1606.547	1361.721
-17.706	32.435	1604.372	1360.121
-16.692	32.415	1602.434	1358.274
-15.677	32.421	1601.735	1357.674
-14.663	32.331	1600.431	1355.870
-13.648	32.386	1598.778	1354.808
-12.633	32.461	1597.197	1353.957
-11.619	32.455	1595.197	1352.165
-10.604	32.429	1594.303	1351.165
-9.590	32.352	1593.494	1349.875
-8.575	32.411	1591.958	1348.943
-7.560	32.396	1590.649	1347.669
-6.546	32.384	1589.650	1346.687
-5.531	32.448	1588.495	1346.110
-4.517	32.388	1587.149	1344.489
-3.502	32.382	1586.395	1343.755
-2.487	32.467	1584.586	1342.775
-1.473	32.420	1572.536	1332.173
-0.458	29.929	1553.885	1298.873
0.556	26.459	1555.822	1270.434
1.571	24.333	1579.730	1274.670
2.586	23.800	1593.751	1282.019
3.600	20.818	1538.563	1216.716
4.615	11.187	1426.056	1064.982
5.629	2.975	1360.938	964.858
6.644	1.689	1352.286	950.617
7.659	1.651	1350.783	949.240
8.673	1.626	1349.599	948.166
9.688	1.523	1347.799	946.175
10.702	1.293	1344.541	942.379
11.717	4.678	1351.550	968.301
12.731	14.916	1370.845	1046.399
13.746	23.617	1385.484	1112.258
14.761	25.894	1389.241	1129.464
15.775	26.268	1389.190	1131.664
16.790	26.318	1388.564	1131.369
17.804	26.390	1388.108	1131.351
18.819	26.505	1388.415	1132.217
19.834	26.650	1387.336	1132.148
20.848	26.815	1386.215	1132.160
21.863	26.773	1385.544	1131.249
22.877	26.835	1384.576	1130.744
23.892	26.682	1384.111	1129.312
24.907	26.736	1383.167	1128.780
25.921	26.717	1382.040	1127.643
26.936	26.725	1381.437	1127.100
27.950	26.740	1380.400	1126.246
28.965	26.770	1379.292	1125.427
29.980	26.672	1378.201	1123.833
30.994	26.709	1376.560	1122.625
32.009	26.842	1375.149	1122.198
33.023	26.780	1374.659	1121.316
34.038	26.736	1373.115	1119.682
35.053	26.904	1371.415	1119.234
36.067	26.777	1371.644	1118.536
37.082	26.715	1370.675	1117.268
38.096	26.725	1369.623	1116.369
39.111	26.746	1368.803	1115.732
40.126	26.714	1368.079	1114.850
41.140	26.658	1367.760	1114.144
42.155	26.621	1367.576	1113.670
43.169	26.834	1366.853	1114.294
44.184	26.774	1366.779	1113.760
45.199	26.732	1366.416	1113.109
46.213	26.622	1366.402	1112.323
47.228	26.713	1365.280	1111.870
48.242	26.806	1363.805	1111.140
49.257	26.822	1362.417	1110.012
50.271	26.772	1361.055	1108.495
51.286	26.843	1359.435	1107.517
52.301	26.771	1358.137	1105.920
53.315	26.773	1357.599	1105.398
54.330	26.830	1356.630	1104.854
55.344	26.803	1356.095	1104.155
56.359	26.857	1354.262	1102.897
57.374	26.691	1353.882	1101.481
58.388	26.781	1353.178	1101.356
59.403	26.762	1352.945	1100.953
60.417	26.675	1352.305	1099.808
61.432	26.784	1350.962	1099.277
62.447	26.774	1350.155	1098.467
63.461	26.814	1349.022	1097.686
64.476	26.673	1348.754	1096.518
65.490	26.780	1347.297	1095.883
66.505	26.740	1345.630	1094.187
67.520	26.729	1344.735	1093.298
68.534	26.822	1343.211	1092.524
69.549	26.763	1342.916	1091.835
70.563	26.908	1341.464	1091.429
71.578	26.762	1340.606	1089.752
72.593	26.744	1340.522	1089.479
73.607	26.742	1339.769	1088.759
74.622	26.715	1339.123	1087.978
75.636	26.848	1337.765	1087.579
76.651	26.715	1337.552	1086.511
77.666	26.760	1336.931	1086.178
78.680	26.794	1336.451	1085.897
79.695	26.887	1335.232	1085.365
80.709	26.717	1335.088	1084.132
81.724	26.781	1333.576	1083.191
82.739	26.882	1332.924	1083.169
83.753	26.800	1332.211	1082.004
84.768	26.707	1330.773	1080.190
85.782	26.897	1329.840	1080.470
86.797	26.832	1328.571	1078.956
87.812	26.813	1327.908	1078.209
88.826	26.834	1326.406	1077.017
89.841	26.960	1325.414	1076.867
90.855	26.791	1324.642	1075.143
91.870	26.743	1323.725	1074.016
92.884	26.863	1322.943	1073.996
93.899	26.848	1322.111	1073.138
94.914	26.805	1321.652	1072.418
95.928	26.870	1320.597	1071.852
96.943	26.838	1319.733	1070.862
97.957	26.761	1319.447	1070.084
98.972	26.835	1318.165	1069.386
99.987	26.895	1317.367	1068.997
101.001	26.826	1316.995	1068.194
102.016	26.868	1315.728	1067.317
103.030	26.863	1315.001	1066.603
104.045	26.934	1313.968	1066.091
105.060	26.910	1312.991	1065.064
106.074	26.887	1311.650	1063.744
107.089	26.925	1311.079	1063.413
108.103	26.848	1309.949	1061.948
109.118	26.899	1309.079	1061.449
110.133	26.969	1307.523	1060.499
111.147	26.874	1307.172	1059.566
112.162	26.951	1305.836	1058.841
113.176	26.903	1304.916	1057.719
114.191	26.931	1303.880	1056.951
115.206	26.821	1303.339	1055.777
116.220	26.948	1301.605	1055.021
117.235	26.875	1300.912	1053.938
118.249	26.793	1300.285	1052.864
119.264	26.876	1299.492	1052.610
120.279	26.822	1298.318	1051.249
121.293	26.966	1297.515	1051.340
122.308	26.967	1297.103	1050.923
123.322	27.053	1296.271	1050.654
124.337	26.911	1295.527	1049.136
125.352	26.963	1294.454	1048.472
126.366	26.951	1293.534	1047.568
127.381	27.012	1292.461	1046.959
128.395	27.077	1291.557	1046.505
129.410	27.026	1291.018	1045.683
130.424	26.969	1290.364	1044.732
131.439	27.067	1288.877	1043.999
132.454	27.022	1288.626	1043.443
133.468	26.964	1288.074	1042.571
134.483	26.867	1287.725	1041.641
135.497	26.935	1286.426	1040.888
136.512	26.905	1285.382	1039.777
137.527	27.068	1283.723	1039.276
138.541	26.896	1282.900	1037.537
139.556	26.922	1281.931	1036.812
140.570	26.840	1281.304	1035.745
141.585	26.911	1280.176	1035.142
142.600	27.005	1279.033	1034.666
143.614	26.993	1278.173	1033.808
144.629	26.933	1277.141	1032.543
145.643	26.886	1276.583	1031.733
146.658	26.792	1275.730	1030.418
147.673	26.830	1274.558	1029.596
148.687	26.898	1273.400	1028.952
149.702	26.947	1271.840	1027.881
150.716	26.959	1271.091	1027.251
151.731	26.856	1270.548	1026.138
152.746	26.972	1269.249	1025.651
153.760	27.027	1268.300	1025.105
154.775	26.886	1267.489	1023.567
155.789	27.011	1265.996	1022.975
156.804	26.908	1265.391	1021.813
157.819	26.912	1264.963	1021.401
158.833	26.970	1263.758	1020.666
159.848	27.015	1263.298	1020.452
160.862	26.983	1262.214	1019.310
161.877	26.989	1261.699	1018.839
162.892	26.976	1260.939	1018.062
163.906	27.023	1260.201	1017.635
164.921	26.968	1259.567	1016.727
165.935	27.024	1258.499	1016.090
166.950	27.063	1258.168	1015.949
167.964	27.080	1257.384	1015.322
168.979	27.107	1256.466	1014.641
169.994	27.053	1256.160	1014.003
171.008	27.126	1255.456	1013.751
172.023	27.111	1254.740	1013.001
173.037	27.124	1253.982	1012.371
174.052	27.089	1253.393	1011.610
175.067	27.110	1252.585	1010.985
176.081	27.109	1252.125	1010.522
177.096	27.103	1251.044	1009.524
178.110	27.118	1250.284	1008.904
179.125	27.093	1249.257	1007.852
180.140	27.135	1248.023	1006.997
181.154	27.168	1246.938	1006.217
182.169	27.072	1246.477	1005.221
183.183	27.091	1245.354	1004.334
184.198	27.130	1243.966	1003.341
185.213	27.173	1243.122	1002.808
186.227	27.307	1241.905	1002.475
187.242	27.234	1241.099	1001.335
188.256	27.306	1240.139	1000.868
189.271	27.174	1239.407	999.465
190.286	27.179	1238.668	998.806
191.300	27.141	1238.845	998.649
192.315	27.156	1238.150	998.084
193.329	27.069	1237.585	997.063
194.344	27.115	1236.897	996.671
195.359	27.191	1236.682	996.830
196.373	27.093	1236.091	995.730
197.388	27.109	1235.713	995.421
198.402	27.165	1235.410	995.395
199.417	27.170	1234.958	994.971
200.432	27.227	1233.846	994.298
201.446	27.247	1233.517	994.056
202.461	27.143	1232.920	992.918
203.475	27.160	1231.932	992.126
204.490	27.104	1230.938	990.934
205.504	27.229	1230.066	990.826
206.519	27.213	1229.428	990.140
207.534	27.320	1228.060	989.529
208.548	27.254	1227.283	988.457
209.563	27.104	1227.070	987.383
210.577	27.248	1225.897	987.133
211.592	27.164	1225.018	985.883
212.607	27.342	1224.670	986.483
213.621	27.237	1224.101	985.368
214.636	27.304	1222.721	984.531
215.650	27.225	1222.320	983.692
216.665	27.216	1221.066	982.551
217.680	27.327	1219.794	982.035
218.694	27.335	1219.645	981.871
219.709	27.338	1219.098	981.365
220.723	27.360	1218.467	980.886
221.738	27.190	1217.733	979.292
222.753	27.152	1216.753	978.211
223.767	27.368	1215.682	978.427
224.782	27.370	1215.537	978.232
225.796	27.341	1215.550	978.006
226.811	27.381	1214.699	977.448
227.826	27.400	1213.702	976.661
228.840	27.373	1213.121	975.961
229.855	27.377	1212.566	975.450
230.869	27.389	1211.983	974.957
231.884	27.405	1211.663	974.698
232.899	27.341	1210.575	973.398
233.913	27.438	1209.670	973.099
234.928	27.414	1209.505	972.755
235.942	27.506	1208.537	972.381
236.957	27.445	1207.905	971.458
237.972	27.443	1207.094	970.713
238.986	27.430	1206.639	970.191
240.001	27.410	1206.386	969.797
241.015	27.529	1205.326	969.491
242.030	27.503	1204.868	968.900
243.045	27.527	1203.750	968.043
244.059	27.587	1203.424	968.013
245.074	27.505	1202.433	966.695
246.088	27.546	1201.867	966.368
247.103	27.487	1200.985	965.262
248.117	27.519	1200.468	964.932
249.132	27.531	1199.276	963.949
250.147	27.716	1198.510	964.225
251.161	27.625	1197.738	963.044
252.176	27.533	1197.286	962.106
253.190	27.619	1196.856	962.128
254.205	27.546	1196.107	961.056
255.220	27.691	1195.301	961.090
256.234	27.535	1195.505	960.344
257.249	27.598	1194.768	960.001
258.263	27.699	1193.926	959.772
259.278	27.793	1193.081	959.502
260.293	27.630	1192.362	957.981
261.307	27.696	1192.176	958.095
262.322	27.664	1191.747	957.497
263.336	27.721	1190.729	956.894
264.351	27.797	1190.115	956.711
265.366	27.681	1189.482	955.514
266.380	27.685	1188.678	954.804
267.395	27.690	1187.979	954.182
268.409	27.622	1188.148	953.880
269.424	27.632	1187.365	953.215
270.439	27.843	1186.701	953.699
271.453	27.687	1185.713	952.008
272.468	27.674	1185.193	951.437
273.482	27.615	1184.247	950.291
274.497	27.837	1183.905	951.086
275.512	27.948	1182.998	950.854
276.526	27.738	1182.887	949.587
277.541	27.821	1181.669	948.954
278.555	27.780	1181.463	948.493
279.570	27.839	1180.587	948.011
280.585	27.968	1179.653	947.848
281.599	27.836	1179.191	946.708
282.614	27.736	1178.242	945.344
283.628	27.855	1177.146	944.995
284.643	27.954	1176.191	944.661
285.657	27.915	1175.243	943.612
286.672	27.764	1174.969	942.527
287.687	27.953	1174.436	942.995
288.701	27.932	1173.695	942.207
289.716	27.919	1172.695	941.252
290.730	27.936	1171.979	940.683
291.745	28.013	1171.269	940.426
292.760	28.053	1170.994	940.326
293.774	28.012	1170.267	939.448
294.789	28.042	1170.087	939.378
295.803	27.946	1169.224	938.106
296.818	27.981	1168.436	937.569
297.833	27.971	1168.112	937.180
298.847	28.065	1167.328	936.949
299.862	28.036	1166.611	936.141
300.876	28.052	1165.824	935.509
301.891	28.059	1165.455	935.164
302.906	28.067	1164.883	934.663
303.920	28.145	1163.794	934.105
304.935	28.061	1163.524	933.380
305.949	28.133	1162.593	932.915
306.964	28.106	1162.323	932.478
307.979	28.041	1161.513	931.417
308.993	28.266	1160.960	932.032
310.008	28.186	1160.060	930.824
311.022	28.209	1159.257	930.214
312.037	28.171	1158.876	929.634
313.052	28.084	1157.982	928.393
314.066	28.147	1157.181	927.984
315.081	28.037	1156.719	926.978
316.095	28.113	1156.066	926.753
317.110	28.200	1155.206	926.425
318.125	28.181	1154.773	925.901
319.139	28.095	1153.818	924.618
320.154	28.290	1153.024	924.886
321.168	28.202	1152.830	924.201
322.183	28.196	1152.372	923.726
323.197	28.254	1151.461	923.205
324.212	28.159	1151.154	922.399
325.227	28.238	1150.245	921.984
326.241	28.349	1149.872	922.161
327.256	28.361	1149.399	921.761
328.270	28.314	1148.416	920.657
329.285	28.340	1147.539	920.002
330.300	28.408	1146.575	919.488
331.314	28.204	1146.236	918.112
332.329	28.327	1145.167	917.792
333.343	28.407	1144.433	917.522
334.358	28.384	1143.550	916.617
335.373	28.432	1142.949	916.295
336.387	28.387	1142.453	915.590
337.402	28.422	1141.852	915.204
338.416	28.463	1141.427	914.987
339.431	28.434	1140.770	914.232
340.446	28.513	1139.916	913.865
341.460	28.462	1139.357	913.078
342.475	28.399	1138.668	912.133
343.489	28.457	1137.632	911.513
344.504	28.520	1136.748	911.037
345.519	28.458	1136.170	910.185
346.533	28.587	1134.846	909.684
347.548	28.497	1134.696	909.034
348.562	28.573	1133.898	908.692
349.577	28.604	1133.152	908.169
350.592	28.401	1132.650	906.679
351.606	28.473	1131.922	906.375
352.621	28.556	1130.977	905.947
353.635	28.598	1130.637	905.799
354.650	28.617	1129.858	905.192
355.665	28.621	1128.916	904.374
356.679	28.694	1128.704	904.484
357.694	28.735	1127.902	903.965
358.708	28.765	1127.122	903.406
359.723	28.721	1126.527	902.635
360.738	28.696	1126.049	902.049
361.752	28.502	1125.910	900.903
362.767	28.585	1125.397	900.819
363.781	28.715	1124.389	900.572
364.796	28.763	1123.963	900.388
365.810	28.721	1123.713	899.900
366.825	28.749	1122.788	899.219
367.840	28.827	1122.384	899.197
368.854	28.746	1122.087	898.483
369.869	28.811	1121.316	898.103
370.883	28.813	1120.062	897.028
371.898	28.860	1119.492	896.721
372.913	28.864	1119.050	896.308
373.927	28.853	1118.519	895.749
374.942	28.910	1117.663	895.264
375.956	28.889	1117.210	894.717
376.971	28.859	1116.871	894.223
377.986	28.888	1116.496	893.983
379.000	28.941	1115.931	893.712
380.015	29.076	1115.235	893.730
381.029	28.979	1114.576	892.650
382.044	28.868	1114.109	891.658
383.059	29.008	1113.444	891.727
384.073	28.957	1112.593	890.719
385.088	28.994	1111.350	889.823
386.102	28.965	1110.814	889.175
387.117	29.034	1109.864	888.671
388.132	28.988	1108.945	887.635
389.146	29.016	1108.445	887.292
390.161	29.011	1107.862	886.721
391.175	29.069	1107.418	886.565
392.190	29.052	1106.681	885.818
393.205	29.104	1105.989	885.436
394.219	29.056	1105.594	884.811
395.234	29.168	1104.384	884.300
396.248	29.126	1103.563	883.365
397.263	29.161	1102.868	882.897
398.278	29.119	1102.475	882.303
399.292	29.125	1101.998	881.872
400.307	29.294	1101.379	882.104
401.321	29.127	1100.554	880.571
402.336	29.161	1100.196	880.370
403.350	29.203	1099.513	879.944
404.365	29.405	1098.669	880.156
405.380	29.326	1097.801	879.005
406.394	29.258	1097.112	878.053
407.409	29.229	1096.492	877.339
408.423	29.323	1095.990	877.306
409.438	29.396	1095.152	876.904
410.453	29.367	1094.573	876.225
411.467	29.337	1093.966	875.519
412.482	29.299	1093.549	874.929
413.496	29.448	1092.297	874.557
414.511	29.318	1091.978	873.609
415.526	29.379	1091.521	873.455
416.540	29.481	1091.284	873.669
417.555	29.396	1090.638	872.671
418.569	29.309	1090.186	871.821
419.584	29.377	1089.492	871.513
420.599	29.409	1089.475	871.573
421.613	102.930	1322.013	1457.229
422.628	95.903	1355.855	1457.325
