DTS Sentinel unit serial number:	SN413079Multiplexer serial number:	ORYXHardware model number:	OX4-SRSoftware version number:	ORYX F/W v4.00 Oryx Data Collector v3.7.2.0data status	okinstallation	princeton_trtdifferential loss correction	single-endedforward channel	channel 2reverse channel	N/Adate	2019/09/11time	05:09:10forward acquisition time	60.00reverse acquisition time	0.00gamma	496.2192k internal	0.2329k external	0.2329temperature offset calibration	0.9943default loss term (dB/km)	0.3790temperature slope calibration	1.0000multiplexer offset coefficient	1.0000multiplexer slope coefficient	1.0000fibre end	0.00T internal ref (°C)	29.44T ext. ref 1 (°C)	-0.25T ext. ref 2 (°C)	23.37length (m)	temperature (°C)	Stokes	anti-Stokes-747.200	504.427	-0.109	-0.254
-746.185	-25.437	-0.278	0.166
-745.171	-56.332	0.392	0.176
-744.156	-63.553	-0.059	-0.024
-743.142	728.207	-0.040	-0.107
-742.127	23.037	0.175	0.145
-741.112	-57.293	-0.324	0.144
-740.098	-158.625	0.085	-0.005
-739.083	-52.966	-0.167	0.078
-738.069	-181.613	-0.259	-0.005
-737.054	119.076	-0.091	0.113
-736.039	-200.000	0.024	-0.379
-735.025	-137.798	0.067	0.008
-734.010	-23.203	-0.173	-0.105
-732.996	56.313	-0.283	-0.277
-731.981	15.778	0.111	-0.088
-730.966	119.203	-0.154	-0.192
-729.952	-147.685	-0.326	0.028
-728.937	-200.000	-0.072	-0.362
-727.923	316.418	-0.229	-0.436
-726.908	101.020	-0.226	-0.265
-725.894	-114.758	-0.407	-0.078
-724.879	291.859	-0.198	-0.363
-723.864	-155.078	-0.238	0.016
-722.850	275.230	-0.205	0.367
-721.835	24.858	0.078	-0.065
-720.821	-32.776	0.018	-0.010
-719.806	-134.385	-0.290	0.036
-718.791	151.188	0.106	0.145
-717.777	84.215	-0.308	0.339
-716.762	-109.739	-0.396	-0.084
-715.748	-200.000	0.062	-0.281
-714.733	130.159	-0.161	-0.208
-713.718	134.758	0.167	0.218
-712.704	10.440	-0.101	0.078
-711.689	65.222	0.058	-0.059
-710.675	364.960	0.065	0.132
-709.660	800.000	-0.042	-0.140
-708.645	-200.000	-0.330	-0.001
-707.631	800.000	0.055	-0.182
-706.616	56.825	0.308	0.302
-705.602	-178.457	-0.121	-0.003
-704.587	12.224	-0.220	-0.171
-703.572	103.574	0.076	0.090
-702.558	-109.289	-0.364	-0.078
-701.543	776.708	0.063	0.174
-700.529	800.000	0.071	0.270
-699.514	-1.519	-0.199	-0.141
-698.499	-200.000	-0.017	0.199
-697.485	-86.574	-0.483	0.149
-696.470	-71.567	-0.222	0.083
-695.456	-42.050	0.157	-0.081
-694.441	55.089	0.080	0.078
-693.426	800.000	-0.024	-0.070
-692.412	120.049	0.184	-0.230
-691.397	122.018	-0.056	-0.070
-690.383	-200.000	0.165	0.000
-689.368	50.732	0.108	-0.103
-688.354	-165.259	-0.094	-0.004
-687.339	-63.619	0.142	0.058
-686.324	-200.000	0.032	0.197
-685.310	101.236	-0.226	0.265
-684.295	-74.524	-0.115	-0.042
-683.281	-28.955	0.083	-0.048
-682.266	509.400	0.004	-0.010
-681.251	266.553	0.043	0.075
-680.237	-138.283	-0.340	-0.038
-679.222	46.956	0.138	-0.129
-678.208	-56.261	-0.229	-0.102
-677.193	-77.860	-0.295	-0.102
-676.178	-159.296	0.092	-0.005
-675.164	-88.837	-0.174	0.052
-674.149	19.511	-0.293	-0.236
-673.135	150.946	-0.183	-0.250
-672.120	104.255	0.260	-0.307
-671.105	-84.911	-0.294	-0.093
-670.091	-200.000	0.006	-0.047
-669.076	-200.000	0.033	-0.260
-668.062	-200.000	-0.009	0.380
-667.047	800.000	-0.083	0.255
-666.032	-1.354	-0.114	-0.081
-665.018	41.541	0.071	-0.064
-664.003	-200.000	-0.023	-0.109
-662.989	-92.832	0.192	-0.054
-661.974	205.933	0.071	0.110
-660.959	-96.145	0.254	0.068
-659.945	-134.383	-0.405	0.050
-658.930	631.456	0.026	-0.065
-657.916	146.388	0.134	0.180
-656.901	-60.529	-0.262	0.112
-655.886	-200.000	0.033	0.196
-654.872	-90.694	0.138	-0.040
-653.857	-4.345	-0.135	-0.093
-652.843	800.000	0.043	0.188
-651.828	20.971	0.138	0.112
-650.814	-113.235	0.019	0.004
-649.799	-93.266	-0.111	-0.031
-648.784	456.901	-0.013	0.030
-647.770	-107.518	0.619	-0.136
-646.755	-200.000	0.058	-0.273
-645.741	-200.000	-0.055	-0.288
-644.726	74.382	-0.318	-0.335
-643.711	154.436	0.179	-0.247
-642.697	6.492	-0.119	-0.088
-641.682	53.872	-0.096	-0.093
-640.668	-200.000	-0.017	-0.081
-639.653	-97.558	0.131	-0.034
-638.638	-200.000	0.033	0.297
-637.624	42.740	-0.366	-0.335
-636.609	-48.082	0.050	-0.024
-635.595	29.473	0.081	0.069
-634.580	499.505	-0.151	-0.349
-633.565	-200.000	0.010	0.285
-632.551	229.793	-0.196	-0.322
-631.536	-19.866	0.179	0.111
-630.522	592.072	-0.152	0.377
-629.507	91.350	0.181	-0.203
-628.492	-196.417	-0.196	-0.001
-627.478	265.097	0.125	-0.218
-626.463	234.818	-0.089	-0.148
-625.449	632.704	0.094	0.239
-624.434	-9.201	-0.268	0.180
-623.419	800.000	0.047	0.139
-622.405	20.837	0.082	-0.067
-621.390	-64.084	-0.189	-0.077
-620.376	15.883	-0.021	0.016
-619.361	-32.586	-0.072	0.040
-618.346	-156.607	0.124	-0.008
-617.332	-49.064	-0.405	-0.194
-616.317	-123.112	0.375	-0.060
-615.303	34.098	0.235	0.205
-614.288	-13.136	0.165	-0.108
-613.273	-89.040	0.050	0.015
-612.259	-114.469	0.321	-0.062
-611.244	800.000	0.036	0.122
-610.230	88.058	0.129	0.143
-609.215	-35.038	0.201	-0.110
-608.201	331.855	0.028	-0.054
-607.186	82.957	-0.183	-0.199
-606.171	517.132	0.118	0.276
-605.157	-6.709	0.169	-0.115
-604.142	217.792	-0.250	-0.399
-603.128	-133.271	0.242	-0.031
-602.113	407.172	-0.164	0.347
-601.098	800.000	0.092	-0.333
-600.084	-200.000	-0.020	-0.325
-599.069	-200.000	-0.016	-0.106
-598.055	-200.000	0.006	-0.194
-597.040	581.207	0.110	-0.270
-596.025	17.728	0.394	-0.314
-595.011	165.765	-0.168	-0.237
-593.996	-90.259	-0.243	0.071
-592.982	800.000	0.086	0.327
-591.967	-67.094	-0.130	-0.051
-590.952	-200.000	-0.027	-0.136
-589.938	-164.444	-0.286	-0.013
-588.923	715.488	-0.045	-0.121
-587.909	606.572	0.011	-0.029
-586.894	-200.000	0.027	0.138
-585.879	42.571	-0.279	0.254
-584.865	-15.780	-0.171	-0.109
-583.850	-200.000	-0.037	-0.282
-582.836	-54.517	0.112	0.051
-581.821	-69.222	0.368	-0.141
-580.806	276.050	-0.074	-0.132
-579.792	-200.000	0.012	0.199
-578.777	264.258	0.019	0.033
-577.763	54.013	0.099	0.096
-576.748	-200.000	-0.021	0.227
-575.733	6.078	-0.022	0.016
-574.719	-104.656	0.308	-0.071
-573.704	-80.710	0.164	-0.055
-572.690	231.341	-0.241	0.394
-571.675	-53.007	0.153	0.071
-570.661	-180.904	0.250	-0.005
-569.646	-49.815	-0.384	-0.182
-568.631	404.901	-0.055	-0.115
-567.617	-155.938	0.161	-0.010
-566.602	-31.868	0.027	0.015
-565.588	187.347	0.210	-0.314
-564.573	-64.542	0.250	-0.101
-563.558	800.000	0.007	0.023
-562.544	800.000	0.019	-0.058
-561.529	-200.000	0.085	0.436
-560.515	-200.000	0.015	0.276
-559.500	-96.805	0.266	0.070
-558.485	-97.971	0.060	-0.016
-557.471	-200.000	0.023	0.102
-556.456	-36.481	0.463	-0.249
-555.442	546.126	0.163	0.389
-554.427	-177.876	-0.186	-0.004
-553.412	-56.920	0.185	0.082
-552.398	554.748	-0.043	0.104
-551.383	-176.315	0.398	0.010
-550.369	800.000	-0.045	-0.146
-549.354	-11.849	0.144	0.094
-548.339	-32.045	0.220	0.123
-547.325	222.771	-0.129	-0.208
-546.310	-56.631	-0.339	-0.150
-545.296	-200.000	-0.002	-0.298
-544.281	503.450	-0.141	-0.326
-543.266	50.789	0.076	0.072
-542.252	305.055	-0.186	0.345
-541.237	800.000	0.029	0.104
-540.223	-78.882	-0.170	0.058
-539.208	-200.000	0.013	-0.122
-538.193	-161.200	0.339	-0.018
-537.179	800.000	-0.013	-0.037
-536.164	178.428	0.085	-0.124
-535.150	800.000	0.104	0.348
-534.135	-182.894	-0.264	0.005
-533.121	-144.703	-0.320	-0.029
-532.106	-52.401	-0.104	0.048
-531.091	800.000	-0.079	-0.226
-530.077	238.596	-0.200	-0.332
-529.062	340.710	-0.016	-0.030
-528.048	-127.205	-0.060	0.009
-527.033	246.070	-0.168	0.283
-526.018	-17.251	0.095	-0.060
-525.004	-160.666	0.243	0.013
-523.989	96.117	0.195	-0.222
-522.975	-200.000	-0.025	-0.254
-521.960	324.633	-0.114	-0.217
-520.945	5.579	0.299	0.220
-519.931	800.000	0.052	0.227
-518.916	-200.000	-0.023	0.280
-517.902	-123.678	0.154	0.024
-516.887	-200.000	-0.022	-0.416
-515.872	203.183	-0.093	-0.144
-514.858	110.527	-0.102	0.122
-513.843	309.594	0.013	-0.024
-512.829	227.832	-0.126	-0.205
-511.814	-173.500	0.266	0.008
-510.799	185.170	0.138	0.204
-509.785	98.898	-0.177	0.204
-508.770	-55.331	0.162	-0.073
-507.756	-97.301	-0.421	0.109
-506.741	-137.616	-0.271	-0.030
-505.726	-95.275	0.233	0.063
-504.712	643.008	0.133	0.337
-503.697	27.637	0.252	0.212
-502.683	9.917	0.361	-0.273
-501.668	800.000	0.069	-0.297
-500.653	239.608	-0.173	0.287
-499.639	-86.905	0.408	0.124
-498.624	251.135	0.057	-0.097
-497.610	-200.000	-0.022	-0.256
-496.595	450.694	-0.098	0.216
-495.581	87.301	0.100	0.110
-494.566	-200.000	0.021	-0.151
-493.551	-11.336	0.212	-0.139
-492.537	72.205	-0.109	0.113
-491.522	114.275	-0.158	0.191
-490.508	126.341	0.092	-0.116
-489.493	-173.652	0.319	-0.010
-488.478	-89.690	0.372	-0.109
-487.464	167.012	-0.014	-0.020
-486.449	-64.490	0.212	-0.086
-485.435	40.457	0.226	0.203
-484.420	-129.129	0.066	-0.009
-483.405	-200.000	0.093	-0.528
-482.391	75.884	-0.119	-0.125
-481.376	65.862	-0.132	-0.134
-480.362	-94.385	-0.361	-0.098
-479.347	786.212	0.073	0.199
-478.332	745.004	0.035	-0.093
-477.318	-79.530	-0.084	-0.028
-476.303	-123.100	-0.187	0.030
-475.289	589.070	0.083	0.204
-474.274	-39.759	-0.121	0.063
-473.259	451.027	0.118	0.260
-472.245	123.984	0.121	-0.151
-471.230	-62.502	-0.256	-0.106
-470.216	335.877	0.146	-0.281
-469.201	800.000	0.082	0.244
-468.186	-21.531	0.103	-0.062
-467.172	-111.463	-0.194	-0.039
-466.157	-200.000	-0.030	-0.370
-465.143	10.363	-0.204	0.154
-464.128	-101.134	0.116	-0.028
-463.113	311.436	-0.139	-0.260
-462.099	-38.588	-0.207	0.109
-461.084	-200.000	0.013	-0.092
-460.070	-55.691	-0.204	-0.091
-459.055	341.849	-0.161	-0.314
-458.040	-2.240	-0.225	0.157
-457.026	-1.925	-0.072	-0.050
-456.011	-53.586	-0.089	-0.040
-454.997	-20.384	-0.237	-0.145
-453.982	-86.495	0.158	-0.048
-452.968	131.856	-0.107	0.137
-451.953	103.136	0.232	0.271
-450.938	-135.042	0.161	-0.019
-449.924	48.637	0.239	0.223
-448.909	-200.000	0.030	0.157
-447.895	51.231	-0.222	-0.210
-446.880	793.619	-0.068	-0.185
-445.865	47.943	0.081	0.076
-444.851	26.809	-0.314	0.262
-443.836	-82.527	-0.226	-0.073
-442.822	120.558	-0.394	-0.488
-441.807	96.567	-0.098	0.112
-440.792	310.169	-0.073	0.135
-439.778	-200.000	0.019	-0.191
-438.763	800.000	0.033	0.100
-437.749	-200.000	0.002	-0.222
-436.734	346.063	-0.100	0.195
-435.719	132.669	-0.101	-0.130
-434.705	192.885	-0.091	0.137
-433.690	-70.844	0.058	0.022
-432.676	101.848	-0.180	0.209
-431.661	685.613	0.015	0.039
-430.646	-2.608	-0.151	0.105
-429.632	-128.621	-0.358	-0.050
-428.617	204.531	-0.100	0.154
-427.603	118.706	0.177	0.217
-426.588	146.337	-0.163	-0.218
-425.573	-200.000	0.033	0.296
-424.559	-84.388	-0.308	-0.097
-423.544	84.182	-0.226	0.245
-422.530	287.543	0.118	-0.213
-421.515	35.588	-0.075	-0.065
-420.500	-200.000	0.074	-0.345
-419.486	800.000	-0.013	0.049
-418.471	38.763	0.221	-0.196
-417.457	800.000	0.044	-0.128
-416.442	-118.966	-0.215	0.038
-415.428	132.742	0.153	0.196
-414.413	217.816	-0.085	-0.135
-413.398	428.107	0.036	-0.077
-412.384	177.005	-0.211	0.306
-411.369	-61.696	-0.199	-0.083
-410.355	-200.000	-0.017	0.250
-409.340	-8.086	0.142	-0.095
-408.325	-42.059	-0.192	-0.097
-407.311	42.940	-0.227	-0.206
-406.296	-7.911	0.085	0.057
-405.282	-56.305	-0.319	-0.141
-404.267	303.518	-0.110	-0.202
-403.252	0.233	0.087	-0.062
-402.238	-164.761	0.348	-0.016
-401.223	-78.734	-0.111	0.038
-400.209	137.686	0.072	-0.093
-399.194	-200.000	0.023	-0.253
-398.179	-113.644	0.154	-0.030
-397.165	-120.909	-0.204	-0.034
-396.150	218.428	0.050	0.080
-395.136	-56.234	-0.222	-0.098
-394.121	-200.000	0.001	-0.117
-393.106	-161.502	-0.162	0.008
-392.092	18.720	0.220	-0.175
-391.077	-200.000	0.063	0.422
-390.063	-43.689	-0.171	-0.086
-389.048	165.451	0.053	0.075
-388.033	-200.000	0.042	-0.224
-387.019	37.253	0.034	-0.030
-386.004	63.697	-0.095	0.095
-384.990	-39.915	0.300	0.156
-383.975	-110.101	0.067	-0.014
-382.960	-33.196	0.201	-0.110
-381.946	10.083	0.160	-0.121
-380.931	-157.081	0.267	0.016
-379.917	-76.356	-0.200	-0.070
-378.902	-200.000	-0.010	-0.131
-377.888	82.825	0.226	-0.244
-376.873	-97.597	-0.309	0.079
-375.858	-200.000	0.024	0.313
-374.844	60.364	0.274	0.269
-373.829	172.716	-0.082	-0.118
-372.815	74.210	-0.110	-0.114
-371.800	-131.249	-0.063	-0.008
-370.785	213.131	-0.054	-0.085
-369.771	800.000	0.071	0.218
-368.756	162.864	0.173	0.241
-367.742	-200.000	0.032	-0.296
-366.727	-102.660	-0.344	0.081
-365.712	303.192	-0.128	0.235
-364.698	-200.000	0.002	0.034
-363.683	275.159	0.167	-0.293
-362.669	442.138	0.157	0.342
-361.654	800.000	0.036	0.126
-360.639	800.000	0.037	-0.139
-359.625	-200.000	0.033	0.211
-358.610	-200.000	-0.002	-0.110
-357.596	98.422	0.113	-0.130
-356.581	-200.000	-0.025	-0.186
-355.566	-104.342	0.235	0.054
-354.552	137.899	-0.155	-0.202
-353.537	-49.784	0.053	0.025
-352.523	4.897	0.082	0.060
-351.508	-98.656	0.060	-0.015
-350.493	-18.711	0.277	-0.171
-349.479	79.655	0.148	-0.158
-348.464	800.000	0.022	0.063
-347.450	68.639	0.217	0.221
-346.435	-127.146	-0.124	-0.018
-345.420	-200.000	-0.027	-0.194
-344.406	-200.000	0.071	-0.364
-343.391	-119.407	0.111	0.019
-342.377	-17.706	-0.174	0.108
-341.362	-200.000	-0.007	0.220
-340.348	800.000	-0.101	-0.291
-339.333	-200.000	0.002	-0.069
-338.318	308.009	-0.088	-0.163
-337.304	74.932	0.194	-0.203
-336.289	800.000	0.155	0.490
-335.275	80.020	-0.153	-0.163
-334.260	113.420	-0.156	-0.187
-333.245	16.827	-0.090	-0.070
-332.231	-61.493	-0.343	0.143
-331.216	-28.578	0.055	-0.031
-330.202	-200.000	0.009	-0.085
-329.187	-200.000	0.045	0.209
-328.172	-200.000	-0.040	0.351
-327.158	-132.111	-0.228	0.029
-326.143	-49.104	-0.136	0.065
-325.129	-163.472	-0.192	0.009
-324.114	-200.000	0.006	0.164
-323.099	113.219	0.211	-0.253
-322.085	-200.000	-0.027	0.189
-321.070	-200.000	-0.024	0.170
-320.056	130.816	-0.149	0.190
-319.041	64.110	0.243	0.242
-318.026	-121.083	0.070	0.012
-317.012	207.830	0.058	0.090
-315.997	-103.621	-0.191	-0.044
-314.983	0.214	0.152	-0.107
-313.968	169.819	-0.167	-0.236
-312.953	-106.390	0.474	0.105
-311.939	-15.521	0.328	0.207
-310.924	-54.003	-0.194	0.087
-309.910	95.665	0.177	-0.199
-308.895	6.251	-0.179	-0.132
-307.880	83.822	-0.242	0.261
-306.866	382.254	0.086	0.174
-305.851	-200.000	-0.045	0.201
-304.837	-104.462	-0.368	0.084
-303.822	-91.476	0.173	0.049
-302.807	-148.174	0.223	0.018
-301.793	127.612	0.175	-0.221
-300.778	-74.028	-0.129	-0.046
-299.764	109.016	-0.121	-0.143
-298.749	370.600	0.005	-0.009
-297.735	-127.500	0.080	0.012
-296.720	104.670	-0.115	0.135
-295.705	-162.597	0.347	-0.017
-294.691	-200.000	-0.053	0.370
-293.676	50.932	-0.197	-0.185
-292.662	385.054	0.082	-0.167
-291.647	-6.587	-0.127	0.085
-290.632	-3.129	-0.297	-0.205
-289.618	-187.611	0.158	0.002
-288.603	800.000	-0.073	0.254
-287.589	643.269	-0.131	0.330
-286.574	-113.210	-0.056	0.011
-285.559	-57.992	0.088	0.038
-284.545	373.286	0.140	0.281
-283.530	-200.000	-0.073	-0.415
-282.516	-200.000	-0.049	0.217
-281.501	800.000	-0.059	0.191
-280.486	120.645	0.020	0.025
-279.472	242.593	0.117	-0.193
-278.457	11.802	-0.251	-0.190
-277.443	-200.000	-0.036	-0.326
-276.428	800.000	0.091	-0.253
-275.413	-200.000	-0.023	0.154
-274.399	-76.970	0.201	-0.069
-273.384	-63.778	0.190	0.077
-272.370	-124.658	-0.157	0.024
-271.355	217.449	-0.115	0.181
-270.340	-161.897	-0.109	0.005
-269.326	-200.000	-0.005	0.210
-268.311	-106.641	0.246	-0.054
-267.297	659.804	-0.072	0.184
-266.282	-59.246	-0.338	0.144
-265.267	-37.476	0.375	-0.198
-264.253	-83.618	0.174	-0.055
-263.238	-81.484	0.192	0.063
-262.224	0.561	-0.224	-0.158
-261.209	-200.000	0.043	0.280
-260.195	-200.000	0.021	0.262
-259.180	-40.738	-0.039	0.020
-258.165	-50.227	-0.230	0.107
-257.151	-16.762	-0.271	-0.170
-256.136	170.801	0.264	0.374
-255.122	-111.324	0.232	0.047
-254.107	-93.118	-0.336	0.093
-253.092	-3.616	0.089	-0.061
-252.078	-110.896	0.198	0.040
-251.063	-93.683	0.212	0.058
-250.049	-167.906	-0.474	-0.018
-249.034	15.710	-0.079	0.061
-248.019	-200.000	0.031	-0.179
-247.005	-200.000	0.011	-0.300
-245.990	214.314	0.180	0.281
-244.976	-26.394	0.206	-0.120
-243.961	120.844	0.139	-0.171
-242.946	-75.163	0.014	0.005
-241.932	291.773	0.274	0.492
-240.917	-107.454	0.304	-0.066
-239.903	373.862	-0.105	0.211
-238.888	-200.000	-0.040	-0.383
-237.873	-136.852	0.103	0.012
-236.859	339.211	-0.237	0.456
-235.844	329.518	-0.093	-0.176
-234.830	800.000	0.019	0.070
-233.815	-138.929	-0.214	-0.023
-232.800	-200.000	0.005	0.030
-231.786	-56.383	-0.103	0.045
-230.771	-155.871	-0.262	0.016
-229.757	-56.702	-0.134	-0.059
-228.742	-200.000	-0.031	-0.137
-227.727	-114.322	0.162	0.031
-226.713	-200.000	0.028	0.262
-225.698	86.094	-0.128	-0.139
-224.684	18.783	0.049	-0.039
-223.669	-200.000	-0.012	0.264
-222.655	800.000	0.034	0.101
-221.640	-60.802	0.286	0.119
-220.625	-20.271	0.191	-0.116
-219.611	800.000	0.045	-0.184
-218.596	599.954	0.067	0.164
-217.582	106.156	-0.110	-0.129
-216.567	-132.118	-0.410	-0.053
-215.552	304.224	-0.265	0.485
-214.538	80.623	0.262	0.279
-213.523	-126.501	-0.286	-0.042
-212.509	-200.000	0.016	0.227
-211.494	-144.703	-0.177	-0.016
-210.479	69.822	-0.168	0.171
-209.465	-200.000	0.031	0.239
-208.450	108.361	0.099	0.116
-207.436	-200.000	0.020	0.276
-206.421	50.602	-0.083	-0.078
-205.406	-14.767	-0.297	0.188
-204.392	-126.557	0.086	0.013
-203.377	-82.103	0.279	-0.090
-202.363	96.427	0.090	-0.101
-201.348	-200.000	0.007	0.041
-200.333	-10.348	-0.136	-0.089
-199.319	-26.495	0.315	0.182
-198.304	431.171	-0.024	-0.051
-197.290	-127.239	0.109	0.016
-196.275	468.640	0.086	0.190
-195.260	-44.718	0.124	-0.061
-194.246	800.000	0.072	0.243
-193.231	-200.000	0.024	0.129
-192.217	281.596	-0.077	0.136
-191.202	-76.037	-0.316	0.110
-190.187	272.788	0.082	0.143
-189.173	-77.773	0.147	-0.050
-188.158	-187.829	-0.277	-0.004
-187.144	147.420	0.203	0.269
-186.129	-200.000	0.017	0.107
-185.114	-132.821	0.147	0.019
-184.100	169.588	0.169	0.237
-183.085	9.866	-0.304	-0.227
-182.071	-200.000	0.021	-0.145
-181.056	21.049	-0.266	-0.213
-180.042	-200.000	0.020	-0.136
-179.027	-34.306	0.162	0.087
-178.012	183.010	-0.249	-0.362
-176.998	100.523	-0.219	-0.250
-175.983	-123.123	0.206	-0.032
-174.969	14.215	-0.239	-0.183
-173.954	65.463	-0.216	-0.215
-172.939	-200.000	0.001	0.135
-171.925	-38.365	-0.099	-0.051
-170.910	-49.631	0.079	-0.037
-169.896	-94.384	-0.302	-0.081
-168.881	-52.247	-0.185	0.085
-167.866	352.011	-0.098	0.191
-166.852	71.866	0.121	-0.124
-165.837	-200.000	-0.014	0.093
-164.823	800.000	0.093	0.279
-163.808	-48.263	-0.354	0.168
-162.793	41.521	-0.166	-0.148
-161.779	-113.811	0.252	0.048
-160.764	306.830	-0.093	0.170
-159.750	-2.593	-0.072	-0.050
-158.735	-10.791	0.239	0.155
-157.720	-200.000	0.033	-0.262
-156.706	221.836	-0.132	-0.209
-155.691	-129.065	0.210	0.029
-154.677	-43.665	0.323	0.160
-153.662	-200.000	0.006	0.056
-152.647	-200.000	0.021	0.101
-151.633	-54.032	0.211	0.095
-150.618	48.287	-0.099	0.091
-149.604	800.000	0.041	-0.114
-148.589	800.000	0.073	-0.282
-147.574	800.000	-0.012	-0.034
-146.560	205.854	-0.107	-0.164
-145.545	-121.067	-0.315	0.052
-144.531	-42.762	0.232	-0.116
-143.516	-12.082	-0.223	-0.144
-142.502	-105.311	0.202	0.045
-141.487	86.252	0.029	0.032
-140.472	800.000	-0.014	-0.053
-139.458	-200.000	0.048	0.295
-138.443	-200.000	-0.043	0.201
-137.429	-80.205	-0.308	-0.101
-136.414	-74.904	0.213	0.075
-135.399	235.912	0.129	-0.210
-134.385	546.485	0.079	-0.186
-133.370	129.258	-0.058	0.072
-132.356	-39.823	-0.034	0.017
-131.341	-200.000	-0.000	-0.189
-130.326	102.085	-0.176	-0.202
-129.312	-87.013	0.200	0.060
-128.297	-120.743	0.404	0.067
-127.283	35.453	0.078	-0.067
-126.268	108.157	-0.080	0.094
-125.253	71.724	-0.193	-0.198
-124.239	-157.904	0.104	0.006
-123.224	-101.725	0.052	0.012
-122.210	109.151	0.245	0.289
-121.195	62.537	0.178	0.175
-120.180	-108.650	0.186	0.039
-119.166	46.349	-0.058	-0.053
-118.151	-17.259	0.344	0.213
-117.137	8.306	0.203	0.150
-116.122	458.915	-0.051	0.111
-115.107	-177.094	-0.380	0.009
-114.093	-52.713	0.239	-0.108
-113.078	800.000	0.052	0.218
-112.064	-125.165	0.091	-0.014
-111.049	47.684	-0.112	-0.102
-110.034	18.510	0.322	-0.253
-109.020	229.131	-0.140	0.224
-108.005	-68.927	-0.081	0.031
-106.991	-200.000	-0.024	0.293
-105.976	-80.229	-0.255	0.084
-104.962	-200.000	0.007	-0.312
-103.947	800.000	-0.117	0.468
-102.932	302.017	-0.057	-0.104
-101.918	37.208	0.136	0.118
-100.903	10.763	-0.127	-0.095
-99.889	-200.000	-0.032	0.146
-98.874	-5.813	0.112	0.075
-97.859	-88.700	-0.116	0.034
-96.845	-200.000	-0.005	0.089
-95.830	518.947	-0.121	0.277
-94.816	418.773	0.147	0.308
-93.801	-200.000	-0.017	-0.072
-92.786	-200.000	-0.021	-0.093
-91.772	-65.833	0.179	-0.070
-90.757	-34.167	-0.087	0.047
-89.743	92.184	0.067	-0.074
-88.728	720.252	0.039	-0.102
-87.713	-59.530	0.143	-0.060
-86.699	800.000	0.028	0.093
-85.684	206.672	-0.123	0.188
-84.670	-39.460	-0.293	0.151
-83.655	-200.000	0.006	0.075
-82.640	-57.046	-0.193	-0.083
-81.626	-9.407	-0.131	0.086
-80.611	-32.268	0.297	0.163
-79.597	46.941	-0.108	0.098
-78.582	168.045	-0.167	0.233
-77.567	20.276	-0.161	-0.128
-76.553	-200.000	-0.031	-0.149
-75.538	-200.000	-0.015	0.263
-74.524	85.475	-0.077	0.083
-73.509	-53.089	0.130	-0.059
-72.494	-200.000	0.029	0.255
-71.480	-156.283	-0.154	0.009
-70.465	-200.000	0.008	-0.162
-69.451	-107.840	-0.172	-0.037
-68.436	-18.085	-0.140	-0.086
-67.422	800.000	-0.096	0.373
-66.407	69.545	0.244	-0.246
-65.392	-128.028	-0.409	-0.058
-64.378	217.109	-0.062	0.097
-63.363	-169.777	-0.109	0.004
-62.349	-200.000	-0.025	0.197
-61.334	51.326	-1.228	-1.143
-60.319	48.693	0.546	0.502
-59.305	800.000	-0.297	-1.088
-58.290	416.480	0.586	1.226
-57.276	687.951	0.508	1.302
-56.261	-200.000	105.959	615.616
-55.246	508.338	1508.881	3435.092
-54.232	174.635	2710.878	3844.762
-53.217	104.840	2301.173	2659.658
-52.203	38.646	1905.226	1666.351
-51.188	32.679	1691.330	1433.991
-50.173	30.023	1648.006	1377.478
-49.159	49.071	1701.502	1566.615
-48.144	49.283	1717.067	1582.485
-47.130	32.281	1673.894	1415.981
-46.115	29.526	1659.774	1383.375
-45.100	29.380	1655.154	1378.381
-44.086	29.402	1652.110	1375.950
-43.071	29.437	1648.883	1373.472
-42.057	29.355	1646.974	1371.219
-41.042	29.453	1644.573	1369.891
-40.027	29.316	1643.305	1367.767
-39.013	29.313	1641.350	1366.059
-37.998	29.293	1639.687	1364.471
-36.984	29.358	1638.373	1363.809
-35.969	29.361	1637.474	1363.030
-34.954	29.498	1634.781	1361.741
-33.940	29.539	1633.575	1360.984
-32.925	29.558	1631.521	1359.357
-31.911	29.404	1629.959	1356.871
-30.896	29.400	1628.071	1355.218
-29.881	29.452	1626.244	1354.027
-28.867	29.411	1625.239	1352.830
-27.852	29.365	1623.589	1351.072
-26.838	29.404	1622.103	1350.066
-25.823	29.377	1620.907	1348.815
-24.809	29.475	1620.023	1348.747
-23.794	29.509	1618.394	1347.581
-22.779	29.487	1616.993	1346.200
-21.765	29.378	1615.295	1343.943
-20.750	29.435	1613.477	1342.789
-19.736	29.456	1612.207	1341.830
-18.721	29.455	1610.996	1340.764
-17.706	29.491	1609.182	1339.462
-16.692	29.452	1607.598	1337.809
-15.677	29.511	1606.309	1337.108
-14.663	29.436	1605.444	1335.798
-13.648	29.495	1603.797	1334.794
-12.633	29.411	1601.962	1332.611
-11.619	29.500	1600.349	1331.860
-10.604	29.431	1599.432	1330.541
-9.590	29.496	1597.993	1329.761
-8.575	29.466	1597.086	1328.741
-7.560	29.587	1595.148	1327.948
-6.546	29.495	1594.483	1326.674
-5.531	29.410	1594.096	1325.693
-4.517	29.452	1592.474	1324.593
-3.502	29.463	1590.839	1323.257
-2.487	29.515	1589.551	1322.503
-1.473	29.195	1577.919	1310.501
-0.458	26.440	1558.775	1275.159
0.556	20.703	1560.040	1244.570
1.571	18.541	1584.358	1248.135
2.586	18.259	1597.974	1256.681
3.600	16.594	1545.299	1203.316
4.615	8.792	1435.940	1066.310
5.629	1.219	1372.236	970.595
6.644	-0.223	1364.240	955.683
7.659	-0.212	1362.515	954.458
8.673	-0.296	1361.890	953.404
9.688	-0.250	1359.963	952.260
10.702	-0.472	1356.932	948.647
11.717	3.098	1363.559	975.878
12.731	12.331	1381.226	1047.559
13.746	19.742	1394.279	1104.905
14.761	21.769	1396.513	1119.543
15.775	22.164	1396.331	1121.818
16.790	22.149	1396.253	1121.562
17.804	22.329	1395.370	1121.899
18.819	22.530	1395.070	1122.840
19.834	22.560	1394.168	1122.208
20.848	22.628	1393.510	1122.007
21.863	22.648	1392.475	1121.201
22.877	22.742	1391.640	1121.031
23.892	22.550	1390.861	1119.087
24.907	22.613	1390.389	1119.005
25.921	22.608	1389.243	1117.949
26.936	22.673	1388.471	1117.642
27.950	22.702	1387.272	1116.762
28.965	22.666	1385.666	1115.146
29.980	22.658	1384.639	1114.166
30.994	22.603	1383.967	1113.179
32.009	22.664	1382.710	1112.457
33.023	22.727	1381.763	1111.992
34.038	22.645	1380.532	1110.386
35.053	22.582	1379.648	1109.182
36.067	22.471	1379.028	1107.890
37.082	22.673	1377.411	1107.760
38.096	22.637	1377.108	1107.194
39.111	22.568	1376.137	1105.880
40.126	22.573	1375.816	1105.554
41.140	22.663	1374.621	1105.059
42.155	22.624	1374.636	1104.730
43.169	22.526	1374.951	1104.273
44.184	22.586	1374.466	1104.163
45.199	22.540	1374.091	1103.473
46.213	22.697	1373.124	1103.582
47.228	22.662	1372.548	1102.800
48.242	22.662	1371.074	1101.520
49.257	22.619	1369.562	1099.940
50.271	22.604	1368.435	1098.842
51.286	22.636	1366.481	1097.381
52.301	22.696	1365.388	1096.778
53.315	22.601	1364.730	1095.563
54.330	22.643	1364.159	1095.266
55.344	22.551	1362.930	1093.612
56.359	22.625	1361.636	1092.936
57.374	22.648	1360.504	1092.073
58.388	22.593	1360.803	1091.877
59.403	22.660	1360.401	1091.871
60.417	22.634	1359.340	1090.759
61.432	22.660	1358.365	1090.044
62.447	22.597	1357.496	1088.861
63.461	22.574	1356.473	1087.800
64.476	22.616	1355.516	1087.194
65.490	22.695	1354.245	1086.567
66.505	22.601	1353.017	1084.905
67.520	22.558	1351.802	1083.575
68.534	22.613	1350.629	1082.876
69.549	22.667	1349.621	1082.303
70.563	22.695	1348.776	1081.703
71.578	22.657	1348.040	1080.781
72.593	22.679	1347.067	1080.041
73.607	22.746	1345.918	1079.435
74.622	22.662	1345.444	1078.441
75.636	22.588	1344.655	1077.266
76.651	22.673	1344.164	1077.294
77.666	22.577	1343.578	1076.147
78.680	22.681	1343.161	1076.348
79.695	22.589	1342.345	1075.038
80.709	22.651	1341.439	1074.598
81.724	22.607	1340.438	1073.430
82.739	22.662	1339.894	1073.239
83.753	22.664	1338.744	1072.233
84.768	22.611	1337.801	1071.060
85.782	22.699	1336.123	1070.158
86.797	22.643	1335.395	1069.135
87.812	22.625	1334.442	1068.172
88.826	22.686	1333.029	1067.312
89.841	22.668	1331.686	1066.036
90.855	22.695	1330.919	1065.488
91.870	22.695	1330.239	1064.855
92.884	22.769	1329.304	1064.456
93.899	22.700	1328.384	1063.207
94.914	22.685	1328.262	1062.930
95.928	22.679	1327.402	1062.107
96.943	22.665	1326.761	1061.417
97.957	22.737	1325.605	1060.832
98.972	22.784	1324.748	1060.335
99.987	22.653	1323.860	1058.746
101.001	22.741	1323.019	1058.507
102.016	22.707	1321.795	1057.230
103.030	22.759	1321.089	1056.882
104.045	22.795	1320.174	1056.271
105.060	22.768	1318.797	1054.913
106.074	22.744	1317.867	1053.934
107.089	22.663	1317.021	1052.681
108.103	22.734	1315.830	1052.061
109.118	22.815	1314.801	1051.629
110.133	22.763	1313.857	1050.466
111.147	22.845	1312.233	1049.564
112.162	22.763	1311.380	1048.301
113.176	22.757	1310.691	1047.621
114.191	22.821	1309.242	1046.749
115.206	22.743	1308.854	1045.886
116.220	22.840	1307.404	1045.208
117.235	22.737	1306.564	1043.834
118.249	22.745	1305.486	1042.930
119.264	22.789	1304.678	1042.450
120.279	22.846	1304.050	1042.195
121.293	22.901	1303.056	1041.635
122.308	22.843	1302.235	1040.540
123.322	22.869	1301.291	1039.847
124.337	22.862	1300.379	1038.989
125.352	22.762	1299.926	1037.944
126.366	22.852	1298.714	1037.415
127.381	22.860	1297.813	1036.651
128.395	22.915	1296.674	1035.973
129.410	22.849	1295.864	1034.843
130.424	22.873	1295.083	1034.272
131.439	22.705	1294.206	1032.494
132.454	22.796	1293.452	1032.334
133.468	22.749	1293.122	1031.705
134.483	22.771	1292.807	1031.494
135.497	22.760	1291.770	1030.506
136.512	22.750	1290.375	1029.243
137.527	22.768	1289.500	1028.562
138.541	22.757	1287.904	1027.135
139.556	22.780	1286.390	1025.970
140.570	22.724	1285.713	1025.010
141.585	22.852	1284.461	1024.667
142.600	22.807	1283.178	1023.295
143.614	22.819	1282.618	1022.823
144.629	22.754	1281.581	1021.531
145.643	22.682	1280.529	1020.188
146.658	22.716	1279.435	1019.418
147.673	22.793	1278.509	1019.035
148.687	22.744	1277.769	1018.072
149.702	22.824	1276.205	1017.201
150.716	22.752	1275.138	1015.842
151.731	22.690	1274.614	1014.980
152.746	22.818	1273.644	1014.855
153.760	22.820	1271.912	1013.394
154.775	22.837	1270.766	1012.489
155.789	22.735	1270.679	1011.744
156.804	22.736	1269.973	1011.103
157.819	22.858	1268.617	1010.631
158.833	22.778	1268.072	1009.648
159.848	22.844	1267.435	1009.430
160.862	22.891	1266.422	1008.798
161.877	22.983	1265.392	1008.414
162.892	22.977	1264.807	1007.826
163.906	22.908	1264.045	1006.735
164.921	22.948	1263.353	1006.327
165.935	23.018	1262.214	1005.726
166.950	22.931	1262.049	1005.011
167.964	22.948	1261.574	1004.643
168.979	22.879	1261.035	1003.730
169.994	23.085	1260.050	1004.027
171.008	23.024	1259.330	1003.018
172.023	23.014	1258.823	1002.467
173.037	22.986	1258.225	1001.746
174.052	22.962	1257.539	1000.975
175.067	22.974	1256.555	1000.172
176.081	22.962	1255.933	999.518
177.096	22.923	1254.866	998.359
178.110	23.015	1254.170	998.239
179.125	22.973	1252.872	996.884
180.140	23.043	1251.915	996.428
181.154	22.971	1251.005	995.206
182.169	22.940	1249.638	993.857
183.183	22.959	1248.687	993.119
184.198	23.041	1247.763	992.759
185.213	23.054	1246.322	991.596
186.227	23.119	1246.169	991.749
187.242	23.003	1245.122	990.179
188.256	23.030	1244.377	989.653
189.271	23.071	1243.530	989.119
190.286	22.969	1243.145	988.158
191.300	22.994	1242.302	987.539
192.315	23.157	1241.504	987.727
193.329	23.124	1241.166	987.185
194.344	23.078	1241.017	986.721
195.359	23.007	1240.287	985.659
196.373	23.051	1239.486	985.180
197.388	22.988	1239.558	984.801
198.402	22.963	1239.254	984.332
199.417	23.022	1238.713	984.144
200.432	23.068	1237.823	983.603
201.446	23.049	1237.304	983.000
202.461	23.099	1236.516	982.564
203.475	23.064	1236.069	981.928
204.490	23.074	1234.618	980.745
205.504	23.007	1233.897	979.711
206.519	23.143	1232.833	979.535
207.534	23.129	1231.941	978.663
208.548	23.021	1230.875	977.130
209.563	23.101	1229.989	976.786
210.577	23.223	1229.354	976.865
211.592	23.134	1228.857	975.895
212.607	23.118	1227.570	974.699
213.621	23.156	1226.934	974.314
214.636	23.198	1226.364	974.006
215.650	23.156	1225.715	973.178
216.665	23.108	1224.459	971.828
217.680	23.144	1223.788	971.406
218.694	23.122	1223.188	970.726
219.709	23.198	1222.118	970.204
220.723	23.156	1221.309	969.251
221.738	23.167	1220.518	968.595
222.753	23.180	1219.679	967.916
223.767	23.241	1219.183	967.768
224.782	23.374	1218.748	968.066
225.796	23.298	1218.338	967.240
226.811	23.293	1217.638	966.567
227.826	23.333	1216.646	965.917
228.840	23.223	1216.588	965.182
229.855	23.216	1216.047	964.632
230.869	23.223	1215.299	963.989
231.884	23.381	1213.893	963.647
232.899	23.278	1213.434	962.637
233.913	23.301	1212.743	962.130
234.928	23.287	1212.545	961.811
235.942	23.442	1212.007	962.142
236.957	23.354	1210.987	960.767
237.972	23.230	1210.755	959.826
238.986	23.301	1209.777	959.353
240.001	23.373	1209.351	959.321
241.015	23.409	1208.553	958.796
242.030	23.505	1207.641	958.509
243.045	23.452	1207.205	957.788
244.059	23.457	1206.202	956.938
245.074	23.349	1205.518	955.729
246.088	23.429	1204.424	955.205
247.103	23.465	1203.851	954.859
248.117	23.433	1203.255	954.134
249.132	23.535	1202.353	953.882
250.147	23.486	1201.956	953.216
251.161	23.566	1200.657	952.533
252.176	23.513	1200.032	951.665
253.190	23.536	1199.669	951.421
254.205	23.564	1198.846	950.831
255.220	23.524	1198.486	950.249
256.234	23.494	1197.854	949.502
257.249	23.523	1197.421	949.231
258.263	23.574	1196.680	948.830
259.278	23.606	1196.005	948.386
260.293	23.493	1196.128	947.792
261.307	23.528	1195.096	947.077
262.322	23.569	1194.398	946.663
263.336	23.534	1193.851	945.956
264.351	23.595	1193.249	945.718
265.366	23.543	1192.902	945.085
266.380	23.638	1191.729	944.576
267.395	23.631	1191.038	943.910
268.409	23.581	1190.573	943.190
269.424	23.527	1190.119	942.464
270.439	23.580	1189.865	942.459
271.453	23.586	1189.046	941.758
272.468	23.635	1187.848	940.986
273.482	23.479	1187.723	939.977
274.497	23.645	1186.864	940.092
275.512	23.680	1186.189	939.660
276.526	23.698	1185.435	939.077
277.541	23.673	1184.737	938.309
278.555	23.667	1184.493	938.000
279.570	23.690	1183.473	937.227
280.585	23.632	1182.614	936.158
281.599	23.771	1181.758	936.133
282.614	23.707	1180.932	935.058
283.628	23.769	1179.990	934.554
284.643	23.817	1179.002	933.943
285.657	23.764	1178.116	932.881
286.672	23.708	1177.967	932.386
287.687	23.708	1177.041	931.572
288.701	23.873	1176.295	931.762
289.716	23.734	1175.521	930.339
290.730	23.802	1175.205	930.362
291.745	23.864	1174.412	929.974
292.760	23.801	1173.691	928.997
293.774	23.873	1172.973	928.722
294.789	23.867	1172.732	928.416
295.803	23.841	1171.929	927.563
296.818	23.803	1171.695	927.097
297.833	23.894	1170.414	926.476
298.847	23.991	1169.499	926.174
299.862	23.873	1169.062	925.133
300.876	23.982	1168.498	925.172
301.891	23.933	1167.909	924.369
302.906	23.955	1167.489	924.069
303.920	23.995	1166.962	923.775
304.935	23.968	1166.106	922.877
305.949	24.039	1165.341	922.557
306.964	24.077	1164.518	922.021
307.979	23.962	1164.440	921.281
308.993	24.073	1163.696	921.186
310.008	24.124	1162.792	920.652
311.022	24.064	1161.912	919.565
312.037	24.043	1161.440	919.000
313.052	23.951	1160.704	917.861
314.066	24.011	1159.894	917.452
315.081	23.977	1158.826	916.349
316.095	24.102	1158.172	916.396
317.110	24.116	1157.472	915.829
318.125	24.021	1156.903	914.813
319.139	24.014	1156.395	914.295
320.154	24.073	1155.855	914.090
321.168	24.164	1154.962	913.769
322.183	24.113	1154.430	913.004
323.197	23.967	1154.169	911.971
324.212	24.156	1153.356	912.216
325.227	24.206	1152.886	912.018
326.241	24.202	1152.517	911.623
327.256	24.142	1151.523	910.452
328.270	24.198	1150.501	909.846
329.285	24.168	1149.854	909.102
330.300	24.178	1149.239	908.589
331.314	24.217	1148.326	907.984
332.329	24.192	1147.732	907.306
333.343	24.341	1146.820	907.266
334.358	24.325	1145.898	906.371
335.373	24.278	1145.408	905.668
336.387	24.264	1144.571	904.851
337.402	24.212	1143.986	904.048
338.416	24.345	1143.411	904.185
339.431	24.366	1142.675	903.632
340.446	24.347	1142.569	903.374
341.460	24.312	1141.778	902.488
342.475	24.356	1141.030	902.038
343.489	24.364	1139.888	901.097
344.504	24.283	1138.929	899.850
345.519	24.449	1137.970	899.851
346.533	24.398	1137.176	898.887
347.548	24.332	1136.737	898.128
348.562	24.386	1135.856	897.623
349.577	24.395	1135.392	897.220
350.592	24.370	1134.368	896.206
351.606	24.457	1133.926	896.218
352.621	24.319	1133.496	895.104
353.635	24.527	1132.523	895.300
354.650	24.450	1132.433	894.763
355.665	24.505	1131.672	894.361
356.679	24.437	1130.949	893.368
357.694	24.586	1130.170	893.418
358.708	24.607	1129.264	892.731
359.723	24.641	1128.425	892.158
360.738	24.415	1128.598	891.087
361.752	24.520	1127.801	890.901
362.767	24.656	1127.142	890.980
363.781	24.474	1126.862	889.773
364.796	24.580	1125.940	889.495
365.810	24.611	1125.518	889.238
366.825	24.614	1125.134	888.867
367.840	24.536	1124.843	888.172
368.854	24.712	1123.833	888.173
369.869	24.689	1123.283	887.544
370.883	24.760	1122.188	886.951
371.898	24.616	1121.470	885.592
372.913	24.698	1120.812	885.398
373.927	24.694	1120.613	885.143
374.942	24.779	1119.811	884.852
375.956	24.758	1119.202	884.190
376.971	24.774	1118.766	883.849
377.986	24.752	1118.273	883.269
379.000	24.861	1117.944	883.468
380.015	24.712	1117.614	882.397
381.029	24.900	1116.447	882.325
382.044	24.834	1115.891	881.482
383.059	24.816	1115.259	880.814
384.073	24.876	1114.498	880.432
385.088	24.882	1113.863	879.882
386.102	24.861	1112.834	878.889
387.117	24.819	1111.949	877.906
388.132	24.680	1111.232	876.580
389.146	24.871	1110.466	876.834
390.161	25.030	1109.770	876.982
391.175	24.921	1109.393	876.076
392.190	24.987	1108.621	875.713
393.205	24.860	1108.384	874.824
394.219	24.851	1107.476	873.989
395.234	25.008	1106.333	873.773
396.248	25.019	1105.430	873.039
397.263	25.071	1104.336	872.349
398.278	25.002	1103.820	871.528
399.292	25.082	1103.512	871.598
400.307	25.093	1102.835	871.041
401.321	24.914	1102.917	870.155
402.336	24.957	1101.817	869.421
403.350	25.156	1101.059	869.708
404.365	25.027	1100.536	868.594
405.380	25.123	1099.785	868.390
406.394	25.050	1099.269	867.555
407.409	25.143	1098.268	867.137
408.423	25.189	1097.486	866.663
409.438	25.224	1096.761	866.184
410.453	25.204	1096.065	865.463
411.467	25.210	1095.572	865.022
412.482	25.219	1094.957	864.504
413.496	25.232	1094.013	863.745
414.511	25.247	1093.551	863.378
415.526	25.170	1093.178	862.636
416.540	25.205	1092.877	862.492
417.555	25.229	1092.397	862.151
418.569	25.183	1091.815	861.392
419.584	25.252	1091.026	861.027
420.599	25.250	1091.000	860.921
421.613	148.045	1403.451	1798.239
422.628	136.993	1448.927	1798.340
