DTS Sentinel unit serial number:	SN413079Multiplexer serial number:	ORYXHardware model number:	OX4-SRSoftware version number:	ORYX F/W v4.00 Oryx Data Collector v3.7.2.0data status	okinstallation	princeton_trtdifferential loss correction	single-endedforward channel	channel 2reverse channel	N/Adate	2019/09/11time	05:45:11forward acquisition time	60.00reverse acquisition time	0.00gamma	496.2192k internal	0.2329k external	0.2329temperature offset calibration	0.9938default loss term (dB/km)	0.3790temperature slope calibration	1.0000multiplexer offset coefficient	1.0000multiplexer slope coefficient	1.0000fibre end	0.00T internal ref (°C)	29.39T ext. ref 1 (°C)	-0.23T ext. ref 2 (°C)	23.35length (m)	temperature (°C)	Stokes	anti-Stokes-747.200	247.105	-0.129	0.220
-746.185	-92.352	-0.116	0.033
-745.171	800.000	0.088	-0.281
-744.156	9.095	0.214	-0.163
-743.142	-127.355	0.365	-0.054
-742.127	-42.922	-0.193	-0.099
-741.112	162.257	0.126	-0.178
-740.098	108.568	-0.324	0.389
-739.083	-93.053	0.146	0.041
-738.069	-200.000	0.033	0.261
-737.054	-124.923	0.299	0.046
-736.039	71.727	0.063	-0.066
-735.025	-100.854	-0.161	0.040
-734.010	17.052	-0.228	-0.182
-732.996	800.000	-0.033	-0.109
-731.981	-64.673	0.406	-0.166
-730.966	31.013	0.034	-0.029
-729.952	-50.847	0.240	0.114
-728.937	-66.273	-0.347	-0.139
-727.923	-200.000	-0.027	-0.223
-726.908	129.445	-0.280	-0.360
-725.894	-200.000	0.006	0.387
-724.879	-92.075	-0.246	0.070
-723.864	-116.492	-0.111	0.021
-722.850	-200.000	-0.058	0.460
-721.835	-50.684	0.164	0.078
-720.821	361.361	-0.034	0.069
-719.806	15.914	0.111	-0.088
-718.791	545.242	-0.211	-0.508
-717.777	-200.000	0.015	-0.215
-716.762	800.000	0.142	-0.473
-715.748	-130.108	-0.209	0.029
-714.733	-70.775	-0.209	0.079
-713.718	303.907	-0.220	0.410
-712.704	109.159	-0.103	-0.124
-711.689	-42.354	-0.124	-0.064
-710.675	-188.131	-0.403	0.005
-709.660	43.290	-0.166	-0.152
-708.645	800.000	-0.018	-0.061
-707.631	321.658	-0.080	-0.152
-706.616	-200.000	-0.051	-0.239
-705.602	800.000	-0.140	-0.396
-704.587	-64.138	-0.232	-0.095
-703.572	73.314	0.284	-0.299
-702.558	72.429	0.218	-0.229
-701.543	207.848	-0.068	-0.107
-700.529	-117.929	0.069	0.012
-699.514	69.879	-0.165	-0.171
-698.499	265.974	-0.134	-0.236
-697.485	57.665	-0.208	0.205
-696.470	-200.000	-0.017	0.119
-695.456	-200.000	0.010	-0.060
-694.441	-200.000	0.009	-0.143
-693.426	-200.000	-0.034	-0.324
-692.412	93.261	0.035	-0.039
-691.397	652.345	-0.141	-0.364
-690.383	412.632	0.070	0.149
-689.368	37.583	-0.222	0.198
-688.354	5.229	0.277	-0.205
-687.339	-122.221	0.148	0.024
-686.324	56.443	-0.169	0.165
-685.310	38.838	0.355	-0.318
-684.295	800.000	0.049	-0.140
-683.281	612.012	0.093	-0.233
-682.266	-131.711	0.224	0.030
-681.251	-55.082	0.093	0.042
-680.237	800.000	0.052	-0.202
-679.222	-173.810	-0.172	-0.005
-678.208	66.010	-0.131	0.134
-677.193	-152.922	0.264	-0.019
-676.178	-105.925	-0.104	-0.023
-675.164	152.426	0.122	0.167
-674.149	223.546	0.158	0.257
-673.135	-17.818	0.545	0.344
-672.120	12.822	-0.101	-0.078
-671.105	-200.000	-0.345	-0.000
-670.091	104.694	0.268	0.318
-669.076	-71.870	0.271	-0.101
-668.062	800.000	0.096	-0.298
-667.047	-58.013	-0.160	0.070
-666.032	-6.095	-0.282	0.194
-665.018	-200.000	-0.330	-0.001
-664.003	586.379	0.111	0.275
-662.989	-155.564	-0.185	0.012
-661.974	44.045	-0.130	-0.120
-660.959	-15.334	0.247	-0.159
-659.945	323.609	0.187	-0.359
-658.930	90.706	0.121	-0.136
-657.916	-200.000	0.025	0.137
-656.901	10.168	0.188	-0.144
-655.886	30.148	0.302	-0.259
-654.872	-19.149	0.254	0.158
-653.857	37.177	0.101	-0.090
-652.843	13.925	0.175	-0.136
-651.828	-135.299	-0.055	0.007
-650.814	-34.996	0.196	0.107
-649.799	732.087	0.125	-0.336
-648.784	-1.282	-0.295	0.209
-647.770	-140.370	0.227	-0.024
-646.755	800.000	0.035	0.101
-645.741	-18.863	0.130	-0.081
-644.726	-137.415	0.163	-0.018
-643.711	-200.000	0.006	-0.111
-642.697	-86.985	0.257	-0.079
-641.682	223.760	-0.237	-0.384
-640.668	-200.000	-0.009	-0.232
-639.653	168.870	-0.237	0.339
-638.638	800.000	-0.076	0.234
-637.624	84.590	0.096	-0.105
-636.609	-200.000	0.026	-0.357
-635.595	-116.854	-0.318	-0.058
-634.580	800.000	0.129	0.411
-633.565	-200.000	-0.004	0.064
-632.551	800.000	-0.021	0.083
-631.536	-119.984	-0.171	0.029
-630.522	-47.450	0.075	0.036
-629.507	-34.997	-0.150	0.082
-628.492	800.000	-0.103	0.351
-627.478	-106.740	-0.312	0.069
-626.463	-200.000	0.034	0.203
-625.449	-29.552	-0.251	0.144
-624.434	42.555	0.054	0.049
-623.419	-123.461	0.151	0.024
-622.405	-121.652	0.269	-0.045
-621.390	230.427	0.126	-0.207
-620.376	-103.501	-0.177	0.042
-619.361	69.974	0.052	0.054
-618.346	800.000	0.042	0.161
-617.332	347.503	0.133	0.262
-616.317	70.838	0.098	-0.101
-615.303	-200.000	0.047	-0.342
-614.288	713.373	0.129	-0.342
-613.273	-41.897	0.343	-0.176
-612.259	348.809	-0.061	-0.120
-611.244	-118.620	-0.350	-0.062
-610.230	82.608	0.062	-0.067
-609.215	800.000	0.095	-0.373
-608.201	-200.000	-0.021	-0.131
-607.186	800.000	0.078	0.332
-606.171	800.000	-0.103	-0.434
-605.157	160.158	-0.235	-0.328
-604.142	-6.662	0.192	-0.131
-603.128	-200.000	0.196	0.000
-602.113	800.000	0.026	0.106
-601.098	800.000	-0.037	0.142
-600.084	-48.183	-0.110	-0.053
-599.069	-200.000	0.004	0.047
-598.055	800.000	0.168	-0.470
-597.040	-200.000	0.026	0.293
-596.025	304.902	-0.069	0.128
-595.011	103.000	0.285	0.334
-593.996	-154.729	-0.535	-0.036
-592.982	-200.000	-0.042	-0.248
-591.967	402.159	-0.021	0.044
-590.952	-81.936	0.377	-0.123
-589.938	112.409	0.092	-0.111
-588.923	-20.537	0.118	0.073
-587.909	-62.076	0.111	-0.046
-586.894	-143.922	-0.098	-0.009
-585.879	261.777	0.212	-0.367
-584.865	386.480	0.122	-0.251
-583.850	-20.809	0.143	-0.088
-582.836	292.544	0.192	-0.351
-581.821	-200.000	0.022	-0.258
-580.806	-200.000	0.005	0.256
-579.792	530.222	0.180	-0.425
-578.777	800.000	-0.070	0.203
-577.763	115.761	0.234	0.286
-576.748	315.583	-0.139	0.262
-575.733	-118.681	0.211	-0.037
-574.719	11.223	-0.328	-0.251
-573.704	-73.843	-0.229	0.083
-572.690	288.777	0.150	0.272
-571.675	800.000	-0.037	0.158
-570.661	-29.569	0.280	-0.160
-569.646	-42.932	0.137	0.070
-568.631	-176.058	0.315	-0.008
-567.617	800.000	-0.067	0.268
-566.602	-111.519	-0.252	-0.051
-565.588	160.046	-0.142	-0.197
-564.573	-200.000	-0.016	-0.271
-563.558	84.596	0.161	-0.176
-562.544	-31.755	0.181	0.102
-561.529	-8.373	-0.264	0.178
-560.515	-200.000	-0.000	0.195
-559.500	64.034	0.201	-0.202
-558.485	243.606	0.131	0.219
-557.471	-200.000	0.007	-0.327
-556.456	15.165	0.251	0.197
-555.442	15.555	-0.163	0.128
-554.427	-144.862	0.467	-0.043
-553.412	-42.935	-0.035	-0.018
-552.398	-156.703	0.094	-0.006
-551.383	-55.473	-0.145	0.065
-550.369	-31.825	0.128	-0.072
-549.354	-60.309	0.123	-0.052
-548.339	99.344	-0.266	0.308
-547.325	15.369	-0.239	0.187
-546.310	485.132	-0.055	0.125
-545.296	800.000	0.070	0.273
-544.281	-100.295	-0.213	-0.053
-543.266	-154.626	-0.035	0.002
-542.252	-200.000	0.016	0.164
-541.237	296.701	0.167	0.306
-540.223	249.835	0.147	-0.249
-539.208	84.419	-0.225	-0.246
-538.193	7.751	-0.130	-0.097
-537.179	-143.224	0.246	0.024
-536.164	3.807	0.194	0.141
-535.150	87.709	0.322	0.357
-534.135	256.957	-0.038	-0.065
-533.121	-82.688	-0.327	0.106
-532.106	76.428	0.314	-0.333
-531.091	-7.673	-0.353	-0.239
-530.077	-200.000	-0.015	-0.193
-529.062	-19.065	0.105	0.065
-528.048	-68.985	-0.104	0.040
-527.033	800.000	-0.089	-0.272
-526.018	-64.997	-0.197	0.080
-525.004	30.441	0.191	0.163
-523.989	-49.877	-0.043	0.020
-522.975	-131.819	0.146	0.019
-521.960	217.577	0.188	-0.299
-520.945	66.158	-0.209	0.212
-519.931	-121.093	-0.198	0.033
-518.916	-72.110	0.082	-0.030
-517.902	-192.326	0.142	-0.001
-516.887	-200.000	-0.010	0.080
-515.872	619.072	0.073	-0.184
-514.858	556.621	0.079	-0.190
-513.843	-102.012	0.442	-0.106
-512.829	800.000	-0.057	0.171
-511.814	-200.000	-0.100	0.462
-510.799	800.000	0.014	-0.047
-509.785	-81.358	0.217	0.071
-508.770	800.000	0.141	0.416
-507.756	-137.168	0.179	0.020
-506.741	19.450	-0.193	-0.155
-505.726	-108.104	0.121	-0.026
-504.712	-91.019	0.169	-0.048
-503.697	627.495	-0.089	-0.224
-502.683	800.000	-0.043	0.127
-501.668	800.000	0.040	0.157
-500.653	173.545	0.121	-0.174
-499.639	-32.990	-0.149	-0.083
-498.624	800.000	0.079	-0.344
-497.610	692.662	0.054	-0.142
-496.595	-100.945	-0.373	-0.091
-495.581	-136.744	-0.134	0.015
-494.566	157.139	-0.129	0.178
-493.551	-66.563	0.122	-0.048
-492.537	663.068	0.024	0.061
-491.522	-44.035	0.286	-0.143
-490.508	77.983	-0.148	0.157
-489.493	-38.690	0.028	0.015
-488.478	-108.519	-0.213	0.046
-487.464	136.192	-0.160	-0.208
-486.449	800.000	-0.049	-0.190
-485.435	800.000	-0.062	-0.190
-484.420	800.000	-0.040	0.140
-483.405	-194.601	0.037	0.000
-482.391	-175.516	-0.424	0.012
-481.376	105.434	-0.204	-0.241
-480.362	742.561	0.062	-0.166
-479.347	-90.172	0.086	0.025
-478.332	-171.095	-0.297	0.010
-477.318	26.750	-0.302	0.252
-476.303	-123.938	0.139	0.022
-475.289	-175.325	0.157	0.004
-474.274	-200.000	0.137	0.620
-473.259	115.447	-0.231	-0.281
-472.245	247.353	-0.044	0.074
-471.230	435.204	0.035	0.075
-470.216	800.000	0.026	0.109
-469.201	747.887	0.034	-0.092
-468.186	353.770	-0.119	0.236
-467.172	-177.809	-0.019	-0.000
-466.157	49.459	-0.076	-0.071
-465.143	-132.959	-0.310	0.039
-464.128	87.652	0.237	-0.261
-463.113	-200.000	0.010	-0.422
-462.099	-139.122	0.327	-0.035
-461.084	-56.839	0.143	0.063
-460.070	800.000	-0.041	-0.160
-459.055	-146.755	-0.155	-0.013
-458.040	59.559	-0.249	-0.245
-457.026	81.000	0.125	0.134
-456.011	800.000	-0.022	0.088
-454.997	800.000	0.043	-0.181
-453.982	347.175	0.044	-0.087
-452.968	8.439	0.229	-0.172
-451.953	-170.989	-0.304	0.010
-450.938	-181.227	-0.308	-0.006
-449.924	-200.000	-0.022	-0.420
-448.909	-64.128	0.037	0.015
-447.895	428.153	0.078	0.169
-446.880	16.419	-0.257	-0.202
-445.865	-200.000	0.008	-0.128
-444.851	25.992	-0.175	-0.145
-443.836	-200.000	-0.006	0.136
-442.822	-200.000	0.005	0.074
-441.807	552.221	0.158	-0.377
-440.792	170.604	-0.231	-0.329
-439.778	-98.691	0.073	-0.018
-438.763	602.608	0.114	-0.282
-437.749	-200.000	0.057	-0.358
-436.734	-200.000	-0.007	0.173
-435.719	63.507	-0.102	-0.102
-434.705	51.714	-0.111	-0.105
-433.690	-10.179	0.239	-0.158
-432.676	800.000	0.078	-0.313
-431.661	596.006	-0.134	-0.329
-430.646	-174.343	-0.460	-0.013
-429.632	-65.025	0.220	-0.088
-428.617	28.430	0.189	-0.159
-427.603	474.397	-0.073	-0.163
-426.588	-65.873	0.460	-0.183
-425.573	12.132	-0.018	-0.014
-424.559	66.060	0.096	-0.097
-423.544	-72.216	-0.297	0.110
-422.530	-95.064	0.306	-0.082
-421.515	-200.000	0.013	0.103
-420.500	201.556	0.055	0.085
-419.486	107.270	0.053	-0.062
-418.471	22.105	0.028	0.022
-417.457	-95.990	-0.094	-0.025
-416.442	559.326	-0.087	-0.210
-415.428	14.877	0.184	0.144
-414.413	-94.988	-0.121	0.033
-413.398	141.201	-0.166	-0.218
-412.384	-12.512	0.312	-0.203
-411.369	404.305	0.071	-0.149
-410.355	-200.000	-0.003	-0.022
-409.340	589.981	0.044	0.108
-408.325	205.440	-0.190	-0.294
-407.311	800.000	0.131	-0.437
-406.296	-200.000	0.004	-0.223
-405.282	70.426	0.064	-0.066
-404.267	-118.013	-0.152	-0.027
-403.252	14.971	0.364	0.283
-402.238	-59.253	-0.253	-0.108
-401.223	158.016	-0.146	0.201
-400.209	-71.353	-0.238	0.089
-399.194	-200.000	-0.006	-0.091
-398.179	-115.668	-0.181	-0.034
-397.165	110.996	0.060	-0.072
-396.150	-43.359	0.091	0.046
-395.136	-52.858	-0.222	0.101
-394.121	-65.350	0.081	-0.032
-393.106	800.000	0.082	0.285
-392.092	-2.434	0.139	0.097
-391.077	15.153	-0.327	-0.254
-390.063	326.707	-0.160	0.304
-389.048	308.322	-0.014	-0.025
-388.033	-87.169	0.131	-0.039
-387.019	-7.783	0.193	-0.129
-386.004	-73.336	0.175	0.064
-384.990	30.266	-0.300	0.254
-383.975	407.606	-0.139	0.291
-382.960	-17.697	-0.057	0.035
-381.946	-200.000	-0.055	0.331
-380.931	-97.733	0.212	0.055
-379.917	-124.754	0.114	0.017
-378.902	218.480	0.275	-0.437
-377.888	800.000	0.016	-0.060
-376.873	-67.460	0.177	-0.069
-375.858	81.037	0.058	0.062
-374.844	138.655	-0.045	-0.059
-373.829	715.260	0.103	-0.270
-372.815	-43.373	0.133	-0.067
-371.800	-105.383	-0.191	0.043
-370.785	300.088	0.116	-0.212
-369.771	-148.522	0.431	0.035
-368.756	8.527	-0.026	0.019
-367.742	-200.000	-0.001	-0.036
-366.727	-200.000	-0.008	0.196
-365.712	214.669	-0.157	0.246
-364.698	-12.850	0.254	0.164
-363.683	-56.071	-0.333	0.147
-362.669	-103.430	0.296	-0.069
-361.654	297.895	-0.124	0.225
-360.639	-11.332	-0.083	0.054
-359.625	55.249	0.223	0.214
-358.610	-77.418	-0.203	-0.070
-357.596	169.550	0.015	0.022
-356.581	-200.000	0.054	0.374
-355.566	-168.299	-0.054	-0.002
-354.552	-140.311	0.182	0.019
-353.537	-200.000	-0.036	-0.344
-352.523	3.316	-0.092	-0.067
-351.508	277.644	-0.110	0.194
-350.493	800.000	-0.141	0.463
-349.479	-200.000	0.013	0.231
-348.464	-186.470	-0.257	0.004
-347.450	257.478	0.199	0.339
-346.435	-200.000	-0.041	0.289
-345.420	36.830	-0.137	0.120
-344.406	-86.374	-0.142	0.043
-343.391	-133.380	0.191	0.024
-342.377	800.000	-0.094	-0.381
-341.362	-34.872	-0.270	0.146
-340.348	-200.000	0.041	0.240
-339.333	393.404	-0.079	0.164
-338.318	338.039	0.156	0.300
-337.304	-33.009	0.247	-0.136
-336.289	-200.000	0.008	-0.075
-335.275	-146.404	0.293	0.025
-334.260	-109.624	-0.476	-0.099
-333.245	-174.233	-0.288	0.008
-332.231	-99.530	0.310	-0.077
-331.216	-200.000	-0.008	-0.097
-330.202	22.392	0.091	0.074
-329.187	-89.480	0.172	0.050
-328.172	-200.000	-0.002	0.170
-327.158	38.041	-0.268	0.236
-326.143	17.143	-0.142	0.111
-325.129	20.419	0.208	-0.166
-324.114	105.563	-0.056	-0.065
-323.099	216.246	0.135	0.213
-322.085	-200.000	0.060	0.349
-321.070	800.000	-0.078	0.322
-320.056	-200.000	0.032	-0.191
-319.041	751.620	-0.036	0.096
-318.026	-200.000	-0.013	0.282
-317.012	-26.477	-0.364	0.212
-315.997	349.108	0.045	0.088
-314.983	96.489	-0.267	0.303
-313.968	-22.327	0.145	0.087
-312.953	-22.085	0.188	-0.113
-311.939	18.580	0.251	0.199
-310.924	86.179	-0.269	-0.293
-309.910	42.200	-0.106	0.095
-308.895	-49.308	-0.449	0.212
-307.880	61.084	0.097	0.095
-306.866	274.960	0.140	-0.245
-305.851	-31.771	-0.207	0.115
-304.837	800.000	0.030	-0.087
-303.822	186.239	0.208	0.306
-302.807	800.000	-0.064	-0.182
-301.793	-200.000	0.016	-0.144
-300.778	778.461	-0.050	-0.136
-299.764	-200.000	0.005	-0.112
-298.749	-121.837	-0.068	0.011
-297.735	-200.000	0.008	0.120
-296.720	56.652	0.283	0.272
-295.705	44.596	-0.355	0.323
-294.691	-63.895	0.158	0.064
-293.676	12.017	0.138	-0.105
-292.662	-4.837	-0.283	-0.193
-291.647	-188.930	-0.391	0.005
-290.632	119.170	-0.299	0.366
-289.618	48.825	-0.300	0.279
-288.603	-200.000	-0.021	-0.282
-287.589	299.791	0.036	0.065
-286.574	110.026	0.043	0.051
-285.559	310.410	0.011	-0.020
-284.545	800.000	-0.104	-0.341
-283.530	-200.000	0.011	-0.205
-282.516	-200.000	0.011	0.168
-281.501	-18.549	-0.355	0.219
-280.486	277.520	0.238	-0.419
-279.472	40.936	0.162	-0.145
-278.457	-200.000	0.002	-0.390
-277.443	-76.425	-0.170	-0.059
-276.428	-200.000	-0.024	0.342
-275.413	96.963	0.156	-0.177
-274.399	-60.352	-0.163	-0.069
-273.384	-66.052	-0.205	0.081
-272.370	167.960	0.226	-0.318
-271.355	-83.351	0.080	-0.025
-270.340	-72.735	0.242	-0.088
-269.326	-81.757	0.290	0.094
-268.311	721.574	-0.025	0.066
-267.297	800.000	0.023	-0.063
-266.282	-35.418	0.199	0.107
-265.267	800.000	-0.072	-0.197
-264.253	-200.000	-0.013	0.416
-263.238	-78.291	-0.084	0.028
-262.224	-200.000	-0.009	0.236
-261.209	-200.000	0.010	0.242
-260.195	-200.000	0.004	-0.234
-259.180	-200.000	0.049	0.236
-258.165	-167.468	0.221	0.009
-257.151	-200.000	0.031	-0.170
-256.136	2.934	0.242	-0.173
-255.122	209.045	-0.116	0.180
-254.107	743.125	-0.108	-0.286
-253.092	302.342	-0.194	0.355
-252.078	4.762	-0.275	0.199
-251.063	-142.405	0.161	0.016
-250.049	-200.000	0.039	-0.186
-249.034	800.000	-0.089	-0.289
-248.019	-77.410	-0.416	0.143
-247.005	-67.023	0.167	0.065
-245.990	-15.565	0.194	-0.122
-244.976	-152.889	0.334	-0.023
-243.961	-8.726	-0.186	0.124
-242.946	414.591	0.107	-0.224
-241.932	-54.737	-0.410	-0.183
-240.917	154.193	-0.164	-0.222
-239.903	352.930	-0.152	0.297
-238.888	133.795	-0.054	0.069
-237.873	91.133	-0.318	0.353
-236.859	394.343	0.076	-0.156
-235.844	800.000	-0.032	-0.131
-234.830	-200.000	0.007	0.134
-233.815	-92.324	-0.098	-0.027
-232.800	14.237	0.039	0.030
-231.786	800.000	0.052	-0.150
-230.771	-62.117	0.033	-0.013
-229.757	-60.411	0.030	0.012
-228.742	-136.914	-0.120	-0.014
-227.727	18.844	-0.263	0.208
-226.713	800.000	0.091	0.368
-225.698	-73.149	-0.193	-0.070
-224.684	-145.654	0.347	0.031
-223.669	-200.000	-0.020	0.192
-222.655	311.874	0.052	-0.096
-221.640	28.351	0.032	0.027
-220.625	-200.000	-0.003	-0.217
-219.611	32.882	0.096	0.082
-218.596	127.466	0.079	0.098
-217.582	-7.655	0.132	0.088
-216.567	-164.909	-0.096	0.004
-215.552	350.780	-0.070	-0.138
-214.538	-84.021	0.223	-0.070
-213.523	-94.404	-0.279	0.075
-212.509	-31.475	0.144	-0.080
-211.494	328.281	-0.118	0.223
-210.479	-70.923	0.334	0.124
-209.465	-58.514	-0.211	-0.090
-208.450	-34.280	-0.197	0.106
-207.436	-200.000	-0.012	-0.099
-206.421	45.287	0.136	0.124
-205.406	-107.292	-0.328	0.071
-204.392	-2.695	-0.325	-0.224
-203.377	-21.053	-0.056	0.034
-202.363	488.427	0.213	-0.479
-201.348	407.572	-0.051	0.106
-200.333	219.126	0.158	-0.249
-199.319	191.292	-0.133	0.197
-198.304	-200.000	0.017	-0.115
-197.290	-126.333	0.221	-0.032
-196.275	131.468	-0.318	-0.403
-195.260	582.325	0.033	-0.079
-194.246	-42.912	-0.234	0.117
-193.231	-200.000	-0.002	0.050
-192.217	394.276	-0.110	0.226
-191.202	-49.175	-0.031	0.015
-190.187	196.609	-0.242	0.363
-189.173	-112.986	-0.065	0.013
-188.158	168.290	0.040	0.057
-187.144	3.563	0.266	0.191
-186.129	631.272	-0.153	0.383
-185.114	-200.000	-0.011	-0.053
-184.100	112.218	0.039	-0.046
-183.085	-81.130	0.360	-0.117
-182.071	-104.161	-0.445	0.102
-181.056	800.000	0.009	0.035
-180.042	-157.771	0.318	-0.019
-179.027	474.908	0.198	0.441
-178.012	32.728	-0.239	-0.204
-176.998	-114.187	0.160	0.030
-175.983	-61.612	0.218	0.090
-174.969	-200.000	0.009	0.119
-173.954	220.885	0.067	-0.106
-172.939	366.834	0.120	0.239
-171.925	-121.749	0.303	0.049
-170.910	-183.018	0.373	-0.007
-169.896	82.389	-0.054	0.058
-168.881	800.000	0.033	0.111
-167.866	186.245	-0.156	0.228
-166.852	373.321	-0.112	-0.223
-165.837	40.159	-0.191	-0.169
-164.823	-42.889	0.129	-0.064
-163.808	-84.562	-0.100	0.031
-162.793	125.770	-0.111	0.139
-161.779	-158.856	0.250	0.014
-160.764	11.992	-0.307	0.232
-159.750	158.974	0.137	0.187
-158.735	-96.866	0.074	0.019
-157.720	-200.000	-0.009	0.114
-156.706	800.000	0.073	0.233
-155.691	800.000	0.118	-0.407
-154.677	82.065	0.040	0.043
-153.662	-40.768	-0.133	-0.068
-152.647	-114.376	0.553	0.105
-151.633	152.249	-0.211	-0.283
-150.618	509.648	0.041	0.094
-149.604	-200.000	0.066	0.341
-148.589	201.717	0.077	-0.117
-147.574	800.000	0.152	-0.513
-146.560	12.357	0.112	0.085
-145.545	-51.238	-0.141	0.065
-144.531	800.000	-0.053	0.188
-143.516	74.016	0.220	0.227
-142.502	-200.000	-0.043	0.242
-141.487	24.788	0.212	-0.173
-140.472	-200.000	0.019	0.365
-139.458	-158.570	0.114	0.006
-138.443	-113.741	0.035	-0.007
-137.429	-115.764	-0.116	0.021
-136.414	41.731	-0.109	-0.097
-135.399	729.311	-0.109	0.287
-134.385	23.210	0.107	0.087
-133.370	-16.685	0.086	0.053
-132.356	51.900	-0.133	0.124
-131.341	-200.000	0.010	-0.180
-130.326	-200.000	0.026	-0.169
-129.312	-1.485	0.052	0.036
-128.297	35.016	0.145	-0.125
-127.283	253.080	-0.138	-0.231
-126.268	30.604	-0.050	0.042
-125.253	800.000	0.028	-0.082
-124.239	172.885	-0.184	0.261
-123.224	8.538	-0.283	0.210
-122.210	218.217	0.222	0.349
-121.195	800.000	0.080	0.249
-120.180	-200.000	-0.033	-0.237
-119.166	-200.000	-0.025	-0.133
-118.151	185.606	0.137	-0.201
-117.137	-200.000	0.038	0.292
-116.122	-136.047	-0.366	0.042
-115.107	255.212	-0.099	0.166
-114.093	504.534	0.134	-0.306
-113.078	-92.891	0.247	-0.068
-112.064	221.922	-0.080	0.127
-111.049	-106.937	-0.360	0.078
-110.034	-200.000	-0.048	0.272
-109.020	590.307	-0.069	0.166
-108.005	689.868	-0.038	-0.099
-106.991	-96.781	-0.156	0.040
-105.976	-200.000	0.002	-0.221
-104.962	-200.000	-0.049	0.464
-103.947	-200.000	-0.005	0.133
-102.932	236.080	0.045	0.073
-101.918	-124.398	0.219	-0.034
-100.903	-148.196	0.164	0.013
-99.889	446.386	0.082	0.177
-98.874	-200.000	-0.027	0.205
-97.859	631.266	-0.086	0.214
-96.845	-3.311	0.063	0.043
-95.830	-7.486	0.244	0.162
-94.816	800.000	0.059	-0.167
-93.801	272.252	-0.031	-0.054
-92.786	23.375	-0.158	0.128
-91.772	103.373	-0.274	-0.315
-90.757	-76.645	0.090	0.031
-89.743	-17.217	0.238	0.147
-88.728	-31.079	-0.104	-0.058
-87.713	-200.000	0.007	0.283
-86.699	-94.263	0.063	0.017
-85.684	9.070	0.111	0.082
-84.670	-200.000	-0.013	0.182
-83.655	278.027	0.120	0.209
-82.640	127.650	-0.145	0.181
-81.626	456.865	0.130	-0.283
-80.611	800.000	0.062	-0.207
-79.597	117.549	-0.180	0.217
-78.582	201.762	-0.177	-0.267
-77.567	-70.208	0.378	-0.141
-76.553	-118.767	-0.060	0.010
-75.538	-200.000	0.022	-0.353
-74.524	-55.311	-0.321	-0.141
-73.509	-3.882	0.234	-0.159
-72.494	-55.027	-0.302	0.133
-71.480	-137.542	0.260	0.029
-70.465	-200.000	0.031	0.322
-69.451	-80.752	0.215	-0.070
-68.436	-134.107	0.176	0.021
-67.422	34.597	0.074	0.063
-66.407	-6.500	-0.155	-0.104
-65.392	-138.696	0.036	0.004
-64.378	31.282	-0.218	-0.183
-63.363	-200.000	-0.008	-0.213
-62.349	88.796	0.107	-0.117
-61.334	-32.835	-1.399	-0.762
-60.319	9.730	0.635	0.472
-59.305	800.000	-0.342	-1.054
-58.290	223.210	0.681	1.077
-57.276	426.969	0.616	1.302
-56.261	-200.000	105.823	612.760
-55.246	505.997	1508.040	3426.856
-54.232	174.620	2711.306	3845.479
-53.217	104.391	2302.218	2656.884
-52.203	38.535	1905.719	1665.947
-51.188	32.576	1691.223	1433.210
-50.173	29.998	1647.599	1377.049
-49.159	49.189	1701.751	1567.833
-48.144	49.349	1717.366	1583.366
-47.130	32.224	1673.970	1415.712
-46.115	29.529	1659.201	1383.011
-45.100	29.318	1654.859	1377.758
-44.086	29.256	1651.995	1374.859
-43.071	29.329	1648.979	1372.840
-42.057	29.218	1647.071	1370.367
-41.042	29.295	1645.249	1369.369
-40.027	29.338	1643.006	1367.771
-39.013	29.291	1641.093	1365.771
-37.998	29.261	1639.637	1364.287
-36.984	29.292	1638.233	1363.293
-35.969	29.435	1636.247	1362.638
-34.954	29.463	1635.133	1361.863
-33.940	29.367	1633.304	1359.583
-32.925	29.377	1631.421	1358.036
-31.911	29.352	1629.847	1356.487
-30.896	29.369	1628.071	1355.076
-29.881	29.446	1626.466	1354.254
-28.867	29.328	1625.016	1352.125
-27.852	29.412	1623.365	1351.318
-26.838	29.369	1622.404	1350.146
-25.823	29.411	1620.607	1348.903
-24.809	29.409	1619.475	1347.897
-23.794	29.459	1618.273	1347.209
-22.779	29.345	1616.956	1345.226
-21.765	29.325	1615.123	1343.498
-20.750	29.376	1613.282	1342.287
-19.736	29.411	1612.210	1341.594
-18.721	29.478	1610.600	1340.693
-17.706	29.310	1609.549	1338.542
-16.692	29.410	1607.877	1337.824
-15.677	29.469	1606.073	1336.700
-14.663	29.412	1605.579	1335.822
-13.648	29.499	1603.328	1334.524
-12.633	29.403	1602.523	1333.108
-11.619	29.423	1600.773	1331.741
-10.604	29.400	1598.736	1329.826
-9.590	29.420	1597.946	1329.260
-8.575	29.476	1596.534	1328.437
-7.560	29.489	1595.222	1327.387
-6.546	29.384	1594.858	1326.279
-5.531	29.454	1593.597	1325.683
-4.517	29.564	1592.012	1325.099
-3.502	29.434	1591.008	1323.280
-2.487	29.505	1589.864	1322.779
-1.473	29.197	1577.807	1310.505
-0.458	26.456	1558.539	1275.162
0.556	20.638	1560.185	1244.905
1.571	18.538	1584.539	1248.944
2.586	18.284	1598.199	1257.736
3.600	16.469	1545.948	1203.595
4.615	8.808	1435.858	1066.940
5.629	1.256	1372.278	971.397
6.644	-0.114	1363.992	956.727
7.659	-0.275	1362.813	954.788
8.673	-0.181	1361.456	954.357
9.688	-0.350	1359.907	952.112
10.702	-0.543	1357.343	949.007
11.717	3.039	1363.930	976.307
12.731	12.337	1382.302	1048.993
13.746	19.833	1393.926	1105.820
14.761	21.870	1396.241	1120.587
15.775	22.174	1396.535	1122.666
16.790	22.281	1396.121	1122.912
17.804	22.347	1395.342	1122.608
18.819	22.473	1395.129	1123.140
19.834	22.603	1394.744	1123.562
20.848	22.674	1393.487	1122.904
21.863	22.655	1393.175	1122.431
22.877	22.748	1391.718	1121.751
23.892	22.641	1391.519	1120.809
24.907	22.628	1390.392	1119.719
25.921	22.636	1389.373	1118.852
26.936	22.590	1388.627	1117.858
27.950	22.604	1387.516	1116.957
28.965	22.626	1386.289	1116.008
29.980	22.633	1385.321	1115.175
30.994	22.663	1384.103	1114.285
32.009	22.634	1382.790	1112.947
33.023	22.743	1381.628	1112.598
34.038	22.661	1380.924	1111.419
35.053	22.574	1379.948	1109.983
36.067	22.635	1378.861	1109.394
37.082	22.604	1378.001	1108.410
38.096	22.662	1376.859	1107.756
39.111	22.610	1376.507	1107.051
40.126	22.576	1375.532	1105.953
41.140	22.589	1375.292	1105.748
42.155	22.582	1374.698	1105.126
43.169	22.628	1374.632	1105.267
44.184	22.526	1374.386	1104.329
45.199	22.585	1373.813	1104.139
46.213	22.622	1373.445	1103.976
47.228	22.719	1372.193	1103.483
48.242	22.688	1371.184	1102.377
49.257	22.577	1369.758	1100.444
50.271	22.505	1368.366	1098.775
51.286	22.597	1366.632	1097.859
52.301	22.610	1365.730	1097.123
53.315	22.619	1364.968	1096.468
54.330	22.585	1364.412	1095.713
55.344	22.595	1362.991	1094.538
56.359	22.639	1362.209	1094.084
57.374	22.557	1361.473	1092.889
58.388	22.522	1360.876	1092.093
59.403	22.676	1360.090	1092.321
60.417	22.548	1359.600	1091.036
61.432	22.514	1358.985	1090.235
62.447	22.619	1357.913	1089.929
63.461	22.642	1356.981	1089.225
64.476	22.561	1356.374	1088.142
65.490	22.611	1354.367	1086.748
66.505	22.622	1353.081	1085.686
67.520	22.543	1352.302	1084.477
68.534	22.652	1351.079	1084.075
69.549	22.667	1350.110	1083.291
70.563	22.771	1348.702	1082.704
71.578	22.658	1348.159	1081.482
72.593	22.584	1347.649	1080.522
73.607	22.629	1346.940	1080.132
74.622	22.679	1345.619	1079.285
75.636	22.750	1344.691	1078.878
76.651	22.711	1344.049	1078.026
77.666	22.606	1343.966	1077.223
78.680	22.699	1343.021	1076.939
79.695	22.603	1342.809	1076.088
80.709	22.629	1342.105	1075.591
81.724	22.722	1340.749	1074.970
82.739	22.666	1340.140	1074.046
83.753	22.623	1339.344	1073.055
84.768	22.649	1337.563	1071.691
85.782	22.621	1336.648	1070.690
86.797	22.628	1335.944	1070.073
87.812	22.595	1334.718	1068.799
88.826	22.677	1333.218	1068.002
89.841	22.700	1332.477	1067.450
90.855	22.673	1331.250	1066.209
91.870	22.723	1330.384	1065.725
92.884	22.715	1329.892	1065.188
93.899	22.718	1328.916	1064.332
94.914	22.683	1328.683	1063.836
95.928	22.667	1327.796	1062.939
96.943	22.726	1327.095	1062.640
97.957	22.782	1326.260	1062.214
98.972	22.781	1324.815	1060.954
99.987	22.753	1324.529	1060.465
101.001	22.800	1322.935	1059.373
102.016	22.772	1322.253	1058.569
103.030	22.679	1321.609	1057.401
104.045	22.708	1320.863	1056.883
105.060	22.732	1319.915	1056.176
106.074	22.765	1318.335	1055.013
107.089	22.757	1317.825	1054.467
108.103	22.736	1316.937	1053.536
109.118	22.833	1315.443	1052.824
110.133	22.738	1314.451	1051.373
111.147	22.790	1313.551	1050.868
112.162	22.837	1311.822	1049.673
113.176	22.793	1311.027	1048.684
114.191	22.874	1310.269	1048.464
115.206	22.791	1309.246	1047.058
116.220	22.807	1307.907	1045.992
117.235	22.745	1307.410	1045.136
118.249	22.754	1306.635	1044.477
119.264	22.794	1305.337	1043.584
120.279	22.909	1304.369	1043.395
121.293	22.932	1303.531	1042.769
122.308	22.887	1302.614	1041.678
123.322	22.840	1301.662	1040.548
124.337	22.823	1301.212	1039.996
125.352	22.920	1300.262	1039.714
126.366	22.942	1298.912	1038.670
127.381	22.865	1298.544	1037.835
128.395	22.858	1297.463	1036.837
129.410	22.943	1296.543	1036.509
130.424	22.866	1295.719	1035.307
131.439	22.891	1294.931	1034.732
132.454	22.779	1294.550	1033.682
133.468	22.934	1293.540	1033.693
134.483	22.921	1293.070	1033.144
135.497	22.829	1292.155	1031.785
136.512	22.801	1291.229	1030.790
137.527	22.772	1290.023	1029.570
138.541	22.912	1288.523	1029.096
139.556	22.880	1287.240	1027.793
140.570	22.811	1286.185	1026.460
141.585	22.894	1285.459	1026.270
142.600	22.762	1284.781	1024.876
143.614	22.786	1283.782	1024.125
144.629	22.749	1282.828	1023.059
145.643	22.704	1281.529	1021.672
146.658	22.737	1280.353	1020.834
147.673	22.791	1279.335	1020.242
148.687	22.813	1278.367	1019.509
149.702	22.792	1277.241	1018.403
150.716	22.611	1276.628	1016.776
151.731	22.866	1274.958	1016.826
152.746	22.904	1273.719	1015.965
153.760	22.859	1273.128	1015.148
154.775	22.785	1271.993	1013.724
155.789	22.883	1271.274	1013.630
156.804	22.879	1270.025	1012.520
157.819	22.752	1269.651	1011.404
158.833	22.853	1268.826	1011.237
159.848	23.031	1268.061	1011.554
160.862	22.890	1267.323	1010.067
161.877	22.886	1266.328	1009.164
162.892	22.910	1265.376	1008.453
163.906	22.972	1264.841	1008.291
164.921	22.891	1263.895	1006.988
165.935	22.916	1263.265	1006.537
166.950	22.899	1262.860	1006.031
167.964	22.893	1262.379	1005.525
168.979	22.905	1261.798	1005.038
169.994	23.071	1260.760	1005.065
171.008	23.050	1260.272	1004.472
172.023	23.035	1259.296	1003.518
173.037	23.065	1258.381	1002.872
174.052	23.024	1257.951	1002.207
175.067	23.085	1257.516	1002.119
176.081	23.079	1256.489	1001.177
177.096	22.903	1256.165	999.834
178.110	22.971	1254.944	999.155
179.125	23.013	1253.843	998.430
180.140	22.925	1252.852	997.053
181.154	22.937	1252.066	996.407
182.169	23.002	1250.800	995.682
183.183	22.956	1249.999	994.693
184.198	23.056	1248.699	994.136
185.213	23.056	1247.726	993.271
186.227	23.043	1246.592	992.209
187.242	23.084	1245.599	991.560
188.256	23.120	1245.090	991.267
189.271	23.148	1244.075	990.531
190.286	23.235	1243.472	990.451
191.300	23.094	1243.036	989.226
192.315	23.067	1242.335	988.429
193.329	23.083	1242.249	988.365
194.344	23.067	1241.729	987.772
195.359	23.089	1240.909	987.156
196.373	23.081	1240.336	986.570
197.388	23.046	1240.064	986.067
198.402	22.880	1240.547	985.440
199.417	23.061	1239.446	985.488
200.432	23.076	1238.587	984.798
201.446	23.029	1238.096	984.059
202.461	23.095	1237.385	983.773
203.475	23.045	1236.729	982.890
204.490	23.115	1235.287	982.042
205.504	23.083	1234.251	980.958
206.519	23.167	1233.483	980.723
207.534	23.152	1232.411	979.700
208.548	23.113	1231.856	978.959
209.563	23.149	1231.193	978.546
210.577	23.173	1230.583	978.105
211.592	23.142	1229.342	976.861
212.607	23.296	1228.291	976.791
213.621	23.140	1227.880	975.516
214.636	23.197	1226.956	975.008
215.650	23.244	1226.049	974.463
216.665	23.253	1225.065	973.645
217.680	23.211	1224.470	972.855
218.694	23.273	1223.717	972.509
219.709	23.180	1222.802	971.185
220.723	23.235	1222.432	971.108
221.738	23.130	1221.509	969.715
222.753	23.168	1221.029	969.457
223.767	23.160	1220.292	968.741
224.782	23.308	1219.813	969.084
225.796	23.383	1218.865	968.655
226.811	23.293	1218.368	967.684
227.826	23.311	1218.088	967.474
228.840	23.325	1217.316	966.849
229.855	23.273	1216.518	965.848
230.869	23.329	1215.561	965.307
231.884	23.251	1215.294	964.585
232.899	23.237	1214.760	963.996
233.913	23.269	1213.940	963.436
234.928	23.370	1213.418	963.484
235.942	23.347	1212.994	962.942
236.957	23.355	1212.087	962.177
237.972	23.308	1211.438	961.323
238.986	23.270	1210.799	960.527
240.001	23.317	1210.110	960.145
241.015	23.537	1209.394	960.684
242.030	23.440	1208.336	959.238
243.045	23.405	1207.791	958.530
244.059	23.452	1206.801	957.914
245.074	23.458	1206.102	957.303
246.088	23.488	1205.265	956.720
247.103	23.526	1204.309	956.080
248.117	23.622	1203.237	955.659
249.132	23.412	1203.143	954.372
250.147	23.436	1202.456	953.868
251.161	23.589	1201.658	953.975
252.176	23.553	1201.163	953.307
253.190	23.578	1200.215	952.604
254.205	23.611	1199.383	952.032
255.220	23.423	1199.502	951.034
256.234	23.569	1198.805	951.184
257.249	23.602	1197.975	950.617
258.263	23.561	1197.102	949.622
259.278	23.593	1196.998	949.622
260.293	23.584	1196.334	948.967
261.307	23.618	1195.637	948.510
262.322	23.520	1195.439	947.744
263.336	23.566	1194.633	947.270
264.351	23.612	1193.959	946.894
265.366	23.622	1193.357	946.386
266.380	23.615	1192.489	945.578
267.395	23.608	1191.786	944.900
268.409	23.560	1191.391	944.250
269.424	23.530	1191.078	943.754
270.439	23.617	1190.386	943.586
271.453	23.669	1189.537	943.106
272.468	23.646	1188.585	942.147
273.482	23.670	1187.918	941.660
274.497	23.639	1187.843	941.356
275.512	23.598	1187.350	940.664
276.526	23.590	1186.468	939.841
277.541	23.814	1185.125	939.874
278.555	23.710	1185.014	939.157
279.570	23.788	1184.047	938.721
280.585	23.742	1183.114	937.653
281.599	23.650	1182.506	936.605
282.614	23.771	1181.688	936.512
283.628	23.721	1180.974	935.596
284.643	23.805	1179.822	935.044
285.657	23.683	1179.159	933.796
286.672	23.769	1178.383	933.547
287.687	23.801	1177.654	933.056
288.701	23.860	1176.989	932.759
289.716	23.846	1176.503	932.214
290.730	23.884	1175.236	931.329
291.745	23.856	1174.677	930.656
292.760	23.964	1174.308	930.847
293.774	23.894	1173.769	929.971
294.789	23.820	1173.366	929.182
295.803	23.873	1173.031	929.114
296.818	23.884	1172.180	928.416
297.833	23.820	1171.405	927.383
298.847	23.879	1170.909	927.219
299.862	23.906	1170.164	926.687
300.876	23.890	1169.352	925.876
301.891	23.881	1168.904	925.393
302.906	23.927	1168.153	924.959
303.920	23.942	1167.652	924.557
304.935	24.017	1166.703	924.110
305.949	23.940	1166.395	923.384
306.964	24.008	1165.753	923.148
307.979	24.037	1165.098	922.702
308.993	24.115	1164.215	922.324
310.008	24.031	1163.569	921.296
311.022	24.031	1162.854	920.645
312.037	24.052	1162.149	920.118
313.052	24.108	1161.086	919.483
314.066	23.959	1160.638	918.278
315.081	24.117	1159.307	917.956
316.095	24.086	1158.992	917.465
317.110	24.064	1158.631	916.988
318.125	24.104	1157.732	916.397
319.139	24.091	1157.221	915.849
320.154	24.003	1156.552	914.782
321.168	24.138	1155.994	914.957
322.183	24.128	1155.434	914.381
323.197	24.132	1154.787	913.810
324.212	23.998	1154.607	912.898
325.227	24.137	1153.465	912.625
326.241	24.248	1152.979	912.729
327.256	24.389	1151.868	912.491
328.270	24.214	1151.305	911.067
329.285	24.177	1150.414	910.095
330.300	24.258	1149.822	909.958
331.314	24.151	1148.958	908.649
332.329	24.286	1148.175	908.639
333.343	24.258	1147.636	907.987
334.358	24.309	1146.729	907.447
335.373	24.281	1146.407	906.970
336.387	24.244	1145.343	905.861
337.402	24.348	1144.622	905.737
338.416	24.300	1144.169	905.059
339.431	24.261	1144.113	904.732
340.446	24.281	1142.871	903.773
341.460	24.299	1141.855	902.980
342.475	24.424	1141.196	903.013
343.489	24.310	1140.311	901.655
344.504	24.358	1139.475	901.157
345.519	24.361	1139.104	900.800
346.533	24.420	1137.853	900.028
347.548	24.354	1137.478	899.320
348.562	24.371	1136.923	898.887
349.577	24.344	1136.043	897.976
350.592	24.415	1135.129	897.529
351.606	24.450	1134.156	896.857
352.621	24.508	1133.814	896.802
353.635	24.439	1133.201	895.887
354.650	24.439	1132.706	895.419
355.665	24.537	1131.945	895.226
356.679	24.565	1131.610	895.022
357.694	24.585	1131.071	894.618
358.708	24.383	1130.472	893.055
359.723	24.455	1129.724	892.743
360.738	24.430	1129.081	892.031
361.752	24.462	1128.482	891.639
362.767	24.522	1127.842	891.356
363.781	24.589	1127.622	891.437
364.796	24.531	1126.909	890.505
365.810	24.642	1126.082	890.325
366.825	24.665	1125.477	889.883
367.840	24.852	1124.579	890.027
368.854	24.754	1124.009	889.008
369.869	24.702	1123.860	888.552
370.883	24.673	1123.158	887.777
371.898	24.667	1122.175	886.891
372.913	24.708	1121.709	886.647
373.927	24.709	1121.200	886.173
374.942	24.794	1120.445	885.918
375.956	24.738	1120.208	885.374
376.971	24.736	1119.440	884.677
377.986	24.692	1119.410	884.360
379.000	24.796	1118.596	884.149
380.015	24.786	1117.654	883.279
381.029	24.810	1117.514	883.207
382.044	24.835	1116.461	882.423
383.059	24.888	1115.975	882.221
384.073	24.947	1115.122	881.757
385.088	24.791	1114.430	880.368
386.102	24.889	1113.635	880.145
387.117	24.877	1112.701	879.266
388.132	24.859	1111.571	878.209
389.146	24.955	1110.878	878.051
390.161	24.857	1110.401	877.117
391.175	24.868	1109.575	876.444
392.190	24.880	1109.427	876.307
393.205	24.989	1108.067	875.688
394.219	24.907	1107.570	874.818
395.234	24.971	1107.101	874.682
396.248	24.988	1105.937	873.770
397.263	24.994	1105.280	873.200
398.278	25.051	1104.813	873.032
399.292	24.897	1104.549	871.994
400.307	24.981	1103.769	871.711
401.321	25.002	1103.036	871.156
402.336	24.988	1102.589	870.658
403.350	24.930	1101.812	869.689
404.365	24.982	1101.588	869.687
405.380	25.139	1100.134	869.221
406.394	25.081	1099.873	868.658
407.409	25.197	1098.825	868.313
408.423	25.208	1097.841	867.512
409.438	25.268	1097.452	867.420
410.453	25.102	1096.872	866.083
411.467	25.209	1096.063	865.883
412.482	25.129	1095.381	864.882
413.496	25.248	1094.498	864.684
414.511	25.138	1094.185	863.827
415.526	25.283	1093.406	863.834
416.540	25.204	1092.882	862.964
417.555	25.210	1092.683	862.759
418.569	25.189	1092.529	862.460
419.584	25.227	1092.161	862.278
420.599	25.245	1091.452	861.726
421.613	147.822	1404.160	1799.015
422.628	136.768	1449.703	1799.096
