DTS Sentinel unit serial number:	SN413079Multiplexer serial number:	ORYXHardware model number:	OX4-SRSoftware version number:	ORYX F/W v4.00 Oryx Data Collector v3.7.2.0data status	okinstallation	princeton_trtdifferential loss correction	single-endedforward channel	channel 2reverse channel	N/Adate	2019/09/12time	05:29:11forward acquisition time	60.00reverse acquisition time	0.00gamma	496.2192k internal	0.2326k external	0.2326temperature offset calibration	1.0061default loss term (dB/km)	0.3790temperature slope calibration	1.0000multiplexer offset coefficient	1.0000multiplexer slope coefficient	1.0000fibre end	0.00T internal ref (°C)	31.94T ext. ref 1 (°C)	1.60T ext. ref 2 (°C)	27.43length (m)	temperature (°C)	Stokes	anti-Stokes-747.200	800.000	-0.083	-0.289
-746.185	-200.000	-0.013	0.149
-745.171	-55.602	0.047	-0.021
-744.156	-58.326	0.164	0.072
-743.142	-200.000	-0.035	-0.171
-742.127	-200.000	0.013	0.088
-741.112	2.353	0.328	-0.239
-740.098	-160.761	-0.356	0.019
-739.083	-158.911	0.329	-0.019
-738.069	800.000	-0.036	-0.113
-737.054	18.929	-0.147	-0.119
-736.039	800.000	0.091	0.330
-735.025	51.522	-0.017	0.017
-734.010	-8.944	-0.105	-0.071
-732.996	-200.000	0.009	-0.085
-731.981	157.222	0.166	-0.231
-730.966	-139.407	-0.455	-0.049
-729.952	-156.020	0.193	0.012
-728.937	-52.555	-0.334	0.156
-727.923	-58.470	0.331	-0.145
-726.908	-23.756	-0.086	-0.052
-725.894	-200.000	0.015	0.247
-724.879	-200.000	0.033	0.293
-723.864	-200.000	0.007	-0.157
-722.850	-44.260	0.195	0.098
-721.835	28.089	0.116	-0.099
-720.821	60.499	0.077	-0.076
-719.806	-22.631	0.133	-0.081
-718.791	-200.000	-0.024	-0.305
-717.777	-200.000	0.014	0.271
-716.762	-45.160	-0.294	-0.147
-715.748	102.851	-0.056	-0.066
-714.733	334.251	-0.068	-0.132
-713.718	-170.755	0.081	-0.003
-712.704	487.316	-0.074	0.170
-711.689	-130.630	0.041	0.006
-710.675	403.872	-0.128	0.272
-709.660	-0.771	-0.150	0.107
-708.645	85.681	0.213	-0.236
-707.631	83.200	-0.146	-0.161
-706.616	-200.000	-0.260	0.000
-705.602	170.366	0.087	-0.125
-704.587	73.945	0.165	-0.175
-703.572	-170.077	0.415	0.015
-702.558	-101.648	-0.324	-0.079
-701.543	-118.197	0.141	-0.025
-700.529	800.000	-0.163	-0.466
-699.514	-61.184	-0.087	-0.037
-698.499	48.564	0.199	0.188
-697.485	45.068	0.241	-0.223
-696.470	800.000	0.029	0.119
-695.456	739.438	-0.136	-0.367
-694.441	-53.054	-0.269	-0.124
-693.426	-112.211	0.132	0.027
-692.412	196.392	0.099	0.151
-691.397	-114.691	-0.215	-0.041
-690.383	-92.243	-0.128	0.036
-689.368	119.627	-0.131	-0.163
-688.354	45.330	0.149	0.138
-687.339	-71.988	-0.110	-0.041
-686.324	800.000	-0.092	-0.367
-685.310	2.504	-0.041	0.030
-684.295	494.309	0.122	-0.281
-683.281	106.560	0.063	-0.075
-682.266	-81.810	0.369	0.122
-681.251	-88.336	-0.267	-0.080
-680.237	367.407	0.031	0.063
-679.222	-114.648	-0.181	-0.035
-678.208	322.392	0.080	-0.154
-677.193	-142.949	0.099	-0.010
-676.178	8.388	0.076	-0.057
-675.164	15.382	0.183	-0.144
-674.149	492.379	-0.038	0.088
-673.135	-186.355	-0.155	0.002
-672.120	-200.000	0.017	0.259
-671.105	227.036	0.186	-0.304
-670.091	327.625	0.089	-0.172
-669.076	-100.365	-0.303	-0.075
-668.062	-182.274	0.353	0.007
-667.047	800.000	-0.069	0.240
-666.032	382.013	-0.163	-0.336
-665.018	-200.000	0.009	0.193
-664.003	-103.876	-0.128	-0.030
-662.989	377.040	-0.107	-0.219
-661.974	1.616	-0.121	0.087
-660.959	-91.922	0.311	-0.089
-659.945	604.951	-0.090	-0.225
-658.930	-82.437	0.030	0.010
-657.916	478.448	-0.071	0.161
-656.901	-87.804	0.145	-0.044
-655.886	-79.125	0.250	0.085
-654.872	534.507	0.055	-0.131
-653.857	-133.552	-0.250	0.032
-652.843	-200.000	-0.005	-0.310
-651.828	-73.844	-0.113	-0.041
-650.814	258.396	-0.015	-0.026
-649.799	-200.000	0.073	-0.331
-648.784	795.142	-0.054	-0.150
-647.770	77.860	0.115	-0.123
-646.755	130.345	0.090	0.116
-645.741	108.931	0.174	-0.209
-644.726	-200.000	-0.018	-0.149
-643.711	-20.039	0.347	0.215
-642.697	164.690	-0.105	0.149
-641.682	-7.023	0.307	0.209
-640.668	80.273	-0.165	-0.179
-639.653	-200.000	-0.056	-0.262
-638.638	-169.983	0.166	0.006
-637.624	288.851	0.070	0.128
-636.609	37.884	-0.451	0.403
-635.595	-112.306	-0.081	-0.016
-634.580	-200.000	-0.028	0.363
-633.565	2.928	0.140	0.102
-632.551	800.000	-0.030	0.104
-631.536	295.719	-0.046	0.084
-630.522	-171.121	0.222	-0.008
-629.507	44.272	0.131	-0.120
-628.492	119.358	0.196	-0.243
-627.478	-200.000	-0.092	-0.547
-626.463	-200.000	-0.002	0.213
-625.449	-134.114	0.247	0.031
-624.434	-47.921	0.166	-0.081
-623.419	79.735	0.340	0.367
-622.405	-73.901	0.085	0.031
-621.390	-200.000	0.024	0.205
-620.376	181.270	-0.114	-0.168
-619.361	38.999	-0.128	0.115
-618.346	425.263	-0.127	-0.274
-617.332	-169.998	-0.225	-0.008
-616.317	-200.000	0.033	-0.157
-615.303	-10.798	-0.254	-0.168
-614.288	-200.000	0.010	-0.047
-613.273	234.191	-0.104	0.172
-612.259	240.440	-0.242	-0.404
-611.244	-96.817	-0.095	-0.025
-610.230	71.984	0.174	0.182
-609.215	-200.000	0.013	0.091
-608.201	-199.374	-0.088	0.000
-607.186	-36.273	0.163	-0.088
-606.171	293.643	0.030	-0.055
-605.157	-51.259	-0.237	-0.111
-604.142	170.842	0.166	-0.238
-603.128	219.465	0.042	0.068
-602.113	800.000	-0.058	-0.192
-601.098	12.841	-0.149	-0.115
-600.084	27.667	0.166	-0.140
-599.069	-37.245	-0.223	-0.120
-598.055	-112.623	0.087	0.017
-597.040	-200.000	-0.033	-0.160
-596.025	120.541	0.050	0.062
-595.011	-13.353	0.301	-0.196
-593.996	88.295	0.099	0.110
-592.982	-200.000	-0.004	0.049
-591.967	-200.000	-0.033	-0.272
-590.952	173.038	-0.149	-0.215
-589.938	131.408	0.102	0.131
-588.923	119.304	0.145	-0.180
-587.909	800.000	-0.082	0.238
-586.894	-142.562	-0.381	0.037
-585.879	-200.000	0.015	-0.168
-584.865	-65.896	0.079	-0.032
-583.850	800.000	0.022	-0.082
-582.836	1.286	-0.341	-0.245
-581.821	-135.196	0.265	-0.032
-580.806	344.049	0.151	0.297
-579.792	-57.718	-0.109	-0.048
-578.777	134.973	0.098	-0.128
-577.763	355.779	0.084	-0.167
-576.748	123.137	-0.127	-0.159
-575.733	1.044	-0.364	-0.262
-574.719	-10.783	0.264	-0.175
-573.704	-116.411	-0.230	0.043
-572.690	179.306	0.065	-0.095
-571.675	-38.335	-0.110	-0.058
-570.661	136.805	0.137	-0.179
-569.646	-200.000	0.027	0.264
-568.631	229.662	-0.148	-0.242
-567.617	-124.410	0.182	0.028
-566.602	-79.629	-0.137	-0.046
-565.588	2.834	-0.095	0.069
-564.573	-200.000	0.001	0.066
-563.558	-200.000	-0.128	-0.001
-562.544	229.123	-0.054	0.088
-561.529	239.334	0.109	0.182
-560.515	800.000	0.088	-0.255
-559.500	729.210	-0.054	0.145
-558.485	-52.672	-0.258	-0.119
-557.471	-65.057	0.153	-0.062
-556.456	43.884	-0.149	-0.136
-555.442	800.000	0.033	0.141
-554.427	222.802	-0.224	0.361
-553.412	-200.000	-0.021	-0.271
-552.398	800.000	0.017	0.049
-551.383	70.474	-0.065	-0.067
-550.369	800.000	-0.080	0.319
-549.354	211.890	0.023	-0.036
-548.339	-105.353	-0.129	0.029
-547.325	77.994	0.087	0.093
-546.310	14.040	-0.105	0.082
-545.296	26.816	-0.179	-0.150
-544.281	136.417	-0.103	-0.135
-543.266	-31.715	0.185	-0.104
-542.252	61.594	0.213	-0.213
-541.237	-200.000	0.002	-0.198
-540.223	800.000	-0.112	-0.445
-539.208	107.565	-0.136	0.162
-538.193	24.716	-0.339	0.281
-537.179	258.592	-0.116	-0.200
-536.164	-74.201	-0.137	0.050
-535.150	301.539	-0.029	0.054
-534.135	-7.282	0.322	0.218
-533.121	119.732	0.048	-0.059
-532.106	-165.949	-0.427	-0.018
-531.091	-200.000	-0.051	0.266
-530.077	107.885	0.117	0.139
-529.062	1.988	0.125	0.090
-528.048	90.378	0.055	0.061
-527.033	800.000	0.061	-0.201
-526.018	-115.312	0.197	0.037
-525.004	146.781	0.226	0.304
-523.989	18.649	0.036	-0.029
-522.975	-56.931	-0.058	-0.026
-521.960	-122.167	-0.307	0.050
-520.945	-36.876	-0.153	-0.082
-519.931	-44.742	-0.125	-0.062
-518.916	-9.144	0.202	0.135
-517.902	489.579	-0.105	-0.240
-516.887	146.369	0.234	-0.314
-515.872	-58.309	-0.117	-0.051
-514.858	-200.000	-0.003	-0.158
-513.843	-98.675	0.191	0.049
-512.829	-96.121	-0.179	0.047
-511.814	-2.617	-0.243	-0.170
-510.799	411.249	0.077	-0.164
-509.785	800.000	-0.068	-0.259
-508.770	15.908	-0.192	-0.151
-507.756	129.575	-0.041	0.052
-506.741	21.426	-0.084	0.068
-505.726	717.248	-0.083	-0.221
-504.712	-200.000	-0.004	-0.134
-503.697	67.729	0.147	-0.150
-502.683	418.566	0.037	-0.079
-501.668	81.272	-0.212	-0.229
-500.653	-60.684	0.085	-0.036
-499.639	-77.236	0.094	0.033
-498.624	-200.000	0.023	0.167
-497.610	104.318	0.154	-0.182
-496.595	578.576	0.104	-0.255
-495.581	-45.292	-0.265	-0.131
-494.566	-70.616	0.083	-0.031
-493.551	59.531	0.176	-0.174
-492.537	666.590	-0.167	0.431
-491.522	-49.991	0.306	0.145
-490.508	-1.958	-0.174	0.123
-489.493	772.141	0.141	0.384
-488.478	800.000	-0.058	-0.181
-487.464	800.000	0.108	-0.326
-486.449	-32.753	-0.071	-0.040
-485.435	-34.005	-0.329	0.181
-484.420	-200.000	-0.053	0.309
-483.405	347.516	-0.079	-0.155
-482.391	145.603	0.060	-0.080
-481.376	192.959	0.137	0.206
-480.362	81.592	-0.091	-0.099
-479.347	-200.000	0.084	-0.381
-478.332	714.459	0.097	0.258
-477.318	-200.000	-0.050	-0.298
-476.303	213.340	-0.185	0.292
-475.289	-58.377	-0.082	0.036
-474.274	-17.516	-0.081	0.051
-473.259	1.917	-0.208	0.149
-472.245	113.512	-0.182	0.220
-471.230	135.895	0.131	-0.170
-470.216	-6.216	0.272	-0.185
-469.201	-48.115	-0.077	-0.037
-468.186	89.653	-0.028	-0.031
-467.172	180.854	0.080	0.117
-466.157	767.182	0.103	-0.280
-465.143	471.890	-0.084	0.188
-464.128	-66.265	0.452	-0.179
-463.113	800.000	-0.059	-0.259
-462.099	116.145	0.062	-0.076
-461.084	95.545	-0.092	0.104
-460.070	-60.309	-0.157	0.067
-459.055	-15.717	0.279	-0.178
-458.040	-115.141	-0.155	-0.029
-457.026	-117.405	-0.226	-0.041
-456.011	800.000	-0.056	-0.227
-454.997	27.394	0.197	-0.165
-453.982	-200.000	0.014	0.350
-452.968	141.466	-0.088	0.116
-451.953	-200.000	-0.041	-0.269
-450.938	-143.023	0.135	0.013
-449.924	800.000	0.053	0.153
-448.909	800.000	-0.102	0.283
-447.895	577.026	0.096	-0.233
-446.880	-111.002	0.115	-0.023
-445.865	-34.424	-0.055	-0.030
-444.851	-200.000	-0.119	0.000
-443.836	800.000	-0.062	0.192
-442.822	44.275	0.127	0.116
-441.807	68.696	0.379	-0.388
-440.792	-103.671	-0.025	0.006
-439.778	-24.249	-0.305	-0.181
-438.763	-102.248	0.281	-0.067
-437.749	-172.670	-0.460	0.014
-436.734	-164.600	-0.258	0.012
-435.719	40.711	-0.071	0.064
-434.705	-145.022	0.040	-0.004
-433.690	488.613	0.095	0.215
-432.676	736.395	-0.073	-0.195
-431.661	76.541	-0.062	0.065
-430.646	800.000	-0.090	0.304
-429.632	73.922	-0.031	0.033
-428.617	-56.703	-0.246	0.109
-427.603	-0.520	0.068	-0.048
-426.588	-200.000	-0.029	0.408
-425.573	-200.000	0.008	0.467
-424.559	-134.492	0.160	-0.019
-423.544	495.917	-0.129	0.296
-422.530	474.797	-0.077	0.174
-421.515	-190.372	0.247	0.003
-420.500	-200.000	-0.010	-0.067
-419.486	-124.390	0.092	-0.014
-418.471	800.000	0.030	0.130
-417.457	800.000	-0.075	0.210
-416.442	-56.122	0.334	-0.148
-415.428	-76.971	-0.218	0.076
-414.413	0.049	-0.494	0.350
-413.398	-35.382	0.146	-0.079
-412.384	-200.000	0.080	-0.363
-411.369	-46.315	-0.045	0.022
-410.355	-63.019	0.158	-0.065
-409.340	-78.253	0.143	0.049
-408.325	800.000	0.079	-0.272
-407.311	-44.709	0.135	-0.067
-406.296	-41.394	0.291	-0.149
-405.282	-124.449	-0.111	-0.017
-404.267	119.331	-0.112	0.138
-403.252	-69.609	-0.142	-0.054
-402.238	493.572	0.102	0.232
-401.223	800.000	0.057	-0.185
-400.209	-9.848	0.319	0.211
-399.194	-129.692	0.068	-0.009
-398.179	-151.149	0.305	-0.023
-397.165	98.394	-0.222	-0.254
-396.150	-172.869	0.136	-0.004
-395.136	800.000	0.100	0.363
-394.121	310.203	0.146	0.271
-393.106	-52.667	0.189	0.087
-392.092	336.419	0.124	-0.240
-391.077	800.000	0.065	-0.205
-390.063	515.169	0.188	0.436
-389.048	-45.597	0.089	0.044
-388.033	-200.000	0.029	0.162
-387.019	31.200	-0.205	0.175
-386.004	-63.774	0.313	0.128
-384.990	86.968	-0.123	0.135
-383.975	368.273	-0.019	-0.038
-382.960	-107.844	-0.274	-0.059
-381.946	337.810	-0.029	-0.055
-380.931	-200.000	0.095	-0.457
-379.917	79.751	0.169	0.180
-378.902	-87.390	0.199	0.060
-377.888	-13.510	0.272	-0.175
-376.873	532.078	0.142	-0.335
-375.858	-200.000	-0.033	0.162
-374.844	141.348	0.102	0.135
-373.829	-53.269	0.113	0.052
-372.815	-84.553	-0.318	-0.100
-371.800	-107.566	0.256	-0.056
-370.785	-162.341	-0.276	0.014
-369.771	-69.634	-0.289	0.110
-368.756	-25.816	0.111	0.065
-367.742	-63.625	0.129	-0.053
-366.727	-200.000	-0.047	0.250
-365.712	-200.000	-0.030	0.282
-364.698	-175.632	-0.066	-0.002
-363.683	-26.425	-0.124	0.072
-362.669	105.766	0.017	0.020
-361.654	-31.874	0.094	-0.053
-360.639	30.591	-0.052	0.044
-359.625	62.378	0.058	-0.058
-358.610	465.115	0.164	-0.365
-357.596	-128.850	-0.322	0.045
-356.581	-58.816	0.394	-0.169
-355.566	614.385	-0.173	0.429
-354.552	-153.229	-0.242	0.017
-353.537	-162.954	-0.174	0.008
-352.523	800.000	0.098	0.303
-351.508	701.751	-0.096	0.252
-350.493	716.521	-0.063	0.167
-349.479	-7.030	0.046	-0.031
-348.464	97.664	0.225	-0.257
-347.450	-174.624	-0.098	0.003
-346.435	69.177	0.236	0.241
-345.420	459.414	-0.141	0.311
-344.406	289.972	-0.130	0.234
-343.391	-69.415	-0.137	0.052
-342.377	9.761	-0.046	-0.035
-341.362	95.394	0.191	0.217
-340.348	-200.000	-0.066	0.352
-339.333	119.288	-0.375	0.461
-338.318	27.754	-0.355	0.297
-337.304	-200.000	0.025	0.131
-336.289	-102.657	0.127	0.030
-335.275	85.044	-0.065	-0.071
-334.260	388.827	0.084	0.173
-333.245	-29.683	0.162	-0.092
-332.231	800.000	0.013	-0.050
-331.216	-92.370	0.113	0.032
-330.202	-200.000	-0.004	-0.407
-329.187	212.059	0.110	-0.171
-328.172	86.368	0.210	-0.229
-327.158	800.000	0.069	-0.196
-326.143	-71.037	-0.264	-0.098
-325.129	-200.000	0.007	-0.230
-324.114	140.919	-0.208	-0.273
-323.099	-200.000	0.034	-0.232
-322.085	162.577	0.197	-0.274
-321.070	-57.489	-0.290	0.126
-320.056	-152.299	-0.301	0.022
-319.041	-162.012	0.102	-0.005
-318.026	588.597	0.071	0.173
-317.012	35.320	-0.219	-0.191
-315.997	-51.163	-0.100	0.046
-314.983	-65.908	0.066	0.026
-313.968	-46.169	-0.065	0.032
-312.953	378.729	-0.117	0.238
-311.939	87.836	-0.074	0.081
-310.924	-124.773	-0.131	0.020
-309.910	-131.823	-0.080	-0.010
-308.895	-14.084	-0.235	0.150
-307.880	-200.000	-0.038	0.283
-306.866	-200.000	0.036	0.204
-305.851	96.699	0.169	0.192
-304.837	-161.125	0.191	0.010
-303.822	85.851	-0.291	0.317
-302.807	37.008	0.129	-0.113
-301.793	-23.234	-0.309	-0.184
-300.778	8.259	-0.150	-0.112
-299.764	86.119	-0.072	-0.078
-298.749	-62.053	-0.027	-0.011
-297.735	94.646	-0.239	0.269
-296.720	-200.000	-0.018	0.087
-295.705	-200.000	0.219	0.001
-294.691	-130.047	0.206	0.028
-293.676	-91.712	0.302	-0.085
-292.662	-161.403	-0.218	-0.011
-291.647	44.067	-0.351	-0.319
-290.632	107.711	0.141	0.166
-289.618	-54.456	-0.147	0.066
-288.603	248.732	-0.092	-0.155
-287.589	-88.920	0.408	-0.120
-286.574	-200.000	0.028	-0.145
-285.559	-116.599	0.222	0.041
-284.545	414.348	0.155	-0.328
-283.530	-200.000	0.019	0.108
-282.516	112.879	0.125	-0.150
-281.501	36.029	-0.288	0.251
-280.486	-87.814	-0.084	0.025
-279.472	-108.642	0.182	0.039
-278.457	-200.000	-0.028	-0.160
-277.443	13.402	0.188	-0.144
-276.428	43.561	-0.233	0.211
-275.413	-11.311	0.239	-0.156
-274.399	-200.000	-0.037	-0.279
-273.384	-103.735	0.203	-0.047
-272.370	261.220	0.209	0.359
-271.355	800.000	0.069	0.282
-270.340	800.000	-0.057	0.156
-269.326	-200.000	0.010	-0.171
-268.311	85.121	-0.149	0.161
-267.297	-200.000	0.043	-0.309
-266.282	-200.000	-0.034	0.244
-265.267	-200.000	-0.007	0.201
-264.253	-83.031	-0.188	0.060
-263.238	-200.000	0.053	0.361
-262.224	325.603	-0.176	-0.334
-261.209	355.840	-0.102	-0.200
-260.195	111.769	0.170	-0.203
-259.180	800.000	-0.065	0.215
-258.165	800.000	-0.084	-0.329
-257.151	800.000	-0.033	0.095
-256.136	800.000	0.036	0.133
-255.122	-0.092	-0.073	0.052
-254.107	-126.822	0.318	0.046
-253.092	-53.276	-0.157	-0.071
-252.078	-35.320	0.112	0.060
-251.063	-63.550	-0.247	-0.100
-250.049	-200.000	-0.040	-0.310
-249.034	-200.000	0.023	0.257
-248.019	-53.291	0.212	0.096
-247.005	-37.475	0.071	0.038
-245.990	-200.000	0.004	0.345
-244.976	800.000	0.098	-0.331
-243.961	-200.000	-0.007	-0.074
-242.946	800.000	0.081	0.270
-241.932	-200.000	0.038	-0.231
-240.917	305.497	-0.102	0.187
-239.903	800.000	0.057	-0.178
-238.888	800.000	0.068	-0.241
-237.873	64.421	0.153	0.153
-236.859	-31.483	0.222	-0.123
-235.844	-200.000	-0.098	-0.425
-234.830	117.480	-0.107	-0.130
-233.815	-200.000	-0.035	0.162
-232.800	-200.000	-0.011	0.360
-231.786	-200.000	-0.016	0.144
-230.771	-168.998	0.028	-0.001
-229.757	593.587	-0.082	0.200
-228.742	-113.528	0.198	0.038
-227.727	-48.686	-0.216	0.102
-226.713	199.262	-0.114	-0.172
-225.698	-128.752	0.302	-0.042
-224.684	-35.644	-0.022	0.012
-223.669	-179.477	-0.194	-0.004
-222.655	-11.019	0.199	-0.130
-221.640	-92.376	0.338	0.094
-220.625	-163.285	-0.414	0.020
-219.611	-67.514	0.092	-0.035
-218.596	-34.357	-0.125	0.068
-217.582	55.456	0.115	0.110
-216.567	90.892	-0.049	-0.054
-215.552	-200.000	-0.056	0.292
-214.538	150.102	0.118	0.158
-213.523	-200.000	0.002	-0.235
-212.509	217.887	-0.093	-0.147
-211.494	273.944	0.027	0.048
-210.479	-93.276	0.163	0.045
-209.465	752.210	0.112	0.298
-208.450	543.344	0.033	0.077
-207.436	108.879	-0.088	0.104
-206.421	-96.617	-0.104	-0.027
-205.406	44.248	0.095	0.086
-204.392	71.045	0.068	0.069
-203.377	-200.000	-0.026	-0.121
-202.363	-200.000	0.017	-0.090
-201.348	-27.461	0.249	-0.143
-200.333	-5.832	0.172	0.116
-199.319	-77.670	-0.179	0.061
-198.304	-200.000	-0.049	-0.249
-197.290	-27.045	-0.216	-0.124
-196.275	225.838	0.164	0.263
-195.260	-148.560	-0.231	0.019
-194.246	-200.000	0.029	-0.207
-193.231	130.890	-0.285	0.361
-192.217	403.356	0.051	0.105
-191.202	-200.000	-0.010	-0.079
-190.187	-80.921	-0.333	-0.109
-189.173	-52.051	-0.208	-0.095
-188.158	-200.000	0.030	0.143
-187.144	209.653	-0.109	-0.168
-186.129	-87.903	-0.283	-0.084
-185.114	-40.392	0.307	-0.158
-184.100	-200.000	-0.065	0.298
-183.085	331.483	0.096	-0.182
-182.071	800.000	0.116	0.344
-181.056	72.550	-0.215	0.221
-180.042	-95.197	-0.009	0.002
-179.027	334.438	0.341	0.651
-178.012	-200.000	-0.036	0.284
-176.998	28.650	-0.205	-0.171
-175.983	-200.000	-0.005	0.131
-174.969	609.533	0.108	0.266
-173.954	-165.209	0.157	0.007
-172.939	-7.852	-0.053	-0.035
-171.925	199.469	-0.101	-0.153
-170.910	-87.237	0.315	-0.094
-169.896	-138.595	0.280	0.030
-168.881	-200.000	0.004	-0.063
-167.866	94.529	0.138	-0.155
-166.852	-73.668	-0.367	-0.132
-165.837	800.000	0.017	-0.061
-164.823	-35.892	0.402	-0.215
-163.808	237.521	-0.136	-0.223
-162.793	358.082	-0.087	-0.172
-161.779	-41.085	-0.175	0.089
-160.764	155.386	0.044	-0.060
-159.750	-38.772	0.183	-0.095
-158.735	7.532	-0.379	-0.280
-157.720	697.380	0.074	-0.191
-156.706	-139.446	0.411	0.043
-155.691	-200.000	0.023	-0.120
-154.677	-200.000	0.021	0.236
-153.662	-144.314	0.372	-0.034
-152.647	800.000	-0.130	0.382
-151.633	-44.213	0.125	-0.062
-150.618	-200.000	0.039	0.242
-149.604	433.691	-0.101	0.215
-148.589	158.195	-0.119	-0.162
-147.574	-200.000	0.001	-0.148
-146.560	-192.068	0.193	-0.002
-145.545	800.000	0.024	0.092
-144.531	-83.265	0.203	-0.064
-143.516	733.850	0.131	0.346
-142.502	-104.654	-0.307	-0.070
-141.487	-200.000	-0.003	-0.138
-140.472	-102.658	-0.240	-0.056
-139.458	155.080	-0.176	-0.239
-138.443	-128.931	-0.340	0.047
-137.429	291.961	-0.114	0.205
-136.414	-83.836	0.102	-0.032
-135.399	800.000	-0.064	0.250
-134.385	800.000	-0.089	0.285
-133.370	-70.986	0.122	0.045
-132.356	-200.000	-0.043	-0.357
-131.341	-200.000	0.003	-0.018
-130.326	394.965	-0.096	-0.197
-129.312	366.839	-0.095	-0.188
-128.297	107.892	0.021	0.024
-127.283	1.336	0.124	0.088
-126.268	468.109	-0.082	0.181
-125.253	-97.481	0.057	-0.015
-124.239	51.589	0.127	0.119
-123.224	41.332	-0.286	-0.255
-122.210	-76.937	0.398	0.137
-121.195	55.717	-0.153	-0.146
-120.180	-44.049	0.183	-0.091
-119.166	-18.321	0.195	0.120
-118.151	-200.000	0.002	-0.165
-117.137	34.878	-0.101	0.087
-116.122	-200.000	0.033	0.250
-115.107	-97.566	-0.094	0.024
-114.093	-107.506	0.130	0.028
-113.078	-73.286	0.416	-0.150
-112.064	-138.227	0.186	0.020
-111.049	800.000	0.128	-0.401
-110.034	-200.000	-0.009	0.140
-109.020	147.228	-0.031	-0.041
-108.005	34.787	0.152	-0.131
-106.991	-178.531	-0.066	0.001
-105.976	800.000	-0.024	-0.094
-104.962	-24.132	0.215	0.126
-103.947	116.241	0.040	-0.049
-102.932	-200.000	-0.002	-0.198
-101.918	61.741	-0.102	-0.100
-100.903	143.566	-0.131	-0.172
-99.889	-77.640	0.188	0.064
-98.874	-78.330	0.075	-0.025
-97.859	800.000	-0.046	-0.136
-96.845	169.538	0.100	0.141
-95.830	25.331	-0.313	-0.255
-94.816	-200.000	-0.033	-0.237
-93.801	800.000	-0.100	-0.338
-92.786	-200.000	-0.005	-0.028
-91.772	-105.397	-0.051	0.011
-90.757	66.449	0.108	-0.108
-89.743	51.304	0.045	-0.042
-88.728	20.390	0.059	0.047
-87.713	169.816	-0.054	0.076
-86.699	-200.000	-0.013	0.284
-85.684	-62.159	0.297	0.122
-84.670	171.160	0.072	-0.101
-83.655	-4.282	-0.303	0.206
-82.640	49.691	-0.251	0.233
-81.626	-63.325	-0.275	-0.111
-80.611	231.650	-0.164	0.264
-79.597	-200.000	-0.024	0.147
-78.582	428.862	-0.111	-0.236
-77.567	-153.200	-0.351	0.024
-76.553	-101.668	-0.192	0.046
-75.538	-57.739	0.320	-0.138
-74.524	144.541	0.050	0.066
-73.509	-107.424	0.100	0.022
-72.494	-200.000	0.036	0.217
-71.480	-200.000	-0.011	-0.139
-70.465	109.118	0.279	-0.328
-69.451	-82.311	-0.290	-0.093
-68.436	259.796	0.260	-0.442
-67.422	126.041	0.286	-0.355
-66.407	-70.517	-0.355	0.132
-65.392	-104.333	0.056	0.013
-64.378	-2.538	0.375	0.258
-63.363	-15.221	0.222	-0.140
-62.349	58.898	-0.180	-0.173
-61.334	35.497	-1.250	-1.077
-60.319	178.557	0.327	0.468
-59.305	599.284	-0.470	-1.145
-58.290	327.272	0.645	1.214
-57.276	800.000	0.476	1.717
-56.261	-200.000	95.804	597.581
-55.246	568.284	1368.284	3263.860
-54.232	161.374	2555.659	3509.141
-53.217	107.125	2268.239	2646.170
-52.203	41.409	1895.215	1683.352
-51.188	35.155	1685.266	1449.673
-50.173	32.548	1641.006	1392.303
-49.159	50.369	1687.641	1565.739
-48.144	52.207	1703.586	1594.228
-47.130	34.865	1664.914	1429.774
-46.115	32.050	1650.081	1396.079
-45.100	31.860	1646.019	1391.177
-44.086	31.909	1642.562	1388.565
-43.071	31.853	1640.162	1386.069
-42.057	31.894	1637.663	1384.200
-41.042	31.887	1636.212	1382.872
-40.027	31.794	1634.421	1380.617
-39.013	31.797	1631.891	1378.443
-37.998	31.842	1630.339	1377.411
-36.984	31.881	1628.867	1376.396
-35.969	31.923	1627.757	1375.713
-34.954	31.940	1626.450	1374.679
-33.940	31.930	1624.457	1372.864
-32.925	31.907	1622.718	1371.173
-31.911	31.915	1620.707	1369.483
-30.896	31.940	1618.835	1368.024
-29.881	31.954	1617.562	1366.997
-28.867	31.897	1615.788	1365.030
-27.852	31.884	1614.553	1363.839
-26.838	31.920	1612.253	1362.102
-25.823	31.965	1611.522	1361.754
-24.809	31.951	1610.014	1360.324
-23.794	31.933	1608.894	1359.197
-22.779	31.972	1607.333	1358.109
-21.765	32.036	1605.253	1356.761
-20.750	31.880	1604.169	1354.657
-19.736	31.987	1602.149	1353.670
-18.721	31.977	1600.863	1352.462
-17.706	31.908	1600.117	1351.279
-16.692	31.999	1597.962	1350.060
-15.677	31.938	1596.633	1348.444
-14.663	31.949	1595.414	1347.444
-13.648	32.005	1594.184	1346.753
-12.633	32.077	1592.085	1345.442
-11.619	31.939	1591.129	1343.594
-10.604	31.940	1589.577	1342.236
-9.590	31.997	1588.141	1341.378
-8.575	31.996	1587.053	1340.400
-7.560	31.989	1586.091	1339.480
-6.546	31.961	1584.571	1337.946
-5.531	31.984	1583.620	1337.251
-4.517	31.927	1582.724	1336.038
-3.502	31.929	1581.587	1335.039
-2.487	32.064	1579.637	1334.300
-1.473	31.811	1567.533	1322.238
-0.458	29.229	1548.742	1288.307
0.556	25.809	1549.782	1259.473
1.571	23.568	1573.795	1262.943
2.586	23.320	1587.108	1271.733
3.600	20.392	1532.403	1207.462
4.615	11.037	1420.722	1058.777
5.629	3.115	1355.449	960.714
6.644	1.751	1347.682	946.655
7.659	1.600	1346.688	944.932
8.673	1.574	1345.340	943.740
9.688	1.485	1343.842	942.057
10.702	1.196	1340.427	937.792
11.717	4.592	1347.503	963.736
12.731	14.775	1366.700	1041.135
13.746	23.403	1381.159	1106.152
14.761	25.816	1384.552	1123.849
15.775	26.167	1384.697	1126.058
16.790	26.289	1383.600	1125.823
17.804	26.345	1383.228	1125.770
18.819	26.553	1383.099	1126.859
19.834	26.654	1382.573	1126.958
20.848	26.663	1381.994	1126.446
21.863	26.600	1381.023	1125.165
22.877	26.697	1380.229	1125.015
23.892	26.718	1379.369	1124.347
24.907	26.642	1378.364	1122.957
25.921	26.672	1377.527	1122.362
26.936	26.783	1375.938	1121.654
27.950	26.814	1374.642	1120.693
28.965	26.746	1374.103	1119.735
29.980	26.691	1372.797	1118.230
30.994	26.740	1371.421	1117.314
32.009	26.778	1370.417	1116.626
33.023	26.637	1369.906	1115.244
34.038	26.788	1368.366	1114.822
35.053	26.541	1367.943	1112.863
36.067	26.695	1366.400	1112.453
37.082	26.703	1365.729	1111.857
38.096	26.662	1364.703	1110.669
39.111	26.681	1363.848	1109.996
40.126	26.749	1363.262	1109.835
41.140	26.617	1362.561	1108.356
42.155	26.701	1362.494	1108.722
43.169	26.750	1362.232	1108.706
44.184	26.670	1361.993	1107.924
45.199	26.656	1361.791	1107.576
46.213	26.773	1360.880	1107.456
47.228	26.719	1360.234	1106.502
48.242	26.715	1359.173	1105.517
49.257	26.727	1357.507	1104.136
50.271	26.720	1356.068	1102.822
51.286	26.728	1354.944	1101.860
52.301	26.684	1353.721	1100.503
53.315	26.617	1353.240	1099.608
54.330	26.534	1352.239	1098.194
55.344	26.789	1350.645	1098.344
56.359	26.755	1349.980	1097.503
57.374	26.664	1349.075	1096.121
58.388	26.678	1348.482	1095.628
59.403	26.643	1348.423	1095.269
60.417	26.597	1347.618	1094.240
61.432	26.650	1346.894	1093.875
62.447	26.707	1345.946	1093.351
63.461	26.679	1344.771	1092.135
64.476	26.669	1344.119	1091.445
65.490	26.696	1343.109	1090.693
66.505	26.696	1340.834	1088.748
67.520	26.728	1339.537	1087.790
68.534	26.629	1339.407	1086.996
69.549	26.585	1338.436	1085.847
70.563	26.623	1337.426	1085.158
71.578	26.716	1335.825	1084.321
72.593	26.719	1335.530	1084.000
73.607	26.744	1334.647	1083.338
74.622	26.754	1333.822	1082.635
75.636	26.649	1333.292	1081.481
76.651	26.693	1332.776	1081.229
77.666	26.672	1331.980	1080.363
78.680	26.645	1331.915	1080.055
79.695	26.795	1330.571	1079.759
80.709	26.650	1330.150	1078.460
81.724	26.734	1329.447	1078.296
82.739	26.682	1327.962	1076.688
83.753	26.812	1326.772	1076.401
84.768	26.702	1326.294	1075.263
85.782	26.636	1325.513	1074.140
86.797	26.677	1323.956	1073.031
87.812	26.682	1322.831	1072.053
88.826	26.813	1321.488	1071.643
89.841	26.725	1321.157	1070.757
90.855	26.668	1320.338	1069.665
91.870	26.765	1319.157	1069.187
92.884	26.704	1318.703	1068.365
93.899	26.819	1317.619	1068.068
94.914	26.807	1317.026	1067.421
95.928	26.834	1316.373	1066.957
96.943	26.831	1315.274	1065.952
97.957	26.813	1314.898	1065.447
98.972	26.862	1313.259	1064.316
99.987	26.768	1312.809	1063.304
101.001	26.734	1312.296	1062.594
102.016	26.786	1311.133	1061.863
103.030	26.798	1309.948	1060.883
104.045	26.875	1309.122	1060.569
105.060	26.787	1308.421	1059.389
106.074	26.777	1307.693	1058.650
107.089	26.744	1306.643	1057.513
108.103	26.731	1305.469	1056.394
109.118	26.728	1304.585	1055.569
110.133	26.848	1303.249	1055.090
111.147	26.814	1302.145	1053.906
112.162	26.748	1301.524	1052.927
113.176	26.806	1299.782	1051.762
114.191	26.924	1299.073	1051.777
115.206	26.859	1298.176	1050.582
116.220	26.845	1296.886	1049.368
117.235	26.738	1296.227	1048.118
118.249	26.871	1295.251	1048.006
119.264	26.825	1295.065	1047.501
120.279	26.836	1293.823	1046.465
121.293	26.933	1292.558	1045.906
122.308	26.925	1292.294	1045.558
123.322	26.887	1291.592	1044.675
124.337	26.923	1290.857	1044.196
125.352	26.871	1290.113	1043.205
126.366	26.936	1288.685	1042.329
127.381	26.888	1288.440	1041.763
128.395	26.867	1287.438	1040.743
129.410	26.884	1286.377	1039.888
130.424	26.930	1285.641	1039.465
131.439	26.893	1284.884	1038.550
132.454	26.925	1284.117	1038.019
133.468	26.948	1283.171	1037.294
134.483	26.818	1283.194	1036.479
135.497	26.824	1281.994	1035.451
136.512	26.851	1281.318	1034.968
137.527	26.933	1280.159	1034.411
138.541	26.808	1278.680	1032.411
139.556	26.752	1277.789	1031.281
140.570	26.922	1276.475	1031.093
141.585	26.814	1276.007	1030.015
142.600	26.966	1274.791	1029.800
143.614	26.888	1273.956	1028.597
144.629	26.822	1273.216	1027.531
145.643	26.743	1272.266	1026.225
146.658	26.787	1271.002	1025.365
147.673	26.893	1270.098	1025.142
148.687	26.852	1269.208	1024.106
149.702	26.725	1268.209	1022.491
150.716	26.758	1267.339	1021.885
151.731	26.761	1266.091	1020.804
152.746	26.747	1265.324	1020.019
153.760	26.842	1263.892	1019.308
154.775	26.841	1262.965	1018.465
155.789	26.895	1261.900	1017.819
156.804	26.923	1260.928	1017.100
157.819	26.927	1260.378	1016.592
158.833	26.821	1259.702	1015.361
159.848	27.011	1258.426	1015.307
160.862	26.985	1258.191	1014.879
161.877	26.834	1257.634	1013.500
162.892	27.040	1256.147	1013.362
163.906	26.888	1256.060	1012.348
164.921	26.848	1255.266	1011.400
165.935	27.032	1254.319	1011.571
166.950	26.977	1253.806	1010.762
167.964	27.027	1253.229	1010.483
168.979	27.012	1252.507	1009.728
169.994	27.039	1251.999	1009.381
171.008	27.010	1251.501	1008.732
172.023	26.972	1250.925	1007.964
173.037	27.096	1249.675	1007.559
174.052	27.005	1249.175	1006.559
175.067	27.044	1248.196	1005.898
176.081	26.986	1247.613	1005.020
177.096	26.928	1246.808	1003.959
178.110	26.905	1245.803	1002.937
179.125	27.093	1244.640	1002.945
180.140	27.111	1243.397	1001.958
181.154	27.095	1242.344	1000.930
182.169	26.974	1241.684	999.642
183.183	27.095	1240.600	999.350
184.198	27.103	1239.358	998.302
185.213	27.099	1239.006	997.911
186.227	27.100	1237.585	996.684
187.242	27.110	1236.717	995.950
188.256	27.128	1236.130	995.486
189.271	27.062	1235.754	994.735
190.286	27.159	1234.635	994.280
191.300	27.017	1234.351	993.182
192.315	26.955	1234.325	992.734
193.329	27.045	1233.682	992.623
194.344	27.033	1233.296	992.157
195.359	27.051	1232.556	991.575
196.373	27.002	1231.852	990.653
197.388	27.113	1231.536	990.918
198.402	26.928	1231.262	989.599
199.417	27.172	1230.670	990.365
200.432	27.080	1229.966	989.213
201.446	27.185	1229.141	989.033
202.461	27.080	1228.740	988.047
203.475	27.087	1228.291	987.639
204.490	27.084	1226.852	986.379
205.504	27.077	1226.139	985.681
206.519	27.223	1224.791	985.301
207.534	27.244	1224.043	984.725
208.548	27.183	1223.286	983.699
209.563	27.145	1222.714	982.945
210.577	27.232	1221.561	982.402
211.592	27.170	1221.055	981.571
212.607	27.243	1220.136	981.142
213.621	27.177	1219.868	980.482
214.636	27.084	1218.860	979.088
215.650	27.307	1217.754	979.311
216.665	27.280	1216.910	978.401
217.680	27.292	1215.877	977.547
218.694	27.287	1215.277	976.950
219.709	27.330	1214.900	976.793
220.723	27.348	1213.977	976.063
221.738	27.283	1213.004	974.847
222.753	27.066	1212.633	973.298
223.767	27.223	1212.116	973.638
224.782	27.344	1211.462	973.672
225.796	27.421	1210.690	973.378
226.811	27.277	1210.618	972.464
227.826	27.394	1209.744	972.303
228.840	27.389	1208.946	971.548
229.855	27.242	1208.543	970.351
230.869	27.474	1207.342	970.541
231.884	27.250	1207.360	969.277
232.899	27.292	1206.406	968.647
233.913	27.333	1205.626	968.153
234.928	27.279	1205.758	967.883
235.942	27.310	1204.800	967.197
236.957	27.428	1203.918	967.027
237.972	27.296	1203.368	965.804
238.986	27.355	1202.785	965.558
240.001	27.429	1202.441	965.592
241.015	27.556	1201.004	965.026
242.030	27.488	1200.450	964.136
243.045	27.517	1199.894	963.755
244.059	27.575	1198.810	963.109
245.074	27.568	1197.960	962.302
246.088	27.687	1197.229	962.257
247.103	27.593	1196.678	961.231
248.117	27.495	1196.112	960.176
249.132	27.595	1195.347	960.003
250.147	27.547	1194.821	959.246
251.161	27.640	1194.041	959.023
252.176	27.588	1193.184	957.974
253.190	27.647	1192.494	957.646
254.205	27.517	1192.100	956.564
255.220	27.599	1191.444	956.384
256.234	27.569	1191.326	956.046
257.249	27.612	1190.511	955.535
258.263	27.722	1189.208	954.975
259.278	27.634	1189.186	954.413
260.293	27.738	1188.340	954.194
261.307	27.683	1188.035	953.581
262.322	27.799	1187.464	953.645
263.336	27.660	1186.688	952.211
264.351	27.614	1186.467	951.707
265.366	27.579	1185.918	951.002
266.380	27.773	1184.817	951.043
267.395	27.628	1184.639	950.060
268.409	27.752	1183.612	949.799
269.424	27.576	1183.273	948.527
270.439	27.672	1182.816	948.576
271.453	27.619	1182.020	947.578
272.468	27.706	1180.908	947.056
273.482	27.554	1180.322	945.714
274.497	27.698	1180.086	946.189
275.512	27.703	1179.646	945.776
276.526	27.713	1179.124	945.326
277.541	27.691	1177.817	944.083
278.555	27.657	1177.537	943.596
279.570	27.631	1177.306	943.191
280.585	27.796	1175.560	942.561
281.599	27.822	1175.185	942.311
282.614	27.782	1174.099	941.152
283.628	27.935	1173.205	941.143
284.643	27.761	1172.761	939.808
285.657	27.759	1171.893	939.016
286.672	27.778	1170.978	938.300
287.687	27.771	1169.943	937.351
288.701	27.788	1169.584	937.065
289.716	27.795	1168.828	936.414
290.730	27.776	1168.441	935.925
291.745	27.923	1167.341	935.711
292.760	27.932	1167.033	935.431
293.774	27.917	1166.506	934.844
294.789	27.919	1166.147	934.488
295.803	27.968	1165.208	933.902
296.818	27.917	1164.628	933.095
297.833	27.979	1163.973	932.806
298.847	28.044	1162.974	932.253
299.862	27.952	1162.489	931.313
300.876	27.958	1162.095	930.942
301.891	27.944	1161.732	930.497
302.906	28.047	1160.682	930.100
303.920	28.079	1159.848	929.510
304.935	28.032	1159.351	928.793
305.949	28.037	1158.731	928.238
306.964	28.132	1158.244	928.248
307.979	28.175	1157.474	927.769
308.993	28.038	1156.849	926.490
310.008	28.057	1156.043	925.859
311.022	28.081	1155.716	925.639
312.037	28.092	1154.913	924.966
313.052	28.192	1153.697	924.419
314.066	28.074	1152.969	923.155
315.081	28.153	1152.326	922.959
316.095	28.119	1152.193	922.597
317.110	28.133	1151.407	921.957
318.125	28.120	1150.680	921.229
319.139	28.101	1150.141	920.620
320.154	28.150	1149.569	920.326
321.168	28.157	1149.275	920.044
322.183	28.190	1148.192	919.261
323.197	28.186	1147.596	918.684
324.212	28.067	1147.170	917.665
325.227	28.228	1146.646	917.973
326.241	28.268	1145.795	917.409
327.256	28.207	1145.332	916.655
328.270	28.187	1144.666	915.936
329.285	28.315	1144.050	916.006
330.300	28.295	1143.015	914.997
331.314	28.309	1141.630	913.875
332.329	28.422	1140.898	913.773
333.343	28.283	1140.675	912.821
334.358	28.364	1139.971	912.577
335.373	28.348	1139.581	912.107
336.387	28.413	1138.514	911.493
337.402	28.422	1137.657	910.771
338.416	28.410	1137.279	910.333
339.431	28.392	1136.541	909.567
340.446	28.383	1136.275	909.233
341.460	28.432	1135.592	908.846
342.475	28.529	1134.570	908.431
343.489	28.441	1133.953	907.421
344.504	28.441	1132.810	906.424
345.519	28.501	1132.037	906.024
346.533	28.505	1131.276	905.354
347.548	28.515	1130.853	904.982
348.562	28.593	1129.828	904.467
349.577	28.557	1129.153	903.669
350.592	28.454	1128.663	902.691
351.606	28.451	1127.877	901.969
352.621	28.572	1127.603	902.263
353.635	28.540	1126.982	901.528
354.650	28.639	1126.002	901.152
355.665	28.619	1125.476	900.553
356.679	28.628	1124.852	900.020
357.694	28.529	1124.379	899.074
358.708	28.616	1123.884	899.028
359.723	28.673	1122.895	898.435
360.738	28.622	1122.237	897.578
361.752	28.680	1121.692	897.348
362.767	28.611	1121.421	896.715
363.781	28.751	1120.486	896.570
364.796	28.737	1119.777	895.855
365.810	28.661	1119.207	894.949
366.825	28.816	1118.944	895.417
367.840	28.863	1118.621	895.305
368.854	28.834	1117.582	894.256
369.869	28.742	1116.889	893.172
370.883	28.805	1116.524	893.109
371.898	28.720	1115.998	892.195
372.913	28.782	1115.619	892.115
373.927	28.683	1114.966	891.032
374.942	28.951	1114.220	891.659
375.956	28.893	1113.849	891.001
376.971	28.827	1113.259	890.128
377.986	28.891	1112.951	890.115
379.000	28.920	1112.312	889.667
380.015	28.865	1112.149	889.189
381.029	28.860	1110.973	888.149
382.044	28.891	1110.361	887.730
383.059	28.873	1110.066	887.328
384.073	28.919	1109.007	886.626
385.088	28.938	1108.017	885.846
386.102	28.977	1107.237	885.330
387.117	29.036	1106.089	884.619
388.132	28.893	1105.771	883.599
389.146	28.999	1104.831	883.279
390.161	28.995	1104.611	883.008
391.175	29.005	1103.994	882.483
392.190	28.936	1103.208	881.444
393.205	29.044	1102.514	881.332
394.219	29.010	1101.713	880.448
395.234	29.002	1101.523	880.182
396.248	29.013	1100.249	879.136
397.263	29.109	1099.422	878.860
398.278	29.177	1098.495	878.363
399.292	29.163	1098.278	878.045
400.307	29.182	1097.444	877.391
401.321	29.025	1096.686	875.961
402.336	29.000	1096.556	875.658
403.350	28.964	1096.300	875.206
404.365	29.102	1095.541	875.180
405.380	29.081	1094.382	874.077
406.394	29.189	1093.737	873.996
407.409	29.220	1092.794	873.311
408.423	29.312	1092.268	873.251
409.438	29.336	1091.699	872.834
410.453	29.210	1091.165	871.733
411.467	29.338	1090.152	871.449
412.482	29.193	1089.989	870.556
413.496	29.237	1089.228	870.080
414.511	29.416	1088.183	870.014
415.526	29.393	1087.837	869.550
416.540	29.274	1087.659	868.769
417.555	29.293	1087.203	868.421
418.569	29.342	1086.488	868.002
419.584	29.436	1086.108	868.064
420.599	29.499	1085.606	867.884
421.613	103.871	1322.750	1461.135
422.628	96.676	1357.290	1461.261
