DTS Sentinel unit serial number:	SN413079Multiplexer serial number:	ORYXHardware model number:	OX4-SRSoftware version number:	ORYX F/W v4.00 Oryx Data Collector v3.7.2.0data status	okinstallation	princeton_trtdifferential loss correction	single-endedforward channel	channel 2reverse channel	N/Adate	2019/09/10time	21:33:11forward acquisition time	60.00reverse acquisition time	0.00gamma	496.2192k internal	0.2330k external	0.2330temperature offset calibration	0.9944default loss term (dB/km)	0.3790temperature slope calibration	1.0000multiplexer offset coefficient	1.0000multiplexer slope coefficient	1.0000fibre end	0.00T internal ref (°C)	31.08T ext. ref 1 (°C)	-0.32T ext. ref 2 (°C)	24.53length (m)	temperature (°C)	Stokes	anti-Stokes-747.200	-136.480	0.317	0.037
-746.185	549.755	-0.142	-0.344
-745.171	800.000	-0.001	-0.003
-744.156	238.522	0.138	0.232
-743.142	21.606	-0.240	0.197
-742.127	104.688	-0.207	0.246
-741.112	799.141	-0.185	-0.513
-740.098	228.709	-0.207	0.340
-739.083	-157.193	-0.138	0.008
-738.069	64.257	-0.288	-0.292
-737.054	-200.000	-0.000	-0.154
-736.039	26.010	-0.188	-0.158
-735.025	-30.506	0.147	-0.084
-734.010	-200.000	-0.040	0.204
-732.996	-36.246	-0.603	-0.327
-731.981	-93.139	0.186	-0.052
-730.966	-64.866	0.215	-0.087
-729.952	-51.962	-0.454	-0.212
-728.937	-200.000	0.015	-0.294
-727.923	-43.211	-0.281	-0.143
-726.908	69.201	-0.209	-0.216
-725.894	-115.982	-0.277	0.052
-724.879	-200.000	-0.004	-0.368
-723.864	-71.573	-0.044	0.017
-722.850	425.314	-0.137	0.297
-721.835	-200.000	-0.026	-0.172
-720.821	-120.476	-0.280	-0.048
-719.806	-200.000	-0.020	-0.325
-718.791	-200.000	-0.027	0.161
-717.777	-87.578	0.327	-0.099
-716.762	23.986	0.086	0.071
-715.748	14.471	-0.190	0.149
-714.733	-159.903	-0.294	-0.016
-713.718	551.429	0.037	-0.088
-712.704	-119.865	0.273	-0.047
-711.689	-141.147	0.082	-0.008
-710.675	273.141	-0.118	-0.210
-709.660	23.353	0.072	0.059
-708.645	260.802	0.045	-0.078
-707.631	-21.484	0.083	0.051
-706.616	131.092	0.046	-0.059
-705.602	-33.683	0.132	0.073
-704.587	-46.451	-0.116	0.057
-703.572	-100.215	0.077	0.019
-702.558	-22.616	0.251	0.153
-701.543	-200.000	-0.041	0.279
-700.529	99.625	-0.185	0.216
-699.514	800.000	0.068	-0.205
-698.499	622.508	0.060	-0.151
-697.485	-200.000	-0.100	-0.529
-696.470	-70.760	0.197	-0.075
-695.456	139.563	-0.101	0.133
-694.441	-200.000	0.026	-0.338
-693.426	-127.466	-0.129	-0.019
-692.412	248.701	-0.103	0.175
-691.397	-103.242	-0.315	-0.075
-690.383	-62.440	-0.157	-0.065
-689.368	-156.106	-0.340	0.022
-688.354	800.000	0.104	-0.358
-687.339	-77.071	-0.305	-0.107
-686.324	-118.839	0.465	0.082
-685.310	229.984	0.118	-0.194
-684.295	-200.000	-0.042	-0.431
-683.281	331.234	-0.013	-0.025
-682.266	388.410	0.084	0.174
-681.251	15.662	0.189	-0.149
-680.237	333.663	-0.112	-0.218
-679.222	800.000	-0.102	-0.354
-678.208	-109.926	-0.413	0.087
-677.193	66.322	-0.189	0.193
-676.178	123.604	-0.203	-0.255
-675.164	-194.093	-0.210	-0.002
-674.149	-87.660	0.174	-0.053
-673.135	190.297	0.283	0.427
-672.120	302.397	-0.142	-0.264
-671.105	107.645	-0.217	-0.260
-670.091	43.493	0.197	0.180
-669.076	-110.273	-0.466	-0.097
-668.062	-64.801	-0.235	-0.096
-667.047	800.000	-0.097	0.409
-666.032	-88.665	-0.150	-0.045
-665.018	10.743	0.049	-0.037
-664.003	-200.000	-0.024	-0.227
-662.989	59.924	0.045	-0.045
-661.974	-128.445	-0.118	0.017
-660.959	-15.867	-0.164	-0.105
-659.945	3.745	0.219	-0.160
-658.930	-200.000	-0.002	0.154
-657.916	42.215	-0.072	0.065
-656.901	99.529	-0.276	-0.321
-655.886	-200.000	0.033	-0.205
-654.872	-193.562	0.435	0.004
-653.857	-191.297	-0.241	0.002
-652.843	-200.000	0.063	0.388
-651.828	31.141	-0.147	0.126
-650.814	-76.624	-0.336	0.118
-649.799	131.159	-0.099	-0.128
-648.784	42.439	-0.226	-0.207
-647.770	-200.000	-0.034	-0.177
-646.755	80.467	-0.088	0.095
-645.741	-110.870	0.126	0.026
-644.726	-71.438	-0.183	0.069
-643.711	-82.549	0.286	-0.093
-642.697	-38.138	0.146	-0.078
-641.682	800.000	-0.044	0.130
-640.668	405.184	-0.060	0.126
-639.653	-200.000	0.015	-0.085
-638.638	140.656	0.109	0.144
-637.624	206.598	0.120	-0.187
-636.609	94.146	0.253	0.288
-635.595	305.192	-0.101	0.187
-634.580	-94.038	0.062	0.017
-633.565	-66.735	0.178	-0.070
-632.551	800.000	0.066	-0.245
-631.536	-60.846	-0.352	-0.149
-630.522	236.042	-0.131	0.217
-629.507	28.916	0.144	-0.123
-628.492	89.896	-0.119	-0.133
-627.478	-158.839	-0.154	-0.009
-626.463	431.698	0.063	-0.137
-625.449	212.477	-0.090	-0.142
-624.434	387.852	-0.091	-0.188
-623.419	86.736	-0.164	-0.181
-622.405	-200.000	0.002	-0.146
-621.390	640.896	0.068	-0.172
-620.376	-101.887	-0.178	0.043
-619.361	-200.000	-0.011	0.161
-618.346	-48.882	-0.178	-0.086
-617.332	500.557	0.028	-0.064
-616.317	-34.057	-0.013	0.007
-615.303	-115.888	0.400	-0.075
-614.288	-200.000	0.000	-0.241
-613.273	630.114	-0.117	-0.297
-612.259	-92.996	0.268	-0.075
-611.244	203.188	0.128	-0.198
-610.230	-132.520	-0.198	0.026
-609.215	87.492	0.348	0.386
-608.201	0.751	0.167	-0.120
-607.186	-110.427	0.090	-0.019
-606.171	-8.797	0.226	0.152
-605.157	-128.073	-0.177	0.025
-604.142	-164.182	-0.102	-0.005
-603.128	-32.134	-0.119	-0.067
-602.113	-10.226	0.115	0.077
-601.098	-129.053	-0.155	0.022
-600.084	133.210	-0.131	0.169
-599.069	74.170	-0.198	0.208
-598.055	758.668	-0.168	-0.457
-597.040	-14.461	0.095	-0.061
-596.025	284.185	-0.078	0.141
-595.011	800.000	0.017	-0.069
-593.996	334.810	-0.057	-0.111
-592.982	6.307	0.204	-0.151
-591.967	800.000	-0.120	-0.504
-590.952	-94.332	-0.252	0.069
-589.938	-140.222	-0.212	0.022
-588.923	-114.914	0.196	0.037
-587.909	116.681	-0.089	-0.110
-586.894	277.309	0.083	-0.147
-585.879	-43.928	-0.067	0.034
-584.865	-91.615	0.218	-0.062
-583.850	-11.591	-0.208	-0.137
-582.836	329.700	-0.061	0.118
-581.821	-52.872	0.242	0.111
-580.806	-83.774	0.165	-0.053
-579.792	-200.000	0.032	0.144
-578.777	-100.725	0.187	-0.046
-577.763	41.877	0.289	-0.262
-576.748	-1.995	-0.163	0.115
-575.733	-190.736	0.205	-0.002
-574.719	-200.000	0.029	-0.203
-573.704	638.293	-0.088	0.223
-572.690	80.470	-0.102	0.110
-571.675	-200.000	-0.006	-0.057
-570.661	222.140	0.039	-0.063
-569.646	-49.368	0.184	0.088
-568.631	-4.781	0.013	-0.009
-567.617	-66.004	0.454	0.181
-566.602	232.463	-0.092	-0.151
-565.588	800.000	0.026	0.098
-564.573	77.271	0.071	0.075
-563.558	-200.000	0.006	-0.160
-562.544	-18.812	-0.206	0.128
-561.529	673.423	-0.047	-0.122
-560.515	759.099	0.032	-0.087
-559.500	-129.102	0.311	0.043
-558.485	-72.355	0.289	-0.107
-557.471	58.133	0.165	0.162
-556.456	24.427	0.309	0.256
-555.442	-74.194	-0.157	-0.057
-554.427	-7.495	0.239	-0.162
-553.412	800.000	-0.061	-0.203
-552.398	800.000	-0.037	0.159
-551.383	-131.785	-0.123	-0.016
-550.369	-145.959	-0.262	-0.023
-549.354	-164.037	0.183	0.008
-548.339	115.069	0.075	-0.091
-547.325	-200.000	-0.097	-0.627
-546.310	591.046	0.217	-0.534
-545.296	-200.000	-0.024	-0.251
-544.281	793.239	0.025	0.068
-543.266	-80.096	0.143	0.048
-542.252	65.723	-0.293	-0.296
-541.237	800.000	-0.056	0.174
-540.223	-73.040	-0.338	0.124
-539.208	61.083	0.214	0.212
-538.193	-200.000	-0.037	0.234
-537.179	-86.356	-0.306	0.094
-536.164	94.124	0.011	0.013
-535.150	800.000	-0.051	0.146
-534.135	248.197	-0.085	0.144
-533.121	56.279	0.219	0.213
-532.106	381.419	-0.189	0.387
-531.091	-19.156	-0.115	0.072
-530.077	40.055	-0.136	-0.122
-529.062	7.360	0.063	0.047
-528.048	-200.000	0.038	0.266
-527.033	-85.137	0.445	0.139
-526.018	-161.706	0.153	0.008
-525.004	60.593	0.143	-0.141
-523.989	-42.562	0.068	0.034
-522.975	800.000	-0.060	-0.195
-521.960	-187.400	-0.092	-0.001
-520.945	332.450	-0.038	-0.073
-519.931	800.000	-0.054	-0.211
-518.916	324.574	-0.138	0.263
-517.902	-15.582	0.238	-0.151
-516.887	12.310	-0.148	0.114
-515.872	-200.000	-0.002	-0.112
-514.858	3.924	0.172	0.126
-513.843	-200.000	-0.016	-0.132
-512.829	4.152	-0.253	-0.185
-511.814	24.726	0.114	-0.094
-510.799	117.502	0.151	-0.185
-509.785	-200.000	-0.043	0.191
-508.770	800.000	0.066	0.275
-507.756	147.686	-0.155	-0.208
-506.741	-106.940	-0.218	-0.048
-505.726	-61.516	-0.155	-0.065
-504.712	-25.315	0.050	0.030
-503.697	411.941	-0.052	-0.110
-502.683	-47.922	-0.357	-0.172
-501.668	-200.000	0.001	0.003
-500.653	-200.000	-0.026	0.135
-499.639	-169.685	-0.055	-0.002
-498.624	800.000	0.090	-0.277
-497.610	8.723	-0.215	-0.161
-496.595	-147.058	0.232	-0.020
-495.581	294.809	0.078	-0.142
-494.566	103.179	0.045	-0.053
-493.551	800.000	0.080	0.283
-492.537	648.636	0.154	0.392
-491.522	-200.000	-0.005	0.259
-490.508	-200.000	0.054	-0.319
-489.493	-5.594	0.262	-0.179
-488.478	152.120	-0.060	0.082
-487.464	-120.974	0.384	0.064
-486.449	350.561	0.062	-0.121
-485.435	-118.848	-0.149	-0.026
-484.420	-73.975	-0.226	0.082
-483.405	-200.000	-0.058	-0.334
-482.391	-200.000	-0.043	0.380
-481.376	800.000	0.083	0.232
-480.362	126.997	-0.005	-0.006
-479.347	144.520	0.210	0.279
-478.332	-91.840	-0.206	0.058
-477.318	479.324	-0.081	0.183
-476.303	139.863	-0.035	-0.046
-475.289	-200.000	-0.052	0.242
-474.274	68.720	0.194	-0.198
-473.259	34.334	-0.018	0.016
-472.245	-200.000	-0.043	-0.280
-471.230	-123.712	0.316	-0.050
-470.216	96.063	-0.169	0.192
-469.201	-5.745	-0.114	0.078
-468.186	-200.000	-0.059	-0.396
-467.172	84.964	-0.086	0.094
-466.157	0.351	-0.275	-0.195
-465.143	-153.208	-0.110	0.008
-464.128	68.469	-0.174	0.178
-463.113	-124.547	0.435	0.067
-462.099	344.904	0.023	-0.045
-461.084	-200.000	0.052	-0.344
-460.070	408.769	0.104	0.220
-459.055	50.310	-0.381	-0.359
-458.040	-200.000	0.005	0.051
-457.026	36.050	-0.208	-0.182
-456.011	-200.000	-0.036	0.293
-454.997	-85.337	-0.197	-0.061
-453.982	-121.717	-0.446	-0.074
-452.968	-200.000	-0.025	-0.373
-451.953	40.873	0.066	-0.060
-450.938	15.459	0.274	0.214
-449.924	-137.423	0.127	-0.014
-448.909	-200.000	0.011	-0.064
-447.895	162.630	0.222	0.311
-446.880	60.184	-0.131	-0.129
-445.865	292.826	0.027	-0.049
-444.851	-30.611	-0.024	0.014
-443.836	-137.523	-0.213	0.024
-442.822	-92.684	0.260	0.072
-441.807	-87.468	-0.307	0.093
-440.792	-132.219	0.074	0.010
-439.778	-59.598	-0.061	-0.026
-438.763	311.931	0.037	0.070
-437.749	0.901	0.151	0.108
-436.734	59.872	0.145	-0.142
-435.719	139.160	0.249	-0.326
-434.705	173.360	0.209	0.300
-433.690	38.248	0.141	-0.125
-432.676	7.348	0.200	-0.148
-431.661	59.642	0.134	0.132
-430.646	-65.471	-0.430	-0.172
-429.632	-200.000	0.021	-0.287
-428.617	-200.000	-0.001	0.193
-427.603	32.128	0.211	-0.181
-426.588	-78.204	-0.091	-0.031
-425.573	23.447	0.156	-0.127
-424.559	-94.483	-0.083	-0.022
-423.544	5.753	-0.146	0.107
-422.530	346.445	-0.202	0.395
-421.515	-23.934	-0.157	-0.093
-420.500	-78.101	0.097	0.033
-419.486	351.772	-0.153	0.301
-418.471	65.818	0.176	0.177
-417.457	-33.287	0.105	-0.058
-416.442	-200.000	0.077	0.407
-415.428	63.403	-0.067	0.067
-414.413	184.143	-0.194	0.286
-413.398	-60.973	0.207	0.087
-412.384	29.489	-0.188	-0.159
-411.369	75.204	-0.330	0.346
-410.355	800.000	0.145	0.508
-409.340	-200.000	0.021	0.311
-408.325	-134.357	-0.189	0.023
-407.311	353.643	0.179	-0.354
-406.296	-200.000	0.056	-0.307
-405.282	-200.000	-0.022	-0.131
-404.267	-128.611	0.260	-0.037
-403.252	-34.699	-0.244	-0.133
-402.238	-102.407	0.103	-0.025
-401.223	-200.000	0.011	-0.168
-400.209	73.791	-0.129	-0.134
-399.194	19.229	-0.127	0.101
-398.179	14.294	0.075	-0.058
-397.165	-200.000	-0.048	0.219
-396.150	-101.713	0.104	0.025
-395.136	-200.000	0.050	-0.262
-394.121	-137.959	0.199	0.022
-393.106	-200.000	-0.034	0.268
-392.092	-200.000	-0.039	0.474
-391.077	-47.430	0.459	0.222
-390.063	10.261	-0.338	0.255
-389.048	-2.817	-0.265	-0.184
-388.033	-48.363	-0.326	-0.156
-387.019	-15.190	-0.289	0.184
-386.004	-1.196	-0.285	0.200
-384.990	-37.993	-0.163	0.086
-383.975	-200.000	0.008	0.137
-382.960	117.514	-0.232	0.283
-381.946	6.487	-0.172	-0.127
-380.931	-200.000	-0.018	0.325
-379.917	-169.741	0.284	0.010
-378.902	-51.129	0.145	-0.068
-377.888	800.000	-0.033	-0.119
-376.873	70.937	-0.093	0.096
-375.858	800.000	-0.062	0.211
-374.844	-125.430	0.251	0.038
-373.829	365.098	-0.102	0.203
-372.815	81.034	-0.060	0.064
-371.800	-110.673	-0.142	-0.029
-370.785	800.000	0.047	-0.139
-369.771	-58.316	0.040	0.017
-368.756	-200.000	0.059	-0.460
-367.742	-200.000	0.042	-0.231
-366.727	800.000	0.055	-0.152
-365.712	123.766	0.059	-0.073
-364.698	-150.288	-0.432	0.033
-363.683	800.000	-0.068	0.188
-362.669	62.981	0.088	0.087
-361.654	-200.000	0.017	-0.074
-360.639	-92.013	0.179	-0.050
-359.625	395.067	0.138	-0.284
-358.610	-200.000	0.025	-0.111
-357.596	25.367	0.036	-0.029
-356.581	800.000	0.077	-0.260
-355.566	-200.000	0.010	-0.180
-354.552	20.017	0.167	0.133
-353.537	-133.847	0.086	-0.011
-352.523	70.971	-0.248	0.255
-351.508	800.000	-0.072	-0.210
-350.493	-200.000	0.015	0.213
-349.479	88.309	-0.193	-0.212
-348.464	-200.000	-0.001	-0.008
-347.450	-200.000	-0.014	0.281
-346.435	-200.000	-0.012	-0.056
-345.420	-17.619	-0.104	-0.065
-344.406	-131.178	-0.237	0.031
-343.391	135.526	-0.170	-0.220
-342.377	-108.307	0.081	-0.017
-341.362	458.362	-0.049	-0.108
-340.348	59.736	0.109	0.106
-339.333	198.026	-0.027	-0.041
-338.318	-83.375	-0.097	-0.031
-337.304	121.967	0.275	-0.341
-336.289	28.288	0.070	-0.058
-335.275	244.703	-0.192	0.320
-334.260	180.447	0.127	-0.184
-333.245	-84.931	0.145	-0.045
-332.231	-23.394	0.598	-0.356
-331.216	29.437	0.230	-0.194
-330.202	-200.000	-0.071	-0.377
-329.187	800.000	-0.095	0.397
-328.172	168.895	0.075	0.106
-327.158	-31.258	0.137	0.076
-326.143	-94.513	0.436	-0.118
-325.129	-178.633	0.265	0.006
-324.114	0.210	0.125	-0.088
-323.099	2.668	-0.192	0.138
-322.085	-12.850	-0.204	0.131
-321.070	-20.129	0.323	0.197
-320.056	-3.587	-0.187	-0.129
-319.041	-8.024	-0.414	-0.276
-318.026	-14.793	0.260	0.165
-317.012	501.529	-0.088	0.202
-315.997	-81.472	0.116	0.038
-314.983	197.433	-0.275	0.416
-313.968	-85.096	0.136	0.042
-312.953	240.431	0.012	-0.020
-311.939	800.000	0.077	0.292
-310.924	-99.136	-0.217	-0.054
-309.910	625.417	0.077	0.191
-308.895	800.000	-0.083	0.331
-307.880	-200.000	0.008	-0.117
-306.866	-200.000	-0.002	0.128
-305.851	346.899	-0.159	-0.309
-304.837	-85.127	-0.015	-0.005
-303.822	-169.056	-0.142	0.005
-302.807	-49.432	0.034	-0.016
-301.793	18.705	-0.280	0.222
-300.778	-86.760	0.376	0.114
-299.764	399.424	-0.014	0.029
-298.749	76.961	0.085	0.089
-297.735	91.552	0.036	0.040
-296.720	-166.520	-0.329	0.014
-295.705	-120.708	0.307	-0.051
-294.691	479.907	0.057	-0.128
-293.676	-137.614	0.225	-0.025
-292.662	-25.558	0.178	-0.104
-291.647	354.046	-0.017	0.033
-290.632	-131.846	0.090	-0.012
-289.618	170.456	-0.231	-0.327
-288.603	-116.506	-0.173	-0.032
-287.589	800.000	0.067	-0.288
-286.574	235.176	-0.142	-0.232
-285.559	-12.671	-0.028	-0.018
-284.545	572.919	0.063	0.153
-283.530	108.382	-0.110	-0.129
-282.516	-200.000	-0.004	0.263
-281.501	28.411	-0.144	0.120
-280.486	-200.000	0.010	-0.129
-279.472	-89.803	-0.177	-0.051
-278.457	-98.384	0.258	-0.065
-277.443	-45.846	-0.302	0.147
-276.428	-168.804	-0.082	0.003
-275.413	-81.213	-0.193	0.063
-274.399	195.800	-0.046	0.069
-273.384	-200.000	-0.031	-0.323
-272.370	47.796	0.259	0.239
-271.355	-184.973	0.212	0.003
-270.340	180.345	-0.059	0.086
-269.326	-65.782	-0.529	0.209
-268.311	800.000	-0.049	0.169
-267.297	-120.008	0.283	-0.048
-266.282	13.252	-0.244	-0.187
-265.267	-90.196	0.236	0.068
-264.253	171.047	0.121	-0.172
-263.238	-39.714	-0.106	-0.055
-262.224	7.154	0.129	-0.095
-261.209	-172.769	0.018	-0.001
-260.195	13.155	0.126	0.096
-259.180	800.000	-0.025	-0.068
-258.165	264.492	-0.006	-0.010
-257.151	-38.338	-0.057	-0.030
-256.136	-16.089	-0.106	0.067
-255.122	-97.229	-0.188	0.048
-254.107	800.000	-0.027	0.094
-253.092	-200.000	0.044	0.350
-252.078	-200.000	0.018	-0.104
-251.063	31.891	-0.039	-0.033
-250.049	148.244	0.161	-0.215
-249.034	193.974	-0.130	-0.194
-248.019	26.052	-0.309	0.255
-247.005	0.557	-0.266	-0.188
-245.990	-49.891	-0.144	-0.067
-244.976	347.773	0.038	-0.074
-243.961	-106.950	0.386	0.084
-242.946	-200.000	0.012	0.195
-241.932	-200.000	-0.011	-0.281
-240.917	97.239	0.163	0.184
-239.903	-76.499	-0.225	-0.078
-238.888	-20.912	-0.138	-0.084
-237.873	-116.171	0.255	0.047
-236.859	800.000	-0.030	-0.104
-235.844	-200.000	0.001	0.252
-234.830	800.000	0.017	0.071
-233.815	-102.906	0.301	-0.071
-232.800	-129.203	-0.072	-0.010
-231.786	55.298	-0.013	-0.013
-230.771	650.493	-0.045	0.115
-229.757	247.392	0.033	-0.055
-228.742	381.401	0.015	0.030
-227.727	277.245	-0.114	-0.200
-226.713	329.701	-0.058	-0.109
-225.698	-62.215	-0.073	-0.030
-224.684	-200.000	-0.002	0.042
-223.669	-50.906	-0.161	0.075
-222.655	130.585	0.142	-0.180
-221.640	-200.000	0.003	0.059
-220.625	3.772	-0.144	0.104
-219.611	10.245	0.097	0.073
-218.596	-200.000	-0.022	-0.218
-217.582	22.175	-0.079	-0.064
-216.567	-97.221	0.207	-0.053
-215.552	526.085	0.214	0.497
-214.538	-200.000	-0.026	0.339
-213.523	800.000	0.055	-0.150
-212.509	-200.000	-0.011	-0.207
-211.494	-15.321	0.132	0.083
-210.479	-74.137	-0.092	0.033
-209.465	800.000	-0.049	0.146
-208.450	201.123	0.232	0.351
-207.436	800.000	0.032	0.092
-206.421	-69.197	-0.064	0.024
-205.406	15.923	-0.304	0.236
-204.392	-200.000	0.033	-0.166
-203.377	-94.004	-0.131	0.036
-202.363	-176.947	0.097	0.002
-201.348	-67.261	0.146	0.057
-200.333	800.000	0.090	0.367
-199.319	34.899	-0.086	-0.074
-198.304	-200.000	-0.004	-0.089
-197.290	76.035	0.209	0.218
-196.275	-102.498	-0.218	-0.051
-195.260	109.674	0.073	-0.086
-194.246	-70.464	0.206	-0.077
-193.231	756.774	-0.179	-0.477
-192.217	-102.953	-0.052	-0.012
-191.202	-200.000	0.014	0.238
-190.187	255.658	0.062	0.104
-189.173	477.450	0.010	-0.023
-188.158	-200.000	0.041	0.555
-187.144	-56.025	0.539	0.237
-186.129	236.328	-0.177	0.289
-185.114	317.657	-0.023	-0.044
-184.100	-154.811	0.237	0.015
-183.085	-200.000	0.015	-0.250
-182.071	-200.000	-0.014	-0.169
-181.056	4.491	-0.257	0.186
-180.042	-115.872	0.187	-0.034
-179.027	800.000	-0.015	-0.048
-178.012	-200.000	0.034	0.186
-176.998	-186.853	-0.382	-0.005
-175.983	73.841	0.132	0.136
-174.969	-159.836	-0.205	0.011
-173.954	-22.573	0.201	-0.120
-172.939	69.789	-0.157	-0.159
-171.925	-32.741	0.117	-0.064
-170.910	-39.824	-0.082	0.042
-169.896	422.556	-0.073	0.154
-168.881	261.611	-0.233	0.398
-167.866	-200.000	0.051	0.439
-166.852	800.000	0.085	-0.245
-165.837	-186.232	-0.194	-0.003
-164.823	69.677	-0.238	-0.242
-163.808	-72.264	-0.019	0.007
-162.793	800.000	-0.048	-0.151
-161.779	-35.758	-0.125	-0.066
-160.764	-200.000	0.034	-0.274
-159.750	0.143	0.265	-0.186
-158.735	-75.590	0.373	0.131
-157.720	-200.000	0.035	0.297
-156.706	-76.436	0.255	0.088
-155.691	-131.888	-0.192	0.025
-154.677	-21.619	-0.292	-0.175
-153.662	518.508	0.053	-0.123
-152.647	149.324	0.112	-0.149
-151.633	800.000	0.067	-0.244
-150.618	74.048	-0.192	-0.198
-149.604	-5.936	-0.272	-0.183
-148.589	516.295	-0.050	-0.115
-147.574	190.497	0.194	-0.287
-146.560	-15.358	0.215	-0.135
-145.545	117.393	-0.309	0.374
-144.531	426.499	0.078	0.166
-143.516	198.957	-0.169	-0.255
-142.502	-199.029	-0.371	-0.002
-141.487	485.614	-0.093	-0.209
-140.472	76.901	-0.202	-0.211
-139.458	1.255	0.320	0.226
-138.443	196.333	-0.024	0.036
-137.429	800.000	0.065	-0.254
-136.414	412.883	-0.129	-0.270
-135.399	-123.589	0.128	0.020
-134.385	800.000	0.065	-0.190
-133.370	-200.000	0.076	-0.431
-132.356	-200.000	-0.043	0.196
-131.341	800.000	0.019	0.052
-130.326	-131.082	-0.316	-0.041
-129.312	49.289	0.029	-0.027
-128.297	-41.858	-0.298	0.150
-127.283	-81.590	0.034	-0.011
-126.268	-128.544	-0.024	-0.003
-125.253	-98.867	-0.261	0.065
-124.239	-72.440	0.295	-0.107
-123.224	480.496	-0.123	-0.275
-122.210	209.341	0.187	-0.288
-121.195	101.823	0.142	-0.163
-120.180	256.443	0.096	-0.161
-119.166	111.250	0.228	-0.269
-118.151	-200.000	0.047	-0.221
-117.137	800.000	0.016	0.052
-116.122	3.491	-0.260	-0.186
-115.107	45.194	-0.316	-0.286
-114.093	-127.230	-0.309	0.044
-113.078	-176.413	-0.156	-0.004
-112.064	-200.000	-0.054	0.298
-111.049	-69.219	-0.212	0.080
-110.034	712.720	0.074	-0.193
-109.020	800.000	0.068	-0.216
-108.005	72.920	0.161	0.165
-106.991	-96.706	-0.296	0.076
-105.976	-95.274	-0.171	0.045
-104.962	-152.380	0.147	0.010
-103.947	-56.305	-0.133	-0.058
-102.932	-200.000	-0.021	-0.200
-101.918	138.898	-0.204	0.263
-100.903	250.852	0.123	-0.205
-99.889	-148.169	-0.258	-0.021
-98.874	800.000	-0.091	0.290
-97.859	-98.256	-0.244	0.061
-96.845	669.829	-0.090	-0.229
-95.830	573.215	-0.217	-0.519
-94.816	108.969	-0.053	0.062
-93.801	351.350	-0.047	0.092
-92.786	120.763	-0.181	-0.221
-91.772	-162.798	0.236	-0.011
-90.757	640.089	0.073	-0.183
-89.743	218.642	-0.076	-0.119
-88.728	800.000	0.044	-0.163
-87.713	-200.000	-0.024	-0.237
-86.699	458.215	0.104	-0.226
-85.684	-67.718	0.072	-0.027
-84.670	25.262	0.077	-0.063
-83.655	61.013	-0.293	0.285
-82.640	-200.000	-0.020	-0.138
-81.626	-96.865	-0.167	-0.043
-80.611	-200.000	0.011	0.291
-79.597	-27.490	0.157	0.090
-78.582	-48.565	-0.289	-0.137
-77.567	-152.172	0.275	0.020
-76.553	227.623	-0.072	0.115
-75.538	1.849	-0.216	0.153
-74.524	-124.946	-0.179	-0.027
-73.509	-118.931	-0.089	-0.015
-72.494	268.208	0.134	0.230
-71.480	-29.408	-0.224	-0.126
-70.465	-68.331	-0.269	-0.102
-69.451	-200.000	-0.022	0.155
-68.436	113.187	-0.007	0.008
-67.422	-152.472	-0.486	0.034
-66.407	480.914	0.121	-0.270
-65.392	-162.912	0.217	0.010
-64.378	-81.377	0.321	0.104
-63.363	211.647	0.030	-0.047
-62.349	172.711	-0.132	-0.186
-61.334	3.743	-1.393	-0.997
-60.319	235.313	0.488	0.790
-59.305	800.000	-0.404	-1.276
-58.290	114.506	0.905	1.081
-57.276	800.000	0.460	1.396
-56.261	-200.000	99.167	617.567
-55.246	580.210	1422.990	3416.376
-54.232	188.229	2624.261	3844.162
-53.217	110.628	2275.628	2681.829
-52.203	40.637	1892.371	1671.350
-51.188	34.402	1680.093	1436.988
-50.173	31.759	1636.632	1380.322
-49.159	49.783	1685.396	1556.543
-48.144	51.057	1701.524	1580.897
-47.130	33.937	1661.349	1417.267
-46.115	31.174	1646.758	1384.307
-45.100	31.033	1642.128	1379.311
-44.086	31.138	1638.605	1377.072
-43.071	30.943	1636.785	1374.055
-42.057	31.030	1634.573	1372.782
-41.042	31.019	1632.534	1370.935
-40.027	30.886	1630.737	1368.393
-39.013	30.893	1628.728	1366.708
-37.998	30.837	1627.470	1365.186
-36.984	30.987	1625.852	1364.872
-35.969	31.026	1623.929	1363.492
-34.954	31.104	1622.036	1362.411
-33.940	31.028	1621.144	1361.060
-32.925	31.135	1619.151	1360.107
-31.911	31.085	1617.333	1358.165
-30.896	31.152	1615.291	1356.884
-29.881	31.044	1614.200	1355.130
-28.867	30.983	1612.668	1353.348
-27.852	31.133	1610.476	1352.543
-26.838	31.106	1609.130	1351.158
-25.823	31.078	1607.842	1349.821
-24.809	31.134	1606.395	1348.960
-23.794	31.142	1605.281	1348.025
-22.779	31.178	1603.615	1346.832
-21.765	31.104	1601.940	1344.843
-20.750	31.109	1600.274	1343.426
-19.736	31.095	1599.002	1342.206
-18.721	31.076	1597.518	1340.770
-17.706	31.109	1595.922	1339.614
-16.692	31.021	1595.042	1338.189
-15.677	31.085	1593.236	1337.076
-14.663	31.173	1591.825	1336.471
-13.648	31.185	1590.618	1335.489
-12.633	31.025	1589.306	1333.193
-11.619	31.050	1587.338	1331.667
-10.604	31.128	1585.717	1330.811
-9.590	31.107	1584.582	1329.657
-8.575	31.194	1583.412	1329.242
-7.560	31.126	1582.354	1327.814
-6.546	31.130	1581.380	1326.977
-5.531	31.135	1580.207	1325.971
-4.517	31.187	1578.548	1324.900
-3.502	31.109	1578.176	1323.976
-2.487	31.229	1575.731	1322.723
-1.473	30.898	1564.356	1310.795
-0.458	27.739	1544.765	1272.344
0.556	21.822	1544.714	1239.708
1.571	19.440	1568.436	1241.517
2.586	19.143	1581.680	1249.728
3.600	17.359	1530.061	1196.301
4.615	9.247	1421.221	1057.901
5.629	1.323	1356.367	959.604
6.644	-0.186	1348.215	944.268
7.659	-0.350	1346.954	942.268
8.673	-0.399	1345.821	941.088
9.688	-0.355	1344.115	940.083
10.702	-0.645	1340.913	935.952
11.717	2.650	1347.016	960.799
12.731	11.656	1364.539	1030.192
13.746	18.741	1376.114	1083.715
14.761	20.094	1377.369	1093.146
15.775	20.299	1377.176	1094.190
16.790	20.331	1376.772	1093.971
17.804	20.352	1375.990	1093.389
18.819	20.696	1375.377	1094.965
19.834	20.688	1374.947	1094.478
20.848	20.681	1374.539	1094.013
21.863	20.725	1373.488	1093.353
22.877	20.647	1372.760	1092.192
23.892	20.649	1371.684	1091.246
24.907	20.731	1370.823	1090.979
25.921	20.724	1369.868	1090.082
26.936	20.745	1368.835	1089.294
27.950	20.641	1367.552	1087.526
28.965	20.710	1366.792	1087.259
29.980	20.739	1365.416	1086.249
30.994	20.701	1363.969	1084.763
32.009	20.698	1363.215	1084.047
33.023	20.714	1362.205	1083.251
34.038	20.686	1360.715	1081.796
35.053	20.731	1359.596	1081.089
36.067	20.743	1359.041	1080.627
37.082	20.650	1358.056	1079.173
38.096	20.725	1356.782	1078.527
39.111	20.729	1356.062	1077.881
40.126	20.696	1355.333	1077.003
41.140	20.717	1354.740	1076.571
42.155	20.761	1354.442	1076.507
43.169	20.659	1354.658	1075.955
44.184	20.673	1354.540	1075.854
45.199	20.739	1353.399	1075.258
46.213	20.826	1352.827	1075.245
47.228	20.765	1352.297	1074.355
48.242	20.696	1350.954	1072.767
49.257	20.741	1349.475	1071.770
50.271	20.693	1348.057	1070.256
51.286	20.780	1346.630	1069.566
52.301	20.620	1345.987	1067.979
53.315	20.671	1345.047	1067.448
54.330	20.660	1344.409	1066.779
55.344	20.670	1342.847	1065.509
56.359	20.658	1342.151	1064.791
57.374	20.778	1340.796	1064.350
58.388	20.651	1340.608	1063.335
59.403	20.645	1340.256	1062.919
60.417	20.781	1339.001	1062.666
61.432	20.696	1338.781	1061.877
62.447	20.686	1337.828	1060.965
63.461	20.681	1336.651	1059.910
64.476	20.657	1335.879	1059.055
65.490	20.750	1334.129	1058.141
66.505	20.710	1332.737	1056.698
67.520	20.706	1331.397	1055.516
68.534	20.720	1330.397	1054.719
69.549	20.745	1329.400	1053.988
70.563	20.781	1328.454	1053.357
71.578	20.718	1327.816	1052.381
72.593	20.720	1326.770	1051.469
73.607	20.749	1326.211	1051.108
74.622	20.799	1325.293	1050.591
75.636	20.695	1324.875	1049.540
76.651	20.741	1323.570	1048.691
77.666	20.667	1323.566	1048.145
78.680	20.625	1323.251	1047.550
79.695	20.749	1321.979	1047.201
80.709	20.736	1321.011	1046.259
81.724	20.808	1320.047	1045.835
82.739	20.669	1319.646	1044.589
83.753	20.649	1318.743	1043.667
84.768	20.757	1317.450	1043.196
85.782	20.711	1316.343	1041.952
86.797	20.680	1315.274	1040.827
87.812	20.768	1313.626	1039.960
88.826	20.849	1312.317	1039.315
89.841	20.762	1311.830	1038.317
90.855	20.736	1310.615	1037.107
91.870	20.750	1309.988	1036.601
92.884	20.805	1309.253	1036.260
93.899	20.763	1308.356	1035.209
94.914	20.833	1307.546	1034.889
95.928	20.763	1306.818	1033.804
96.943	20.894	1305.531	1033.471
97.957	20.773	1305.156	1032.368
98.972	20.772	1304.089	1031.429
99.987	20.838	1303.485	1031.247
101.001	20.817	1301.999	1029.859
102.016	20.811	1300.705	1028.705
103.030	20.752	1300.162	1027.838
104.045	20.840	1299.402	1027.666
105.060	20.908	1298.384	1027.168
106.074	20.768	1297.348	1025.433
107.089	20.818	1296.414	1024.899
108.103	20.815	1294.815	1023.528
109.118	20.844	1293.980	1022.948
110.133	20.852	1292.494	1021.728
111.147	20.885	1291.614	1021.137
112.162	20.908	1290.380	1020.207
113.176	20.793	1289.476	1018.726
114.191	20.778	1288.924	1018.117
115.206	20.849	1287.571	1017.369
116.220	20.838	1286.654	1016.491
117.235	20.868	1285.577	1015.728
118.249	20.891	1284.421	1014.854
119.264	20.886	1283.306	1013.857
120.279	20.883	1282.788	1013.342
121.293	20.883	1281.987	1012.618
122.308	20.921	1280.623	1011.672
123.322	20.985	1279.683	1011.209
124.337	20.949	1278.799	1010.213
125.352	20.960	1278.121	1009.652
126.366	20.957	1276.974	1008.641
127.381	20.922	1276.350	1007.855
128.395	20.968	1275.269	1007.177
129.410	21.043	1273.983	1006.509
130.424	21.061	1273.365	1006.035
131.439	20.904	1272.905	1004.677
132.454	20.888	1271.756	1003.588
133.468	20.896	1271.207	1003.111
134.483	20.881	1270.756	1002.581
135.497	20.914	1269.715	1001.860
136.512	20.982	1268.369	1001.098
137.527	21.029	1266.896	1000.118
138.541	20.842	1265.930	998.194
139.556	20.884	1264.403	997.143
140.570	20.945	1263.469	996.668
141.585	20.911	1262.510	995.631
142.600	20.914	1261.347	994.641
143.614	20.855	1260.608	993.635
144.629	20.857	1259.865	992.972
145.643	20.917	1258.149	991.874
146.658	20.758	1257.557	990.416
147.673	20.852	1256.666	990.158
148.687	20.864	1254.950	988.786
149.702	20.918	1253.845	988.136
150.716	20.842	1253.144	987.066
151.731	20.920	1251.846	986.397
152.746	20.932	1251.273	985.927
153.760	20.867	1250.267	984.680
154.775	20.911	1248.913	983.771
155.789	21.010	1248.141	983.638
156.804	20.972	1247.244	982.626
157.819	20.931	1246.266	981.538
158.833	20.976	1245.045	980.744
159.848	21.060	1244.710	980.868
160.862	20.983	1244.176	979.925
161.877	20.942	1243.373	978.978
162.892	20.944	1242.569	978.266
163.906	21.066	1241.656	978.149
164.921	21.117	1240.630	977.538
165.935	21.146	1239.694	976.875
166.950	21.043	1239.611	976.147
167.964	20.989	1239.110	975.366
168.979	20.999	1238.718	975.026
169.994	20.956	1238.121	974.230
171.008	21.065	1237.040	973.902
172.023	21.015	1236.271	972.928
173.037	21.074	1235.706	972.732
174.052	21.081	1235.262	972.335
175.067	21.050	1234.006	971.085
176.081	20.996	1233.573	970.356
177.096	20.998	1232.619	969.534
178.110	21.023	1231.380	968.614
179.125	21.049	1230.722	968.155
180.140	21.089	1229.888	967.633
181.154	21.195	1228.278	966.870
182.169	21.099	1227.398	965.557
183.183	21.168	1226.167	964.887
184.198	21.032	1225.558	963.568
185.213	21.108	1224.553	963.115
186.227	21.107	1223.620	962.290
187.242	21.114	1222.743	961.551
188.256	21.143	1221.805	960.886
189.271	21.252	1220.481	960.364
190.286	21.197	1220.021	959.614
191.300	21.125	1219.648	958.840
192.315	21.094	1219.565	958.522
193.329	21.228	1218.533	958.360
194.344	21.180	1218.319	957.840
195.359	21.192	1217.747	957.371
196.373	20.996	1217.654	956.143
197.388	20.987	1216.873	955.392
198.402	21.000	1216.812	955.332
199.417	21.057	1216.248	955.118
200.432	21.216	1215.035	954.951
201.446	21.145	1214.696	954.208
202.461	21.060	1214.127	953.215
203.475	21.172	1213.272	953.068
204.490	21.093	1212.169	951.688
205.504	21.182	1211.217	951.344
206.519	21.193	1210.391	950.668
207.534	21.264	1208.985	949.865
208.548	21.092	1208.241	948.262
209.563	21.244	1207.329	948.289
210.577	21.167	1206.945	947.487
211.592	21.191	1206.273	947.006
212.607	21.239	1205.242	946.371
213.621	21.257	1204.570	945.857
214.636	21.334	1203.807	945.590
215.650	21.261	1203.185	944.623
216.665	21.289	1201.992	943.754
217.680	21.283	1201.093	942.931
218.694	21.251	1200.433	942.158
219.709	21.292	1199.482	941.551
220.723	21.283	1198.882	940.947
221.738	21.317	1197.905	940.281
222.753	21.225	1197.355	939.271
223.767	21.242	1196.908	938.928
224.782	21.311	1196.599	938.976
225.796	21.313	1196.118	938.525
226.811	21.318	1195.217	937.763
227.826	21.324	1194.622	937.244
228.840	21.387	1193.777	936.837
229.855	21.409	1193.261	936.465
230.869	21.400	1192.321	935.597
231.884	21.430	1191.607	935.112
232.899	21.273	1191.118	933.808
233.913	21.221	1190.835	933.227
234.928	21.432	1190.266	933.823
235.942	21.394	1189.735	933.119
236.957	21.358	1189.017	932.284
237.972	21.362	1188.259	931.629
238.986	21.285	1187.587	930.609
240.001	21.506	1186.963	931.215
241.015	21.395	1186.420	930.116
242.030	21.448	1185.651	929.713
243.045	21.497	1184.784	929.212
244.059	21.490	1184.085	928.541
245.074	21.480	1183.162	927.683
246.088	21.586	1182.060	927.298
247.103	21.679	1181.279	927.094
248.117	21.433	1180.903	925.420
249.132	21.535	1180.230	925.349
250.147	21.546	1179.418	924.689
251.161	21.556	1178.619	924.034
252.176	21.498	1177.929	923.105
253.190	21.496	1177.340	922.548
254.205	21.503	1177.086	922.306
255.220	21.562	1176.186	921.830
256.234	21.510	1176.077	921.388
257.249	21.667	1174.954	921.254
258.263	21.652	1174.475	920.715
259.278	21.665	1173.870	920.229
260.293	21.641	1173.468	919.707
261.307	21.646	1172.776	919.112
262.322	21.624	1172.119	918.400
263.336	21.707	1171.288	918.103
264.351	21.655	1170.811	917.373
265.366	21.736	1170.070	917.134
266.380	21.618	1169.798	916.226
267.395	21.657	1168.872	915.622
268.409	21.614	1168.452	914.986
269.424	21.623	1167.617	914.298
270.439	21.621	1167.526	914.138
271.453	21.686	1166.503	913.591
272.468	21.687	1165.695	912.883
273.482	21.682	1165.194	912.388
274.497	21.616	1164.957	911.773
275.512	21.826	1164.411	912.358
276.526	21.695	1163.692	911.034
277.541	21.660	1162.786	910.061
278.555	21.796	1162.239	910.259
279.570	21.807	1161.333	909.530
280.585	21.719	1160.735	908.522
281.599	21.736	1159.788	907.788
282.614	21.713	1159.333	907.234
283.628	21.934	1157.754	907.059
284.643	21.824	1157.140	905.932
285.657	21.747	1156.559	904.998
286.672	21.911	1155.372	904.835
287.687	21.901	1154.472	903.999
288.701	21.752	1154.403	903.096
289.716	21.930	1153.355	903.112
290.730	21.888	1152.928	902.485
291.745	21.919	1152.367	902.125
292.760	21.929	1151.605	901.496
293.774	21.862	1151.331	900.860
294.789	21.889	1150.779	900.486
295.803	22.003	1150.005	900.387
296.818	21.914	1149.356	899.343
297.833	21.935	1148.479	898.686
298.847	22.019	1147.994	898.657
299.862	22.095	1146.662	897.919
300.876	21.980	1145.864	896.629
301.891	21.998	1145.931	896.692
302.906	22.007	1145.006	895.938
303.920	22.016	1144.629	895.612
304.935	21.935	1144.126	894.724
305.949	22.014	1143.357	894.446
306.964	21.971	1142.781	893.696
307.979	22.087	1142.034	893.624
308.993	22.088	1141.244	892.932
310.008	22.053	1140.683	892.235
311.022	22.102	1140.122	891.968
312.037	22.059	1139.361	891.075
313.052	22.110	1138.101	890.269
314.066	22.140	1137.334	889.741
315.081	22.021	1137.143	888.913
316.095	22.144	1136.407	888.880
317.110	22.212	1135.621	888.530
318.125	22.216	1134.944	887.942
319.139	22.173	1134.451	887.258
320.154	22.090	1133.995	886.404
321.168	22.100	1133.535	886.020
322.183	22.051	1132.992	885.267
323.197	22.078	1132.426	884.882
324.212	22.198	1131.255	884.496
325.227	22.260	1130.906	884.454
326.241	22.260	1130.324	883.923
327.256	22.262	1129.658	883.335
328.270	22.269	1128.897	882.695
329.285	22.149	1128.157	881.436
330.300	22.289	1127.185	881.301
331.314	22.208	1126.526	880.302
332.329	22.176	1126.020	879.667
333.343	22.363	1124.898	879.650
334.358	22.328	1124.277	878.908
335.373	22.258	1123.757	878.075
336.387	22.293	1122.676	877.330
337.402	22.322	1122.120	876.963
338.416	22.268	1121.671	876.262
339.431	22.406	1120.941	876.304
340.446	22.368	1120.086	875.369
341.460	22.400	1119.597	875.068
342.475	22.467	1118.921	874.796
343.489	22.455	1117.704	873.706
344.504	22.372	1117.405	872.985
345.519	22.430	1115.991	872.089
346.533	22.441	1114.821	871.151
347.548	22.475	1114.882	871.290
348.562	22.438	1114.249	870.537
349.577	22.400	1113.655	869.808
350.592	22.389	1112.522	868.791
351.606	22.336	1112.176	868.182
352.621	22.461	1111.557	868.238
353.635	22.424	1111.117	867.634
354.650	22.520	1110.400	867.472
355.665	22.585	1109.671	867.143
356.679	22.501	1109.142	866.241
357.694	22.494	1108.623	865.725
358.708	22.616	1107.830	865.628
359.723	22.426	1107.243	864.159
360.738	22.517	1106.542	863.986
361.752	22.607	1106.035	863.952
362.767	22.582	1105.304	863.181
363.781	22.540	1105.015	862.674
364.796	22.727	1104.061	862.767
365.810	22.770	1103.433	862.411
366.825	22.638	1103.041	861.382
367.840	22.632	1102.736	861.039
368.854	22.739	1101.888	860.823
369.869	22.620	1101.769	860.072
370.883	22.654	1100.813	859.419
371.898	22.767	1099.914	859.188
372.913	22.721	1099.167	858.307
373.927	22.785	1098.691	858.172
374.942	22.737	1098.336	857.584
375.956	22.750	1097.583	856.980
376.971	22.809	1096.965	856.709
377.986	22.818	1096.590	856.387
379.000	22.916	1095.866	856.219
380.015	22.836	1095.571	855.524
381.029	22.692	1095.171	854.440
382.044	22.866	1094.220	854.465
383.059	22.783	1093.836	853.686
384.073	22.984	1092.808	853.779
385.088	22.866	1091.748	852.308
386.102	22.851	1091.095	851.648
387.117	22.969	1090.026	851.309
388.132	22.909	1089.352	850.420
389.146	23.001	1088.703	850.280
390.161	23.054	1088.044	849.946
391.175	22.957	1087.727	849.156
392.190	23.062	1086.931	848.961
393.205	22.897	1086.472	847.738
394.219	22.892	1085.064	846.537
395.234	23.028	1084.207	846.447
396.248	22.976	1083.430	845.516
397.263	23.042	1082.940	845.375
398.278	23.035	1082.468	844.898
399.292	23.075	1081.682	844.400
400.307	23.128	1080.802	843.890
401.321	23.019	1080.410	842.991
402.336	23.073	1080.052	842.894
403.350	23.027	1079.177	841.920
404.365	23.190	1078.071	841.759
405.380	23.215	1077.583	841.420
406.394	23.086	1076.874	840.178
407.409	23.184	1076.331	840.146
408.423	23.166	1075.724	839.512
409.438	23.342	1074.557	839.364
410.453	23.270	1073.870	838.409
411.467	23.327	1073.461	838.287
412.482	23.103	1072.935	836.741
413.496	23.255	1072.066	836.709
414.511	23.255	1071.270	836.011
415.526	23.261	1071.307	835.996
416.540	23.288	1070.725	835.594
417.555	23.241	1070.293	834.963
418.569	23.241	1069.810	834.514
419.584	23.267	1069.185	834.072
420.599	23.291	1068.877	833.872
421.613	149.032	1399.300	1797.066
422.628	137.275	1447.412	1797.146
