DTS Sentinel unit serial number:	SN413079Multiplexer serial number:	ORYXHardware model number:	OX4-SRSoftware version number:	ORYX F/W v4.00 Oryx Data Collector v3.7.2.0data status	okinstallation	princeton_trtdifferential loss correction	single-endedforward channel	channel 3reverse channel	N/Adate	2019/09/12time	05:14:10forward acquisition time	60.00reverse acquisition time	0.00gamma	496.2192k internal	0.2321k external	0.2321temperature offset calibration	1.0037default loss term (dB/km)	0.3790temperature slope calibration	1.0000multiplexer offset coefficient	1.0000multiplexer slope coefficient	1.0000fibre end	0.00T internal ref (°C)	31.81T ext. ref 1 (°C)	1.64T ext. ref 2 (°C)	27.31length (m)	temperature (°C)	Stokes	anti-Stokes-747.200	100.162	0.188	0.221
-746.185	-200.000	0.049	0.348
-745.171	-121.911	-0.341	0.057
-744.156	800.000	-0.076	0.229
-743.142	-46.937	-0.256	-0.126
-742.127	800.000	0.071	0.291
-741.112	324.547	0.117	0.227
-740.098	-200.000	0.007	0.494
-739.083	90.968	-0.235	0.266
-738.069	144.763	0.237	0.320
-737.054	-71.053	0.106	-0.040
-736.039	78.687	-0.242	0.261
-735.025	-200.000	0.021	0.095
-734.010	17.964	-0.168	-0.136
-732.996	350.008	-0.105	-0.209
-731.981	-200.000	0.031	-0.244
-730.966	-200.000	0.039	0.198
-729.952	-19.388	-0.363	-0.227
-728.937	-64.097	-0.250	0.103
-727.923	-74.624	-0.187	0.068
-726.908	542.638	-0.022	0.054
-725.894	800.000	0.019	-0.063
-724.879	20.666	-0.118	0.096
-723.864	-7.025	0.151	-0.104
-722.850	800.000	-0.117	0.337
-721.835	-31.605	-0.269	0.152
-720.821	455.143	0.043	0.097
-719.806	568.142	0.100	-0.246
-718.791	-182.590	-0.088	-0.002
-717.777	6.915	0.043	0.033
-716.762	800.000	-0.088	-0.255
-715.748	15.797	-0.106	-0.084
-714.733	301.546	-0.180	0.336
-713.718	146.185	0.109	-0.147
-712.704	357.530	0.204	0.411
-711.689	98.850	0.213	0.248
-710.675	-200.000	0.007	-0.090
-709.660	273.240	-0.012	-0.021
-708.645	-85.132	0.232	0.073
-707.631	-200.000	-0.002	-0.142
-706.616	-14.599	-0.139	0.090
-705.602	2.344	0.315	-0.230
-704.587	249.476	-0.122	-0.209
-703.572	107.904	-0.075	-0.090
-702.558	-159.872	-0.236	0.013
-701.543	-200.000	-0.030	0.498
-700.529	-56.019	-0.203	-0.091
-699.514	-34.601	-0.328	-0.181
-698.499	-200.000	-0.011	0.196
-697.485	-200.000	0.023	-0.514
-696.470	23.130	-0.287	-0.238
-695.456	-15.957	0.022	0.014
-694.441	-98.217	0.366	0.095
-693.426	800.000	-0.082	-0.257
-692.412	-200.000	-0.010	-0.372
-691.397	800.000	-0.054	-0.156
-690.383	-200.000	0.017	-0.261
-689.368	-144.267	-0.210	-0.020
-688.354	-200.000	-0.006	0.098
-687.339	269.108	0.114	0.201
-686.324	96.224	0.087	0.100
-685.310	5.285	0.138	0.102
-684.295	114.444	0.141	0.174
-683.281	-81.746	0.084	-0.028
-682.266	649.354	-0.077	0.198
-681.251	-200.000	0.009	-0.294
-680.237	-200.000	0.040	-0.293
-679.222	390.019	0.162	0.339
-678.208	-172.778	-0.292	-0.009
-677.193	141.144	0.233	0.311
-676.178	30.992	0.213	0.184
-675.164	118.845	0.154	-0.192
-674.149	23.977	0.223	0.185
-673.135	562.552	-0.146	-0.357
-672.120	102.619	0.060	0.071
-671.105	232.586	-0.195	0.322
-670.091	-200.000	-0.039	0.230
-669.076	314.112	-0.055	0.105
-668.062	800.000	-0.054	-0.233
-667.047	57.996	0.023	-0.023
-666.032	-147.352	-0.212	0.018
-665.018	8.715	-0.339	0.257
-664.003	58.200	0.229	0.226
-662.989	-45.719	0.109	-0.054
-661.974	35.369	-0.048	0.042
-660.959	-200.000	0.045	0.228
-659.945	251.303	0.037	-0.064
-658.930	520.257	0.072	-0.170
-657.916	214.562	0.020	0.031
-656.901	-32.510	0.282	0.159
-655.886	-50.371	-0.301	-0.143
-654.872	-165.642	-0.067	0.003
-653.857	-129.643	0.132	0.018
-652.843	-11.769	0.086	-0.057
-651.828	450.535	0.010	0.023
-650.814	-42.801	0.253	-0.129
-649.799	-125.425	0.060	0.009
-648.784	153.061	-0.075	0.103
-647.770	-135.936	0.205	0.024
-646.755	554.293	0.045	0.109
-645.741	107.117	0.011	-0.013
-644.726	-200.000	-0.034	0.253
-643.711	1.947	0.162	0.118
-642.697	333.971	0.110	0.214
-641.682	-200.000	-0.018	-0.300
-640.668	-200.000	-0.002	0.132
-639.653	-200.000	-0.053	0.505
-638.638	725.306	0.106	0.283
-637.624	9.159	0.187	0.142
-636.609	-66.229	0.247	-0.099
-635.595	-144.390	-0.244	0.023
-634.580	-100.720	0.313	-0.078
-633.565	109.122	-0.087	0.105
-632.551	-200.000	-0.128	-0.000
-631.536	-16.975	0.239	0.152
-630.522	-17.011	0.046	0.029
-629.507	-135.989	-0.169	-0.020
-628.492	-158.229	0.243	-0.014
-627.478	-105.182	0.341	0.078
-626.463	800.000	-0.011	0.030
-625.449	800.000	-0.207	-0.585
-624.434	167.932	0.184	-0.263
-623.419	691.524	0.138	-0.363
-622.405	170.030	-0.086	-0.124
-621.390	170.483	-0.201	-0.290
-620.376	120.870	-0.231	0.289
-619.361	-72.355	-0.131	0.049
-618.346	-179.755	0.292	0.006
-617.332	219.375	0.111	0.179
-616.317	-95.482	-0.357	-0.096
-615.303	53.755	0.097	0.094
-614.288	62.230	0.176	-0.177
-613.273	74.088	-0.083	0.087
-612.259	-49.192	0.224	-0.108
-611.244	-112.138	-0.301	0.061
-610.230	142.172	0.208	0.278
-609.215	-53.148	-0.283	0.131
-608.201	800.000	-0.090	-0.362
-607.186	-200.000	-0.062	0.432
-606.171	-200.000	0.010	0.059
-605.157	361.316	0.169	-0.340
-604.142	8.467	-0.109	0.083
-603.128	-47.937	-0.218	0.106
-602.113	-90.633	-0.215	-0.062
-601.098	223.438	-0.136	-0.221
-600.084	800.000	0.085	0.289
-599.069	634.080	0.137	0.349
-598.055	-159.345	-0.094	0.005
-597.040	28.170	-0.075	-0.063
-596.025	144.282	-0.275	-0.369
-595.011	-58.725	0.105	0.046
-593.996	-47.257	0.167	-0.082
-592.982	-56.806	-0.410	0.182
-591.967	-135.703	0.423	-0.050
-590.952	-44.293	0.112	-0.056
-589.938	-35.329	-0.236	-0.129
-588.923	-53.610	0.201	0.092
-587.909	36.276	0.136	0.121
-586.894	49.970	0.177	0.168
-585.879	172.594	0.076	-0.109
-584.865	-125.570	0.103	-0.016
-583.850	-83.507	-0.313	0.101
-582.836	-114.984	0.434	0.083
-581.821	37.732	-0.235	-0.210
-580.806	-101.724	0.263	-0.064
-579.792	798.493	0.083	0.229
-578.777	-200.000	0.095	-0.455
-577.763	-57.246	-0.170	-0.075
-576.748	144.442	-0.262	-0.351
-575.733	-200.000	0.022	0.381
-574.719	-185.162	-0.295	0.005
-573.704	-188.795	0.228	0.003
-572.690	-29.623	0.033	-0.019
-571.675	-31.641	-0.280	-0.158
-570.661	800.000	0.108	-0.464
-569.646	-200.000	0.054	-0.245
-568.631	-200.000	0.019	-0.272
-567.617	99.670	-0.161	-0.187
-566.602	-63.593	-0.109	0.045
-565.588	-47.384	-0.083	0.040
-564.573	-200.000	-0.046	-0.271
-563.558	-35.479	-0.161	-0.088
-562.544	198.437	-0.091	-0.139
-561.529	101.658	0.119	-0.139
-560.515	-30.955	0.221	-0.125
-559.500	-200.000	-0.059	-0.270
-558.485	271.210	-0.165	-0.292
-557.471	124.859	0.228	0.288
-556.456	800.000	-0.019	-0.078
-555.442	-132.829	-0.135	-0.017
-554.427	147.825	0.152	-0.205
-553.412	-200.000	-0.004	0.024
-552.398	232.933	-0.076	-0.126
-551.383	633.965	-0.020	-0.051
-550.369	514.456	0.036	-0.083
-549.354	237.405	-0.162	0.270
-548.339	65.055	0.285	-0.288
-547.325	67.012	0.195	0.199
-546.310	-200.000	-0.003	-0.074
-545.296	316.609	0.148	-0.280
-544.281	-139.492	0.172	0.018
-543.266	85.551	-0.289	0.319
-542.252	-200.000	0.061	-0.337
-541.237	136.846	0.084	-0.110
-540.223	35.105	-0.194	0.170
-539.208	-200.000	-0.017	-0.175
-538.193	-200.000	0.040	-0.204
-537.179	-200.000	0.475	-0.001
-536.164	125.258	-0.204	-0.257
-535.150	261.318	0.044	-0.076
-534.135	-200.000	0.089	0.419
-533.121	-43.501	-0.145	0.074
-532.106	-178.339	-0.057	-0.001
-531.091	155.346	-0.153	0.211
-530.077	8.844	-0.349	-0.264
-529.062	194.737	0.111	-0.169
-528.048	233.367	0.117	0.193
-527.033	214.069	-0.090	0.143
-526.018	154.149	0.115	0.158
-525.004	94.260	0.215	-0.244
-523.989	-156.190	-0.200	-0.013
-522.975	-136.772	-0.375	-0.043
-521.960	15.017	0.098	-0.077
-520.945	336.193	0.023	0.045
-519.931	-200.000	0.005	0.303
-518.916	46.660	-0.279	-0.260
-517.902	-200.000	-0.035	0.457
-516.887	-161.838	0.240	-0.012
-515.872	-200.000	-0.012	-0.074
-514.858	-44.413	-0.197	-0.099
-513.843	142.216	-0.104	-0.138
-512.829	-16.477	0.149	-0.095
-511.814	-22.654	-0.137	0.083
-510.799	-200.000	0.019	0.253
-509.785	84.850	-0.082	0.090
-508.770	-93.907	-0.127	-0.035
-507.756	125.180	0.218	-0.275
-506.741	43.866	0.133	0.122
-505.726	800.000	0.031	-0.087
-504.712	-193.264	-0.368	0.003
-503.697	-125.471	-0.128	0.019
-502.683	66.664	-0.081	0.083
-501.668	140.370	-0.219	0.289
-500.653	-200.000	0.389	0.002
-499.639	222.319	-0.070	-0.113
-498.624	-200.000	-0.015	-0.090
-497.610	-163.769	0.164	-0.008
-496.595	-178.723	0.070	0.002
-495.581	-200.000	-0.017	-0.141
-494.566	-200.000	0.007	0.048
-493.551	256.734	0.080	0.138
-492.537	-200.000	0.009	-0.429
-491.522	202.354	0.039	0.060
-490.508	113.072	-0.064	-0.078
-489.493	516.747	0.061	-0.142
-488.478	-99.776	-0.177	0.044
-487.464	-65.524	0.145	-0.058
-486.449	-172.674	-0.098	0.003
-485.435	-57.650	0.423	-0.185
-484.420	-7.110	-0.074	-0.050
-483.405	-38.729	0.153	-0.081
-482.391	147.697	-0.204	0.275
-481.376	25.582	-0.245	-0.204
-480.362	51.291	-0.270	0.256
-479.347	-43.755	-0.191	0.096
-478.332	-200.000	0.043	0.373
-477.318	-7.712	-0.278	-0.188
-476.303	-117.600	0.298	0.054
-475.289	26.776	-0.196	-0.164
-474.274	-171.012	0.139	0.005
-473.259	-40.930	-0.037	-0.019
-472.245	-200.000	0.003	0.081
-471.230	-182.110	0.212	-0.004
-470.216	-79.273	0.307	0.104
-469.201	-200.000	0.080	0.563
-468.186	197.393	-0.126	-0.193
-467.172	-200.000	-0.002	-0.230
-466.157	59.044	0.395	-0.388
-465.143	-110.787	0.270	-0.056
-464.128	800.000	0.126	0.425
-463.113	-200.000	-0.005	-0.040
-462.099	97.636	0.070	-0.080
-461.084	288.031	-0.154	0.279
-460.070	-91.133	0.311	0.089
-459.055	-72.048	-0.279	-0.104
-458.040	-88.366	-0.308	0.092
-457.026	-200.000	0.018	0.183
-456.011	192.053	0.107	0.161
-454.997	202.644	0.212	-0.327
-453.982	-75.167	0.325	-0.116
-452.968	-55.473	-0.307	0.137
-451.953	-3.308	0.121	0.084
-450.938	32.253	-0.116	0.100
-449.924	-200.000	-0.043	-0.356
-448.909	54.646	0.132	-0.127
-447.895	-90.251	-0.239	0.070
-446.880	-200.000	0.071	-0.354
-445.865	190.379	-0.029	-0.043
-444.851	-57.000	0.192	0.085
-443.836	-64.327	-0.247	-0.100
-442.822	-200.000	-0.010	0.135
-441.807	800.000	-0.064	-0.195
-440.792	-156.836	-0.106	-0.007
-439.778	430.693	0.070	-0.152
-438.763	-165.303	0.412	0.018
-437.749	-70.018	0.126	-0.048
-436.734	-200.000	-0.047	-0.307
-435.719	-161.982	-0.298	-0.015
-434.705	-54.303	-0.151	0.068
-433.690	-18.373	-0.403	-0.251
-432.676	397.924	-0.135	0.282
-431.661	81.493	0.091	-0.098
-430.646	-200.000	0.018	0.347
-429.632	-3.775	-0.104	0.072
-428.617	325.147	-0.088	0.168
-427.603	-200.000	-0.020	-0.108
-426.588	-200.000	0.090	-0.402
-425.573	-114.473	-0.092	0.018
-424.559	-117.013	0.264	0.048
-423.544	598.974	0.027	-0.067
-422.530	-48.799	-0.229	-0.110
-421.515	-33.142	-0.216	-0.119
-420.500	44.395	-0.229	-0.210
-419.486	435.149	-0.080	0.173
-418.471	88.900	0.127	-0.141
-417.457	800.000	0.100	-0.284
-416.442	-95.426	0.303	0.081
-415.428	-57.176	0.209	0.092
-414.413	-200.000	-0.003	0.121
-413.398	167.662	-0.080	0.114
-412.384	-56.070	-0.131	-0.058
-411.369	121.123	0.185	0.229
-410.355	278.334	-0.057	0.101
-409.340	-99.328	-0.058	0.015
-408.325	137.879	-0.203	0.265
-407.311	85.542	0.136	0.149
-406.296	-144.097	-0.379	0.035
-405.282	429.932	-0.077	0.165
-404.267	121.195	-0.152	-0.189
-403.252	-200.000	-0.025	0.252
-402.238	25.904	-0.198	-0.165
-401.223	-91.435	-0.561	-0.160
-400.209	-139.033	0.102	0.011
-399.194	-121.335	-0.241	0.040
-398.179	533.252	0.036	-0.085
-397.165	713.106	0.065	-0.172
-396.150	-200.000	-0.005	-0.158
-395.136	-139.256	0.188	0.020
-394.121	800.000	0.074	0.232
-393.106	-75.122	0.341	-0.121
-392.092	174.180	-0.060	-0.086
-391.077	-14.808	0.243	-0.155
-390.063	53.900	-0.169	0.162
-389.048	-91.992	-0.156	0.044
-388.033	-89.373	-0.057	0.017
-387.019	-200.000	0.047	0.214
-386.004	80.877	-0.168	0.180
-384.990	6.320	-0.032	0.024
-383.975	-191.890	-0.275	0.003
-382.960	310.213	-0.049	-0.091
-381.946	-18.822	-0.265	-0.164
-380.931	66.820	0.172	0.175
-379.917	-200.000	0.022	0.264
-378.902	-200.000	0.003	-0.269
-377.888	-29.511	-0.159	-0.090
-376.873	-200.000	-0.024	-0.163
-375.858	800.000	0.060	-0.228
-374.844	-120.118	-0.306	-0.052
-373.829	381.661	-0.073	-0.148
-372.815	-146.934	-0.027	0.002
-371.800	483.736	-0.106	0.241
-370.785	-91.523	-0.395	0.112
-369.771	337.071	0.156	0.301
-368.756	223.197	0.158	0.253
-367.742	-107.186	-0.268	-0.059
-366.727	13.225	0.212	0.164
-365.712	-26.011	-0.133	-0.078
-364.698	-62.138	-0.146	0.060
-363.683	800.000	0.118	-0.348
-362.669	-138.466	0.293	-0.032
-361.654	-82.950	0.356	-0.114
-360.639	-35.725	-0.347	0.187
-359.625	-59.367	0.446	-0.191
-358.610	131.260	0.308	-0.394
-357.596	124.739	0.174	0.218
-356.581	417.868	0.125	-0.265
-355.566	-200.000	-0.012	-0.179
-354.552	9.769	-0.050	-0.038
-353.537	29.354	0.113	0.096
-352.523	-122.331	0.158	-0.026
-351.508	24.588	-0.255	0.210
-350.493	43.612	0.105	0.095
-349.479	-83.676	-0.145	-0.046
-348.464	-200.000	-0.064	-0.294
-347.450	63.631	0.239	0.239
-346.435	800.000	-0.081	-0.243
-345.420	-13.301	-0.051	0.033
-344.406	106.266	-0.192	0.226
-343.391	-57.102	0.190	-0.083
-342.377	770.038	-0.092	0.249
-341.362	800.000	0.044	-0.146
-340.348	-103.345	-0.376	-0.088
-339.333	-107.866	-0.134	-0.029
-338.318	-170.338	0.118	0.004
-337.304	800.000	-0.028	0.102
-336.289	-200.000	0.031	0.252
-335.275	800.000	-0.117	-0.440
-334.260	16.152	-0.215	-0.169
-333.245	-200.000	-0.043	0.277
-332.231	274.870	0.152	0.267
-331.216	520.749	-0.004	0.009
-330.202	-58.727	0.199	-0.086
-329.187	-129.584	-0.225	-0.031
-328.172	1.720	-0.145	0.104
-327.158	-200.000	-0.028	0.228
-326.143	416.396	-0.048	0.102
-325.129	-76.528	-0.171	0.060
-324.114	-80.383	-0.157	0.052
-323.099	37.372	-0.113	0.099
-322.085	87.266	-0.079	0.087
-321.070	800.000	-0.058	-0.241
-320.056	-63.886	0.151	0.061
-319.041	-200.000	0.080	0.415
-318.026	-200.000	-0.069	0.315
-317.012	-200.000	-0.005	0.144
-315.997	800.000	-0.045	0.185
-314.983	800.000	0.062	0.217
-313.968	-119.438	0.091	0.016
-312.953	-18.318	-0.131	0.081
-311.939	-168.616	0.264	-0.010
-310.924	21.594	-0.147	0.118
-309.910	49.175	-0.366	-0.342
-308.895	22.437	-0.299	-0.243
-307.880	-200.000	0.058	-0.299
-306.866	-69.398	0.224	-0.086
-305.851	216.879	0.121	0.192
-304.837	800.000	-0.060	0.241
-303.822	-190.078	0.284	-0.003
-302.807	294.746	-0.097	-0.176
-301.793	457.332	0.076	0.167
-300.778	-95.508	0.171	0.046
-299.764	242.364	-0.169	-0.280
-298.749	17.658	0.153	-0.121
-297.735	664.422	-0.229	-0.586
-296.720	341.653	0.127	-0.247
-295.705	-100.526	0.276	0.068
-294.691	-32.286	-0.309	0.171
-293.676	-200.000	-0.024	0.156
-292.662	-10.102	0.134	0.088
-291.647	92.919	0.155	-0.174
-290.632	-60.728	0.177	-0.074
-289.618	-3.989	-0.125	-0.086
-288.603	800.000	0.058	0.178
-287.589	17.192	-0.089	0.070
-286.574	452.507	0.139	0.305
-285.559	-129.902	0.119	0.016
-284.545	-200.000	-0.008	-0.208
-283.530	334.427	0.164	0.316
-282.516	-54.960	-0.069	0.031
-281.501	-45.630	-0.109	0.054
-280.486	190.737	-0.045	0.067
-279.472	132.530	0.231	-0.295
-278.457	-65.968	-0.025	-0.010
-277.443	167.013	-0.148	0.208
-276.428	-146.689	0.067	0.006
-275.413	-54.024	-0.187	0.085
-274.399	-31.789	0.333	-0.185
-273.384	-70.740	0.301	0.113
-272.370	-200.000	-0.067	0.624
-271.355	393.269	0.070	0.144
-270.340	108.798	-0.179	-0.213
-269.326	-200.000	-0.017	0.227
-268.311	-144.819	0.171	-0.016
-267.297	160.931	0.088	-0.123
-266.282	362.674	0.073	0.146
-265.267	662.446	-0.212	0.542
-264.253	-100.227	0.073	-0.018
-263.238	-24.986	0.091	0.054
-262.224	-94.463	-0.202	0.055
-261.209	-200.000	-0.005	0.111
-260.195	-200.000	-0.023	0.209
-259.180	54.116	-0.243	-0.231
-258.165	-142.591	0.237	0.023
-257.151	193.418	0.160	-0.240
-256.136	-30.251	0.316	0.178
-255.122	800.000	-0.068	0.278
-254.107	673.769	-0.078	-0.202
-253.092	-161.205	-0.140	0.007
-252.078	-13.966	0.234	0.150
-251.063	800.000	0.038	0.150
-250.049	-97.308	-0.332	0.086
-249.034	-200.000	0.040	-0.300
-248.019	-200.000	-0.023	0.124
-247.005	-70.756	-0.137	0.051
-245.990	43.388	-0.073	-0.066
-244.976	-195.959	0.131	-0.001
-243.961	800.000	0.099	0.305
-242.946	-200.000	0.008	0.321
-241.932	9.619	0.075	-0.057
-240.917	130.237	-0.127	0.161
-239.903	74.508	0.158	0.164
-238.888	-162.083	-0.271	-0.014
-237.873	-200.000	0.005	0.023
-236.859	305.937	0.094	-0.172
-235.844	-200.000	-0.031	-0.151
-234.830	-99.406	0.303	-0.076
-233.815	-21.040	0.366	0.222
-232.800	-145.307	-0.361	0.032
-231.786	-116.195	0.079	-0.015
-230.771	177.340	-0.060	0.087
-229.757	659.799	-0.095	-0.241
-228.742	-93.158	0.257	0.071
-227.727	186.318	-0.203	-0.299
-226.713	-157.600	-0.078	-0.005
-225.698	-87.805	0.222	0.066
-224.684	79.263	0.094	-0.100
-223.669	-150.592	0.392	0.030
-222.655	800.000	0.017	-0.063
-221.640	-103.678	0.407	0.094
-220.625	-45.754	0.027	-0.013
-219.611	-108.853	0.032	0.007
-218.596	800.000	0.059	-0.225
-217.582	-76.953	0.172	0.060
-216.567	138.339	0.202	0.263
-215.552	800.000	0.108	0.301
-214.538	41.955	0.100	0.089
-213.523	-41.222	-0.246	0.125
-212.509	352.262	-0.124	-0.244
-211.494	-132.496	0.204	-0.026
-210.479	-72.074	0.041	-0.015
-209.465	473.372	0.054	-0.121
-208.450	-79.142	0.362	-0.122
-207.436	-200.000	0.015	0.097
-206.421	-72.872	-0.347	0.126
-205.406	115.261	-0.246	-0.297
-204.392	32.365	-0.174	0.149
-203.377	550.122	0.052	-0.122
-202.363	800.000	-0.016	0.054
-201.348	86.345	0.025	0.028
-200.333	-45.570	-0.192	-0.094
-199.319	800.000	-0.031	0.124
-198.304	88.018	0.111	0.122
-197.290	-16.769	-0.108	0.067
-196.275	800.000	-0.113	-0.383
-195.260	-113.721	0.117	0.023
-194.246	363.696	-0.059	0.117
-193.231	-105.104	0.334	-0.076
-192.217	-165.012	0.309	0.014
-191.202	434.603	-0.167	-0.359
-190.187	89.137	0.053	-0.058
-189.173	800.000	-0.072	0.293
-188.158	-0.437	-0.186	0.130
-187.144	-38.950	0.040	-0.021
-186.129	-137.554	0.275	0.031
-185.114	-18.468	-0.257	0.159
-184.100	443.500	0.066	0.142
-183.085	-97.102	-0.251	0.065
-182.071	-75.312	0.195	-0.069
-181.056	-200.000	0.000	-0.169
-180.042	-11.905	-0.155	-0.100
-179.027	-44.227	0.083	-0.041
-178.012	63.491	-0.263	-0.261
-176.998	194.795	-0.046	-0.068
-175.983	-26.221	0.208	-0.121
-174.969	-33.768	0.318	0.173
-173.954	462.380	-0.185	-0.408
-172.939	-38.165	-0.233	-0.122
-171.925	27.271	-0.160	0.133
-170.910	-53.146	-0.309	0.140
-169.896	-200.000	-0.036	0.307
-168.881	-117.174	0.294	-0.053
-167.866	102.751	0.159	0.184
-166.852	-37.591	-0.124	-0.065
-165.837	-112.295	-0.186	0.037
-164.823	-91.901	-0.228	-0.064
-163.808	116.666	0.250	-0.303
-162.793	-116.961	-0.271	0.049
-161.779	800.000	-0.054	-0.202
-160.764	-200.000	-0.009	0.182
-159.750	0.165	0.051	-0.036
-158.735	101.607	0.123	-0.141
-157.720	-116.584	-0.312	0.057
-156.706	-108.174	0.654	0.140
-155.691	124.305	0.288	0.358
-154.677	-53.087	-0.055	0.025
-153.662	161.718	0.007	-0.009
-152.647	152.651	-0.245	0.330
-151.633	621.311	0.208	-0.516
-150.618	-103.006	-0.363	0.085
-149.604	-200.000	-0.033	0.363
-148.589	204.058	-0.097	0.148
-147.574	-200.000	-0.180	0.000
-146.560	10.765	0.334	0.252
-145.545	30.724	-0.111	0.094
-144.531	-72.192	0.312	-0.114
-143.516	-65.888	-0.159	-0.063
-142.502	2.414	0.250	0.178
-141.487	-11.210	-0.049	-0.032
-140.472	570.623	-0.028	-0.067
-139.458	-131.225	0.282	-0.037
-138.443	140.579	0.121	-0.158
-137.429	-44.415	0.209	-0.103
-136.414	740.554	-0.028	0.075
-135.399	-23.467	0.107	0.063
-134.385	-200.000	0.013	-0.063
-133.370	576.935	-0.191	0.462
-132.356	800.000	0.050	0.154
-131.341	-82.625	-0.123	-0.039
-130.326	-108.028	0.372	-0.080
-129.312	98.692	-0.180	0.205
-128.297	502.685	0.223	0.508
-127.283	-44.130	-0.246	0.122
-126.268	148.870	-0.066	-0.089
-125.253	-200.000	0.070	0.324
-124.239	-27.667	0.133	-0.076
-123.224	-191.866	0.187	-0.002
-122.210	800.000	-0.040	0.164
-121.195	170.138	-0.186	-0.263
-120.180	441.780	-0.106	-0.229
-119.166	157.801	-0.094	0.128
-118.151	-52.960	0.195	-0.089
-117.137	-104.770	0.139	0.032
-116.122	800.000	0.024	0.103
-115.107	-126.016	0.119	-0.018
-114.093	110.932	0.132	-0.157
-113.078	800.000	-0.083	-0.330
-112.064	-200.000	0.021	0.147
-111.049	-200.000	0.000	0.037
-110.034	-61.689	-0.258	-0.107
-109.020	116.732	0.133	0.161
-108.005	451.547	0.190	0.414
-106.991	-39.821	-0.231	-0.119
-105.976	223.241	0.124	-0.198
-104.962	-104.671	0.253	0.057
-103.947	800.000	0.024	-0.071
-102.932	-65.659	-0.184	-0.073
-101.918	-198.954	0.356	-0.002
-100.903	-80.129	0.106	-0.035
-99.889	132.294	0.163	0.207
-98.874	-200.000	0.005	0.140
-97.859	-37.803	0.248	-0.130
-96.845	640.282	0.205	0.514
-95.830	-154.839	0.380	-0.025
-94.816	623.436	-0.095	0.236
-93.801	-97.407	0.346	0.089
-92.786	-31.879	-0.094	0.052
-91.772	282.901	0.165	0.292
-90.757	459.135	-0.124	-0.272
-89.743	-169.480	-0.103	0.004
-88.728	516.268	0.121	0.280
-87.713	-22.911	0.033	0.020
-86.699	-68.750	0.436	0.166
-85.684	492.452	-0.041	-0.093
-84.670	-128.058	0.112	-0.016
-83.655	-110.307	-0.313	0.064
-82.640	-94.192	0.163	-0.044
-81.626	-200.000	-0.001	-0.039
-80.611	-200.000	-0.001	0.302
-79.597	-200.000	0.007	-0.226
-78.582	365.557	-0.112	-0.222
-77.567	73.701	0.188	-0.194
-76.553	98.002	-0.232	0.263
-75.538	360.729	0.149	-0.295
-74.524	-86.401	0.088	0.027
-73.509	-162.169	-0.184	0.009
-72.494	-42.540	-0.092	0.046
-71.480	20.676	-0.110	0.087
-70.465	15.999	-0.010	-0.007
-69.451	-200.000	0.006	0.121
-68.436	800.000	-0.114	0.358
-67.422	-100.402	0.269	0.066
-66.407	48.941	-0.097	-0.089
-65.392	133.447	0.114	-0.146
-64.378	-53.912	-0.070	-0.031
-63.363	-200.000	0.030	0.317
-62.349	-200.000	0.035	0.249
-61.334	-3.788	-0.910	-0.622
-60.319	156.034	0.173	0.234
-59.305	-200.000	-0.198	-1.009
-58.290	92.757	0.813	0.903
-57.276	329.082	0.788	1.490
-56.261	-200.000	95.566	595.263
-55.246	560.749	1367.302	3250.360
-54.232	162.104	2545.841	3509.022
-53.217	112.529	2158.192	2569.128
-52.203	42.550	1702.765	1523.963
-51.188	35.042	1515.689	1305.519
-50.173	32.648	1488.513	1265.999
-49.159	52.356	1538.151	1443.217
-48.144	54.163	1555.579	1471.842
-47.130	35.303	1515.414	1306.852
-46.115	32.095	1500.767	1272.474
-45.100	31.885	1497.813	1268.500
-44.086	31.955	1495.484	1266.946
-43.071	31.820	1493.873	1264.621
-42.057	31.809	1491.946	1262.865
-41.042	31.837	1490.466	1261.750
-40.027	31.748	1489.562	1260.339
-39.013	31.665	1487.974	1258.386
-37.998	31.691	1486.847	1257.557
-36.984	31.743	1485.709	1256.896
-35.969	31.764	1484.298	1255.788
-34.954	31.840	1482.703	1254.898
-33.940	31.840	1481.189	1253.567
-32.925	31.897	1479.817	1252.738
-31.911	31.869	1478.567	1251.446
-30.896	31.941	1476.738	1250.327
-29.881	31.879	1475.917	1249.171
-28.867	31.834	1474.353	1247.495
-27.852	31.943	1473.288	1247.274
-26.838	31.994	1471.369	1245.937
-25.823	31.927	1469.769	1244.086
-24.809	31.924	1468.178	1242.671
-23.794	31.828	1467.000	1240.988
-22.779	31.843	1465.656	1239.902
-21.765	31.768	1465.063	1238.856
-20.750	31.907	1463.252	1238.193
-19.736	31.857	1462.530	1237.201
-18.721	31.835	1461.217	1235.899
-17.706	31.796	1460.264	1234.786
-16.692	31.859	1458.596	1233.743
-15.677	31.853	1457.810	1232.986
-14.663	31.816	1456.907	1231.930
-13.648	31.767	1456.041	1230.827
-12.633	31.747	1455.476	1230.167
-11.619	31.745	1454.820	1229.552
-10.604	31.717	1453.939	1228.574
-9.590	31.795	1453.153	1228.373
-8.575	31.791	1452.315	1227.590
-7.560	31.773	1451.391	1226.643
-6.546	31.712	1450.448	1225.401
-5.531	31.692	1449.621	1224.523
-4.517	31.704	1448.187	1223.340
-3.502	31.744	1446.920	1222.481
-2.487	31.799	1445.886	1221.917
-1.473	31.754	1445.034	1220.860
-0.458	31.702	1444.058	1219.645
0.556	31.844	1434.002	1209.439
1.571	29.104	1409.207	1171.019
2.586	26.044	1353.977	1106.297
3.600	24.569	1275.044	1033.184
4.615	23.348	1228.128	988.274
5.629	19.559	1170.639	921.742
6.644	9.887	1084.634	805.885
7.659	2.666	1043.414	740.411
8.673	1.881	1037.661	732.491
9.688	1.698	1034.576	729.374
10.702	1.544	1033.199	727.602
11.717	1.448	1030.922	725.473
12.731	4.605	1034.040	742.706
13.746	14.306	1048.331	799.690
14.761	22.426	1058.933	846.935
15.775	24.692	1061.236	859.610
16.790	25.017	1060.683	860.647
17.804	24.994	1059.797	859.745
18.819	24.715	1059.189	857.837
19.834	24.815	1058.453	857.641
20.848	25.019	1058.204	858.342
21.863	24.957	1058.307	858.050
22.877	24.983	1057.648	857.567
23.892	25.002	1056.796	856.891
24.907	24.893	1056.183	855.799
25.921	25.004	1055.591	855.772
26.936	24.896	1054.533	854.321
27.950	24.904	1053.243	853.242
28.965	24.922	1052.430	852.592
29.980	24.798	1050.656	850.490
30.994	24.757	1049.725	849.466
32.009	25.006	1048.651	849.704
33.023	25.024	1048.499	849.592
34.038	24.830	1047.403	847.706
35.053	24.800	1046.139	846.469
36.067	24.940	1045.832	846.810
37.082	24.921	1045.138	846.083
38.096	24.940	1044.504	845.584
39.111	25.090	1043.743	845.601
40.126	25.234	1042.927	845.541
41.140	25.169	1041.503	844.009
42.155	24.860	1040.225	841.442
43.169	24.622	1039.057	839.306
44.184	24.648	1037.422	838.035
45.199	24.630	1036.946	837.489
46.213	24.555	1035.764	836.110
47.228	24.569	1035.015	835.498
48.242	24.751	1034.436	835.807
49.257	24.819	1033.889	835.611
50.271	24.898	1032.675	834.921
51.286	24.997	1032.168	834.898
52.301	25.043	1032.014	834.917
53.315	25.059	1030.795	833.930
54.330	25.013	1030.186	833.152
55.344	24.999	1029.158	832.181
56.359	24.907	1028.333	831.012
57.374	24.948	1027.354	830.337
58.388	24.841	1026.140	828.786
59.403	24.607	1026.066	827.573
60.417	24.733	1025.174	827.359
61.432	24.510	1024.188	825.461
62.447	24.524	1023.931	825.245
63.461	24.656	1023.447	825.393
64.476	24.725	1022.483	824.862
65.490	24.731	1021.272	823.838
66.505	24.536	1020.701	822.408
67.520	24.617	1020.131	822.247
68.534	24.797	1018.842	821.964
69.549	24.630	1017.876	820.342
70.563	24.262	1017.126	817.978
71.578	24.144	1016.386	816.768
72.593	24.303	1015.263	816.523
73.607	24.060	1013.968	814.297
74.622	24.127	1013.411	814.083
75.636	24.370	1013.054	814.837
76.651	24.517	1012.170	814.723
77.666	24.367	1011.209	813.193
78.680	24.326	1010.204	812.128
79.695	24.305	1009.837	811.664
80.709	24.356	1009.172	811.293
81.724	24.676	1008.179	811.876
82.739	24.502	1007.425	810.405
83.753	24.431	1007.020	809.685
84.768	24.817	1006.517	810.960
85.782	25.228	1004.997	811.523
86.797	25.447	1004.820	812.299
87.812	25.284	1004.252	811.032
88.826	25.082	1003.337	809.307
89.841	25.162	1002.302	808.763
90.855	25.150	1001.699	808.153
91.870	25.146	1000.946	807.454
92.884	25.281	1000.100	807.305
93.899	25.071	999.321	805.661
94.914	24.956	998.544	804.449
95.928	25.063	997.752	804.222
96.943	25.223	996.527	803.877
97.957	24.875	995.148	801.139
98.972	24.731	994.362	799.789
99.987	24.520	993.146	797.799
101.001	24.604	992.445	797.541
102.016	24.935	992.450	798.950
103.030	24.941	991.327	798.000
104.045	24.930	990.049	796.852
105.060	24.745	989.047	795.156
106.074	24.565	987.969	793.417
107.089	24.530	987.685	792.963
108.103	24.906	987.202	794.173
109.118	24.952	986.340	793.612
110.133	24.786	984.802	791.572
111.147	24.635	984.038	790.222
112.162	24.420	982.897	788.283
113.176	24.376	981.804	787.146
114.191	24.458	981.232	786.977
115.206	24.604	980.384	786.869
116.220	24.242	979.057	784.144
117.235	24.086	978.313	782.792
118.249	24.188	977.992	782.916
119.264	24.275	977.095	782.511
120.279	24.269	975.842	781.412
121.293	24.317	975.223	781.057
122.308	24.239	974.954	780.429
123.322	24.266	973.671	779.453
124.337	24.418	972.453	779.071
125.352	24.286	971.187	777.414
126.366	23.845	969.688	774.223
127.381	23.455	968.676	771.650
128.395	24.050	968.410	773.957
129.410	24.674	968.107	776.360
130.424	24.746	967.388	776.028
131.439	24.900	965.947	775.467
132.454	24.917	964.816	774.564
133.468	24.728	964.330	773.291
134.483	24.653	964.025	772.654
135.497	24.688	962.934	771.861
136.512	25.001	962.605	772.881
137.527	25.102	961.785	772.586
138.541	25.043	960.655	771.360
139.556	25.138	960.004	771.176
140.570	25.029	959.574	770.294
141.585	25.066	958.277	769.341
142.600	25.073	958.168	769.218
143.614	25.158	956.786	768.406
144.629	25.190	956.154	767.967
145.643	25.465	955.781	768.777
146.658	25.283	954.371	766.796
147.673	25.208	953.006	765.313
148.687	25.183	951.567	763.982
149.702	24.958	951.229	762.684
150.716	24.783	950.292	761.120
151.731	24.922	948.992	760.601
152.746	25.004	948.235	760.278
153.760	25.084	947.926	760.300
154.775	25.170	947.556	760.304
155.789	25.233	946.617	759.746
156.804	25.385	945.191	759.178
157.819	25.212	944.068	757.477
158.833	25.285	943.266	757.075
159.848	25.209	943.605	756.959
160.862	25.331	942.438	756.473
161.877	25.281	941.464	755.411
162.892	25.235	940.554	754.424
163.906	25.191	940.086	753.796
164.921	25.239	939.261	753.269
165.935	25.187	937.826	751.833
166.950	25.146	937.029	750.955
167.964	25.172	936.113	750.264
168.979	25.198	934.978	749.397
169.994	25.159	934.064	748.437
171.008	25.016	933.068	746.976
172.023	25.150	932.570	747.066
173.037	25.293	931.961	747.109
174.052	25.123	930.981	745.551
175.067	25.082	929.298	743.967
176.081	24.897	929.092	742.967
177.096	25.001	927.950	742.419
178.110	25.059	927.510	742.244
179.125	24.837	926.505	740.456
180.140	24.608	925.019	738.255
181.154	24.644	924.580	737.987
182.169	24.713	924.072	737.802
183.183	24.922	923.954	738.506
184.198	25.266	923.440	739.447
185.213	25.218	922.889	738.743
186.227	25.174	922.291	738.016
187.242	25.146	922.025	737.623
188.256	25.207	921.082	737.056
189.271	25.248	920.216	736.466
190.286	25.379	919.661	736.493
191.300	25.173	918.746	734.850
192.315	24.661	917.272	731.513
193.329	23.846	915.706	726.868
194.344	23.443	914.561	724.250
195.359	24.010	915.384	727.156
196.373	24.918	915.428	730.834
197.388	25.225	914.980	731.661
198.402	24.891	914.442	729.807
199.417	25.033	913.998	729.968
200.432	25.160	913.282	729.848
201.446	25.025	912.461	728.577
202.461	24.771	911.921	727.049
203.475	24.784	911.510	726.711
204.490	24.346	910.003	723.666
205.504	23.199	908.081	717.430
206.519	23.712	907.499	718.981
207.534	24.677	907.978	723.204
208.548	24.612	907.636	722.605
209.563	24.984	907.441	723.888
210.577	25.126	906.622	723.746
211.592	24.907	905.510	721.911
212.607	25.179	905.911	723.263
213.621	25.448	905.032	723.580
214.636	25.129	904.543	721.841
215.650	25.412	903.935	722.431
216.665	25.260	903.275	721.228
217.680	25.371	902.923	721.329
218.694	25.387	902.461	720.962
219.709	25.128	901.533	719.116
220.723	24.641	900.933	716.623
221.738	24.930	899.981	716.958
222.753	25.075	899.598	717.172
223.767	24.996	898.798	716.156
224.782	25.110	898.309	716.156
225.796	25.226	897.683	716.058
226.811	25.444	897.144	716.433
227.826	25.118	895.553	713.803
228.840	24.150	894.365	708.940
229.855	24.137	893.846	708.414
230.869	24.373	893.257	708.824
231.884	24.129	892.193	706.948
232.899	23.965	892.108	706.169
233.913	24.856	892.448	709.908
234.928	25.111	891.629	710.207
235.942	24.906	891.158	708.957
236.957	24.987	890.732	708.876
237.972	24.656	889.548	706.561
238.986	24.596	888.762	705.640
240.001	24.693	888.494	705.748
241.015	24.812	887.704	705.524
242.030	24.851	886.887	704.968
243.045	25.036	886.594	705.402
244.059	25.095	886.313	705.345
245.074	25.291	885.816	705.660
246.088	25.236	884.689	704.482
247.103	24.797	884.071	702.204
248.117	24.835	883.463	701.812
249.132	25.351	883.342	703.677
250.147	25.811	883.498	705.541
251.161	25.801	882.908	704.965
252.176	25.997	882.420	705.279
253.190	25.960	881.818	704.593
254.205	25.890	881.332	703.870
255.220	26.236	881.063	704.944
256.234	26.246	880.239	704.261
257.249	26.174	879.317	703.181
258.263	25.919	879.057	701.916
259.278	26.029	877.979	701.422
260.293	26.047	878.121	701.544
261.307	26.118	877.443	701.213
262.322	25.931	877.044	700.108
263.336	25.965	875.847	699.219
264.351	25.463	874.272	695.960
265.366	24.323	872.652	690.198
266.380	23.781	871.892	687.441
267.395	24.711	872.658	691.582
268.409	25.547	872.511	694.635
269.424	25.718	871.466	694.400
270.439	25.722	870.971	693.962
271.453	25.788	870.888	694.088
272.468	25.800	870.074	693.423
273.482	26.055	869.343	693.762
274.497	26.086	868.820	693.403
275.512	25.762	868.358	691.729
276.526	25.261	866.878	688.566
277.541	25.443	866.352	688.783
278.555	25.866	866.358	690.349
279.570	25.662	865.511	688.832
280.585	25.445	864.759	687.341
281.599	25.505	864.396	687.222
282.614	25.677	864.027	687.524
283.628	25.257	862.683	684.793
284.643	24.847	862.233	682.813
285.657	25.253	862.129	684.215
286.672	25.231	861.179	683.319
287.687	24.677	860.212	680.383
288.701	25.057	860.411	681.928
289.716	25.437	860.203	683.146
290.730	25.135	859.130	681.088
291.745	25.043	858.162	679.912
292.760	24.979	857.196	678.843
293.774	24.868	856.703	677.970
294.789	25.603	857.674	681.466
295.803	26.288	857.594	683.934
296.818	26.199	857.146	683.183
297.833	26.336	856.875	683.423
298.847	26.018	855.681	681.209
299.862	25.696	854.612	679.084
300.876	25.972	854.122	679.676
301.891	26.282	853.469	680.262
302.906	26.394	853.233	680.435
303.920	25.955	852.391	678.053
304.935	25.932	851.307	677.045
305.949	26.314	851.112	678.263
306.964	26.453	850.587	678.304
307.979	26.090	849.964	676.389
308.993	26.022	849.749	675.904
310.008	26.322	849.735	676.956
311.022	26.545	849.166	677.275
312.037	26.417	847.946	675.767
313.052	26.115	847.572	674.279
314.066	25.989	846.811	673.146
315.081	25.314	845.384	669.436
316.095	24.500	843.911	665.179
317.110	25.050	844.602	667.714
318.125	25.952	844.829	671.195
319.139	25.416	843.923	668.422
320.154	24.313	842.184	662.886
321.168	23.886	841.029	660.335
322.183	24.635	841.054	663.076
323.197	25.597	841.556	666.981
324.212	25.944	841.152	667.887
325.227	26.065	841.037	668.184
326.241	26.161	840.653	668.175
327.256	25.952	840.224	667.004
328.270	25.804	839.309	665.672
329.285	25.817	838.744	665.212
330.300	25.661	837.781	663.813
331.314	25.493	836.869	662.415
332.329	25.578	836.510	662.382
333.343	25.939	836.213	663.419
334.358	26.193	836.144	664.240
335.373	26.183	835.367	663.527
336.387	26.214	834.792	663.124
337.402	26.633	834.410	664.299
338.416	26.690	834.161	664.252
339.431	26.726	833.570	663.856
340.446	26.649	833.144	663.174
341.460	26.893	832.950	663.853
342.475	26.816	832.285	662.986
343.489	26.535	831.685	661.422
344.504	26.665	830.628	660.996
345.519	26.771	830.907	661.545
346.533	26.956	830.515	661.852
347.548	27.146	829.535	661.704
348.562	27.097	829.429	661.380
349.577	26.993	828.989	660.595
350.592	26.946	828.075	659.638
351.606	26.954	827.667	659.282
352.621	26.872	827.472	658.772
353.635	26.838	826.889	658.125
354.650	26.664	826.360	657.015
355.665	26.460	825.378	655.438
356.679	25.435	823.704	650.340
357.694	25.305	822.838	649.128
358.708	26.086	822.738	651.815
359.723	25.913	822.342	650.819
360.738	25.997	822.643	651.305
361.752	26.528	822.054	652.694
362.767	26.596	821.709	652.608
363.781	26.892	821.969	653.826
364.796	27.340	821.391	654.920
365.810	27.374	821.102	654.753
366.825	27.415	821.190	654.915
367.840	27.372	820.497	654.149
368.854	27.308	819.940	653.415
369.869	26.754	819.148	650.740
370.883	26.630	818.494	649.719
371.898	26.783	817.766	649.632
372.913	26.680	816.809	648.444
373.927	26.609	816.222	647.666
374.942	26.751	815.987	647.930
375.956	26.995	815.698	648.514
376.971	27.053	815.086	648.178
377.986	27.245	814.401	648.262
379.000	27.339	814.105	648.303
380.015	27.332	813.520	647.754
381.029	27.150	812.866	646.528
382.044	27.141	812.186	645.899
383.059	27.356	811.750	646.258
384.073	27.394	811.160	645.867
385.088	27.408	810.712	645.504
386.102	27.211	810.491	644.572
387.117	27.138	809.975	643.845
388.132	26.968	809.137	642.521
389.146	26.828	808.189	641.216
390.161	26.226	807.475	638.464
391.175	26.487	807.041	638.986
392.190	26.835	807.351	640.406
393.205	26.967	806.543	640.173
394.219	25.941	805.058	635.323
395.234	24.410	802.354	627.751
396.248	23.626	801.397	624.191
397.263	24.549	802.904	628.561
398.278	26.565	803.866	636.355
399.292	26.757	804.096	637.155
400.307	26.601	803.195	635.838
401.321	26.506	803.015	635.305
402.336	26.717	802.372	635.479
403.350	26.890	802.221	635.909
404.365	27.350	801.988	637.281
405.380	27.724	802.013	638.552
406.394	28.024	801.624	639.237
407.409	28.180	801.267	639.441
408.423	28.077	800.770	638.627
409.438	27.869	800.426	637.571
410.453	27.904	800.089	637.367
411.467	28.169	799.472	637.745
412.482	27.938	798.940	636.459
413.496	27.966	798.328	636.010
414.511	28.226	797.970	636.574
415.526	27.913	798.130	635.555
416.540	28.053	797.432	635.433
417.555	27.858	796.843	634.228
418.569	27.759	796.139	633.267
419.584	27.700	795.384	632.406
420.599	27.831	794.941	632.452
421.613	110.790	1286.176	1461.052
422.628	95.399	1357.715	1461.149
