DTS Sentinel unit serial number:	SN413079Multiplexer serial number:	ORYXHardware model number:	OX4-SRSoftware version number:	ORYX F/W v4.00 Oryx Data Collector v3.7.2.0data status	okinstallation	princeton_trtdifferential loss correction	single-endedforward channel	channel 3reverse channel	N/Adate	2019/09/12time	05:30:11forward acquisition time	60.00reverse acquisition time	0.00gamma	496.2192k internal	0.2321k external	0.2321temperature offset calibration	1.0035default loss term (dB/km)	0.3790temperature slope calibration	1.0000multiplexer offset coefficient	1.0000multiplexer slope coefficient	1.0000fibre end	0.00T internal ref (°C)	31.94T ext. ref 1 (°C)	1.61T ext. ref 2 (°C)	27.42length (m)	temperature (°C)	Stokes	anti-Stokes-747.200	800.000	-0.097	0.297
-746.185	104.184	0.116	0.138
-745.171	29.498	-0.228	-0.196
-744.156	-145.436	-0.225	-0.020
-743.142	-95.380	0.246	0.067
-742.127	75.641	-0.214	0.229
-741.112	-94.207	-0.154	0.043
-740.098	213.800	-0.138	0.221
-739.083	800.000	0.023	-0.098
-738.069	136.732	-0.138	0.182
-737.054	0.561	-0.164	-0.118
-736.039	-168.670	-0.604	-0.023
-735.025	81.985	0.342	0.374
-734.010	-66.375	-0.175	-0.070
-732.996	-1.847	-0.194	-0.138
-731.981	0.277	-0.150	-0.108
-730.966	-200.000	-0.029	-0.177
-729.952	800.000	0.058	-0.168
-728.937	150.195	0.090	-0.123
-727.923	-115.380	-0.188	0.036
-726.908	-181.758	-0.420	-0.008
-725.894	-138.744	0.316	-0.035
-724.879	-3.360	-0.129	0.091
-723.864	-111.060	-0.017	-0.004
-722.850	-134.719	0.030	0.004
-721.835	-52.399	-0.132	-0.062
-720.821	800.000	-0.098	0.356
-719.806	-200.000	-0.027	-0.190
-718.791	-123.239	-0.064	-0.010
-717.777	218.602	0.194	-0.313
-716.762	48.247	-0.175	-0.165
-715.748	800.000	-0.057	-0.242
-714.733	61.267	-0.181	-0.182
-713.718	800.000	-0.028	0.102
-712.704	-38.996	-0.335	-0.178
-711.689	-97.602	0.268	0.070
-710.675	-200.000	-0.019	0.130
-709.660	-110.774	-0.065	0.014
-708.645	-99.052	-0.135	0.034
-707.631	475.614	0.102	-0.232
-706.616	800.000	0.075	0.265
-705.602	-200.000	-0.078	0.522
-704.587	373.544	0.153	0.314
-703.572	410.224	0.122	0.262
-702.558	800.000	-0.066	-0.209
-701.543	53.584	0.124	-0.120
-700.529	175.127	-0.120	-0.176
-699.514	-200.000	-0.002	-0.035
-698.499	-187.605	0.565	-0.008
-697.485	138.789	-0.099	-0.132
-696.470	-23.792	-0.262	0.159
-695.456	-111.712	-0.135	0.028
-694.441	-121.640	0.223	-0.037
-693.426	302.555	0.132	0.246
-692.412	226.452	0.154	0.252
-691.397	-43.957	0.142	-0.072
-690.383	197.402	-0.023	0.036
-689.368	-200.000	-0.004	-0.046
-688.354	-200.000	-0.014	-0.277
-687.339	-200.000	0.036	-0.191
-686.324	-70.557	-0.129	0.049
-685.310	-200.000	0.059	-0.272
-684.295	9.542	-0.220	-0.168
-683.281	73.822	0.170	-0.180
-682.266	-30.915	-0.350	0.200
-681.251	-200.000	-0.011	0.113
-680.237	230.665	0.204	0.337
-679.222	20.388	-0.285	-0.232
-678.208	-200.000	-0.054	0.271
-677.193	37.257	0.196	-0.175
-676.178	176.559	0.043	-0.064
-675.164	-200.000	0.002	0.062
-674.149	187.975	-0.124	0.186
-673.135	154.325	-0.163	0.226
-672.120	53.820	-0.201	0.195
-671.105	225.447	-0.100	-0.163
-670.091	-200.000	-0.008	-0.241
-669.076	-163.129	-0.131	0.006
-668.062	-46.527	-0.252	-0.125
-667.047	800.000	0.057	-0.174
-666.032	-99.043	-0.282	-0.072
-665.018	189.040	0.129	-0.194
-664.003	-144.045	0.279	0.026
-662.989	193.269	0.094	0.144
-661.974	147.005	0.130	-0.176
-660.959	-200.000	0.029	0.130
-659.945	-200.000	0.002	-0.184
-658.930	-194.619	0.035	0.000
-657.916	-200.000	0.012	0.192
-656.901	219.233	-0.182	-0.294
-655.886	10.446	0.142	0.109
-654.872	127.236	-0.115	-0.147
-653.857	800.000	0.092	-0.303
-652.843	-151.673	0.090	0.007
-651.828	258.330	-0.132	-0.228
-650.814	43.286	0.228	-0.210
-649.799	194.814	-0.109	0.167
-648.784	-50.388	0.147	-0.070
-647.770	206.901	0.134	-0.211
-646.755	108.650	0.229	-0.275
-645.741	-200.000	0.282	-0.001
-644.726	-103.891	0.570	-0.134
-643.711	-200.000	-0.032	-0.421
-642.697	186.487	-0.118	0.177
-641.682	-189.651	-0.269	-0.003
-640.668	-183.393	-0.168	0.003
-639.653	-200.000	0.045	0.248
-638.638	-200.000	-0.024	-0.140
-637.624	-75.201	0.138	0.050
-636.609	172.456	-0.230	-0.333
-635.595	-171.284	-0.198	0.007
-634.580	-200.000	-0.047	-0.228
-633.565	-200.000	0.010	-0.049
-632.551	800.000	0.037	0.129
-631.536	-120.565	-0.100	0.017
-630.522	-200.000	-0.009	0.090
-629.507	-12.585	-0.124	-0.081
-628.492	800.000	-0.045	-0.184
-627.478	-30.584	-0.210	0.120
-626.463	558.391	0.081	0.196
-625.449	-81.696	-0.215	0.071
-624.434	800.000	0.052	-0.215
-623.419	167.441	-0.112	0.159
-622.405	-149.389	-0.154	-0.012
-621.390	-200.000	0.008	-0.101
-620.376	-139.067	0.276	0.030
-619.361	34.556	-0.236	-0.207
-618.346	-200.000	-0.053	-0.383
-617.332	-33.766	0.075	-0.042
-616.317	229.049	-0.017	0.028
-615.303	800.000	0.067	0.212
-614.288	-49.878	0.039	0.019
-613.273	-52.744	0.273	0.127
-612.259	118.922	0.085	-0.105
-611.244	-173.341	-0.330	-0.010
-610.230	44.808	0.217	0.201
-609.215	91.161	-0.300	0.339
-608.201	-39.174	0.218	0.115
-607.186	-48.898	-0.320	0.154
-606.171	-130.808	-0.283	-0.038
-605.157	-200.000	-0.014	0.263
-604.142	148.911	-0.065	0.089
-603.128	393.408	-0.030	0.063
-602.113	-137.239	-0.350	0.040
-601.098	789.202	0.055	-0.151
-600.084	-200.000	-0.111	-0.559
-599.069	-200.000	0.003	0.276
-598.055	96.272	0.211	-0.243
-597.040	-33.497	-0.076	-0.042
-596.025	-95.360	0.375	-0.101
-595.011	-19.816	-0.097	-0.060
-593.996	177.989	0.106	0.155
-592.982	-200.000	0.040	-0.217
-591.967	340.923	-0.035	0.068
-590.952	287.583	-0.021	0.039
-589.938	-14.745	-0.178	-0.115
-588.923	-76.169	0.223	-0.079
-587.909	800.000	0.211	0.607
-586.894	-31.386	-0.299	-0.169
-585.879	-168.845	0.255	-0.010
-584.865	-200.000	-0.033	0.187
-583.850	180.829	-0.064	0.094
-582.836	-79.551	0.429	0.145
-581.821	800.000	-0.075	-0.226
-580.806	406.077	0.080	-0.170
-579.792	2.336	-0.216	-0.157
-578.777	3.441	0.089	0.065
-577.763	-137.345	0.397	0.045
-576.748	-200.000	-0.006	0.353
-575.733	402.877	-0.104	-0.220
-574.719	-168.300	-0.264	-0.010
-573.704	800.000	0.051	-0.189
-572.690	-40.947	0.288	0.150
-571.675	-131.330	-0.166	-0.022
-570.661	-200.000	-0.048	0.224
-569.646	-200.000	-0.021	-0.316
-568.631	192.856	0.062	0.094
-567.617	-69.542	-0.025	-0.010
-566.602	-143.230	-0.051	0.005
-565.588	-200.000	-0.002	0.140
-564.573	166.841	0.141	0.201
-563.558	314.757	-0.025	-0.048
-562.544	366.949	-0.232	-0.469
-561.529	-200.000	0.019	0.231
-560.515	800.000	0.091	-0.313
-559.500	10.825	0.106	-0.081
-558.485	19.303	0.030	-0.024
-557.471	143.947	-0.075	-0.101
-556.456	-155.554	0.190	-0.012
-555.442	-24.024	-0.220	-0.132
-554.427	-200.000	0.020	-0.197
-553.412	-200.000	-0.057	-0.305
-552.398	-42.824	-0.318	-0.162
-551.383	721.599	0.115	-0.308
-550.369	210.596	-0.227	-0.357
-549.354	66.995	-0.031	0.031
-548.339	-200.000	0.032	0.203
-547.325	-200.000	0.045	-0.374
-546.310	-52.516	-0.216	0.100
-545.296	-8.312	-0.285	-0.192
-544.281	-200.000	0.019	-0.113
-543.266	-59.511	0.209	0.090
-542.252	92.987	0.169	-0.191
-541.237	9.942	-0.109	-0.083
-540.223	13.163	-0.033	-0.025
-539.208	800.000	-0.064	0.222
-538.193	-200.000	0.006	-0.176
-537.179	62.553	-0.061	-0.061
-536.164	800.000	-0.012	-0.054
-535.150	-200.000	0.028	0.183
-534.135	-34.048	0.126	0.070
-533.121	-200.000	-0.012	-0.389
-532.106	-81.618	0.106	-0.035
-531.091	-200.000	0.066	0.331
-530.077	800.000	0.093	0.396
-529.062	131.100	0.152	0.195
-528.048	-68.191	-0.359	0.140
-527.033	-200.000	-0.020	-0.106
-526.018	116.299	0.333	-0.409
-525.004	172.065	0.066	0.095
-523.989	-123.724	-0.242	0.038
-522.975	-200.000	0.001	0.067
-521.960	-87.493	0.160	-0.049
-520.945	129.014	-0.468	0.598
-519.931	-17.805	0.274	0.172
-518.916	-63.767	0.229	0.094
-517.902	-50.834	-0.172	0.081
-516.887	800.000	-0.040	-0.169
-515.872	20.185	0.235	-0.190
-514.858	14.574	0.075	0.059
-513.843	-200.000	0.014	0.195
-512.829	185.382	-0.034	-0.050
-511.814	-37.007	0.027	0.014
-510.799	626.179	-0.073	0.185
-509.785	-137.643	-0.183	-0.021
-508.770	116.711	-0.268	-0.330
-507.756	-143.807	0.213	-0.020
-506.741	-80.826	-0.146	0.048
-505.726	-147.234	0.386	-0.033
-504.712	-24.031	0.134	0.080
-503.697	0.803	-0.311	-0.223
-502.683	800.000	-0.024	-0.083
-501.668	-200.000	0.060	-0.311
-500.653	-152.882	0.199	0.014
-499.639	6.216	-0.349	-0.259
-498.624	800.000	0.038	0.118
-497.610	-99.443	-0.126	0.032
-496.595	113.983	-0.033	0.040
-495.581	-130.203	0.151	-0.021
-494.566	41.615	-0.118	0.107
-493.551	213.376	-0.154	0.244
-492.537	800.000	-0.082	0.347
-491.522	-47.942	0.173	-0.084
-490.508	-22.811	0.340	-0.205
-489.493	-170.861	0.082	0.003
-488.478	42.335	0.212	-0.193
-487.464	800.000	-0.096	-0.268
-486.449	88.978	0.100	-0.111
-485.435	-50.216	-0.054	-0.025
-484.420	192.630	-0.057	-0.085
-483.405	588.498	-0.069	0.170
-482.391	660.568	-0.081	0.208
-481.376	52.272	0.077	0.073
-480.362	179.438	0.189	0.277
-479.347	800.000	-0.104	-0.373
-478.332	-104.211	-0.208	-0.048
-477.318	-11.780	-0.364	0.239
-476.303	-200.000	-0.024	-0.146
-475.289	-200.000	0.022	0.219
-474.274	800.000	-0.046	0.149
-473.259	800.000	-0.095	0.285
-472.245	298.687	0.082	0.151
-471.230	386.073	-0.122	-0.251
-470.216	743.396	0.083	0.223
-469.201	65.418	-0.136	-0.138
-468.186	557.505	-0.140	0.338
-467.172	-21.684	0.078	-0.048
-466.157	382.488	0.045	-0.093
-465.143	173.756	-0.130	0.187
-464.128	-200.000	-0.021	0.110
-463.113	-43.609	0.075	0.038
-462.099	623.245	0.050	-0.125
-461.084	-115.309	-0.344	-0.065
-460.070	-200.000	-0.002	0.183
-459.055	-200.000	0.044	-0.273
-458.040	-141.015	0.111	0.011
-457.026	571.766	0.128	-0.311
-456.011	-200.000	-0.014	0.323
-454.997	-137.355	0.300	0.034
-453.982	-200.000	0.033	0.343
-452.968	800.000	-0.063	0.178
-451.953	-80.782	0.080	-0.026
-450.938	-111.990	0.113	0.023
-449.924	-200.000	0.080	0.477
-448.909	-14.646	0.288	0.185
-447.895	411.861	0.117	-0.248
-446.880	-79.838	0.203	-0.068
-445.865	-200.000	-0.014	-0.137
-444.851	-186.740	-0.275	-0.004
-443.836	-94.425	-0.280	-0.076
-442.822	-3.773	-0.221	0.153
-441.807	-29.953	-0.319	0.182
-440.792	-200.000	-0.103	-0.455
-439.778	-126.726	0.340	-0.050
-438.763	-200.000	0.051	-0.245
-437.749	170.318	-0.275	-0.393
-436.734	153.409	0.108	-0.148
-435.719	-70.961	0.100	0.038
-434.705	-123.837	0.211	-0.033
-433.690	-113.757	-0.345	0.067
-432.676	-53.101	0.354	0.162
-431.661	-39.483	0.119	0.062
-430.646	-147.663	0.046	-0.004
-429.632	800.000	0.053	0.186
-428.617	-84.574	0.066	-0.021
-427.603	23.147	0.190	-0.156
-426.588	88.503	-0.220	0.244
-425.573	8.039	-0.227	-0.170
-424.559	647.341	-0.083	-0.211
-423.544	488.283	0.111	-0.254
-422.530	-200.000	-0.010	0.275
-421.515	243.325	-0.053	0.089
-420.500	-200.000	0.057	0.249
-419.486	-7.808	0.120	0.081
-418.471	202.350	0.101	-0.156
-417.457	800.000	-0.040	0.129
-416.442	10.219	-0.135	0.103
-415.428	5.608	-0.132	0.097
-414.413	-114.994	0.042	0.008
-413.398	-200.000	-0.008	0.037
-412.384	88.024	-0.079	-0.087
-411.369	-99.248	0.186	0.047
-410.355	70.067	0.136	-0.140
-409.340	167.377	0.138	-0.196
-408.325	-200.000	-0.025	-0.130
-407.311	-200.000	-0.043	-0.302
-406.296	-72.596	0.141	-0.052
-405.282	-52.616	0.134	-0.062
-404.267	-200.000	0.016	-0.178
-403.252	-52.183	-0.126	0.058
-402.238	-48.168	-0.089	0.043
-401.223	184.749	-0.113	-0.167
-400.209	-37.157	-0.128	0.068
-399.194	-168.459	0.078	-0.003
-398.179	-120.900	0.196	0.033
-397.165	-200.000	0.009	0.176
-396.150	-130.698	-0.061	0.008
-395.136	-135.072	-0.118	0.014
-394.121	-200.000	-0.038	-0.229
-393.106	-82.473	-0.192	0.062
-392.092	-47.001	0.442	0.215
-391.077	800.000	-0.026	0.091
-390.063	-56.606	-0.256	-0.113
-389.048	45.951	-0.186	0.172
-388.033	-0.697	0.223	-0.157
-387.019	-200.000	-0.031	-0.214
-386.004	-121.619	0.316	-0.052
-384.990	-71.763	-0.234	-0.087
-383.975	-39.248	-0.403	-0.211
-382.960	-104.185	-0.179	0.041
-381.946	-8.239	0.185	0.124
-380.931	-19.680	-0.073	-0.045
-379.917	390.276	0.142	0.293
-378.902	-108.130	0.197	-0.042
-377.888	-42.379	0.161	-0.082
-376.873	-54.873	-0.172	-0.077
-375.858	61.481	0.045	-0.045
-374.844	287.067	-0.082	-0.148
-373.829	-50.753	0.356	-0.167
-372.815	-110.175	-0.301	0.063
-371.800	259.036	0.146	-0.251
-370.785	85.664	-0.180	-0.197
-369.771	-105.810	-0.160	-0.036
-368.756	800.000	0.048	-0.175
-367.742	260.890	0.075	-0.130
-366.727	-99.453	-0.118	0.029
-365.712	9.636	-0.146	-0.110
-364.698	222.534	0.169	0.271
-363.683	800.000	-0.082	0.286
-362.669	-50.426	0.284	-0.133
-361.654	-108.096	0.432	-0.093
-360.639	469.751	0.176	-0.395
-359.625	800.000	0.072	-0.217
-358.610	-0.874	-0.158	-0.111
-357.596	-200.000	0.008	0.319
-356.581	143.056	-0.080	-0.106
-355.566	800.000	-0.078	0.278
-354.552	-200.000	-0.045	0.242
-353.537	6.289	0.034	-0.025
-352.523	-105.214	0.099	0.023
-351.508	72.763	0.260	-0.270
-350.493	-58.811	-0.155	0.067
-349.479	-13.545	-0.333	-0.215
-348.464	-62.291	0.314	-0.130
-347.450	-11.266	-0.180	-0.118
-346.435	29.005	0.330	-0.279
-345.420	-116.046	0.156	0.029
-344.406	584.166	0.030	-0.074
-343.391	800.000	-0.022	0.069
-342.377	2.431	-0.150	0.108
-341.362	168.172	0.257	0.365
-340.348	256.738	0.088	-0.151
-339.333	-200.000	-0.026	-0.169
-338.318	170.313	-0.055	-0.079
-337.304	142.155	0.223	-0.295
-336.289	-200.000	-0.009	0.198
-335.275	-22.090	0.160	0.097
-334.260	402.354	-0.131	0.274
-333.245	11.531	-0.111	0.084
-332.231	-149.552	0.232	0.018
-331.216	-90.584	0.181	-0.052
-330.202	41.167	0.029	-0.026
-329.187	-176.583	-0.389	0.010
-328.172	236.282	0.040	0.066
-327.158	77.159	0.139	0.147
-326.143	170.649	-0.081	-0.115
-325.129	800.000	-0.086	0.336
-324.114	30.313	0.187	-0.159
-323.099	-37.518	0.182	0.096
-322.085	84.881	-0.134	0.146
-321.070	-23.292	0.178	0.107
-320.056	-36.097	0.274	-0.147
-319.041	38.033	-0.273	0.241
-318.026	411.493	-0.163	-0.343
-317.012	800.000	-0.025	-0.097
-315.997	-92.537	0.398	0.111
-314.983	378.132	0.165	-0.336
-313.968	-90.699	0.209	0.060
-312.953	172.419	-0.107	0.153
-311.939	-139.239	0.173	0.019
-310.924	607.121	0.050	0.123
-309.910	-200.000	0.055	0.439
-308.895	-200.000	-0.032	-0.214
-307.880	457.883	-0.113	0.250
-306.866	28.110	-0.053	0.045
-305.851	800.000	0.055	-0.184
-304.837	133.032	-0.172	-0.220
-303.822	-171.443	0.430	0.014
-302.807	800.000	-0.041	0.148
-301.793	102.980	-0.286	0.333
-300.778	225.749	-0.089	0.144
-299.764	-32.959	-0.314	0.173
-298.749	-96.854	-0.285	0.074
-297.735	-165.014	0.144	0.006
-296.720	-61.782	0.265	0.110
-295.705	-48.776	-0.267	-0.127
-294.691	-200.000	0.002	0.076
-293.676	104.455	-0.303	0.354
-292.662	195.598	0.091	-0.137
-291.647	-97.128	-0.256	0.067
-290.632	94.787	0.090	0.101
-289.618	286.696	-0.076	-0.136
-288.603	-200.000	-0.017	0.132
-287.589	-102.559	-0.235	0.056
-286.574	-200.000	-0.014	0.254
-285.559	-73.984	-0.150	-0.054
-284.545	-75.132	0.101	-0.036
-283.530	-200.000	-0.041	-0.283
-282.516	-159.838	-0.245	0.013
-281.501	-12.037	-0.221	-0.143
-280.486	17.278	0.265	-0.209
-279.472	204.083	-0.020	-0.031
-278.457	161.607	-0.128	0.178
-277.443	-106.692	-0.391	-0.086
-276.428	20.297	0.215	0.172
-275.413	77.715	0.068	0.072
-274.399	279.398	0.110	0.195
-273.384	31.742	-0.433	-0.370
-272.370	131.900	0.070	0.090
-271.355	-39.991	0.132	0.068
-270.340	83.295	0.070	-0.076
-269.326	137.676	0.066	0.086
-268.311	-200.000	0.019	0.143
-267.297	-85.537	0.413	0.127
-266.282	20.280	-0.033	0.026
-265.267	-58.566	-0.335	0.144
-264.253	252.311	0.061	-0.102
-263.238	-200.000	-0.008	0.216
-262.224	6.731	0.187	0.138
-261.209	800.000	-0.042	0.117
-260.195	87.583	-0.190	0.209
-259.180	29.955	-0.212	-0.179
-258.165	800.000	0.025	-0.094
-257.151	-149.743	0.316	-0.025
-256.136	-25.153	0.263	0.155
-255.122	-200.000	0.028	-0.148
-254.107	-136.025	-0.204	-0.024
-253.092	800.000	-0.024	0.103
-252.078	-15.918	0.149	0.094
-251.063	-16.746	-0.397	0.249
-250.049	16.219	0.030	-0.023
-249.034	82.515	0.125	0.134
-248.019	173.763	0.109	-0.156
-247.005	183.545	0.184	0.270
-245.990	-158.194	-0.079	0.005
-244.976	-200.000	-0.001	0.260
-243.961	-200.000	0.003	-0.027
-242.946	-84.368	0.103	-0.032
-241.932	-60.703	-0.226	0.095
-240.917	-200.000	-0.135	-0.000
-239.903	-109.621	0.316	0.066
-238.888	-119.165	-0.125	-0.022
-237.873	9.825	0.328	-0.246
-236.859	-82.888	-0.153	0.049
-235.844	-120.295	-0.433	0.073
-234.830	-116.470	0.148	0.027
-233.815	35.170	-0.303	0.263
-232.800	-200.000	0.033	0.241
-231.786	-200.000	-0.055	0.372
-230.771	-7.839	-0.206	-0.137
-229.757	-110.287	-0.496	-0.102
-228.742	-200.000	-0.018	0.193
-227.727	105.004	-0.091	-0.107
-226.713	-200.000	0.027	-0.130
-225.698	-120.243	0.127	0.022
-224.684	-123.340	0.324	0.051
-223.669	-200.000	0.053	0.481
-222.655	77.332	0.199	0.209
-221.640	-200.000	0.055	-0.445
-220.625	-76.261	0.348	0.121
-219.611	-35.795	-0.114	-0.061
-218.596	69.095	0.102	0.104
-217.582	-148.902	-0.237	0.019
-216.567	800.000	-0.098	0.276
-215.552	-200.000	-0.046	0.475
-214.538	57.417	0.200	0.193
-213.523	76.390	0.067	-0.071
-212.509	-69.373	0.183	0.069
-211.494	352.959	-0.054	-0.107
-210.479	9.450	0.162	-0.121
-209.465	187.366	0.080	-0.118
-208.450	-200.000	0.012	-0.139
-207.436	-129.217	0.100	-0.014
-206.421	-49.789	-0.288	0.135
-205.406	21.043	0.204	-0.164
-204.392	471.490	0.034	-0.076
-203.377	-142.644	0.133	-0.013
-202.363	332.777	-0.105	0.201
-201.348	-200.000	-0.052	-0.277
-200.333	800.000	-0.045	0.129
-199.319	22.706	0.078	-0.063
-198.304	-200.000	-0.079	-0.359
-197.290	609.407	0.037	0.092
-196.275	72.329	-0.080	0.082
-195.260	-200.000	-0.070	-0.389
-194.246	-118.584	0.166	-0.029
-193.231	-3.769	-0.214	0.147
-192.217	-200.000	0.009	0.138
-191.202	-183.366	0.120	-0.002
-190.187	-200.000	-0.026	-0.271
-189.173	-200.000	0.016	0.305
-188.158	448.698	-0.119	0.260
-187.144	800.000	-0.143	0.494
-186.129	-200.000	-0.009	0.039
-185.114	314.923	0.061	0.114
-184.100	125.380	0.289	-0.360
-183.085	-97.119	-0.395	-0.102
-182.071	-177.055	-0.066	-0.002
-181.056	317.068	-0.102	-0.191
-180.042	74.994	-0.292	-0.304
-179.027	-200.000	0.033	-0.291
-178.012	363.701	0.071	-0.142
-176.998	-44.539	-0.092	0.046
-175.983	98.730	0.115	0.132
-174.969	16.791	-0.080	-0.062
-173.954	9.996	0.195	-0.146
-172.939	-200.000	0.036	-0.463
-171.925	-200.000	-0.026	0.473
-170.910	565.993	-0.038	-0.092
-169.896	39.185	0.235	0.208
-168.881	61.496	-0.201	-0.198
-167.866	800.000	-0.098	-0.306
-166.852	-127.602	-0.210	0.030
-165.837	800.000	0.067	-0.287
-164.823	800.000	0.067	0.187
-163.808	800.000	-0.109	-0.356
-162.793	367.931	-0.016	0.032
-161.779	-55.238	-0.288	0.128
-160.764	752.204	0.153	-0.409
-159.750	43.948	0.395	0.358
-158.735	505.482	0.084	0.192
-157.720	-200.000	-0.023	-0.195
-156.706	114.159	0.230	0.277
-155.691	27.046	0.157	0.130
-154.677	451.964	0.143	0.312
-153.662	128.580	-0.147	0.185
-152.647	99.868	-0.121	-0.139
-151.633	-200.000	0.082	-0.392
-150.618	17.476	0.183	0.144
-149.604	224.079	0.097	0.154
-148.589	519.922	-0.140	0.325
-147.574	-94.132	0.346	0.094
-146.560	-68.175	-0.100	-0.038
-145.545	-200.000	-0.000	-0.080
-144.531	230.420	-0.087	-0.140
-143.516	-62.005	0.079	-0.033
-142.502	589.423	0.040	0.097
-141.487	138.181	0.159	0.206
-140.472	-36.137	0.110	-0.059
-139.458	75.336	-0.160	0.167
-138.443	-78.823	-0.232	0.078
-137.429	-117.182	-0.161	0.029
-136.414	144.842	-0.066	0.087
-135.399	-200.000	-0.002	-0.392
-134.385	800.000	-0.012	-0.052
-133.370	-60.973	-0.440	-0.183
-132.356	149.884	-0.087	-0.117
-131.341	169.827	0.200	0.281
-130.326	-29.054	0.279	-0.158
-129.312	61.332	0.142	-0.139
-128.297	134.749	-0.234	-0.300
-127.283	-125.851	-0.226	0.034
-126.268	383.546	0.070	-0.143
-125.253	-73.109	-0.391	-0.141
-124.239	-200.000	0.023	0.163
-123.224	30.778	0.492	-0.415
-122.210	-31.487	0.172	0.095
-121.195	-175.483	-0.371	-0.010
-120.180	-99.558	0.395	-0.098
-119.166	-115.295	0.022	0.004
-118.151	35.022	-0.111	0.096
-117.137	-104.124	0.323	-0.074
-116.122	40.729	-0.285	-0.254
-115.107	154.710	0.207	0.281
-114.093	69.632	-0.147	0.150
-113.078	412.564	-0.021	-0.044
-112.064	282.506	-0.104	-0.183
-111.049	7.521	-0.415	0.306
-110.034	-38.023	-0.233	-0.122
-109.020	170.964	0.106	-0.149
-108.005	40.414	-0.160	0.142
-106.991	29.502	0.184	-0.154
-105.976	60.669	0.184	0.180
-104.962	430.008	0.052	0.111
-103.947	87.707	0.125	0.136
-102.932	311.558	0.183	0.339
-101.918	-98.520	-0.036	0.009
-100.903	368.990	0.028	-0.057
-99.889	185.909	0.016	-0.023
-98.874	-116.008	-0.114	0.021
-97.859	50.627	-0.242	-0.226
-96.845	229.762	-0.106	0.171
-95.830	647.249	0.135	0.340
-94.816	157.824	-0.165	0.225
-93.801	800.000	-0.026	-0.101
-92.786	11.642	-0.153	0.116
-91.772	-130.721	0.293	-0.039
-90.757	-200.000	-0.042	-0.199
-89.743	361.503	0.163	0.323
-88.728	-52.280	0.124	0.057
-87.713	-200.000	0.013	0.357
-86.699	-200.000	0.009	-0.246
-85.684	252.552	0.185	0.310
-84.670	121.132	-0.093	-0.114
-83.655	-88.620	0.330	0.097
-82.640	555.685	0.035	0.084
-81.626	-69.665	-0.218	-0.082
-80.611	-30.060	-0.073	0.041
-79.597	-200.000	-0.038	0.199
-78.582	83.563	0.097	0.105
-77.567	275.411	-0.061	0.106
-76.553	800.000	0.043	0.170
-75.538	-43.242	-0.187	0.093
-74.524	-200.000	-0.030	0.141
-73.509	-200.000	-0.018	0.341
-72.494	-25.090	0.226	-0.132
-71.480	-200.000	0.001	-0.113
-70.465	800.000	0.072	0.249
-69.451	800.000	0.077	-0.299
-68.436	-59.946	0.331	-0.139
-67.422	-200.000	0.014	0.064
-66.407	134.704	0.091	0.116
-65.392	-52.059	0.215	0.098
-64.378	800.000	0.046	-0.145
-63.363	-91.646	0.143	-0.040
-62.349	-200.000	0.035	0.291
-61.334	42.658	-1.083	-0.970
-60.319	32.020	0.536	0.454
-59.305	-200.000	-0.052	-0.682
-58.290	446.242	0.480	1.039
-57.276	800.000	0.489	1.480
-56.261	-200.000	96.045	599.495
-55.246	564.995	1369.536	3265.842
-54.232	161.824	2547.078	3508.525
-53.217	112.818	2159.275	2573.163
-52.203	42.786	1703.915	1526.943
-51.188	35.106	1517.218	1307.408
-50.173	32.731	1491.357	1269.107
-49.159	52.313	1540.386	1445.175
-48.144	54.296	1557.898	1475.102
-47.130	35.336	1517.236	1308.790
-46.115	32.107	1503.103	1274.671
-45.100	32.024	1499.411	1270.923
-44.086	31.975	1497.667	1269.068
-43.071	31.950	1495.644	1267.131
-42.057	31.926	1493.778	1265.338
-41.042	31.969	1492.818	1264.766
-40.027	31.979	1491.373	1263.560
-39.013	31.948	1489.685	1261.866
-37.998	31.859	1489.152	1260.769
-36.984	31.937	1487.636	1259.962
-35.969	31.991	1485.984	1258.872
-34.954	32.008	1484.064	1257.311
-33.940	31.965	1482.812	1255.909
-32.925	31.938	1481.878	1254.893
-31.911	32.038	1480.399	1254.255
-30.896	32.068	1478.771	1253.028
-29.881	32.057	1477.568	1251.884
-28.867	32.017	1476.141	1250.360
-27.852	31.984	1475.002	1249.123
-26.838	32.008	1473.654	1248.094
-25.823	31.955	1471.666	1246.010
-24.809	32.060	1469.873	1245.138
-23.794	31.949	1468.735	1243.388
-22.779	31.933	1467.838	1242.478
-21.765	31.907	1466.909	1241.464
-20.750	32.016	1465.445	1240.897
-19.736	31.942	1464.549	1239.603
-18.721	31.891	1463.819	1238.595
-17.706	31.943	1462.357	1237.652
-16.692	31.878	1461.474	1236.431
-15.677	32.011	1459.832	1235.871
-14.663	31.859	1459.307	1234.375
-13.648	31.911	1458.049	1233.605
-12.633	31.906	1457.194	1232.797
-11.619	31.825	1457.012	1232.062
-10.604	31.943	1455.590	1231.586
-9.590	31.872	1454.785	1230.389
-8.575	31.903	1454.020	1229.898
-7.560	31.931	1452.884	1229.070
-6.546	31.805	1452.140	1227.564
-5.531	31.841	1451.460	1227.182
-4.517	31.785	1450.228	1225.723
-3.502	31.778	1449.284	1224.833
-2.487	31.845	1448.013	1224.144
-1.473	31.847	1447.011	1223.261
-0.458	31.781	1445.927	1221.866
0.556	31.807	1436.512	1211.674
1.571	29.173	1411.394	1173.624
2.586	26.018	1356.079	1108.183
3.600	24.686	1276.729	1035.530
4.615	23.250	1230.028	989.546
5.629	19.483	1171.777	922.505
6.644	9.756	1084.816	805.601
7.659	2.680	1044.306	741.330
8.673	1.693	1038.803	732.610
9.688	1.580	1035.669	729.793
10.702	1.628	1033.722	728.588
11.717	1.549	1031.822	726.806
12.731	4.353	1035.433	742.720
13.746	14.041	1048.792	799.009
14.761	22.350	1059.923	847.613
15.775	24.705	1062.037	860.579
16.790	25.120	1061.442	862.013
17.804	24.925	1060.725	860.421
18.819	24.634	1060.361	858.650
19.834	24.840	1059.298	858.703
20.848	25.026	1059.033	859.301
21.863	25.090	1058.822	859.361
22.877	25.100	1058.348	858.949
23.892	24.856	1057.740	857.209
24.907	24.888	1056.934	856.634
25.921	24.851	1056.875	856.335
26.936	24.870	1055.514	855.249
27.950	24.870	1054.359	854.236
28.965	24.924	1053.195	853.475
29.980	24.764	1051.827	851.529
30.994	24.809	1050.393	850.507
32.009	25.040	1049.760	851.016
33.023	25.033	1049.632	850.805
34.038	24.942	1048.190	849.127
35.053	24.792	1047.579	847.846
36.067	24.922	1047.155	848.045
37.082	24.965	1046.162	847.371
38.096	25.012	1045.378	846.879
39.111	25.167	1044.556	846.872
40.126	25.306	1043.593	846.671
41.140	25.146	1042.679	845.101
42.155	24.915	1040.948	842.535
43.169	24.632	1039.735	840.149
44.184	24.501	1039.064	838.921
45.199	24.526	1038.177	838.244
46.213	24.526	1036.890	837.131
47.228	24.595	1035.858	836.548
48.242	24.683	1035.371	836.492
49.257	24.787	1034.788	836.433
50.271	24.780	1034.005	835.696
51.286	24.931	1033.594	835.994
52.301	25.083	1032.073	835.399
53.315	24.963	1031.827	834.564
54.330	24.984	1031.095	833.996
55.344	24.909	1030.103	832.773
56.359	24.883	1029.364	831.978
57.374	24.894	1028.348	831.137
58.388	24.836	1027.172	829.845
59.403	24.708	1026.453	828.595
60.417	24.672	1026.221	828.170
61.432	24.447	1025.149	826.187
62.447	24.597	1024.536	826.313
63.461	24.771	1023.903	826.536
64.476	24.734	1023.542	826.001
65.490	24.651	1022.399	824.622
66.505	24.716	1021.068	823.776
67.520	24.572	1020.530	822.604
68.534	24.684	1020.192	822.775
69.549	24.531	1019.733	821.629
70.563	24.290	1017.787	818.883
71.578	24.145	1017.107	817.597
72.593	24.231	1016.381	817.335
73.607	24.095	1015.174	815.667
74.622	24.183	1013.744	814.849
75.636	24.352	1013.995	815.755
76.651	24.592	1013.060	816.024
77.666	24.434	1011.943	814.330
78.680	24.301	1011.410	813.227
79.695	24.335	1010.703	812.739
80.709	24.392	1010.249	812.561
81.724	24.567	1009.248	812.481
82.739	24.626	1008.152	811.795
83.753	24.645	1007.274	811.103
84.768	24.891	1007.140	812.037
85.782	25.100	1006.542	812.430
86.797	25.350	1005.883	812.958
87.812	25.300	1004.880	811.852
88.826	25.093	1004.036	810.161
89.841	24.973	1003.682	809.264
90.855	25.266	1002.450	809.522
91.870	25.225	1002.237	809.091
92.884	25.213	1001.120	808.064
93.899	24.984	1000.250	806.257
94.914	24.973	999.011	805.140
95.928	25.072	998.275	804.920
96.943	25.153	997.641	804.700
97.957	24.793	996.726	802.279
98.972	24.717	995.177	800.621
99.987	24.442	993.869	798.268
101.001	24.647	993.487	798.803
102.016	24.879	993.270	799.598
103.030	24.960	992.339	799.138
104.045	24.774	991.553	797.604
105.060	24.871	990.071	796.776
106.074	24.641	988.629	794.521
107.089	24.569	988.412	793.958
108.103	24.857	988.302	795.075
109.118	25.004	986.967	794.586
110.133	24.839	985.427	792.546
111.147	24.729	984.641	791.354
112.162	24.503	983.672	789.508
113.176	24.360	982.590	787.938
114.191	24.573	981.936	788.285
115.206	24.692	981.017	788.002
116.220	24.441	980.028	786.029
117.235	24.098	979.146	783.746
118.249	24.183	978.917	783.867
119.264	24.318	978.240	783.846
120.279	24.211	977.091	782.388
121.293	24.223	975.962	781.469
122.308	24.337	975.630	781.633
123.322	24.320	974.842	780.858
124.337	24.355	973.469	779.843
125.352	24.251	972.256	778.346
126.366	23.828	970.838	775.300
127.381	23.606	969.259	773.000
128.395	23.939	969.731	774.759
129.410	24.597	969.596	777.447
130.424	24.707	968.943	777.333
131.439	24.808	967.559	776.594
132.454	24.818	966.445	775.674
133.468	24.862	965.340	774.908
134.483	24.729	964.976	773.972
135.497	24.755	964.119	773.330
136.512	24.965	964.195	774.231
137.527	24.929	963.468	773.421
138.541	25.075	962.312	773.056
139.556	25.162	961.614	772.802
140.570	25.084	960.706	771.667
141.585	25.183	959.698	771.214
142.600	25.065	959.172	770.217
143.614	25.211	957.550	769.474
144.629	25.157	957.704	769.298
145.643	25.357	957.388	769.831
146.658	25.307	955.952	768.394
147.673	25.170	954.999	766.974
148.687	24.966	953.959	765.200
149.702	24.964	952.555	763.998
150.716	24.949	951.518	763.035
151.731	24.815	950.725	761.764
152.746	25.002	950.158	762.034
153.760	25.074	949.610	761.834
154.775	25.094	949.012	761.375
155.789	25.270	947.958	761.206
156.804	25.185	947.235	760.197
157.819	25.247	945.975	759.380
158.833	25.306	945.113	758.873
159.848	25.313	944.695	758.497
160.862	25.331	944.277	758.172
161.877	25.442	942.678	757.290
162.892	25.285	941.620	755.713
163.906	25.296	941.177	755.334
164.921	25.317	939.867	754.305
165.935	25.057	939.314	752.702
166.950	25.222	938.303	752.518
167.964	25.223	937.536	751.841
168.979	25.210	936.292	750.722
169.994	25.076	935.277	749.280
171.008	24.988	934.475	748.208
172.023	25.231	934.046	748.808
173.037	25.357	933.222	748.607
174.052	25.254	931.903	747.056
175.067	24.915	930.937	744.804
176.081	24.804	930.244	743.722
177.096	24.925	929.692	743.718
178.110	25.108	928.753	743.661
179.125	24.863	927.554	741.621
180.140	24.590	926.446	739.538
181.154	24.637	925.603	738.994
182.169	24.660	925.517	738.955
183.183	24.885	924.977	739.391
184.198	25.182	924.895	740.486
185.213	25.097	924.238	739.541
186.227	25.180	923.153	738.951
187.242	25.197	922.920	738.767
188.256	25.252	922.392	738.506
189.271	25.284	921.328	737.723
190.286	25.391	920.548	737.471
191.300	25.065	919.903	735.551
192.315	24.601	918.289	732.294
193.329	23.840	916.862	727.978
194.344	23.498	915.381	725.338
195.359	24.025	916.196	728.076
196.373	24.893	916.560	731.850
197.388	25.254	916.049	732.853
198.402	25.271	915.154	732.141
199.417	24.993	914.972	730.798
200.432	25.032	914.670	730.649
201.446	25.052	913.603	729.815
202.461	24.693	912.954	727.771
203.475	24.821	912.248	727.662
204.490	24.420	910.762	724.785
205.504	23.278	909.008	718.695
206.519	23.684	908.529	719.896
207.534	24.653	909.043	724.170
208.548	24.778	908.454	724.142
209.563	24.982	908.855	725.225
210.577	25.064	907.586	724.478
211.592	24.759	906.902	722.638
212.607	25.418	906.863	725.205
213.621	25.296	906.639	724.467
214.636	25.354	905.142	723.439
215.650	25.284	904.698	722.738
216.665	25.262	904.128	722.133
217.680	25.355	903.724	722.120
218.694	25.264	903.687	721.659
219.709	24.951	902.678	719.531
220.723	24.709	901.373	717.460
221.738	24.826	901.268	717.781
222.753	25.070	900.541	718.116
223.767	24.919	899.981	717.000
224.782	25.257	898.741	717.303
225.796	25.435	898.541	717.788
226.811	25.553	897.877	717.666
227.826	25.117	896.711	714.931
228.840	24.338	895.292	710.637
229.855	24.125	894.891	709.406
230.869	24.400	894.462	710.097
231.884	24.086	893.586	708.091
232.899	24.104	892.903	707.558
233.913	24.915	893.406	711.119
234.928	25.065	892.837	711.198
235.942	25.050	892.138	710.517
236.957	25.127	891.077	709.915
237.972	24.713	890.389	707.665
238.986	24.478	890.012	706.373
240.001	24.696	889.689	706.917
241.015	24.719	888.906	706.324
242.030	24.910	887.891	706.208
243.045	24.965	887.574	706.108
244.059	25.054	886.775	705.763
245.074	25.244	886.994	706.621
246.088	25.149	886.261	705.602
247.103	24.863	884.901	703.333
248.117	24.785	884.660	702.773
249.132	25.321	885.134	705.192
250.147	25.784	884.344	706.318
251.161	25.916	883.948	706.457
252.176	25.996	883.377	706.249
253.190	26.083	882.728	706.011
254.205	26.010	882.565	705.532
255.220	26.219	882.107	705.918
256.234	26.176	881.402	705.125
257.249	25.975	880.789	703.790
258.263	25.798	880.241	702.598
259.278	25.936	879.425	702.422
260.293	25.994	879.181	702.389
261.307	26.190	878.316	702.399
262.322	25.997	877.596	701.012
263.336	25.983	876.799	700.257
264.351	25.365	875.810	697.009
265.366	24.348	873.693	691.323
266.380	23.945	872.699	688.915
267.395	24.802	873.099	692.488
268.409	25.454	873.426	695.212
269.424	25.483	872.627	694.623
270.439	25.580	872.158	694.564
271.453	25.829	871.421	694.877
272.468	25.836	870.932	694.452
273.482	26.007	870.317	694.561
274.497	26.027	870.045	694.359
275.512	25.874	869.206	693.040
276.526	25.373	867.724	689.873
277.541	25.381	867.763	689.871
278.555	25.777	867.822	691.380
279.570	25.592	866.781	689.778
280.585	25.570	865.827	688.875
281.599	25.521	865.543	688.401
282.614	25.701	865.213	688.767
283.628	25.268	863.811	685.933
284.643	25.052	862.888	684.315
285.657	25.437	862.980	685.796
286.672	25.241	861.966	684.182
287.687	24.805	860.919	681.631
288.701	25.036	861.252	682.715
289.716	25.622	860.729	684.470
290.730	25.179	859.656	681.872
291.745	25.069	859.241	681.064
292.760	24.805	858.372	679.315
293.774	24.702	857.695	678.326
294.789	25.761	858.481	682.908
295.803	26.217	858.405	684.516
296.818	26.318	857.499	684.116
297.833	26.400	857.587	684.434
298.847	26.157	856.147	682.308
299.862	25.770	855.469	680.244
300.876	25.911	854.992	680.336
301.891	26.241	854.562	681.178
302.906	26.339	854.151	681.161
303.920	25.954	852.715	678.508
304.935	25.878	852.284	677.820
305.949	26.333	852.159	679.369
306.964	26.383	851.507	678.977
307.979	26.131	850.688	677.318
308.993	26.074	850.716	677.067
310.008	26.268	850.482	677.549
311.022	26.481	850.004	677.906
312.037	26.329	849.210	676.644
313.052	26.107	848.556	675.234
314.066	26.091	847.600	674.353
315.081	25.289	846.551	670.465
316.095	24.478	845.160	666.275
317.110	25.017	845.336	668.367
318.125	26.167	845.447	672.683
319.139	25.624	844.201	669.612
320.154	24.473	842.360	663.814
321.168	23.896	841.790	661.164
322.183	24.607	841.775	663.736
323.197	25.606	841.912	667.492
324.212	25.863	841.953	668.422
325.227	25.978	841.706	668.591
326.241	26.297	841.143	669.270
327.256	26.099	840.836	668.229
328.270	26.052	839.868	667.227
329.285	25.932	839.392	666.348
330.300	25.750	838.259	664.716
331.314	25.450	838.019	663.362
332.329	25.542	837.266	663.045
333.343	25.917	836.869	664.054
334.358	26.146	837.091	665.016
335.373	26.159	836.584	664.603
336.387	26.262	835.431	664.006
337.402	26.462	835.447	664.696
338.416	26.742	835.051	665.347
339.431	26.703	834.699	664.864
340.446	26.721	833.778	664.138
341.460	26.838	833.984	664.673
342.475	26.904	833.020	664.088
343.489	26.619	832.145	662.290
344.504	26.588	831.816	661.855
345.519	26.771	831.802	662.457
346.533	26.961	831.399	662.768
347.548	27.291	830.520	663.212
348.562	27.103	830.155	662.178
349.577	26.878	829.854	661.060
350.592	26.964	829.056	660.679
351.606	26.948	829.141	660.628
352.621	27.016	828.094	659.983
353.635	26.871	827.518	658.939
354.650	26.859	826.420	657.965
355.665	26.587	825.755	656.391
356.679	25.540	824.007	651.155
357.694	25.234	824.188	650.130
358.708	26.009	823.914	652.661
359.723	25.902	823.283	651.719
360.738	26.224	822.647	652.321
361.752	26.590	823.026	653.885
362.767	26.634	822.868	653.860
363.781	26.921	822.675	654.683
364.796	27.241	822.471	655.617
365.810	27.349	821.737	655.362
366.825	27.431	821.747	655.610
367.840	27.372	821.264	654.954
368.854	27.087	820.460	653.230
369.869	26.639	819.653	650.921
370.883	26.552	818.965	650.005
371.898	26.778	818.508	650.392
372.913	26.650	817.863	649.367
373.927	26.637	817.293	648.810
374.942	26.883	816.604	649.085
375.956	27.018	815.874	648.929
376.971	27.100	815.428	648.809
377.986	27.095	815.395	648.710
379.000	27.302	814.615	648.768
380.015	27.199	814.726	648.433
381.029	27.103	813.558	647.102
382.044	27.057	813.103	646.522
383.059	27.233	812.564	646.661
384.073	27.374	811.807	646.503
385.088	27.330	811.688	646.195
386.102	27.121	811.664	645.376
387.117	27.000	810.729	644.145
388.132	27.034	809.735	643.419
389.146	26.918	808.878	642.271
390.161	26.375	808.027	639.617
391.175	26.357	807.960	639.445
392.190	26.742	808.119	640.877
393.205	26.932	807.390	640.912
394.219	25.921	805.623	635.886
395.234	24.336	802.922	628.121
396.248	23.606	802.323	625.028
397.263	24.684	803.125	629.397
398.278	26.461	804.592	636.751
399.292	26.908	804.257	638.001
400.307	26.378	804.232	636.062
401.321	26.491	803.332	635.692
402.336	26.661	802.996	635.966
403.350	26.885	802.900	636.620
404.365	27.473	802.516	638.320
405.380	27.605	802.799	638.950
406.394	27.756	802.949	639.544
407.409	28.295	801.883	640.522
408.423	28.106	801.568	639.553
409.438	27.873	801.067	638.282
410.453	27.909	800.712	638.070
411.467	28.052	800.404	638.267
412.482	27.907	799.882	637.289
413.496	28.000	799.505	637.255
414.511	28.068	798.951	636.993
415.526	27.999	798.366	636.232
416.540	27.993	798.099	635.941
417.555	28.029	797.364	635.424
418.569	27.774	796.755	633.998
419.584	27.615	796.186	632.936
420.599	27.709	795.843	632.936
421.613	110.561	1286.346	1460.547
422.628	95.195	1357.850	1460.638
