DTS Sentinel unit serial number:	SN413079Multiplexer serial number:	ORYXHardware model number:	OX4-SRSoftware version number:	ORYX F/W v4.00 Oryx Data Collector v3.7.2.0data status	okinstallation	princeton_trtdifferential loss correction	single-endedforward channel	channel 3reverse channel	N/Adate	2019/09/11time	11:50:11forward acquisition time	60.00reverse acquisition time	0.00gamma	496.2192k internal	0.2291k external	0.2291temperature offset calibration	0.9944default loss term (dB/km)	0.3790temperature slope calibration	1.0000multiplexer offset coefficient	1.0000multiplexer slope coefficient	1.0000fibre end	0.00T internal ref (°C)	38.81T ext. ref 1 (°C)	0.19T ext. ref 2 (°C)	36.81length (m)	temperature (°C)	Stokes	anti-Stokes-747.200	78.432	-0.099	-0.108
-746.185	768.667	0.123	0.342
-745.171	-200.000	0.031	-0.206
-744.156	-87.159	-0.118	-0.037
-743.142	35.139	-0.296	-0.265
-742.127	276.647	-0.102	-0.186
-741.112	-99.511	-0.077	-0.020
-740.098	310.976	-0.024	0.046
-739.083	326.721	0.053	0.103
-738.069	252.717	0.092	0.161
-737.054	-15.647	-0.255	-0.166
-736.039	51.164	0.067	0.065
-735.025	-109.573	0.283	-0.061
-734.010	117.896	-0.220	-0.278
-732.996	-86.880	-0.207	0.065
-731.981	355.855	0.212	-0.433
-730.966	-200.000	-0.006	-0.108
-729.952	-55.260	-0.060	0.027
-728.937	213.396	-0.189	-0.306
-727.923	-173.067	0.076	-0.002
-726.908	-131.830	-0.080	0.011
-725.894	108.106	-0.060	-0.073
-724.879	-82.586	-0.120	-0.040
-723.864	309.904	0.089	-0.170
-722.850	476.393	0.087	-0.202
-721.835	-59.739	0.383	-0.168
-720.821	-179.225	0.030	-0.001
-719.806	263.486	-0.033	-0.059
-718.791	800.000	-0.023	0.082
-717.777	-92.658	-0.427	-0.122
-716.762	-200.000	-0.033	0.216
-715.748	567.707	0.155	-0.386
-714.733	661.397	0.114	0.300
-713.718	800.000	-0.055	0.187
-712.704	-16.162	-0.230	0.149
-711.689	-200.000	0.037	0.274
-710.675	800.000	-0.032	0.116
-709.660	-157.301	0.213	0.013
-708.645	-101.473	0.243	0.060
-707.631	-38.076	-0.198	0.107
-706.616	-92.922	0.211	-0.060
-705.602	-91.565	0.046	0.013
-704.587	800.000	-0.075	0.238
-703.572	-181.004	-0.246	-0.005
-702.558	-126.984	-0.133	-0.020
-701.543	10.286	0.387	-0.301
-700.529	235.348	-0.053	0.089
-699.514	56.270	-0.296	0.294
-698.499	116.077	-0.181	0.227
-697.485	673.676	0.080	-0.213
-696.470	-200.000	0.012	0.129
-695.456	-55.989	-0.179	-0.081
-694.441	122.556	0.075	0.096
-693.426	99.042	-0.168	0.199
-692.412	-5.570	-0.177	-0.124
-691.397	-120.227	-0.229	0.040
-690.383	24.966	-0.161	-0.136
-689.368	-200.000	-0.025	-0.217
-688.354	176.098	0.139	0.206
-687.339	-129.777	-0.120	-0.017
-686.324	-71.552	-0.341	-0.130
-685.310	800.000	0.105	-0.343
-684.295	-13.386	-0.133	-0.088
-683.281	-13.234	0.192	0.127
-682.266	-139.147	0.275	0.030
-681.251	800.000	-0.086	-0.281
-680.237	-119.455	-0.447	-0.079
-679.222	-180.077	0.138	-0.003
-678.208	423.494	-0.029	-0.065
-677.193	-171.383	-0.082	0.003
-676.178	39.776	0.309	0.283
-675.164	635.677	-0.107	-0.277
-674.149	800.000	0.044	-0.167
-673.135	384.589	-0.152	0.321
-672.120	-101.717	0.202	-0.050
-671.105	-39.966	-0.096	-0.051
-670.091	-52.739	0.096	-0.045
-669.076	-59.331	0.126	0.055
-668.062	-38.133	-0.184	0.100
-667.047	717.989	0.022	-0.061
-666.032	-133.246	-0.153	-0.020
-665.018	-200.000	-0.026	-0.222
-664.003	65.413	0.070	-0.073
-662.989	-125.672	-0.189	-0.029
-661.974	-135.177	-0.417	0.051
-660.959	47.216	0.207	-0.197
-659.945	-148.792	0.037	-0.003
-658.930	-6.445	-0.133	-0.093
-657.916	211.652	-0.173	0.277
-656.901	-79.480	-0.212	-0.073
-655.886	800.000	0.067	-0.190
-654.872	-113.666	0.281	0.056
-653.857	117.709	-0.150	0.189
-652.843	-80.277	0.356	-0.122
-651.828	505.516	-0.157	-0.371
-650.814	-200.000	0.057	-0.355
-649.799	126.429	-0.082	0.106
-648.784	-79.225	-0.147	-0.051
-647.770	-26.342	-0.191	-0.114
-646.755	-18.140	0.221	-0.141
-645.741	-200.000	-0.005	-0.301
-644.726	-200.000	0.014	-0.254
-643.711	62.905	0.204	0.208
-642.697	309.668	-0.067	0.129
-641.682	88.800	-0.119	-0.135
-640.668	-200.000	-0.003	-0.325
-639.653	78.955	-0.165	-0.180
-638.638	-200.000	-0.011	-0.197
-637.624	84.386	-0.143	-0.159
-636.609	-94.809	-0.314	-0.087
-635.595	79.700	-0.097	-0.106
-634.580	-200.000	0.004	-0.230
-633.565	684.045	0.091	-0.242
-632.551	600.250	0.043	-0.108
-631.536	-200.000	-0.021	-0.256
-630.522	-40.373	0.324	-0.172
-629.507	165.459	0.235	-0.339
-628.492	-38.913	-0.455	-0.244
-627.478	4.074	-0.077	0.058
-626.463	131.878	-0.084	-0.110
-625.449	793.977	-0.025	-0.071
-624.434	135.349	-0.181	-0.240
-623.419	67.205	0.157	0.163
-622.405	800.000	-0.091	-0.325
-621.390	33.334	0.126	0.112
-620.376	800.000	0.097	0.286
-619.361	800.000	-0.031	-0.098
-618.346	326.871	-0.115	-0.225
-617.332	-11.237	0.065	0.044
-616.317	-200.000	0.028	-0.199
-615.303	-200.000	-0.021	-0.155
-614.288	-35.799	-0.078	-0.043
-613.273	-200.000	-0.006	-0.214
-612.259	-106.300	-0.136	-0.031
-611.244	39.638	0.079	-0.073
-610.230	-200.000	-0.052	-0.236
-609.215	-175.642	0.266	0.007
-608.201	-7.556	0.128	-0.088
-607.186	-96.933	-0.089	0.024
-606.171	800.000	-0.055	-0.192
-605.157	-200.000	0.045	-0.264
-604.142	-200.000	0.017	0.107
-603.128	279.921	-0.095	-0.173
-602.113	69.759	-0.164	0.172
-601.098	-86.227	0.294	0.092
-600.084	93.369	0.170	0.196
-599.069	800.000	-0.096	0.279
-598.055	39.869	0.132	-0.121
-597.040	229.753	0.007	-0.012
-596.025	-82.799	-0.179	-0.059
-595.011	180.564	0.099	-0.147
-593.996	342.063	-0.208	-0.415
-592.982	16.357	0.148	-0.119
-591.967	-68.199	0.162	0.064
-590.952	-100.512	-0.314	0.079
-589.938	199.197	-0.149	-0.233
-588.923	-200.000	0.069	-0.350
-587.909	-64.610	-0.353	0.146
-586.894	-42.380	-0.221	-0.115
-585.879	-102.694	-0.173	-0.042
-584.865	140.344	0.164	0.220
-583.850	-117.680	-0.475	0.087
-582.836	432.607	0.114	-0.252
-581.821	-200.000	-0.015	-0.179
-580.806	331.709	0.117	-0.229
-579.792	50.612	-0.150	-0.145
-578.777	-200.000	-0.025	-0.314
-577.763	-200.000	0.031	0.190
-576.748	-160.067	-0.052	-0.003
-575.733	-82.868	0.214	0.070
-574.719	-200.000	0.021	0.237
-573.704	78.345	-0.198	0.215
-572.690	-60.255	-0.075	-0.033
-571.675	-56.015	0.630	0.285
-570.661	60.805	-0.155	-0.156
-569.646	-163.856	-0.355	0.017
-568.631	245.325	-0.164	0.280
-567.617	-26.665	0.305	-0.182
-566.602	9.742	0.075	0.058
-565.588	800.000	-0.078	0.224
-564.573	800.000	0.058	0.187
-563.558	190.122	0.116	0.177
-562.544	-58.542	0.269	0.119
-561.529	-101.492	-0.106	-0.026
-560.515	-33.130	-0.250	0.141
-559.500	800.000	-0.054	-0.182
-558.485	-200.000	0.010	0.173
-557.471	-200.000	0.023	0.280
-556.456	-72.451	-0.136	0.051
-555.442	-103.417	-0.134	-0.032
-554.427	-116.305	-0.181	-0.034
-553.412	-112.256	-0.184	-0.038
-552.398	620.361	0.038	0.098
-551.383	-61.688	-0.051	0.022
-550.369	-33.750	0.075	0.042
-549.354	370.454	0.108	-0.223
-548.339	-38.219	0.269	0.145
-547.325	-200.000	0.035	-0.176
-546.310	-63.551	-0.176	0.074
-545.296	14.887	-0.115	0.091
-544.281	-200.000	-0.033	0.206
-543.266	-44.295	-0.136	0.069
-542.252	89.648	0.180	0.204
-541.237	-70.296	0.302	0.116
-540.223	-121.744	-0.252	0.042
-539.208	183.044	-0.275	0.413
-538.193	49.766	-0.320	-0.306
-537.179	-200.000	-0.028	0.189
-536.164	-200.000	-0.025	-0.174
-535.150	-151.447	0.216	-0.016
-534.135	569.399	0.054	0.133
-533.121	365.903	-0.057	-0.117
-532.106	297.387	0.039	-0.072
-531.091	-195.759	0.266	-0.002
-530.077	-200.000	0.023	0.275
-529.062	-200.000	0.018	-0.159
-528.048	-200.000	0.022	-0.182
-527.033	287.817	0.067	-0.123
-526.018	-47.887	-0.292	-0.143
-525.004	800.000	-0.019	0.067
-523.989	259.874	-0.121	0.212
-522.975	-120.450	-0.299	-0.052
-521.960	220.114	-0.056	-0.091
-520.945	-200.000	-0.013	0.170
-519.931	-200.000	-0.001	-0.239
-518.916	2.866	0.445	0.328
-517.902	409.158	0.142	0.305
-516.887	800.000	-0.062	-0.212
-515.872	-44.178	-0.043	-0.022
-514.858	-170.644	0.147	0.005
-513.843	89.885	0.323	0.366
-512.829	-50.169	0.151	0.072
-511.814	800.000	-0.057	-0.172
-510.799	-101.838	-0.167	-0.041
-509.785	17.941	0.168	0.136
-508.770	13.011	-0.130	-0.102
-507.756	-149.100	-0.426	-0.035
-506.741	-200.000	-0.027	0.339
-505.726	52.630	0.284	-0.275
-504.712	-200.000	-0.001	-0.013
-503.697	-200.000	-0.004	-0.095
-502.683	800.000	0.005	-0.015
-501.668	134.211	0.212	-0.279
-500.653	-166.859	0.309	0.013
-499.639	-200.000	0.011	0.063
-498.624	-28.533	0.084	-0.049
-497.610	476.477	0.137	0.315
-496.595	222.315	0.175	0.285
-495.581	-100.715	-0.236	0.059
-494.566	-186.647	0.363	-0.005
-493.551	-71.941	-0.426	-0.161
-492.537	-39.924	0.189	-0.100
-491.522	-81.646	0.287	0.095
-490.508	-200.000	0.023	0.159
-489.493	800.000	-0.009	0.028
-488.478	11.995	-0.233	0.181
-487.464	-71.455	-0.257	-0.097
-486.449	-35.575	-0.412	0.226
-485.435	69.834	0.206	-0.215
-484.420	-200.000	-0.033	0.384
-483.405	800.000	0.058	0.201
-482.391	25.318	-0.209	-0.176
-481.376	42.142	0.222	-0.204
-480.362	-8.410	-0.201	0.137
-479.347	117.782	0.126	-0.157
-478.332	800.000	0.015	0.055
-477.318	35.895	-0.168	-0.150
-476.303	117.373	0.153	-0.190
-475.289	-67.491	0.148	-0.059
-474.274	317.848	0.050	0.096
-473.259	-11.787	0.160	0.106
-472.245	225.774	-0.111	-0.182
-471.230	179.490	-0.133	-0.197
-470.216	243.440	0.162	0.275
-469.201	-200.000	0.043	0.282
-468.186	-129.597	-0.357	-0.050
-467.172	800.000	0.050	-0.159
-466.157	-90.715	-0.042	0.012
-465.143	-200.000	0.006	-0.175
-464.128	47.029	0.360	0.339
-463.113	116.951	0.181	0.225
-462.099	-24.377	-0.328	-0.198
-461.084	-5.823	0.126	0.088
-460.070	-89.310	0.295	0.088
-459.055	19.864	-0.065	0.053
-458.040	-49.363	-0.279	-0.135
-457.026	-200.000	0.043	0.218
-456.011	-61.360	0.189	-0.081
-454.997	-112.044	-0.155	0.032
-453.982	-86.423	-0.268	-0.083
-452.968	-137.095	0.196	-0.023
-451.953	-46.528	-0.146	-0.072
-450.938	-200.000	0.035	0.237
-449.924	-160.648	0.130	-0.007
-448.909	-18.580	-0.135	0.085
-447.895	72.627	0.122	0.129
-446.880	22.417	-0.211	0.174
-445.865	486.818	-0.054	0.125
-444.851	-138.010	0.248	0.028
-443.836	167.763	0.142	0.204
-442.822	701.327	-0.139	-0.370
-441.807	34.169	0.049	0.043
-440.792	35.825	0.352	0.313
-439.778	-114.052	-0.027	0.005
-438.763	800.000	-0.052	-0.163
-437.749	800.000	0.068	-0.194
-436.734	533.966	-0.056	0.134
-435.719	28.221	-0.181	-0.155
-434.705	-25.562	0.101	-0.060
-433.690	170.562	0.066	0.096
-432.676	143.013	-0.044	0.060
-431.661	482.132	0.092	-0.211
-430.646	219.681	-0.163	0.264
-429.632	-200.000	-0.003	-0.281
-428.617	150.949	0.058	0.080
-427.603	-69.490	0.120	0.047
-426.588	-0.772	0.314	-0.225
-425.573	710.517	-0.040	0.108
-424.559	-200.000	0.225	0.000
-423.544	-200.000	-0.054	0.336
-422.530	427.950	0.024	0.052
-421.515	-98.409	0.312	0.081
-420.500	450.845	-0.096	0.215
-419.486	786.866	-0.036	0.099
-418.471	12.883	-0.126	-0.098
-417.457	-44.965	-0.114	-0.058
-416.442	-200.000	0.007	0.068
-415.428	-121.931	0.339	0.056
-414.413	23.920	-0.194	-0.162
-413.398	99.310	0.098	-0.114
-412.384	-44.813	-0.303	-0.153
-411.369	800.000	-0.030	0.087
-410.355	280.799	0.123	-0.223
-409.340	91.160	0.133	-0.151
-408.325	-200.000	0.022	0.170
-407.311	77.614	-0.213	-0.229
-406.296	-1.187	-0.190	-0.136
-405.282	113.924	0.074	0.091
-404.267	-134.944	-0.393	-0.048
-403.252	-200.000	0.054	0.462
-402.238	-71.155	0.123	-0.047
-401.223	192.612	0.166	-0.253
-400.209	-200.000	-0.010	-0.150
-399.194	-38.108	0.351	-0.188
-398.179	99.330	-0.082	-0.096
-397.165	-29.949	0.014	0.008
-396.150	-54.783	-0.148	-0.068
-395.136	-37.110	-0.025	0.013
-394.121	-160.814	0.177	-0.009
-393.106	-41.596	-0.026	0.013
-392.092	-200.000	0.001	0.274
-391.077	228.621	0.220	0.362
-390.063	-41.342	0.374	0.194
-389.048	20.595	-0.078	-0.063
-388.033	-156.056	0.185	-0.012
-387.019	297.204	-0.144	-0.266
-386.004	796.297	0.026	-0.071
-384.990	265.424	-0.053	-0.094
-383.975	505.233	0.023	-0.055
-382.960	-69.837	-0.249	0.096
-381.946	800.000	0.102	0.286
-380.931	-187.367	-0.361	-0.005
-379.917	29.436	-0.249	0.214
-378.902	-200.000	0.009	-0.468
-377.888	-173.927	-0.227	-0.007
-376.873	1.735	0.208	0.151
-375.858	122.886	-0.090	0.114
-374.844	-162.148	0.244	-0.012
-373.829	-106.354	-0.220	-0.050
-372.815	45.269	-0.190	-0.177
-371.800	105.450	0.099	-0.118
-370.785	56.749	-0.178	0.175
-369.771	-200.000	-0.002	-0.245
-368.756	800.000	0.040	0.121
-367.742	-132.517	0.300	-0.039
-366.727	-61.515	-0.102	0.043
-365.712	-74.197	0.280	0.102
-364.698	-29.841	-0.235	0.135
-363.683	89.676	0.134	-0.151
-362.669	352.677	-0.105	-0.211
-361.654	211.149	0.249	-0.395
-360.639	-74.778	0.077	0.028
-359.625	800.000	-0.074	0.320
-358.610	30.624	0.241	0.208
-357.596	-106.956	-0.140	0.031
-356.581	-126.488	0.213	-0.032
-355.566	65.173	-0.073	0.074
-354.552	-64.209	0.280	-0.115
-353.537	34.457	-0.190	-0.167
-352.523	-155.212	0.109	-0.007
-351.508	800.000	-0.050	0.150
-350.493	63.098	0.060	0.060
-349.479	167.287	-0.108	-0.155
-348.464	800.000	-0.080	0.301
-347.450	202.073	0.079	0.124
-346.435	3.422	0.176	-0.129
-345.420	-41.713	0.081	-0.042
-344.406	-44.292	-0.154	0.078
-343.391	800.000	-0.055	0.169
-342.377	51.725	-0.158	-0.151
-341.362	-200.000	-0.040	0.311
-340.348	-125.272	-0.299	-0.046
-339.333	229.690	0.058	-0.096
-338.318	-70.508	-0.316	-0.121
-337.304	156.794	-0.051	-0.071
-336.289	-118.499	0.140	0.025
-335.275	-46.640	0.062	0.031
-334.260	-72.784	-0.267	0.099
-333.245	-200.000	-0.002	-0.031
-332.231	62.023	0.101	0.101
-331.216	146.579	0.058	-0.079
-330.202	-98.589	0.188	0.048
-329.187	-200.000	-0.034	-0.379
-328.172	-200.000	0.009	0.140
-327.158	208.847	-0.234	0.369
-326.143	-200.000	0.135	-0.626
-325.129	109.150	-0.049	-0.059
-324.114	-110.241	-0.412	-0.086
-323.099	227.142	-0.163	0.267
-322.085	-200.000	-0.001	-0.144
-321.070	-200.000	-0.068	-0.381
-320.056	-100.698	-0.167	0.041
-319.041	2.800	0.247	0.181
-318.026	-141.754	-0.180	0.018
-317.012	13.001	0.220	-0.171
-315.997	-140.356	-0.268	0.028
-314.983	-24.072	-0.111	0.067
-313.968	-115.732	0.238	-0.045
-312.953	-200.000	0.023	-0.322
-311.939	800.000	-0.076	-0.235
-310.924	-200.000	-0.010	0.097
-309.910	-55.420	0.237	0.107
-308.895	745.133	-0.051	-0.137
-307.880	-200.000	0.027	-0.323
-306.866	51.163	-0.176	0.168
-305.851	-72.393	-0.141	0.053
-304.837	124.177	-0.198	-0.251
-303.822	-126.652	0.493	0.074
-302.807	-74.273	0.236	0.086
-301.793	232.060	-0.107	0.177
-300.778	-108.554	0.149	-0.032
-299.764	576.341	-0.116	-0.284
-298.749	-97.323	-0.147	-0.039
-297.735	163.901	0.089	-0.126
-296.720	195.501	0.187	-0.285
-295.705	800.000	0.057	0.216
-294.691	76.928	0.046	0.050
-293.676	800.000	0.073	-0.317
-292.662	71.204	0.064	-0.066
-291.647	369.122	-0.079	0.160
-290.632	61.542	-0.169	-0.169
-289.618	43.235	0.178	0.163
-288.603	-108.561	-0.033	0.007
-287.589	39.458	-0.114	-0.102
-286.574	-35.404	0.062	0.034
-285.559	27.307	0.179	0.151
-284.545	98.036	-0.191	0.221
-283.530	-150.419	-0.582	-0.045
-282.516	281.371	-0.114	-0.205
-281.501	-46.229	-0.226	0.112
-280.486	-39.876	-0.074	0.039
-279.472	-68.412	-0.204	0.079
-278.457	-23.020	-0.113	0.068
-277.443	238.567	0.083	0.139
-276.428	-109.119	-0.195	0.042
-275.413	-126.848	0.154	-0.023
-274.399	37.576	-0.116	0.103
-273.384	-46.725	-0.088	0.043
-272.370	-40.897	0.416	0.216
-271.355	721.762	0.066	0.178
-270.340	800.000	-0.053	-0.198
-269.326	-60.202	-0.295	-0.126
-268.311	-47.900	-0.066	0.032
-267.297	101.348	-0.049	-0.057
-266.282	-71.067	-0.400	0.151
-265.267	-73.810	0.285	-0.104
-264.253	-55.067	0.401	0.181
-263.238	-79.027	0.056	-0.019
-262.224	4.235	0.142	0.105
-261.209	107.686	-0.037	-0.044
-260.195	670.720	-0.088	0.229
-259.180	-92.718	-0.223	0.063
-258.165	-55.963	-0.177	0.079
-257.151	236.032	0.085	0.142
-256.136	-120.109	-0.214	-0.037
-255.122	249.276	-0.125	0.213
-254.107	-200.000	-0.022	0.110
-253.092	289.132	0.215	0.391
-252.078	-200.000	-0.023	0.136
-251.063	-51.454	-0.243	-0.114
-250.049	136.553	0.172	0.225
-249.034	-34.749	0.196	-0.108
-248.019	89.135	-0.121	-0.135
-247.005	-200.000	0.005	0.223
-245.990	148.181	-0.061	0.082
-244.976	79.463	0.117	0.126
-243.961	-123.243	0.174	0.028
-242.946	375.342	0.097	-0.198
-241.932	-8.973	-0.293	0.197
-240.917	-200.000	0.007	-0.136
-239.903	121.464	0.162	0.202
-238.888	800.000	0.146	0.489
-237.873	-93.885	-0.066	0.018
-236.859	-116.761	0.066	-0.012
-235.844	-200.000	0.086	-0.416
-234.830	299.375	0.210	-0.388
-233.815	-158.307	-0.158	0.009
-232.800	17.153	0.066	0.053
-231.786	70.405	-0.094	0.097
-230.771	-76.763	0.355	-0.125
-229.757	-83.754	0.027	-0.009
-228.742	-200.000	0.042	-0.193
-227.727	73.808	0.139	-0.146
-226.713	244.969	0.094	-0.159
-225.698	71.573	0.110	0.115
-224.684	-112.627	0.036	-0.007
-223.669	70.568	-0.168	0.174
-222.655	384.095	-0.117	-0.242
-221.640	-156.289	0.183	-0.012
-220.625	-113.976	0.177	0.035
-219.611	96.242	0.038	0.043
-218.596	800.000	0.022	0.093
-217.582	19.824	0.112	-0.091
-216.567	-200.000	-0.070	0.432
-215.552	-8.067	-0.301	0.203
-214.538	62.129	0.149	-0.149
-213.523	-36.640	0.163	0.088
-212.509	-170.805	0.319	-0.011
-211.494	800.000	-0.056	0.227
-210.479	221.271	0.055	-0.089
-209.465	536.106	0.137	-0.325
-208.450	-89.886	0.074	0.022
-207.436	-20.566	-0.092	-0.056
-206.421	-200.000	-0.022	0.151
-205.406	-74.899	0.109	-0.039
-204.392	32.620	-0.120	-0.104
-203.377	800.000	0.016	-0.049
-202.363	166.485	-0.243	-0.345
-201.348	157.616	0.109	0.151
-200.333	-126.900	0.380	-0.056
-199.319	82.878	-0.255	0.278
-198.304	800.000	-0.006	0.022
-197.290	381.124	0.014	-0.029
-196.275	70.070	0.174	-0.180
-195.260	-17.088	-0.168	-0.106
-194.246	-148.671	0.384	-0.031
-193.231	12.001	0.399	-0.308
-192.217	-35.128	0.030	-0.016
-191.202	800.000	-0.043	-0.175
-190.187	800.000	0.051	-0.164
-189.173	-2.730	0.266	-0.186
-188.158	-107.348	-0.241	-0.053
-187.144	559.799	-0.070	0.168
-186.129	-156.476	0.214	0.013
-185.114	136.806	0.067	0.088
-184.100	26.029	-0.256	0.214
-183.085	800.000	0.055	0.186
-182.071	-190.031	-0.240	-0.003
-181.056	-200.000	-0.020	0.105
-180.042	126.516	0.231	0.293
-179.027	47.484	0.148	-0.138
-178.012	-5.047	-0.154	0.106
-176.998	-82.969	0.276	-0.089
-175.983	-200.000	0.038	0.179
-174.969	289.291	-0.005	-0.009
-173.954	-64.789	-0.276	0.112
-172.939	800.000	0.075	0.214
-171.925	-98.964	-0.205	0.052
-170.910	29.378	-0.179	0.152
-169.896	-200.000	0.013	0.238
-168.881	800.000	-0.069	-0.249
-167.866	-88.282	0.110	0.033
-166.852	185.857	0.152	-0.226
-165.837	247.491	-0.174	0.295
-164.823	318.383	-0.091	0.173
-163.808	-133.920	-0.190	0.024
-162.793	-200.000	0.004	0.051
-161.779	14.173	0.317	0.247
-160.764	-13.148	-0.175	-0.114
-159.750	-125.568	0.255	0.039
-158.735	60.490	-0.089	0.088
-157.720	60.955	-0.169	0.168
-156.706	69.147	0.270	0.278
-155.691	-154.292	-0.370	-0.025
-154.677	-46.278	-0.306	0.150
-153.662	-13.013	0.286	-0.186
-152.647	-131.030	0.057	0.008
-151.633	-84.928	0.327	0.103
-150.618	283.341	0.175	0.314
-149.604	-21.770	0.245	0.149
-148.589	-55.795	0.364	-0.163
-147.574	49.622	0.314	0.296
-146.560	118.272	-0.097	-0.120
-145.545	144.104	0.122	0.163
-144.531	-104.500	0.229	0.053
-143.516	31.579	-0.334	-0.288
-142.502	-35.450	0.220	-0.119
-141.487	-200.000	-0.076	-0.501
-140.472	800.000	-0.066	-0.231
-139.458	8.035	-0.058	-0.043
-138.443	-124.377	0.308	0.048
-137.429	-29.273	0.074	-0.042
-136.414	-152.198	0.179	0.013
-135.399	146.414	-0.111	0.149
-134.385	-31.153	-0.248	0.140
-133.370	1.069	-0.133	0.095
-132.356	-43.669	-0.289	-0.146
-131.341	800.000	-0.101	0.292
-130.326	-200.000	0.015	0.449
-129.312	53.974	-0.219	-0.210
-128.297	-51.573	-0.104	0.049
-127.283	86.941	0.215	-0.237
-126.268	-200.000	0.008	-0.427
-125.253	784.903	-0.068	-0.186
-124.239	800.000	0.153	0.582
-123.224	800.000	0.032	0.106
-122.210	800.000	0.026	-0.104
-121.195	-41.289	-0.137	0.070
-120.180	-98.770	0.244	0.062
-119.166	-200.000	0.021	-0.234
-118.151	230.623	0.262	-0.428
-117.137	217.469	0.056	0.089
-116.122	-14.863	0.200	-0.129
-115.107	91.349	0.247	0.277
-114.093	-200.000	-0.046	-0.228
-113.078	82.383	0.126	-0.136
-112.064	-183.583	0.186	-0.003
-111.049	800.000	0.113	-0.387
-110.034	-127.270	0.417	-0.061
-109.020	46.986	-0.175	-0.162
-108.005	-71.913	0.130	-0.048
-106.991	-106.328	-0.276	0.062
-105.976	161.876	0.210	0.293
-104.962	800.000	0.046	0.182
-103.947	-97.484	-0.069	0.018
-102.932	221.583	0.119	-0.191
-101.918	244.326	-0.139	0.233
-100.903	800.000	0.027	0.097
-99.889	-200.000	-0.021	-0.139
-98.874	16.288	-0.182	-0.143
-97.859	-62.175	0.204	-0.085
-96.845	3.595	-0.032	-0.023
-95.830	190.779	0.094	-0.142
-94.816	-200.000	0.013	-0.154
-93.801	-6.970	-0.133	0.090
-92.786	-18.052	-0.186	-0.116
-91.772	-130.111	0.276	-0.038
-90.757	800.000	0.087	0.281
-89.743	-100.302	-0.122	-0.030
-88.728	-29.514	0.196	0.112
-87.713	-200.000	-0.033	0.306
-86.699	-7.945	0.252	0.169
-85.684	54.996	0.023	0.022
-84.670	800.000	-0.022	0.076
-83.655	97.021	0.186	-0.213
-82.640	443.687	-0.135	-0.296
-81.626	-130.875	-0.177	0.024
-80.611	-200.000	0.016	-0.170
-79.597	-200.000	-0.048	-0.378
-78.582	-61.246	-0.062	0.026
-77.567	-157.181	0.266	-0.016
-76.553	-3.530	0.222	-0.154
-75.538	-6.396	-0.086	0.058
-74.524	-200.000	0.005	0.108
-73.509	219.902	0.049	0.079
-72.494	800.000	0.120	0.413
-71.480	-5.318	0.350	0.240
-70.465	-200.000	-0.023	0.275
-69.451	-200.000	0.006	0.225
-68.436	242.397	0.071	-0.118
-67.422	7.501	0.147	0.109
-66.407	-151.606	-0.143	0.011
-65.392	45.916	0.079	-0.073
-64.378	800.000	0.101	0.355
-63.363	-22.083	-0.165	0.100
-62.349	-28.274	-0.078	0.045
-61.334	63.008	-0.489	-0.488
-60.319	50.339	0.153	0.145
-59.305	800.000	0.199	-0.661
-58.290	322.333	0.481	0.913
-57.276	800.000	0.489	1.711
-56.261	-200.000	79.302	496.638
-55.246	559.700	1371.959	3301.642
-54.232	179.245	2614.422	3811.873
-53.217	122.283	2274.905	2831.973
-52.203	49.144	1799.478	1684.921
-51.188	41.841	1603.444	1448.664
-50.173	39.441	1573.490	1404.452
-49.159	55.714	1611.490	1555.848
-48.144	60.394	1630.919	1608.233
-47.130	42.572	1594.414	1445.538
-46.115	39.165	1580.436	1408.452
-45.100	38.856	1577.697	1403.747
-44.086	38.830	1575.708	1401.730
-43.071	38.810	1573.272	1399.364
-42.057	38.790	1571.246	1397.365
-41.042	38.866	1569.926	1396.678
-40.027	38.723	1568.132	1394.012
-39.013	38.744	1566.285	1392.464
-37.998	38.717	1565.421	1391.447
-36.984	38.825	1563.944	1390.842
-35.969	38.840	1563.098	1390.148
-34.954	38.744	1561.569	1388.052
-33.940	38.795	1560.101	1387.053
-32.925	38.822	1558.610	1385.859
-31.911	38.913	1556.779	1384.819
-30.896	38.943	1555.573	1383.900
-29.881	38.882	1554.299	1382.286
-28.867	38.822	1553.543	1381.132
-27.852	38.919	1551.913	1380.312
-26.838	38.906	1550.215	1378.660
-25.823	38.875	1549.038	1377.338
-24.809	38.816	1547.299	1375.325
-23.794	38.912	1545.282	1374.151
-22.779	38.790	1544.760	1372.776
-21.765	38.841	1543.385	1371.854
-20.750	38.871	1542.356	1371.100
-19.736	38.854	1540.888	1369.618
-18.721	38.864	1539.906	1368.758
-17.706	38.782	1538.731	1367.089
-16.692	38.812	1537.377	1366.042
-15.677	38.841	1536.360	1365.285
-14.663	38.790	1535.617	1364.220
-13.648	38.747	1534.213	1362.614
-12.633	38.781	1533.464	1362.134
-11.619	38.746	1532.467	1360.952
-10.604	38.825	1530.856	1360.013
-9.590	38.766	1530.523	1359.256
-8.575	38.902	1529.475	1359.211
-7.560	38.797	1529.038	1358.043
-6.546	38.664	1528.461	1356.554
-5.531	38.717	1527.351	1355.881
-4.517	38.737	1526.096	1354.852
-3.502	38.591	1525.506	1353.271
-2.487	38.767	1523.645	1352.775
-1.473	38.744	1523.094	1352.078
-0.458	38.907	1520.822	1351.131
0.556	37.357	1512.739	1342.874
1.571	35.173	1485.292	1303.552
2.586	32.127	1421.534	1227.614
3.600	30.564	1335.494	1143.606
4.615	28.515	1286.470	1089.368
5.629	23.412	1224.324	1007.723
6.644	11.064	1129.431	864.357
7.659	1.916	1081.551	780.954
8.673	0.363	1076.105	769.038
9.688	0.201	1072.701	765.713
10.702	0.118	1070.854	763.904
11.717	0.098	1069.221	762.569
12.731	4.189	1074.977	787.422
13.746	15.325	1091.294	856.460
14.761	22.200	1100.501	898.888
15.775	22.534	1099.179	899.437
16.790	22.302	1098.499	897.617
17.804	22.201	1097.323	896.063
18.819	21.990	1096.341	894.106
19.834	22.046	1096.227	894.219
20.848	22.202	1095.499	894.342
21.863	22.254	1095.349	894.401
22.877	22.157	1095.166	893.682
23.892	22.187	1094.053	892.849
24.907	22.129	1093.102	891.696
25.921	22.161	1092.570	891.348
26.936	22.045	1091.768	890.027
27.950	22.103	1090.642	889.324
28.965	22.047	1089.553	888.072
29.980	21.930	1087.671	885.869
30.994	21.952	1086.185	884.692
32.009	22.088	1085.360	884.627
33.023	22.250	1084.841	884.942
34.038	22.026	1083.988	883.038
35.053	21.911	1083.173	881.720
36.067	22.127	1082.367	882.071
37.082	22.051	1081.796	881.148
38.096	22.191	1081.045	881.157
39.111	22.246	1080.646	881.029
40.126	22.477	1079.008	880.770
41.140	22.289	1077.895	878.848
42.155	22.036	1076.454	876.330
43.169	21.769	1075.243	873.936
44.184	21.726	1074.181	872.784
45.199	21.893	1072.865	872.464
46.213	21.768	1072.003	871.067
47.228	21.763	1071.616	870.650
48.242	21.925	1070.403	870.390
49.257	21.916	1069.915	869.875
50.271	22.005	1068.943	869.448
51.286	22.162	1068.624	869.888
52.301	22.178	1067.708	869.143
53.315	22.284	1066.927	868.955
54.330	22.079	1066.402	867.440
55.344	22.016	1065.565	866.371
56.359	22.056	1064.769	865.843
57.374	22.048	1063.985	865.089
58.388	21.879	1062.771	863.194
59.403	21.884	1061.963	862.489
60.417	21.871	1061.576	862.032
61.432	21.872	1060.195	860.837
62.447	21.752	1059.550	859.652
63.461	21.756	1059.055	859.195
64.476	22.016	1057.907	859.458
65.490	21.851	1057.347	858.121
66.505	21.880	1056.135	857.201
67.520	21.897	1055.430	856.639
68.534	21.895	1054.621	855.897
69.549	21.791	1053.655	854.527
70.563	21.567	1052.463	852.397
71.578	21.360	1051.832	850.803
72.593	21.485	1050.935	850.609
73.607	21.369	1049.624	848.910
74.622	21.289	1048.882	847.844
75.636	21.508	1048.518	848.538
76.651	21.792	1047.061	848.659
77.666	21.667	1046.270	847.337
78.680	21.588	1045.184	846.002
79.695	21.587	1044.904	845.698
80.709	21.693	1044.343	845.680
81.724	21.786	1043.538	845.399
82.739	21.814	1042.338	844.488
83.753	21.753	1041.484	843.426
84.768	21.847	1041.524	843.839
85.782	22.208	1040.750	844.871
86.797	22.491	1039.753	845.345
87.812	22.209	1039.402	843.634
88.826	22.210	1037.653	842.144
89.841	22.172	1037.115	841.452
90.855	22.252	1036.302	841.099
91.870	22.286	1035.741	840.731
92.884	22.363	1034.590	840.091
93.899	22.187	1033.674	838.432
94.914	22.150	1032.593	837.308
95.928	22.265	1031.936	837.245
96.943	22.412	1030.665	836.841
97.957	21.940	1030.130	834.089
98.972	21.849	1028.875	832.566
99.987	21.580	1027.611	830.195
101.001	21.706	1027.068	830.280
102.016	22.006	1026.644	831.283
103.030	22.092	1025.640	830.804
104.045	21.939	1024.704	829.251
105.060	21.779	1023.442	827.400
106.074	21.744	1021.890	825.910
107.089	21.828	1021.145	825.628
108.103	22.009	1021.087	826.360
109.118	22.138	1020.001	826.013
110.133	21.948	1018.186	823.581
111.147	21.880	1017.369	822.529
112.162	21.732	1016.614	821.152
113.176	21.571	1015.306	819.270
114.191	21.595	1014.418	818.589
115.206	21.734	1013.579	818.490
116.220	21.362	1012.635	815.923
117.235	21.420	1011.306	815.048
118.249	21.479	1010.780	814.828
119.264	21.539	1009.931	814.348
120.279	21.476	1008.979	813.217
121.293	21.523	1008.231	812.762
122.308	21.601	1007.419	812.397
123.322	21.517	1006.574	811.254
124.337	21.508	1005.566	810.327
125.352	21.472	1004.257	809.034
126.366	21.020	1002.481	805.444
127.381	20.697	1001.257	802.902
128.395	21.250	1000.953	805.134
129.410	21.872	1000.302	807.406
130.424	22.099	999.411	807.658
131.439	22.134	998.580	807.076
132.454	21.868	998.089	805.384
133.468	21.847	997.331	804.608
134.483	21.878	996.070	803.659
135.497	22.119	995.171	803.968
136.512	22.064	995.230	803.690
137.527	22.264	993.758	803.345
138.541	22.240	992.997	802.552
139.556	22.264	992.472	802.164
140.570	22.196	991.648	801.118
141.585	22.303	990.678	800.750
142.600	22.390	989.604	800.205
143.614	22.268	989.173	799.231
144.629	22.266	988.797	798.850
145.643	22.583	987.779	799.394
146.658	22.466	986.867	798.052
147.673	22.360	985.286	796.224
148.687	22.207	984.116	794.520
149.702	22.106	982.921	793.029
150.716	21.963	982.037	791.600
151.731	22.122	980.656	791.132
152.746	22.002	980.459	790.362
153.760	22.145	980.196	790.723
154.775	22.324	979.177	790.636
155.789	22.440	978.278	790.363
156.804	22.407	977.523	789.536
157.819	22.284	976.153	787.806
158.833	22.343	975.361	787.360
159.848	22.468	974.730	787.343
160.862	22.507	973.796	786.691
161.877	22.405	972.967	785.496
162.892	22.340	971.903	784.279
163.906	22.537	971.062	784.407
164.921	22.258	970.745	782.843
165.935	22.179	969.284	781.242
166.950	22.404	968.068	781.191
167.964	22.304	967.338	780.089
168.979	22.414	966.214	779.600
169.994	22.269	965.319	778.171
171.008	22.181	963.865	776.541
172.023	22.247	964.063	776.923
173.037	22.413	962.846	776.604
174.052	22.210	961.717	774.732
175.067	22.171	960.615	773.605
176.081	22.143	959.423	772.454
177.096	22.202	958.865	772.194
178.110	22.150	958.178	771.345
179.125	21.927	956.869	769.245
180.140	21.724	955.935	767.538
181.154	21.694	955.580	767.051
182.169	21.868	954.872	767.179
183.183	21.965	954.419	767.168
184.198	22.251	954.122	768.112
185.213	22.319	953.409	767.767
186.227	22.234	952.610	766.686
187.242	22.317	951.896	766.402
188.256	22.381	951.317	766.149
189.271	22.321	950.436	765.112
190.286	22.489	949.605	765.104
191.300	22.391	948.533	763.749
192.315	21.738	947.360	759.903
193.329	21.079	945.873	755.791
194.344	20.756	944.660	753.356
195.359	21.224	944.965	755.559
196.373	21.887	945.674	758.928
197.388	22.252	945.192	760.052
198.402	22.272	944.305	759.357
199.417	22.104	943.772	758.136
200.432	22.198	943.322	758.112
201.446	22.000	942.477	756.515
202.461	21.898	941.660	755.354
203.475	21.870	941.013	754.645
204.490	21.568	939.544	752.104
205.504	20.224	937.674	744.775
206.519	20.672	937.577	746.555
207.534	21.654	937.766	750.849
208.548	21.683	937.558	750.741
209.563	22.208	937.046	752.515
210.577	22.116	936.633	751.720
211.592	21.866	935.255	749.483
212.607	22.261	935.486	751.287
213.621	22.502	934.625	751.558
214.636	22.335	933.838	750.146
215.650	22.329	933.453	749.747
216.665	22.406	932.509	749.248
217.680	22.297	932.075	748.368
218.694	22.478	931.838	748.884
219.709	22.121	930.953	746.588
220.723	21.850	929.673	744.347
221.738	22.076	928.896	744.615
222.753	22.304	928.107	744.884
223.767	22.075	928.019	743.778
224.782	22.312	926.851	743.778
225.796	22.333	926.629	743.623
226.811	22.510	925.900	743.719
227.826	22.081	924.867	741.015
228.840	21.193	923.540	736.143
229.855	21.106	922.901	735.203
230.869	21.527	922.523	736.608
231.884	21.169	921.679	734.365
232.899	21.334	920.356	733.937
233.913	22.009	921.034	737.247
234.928	22.418	920.199	738.230
235.942	22.186	919.570	736.687
236.957	22.261	919.335	736.751
237.972	21.995	917.984	734.489
238.986	21.770	917.453	733.057
240.001	21.902	916.946	733.141
241.015	22.066	915.985	732.992
242.030	22.071	915.493	732.554
243.045	22.251	914.814	732.694
244.059	22.228	914.872	732.582
245.074	22.284	914.360	732.340
246.088	22.319	913.071	731.388
247.103	21.977	912.361	729.334
248.117	21.870	911.772	728.354
249.132	22.390	911.899	730.551
250.147	22.741	911.334	731.486
251.161	23.011	910.532	731.898
252.176	23.100	910.275	731.995
253.190	23.018	909.724	731.147
254.205	23.137	909.224	731.171
255.220	23.141	908.493	730.536
256.234	23.319	907.973	730.789
257.249	23.214	907.419	729.847
258.263	23.059	906.533	728.429
259.278	23.021	905.983	727.764
260.293	23.024	905.593	727.402
261.307	23.129	905.191	727.444
262.322	23.049	904.451	726.457
263.336	22.849	903.724	724.989
264.351	22.495	902.527	722.514
265.366	21.411	900.101	716.069
266.380	20.947	899.016	713.245
267.395	21.857	899.573	717.347
268.409	22.688	899.799	720.863
269.424	22.592	899.094	719.844
270.439	22.557	898.650	719.278
271.453	22.987	897.606	720.132
272.468	22.904	897.364	719.535
273.482	23.122	896.529	719.691
274.497	23.160	896.151	719.479
275.512	22.999	895.240	718.028
276.526	22.401	893.596	714.221
277.541	22.634	893.710	715.194
278.555	22.961	893.146	716.006
279.570	22.754	892.962	714.955
280.585	22.426	891.982	712.780
281.599	22.649	891.300	713.075
282.614	22.696	890.832	712.826
283.628	22.310	889.356	710.023
284.643	21.903	889.172	708.174
285.657	22.305	888.956	709.560
286.672	22.255	888.015	708.546
287.687	21.788	886.620	705.489
288.701	22.038	887.217	706.911
289.716	22.495	886.631	708.218
290.730	22.197	885.632	706.158
291.745	22.215	884.805	705.512
292.760	21.910	883.671	703.323
293.774	21.798	883.525	702.692
294.789	22.835	883.889	707.076
295.803	23.381	883.995	709.283
296.818	23.476	883.345	709.082
297.833	23.612	882.729	709.067
298.847	23.217	881.850	706.721
299.862	22.812	880.744	704.157
300.876	22.892	880.488	704.210
301.891	23.424	879.756	705.679
302.906	23.480	879.518	705.650
303.920	23.131	877.971	702.959
304.935	22.863	877.314	701.307
305.949	23.298	877.444	703.078
306.964	23.409	876.615	702.791
307.979	23.271	875.838	701.558
308.993	23.074	875.562	700.495
310.008	23.403	875.165	701.418
311.022	23.546	874.547	701.424
312.037	23.497	874.025	700.753
313.052	23.179	873.551	699.052
314.066	23.178	872.461	698.117
315.081	22.421	871.110	693.989
316.095	21.661	869.912	689.982
317.110	22.211	869.818	692.009
318.125	23.029	870.246	695.510
319.139	22.702	869.131	693.274
320.154	21.442	867.621	687.061
321.168	21.143	866.579	685.001
322.183	21.809	866.707	687.654
323.197	22.753	867.030	691.552
324.212	22.963	866.570	691.946
325.227	23.100	866.409	692.291
326.241	23.320	865.783	692.591
327.256	23.046	865.201	690.995
328.270	23.080	864.625	690.606
329.285	22.943	864.063	689.561
330.300	22.912	863.132	688.637
331.314	22.675	862.390	687.062
332.329	22.711	861.743	686.626
333.343	23.103	861.407	687.821
334.358	23.236	861.087	688.019
335.373	23.277	860.615	687.742
336.387	23.426	859.956	687.734
337.402	23.461	859.738	687.631
338.416	23.748	859.475	688.475
339.431	23.688	858.893	687.713
340.446	23.612	858.182	686.791
341.460	23.949	857.682	687.632
342.475	23.952	856.770	686.851
343.489	23.627	856.226	685.102
344.504	23.760	855.272	684.790
345.519	23.880	855.361	685.263
346.533	24.071	854.835	685.515
347.548	24.056	854.927	685.472
348.562	24.111	854.034	684.906
349.577	24.039	853.868	684.436
350.592	24.036	853.135	683.775
351.606	23.913	852.527	682.758
352.621	24.009	851.873	682.540
353.635	23.917	851.352	681.710
354.650	23.749	851.022	680.741
355.665	23.593	849.785	679.095
356.679	22.473	848.052	673.372
357.694	22.231	847.666	672.081
358.708	22.926	847.741	674.735
359.723	23.016	846.815	674.281
360.738	23.193	846.478	674.627
361.752	23.561	846.741	676.182
362.767	23.709	846.123	676.192
363.781	23.978	845.992	677.050
364.796	24.349	845.472	677.984
365.810	24.435	845.490	678.265
366.825	24.482	845.474	678.370
367.840	24.397	844.834	677.475
368.854	24.304	844.040	676.424
369.869	23.713	843.463	673.663
370.883	23.706	842.569	672.862
371.898	23.867	842.217	673.133
372.913	23.763	841.163	671.838
373.927	23.677	840.566	670.976
374.942	23.879	839.943	671.180
375.956	24.119	839.154	671.396
376.971	23.953	838.897	670.507
377.986	24.260	838.661	671.414
379.000	24.346	838.205	671.312
380.015	24.387	837.733	671.031
381.029	24.197	836.879	669.572
382.044	24.063	836.535	668.734
383.059	24.321	836.051	669.256
384.073	24.404	835.428	669.010
385.088	24.248	834.812	667.873
386.102	24.379	833.991	667.646
387.117	24.319	833.330	666.835
388.132	24.053	832.858	665.404
389.146	23.949	832.088	664.341
390.161	23.146	831.547	660.853
391.175	23.349	831.152	661.237
392.190	23.869	831.119	663.094
393.205	24.049	830.190	662.965
394.219	23.135	828.557	658.202
395.234	21.469	826.295	650.160
396.248	20.761	825.087	646.526
397.263	21.730	826.030	650.807
398.278	23.507	827.461	658.482
399.292	24.055	827.282	660.314
400.307	23.719	826.779	658.607
401.321	23.550	826.485	657.689
402.336	23.787	825.891	658.035
403.350	23.959	825.814	658.553
404.365	24.308	825.865	659.827
405.380	24.681	825.579	660.919
406.394	24.888	825.379	661.466
407.409	25.108	824.985	661.905
408.423	25.098	824.248	661.219
409.438	24.871	823.599	659.803
410.453	24.800	823.436	659.352
411.467	24.971	822.932	659.517
412.482	25.025	822.250	659.112
413.496	24.919	821.682	658.208
414.511	24.950	821.711	658.289
415.526	25.168	820.884	658.369
416.540	25.140	820.551	657.938
417.555	24.919	820.146	656.746
418.569	24.600	819.448	654.961
419.584	24.579	818.774	654.288
420.599	24.624	818.013	653.785
421.613	146.537	1360.346	1764.071
422.628	127.452	1439.384	1764.178
