DTS Sentinel unit serial number:	SN413079Multiplexer serial number:	ORYXHardware model number:	OX4-SRSoftware version number:	ORYX F/W v4.00 Oryx Data Collector v3.7.2.0data status	okinstallation	princeton_trtdifferential loss correction	single-endedforward channel	channel 3reverse channel	N/Adate	2019/09/11time	02:30:10forward acquisition time	60.00reverse acquisition time	0.00gamma	496.2192k internal	0.2332k external	0.2332temperature offset calibration	0.9911default loss term (dB/km)	0.3790temperature slope calibration	1.0000multiplexer offset coefficient	1.0000multiplexer slope coefficient	1.0000fibre end	0.00T internal ref (°C)	29.25T ext. ref 1 (°C)	-0.29T ext. ref 2 (°C)	23.39length (m)	temperature (°C)	Stokes	anti-Stokes-747.200	800.000	0.095	0.313
-746.185	364.034	-0.241	0.487
-745.171	163.943	0.174	0.247
-744.156	800.000	-0.029	0.126
-743.142	-118.435	-0.382	-0.068
-742.127	-200.000	-0.014	0.267
-741.112	-115.786	-0.193	0.036
-740.098	-49.098	0.325	0.156
-739.083	222.097	-0.147	-0.238
-738.069	1.367	-0.283	0.205
-737.054	-30.815	0.118	-0.067
-736.039	800.000	-0.119	-0.337
-735.025	457.254	-0.128	0.286
-734.010	-163.967	-0.382	0.018
-732.996	-200.000	0.014	0.199
-731.981	-200.000	-0.014	-0.080
-730.966	10.248	-0.193	-0.148
-729.952	193.776	-0.135	-0.206
-728.937	-200.000	-0.005	-0.154
-727.923	284.978	-0.125	0.226
-726.908	-72.526	0.157	0.058
-725.894	-184.226	-0.190	-0.003
-724.879	56.949	-0.140	0.137
-723.864	-107.468	-0.167	0.037
-722.850	-126.485	-0.480	-0.072
-721.835	0.438	0.452	-0.324
-720.821	-153.245	0.098	-0.007
-719.806	-59.826	-0.177	-0.076
-718.791	436.994	-0.067	0.148
-717.777	-200.000	-0.034	0.193
-716.762	-87.474	0.173	0.053
-715.748	-200.000	0.024	0.257
-714.733	92.803	0.225	-0.255
-713.718	-119.908	-0.307	-0.053
-712.704	800.000	0.059	0.195
-711.689	431.691	-0.072	0.156
-710.675	-137.926	0.181	-0.020
-709.660	56.112	0.012	0.012
-708.645	800.000	0.059	0.239
-707.631	-200.000	0.049	0.277
-706.616	-135.844	0.277	-0.033
-705.602	-21.488	0.260	0.159
-704.587	262.625	-0.009	0.016
-703.572	385.578	0.060	0.125
-702.558	-65.105	-0.323	0.131
-701.543	-111.739	-0.139	0.028
-700.529	299.252	0.025	0.046
-699.514	347.909	0.133	0.263
-698.499	-163.244	0.171	-0.008
-697.485	800.000	0.075	-0.264
-696.470	-39.547	-0.056	-0.029
-695.456	800.000	0.084	-0.339
-694.441	63.339	-0.043	-0.043
-693.426	510.957	-0.168	0.393
-692.412	139.928	-0.147	-0.194
-691.397	-108.877	-0.150	-0.032
-690.383	126.269	0.205	-0.260
-689.368	184.844	-0.174	0.259
-688.354	-116.233	0.138	0.026
-687.339	-197.050	0.130	0.001
-686.324	-192.502	-0.247	-0.002
-685.310	11.922	-0.113	-0.087
-684.295	-200.000	-0.001	-0.189
-683.281	80.722	0.067	0.072
-682.266	800.000	-0.020	0.077
-681.251	193.843	-0.111	0.169
-680.237	-61.908	0.349	0.146
-679.222	4.644	-0.087	-0.064
-678.208	-29.895	-0.109	-0.062
-677.193	110.264	-0.163	-0.197
-676.178	0.229	0.027	0.019
-675.164	-200.000	-0.060	-0.401
-674.149	88.359	-0.034	-0.038
-673.135	213.014	0.248	-0.394
-672.120	-200.000	0.028	0.254
-671.105	268.633	-0.037	-0.064
-670.091	711.932	0.089	-0.238
-669.076	55.461	-0.143	-0.139
-668.062	-61.610	-0.113	-0.048
-667.047	-184.899	0.221	0.004
-666.032	-3.114	-0.254	-0.178
-665.018	116.440	-0.065	0.080
-664.003	-200.000	-0.093	0.432
-662.989	-12.097	0.160	-0.105
-661.974	-139.317	-0.223	0.024
-660.959	364.656	-0.196	0.395
-659.945	-71.890	0.237	0.089
-658.930	800.000	-0.037	0.121
-657.916	-96.179	0.357	0.095
-656.901	-200.000	0.010	-0.120
-655.886	-57.273	-0.367	0.162
-654.872	105.263	-0.121	-0.143
-653.857	108.277	0.158	-0.188
-652.843	107.228	-0.222	-0.265
-651.828	205.016	-0.116	-0.180
-650.814	-130.166	-0.300	0.041
-649.799	-129.742	0.241	-0.033
-648.784	4.176	0.003	0.002
-647.770	-93.484	0.191	-0.053
-646.755	11.557	0.119	-0.091
-645.741	-200.000	-0.009	0.128
-644.726	-12.086	-0.274	-0.180
-643.711	800.000	-0.025	0.081
-642.697	81.081	-0.037	0.040
-641.682	-200.000	0.011	-0.280
-640.668	-160.850	-0.222	-0.012
-639.653	-137.550	-0.100	-0.011
-638.638	-200.000	-0.018	0.298
-637.624	489.138	-0.131	-0.301
-636.609	201.377	-0.066	0.103
-635.595	-200.000	0.038	-0.369
-634.580	316.430	0.030	0.056
-633.565	503.484	-0.040	-0.094
-632.551	-9.809	-0.080	-0.053
-631.536	51.394	-0.018	-0.017
-630.522	-200.000	-0.003	-0.056
-629.507	17.394	0.273	0.217
-628.492	-178.510	0.232	-0.005
-627.478	63.629	0.163	0.164
-626.463	214.715	0.164	0.259
-625.449	63.958	-0.108	-0.109
-624.434	-131.386	0.251	-0.033
-623.419	-72.717	-0.103	0.038
-622.405	-101.224	0.239	0.059
-621.390	-200.000	0.010	-0.279
-620.376	-200.000	-0.060	-0.305
-619.361	630.612	-0.063	-0.159
-618.346	391.978	-0.035	0.073
-617.332	32.552	0.218	0.189
-616.317	-200.000	-0.018	-0.099
-615.303	285.440	-0.112	0.202
-614.288	517.295	0.048	-0.112
-613.273	-72.140	-0.145	0.054
-612.259	-10.846	0.123	0.081
-611.244	-37.642	0.140	-0.075
-610.230	-98.429	0.202	-0.052
-609.215	-200.000	0.005	0.120
-608.201	-200.000	0.046	0.230
-607.186	-135.440	-0.422	0.050
-606.171	661.391	-0.026	0.067
-605.157	-73.080	0.118	-0.043
-604.142	71.992	-0.048	0.050
-603.128	-200.000	0.033	-0.151
-602.113	800.000	-0.106	-0.319
-601.098	-0.057	-0.032	-0.023
-600.084	320.899	-0.170	0.323
-599.069	-17.998	-0.126	-0.079
-598.055	800.000	-0.045	-0.154
-597.040	518.983	0.080	-0.188
-596.025	800.000	-0.090	-0.252
-595.011	-45.922	-0.039	-0.019
-593.996	-113.503	0.212	-0.042
-592.982	-147.338	0.431	-0.037
-591.967	-103.512	0.202	0.047
-590.952	70.235	-0.234	-0.242
-589.938	-172.937	0.104	0.003
-588.923	39.689	0.218	-0.196
-587.909	287.151	-0.177	0.320
-586.894	446.595	0.095	0.209
-585.879	-16.560	0.160	-0.101
-584.865	-107.202	-0.200	-0.044
-583.850	206.944	0.174	-0.271
-582.836	-74.457	0.056	0.020
-581.821	118.654	-0.060	0.074
-580.806	458.979	-0.185	0.411
-579.792	49.181	-0.301	0.282
-578.777	4.586	-0.237	0.174
-577.763	-200.000	-0.047	-0.337
-576.748	800.000	-0.063	-0.174
-575.733	-54.205	0.075	0.034
-574.719	-200.000	0.011	-0.124
-573.704	217.473	-0.073	-0.117
-572.690	-84.253	-0.085	-0.027
-571.675	499.406	-0.141	0.325
-570.661	-200.000	-0.037	-0.252
-569.646	-193.713	0.320	-0.003
-568.631	-55.736	-0.124	0.055
-567.617	-110.780	-0.132	0.027
-566.602	159.104	-0.108	-0.150
-565.588	-200.000	0.008	-0.093
-564.573	22.266	0.188	0.153
-563.558	90.477	0.154	0.173
-562.544	-109.958	0.304	0.064
-561.529	-42.817	-0.208	-0.105
-560.515	-166.424	0.271	-0.011
-559.500	-155.829	0.109	0.007
-558.485	-118.544	-0.246	0.044
-557.471	-28.187	0.118	0.068
-556.456	-39.743	0.070	-0.036
-555.442	-166.844	-0.268	-0.011
-554.427	-200.000	0.022	0.402
-553.412	-14.485	-0.226	0.145
-552.398	-99.283	0.112	0.028
-551.383	93.793	0.146	-0.165
-550.369	-200.000	-0.024	-0.310
-549.354	-200.000	0.018	-0.152
-548.339	-200.000	0.014	0.193
-547.325	800.000	-0.023	-0.066
-546.310	800.000	-0.042	0.165
-545.296	50.736	0.231	-0.218
-544.281	-105.216	-0.286	-0.065
-543.266	460.052	0.056	0.125
-542.252	-200.000	0.037	-0.243
-541.237	-87.643	-0.305	-0.092
-540.223	-200.000	-0.014	-0.124
-539.208	-83.501	-0.280	-0.089
-538.193	56.493	-0.060	-0.059
-537.179	-24.913	-0.150	-0.089
-536.164	45.883	0.158	0.146
-535.150	102.005	0.153	0.178
-534.135	745.598	0.075	-0.201
-533.121	100.212	0.105	0.121
-532.106	259.685	0.044	0.075
-531.091	-0.400	0.033	0.023
-530.077	-18.090	-0.235	-0.147
-529.062	80.410	0.185	-0.199
-528.048	-94.139	-0.449	0.123
-527.033	-145.295	-0.088	0.008
-526.018	-200.000	-0.004	0.085
-525.004	-73.634	-0.109	-0.040
-523.989	800.000	0.089	-0.264
-522.975	265.909	0.063	0.109
-521.960	800.000	0.103	-0.353
-520.945	-200.000	0.005	-0.245
-519.931	-116.802	0.312	0.057
-518.916	-200.000	0.011	0.132
-517.902	86.759	0.139	-0.153
-516.887	-200.000	0.031	-0.196
-515.872	187.908	0.092	0.137
-514.858	59.558	0.276	-0.271
-513.843	-200.000	-0.033	0.203
-512.829	800.000	0.017	-0.065
-511.814	-27.716	0.283	-0.164
-510.799	-131.551	0.199	-0.026
-509.785	184.944	-0.134	-0.197
-508.770	-69.564	0.304	-0.116
-507.756	-150.160	-0.055	0.004
-506.741	-122.078	-0.155	-0.025
-505.726	115.376	0.137	-0.167
-504.712	-111.073	-0.142	-0.029
-503.697	11.883	0.033	-0.026
-502.683	-154.134	-0.168	-0.011
-501.668	45.897	0.206	-0.190
-500.653	-75.677	-0.071	-0.025
-499.639	72.100	0.160	-0.166
-498.624	210.152	0.120	0.188
-497.610	-200.000	-0.006	0.089
-496.595	-200.000	-0.134	0.603
-495.581	60.443	0.269	-0.265
-494.566	-165.182	0.201	0.009
-493.551	800.000	-0.043	0.151
-492.537	-200.000	-0.048	0.218
-491.522	-138.062	0.121	-0.013
-490.508	133.144	-0.188	-0.241
-489.493	253.282	-0.158	-0.268
-488.478	146.221	-0.127	0.169
-487.464	-107.324	-0.355	-0.078
-486.449	94.175	0.013	-0.015
-485.435	141.210	-0.146	-0.193
-484.420	-62.834	0.141	-0.058
-483.405	-73.081	-0.033	-0.012
-482.391	-152.034	-0.253	0.018
-481.376	-33.835	0.213	-0.117
-480.362	324.633	0.110	0.209
-479.347	-13.167	-0.196	-0.127
-478.332	-99.642	-0.163	0.041
-477.318	800.000	-0.058	-0.170
-476.303	800.000	0.067	0.215
-475.289	-52.204	-0.170	0.078
-474.274	649.965	0.044	-0.112
-473.259	-160.617	0.264	-0.014
-472.245	-123.819	-0.105	0.017
-471.230	-178.389	-0.124	0.003
-470.216	77.336	-0.071	-0.075
-469.201	-42.150	-0.184	0.094
-468.186	-200.000	-0.019	0.431
-467.172	20.580	0.043	0.035
-466.157	-164.351	0.178	0.008
-465.143	-200.000	0.010	0.227
-464.128	-124.296	-0.173	0.027
-463.113	-200.000	0.014	0.273
-462.099	-74.869	0.246	-0.088
-461.084	-9.415	-0.090	-0.060
-460.070	-200.000	0.003	0.243
-459.055	-53.433	-0.223	0.102
-458.040	232.953	0.096	0.157
-457.026	-93.818	-0.207	-0.057
-456.011	657.594	0.079	0.202
-454.997	-200.000	-0.011	0.210
-453.982	-79.743	-0.138	0.046
-452.968	-49.432	0.254	-0.121
-451.953	86.460	-0.058	-0.064
-450.938	-200.000	0.074	0.324
-449.924	50.608	0.137	-0.129
-448.909	-109.080	0.176	-0.037
-447.895	-200.000	-0.040	-0.395
-446.880	-200.000	-0.015	-0.065
-445.865	-37.980	0.233	0.123
-444.851	553.034	0.036	-0.086
-443.836	-25.348	-0.481	-0.283
-442.822	-62.750	-0.242	-0.100
-441.807	-37.204	-0.078	-0.041
-440.792	-59.948	0.262	0.111
-439.778	-97.501	-0.255	0.066
-438.763	800.000	0.052	-0.225
-437.749	30.077	0.149	0.126
-436.734	-56.951	-0.125	-0.055
-435.719	56.453	-0.385	-0.372
-434.705	-200.000	-0.073	-0.471
-433.690	-200.000	0.028	0.280
-432.676	-38.750	-0.157	-0.083
-431.661	-45.331	-0.369	0.182
-430.646	800.000	-0.043	0.175
-429.632	-64.171	-0.318	-0.129
-428.617	-18.449	0.068	-0.042
-427.603	180.505	0.059	-0.086
-426.588	30.446	0.129	-0.109
-425.573	-65.742	0.024	-0.010
-424.559	94.876	0.108	0.122
-423.544	59.587	-0.103	-0.101
-422.530	-69.271	-0.051	0.019
-421.515	-68.730	0.213	-0.082
-420.500	72.968	-0.098	-0.102
-419.486	-200.000	-0.046	0.293
-418.471	-16.009	-0.252	-0.159
-417.457	-106.089	-0.019	-0.004
-416.442	-122.669	0.094	-0.015
-415.428	-200.000	-0.014	0.067
-414.413	-156.185	-0.198	0.012
-413.398	800.000	0.037	0.156
-412.384	242.477	-0.042	0.070
-411.369	753.390	0.130	-0.350
-410.355	201.344	-0.123	0.188
-409.340	-200.000	-0.038	-0.209
-408.325	-103.250	0.310	0.073
-407.311	281.054	0.142	0.252
-406.296	-8.974	-0.195	0.130
-405.282	230.377	0.039	-0.064
-404.267	-101.032	0.191	0.046
-403.252	800.000	-0.089	0.336
-402.238	-47.258	0.102	0.049
-401.223	800.000	0.057	-0.200
-400.209	-17.400	0.137	-0.086
-399.194	-200.000	0.026	-0.217
-398.179	-63.256	0.097	-0.040
-397.165	-126.822	0.363	0.053
-396.150	44.458	-0.098	0.089
-395.136	48.714	-0.113	-0.105
-394.121	139.457	0.316	-0.413
-393.106	284.381	-0.107	-0.192
-392.092	-200.000	-0.008	0.102
-391.077	12.328	-0.299	0.228
-390.063	-200.000	0.069	0.307
-389.048	-200.000	0.012	-0.142
-388.033	32.125	-0.243	0.208
-387.019	225.854	0.100	0.160
-386.004	272.125	0.106	0.185
-384.990	-19.747	-0.283	-0.174
-383.975	-37.406	0.166	0.088
-382.960	17.256	0.240	0.189
-381.946	800.000	-0.071	0.246
-380.931	-160.945	-0.229	0.012
-379.917	64.952	0.195	0.196
-378.902	422.911	-0.134	0.286
-377.888	14.821	-0.015	-0.012
-376.873	-200.000	0.052	0.248
-375.858	-91.352	0.238	-0.067
-374.844	-57.449	0.420	-0.183
-373.829	800.000	-0.065	-0.182
-372.815	-20.304	0.039	-0.024
-371.800	-200.000	0.013	0.295
-370.785	159.069	0.136	0.188
-369.771	42.345	0.168	0.151
-368.756	800.000	-0.048	-0.173
-367.742	-58.014	0.289	0.125
-366.727	4.545	0.123	-0.089
-365.712	-124.811	-0.314	0.048
-364.698	-1.415	0.421	0.294
-363.683	133.897	0.042	0.054
-362.669	-200.000	0.043	0.263
-361.654	155.554	-0.122	-0.166
-360.639	-200.000	0.057	0.388
-359.625	582.495	-0.071	0.171
-358.610	402.030	0.031	0.065
-357.596	170.357	0.072	-0.102
-356.581	800.000	0.101	-0.290
-355.566	287.995	-0.200	0.358
-354.552	183.259	-0.136	0.200
-353.537	13.858	0.064	-0.049
-352.523	432.061	-0.128	0.276
-351.508	169.715	-0.232	0.329
-350.493	-200.000	0.032	-0.279
-349.479	-200.000	-0.021	-0.144
-348.464	-200.000	0.065	-0.309
-347.450	75.562	0.181	-0.190
-346.435	-67.479	0.231	-0.090
-345.420	-74.699	0.214	-0.076
-344.406	-129.504	0.317	-0.043
-343.391	-43.572	-0.404	-0.202
-342.377	-129.687	0.573	0.078
-341.362	-116.515	0.178	0.033
-340.348	200.240	-0.166	0.253
-339.333	800.000	-0.081	-0.282
-338.318	477.941	-0.080	0.179
-337.304	455.966	-0.159	-0.350
-336.289	-200.000	0.027	0.133
-335.275	-162.817	-0.284	0.014
-334.260	800.000	0.056	-0.240
-333.245	800.000	0.127	-0.396
-332.231	-200.000	0.025	-0.234
-331.216	-44.720	-0.269	-0.133
-330.202	-101.291	0.120	0.029
-329.187	301.961	-0.102	-0.186
-328.172	-200.000	-0.026	0.145
-327.158	800.000	-0.056	0.221
-326.143	-200.000	0.032	0.238
-325.129	-89.489	0.258	0.075
-324.114	-108.835	-0.274	-0.058
-323.099	-72.336	0.132	-0.048
-322.085	800.000	-0.076	0.241
-321.070	-82.117	-0.248	-0.080
-320.056	-130.246	0.125	0.017
-319.041	-169.454	0.174	-0.006
-318.026	-29.483	0.201	-0.114
-317.012	-200.000	0.009	0.231
-315.997	233.342	0.032	0.052
-314.983	273.712	-0.100	0.175
-313.968	-200.000	-0.080	-0.593
-312.953	56.405	-0.178	-0.171
-311.939	-10.398	-0.193	0.126
-310.924	-200.000	-0.027	0.207
-309.910	-58.091	-0.121	0.052
-308.895	-85.110	-0.241	-0.075
-307.880	32.434	-0.104	-0.089
-306.866	-200.000	0.039	0.183
-305.851	-200.000	0.048	0.210
-304.837	460.998	0.127	0.280
-303.822	-169.522	0.079	-0.003
-302.807	-85.099	0.141	-0.044
-301.793	-115.569	-0.080	0.015
-300.778	-200.000	0.028	0.204
-299.764	800.000	-0.047	-0.134
-298.749	-200.000	-0.015	0.228
-297.735	-200.000	0.017	0.187
-296.720	-200.000	0.000	0.111
-295.705	-200.000	-0.031	0.353
-294.691	-44.166	-0.126	0.062
-293.676	-200.000	0.024	0.329
-292.662	234.854	0.086	0.140
-291.647	-57.697	0.195	-0.085
-290.632	-0.360	-0.347	-0.244
-289.618	406.418	-0.150	-0.314
-288.603	-74.823	-0.486	-0.172
-287.589	21.746	-0.190	0.153
-286.574	63.827	-0.068	0.068
-285.559	-200.000	0.048	-0.249
-284.545	157.384	0.111	-0.151
-283.530	-161.410	-0.507	-0.026
-282.516	-12.813	-0.274	0.177
-281.501	-23.202	0.547	0.325
-280.486	-25.316	-0.090	-0.053
-279.472	14.556	-0.275	-0.212
-278.457	199.829	-0.020	-0.030
-277.443	-200.000	-0.045	-0.449
-276.428	171.592	0.124	-0.176
-275.413	-143.510	0.214	0.020
-274.399	116.151	-0.049	-0.060
-273.384	18.312	0.068	-0.053
-272.370	-200.000	-0.045	-0.242
-271.355	-36.106	-0.094	-0.050
-270.340	112.993	-0.027	-0.032
-269.326	800.000	0.015	-0.058
-268.311	476.646	-0.079	0.177
-267.297	800.000	-0.039	0.146
-266.282	24.754	0.116	0.095
-265.267	-153.731	-0.251	0.017
-264.253	261.421	-0.049	-0.084
-263.238	-112.197	0.188	0.037
-262.224	800.000	0.054	-0.154
-261.209	176.263	-0.054	-0.078
-260.195	-31.355	0.326	0.181
-259.180	800.000	-0.019	-0.057
-258.165	389.373	0.084	0.172
-257.151	-200.000	-0.051	-0.232
-256.136	-123.415	0.585	-0.092
-255.122	800.000	0.068	-0.271
-254.107	222.715	-0.031	0.050
-253.092	29.970	-0.249	-0.209
-252.078	49.787	0.048	-0.045
-251.063	315.160	-0.125	0.233
-250.049	146.066	0.268	0.355
-249.034	99.833	0.084	0.096
-248.019	-200.000	0.031	0.149
-247.005	-129.880	-0.309	0.042
-245.990	-163.135	0.292	-0.014
-244.976	139.720	-0.065	0.084
-243.961	-69.564	-0.138	0.052
-242.946	-64.017	0.171	0.069
-241.932	800.000	-0.085	0.243
-240.917	-156.981	0.062	-0.004
-239.903	-90.691	0.235	0.067
-238.888	-148.106	-0.102	-0.008
-237.873	800.000	-0.097	-0.294
-236.859	-99.418	0.219	-0.054
-235.844	-3.452	0.307	0.211
-234.830	-140.129	-0.316	0.033
-233.815	14.588	-0.087	-0.067
-232.800	-44.460	-0.155	-0.076
-231.786	263.350	0.115	0.196
-230.771	800.000	0.052	-0.213
-229.757	-200.000	0.004	0.090
-228.742	-94.711	0.113	0.030
-227.727	74.590	0.037	-0.038
-226.713	-200.000	0.032	0.305
-225.698	27.135	-0.168	-0.139
-224.684	-200.000	0.126	0.595
-223.669	-5.290	-0.297	-0.201
-222.655	-36.826	-0.157	-0.083
-221.640	-200.000	0.019	0.223
-220.625	330.642	-0.220	-0.418
-219.611	800.000	-0.093	-0.261
-218.596	246.591	0.079	0.132
-217.582	-73.476	-0.142	-0.051
-216.567	696.302	0.083	0.214
-215.552	-1.897	0.135	-0.093
-214.538	185.574	0.193	-0.282
-213.523	-155.276	0.207	-0.013
-212.509	142.093	0.080	-0.104
-211.494	-38.357	-0.207	0.108
-210.479	-200.000	0.045	0.309
-209.465	-148.985	-0.358	-0.028
-208.450	-64.196	0.224	0.090
-207.436	-29.425	-0.036	-0.020
-206.421	-200.000	-0.014	-0.149
-205.406	-64.418	0.178	0.071
-204.392	800.000	-0.026	0.076
-203.377	94.260	0.174	0.195
-202.363	-52.022	0.205	0.094
-201.348	300.272	0.113	-0.206
-200.333	221.747	-0.134	0.212
-199.319	-200.000	-0.004	0.279
-198.304	-200.000	0.061	-0.298
-197.290	-156.101	-0.128	-0.008
-196.275	465.252	0.093	-0.204
-195.260	-140.312	-0.037	-0.004
-194.246	46.120	0.414	-0.378
-193.231	-64.480	0.110	0.044
-192.217	800.000	-0.065	0.198
-191.202	-113.108	-0.239	-0.047
-190.187	29.870	-0.046	-0.039
-189.173	-41.111	0.250	-0.127
-188.158	-200.000	0.003	0.032
-187.144	101.256	0.214	-0.246
-186.129	155.129	-0.150	-0.204
-185.114	-95.904	-0.086	-0.023
-184.100	800.000	-0.037	-0.101
-183.085	136.468	-0.287	0.369
-182.071	49.384	-0.148	-0.137
-181.056	800.000	-0.030	0.104
-180.042	453.802	0.164	-0.358
-179.027	781.604	0.020	-0.053
-178.012	-200.000	-0.042	-0.415
-176.998	-77.764	0.119	-0.041
-175.983	-79.045	0.061	0.020
-174.969	310.519	0.191	0.352
-173.954	-169.104	-0.386	-0.014
-172.939	-95.919	-0.256	0.067
-171.925	-200.000	-0.049	-0.238
-170.910	43.331	0.004	0.004
-169.896	40.989	-0.168	0.149
-168.881	-102.687	-0.286	-0.067
-167.866	800.000	0.098	0.422
-166.852	-26.228	-0.433	0.250
-165.837	-17.524	-0.084	-0.052
-164.823	-8.859	0.241	0.159
-163.808	800.000	-0.083	0.258
-162.793	228.370	-0.103	-0.166
-161.779	-25.853	-0.196	-0.113
-160.764	-85.324	0.299	0.092
-159.750	-32.316	0.104	0.057
-158.735	-145.963	-0.219	0.019
-157.720	-154.128	0.448	-0.030
-156.706	23.967	0.247	-0.200
-155.691	12.949	-0.170	-0.129
-154.677	276.811	0.183	0.319
-153.662	800.000	-0.053	-0.160
-152.647	-200.000	-0.005	0.265
-151.633	-14.803	-0.080	-0.050
-150.618	-200.000	0.015	-0.375
-149.604	-105.035	0.290	-0.065
-148.589	39.648	-0.240	0.212
-147.574	-13.232	-0.286	0.183
-146.560	92.698	-0.130	0.144
-145.545	-131.460	-0.449	0.058
-144.531	800.000	0.064	-0.235
-143.516	674.008	0.072	-0.184
-142.502	-89.831	-0.161	0.046
-141.487	-200.000	0.018	0.122
-140.472	57.758	0.194	0.186
-139.458	-2.995	-0.144	-0.099
-138.443	800.000	0.064	0.217
-137.429	102.039	0.044	0.051
-136.414	8.326	0.226	0.167
-135.399	-200.000	-0.020	-0.097
-134.385	487.863	-0.074	-0.165
-133.370	-147.184	-0.398	0.033
-132.356	-86.291	0.155	0.047
-131.341	800.000	0.053	0.223
-130.326	-100.009	0.118	-0.029
-129.312	-68.766	-0.480	-0.182
-128.297	132.976	0.066	-0.084
-127.283	-33.460	0.090	0.049
-126.268	49.749	0.296	-0.274
-125.253	56.376	-0.287	-0.274
-124.239	49.194	-0.147	0.135
-123.224	684.436	-0.089	0.227
-122.210	22.263	0.096	0.077
-121.195	-200.000	-0.002	-0.087
-120.180	-62.443	-0.209	-0.085
-119.166	-132.911	-0.204	0.025
-118.151	-200.000	-0.036	0.282
-117.137	374.574	0.135	0.269
-116.122	-99.451	0.305	0.075
-115.107	29.129	0.076	0.064
-114.093	764.935	0.110	-0.294
-113.078	-33.431	0.137	-0.074
-112.064	-119.629	-0.103	0.018
-111.049	-71.437	-0.274	-0.101
-110.034	-78.268	0.360	0.121
-109.020	-200.000	0.025	0.185
-108.005	800.000	-0.015	-0.053
-106.991	92.862	0.049	-0.054
-105.976	177.434	0.008	-0.012
-104.962	-8.378	-0.303	0.200
-103.947	800.000	0.051	0.210
-102.932	-200.000	0.025	-0.113
-101.918	129.775	0.322	-0.404
-100.903	160.096	-0.118	-0.162
-99.889	-200.000	0.004	0.048
-98.874	26.353	0.254	-0.208
-97.859	-90.337	0.063	0.018
-96.845	147.801	-0.166	0.220
-95.830	-200.000	-0.007	0.034
-94.816	-200.000	-0.009	-0.303
-93.801	-200.000	-0.053	-0.245
-92.786	157.954	-0.100	-0.136
-91.772	175.056	0.180	0.255
-90.757	800.000	0.051	0.209
-89.743	800.000	0.093	0.364
-88.728	796.907	-0.071	-0.192
-87.713	7.358	0.104	-0.076
-86.699	4.464	-0.199	-0.143
-85.684	9.388	0.121	0.089
-84.670	-0.984	0.331	0.230
-83.655	-99.696	0.195	-0.048
-82.640	800.000	-0.022	-0.079
-81.626	191.461	-0.100	0.147
-80.611	-165.550	0.234	-0.010
-79.597	422.392	0.024	0.050
-78.582	169.375	0.255	-0.356
-77.567	604.505	-0.136	-0.331
-76.553	697.823	-0.045	-0.115
-75.538	-200.000	-0.046	-0.209
-74.524	-115.751	0.521	0.096
-73.509	-71.742	0.241	0.088
-72.494	-106.249	0.133	0.029
-71.480	-132.433	-0.082	0.010
-70.465	800.000	0.031	0.094
-69.451	68.112	-0.189	0.190
-68.436	800.000	-0.019	-0.058
-67.422	29.939	0.192	0.161
-66.407	-200.000	0.009	-0.075
-65.392	14.164	0.023	-0.018
-64.378	-105.878	0.360	0.080
-63.363	-77.393	-0.361	0.123
-62.349	800.000	-0.088	-0.333
-61.334	155.561	-0.698	-0.942
-60.319	-84.154	0.699	0.217
-59.305	539.879	-0.398	-0.929
-58.290	150.096	0.826	1.097
-57.276	537.051	0.681	1.583
-56.261	-200.000	106.255	619.821
-55.246	515.689	1512.318	3459.351
-54.232	176.210	2703.894	3845.339
-53.217	110.228	2185.729	2570.300
-52.203	39.908	1706.329	1500.262
-51.188	32.392	1517.718	1283.348
-50.173	29.976	1492.098	1245.413
-49.159	51.223	1547.515	1437.808
-48.144	51.255	1564.569	1453.817
-47.130	32.615	1520.257	1286.819
-46.115	29.614	1505.208	1253.700
-45.100	29.333	1502.063	1249.123
-44.086	29.271	1499.728	1246.713
-43.071	29.340	1497.220	1245.049
-42.057	29.210	1495.673	1242.837
-41.042	29.243	1495.181	1242.598
-40.027	29.248	1492.975	1240.747
-39.013	29.242	1491.057	1239.068
-37.998	29.223	1490.118	1238.109
-36.984	29.223	1489.367	1237.435
-35.969	29.229	1487.958	1236.255
-34.954	29.204	1486.384	1234.733
-33.940	29.183	1484.935	1233.335
-32.925	29.132	1483.720	1231.937
-31.911	29.266	1482.176	1231.502
-30.896	29.341	1480.455	1230.522
-29.881	29.363	1479.338	1229.696
-28.867	29.304	1478.470	1228.533
-27.852	29.320	1477.366	1227.674
-26.838	29.348	1475.844	1226.544
-25.823	29.220	1474.622	1224.627
-24.809	29.341	1471.985	1223.192
-23.794	29.292	1471.063	1222.052
-22.779	29.229	1470.112	1220.801
-21.765	29.326	1469.420	1220.815
-20.750	29.344	1467.607	1219.384
-19.736	29.381	1466.278	1218.473
-18.721	29.311	1465.698	1217.480
-17.706	29.233	1464.942	1216.287
-16.692	29.283	1463.355	1215.254
-15.677	29.248	1462.138	1213.964
-14.663	29.302	1461.111	1213.418
-13.648	29.220	1460.480	1212.309
-12.633	29.215	1459.847	1211.704
-11.619	29.276	1458.622	1211.036
-10.604	29.212	1457.792	1209.877
-9.590	29.114	1457.321	1208.800
-8.575	29.238	1455.895	1208.379
-7.560	29.255	1455.023	1207.721
-6.546	29.163	1454.513	1206.644
-5.531	29.161	1453.724	1205.932
-4.517	29.206	1452.701	1205.326
-3.502	29.214	1451.539	1204.367
-2.487	29.240	1450.424	1203.563
-1.473	29.210	1449.768	1202.777
-0.458	29.197	1448.219	1201.356
0.556	26.867	1438.935	1190.964
1.571	24.056	1413.872	1151.950
2.586	20.874	1354.689	1083.873
3.600	19.436	1273.721	1010.584
4.615	18.392	1229.497	969.501
5.629	16.017	1173.880	912.717
6.644	7.641	1090.167	805.261
7.659	0.829	1050.638	742.636
8.673	-0.178	1044.940	733.625
9.688	-0.333	1041.650	730.494
10.702	-0.331	1039.860	729.183
11.717	-0.339	1037.710	727.574
12.731	2.727	1040.988	744.711
13.746	11.380	1054.072	796.394
14.761	18.364	1062.893	837.251
15.775	20.204	1064.562	847.490
16.790	20.541	1064.140	848.727
17.804	20.304	1063.234	846.775
18.819	20.118	1062.741	845.400
19.834	20.156	1061.963	844.889
20.848	20.453	1061.005	845.500
21.863	20.391	1061.071	845.174
22.877	20.413	1060.337	844.621
23.892	20.280	1060.121	843.727
24.907	20.326	1058.884	842.891
25.921	20.346	1058.049	842.249
26.936	20.217	1057.848	841.391
27.950	20.260	1056.214	840.224
28.965	20.233	1055.354	839.338
29.980	20.175	1053.612	837.593
30.994	20.061	1052.090	835.762
32.009	20.335	1051.384	836.446
33.023	20.281	1051.030	835.833
34.038	20.165	1049.468	833.960
35.053	20.234	1048.727	833.625
36.067	20.388	1048.013	833.723
37.082	20.453	1047.127	833.258
38.096	20.435	1046.442	832.551
39.111	20.537	1045.848	832.497
40.126	20.755	1044.380	832.294
41.140	20.662	1043.348	830.953
42.155	20.250	1042.037	827.869
43.169	19.962	1041.095	825.674
44.184	19.946	1039.475	824.244
45.199	20.145	1038.427	824.284
46.213	19.921	1037.382	822.318
47.228	19.995	1036.731	822.080
48.242	20.219	1035.080	821.759
49.257	20.215	1034.886	821.514
50.271	20.330	1033.869	821.178
51.286	20.347	1033.473	820.875
52.301	20.436	1032.455	820.410
53.315	20.311	1032.122	819.486
54.330	20.436	1031.044	819.146
55.344	20.423	1029.976	818.166
56.359	20.374	1028.877	816.987
57.374	20.406	1027.701	816.134
58.388	20.145	1027.038	814.308
59.403	20.125	1026.569	813.770
60.417	20.249	1025.344	813.306
61.432	19.907	1024.952	811.321
62.447	20.044	1024.050	811.176
63.461	20.214	1023.540	811.499
64.476	20.285	1022.513	810.945
65.490	20.210	1021.696	809.875
66.505	20.125	1020.740	808.649
67.520	20.141	1019.438	807.621
68.534	20.184	1019.330	807.661
69.549	20.015	1018.246	805.947
70.563	19.703	1016.813	803.292
71.578	19.577	1016.214	802.160
72.593	19.758	1015.233	802.155
73.607	19.758	1013.653	800.836
74.622	19.555	1013.638	799.814
75.636	19.902	1012.442	800.401
76.651	20.168	1011.531	800.842
77.666	19.902	1010.722	798.903
78.680	19.786	1009.710	797.497
79.695	19.838	1009.311	797.352
80.709	19.963	1008.726	797.391
81.724	20.027	1007.866	796.936
82.739	19.971	1006.905	795.852
83.753	19.991	1006.013	795.168
84.768	20.285	1005.384	795.946
85.782	20.388	1005.270	796.260
86.797	20.685	1004.026	796.563
87.812	20.594	1003.117	795.355
88.826	20.453	1001.852	793.640
89.841	20.495	1001.037	793.113
90.855	20.581	1000.262	792.824
91.870	20.599	999.562	792.279
92.884	20.490	998.953	791.230
93.899	20.384	997.694	789.679
94.914	20.272	996.641	788.270
95.928	20.467	996.228	788.759
96.943	20.511	994.944	787.869
97.957	20.162	993.890	785.386
98.972	19.895	993.022	783.420
99.987	19.825	991.829	782.094
101.001	19.903	991.220	781.897
102.016	20.212	990.645	782.772
103.030	20.306	989.772	782.433
104.045	20.188	988.617	780.921
105.060	20.199	987.288	779.852
106.074	19.848	986.250	777.385
107.089	19.916	985.515	777.044
108.103	20.381	984.841	778.530
109.118	20.542	984.072	778.572
110.133	20.144	982.863	775.767
111.147	20.196	982.203	775.409
112.162	20.012	981.012	773.581
113.176	19.719	980.019	771.421
114.191	20.035	979.332	772.222
115.206	19.963	978.475	771.156
116.220	19.726	976.660	768.603
117.235	19.618	976.055	767.581
118.249	19.728	975.918	767.894
119.264	19.886	974.303	767.252
120.279	19.823	973.271	766.095
121.293	19.737	972.533	765.065
122.308	19.765	972.190	764.850
123.322	19.730	971.359	763.974
124.337	19.795	969.938	763.078
125.352	19.759	968.342	761.596
126.366	19.384	966.970	758.800
127.381	19.104	965.876	756.645
128.395	19.631	964.988	758.196
129.410	20.071	965.445	760.418
130.424	20.409	963.910	760.620
131.439	20.332	962.820	759.357
132.454	20.231	961.765	758.017
133.468	20.311	960.906	757.622
134.483	20.166	960.282	756.432
135.497	20.116	959.898	755.843
136.512	20.498	958.768	756.548
137.527	20.443	958.200	755.795
138.541	20.506	957.337	755.320
139.556	20.432	956.767	754.482
140.570	20.484	955.876	753.939
141.585	20.505	954.864	753.168
142.600	20.542	954.214	752.746
143.614	20.361	953.438	751.284
144.629	20.583	952.460	751.406
145.643	20.826	951.681	751.774
146.658	20.577	950.638	749.812
147.673	20.481	949.560	748.481
148.687	20.334	948.858	747.230
149.702	20.417	947.226	746.235
150.716	20.249	946.551	744.914
151.731	20.209	945.740	744.039
152.746	20.425	944.430	743.869
153.760	20.584	944.135	744.252
154.775	20.568	943.667	743.747
155.789	20.753	942.495	743.550
156.804	20.559	941.623	741.965
157.819	20.503	940.751	740.974
158.833	20.642	939.807	740.758
159.848	20.642	939.302	740.293
160.862	20.687	938.275	739.612
161.877	20.639	937.552	738.771
162.892	20.597	936.578	737.761
163.906	20.682	935.862	737.493
164.921	20.631	935.038	736.560
165.935	20.688	933.615	735.616
166.950	20.763	932.508	734.993
167.964	20.697	931.828	734.117
168.979	20.543	930.957	732.714
169.994	20.586	929.591	731.756
171.008	20.420	928.476	730.118
172.023	20.639	927.727	730.382
173.037	20.859	927.042	730.700
174.052	20.559	925.669	728.297
175.067	20.200	924.949	726.165
176.081	20.193	924.550	725.759
177.096	20.469	923.409	725.952
178.110	20.536	922.701	725.611
179.125	20.320	921.780	723.922
180.140	20.001	920.560	721.569
181.154	20.137	919.829	721.499
182.169	20.182	919.194	721.123
183.183	20.394	919.310	722.035
184.198	20.731	918.835	722.996
185.213	20.631	918.086	721.928
186.227	20.572	917.484	721.147
187.242	20.607	916.831	720.716
188.256	20.797	915.863	720.678
189.271	20.739	915.097	719.768
190.286	20.812	914.273	719.360
191.300	20.622	913.673	718.039
192.315	20.201	912.108	715.010
193.329	19.474	910.819	710.944
194.344	19.074	909.583	708.271
195.359	19.667	909.978	710.954
196.373	20.346	910.165	713.830
197.388	20.644	910.172	714.997
198.402	20.575	908.835	713.602
199.417	20.403	908.833	712.832
200.432	20.511	907.837	712.429
201.446	20.411	907.243	711.491
202.461	20.022	906.886	709.553
203.475	20.158	906.056	709.398
204.490	19.559	904.657	705.793
205.504	18.665	902.784	700.622
206.519	19.180	902.505	702.446
207.534	20.000	902.983	706.099
208.548	20.227	902.247	706.385
209.563	20.455	902.398	707.370
210.577	20.460	901.533	706.650
211.592	20.267	900.355	704.879
212.607	20.521	900.795	706.194
213.621	20.749	900.065	706.485
214.636	20.702	899.168	705.528
215.650	20.695	898.645	705.024
216.665	20.696	897.750	704.265
217.680	20.693	897.797	704.228
218.694	21.108	896.537	704.855
219.709	20.435	895.815	701.507
220.723	20.051	895.325	699.509
221.738	20.307	894.715	700.006
222.753	20.543	894.093	700.407
223.767	20.483	893.368	699.535
224.782	20.562	892.373	699.014
225.796	20.657	892.048	699.076
226.811	20.894	891.314	699.393
227.826	20.363	890.394	696.478
228.840	19.630	889.024	692.407
229.855	19.571	887.921	691.252
230.869	19.910	887.921	692.546
231.884	19.593	886.629	690.210
232.899	19.769	885.917	690.298
233.913	20.303	886.788	693.049
234.928	20.628	885.844	693.545
235.942	20.464	885.525	692.582
236.957	20.529	884.463	691.950
237.972	20.312	883.563	690.322
238.986	20.080	882.896	688.816
240.001	20.216	882.683	689.132
241.015	20.345	881.843	688.927
242.030	20.347	881.113	688.301
243.045	20.382	880.454	687.866
244.059	20.592	880.040	688.313
245.074	20.682	879.548	688.221
246.088	20.588	879.210	687.525
247.103	20.249	878.096	685.253
248.117	20.338	877.263	684.893
249.132	20.755	877.141	686.383
250.147	21.099	876.844	687.446
251.161	21.132	876.174	686.990
252.176	21.357	875.489	687.275
253.190	21.253	874.895	686.341
254.205	21.433	874.155	686.405
255.220	21.559	873.924	686.658
256.234	21.483	873.383	685.875
257.249	21.349	872.668	684.728
258.263	21.117	872.506	683.630
259.278	21.253	871.520	683.328
260.293	21.424	870.868	683.426
261.307	21.686	870.035	683.734
262.322	21.249	869.863	681.834
263.336	21.275	868.681	680.949
264.351	20.654	867.703	677.703
265.366	19.668	865.281	671.920
266.380	19.303	864.652	669.952
267.395	20.116	865.063	673.371
268.409	20.945	865.236	676.667
269.424	20.938	864.644	676.117
270.439	21.171	864.346	676.728
271.453	21.223	863.412	676.136
272.468	21.229	862.951	675.739
273.482	21.394	862.253	675.772
274.497	21.442	861.756	675.507
275.512	21.300	860.635	674.021
276.526	20.714	859.181	670.567
277.541	20.895	859.086	671.131
278.555	21.286	859.073	672.567
279.570	21.031	858.070	670.740
280.585	20.952	857.253	669.739
281.599	21.012	856.631	669.422
282.614	20.975	856.506	669.125
283.628	20.558	855.191	666.440
284.643	20.125	854.660	664.310
285.657	20.754	854.280	666.365
286.672	20.747	853.299	665.513
287.687	20.154	852.775	662.776
288.701	20.445	852.711	663.783
289.716	20.955	852.119	665.210
290.730	20.572	851.219	662.988
291.745	20.599	850.255	662.283
292.760	20.306	849.547	660.555
293.774	20.329	848.609	659.857
294.789	21.147	849.433	663.551
295.803	21.730	849.357	665.645
296.818	21.656	848.823	664.887
297.833	21.939	848.281	665.477
298.847	21.573	847.125	663.127
299.862	21.173	846.537	661.091
300.876	21.372	846.228	661.545
301.891	21.645	845.722	662.124
302.906	21.730	844.917	661.757
303.920	21.408	843.453	659.338
304.935	21.276	842.926	658.368
305.949	21.625	842.796	659.526
306.964	21.744	842.068	659.345
307.979	21.500	841.739	658.112
308.993	21.225	841.743	657.021
310.008	21.779	840.731	658.254
311.022	21.746	840.928	658.227
312.037	21.546	840.190	656.840
313.052	21.533	838.786	655.635
314.066	21.372	838.451	654.710
315.081	20.811	836.958	651.391
316.095	20.080	835.538	647.498
317.110	20.685	835.678	649.807
318.125	21.452	836.262	653.069
319.139	20.967	835.001	650.218
320.154	19.820	833.582	644.784
321.168	19.444	832.623	642.586
322.183	20.115	832.764	645.136
323.197	20.961	833.152	648.526
324.212	21.160	832.758	648.902
325.227	21.444	832.021	649.328
326.241	21.674	831.713	649.880
327.256	21.682	830.873	649.198
328.270	21.274	830.732	647.516
329.285	21.248	829.964	646.764
330.300	21.262	828.963	645.980
331.314	20.981	828.465	644.495
332.329	21.103	827.536	644.168
333.343	21.497	827.032	645.169
334.358	21.586	827.052	645.459
335.373	21.690	826.422	645.292
336.387	21.544	826.099	644.445
337.402	21.803	825.607	644.959
338.416	22.110	825.346	645.825
339.431	22.031	824.301	644.661
340.446	22.105	823.663	644.376
341.460	22.193	823.295	644.352
342.475	22.168	822.686	643.729
343.489	21.879	822.128	642.177
344.504	21.877	821.772	641.835
345.519	22.265	821.439	642.937
346.533	22.335	821.172	642.926
347.548	22.417	821.095	643.107
348.562	22.438	819.886	642.181
349.577	22.383	819.453	641.584
350.592	22.374	819.022	641.156
351.606	22.314	818.955	640.831
352.621	22.473	817.842	640.481
353.635	22.289	817.367	639.382
354.650	22.183	816.895	638.572
355.665	21.706	815.941	636.038
356.679	20.898	814.422	631.869
357.694	20.731	814.059	630.929
358.708	21.258	813.751	632.542
359.723	21.327	813.431	632.486
360.738	21.622	813.084	633.229
361.752	21.926	812.911	634.136
362.767	22.063	812.459	634.222
363.781	22.087	812.698	634.439
364.796	22.570	812.002	635.580
365.810	22.669	811.433	635.437
366.825	22.904	811.246	636.080
367.840	22.689	810.927	635.000
368.854	22.438	810.170	633.447
369.869	22.067	809.353	631.421
370.883	21.986	808.682	630.550
371.898	22.091	808.317	630.585
372.913	22.092	807.301	629.740
373.927	22.099	806.841	629.351
374.942	22.194	806.255	629.180
375.956	22.316	805.822	629.221
376.971	22.311	805.597	628.974
377.986	22.508	804.851	629.037
379.000	22.534	804.550	628.841
380.015	22.648	804.062	628.809
381.029	22.590	803.058	627.761
382.044	22.387	802.771	626.758
383.059	22.718	802.069	627.334
384.073	22.556	801.737	626.442
385.088	22.789	801.063	626.689
386.102	22.721	800.657	626.072
387.117	22.525	800.210	624.975
388.132	22.532	799.235	624.182
389.146	22.342	798.754	623.078
390.161	21.842	797.961	620.634
391.175	21.704	797.710	619.895
392.190	22.282	797.671	621.855
393.205	22.616	796.641	622.175
394.219	21.346	795.465	616.724
395.234	19.894	792.965	609.621
396.248	19.200	791.862	606.278
397.263	20.461	792.693	611.298
398.278	22.058	794.108	617.961
399.292	22.456	794.176	619.359
400.307	22.062	793.300	617.237
401.321	22.145	792.562	616.898
402.336	22.021	792.754	616.559
403.350	22.217	792.565	617.046
404.365	22.830	792.478	619.074
405.380	22.960	792.472	619.470
406.394	23.259	791.985	620.081
407.409	23.659	791.458	621.012
408.423	23.373	790.878	619.504
409.438	23.233	790.476	618.645
410.453	23.454	790.046	619.024
411.467	23.374	789.425	618.206
412.482	23.238	789.063	617.393
413.496	23.281	788.405	616.971
414.511	23.382	788.286	617.175
415.526	23.434	787.816	616.934
416.540	23.304	787.590	616.250
417.555	23.364	786.712	615.718
418.569	22.974	785.923	613.690
419.584	22.859	785.440	612.860
420.599	23.030	785.055	613.099
421.613	157.944	1363.774	1799.070
422.628	136.639	1448.082	1799.162
