DTS Sentinel unit serial number:	SN413079Multiplexer serial number:	ORYXHardware model number:	OX4-SRSoftware version number:	ORYX F/W v4.00 Oryx Data Collector v3.7.2.0data status	okinstallation	princeton_trtdifferential loss correction	single-endedforward channel	channel 3reverse channel	N/Adate	2019/09/12time	04:46:10forward acquisition time	60.00reverse acquisition time	0.00gamma	496.2192k internal	0.2324k external	0.2324temperature offset calibration	1.0076default loss term (dB/km)	0.3790temperature slope calibration	1.0000multiplexer offset coefficient	1.0000multiplexer slope coefficient	1.0000fibre end	0.00T internal ref (°C)	31.62T ext. ref 1 (°C)	2.19T ext. ref 2 (°C)	27.27length (m)	temperature (°C)	Stokes	anti-Stokes-747.200	-61.612	0.391	0.166
-746.185	800.000	-0.029	0.085
-745.171	-18.981	-0.069	0.043
-744.156	-200.000	0.000	0.422
-743.142	800.000	0.035	0.130
-742.127	104.781	-0.069	0.083
-741.112	-200.000	-0.001	-0.015
-740.098	-200.000	-0.068	0.398
-739.083	-45.718	-0.302	0.151
-738.069	44.834	0.315	0.293
-737.054	29.164	-0.161	-0.138
-736.039	53.723	-0.259	0.251
-735.025	-105.375	0.085	0.020
-734.010	179.731	0.200	-0.296
-732.996	118.813	0.248	-0.310
-731.981	659.506	-0.156	-0.406
-730.966	48.261	-0.168	0.159
-729.952	-200.000	0.018	-0.288
-728.937	-200.000	-0.011	-0.220
-727.923	800.000	-0.143	-0.451
-726.908	-58.616	-0.213	0.093
-725.894	107.786	-0.345	-0.415
-724.879	715.850	-0.034	-0.092
-723.864	-90.160	-0.334	-0.098
-722.850	-87.980	0.108	0.033
-721.835	800.000	0.053	-0.170
-720.821	-112.813	0.148	-0.030
-719.806	800.000	0.122	0.364
-718.791	-17.188	0.225	-0.143
-717.777	123.030	0.142	-0.179
-716.762	-122.733	-0.192	0.031
-715.748	-200.000	0.012	0.139
-714.733	-77.625	0.258	0.090
-713.718	-200.000	0.044	0.224
-712.704	157.026	-0.429	0.597
-711.689	-89.391	0.157	-0.047
-710.675	-111.040	0.281	-0.058
-709.660	800.000	-0.038	-0.139
-708.645	158.200	0.078	-0.109
-707.631	-90.899	0.146	-0.043
-706.616	-109.079	-0.114	0.025
-705.602	97.677	0.112	0.130
-704.587	101.296	0.062	-0.073
-703.572	-93.390	0.080	-0.022
-702.558	503.058	0.189	-0.440
-701.543	-136.498	-0.285	-0.033
-700.529	1.453	-0.105	0.076
-699.514	-200.000	0.011	-0.390
-698.499	248.150	0.119	-0.202
-697.485	-106.127	-0.095	0.022
-696.470	227.592	0.202	0.332
-695.456	176.622	-0.305	-0.446
-694.441	-200.000	-0.015	-0.082
-693.426	-156.905	0.172	-0.011
-692.412	800.000	-0.006	0.018
-691.397	-49.451	-0.168	0.081
-690.383	-102.507	-0.403	-0.097
-689.368	-200.000	-0.078	0.440
-688.354	-152.235	-0.264	-0.019
-687.339	70.190	0.250	0.260
-686.324	-200.000	0.000	-0.074
-685.310	93.000	-0.053	0.060
-684.295	-200.000	-0.017	-0.274
-683.281	-185.391	-0.157	0.002
-682.266	-48.208	0.059	-0.029
-681.251	-49.286	-0.249	-0.120
-680.237	-22.571	0.094	-0.057
-679.222	-114.210	-0.317	-0.062
-678.208	92.728	0.086	-0.098
-677.193	-68.106	-0.104	0.041
-676.178	391.782	-0.185	-0.386
-675.164	459.348	0.092	0.207
-674.149	-200.000	-0.013	-0.283
-673.135	-68.246	0.248	-0.097
-672.120	6.539	-0.241	0.180
-671.105	287.560	0.121	0.219
-670.091	-171.901	-0.251	-0.008
-669.076	1.870	-0.259	0.188
-668.062	-153.048	-0.229	0.016
-667.047	-161.798	-0.118	-0.006
-666.032	-120.351	-0.227	0.039
-665.018	-34.011	-0.228	-0.126
-664.003	-200.000	0.013	0.157
-662.989	-200.000	0.021	0.105
-661.974	12.954	-0.127	0.099
-660.959	-200.000	0.025	0.151
-659.945	-200.000	-0.040	-0.212
-658.930	149.147	-0.146	0.199
-657.916	16.681	-0.143	0.114
-656.901	-178.686	0.105	0.002
-655.886	-200.000	0.044	0.299
-654.872	512.052	-0.046	0.109
-653.857	-47.570	-0.165	-0.080
-652.843	-200.000	0.077	-0.357
-651.828	444.197	0.063	-0.139
-650.814	-200.000	0.024	-0.163
-649.799	-92.846	-0.426	0.120
-648.784	-200.000	-0.032	0.370
-647.770	-112.117	0.246	-0.050
-646.755	-134.389	0.249	0.031
-645.741	-200.000	0.029	-0.169
-644.726	408.110	-0.204	0.434
-643.711	-11.382	-0.214	-0.141
-642.697	-10.451	0.233	-0.155
-641.682	35.165	0.076	0.067
-640.668	-200.000	0.007	0.244
-639.653	-66.474	-0.139	0.056
-638.638	26.221	0.049	-0.041
-637.624	-57.849	-0.318	-0.140
-636.609	-136.713	0.330	0.038
-635.595	39.191	0.118	-0.106
-634.580	94.064	0.109	-0.124
-633.565	268.487	-0.089	-0.157
-632.551	-115.347	-0.149	-0.028
-631.536	-200.000	-0.042	-0.287
-630.522	-200.000	0.013	0.154
-629.507	106.404	-0.123	-0.147
-628.492	-200.000	0.049	0.244
-627.478	800.000	-0.086	0.293
-626.463	-118.330	0.123	-0.022
-625.449	-200.000	0.029	0.186
-624.434	-113.813	-0.289	-0.056
-623.419	-131.250	-0.214	0.029
-622.405	210.631	-0.159	-0.252
-621.390	217.554	-0.040	-0.065
-620.376	134.335	-0.122	0.158
-619.361	-200.000	-0.103	-0.480
-618.346	-200.000	0.046	-0.297
-617.332	-106.746	0.501	0.112
-616.317	181.440	-0.271	-0.401
-615.303	-61.906	-0.192	0.081
-614.288	800.000	0.040	-0.151
-613.273	-200.000	0.020	-0.335
-612.259	-200.000	-0.009	-0.181
-611.244	-200.000	-0.019	0.255
-610.230	61.743	0.080	-0.080
-609.215	248.552	0.069	0.117
-608.201	-177.297	0.283	0.007
-607.186	110.644	-0.178	0.215
-606.171	800.000	-0.027	-0.085
-605.157	94.756	-0.093	-0.106
-604.142	63.149	-0.049	0.049
-603.128	137.970	0.276	-0.363
-602.113	18.366	-0.007	-0.005
-601.098	-31.457	0.098	0.055
-600.084	-76.899	-0.086	0.030
-599.069	255.565	-0.053	0.091
-598.055	800.000	0.024	-0.073
-597.040	742.524	-0.102	-0.276
-596.025	-9.879	-0.202	-0.135
-595.011	-71.490	0.555	-0.208
-593.996	39.766	-0.130	-0.117
-592.982	-84.936	0.034	-0.011
-591.967	-10.688	-0.354	0.235
-590.952	216.977	0.116	-0.186
-589.938	-83.590	0.334	0.107
-588.923	-200.000	-0.008	-0.106
-587.909	46.803	-0.182	0.170
-586.894	-107.512	0.091	-0.020
-585.879	257.644	0.077	0.134
-584.865	-38.045	0.279	-0.149
-583.850	-132.873	-0.308	0.039
-582.836	-127.855	0.116	-0.017
-581.821	130.045	-0.183	-0.235
-580.806	67.157	0.150	0.154
-579.792	5.428	0.231	-0.171
-578.777	439.888	0.049	-0.108
-577.763	-73.838	0.289	0.105
-576.748	-28.341	0.167	0.096
-575.733	-200.000	-0.021	0.305
-574.719	211.093	-0.031	-0.049
-573.704	-115.641	-0.102	0.019
-572.690	262.503	-0.036	0.063
-571.675	-2.812	-0.283	-0.198
-570.661	-150.005	-0.286	-0.022
-569.646	-132.328	0.095	-0.012
-568.631	-23.427	-0.232	-0.139
-567.617	11.597	-0.356	-0.274
-566.602	800.000	-0.086	-0.256
-565.588	-160.190	0.230	0.013
-564.573	30.858	-0.252	0.217
-563.558	800.000	0.079	-0.247
-562.544	800.000	0.071	0.308
-561.529	221.081	-0.069	0.111
-560.515	75.061	-0.013	-0.014
-559.500	345.845	-0.072	0.141
-558.485	19.282	0.027	0.022
-557.471	66.145	-0.036	-0.037
-556.456	800.000	-0.092	0.288
-555.442	132.530	-0.132	0.170
-554.427	184.462	0.186	0.276
-553.412	323.969	-0.016	-0.030
-552.398	-86.758	-0.095	0.029
-551.383	59.331	0.069	-0.068
-550.369	-163.679	-0.407	0.019
-549.354	-37.722	0.546	-0.291
-548.339	23.099	-0.147	0.121
-547.325	-109.106	-0.170	0.036
-546.310	-200.000	0.020	0.169
-545.296	-21.615	-0.144	-0.088
-544.281	-105.956	0.239	0.054
-543.266	-200.000	0.022	0.138
-542.252	-79.955	-0.211	-0.071
-541.237	253.489	0.084	-0.144
-540.223	282.273	-0.095	-0.171
-539.208	-48.874	0.095	-0.046
-538.193	54.298	0.256	-0.247
-537.179	800.000	-0.032	0.089
-536.164	494.739	-0.059	0.135
-535.150	182.276	-0.104	-0.154
-534.135	171.577	-0.105	-0.152
-533.121	-86.089	-0.224	-0.069
-532.106	-97.426	0.075	0.019
-531.091	-200.000	-0.008	-0.055
-530.077	-92.485	-0.294	-0.083
-529.062	-90.735	-0.239	0.069
-528.048	-49.728	0.056	-0.027
-527.033	416.930	-0.072	-0.154
-526.018	800.000	0.135	-0.402
-525.004	421.185	0.030	0.064
-523.989	800.000	-0.026	-0.113
-522.975	474.385	-0.141	0.319
-521.960	-48.924	-0.141	0.068
-520.945	-200.000	0.025	0.149
-519.931	6.004	-0.210	-0.156
-518.916	-200.000	-0.014	-0.148
-517.902	-200.000	-0.049	-0.349
-516.887	-200.000	-0.005	-0.209
-515.872	190.404	-0.124	-0.187
-514.858	62.578	-0.133	0.133
-513.843	-79.763	-0.127	-0.043
-512.829	-120.659	0.123	-0.021
-511.814	384.006	0.083	-0.172
-510.799	-200.000	-0.044	0.211
-509.785	-132.066	-0.476	-0.062
-508.770	-165.362	0.053	-0.002
-507.756	-200.000	-0.004	0.155
-506.741	120.798	-0.127	-0.158
-505.726	176.208	-0.023	-0.033
-504.712	138.158	-0.224	-0.294
-503.697	-96.165	0.082	0.022
-502.683	56.288	0.263	0.256
-501.668	-21.664	-0.098	-0.059
-500.653	49.786	-0.178	-0.168
-499.639	-200.000	0.008	-0.099
-498.624	-73.201	0.463	0.170
-497.610	-98.189	0.213	-0.055
-496.595	-200.000	0.012	-0.111
-495.581	-68.947	-0.267	-0.103
-494.566	-41.662	0.173	-0.089
-493.551	487.726	0.136	0.310
-492.537	-135.798	-0.245	0.029
-491.522	189.156	0.200	-0.299
-490.508	9.459	-0.240	0.181
-489.493	800.000	-0.086	0.241
-488.478	17.108	0.277	-0.220
-487.464	48.468	-0.181	-0.170
-486.449	32.745	-0.223	0.193
-485.435	41.531	-0.131	-0.118
-484.420	-43.009	-0.009	-0.004
-483.405	48.549	-0.030	-0.028
-482.391	800.000	-0.018	-0.056
-481.376	-115.323	0.038	0.007
-480.362	-62.351	0.197	0.082
-479.347	-200.000	0.030	-0.279
-478.332	-151.291	-0.274	-0.020
-477.318	-200.000	-0.012	-0.125
-476.303	-37.589	0.243	-0.129
-475.289	222.568	0.203	0.326
-474.274	54.984	-0.207	0.199
-473.259	-200.000	0.004	-0.134
-472.245	-200.000	0.016	0.102
-471.230	-56.123	0.184	0.082
-470.216	-120.256	-0.227	0.039
-469.201	800.000	0.054	-0.196
-468.186	-108.222	0.364	-0.079
-467.172	406.070	0.046	0.098
-466.157	-132.146	-0.363	0.047
-465.143	-200.000	-0.015	-0.086
-464.128	-45.622	0.246	-0.122
-463.113	800.000	0.041	0.146
-462.099	306.067	-0.187	0.347
-461.084	-114.920	0.103	0.020
-460.070	-65.024	0.323	0.130
-459.055	154.876	-0.090	-0.124
-458.040	-149.623	0.170	0.013
-457.026	740.044	0.029	0.078
-456.011	-153.138	0.331	0.023
-454.997	106.958	-0.203	0.240
-453.982	-200.000	0.015	-0.084
-452.968	-37.736	-0.128	0.068
-451.953	117.250	-0.049	-0.060
-450.938	-167.979	-0.393	-0.015
-449.924	73.551	0.174	-0.182
-448.909	230.387	-0.127	-0.207
-447.895	-200.000	-0.054	0.239
-446.880	48.856	-0.268	-0.251
-445.865	569.727	-0.102	0.247
-444.851	283.211	0.035	-0.063
-443.836	-200.000	0.005	0.061
-442.822	19.109	0.272	0.218
-441.807	166.415	0.204	0.288
-440.792	-156.349	-0.187	-0.012
-439.778	164.373	-0.323	0.454
-438.763	-79.333	0.217	0.073
-437.749	85.889	-0.354	-0.388
-436.734	-34.890	0.213	-0.116
-435.719	358.895	-0.032	0.063
-434.705	41.845	0.132	0.119
-433.690	-86.672	0.141	-0.043
-432.676	-200.000	0.029	-0.167
-431.661	164.404	0.114	0.161
-430.646	349.275	-0.137	-0.269
-429.632	49.426	0.186	0.174
-428.617	-35.310	-0.109	0.059
-427.603	-200.000	0.020	-0.148
-426.588	330.120	0.095	0.181
-425.573	800.000	-0.062	0.238
-424.559	536.826	-0.057	-0.135
-423.544	786.969	0.062	0.169
-422.530	85.594	0.188	0.206
-421.515	185.223	-0.155	0.229
-420.500	64.898	-0.207	-0.208
-419.486	-200.000	0.029	-0.141
-418.471	800.000	0.081	0.285
-417.457	-200.000	0.011	-0.344
-416.442	-200.000	0.001	0.094
-415.428	159.570	-0.107	-0.149
-414.413	-21.471	-0.352	-0.214
-413.398	-30.408	0.069	0.039
-412.384	-200.000	-0.065	0.287
-411.369	317.230	-0.161	0.302
-410.355	-200.000	-0.048	0.232
-409.340	-117.454	-0.353	-0.064
-408.325	-168.717	0.147	0.006
-407.311	-200.000	-0.020	0.179
-406.296	-118.104	-0.297	0.053
-405.282	-200.000	-0.019	0.105
-404.267	-200.000	-0.037	0.193
-403.252	800.000	-0.111	0.315
-402.238	-200.000	-0.023	0.226
-401.223	491.655	-0.112	-0.256
-400.209	-132.504	0.552	-0.071
-399.194	19.268	-0.197	0.158
-398.179	31.499	0.163	-0.139
-397.165	-157.526	-0.324	-0.019
-396.150	75.029	-0.093	-0.098
-395.136	-200.000	-0.034	-0.529
-394.121	165.043	-0.094	0.132
-393.106	-122.738	-0.306	0.049
-392.092	696.772	-0.039	-0.102
-391.077	-74.607	0.191	0.068
-390.063	-200.000	-0.057	0.289
-389.048	137.520	0.219	-0.285
-388.033	358.933	0.190	-0.378
-387.019	-200.000	0.007	0.286
-386.004	800.000	0.026	-0.110
-384.990	-200.000	0.024	0.158
-383.975	-81.269	-0.035	0.012
-382.960	228.291	0.310	0.502
-381.946	-150.912	0.196	0.015
-380.931	18.661	0.141	-0.113
-379.917	-38.480	0.236	-0.124
-378.902	50.324	0.195	0.183
-377.888	-200.000	0.004	0.111
-376.873	-101.001	-0.145	0.036
-375.858	-51.854	-0.303	0.140
-374.844	-106.829	0.256	0.056
-373.829	-55.068	0.358	0.160
-372.815	-106.250	0.051	0.011
-371.800	-67.511	-0.164	-0.064
-370.785	-162.683	0.351	0.017
-369.771	104.444	0.166	0.195
-368.756	-77.174	0.084	0.029
-367.742	19.733	-0.047	0.038
-366.727	-102.061	0.106	-0.025
-365.712	225.870	-0.099	0.160
-364.698	800.000	-0.039	-0.133
-363.683	-200.000	-0.000	-0.115
-362.669	-11.179	-0.157	-0.103
-361.654	-71.670	0.109	0.041
-360.639	-153.057	-0.200	0.014
-359.625	67.116	0.216	0.219
-358.610	-101.750	0.418	-0.101
-357.596	423.379	0.081	0.173
-356.581	-116.339	-0.404	0.074
-355.566	94.272	0.113	0.127
-354.552	-16.429	0.021	0.013
-353.537	-64.838	0.215	0.087
-352.523	-200.000	-0.083	-0.405
-351.508	-21.290	0.233	-0.141
-350.493	281.775	0.152	-0.270
-349.479	-15.995	0.424	-0.268
-348.464	17.880	0.109	0.086
-347.450	800.000	-0.010	0.037
-346.435	571.417	0.069	-0.166
-345.420	-200.000	0.047	0.267
-344.406	-107.937	-0.156	0.034
-343.391	137.797	-0.101	0.132
-342.377	800.000	-0.041	0.153
-341.362	-134.824	0.155	-0.019
-340.348	800.000	0.052	0.155
-339.333	-51.790	0.230	0.107
-338.318	491.750	-0.069	0.156
-337.304	59.667	-0.098	-0.096
-336.289	-200.000	-0.000	0.033
-335.275	-123.801	0.110	0.017
-334.260	-5.568	-0.068	0.046
-333.245	154.078	0.108	-0.148
-332.231	170.741	-0.116	-0.165
-331.216	490.257	0.045	0.102
-330.202	-157.771	0.139	0.008
-329.187	-126.608	-0.164	0.024
-328.172	-14.267	-0.169	0.108
-327.158	-47.099	0.453	-0.219
-326.143	-47.544	-0.254	-0.123
-325.129	138.378	-0.135	0.176
-324.114	-88.680	-0.208	0.061
-323.099	-200.000	-0.047	0.307
-322.085	-137.975	0.005	-0.001
-321.070	-114.695	0.148	-0.028
-320.056	-200.000	-0.024	-0.230
-319.041	22.712	0.319	0.259
-318.026	152.816	0.176	0.239
-317.012	-200.000	0.012	0.385
-315.997	-52.083	-0.349	0.161
-314.983	5.633	0.165	-0.121
-313.968	-200.000	-0.007	-0.373
-312.953	800.000	0.094	-0.321
-311.939	-22.056	0.202	0.122
-310.924	-200.000	0.073	0.357
-309.910	-19.868	0.273	0.168
-308.895	642.122	-0.064	-0.163
-307.880	-161.219	-0.323	-0.017
-306.866	-182.531	0.231	0.004
-305.851	800.000	0.056	0.155
-304.837	-200.000	-0.002	-0.042
-303.822	-89.342	-0.109	0.032
-302.807	208.053	0.137	-0.212
-301.793	-58.494	0.415	-0.179
-300.778	116.120	0.166	-0.201
-299.764	57.137	0.115	-0.111
-298.749	800.000	-0.067	-0.200
-297.735	-200.000	-0.007	-0.266
-296.720	494.565	0.071	0.163
-295.705	-14.334	0.325	0.208
-294.691	-200.000	0.023	-0.316
-293.676	-23.701	0.135	-0.080
-292.662	-200.000	0.006	0.234
-291.647	-87.597	-0.346	-0.104
-290.632	-11.498	0.165	-0.108
-289.618	-179.359	-0.282	-0.006
-288.603	-200.000	0.002	-0.065
-287.589	-200.000	0.077	-0.418
-286.574	229.167	0.048	0.077
-285.559	-177.534	-0.009	0.000
-284.545	-46.131	0.166	-0.081
-283.530	-128.942	-0.102	0.014
-282.516	-200.000	-0.036	0.368
-281.501	800.000	-0.124	0.418
-280.486	226.395	-0.047	0.076
-279.472	237.766	0.112	0.185
-278.457	-5.044	0.180	0.123
-277.443	-200.000	-0.001	0.296
-276.428	-84.765	-0.052	0.016
-275.413	-77.841	-0.112	-0.038
-274.399	37.473	-0.112	-0.098
-273.384	-200.000	0.019	0.408
-272.370	357.008	0.058	0.114
-271.355	-43.794	0.186	-0.093
-270.340	-57.186	-0.084	0.037
-269.326	104.470	0.166	-0.194
-268.311	-51.687	0.232	-0.107
-267.297	42.567	-0.104	-0.094
-266.282	-104.355	-0.316	0.073
-265.267	-200.000	-0.001	-0.062
-264.253	-12.118	0.230	0.149
-263.238	-200.000	0.013	0.059
-262.224	-102.799	-0.207	-0.049
-261.209	50.188	0.090	0.084
-260.195	-50.870	-0.321	0.150
-259.180	69.636	-0.052	-0.053
-258.165	252.274	0.054	0.091
-257.151	-27.434	-0.319	-0.184
-256.136	62.623	-0.108	0.107
-255.122	-133.453	-0.078	-0.010
-254.107	-200.000	0.010	-0.194
-253.092	134.741	0.117	0.151
-252.078	375.914	0.158	0.320
-251.063	32.786	0.359	0.308
-250.049	800.000	0.052	0.159
-249.034	28.496	0.222	-0.186
-248.019	39.535	-0.295	-0.262
-247.005	-152.377	-0.272	-0.019
-245.990	-3.066	0.099	0.068
-244.976	49.796	-0.227	0.212
-243.961	192.906	-0.127	0.190
-242.946	-146.307	-0.026	0.002
-241.932	800.000	-0.021	0.078
-240.917	-133.272	-0.055	0.007
-239.903	-200.000	0.018	0.176
-238.888	800.000	-0.104	-0.308
-237.873	-73.183	-0.270	-0.098
-236.859	524.281	0.038	-0.088
-235.844	-200.000	0.003	-0.255
-234.830	158.964	0.032	0.043
-233.815	-55.248	-0.161	0.072
-232.800	127.553	0.127	-0.160
-231.786	-200.000	0.001	0.139
-230.771	-48.344	0.184	-0.088
-229.757	-115.510	0.085	0.016
-228.742	-153.953	-0.342	0.023
-227.727	-101.251	-0.234	-0.057
-226.713	-101.134	-0.028	0.007
-225.698	-79.584	-0.018	-0.006
-224.684	-119.733	0.194	0.033
-223.669	800.000	0.053	0.194
-222.655	761.184	-0.033	-0.087
-221.640	45.528	0.178	-0.162
-220.625	60.279	-0.178	-0.174
-219.611	800.000	-0.086	0.270
-218.596	800.000	0.046	0.163
-217.582	-151.362	0.293	0.022
-216.567	86.931	0.257	0.280
-215.552	-115.614	0.100	-0.019
-214.538	-61.759	0.238	0.099
-213.523	-66.609	-0.244	0.096
-212.509	-107.715	-0.436	-0.094
-211.494	14.864	-0.097	0.075
-210.479	800.000	-0.128	0.458
-209.465	288.878	0.101	-0.181
-208.450	-79.692	0.179	0.060
-207.436	-133.466	0.324	0.040
-206.421	-200.000	-0.007	-0.172
-205.406	420.769	-0.173	0.366
-204.392	86.270	-0.202	0.220
-203.377	52.396	-0.338	0.318
-202.363	23.712	-0.221	-0.180
-201.348	-118.179	0.172	-0.030
-200.333	-33.677	0.198	0.108
-199.319	548.016	0.033	-0.078
-198.304	-200.000	-0.032	-0.175
-197.290	306.596	-0.110	-0.202
-196.275	-200.000	0.026	-0.263
-195.260	-44.852	-0.044	-0.022
-194.246	103.531	0.383	-0.444
-193.231	-200.000	-0.040	0.230
-192.217	17.954	-0.257	-0.202
-191.202	-200.000	-0.020	0.110
-190.187	281.634	-0.089	-0.158
-189.173	-19.166	0.188	0.115
-188.158	-123.909	0.316	-0.049
-187.144	-1.318	-0.214	-0.149
-186.129	-200.000	0.017	-0.253
-185.114	-46.932	0.054	0.026
-184.100	-200.000	0.051	-0.362
-183.085	-49.126	-0.149	-0.070
-182.071	224.704	-0.282	-0.451
-181.056	800.000	-0.049	-0.199
-180.042	497.079	0.086	0.196
-179.027	101.345	-0.153	-0.176
-178.012	300.441	0.182	0.331
-176.998	-141.754	-0.240	0.024
-175.983	144.858	-0.076	0.100
-174.969	606.174	-0.046	0.113
-173.954	8.985	0.357	-0.266
-172.939	-98.442	0.222	-0.056
-171.925	-148.704	0.271	0.022
-170.910	-200.000	0.054	-0.489
-169.896	800.000	-0.036	-0.112
-168.881	-44.670	0.275	-0.136
-167.866	800.000	0.034	0.122
-166.852	-75.484	0.207	-0.073
-165.837	-55.871	0.302	-0.133
-164.823	8.323	-0.215	0.159
-163.808	-155.961	-0.080	-0.005
-162.793	16.052	-0.148	0.115
-161.779	-30.481	0.358	0.200
-160.764	30.632	-0.257	-0.217
-159.750	86.096	0.031	-0.034
-158.735	125.418	0.084	-0.104
-157.720	-156.807	0.294	-0.018
-156.706	-94.926	0.033	0.009
-155.691	-143.109	-0.088	0.008
-154.677	-147.848	-0.240	-0.020
-153.662	-18.683	-0.154	-0.095
-152.647	92.081	-0.248	0.276
-151.633	81.351	0.099	-0.105
-150.618	-128.056	0.059	-0.008
-149.604	-58.823	0.112	-0.048
-148.589	208.331	-0.063	0.098
-147.574	-41.903	-0.261	0.132
-146.560	-109.959	-0.038	0.008
-145.545	436.786	-0.093	-0.200
-144.531	800.000	0.094	-0.372
-143.516	-93.184	0.134	-0.037
-142.502	-59.395	0.067	0.028
-141.487	-200.000	-0.015	0.351
-140.472	206.095	-0.237	0.363
-139.458	560.265	-0.102	-0.242
-138.443	500.502	0.145	-0.330
-137.429	-129.535	0.588	-0.080
-136.414	-131.731	0.210	0.027
-135.399	-124.143	0.352	0.054
-134.385	20.085	-0.134	-0.107
-133.370	-200.000	-0.024	-0.218
-132.356	178.002	0.169	0.243
-131.341	-200.000	0.013	0.087
-130.326	73.870	-0.171	0.177
-129.312	20.783	0.458	-0.366
-128.297	25.864	0.093	0.076
-127.283	191.821	-0.063	0.093
-126.268	-200.000	0.026	-0.195
-125.253	-133.871	-0.279	0.034
-124.239	-76.595	-0.343	0.119
-123.224	-123.910	-0.211	0.033
-122.210	-82.648	0.197	-0.063
-121.195	71.770	0.129	-0.132
-120.180	-58.269	-0.199	-0.086
-119.166	-83.859	-0.310	0.097
-118.151	-38.716	-0.198	0.103
-117.137	-77.065	0.041	0.014
-116.122	186.027	-0.073	-0.107
-115.107	59.894	-0.048	-0.047
-114.093	63.737	-0.228	0.225
-113.078	-164.002	0.419	0.019
-112.064	-200.000	0.008	0.054
-111.049	-25.121	-0.167	-0.098
-110.034	12.335	-0.381	-0.289
-109.020	-200.000	-0.019	0.202
-108.005	-128.454	0.414	-0.058
-106.991	800.000	-0.034	0.146
-105.976	-200.000	0.003	0.062
-104.962	-91.428	0.084	-0.024
-103.947	-143.869	0.095	0.009
-102.932	-200.000	-0.010	0.065
-101.918	-9.012	0.096	0.063
-100.903	688.456	-0.052	0.135
-99.889	147.723	0.028	-0.037
-98.874	153.233	-0.006	0.007
-97.859	-52.336	0.327	0.149
-96.845	-3.718	-0.133	-0.091
-95.830	25.548	-0.325	-0.266
-94.816	-163.824	-0.279	-0.013
-93.801	-94.198	0.250	0.067
-92.786	-200.000	-0.005	-0.065
-91.772	-99.259	0.148	0.037
-90.757	-123.435	0.203	0.032
-89.743	-15.386	-0.154	-0.097
-88.728	205.013	-0.223	0.341
-87.713	-200.000	-0.067	0.325
-86.699	44.881	0.235	0.213
-85.684	-49.025	-0.302	0.142
-84.670	196.651	0.150	-0.224
-83.655	-200.000	0.026	-0.156
-82.640	33.014	-0.086	-0.073
-81.626	-72.440	-0.236	-0.086
-80.611	-116.135	-0.216	-0.040
-79.597	-98.232	-0.210	-0.053
-78.582	-200.000	-0.023	0.340
-77.567	-4.202	-0.172	0.117
-76.553	281.493	0.037	0.064
-75.538	-200.000	-0.051	0.361
-74.524	44.359	-0.122	-0.110
-73.509	209.802	0.084	-0.130
-72.494	-200.000	0.015	0.408
-71.480	-162.957	0.209	0.010
-70.465	-200.000	-0.024	0.262
-69.451	-118.546	0.098	0.017
-68.436	-85.688	-0.131	-0.040
-67.422	57.759	0.193	-0.185
-66.407	-123.965	-0.320	0.050
-65.392	468.336	0.048	0.106
-64.378	-126.413	0.218	-0.032
-63.363	-200.000	-0.092	-0.528
-62.349	3.118	0.083	0.060
-61.334	40.690	-0.844	-0.748
-60.319	474.439	0.140	0.310
-59.305	800.000	-0.273	-0.836
-58.290	84.785	0.799	0.860
-57.276	-200.000	0.202	1.557
-56.261	-200.000	95.255	593.864
-55.246	559.011	1367.232	3243.061
-54.232	162.202	2547.829	3509.322
-53.217	112.367	2154.673	2561.104
-52.203	42.261	1699.172	1517.111
-51.188	34.816	1511.260	1298.923
-50.173	32.392	1484.641	1259.787
-49.159	52.115	1533.773	1436.112
-48.144	53.962	1551.827	1465.531
-47.130	35.143	1511.091	1300.792
-46.115	31.987	1496.376	1266.808
-45.100	31.726	1493.489	1262.560
-44.086	31.707	1491.294	1260.524
-43.071	31.623	1489.282	1258.209
-42.057	31.677	1487.468	1256.987
-41.042	31.713	1486.351	1256.238
-40.027	31.690	1484.981	1254.873
-39.013	31.560	1483.732	1252.898
-37.998	31.663	1482.059	1252.128
-36.984	31.631	1480.979	1250.950
-35.969	31.595	1479.535	1249.439
-34.954	31.632	1477.998	1248.339
-33.940	31.701	1476.887	1247.811
-32.925	31.644	1475.807	1246.467
-31.911	31.710	1474.426	1245.690
-30.896	31.721	1472.718	1244.272
-29.881	31.732	1471.755	1243.484
-28.867	31.698	1470.671	1242.291
-27.852	31.635	1469.028	1240.439
-26.838	31.672	1467.711	1239.522
-25.823	31.711	1465.808	1238.123
-24.809	31.679	1464.022	1236.355
-23.794	31.706	1462.761	1235.417
-22.779	31.735	1461.819	1234.767
-21.765	31.656	1460.667	1233.225
-20.750	31.660	1459.445	1232.165
-19.736	31.571	1458.680	1230.888
-18.721	31.625	1457.319	1230.045
-17.706	31.608	1455.840	1228.636
-16.692	31.592	1455.007	1227.782
-15.677	31.633	1453.745	1226.935
-14.663	31.622	1452.933	1226.126
-13.648	31.558	1452.268	1225.098
-12.633	31.534	1451.606	1224.333
-11.619	31.581	1450.374	1223.558
-10.604	31.582	1449.378	1222.676
-9.590	31.576	1448.709	1222.020
-8.575	31.614	1447.679	1221.354
-7.560	31.526	1447.225	1220.346
-6.546	31.599	1445.894	1219.652
-5.531	31.528	1445.254	1218.599
-4.517	31.594	1443.420	1217.438
-3.502	31.611	1443.231	1217.334
-2.487	31.689	1441.922	1216.694
-1.473	31.594	1440.864	1215.135
-0.458	31.543	1440.205	1214.201
0.556	32.275	1430.739	1203.581
1.571	29.679	1405.438	1165.837
2.586	26.646	1350.153	1101.464
3.600	25.395	1270.769	1029.446
4.615	24.137	1224.909	985.257
5.629	20.488	1167.269	919.538
6.644	10.614	1081.234	803.048
7.659	3.356	1040.307	737.923
8.673	2.510	1034.531	729.730
9.688	2.179	1031.374	725.866
10.702	2.051	1030.105	724.302
11.717	2.021	1027.921	722.557
12.731	5.086	1031.532	739.581
13.746	14.902	1044.823	795.980
14.761	23.129	1055.517	843.452
15.775	25.342	1057.830	855.784
16.790	25.597	1057.774	856.879
17.804	25.575	1056.533	855.693
18.819	25.392	1055.939	854.266
19.834	25.414	1055.808	854.186
20.848	25.495	1055.289	854.077
21.863	25.729	1054.573	854.533
22.877	25.651	1054.151	853.747
23.892	25.679	1053.326	853.135
24.907	25.519	1053.044	852.075
25.921	25.531	1052.168	851.347
26.936	25.663	1051.151	851.073
27.950	25.554	1050.240	849.742
28.965	25.619	1049.165	849.106
29.980	25.536	1047.655	847.416
30.994	25.433	1046.428	845.864
32.009	25.611	1045.318	845.728
33.023	25.690	1045.263	845.981
34.038	25.489	1044.006	843.947
35.053	25.465	1043.453	843.311
36.067	25.574	1042.787	843.208
37.082	25.597	1041.791	842.439
38.096	25.696	1041.064	842.236
39.111	25.719	1041.074	842.279
40.126	25.968	1039.405	842.016
41.140	25.737	1038.786	840.364
42.155	25.606	1036.892	838.147
43.169	25.156	1035.819	835.112
44.184	25.209	1034.830	834.485
45.199	25.332	1033.564	833.960
46.213	25.061	1033.015	832.189
47.228	25.216	1032.093	832.088
48.242	25.411	1031.554	832.485
49.257	25.556	1030.959	832.604
50.271	25.592	1029.810	831.769
51.286	25.554	1029.374	831.168
52.301	25.560	1029.313	831.070
53.315	25.744	1027.910	830.715
54.330	25.634	1027.283	829.628
55.344	25.598	1026.047	828.391
56.359	25.518	1025.131	827.207
57.374	25.684	1024.334	827.258
58.388	25.364	1023.715	825.211
59.403	25.308	1022.636	824.012
60.417	25.400	1022.174	823.987
61.432	25.277	1021.053	822.451
62.447	25.247	1020.625	821.895
63.461	25.426	1019.851	822.019
64.476	25.347	1019.555	821.342
65.490	25.339	1018.512	820.393
66.505	25.235	1017.364	818.925
67.520	25.296	1016.752	818.634
68.534	25.278	1015.847	817.755
69.549	25.259	1014.924	816.851
70.563	24.875	1014.019	814.305
71.578	24.775	1013.400	813.280
72.593	24.881	1012.114	812.658
73.607	24.774	1011.085	811.273
74.622	24.740	1010.302	810.419
75.636	24.890	1010.067	810.840
76.651	25.146	1008.899	810.990
77.666	25.069	1007.851	809.728
78.680	24.766	1007.561	808.051
79.695	24.949	1006.667	808.091
80.709	25.058	1005.737	807.762
81.724	25.210	1005.196	807.940
82.739	25.220	1003.993	806.947
83.753	25.136	1003.283	805.931
84.768	25.430	1003.329	807.217
85.782	25.675	1002.923	807.920
86.797	25.923	1001.852	808.094
87.812	25.909	1000.801	807.112
88.826	25.732	999.742	805.395
89.841	25.764	999.111	804.959
90.855	25.791	998.473	804.495
91.870	25.825	997.488	803.784
92.884	25.730	996.849	802.773
93.899	25.734	996.034	802.061
94.914	25.550	994.909	800.266
95.928	25.700	993.813	799.982
96.943	25.769	993.402	799.886
97.957	25.573	991.921	797.753
98.972	25.300	990.987	795.722
99.987	25.094	989.990	793.939
101.001	25.177	989.419	793.779
102.016	25.512	988.981	794.839
103.030	25.581	987.935	794.232
104.045	25.455	987.051	792.893
105.060	25.264	985.985	791.129
106.074	25.116	984.736	789.404
107.089	25.157	984.072	788.981
108.103	25.558	983.566	790.268
109.118	25.554	982.742	789.519
110.133	25.259	981.915	787.490
111.147	25.274	980.755	786.555
112.162	25.308	979.477	785.610
113.176	25.049	978.443	783.581
114.191	25.107	977.801	783.247
115.206	25.374	976.665	783.434
116.220	24.965	975.811	780.896
117.235	24.722	974.958	779.088
118.249	24.844	974.849	779.463
119.264	24.905	973.898	778.899
120.279	24.936	972.630	777.950
121.293	24.716	972.272	776.640
122.308	24.922	971.790	777.082
123.322	24.963	970.965	776.531
124.337	24.936	969.172	774.910
125.352	24.983	967.534	773.735
126.366	24.450	966.878	770.839
127.381	24.189	965.351	768.428
128.395	24.558	965.751	770.272
129.410	25.356	964.985	773.027
130.424	25.359	964.260	772.393
131.439	25.369	963.574	771.818
132.454	25.393	962.099	770.670
133.468	25.524	961.132	770.388
134.483	25.421	960.648	769.492
135.497	25.307	960.275	768.637
136.512	25.635	959.626	769.453
137.527	25.644	958.596	768.600
138.541	25.722	957.705	768.147
139.556	25.741	957.192	767.750
140.570	25.756	956.354	767.072
141.585	25.703	955.641	766.209
142.600	25.783	955.011	765.977
143.614	25.682	954.158	764.796
144.629	25.755	953.559	764.557
145.643	25.973	952.978	764.948
146.658	25.760	952.101	763.273
147.673	25.683	950.871	761.896
148.687	25.638	949.505	760.544
149.702	25.557	948.261	759.137
150.716	25.539	947.277	758.204
151.731	25.398	946.423	756.861
152.746	25.417	946.081	756.602
153.760	25.614	945.637	757.007
154.775	25.782	944.782	756.962
155.789	25.941	943.863	756.829
156.804	25.820	943.046	755.598
157.819	25.860	941.554	754.504
158.833	25.950	941.028	754.390
159.848	25.969	940.576	754.040
160.862	25.953	939.812	753.296
161.877	25.857	938.658	751.901
162.892	25.779	938.035	751.012
163.906	25.842	936.851	750.260
164.921	25.863	936.310	749.848
165.935	25.813	934.948	748.485
166.950	25.848	934.334	748.071
167.964	25.978	933.445	747.834
168.979	25.866	932.115	746.238
169.994	25.799	931.319	745.256
171.008	25.577	930.514	743.628
172.023	25.875	929.764	744.194
173.037	26.001	929.186	744.185
174.052	25.838	927.928	742.441
175.067	25.569	926.970	740.501
176.081	25.476	926.224	739.458
177.096	25.685	925.725	739.854
178.110	25.670	924.521	738.765
179.125	25.454	923.561	737.045
180.140	25.117	922.925	735.089
181.154	25.297	922.068	735.081
182.169	25.244	921.872	734.643
183.183	25.502	921.291	735.168
184.198	25.716	921.434	736.092
185.213	25.784	920.244	735.355
186.227	25.667	919.748	734.418
187.242	25.746	919.662	734.603
188.256	25.820	918.515	733.925
189.271	25.801	917.859	733.257
190.286	25.940	917.157	733.197
191.300	25.776	916.457	731.906
192.315	25.218	915.070	728.469
193.329	24.455	913.226	723.844
194.344	24.089	912.009	721.333
195.359	24.761	912.238	724.172
196.373	25.614	912.747	727.966
197.388	25.912	912.323	728.769
198.402	25.909	911.603	728.115
199.417	25.675	911.343	726.899
200.432	25.652	910.953	726.430
201.446	25.488	910.332	725.209
202.461	25.509	908.955	724.132
203.475	25.375	908.122	722.868
204.490	24.965	907.224	720.440
205.504	23.876	905.145	714.354
206.519	24.213	905.444	715.878
207.534	25.198	905.462	719.785
208.548	25.283	905.030	719.719
209.563	25.571	904.980	720.770
210.577	25.703	904.028	720.476
211.592	25.453	903.074	718.654
212.607	25.868	903.282	720.413
213.621	25.949	903.157	720.574
214.636	25.942	901.772	719.376
215.650	25.989	901.427	719.224
216.665	26.023	900.607	718.643
217.680	25.914	900.208	717.826
218.694	25.969	900.053	717.857
219.709	25.631	899.246	715.807
220.723	25.302	898.067	713.496
221.738	25.525	897.276	713.691
222.753	25.824	896.751	714.395
223.767	25.742	896.433	713.753
224.782	25.803	895.677	713.333
225.796	26.001	895.197	713.670
226.811	25.974	894.769	713.160
227.826	25.793	893.179	711.115
228.840	24.774	891.693	705.848
229.855	24.711	891.376	705.288
230.869	25.024	890.939	706.111
231.884	24.725	889.933	704.076
232.899	24.656	889.754	703.602
233.913	25.490	889.798	706.856
234.928	25.639	889.190	706.895
235.942	25.613	888.859	706.467
236.957	25.472	888.486	705.554
237.972	25.357	887.147	703.978
238.986	25.384	886.127	703.210
240.001	25.429	886.131	703.329
241.015	25.346	885.674	702.579
242.030	25.390	884.759	701.964
243.045	25.470	884.218	701.786
244.059	25.651	884.062	702.305
245.074	25.877	883.565	702.729
246.088	25.720	882.860	701.496
247.103	25.342	881.849	699.156
248.117	25.557	881.085	699.326
249.132	26.036	881.025	701.079
250.147	26.273	881.172	702.057
251.161	26.524	880.498	702.431
252.176	26.627	879.954	702.333
253.190	26.604	879.370	701.715
254.205	26.620	878.819	701.277
255.220	26.844	878.407	701.753
256.234	26.678	877.891	700.636
257.249	26.657	877.147	699.901
258.263	26.469	876.366	698.487
259.278	26.605	876.025	698.681
260.293	26.599	875.838	698.444
261.307	26.499	875.133	697.437
262.322	26.695	874.127	697.326
263.336	26.665	873.510	696.657
264.351	26.023	872.497	693.321
265.366	24.921	870.447	687.403
266.380	24.546	869.373	685.054
267.395	25.435	869.973	688.879
268.409	26.219	870.067	691.896
269.424	26.100	869.548	690.969
270.439	26.289	868.825	691.054
271.453	26.555	868.237	691.543
272.468	26.378	867.698	690.377
273.482	26.621	867.296	690.922
274.497	26.680	867.215	691.021
275.512	26.470	865.895	689.108
276.526	25.938	864.178	685.657
277.541	26.210	864.004	686.493
278.555	26.540	863.639	687.398
279.570	26.246	863.462	686.079
280.585	26.181	862.616	685.097
281.599	26.174	862.479	684.901
282.614	26.345	861.647	684.828
283.628	25.830	860.492	681.902
284.643	25.675	859.363	680.362
285.657	26.139	859.756	682.365
286.672	25.892	858.944	680.730
287.687	25.358	858.045	677.941
288.701	25.915	857.855	679.832
289.716	26.201	857.676	680.710
290.730	25.787	856.917	678.486
291.745	25.619	855.908	676.995
292.760	25.628	854.700	676.013
293.774	25.416	854.820	675.251
294.789	26.416	855.107	679.175
295.803	26.966	855.432	681.438
296.818	26.990	854.664	680.859
297.833	27.075	854.217	680.760
298.847	26.679	853.143	678.361
299.862	26.397	852.150	676.459
300.876	26.606	851.992	677.054
301.891	26.972	851.427	677.913
302.906	26.949	850.851	677.309
303.920	26.796	849.865	675.891
304.935	26.575	849.240	674.511
305.949	27.013	849.009	675.899
306.964	27.144	848.412	675.853
307.979	26.781	847.615	673.808
308.993	26.586	847.604	673.016
310.008	27.150	847.315	674.821
311.022	27.065	846.868	674.091
312.037	26.918	846.208	672.960
313.052	26.724	845.513	671.630
314.066	26.670	844.340	670.438
315.081	25.986	843.313	667.033
316.095	25.312	841.746	663.246
317.110	25.812	842.180	665.378
318.125	26.583	842.092	668.093
319.139	26.223	841.398	666.156
320.154	25.026	839.666	660.318
321.168	24.340	838.971	657.188
322.183	25.139	839.264	660.302
323.197	26.247	839.362	664.400
324.212	26.413	839.125	664.761
325.227	26.477	838.964	664.810
326.241	26.804	838.545	665.623
327.256	26.637	837.637	664.231
328.270	26.537	837.210	663.464
329.285	26.547	836.160	662.611
330.300	26.322	835.713	661.376
331.314	26.102	834.756	659.754
332.329	26.087	834.715	659.609
333.343	26.474	834.089	660.471
334.358	26.916	833.641	661.666
335.373	26.929	833.096	661.226
336.387	26.892	832.862	660.846
337.402	27.063	832.485	661.110
338.416	27.303	831.719	661.318
339.431	27.266	831.165	660.682
340.446	27.324	830.823	660.561
341.460	27.409	830.686	660.704
342.475	27.418	830.022	660.150
343.489	27.218	828.917	658.488
344.504	27.094	828.727	657.829
345.519	27.548	828.367	659.129
346.533	27.636	828.146	659.214
347.548	27.595	828.033	658.916
348.562	27.633	827.220	658.350
349.577	27.681	826.500	657.892
350.592	27.596	825.942	657.083
351.606	27.564	825.466	656.531
352.621	27.643	825.087	656.453
353.635	27.419	824.564	655.175
354.650	27.315	824.218	654.465
355.665	27.049	823.016	652.501
356.679	26.018	821.420	647.479
357.694	25.881	820.697	646.360
358.708	26.546	820.649	648.647
359.723	26.474	819.929	647.763
360.738	26.731	819.894	648.597
361.752	27.290	819.713	650.398
362.767	27.467	819.352	650.686
363.781	27.712	818.967	651.197
364.796	27.872	818.901	651.657
365.810	27.935	818.889	651.816
366.825	28.038	818.652	651.937
367.840	28.096	818.059	651.614
368.854	27.904	817.356	650.313
369.869	27.457	816.652	648.104
370.883	27.350	815.590	646.825
371.898	27.430	815.061	646.631
372.913	27.304	814.857	645.966
373.927	27.316	813.861	645.161
374.942	27.461	813.442	645.284
375.956	27.624	812.824	645.313
376.971	27.717	812.166	645.063
377.986	27.821	811.796	645.079
379.000	27.922	811.905	645.468
380.015	27.977	811.303	645.127
381.029	27.813	810.403	643.776
382.044	27.727	809.910	643.022
383.059	27.743	809.773	642.915
384.073	27.914	809.002	642.845
385.088	27.913	808.498	642.387
386.102	27.965	807.745	641.913
387.117	27.745	807.018	640.505
388.132	27.699	806.515	639.888
389.146	27.362	806.277	638.463
390.161	26.853	805.176	635.748
391.175	26.984	805.230	636.196
392.190	27.484	805.073	637.765
393.205	27.810	804.031	638.024
394.219	26.686	802.356	632.714
395.234	24.850	800.301	624.639
396.248	24.150	799.249	621.322
397.263	25.275	800.052	625.815
398.278	27.193	801.065	633.242
399.292	27.601	801.550	634.990
400.307	27.198	800.829	632.958
401.321	27.209	800.351	632.565
402.336	27.189	800.001	632.162
403.350	27.541	799.991	633.320
404.365	27.918	799.835	634.452
405.380	28.261	799.900	635.639
406.394	28.569	799.504	636.336
407.409	28.608	799.121	636.109
408.423	28.626	798.468	635.598
409.438	28.618	797.951	635.099
410.453	28.641	797.381	634.672
411.467	28.701	797.139	634.630
412.482	28.606	796.607	633.821
413.496	28.602	795.938	633.220
414.511	28.767	795.464	633.353
415.526	28.618	795.248	632.614
416.540	28.597	795.180	632.431
417.555	28.604	794.544	631.894
418.569	28.434	793.618	630.517
419.584	28.197	792.893	629.070
420.599	28.301	792.351	628.941
421.613	112.315	1286.142	1461.361
422.628	96.728	1358.076	1461.481
