DTS Sentinel unit serial number:	SN413079Multiplexer serial number:	ORYXHardware model number:	OX4-SRSoftware version number:	ORYX F/W v4.00 Oryx Data Collector v3.7.2.0data status	okinstallation	princeton_trtdifferential loss correction	single-endedforward channel	channel 3reverse channel	N/Adate	2019/09/12time	07:02:11forward acquisition time	60.00reverse acquisition time	0.00gamma	496.2192k internal	0.2319k external	0.2319temperature offset calibration	1.0032default loss term (dB/km)	0.3790temperature slope calibration	1.0000multiplexer offset coefficient	1.0000multiplexer slope coefficient	1.0000fibre end	0.00T internal ref (°C)	32.12T ext. ref 1 (°C)	1.60T ext. ref 2 (°C)	27.41length (m)	temperature (°C)	Stokes	anti-Stokes-747.200	292.849	-0.135	0.250
-746.185	800.000	0.059	0.212
-745.171	612.107	-0.109	0.277
-744.156	571.206	-0.121	0.297
-743.142	1.209	0.087	0.063
-742.127	-200.000	-0.020	0.211
-741.112	-153.074	-0.197	0.014
-740.098	243.577	0.145	0.247
-739.083	-200.000	-0.061	0.312
-738.069	-49.507	-0.244	-0.118
-737.054	22.771	-0.215	-0.178
-736.039	106.070	0.025	-0.030
-735.025	367.998	-0.121	0.247
-734.010	64.927	0.197	0.201
-732.996	-200.000	-0.024	-0.229
-731.981	-118.249	0.142	-0.026
-730.966	-200.000	0.043	0.207
-729.952	-119.434	0.175	0.031
-728.937	-49.890	0.039	-0.019
-727.923	363.518	-0.208	-0.422
-726.908	-102.873	-0.415	0.100
-725.894	-27.715	0.050	0.029
-724.879	-161.645	-0.346	0.018
-723.864	-200.000	0.026	-0.280
-722.850	-178.735	-0.221	-0.005
-721.835	722.193	-0.037	-0.099
-720.821	131.713	-0.080	-0.104
-719.806	-98.948	0.158	-0.040
-718.791	421.117	-0.094	-0.203
-717.777	-171.841	-0.102	0.003
-716.762	249.619	-0.147	-0.251
-715.748	41.368	0.128	0.117
-714.733	326.840	-0.053	-0.102
-713.718	-34.648	0.009	0.005
-712.704	149.735	-0.105	0.144
-711.689	-44.799	-0.310	-0.156
-710.675	105.138	0.078	0.093
-709.660	23.330	0.169	-0.140
-708.645	-103.649	-0.237	0.056
-707.631	-161.184	0.136	-0.007
-706.616	-200.000	-0.011	0.143
-705.602	-52.017	-0.319	0.150
-704.587	-200.000	0.008	-0.191
-703.572	195.838	0.237	-0.364
-702.558	800.000	0.077	0.223
-701.543	-125.562	0.407	-0.062
-700.529	64.211	-0.072	0.073
-699.514	-200.000	0.013	-0.150
-698.499	165.116	0.191	0.273
-697.485	686.630	-0.036	0.096
-696.470	212.236	0.082	0.131
-695.456	119.510	-0.124	0.155
-694.441	52.581	-0.021	0.020
-693.426	44.513	0.126	-0.117
-692.412	-90.649	-0.241	-0.070
-691.397	-97.289	-0.057	0.015
-690.383	279.928	0.140	-0.252
-689.368	800.000	0.062	0.194
-688.354	171.602	0.140	-0.202
-687.339	62.199	-0.084	-0.085
-686.324	88.898	-0.244	-0.275
-685.310	88.779	-0.077	0.086
-684.295	-85.289	-0.136	-0.043
-683.281	702.815	-0.179	-0.477
-682.266	800.000	-0.053	-0.186
-681.251	16.043	-0.217	0.172
-680.237	352.545	0.147	-0.295
-679.222	-167.321	0.156	0.006
-678.208	-200.000	0.003	0.043
-677.193	-200.000	0.028	0.166
-676.178	25.338	-0.130	0.109
-675.164	-123.182	0.200	0.032
-674.149	-200.000	-0.004	-0.382
-673.135	164.954	0.250	-0.356
-672.120	-9.835	0.202	-0.136
-671.105	800.000	0.039	-0.145
-670.091	375.701	-0.123	0.253
-669.076	-200.000	-0.034	0.345
-668.062	353.637	-0.089	0.179
-667.047	800.000	0.039	0.118
-666.032	-11.511	0.151	-0.100
-665.018	-200.000	-0.026	0.261
-664.003	234.663	-0.128	0.212
-662.989	120.717	0.129	0.161
-661.974	-159.259	0.344	-0.020
-660.959	133.544	0.244	0.319
-659.945	-200.000	0.010	0.052
-658.930	123.279	-0.079	0.100
-657.916	-133.782	0.349	0.044
-656.901	-141.808	-0.455	0.046
-655.886	96.097	0.060	-0.070
-654.872	-115.651	0.298	-0.056
-653.857	-40.033	0.143	-0.075
-652.843	20.315	-0.186	-0.152
-651.828	-33.337	-0.152	-0.085
-650.814	800.000	0.052	0.191
-649.799	106.653	-0.145	0.173
-648.784	418.185	-0.029	-0.061
-647.770	233.897	0.068	0.112
-646.755	1.582	0.038	0.028
-645.741	794.897	-0.003	-0.008
-644.726	-200.000	0.012	-0.074
-643.711	361.724	-0.025	0.050
-642.697	-36.576	0.476	0.258
-641.682	114.659	-0.172	-0.212
-640.668	44.260	-0.057	-0.053
-639.653	35.187	-0.105	0.093
-638.638	-59.778	-0.139	-0.060
-637.624	-45.739	0.386	-0.192
-636.609	800.000	0.118	0.366
-635.595	-200.000	0.068	-0.312
-634.580	175.217	0.063	-0.091
-633.565	-55.412	-0.431	-0.195
-632.551	320.707	0.091	0.173
-631.536	-87.727	0.274	-0.083
-630.522	287.506	-0.065	0.118
-629.507	-110.838	0.475	-0.099
-628.492	198.174	0.094	0.144
-627.478	418.061	-0.107	0.229
-626.463	-122.821	-0.294	0.048
-625.449	-200.000	-0.006	0.130
-624.434	-200.000	0.003	-0.044
-623.419	-71.499	-0.224	0.084
-622.405	-31.506	0.109	0.062
-621.390	413.332	0.132	-0.283
-620.376	463.224	-0.140	0.314
-619.361	115.918	-0.089	-0.109
-618.346	380.918	-0.061	0.126
-617.332	-3.279	-0.190	-0.133
-616.317	-200.000	-0.017	-0.180
-615.303	478.316	-0.102	-0.232
-614.288	-66.741	-0.249	-0.099
-613.273	-11.524	-0.068	-0.045
-612.259	373.041	-0.063	-0.130
-611.244	-99.336	0.324	-0.082
-610.230	646.317	-0.075	0.194
-609.215	-200.000	-0.026	-0.214
-608.201	509.441	0.169	-0.394
-607.186	266.304	0.182	0.321
-606.171	-18.185	-0.141	-0.089
-605.157	-177.137	-0.204	0.005
-604.142	68.327	0.162	-0.167
-603.128	-200.000	0.001	0.048
-602.113	-39.756	-0.379	-0.199
-601.098	353.554	-0.127	-0.254
-600.084	800.000	-0.052	-0.229
-599.069	20.541	-0.195	0.159
-598.055	-200.000	0.031	-0.138
-597.040	-113.514	-0.388	0.076
-596.025	-200.000	-0.014	0.068
-595.011	225.777	-0.191	-0.311
-593.996	-200.000	-0.001	-0.330
-592.982	-88.107	-0.179	0.054
-591.967	262.352	0.133	0.232
-590.952	-125.172	0.160	-0.025
-589.938	-8.474	-0.137	0.092
-588.923	13.722	-0.075	0.059
-587.909	357.376	-0.046	-0.091
-586.894	-77.675	0.281	0.098
-585.879	40.303	0.179	-0.162
-584.865	238.154	-0.075	-0.125
-583.850	-200.000	-0.022	-0.112
-582.836	-110.372	-0.388	-0.081
-581.821	58.136	0.275	0.271
-580.806	-11.591	-0.185	0.122
-579.792	-126.817	-0.207	0.031
-578.777	-103.160	0.268	-0.064
-577.763	104.514	-0.096	0.113
-576.748	56.121	0.152	0.149
-575.733	364.090	-0.145	-0.292
-574.719	800.000	0.070	0.274
-573.704	487.951	0.047	-0.109
-572.690	97.608	0.152	-0.176
-571.675	-73.378	0.235	-0.086
-570.661	-200.000	0.027	-0.179
-569.646	-200.000	-0.019	0.183
-568.631	-82.231	-0.342	0.112
-567.617	-69.321	-0.295	-0.114
-566.602	-74.800	-0.246	0.089
-565.588	-200.000	-0.003	0.064
-564.573	800.000	0.062	0.174
-563.558	-83.391	-0.172	-0.055
-562.544	322.068	-0.077	0.147
-561.529	12.465	0.164	-0.127
-560.515	313.974	0.175	0.330
-559.500	233.006	0.049	0.081
-558.485	-68.348	0.293	0.114
-557.471	305.613	-0.141	0.262
-556.456	83.889	-0.034	0.037
-555.442	-162.730	-0.236	-0.012
-554.427	-200.000	0.011	-0.313
-553.412	800.000	0.039	0.160
-552.398	-49.508	0.297	0.142
-551.383	18.797	-0.180	0.145
-550.369	123.211	-0.155	-0.195
-549.354	61.662	0.065	-0.065
-548.339	332.227	0.180	0.349
-547.325	-105.861	0.482	0.109
-546.310	107.635	-0.110	0.131
-545.296	-91.716	0.136	-0.039
-544.281	244.157	-0.140	0.236
-543.266	217.317	-0.140	0.223
-542.252	154.546	-0.156	0.216
-541.237	20.444	-0.196	0.159
-540.223	391.083	-0.122	-0.254
-539.208	-200.000	-0.032	-0.183
-538.193	-148.082	0.243	-0.020
-537.179	-136.998	-0.533	0.061
-536.164	-95.248	0.139	0.037
-535.150	-43.716	0.225	-0.114
-534.135	39.603	-0.056	0.051
-533.121	800.000	-0.073	-0.276
-532.106	96.608	0.121	-0.139
-531.091	-17.810	0.520	-0.328
-530.077	-95.849	-0.171	-0.046
-529.062	-82.708	0.168	-0.055
-528.048	76.732	-0.194	0.206
-527.033	-200.000	0.018	-0.098
-526.018	800.000	-0.026	-0.075
-525.004	17.715	-0.160	-0.128
-523.989	95.880	0.221	0.253
-522.975	-131.174	-0.343	-0.046
-521.960	152.130	-0.185	0.253
-520.945	-52.329	0.296	-0.138
-519.931	-3.749	0.074	-0.051
-518.916	59.765	0.101	0.100
-517.902	-130.360	-0.133	0.018
-516.887	199.083	0.210	-0.323
-515.872	179.199	0.155	-0.228
-514.858	-71.770	-0.094	-0.035
-513.843	-200.000	-0.039	-0.203
-512.829	-200.000	0.052	0.235
-511.814	800.000	0.018	0.059
-510.799	800.000	0.029	-0.126
-509.785	-200.000	0.025	-0.307
-508.770	-200.000	-0.013	0.299
-507.756	95.660	0.310	-0.354
-506.741	-164.745	0.301	0.014
-505.726	-200.000	-0.005	-0.021
-504.712	120.177	-0.124	-0.154
-503.697	345.047	0.149	0.293
-502.683	205.919	-0.086	-0.134
-501.668	399.887	0.142	0.299
-500.653	-51.812	-0.195	0.091
-499.639	-68.958	-0.075	0.029
-498.624	800.000	-0.032	0.112
-497.610	-105.194	-0.298	-0.068
-496.595	284.261	0.066	0.119
-495.581	-48.179	-0.216	-0.104
-494.566	-200.000	0.025	-0.279
-493.551	-92.240	0.165	0.047
-492.537	-10.325	-0.082	0.054
-491.522	71.315	0.260	-0.271
-490.508	-11.115	0.189	-0.125
-489.493	-200.000	0.016	-0.093
-488.478	-0.013	-0.097	-0.069
-487.464	800.000	0.051	-0.159
-486.449	355.903	-0.122	0.243
-485.435	-19.583	-0.389	0.241
-484.420	800.000	-0.083	0.309
-483.405	-200.000	-0.071	-0.327
-482.391	84.897	-0.215	0.236
-481.376	-59.355	0.157	-0.068
-480.362	-84.752	0.217	-0.068
-479.347	29.936	-0.087	0.074
-478.332	-51.772	-0.054	-0.025
-477.318	-200.000	-0.027	0.214
-476.303	-51.128	-0.136	0.064
-475.289	91.963	-0.049	-0.055
-474.274	800.000	-0.011	0.030
-473.259	-94.243	0.140	0.038
-472.245	13.214	-0.185	0.144
-471.230	79.579	0.046	-0.049
-470.216	-23.027	0.049	0.030
-469.201	-136.451	0.235	-0.027
-468.186	-51.209	-0.221	0.104
-467.172	-15.337	-0.016	0.010
-466.157	-66.189	0.059	-0.023
-465.143	528.865	0.081	0.191
-464.128	315.062	0.237	-0.446
-463.113	-45.811	0.123	-0.061
-462.099	-73.360	0.249	0.091
-461.084	-77.823	0.122	0.042
-460.070	235.379	0.185	-0.306
-459.055	-21.771	-0.297	-0.181
-458.040	105.885	-0.200	0.236
-457.026	-0.169	0.323	0.230
-456.011	379.511	-0.056	-0.116
-454.997	-99.656	-0.139	0.035
-453.982	-124.590	-0.325	0.050
-452.968	-141.503	0.560	-0.057
-451.953	-40.255	-0.243	0.127
-450.938	-65.739	-0.085	0.034
-449.924	-131.393	-0.212	0.028
-448.909	-40.167	0.216	-0.112
-447.895	20.238	0.163	0.131
-446.880	-200.000	-0.010	0.175
-445.865	-200.000	0.007	-0.155
-444.851	-121.007	0.172	0.029
-443.836	-200.000	0.005	0.037
-442.822	-151.080	-0.194	0.015
-441.807	800.000	0.032	-0.114
-440.792	-141.328	-0.122	0.012
-439.778	800.000	0.094	0.371
-438.763	-14.670	-0.251	-0.161
-437.749	35.986	0.191	0.168
-436.734	-64.190	0.239	-0.098
-435.719	-200.000	0.021	-0.096
-434.705	67.415	0.193	0.197
-433.690	67.178	0.117	0.119
-432.676	-168.315	0.160	-0.006
-431.661	-48.566	0.050	-0.024
-430.646	-98.265	-0.158	0.040
-429.632	124.683	-0.260	-0.326
-428.617	-122.799	-0.065	-0.010
-427.603	55.674	0.283	0.274
-426.588	66.051	-0.043	0.044
-425.573	98.984	0.342	-0.395
-424.559	-117.073	-0.273	-0.050
-423.544	-123.066	0.058	-0.009
-422.530	-193.168	-0.343	-0.003
-421.515	-57.598	-0.239	0.105
-420.500	-88.355	0.178	-0.053
-419.486	-200.000	-0.045	-0.324
-418.471	-200.000	-0.008	0.588
-417.457	58.324	-0.135	0.132
-416.442	88.950	0.060	-0.067
-415.428	1.671	0.068	-0.049
-414.413	66.987	-0.137	0.139
-413.398	800.000	0.015	-0.049
-412.384	-81.910	-0.187	-0.061
-411.369	100.036	-0.076	-0.088
-410.355	407.944	-0.087	-0.184
-409.340	-200.000	0.031	0.208
-408.325	118.817	0.057	-0.071
-407.311	-109.210	-0.127	-0.027
-406.296	-108.707	-0.114	-0.024
-405.282	800.000	0.052	0.151
-404.267	279.936	-0.060	-0.107
-403.252	151.918	-0.215	0.293
-402.238	506.560	0.086	-0.199
-401.223	-118.408	0.203	-0.036
-400.209	147.745	0.061	-0.082
-399.194	89.975	0.183	-0.204
-398.179	-198.921	-0.311	-0.002
-397.165	-67.353	-0.125	0.049
-396.150	-88.611	-0.160	-0.048
-395.136	53.669	0.132	-0.126
-394.121	414.405	-0.074	-0.158
-393.106	-8.783	-0.247	-0.165
-392.092	-200.000	0.025	0.348
-391.077	-200.000	-0.011	0.171
-390.063	-200.000	-0.039	-0.199
-389.048	28.028	0.137	0.115
-388.033	-62.363	0.105	-0.043
-387.019	33.432	0.115	-0.099
-386.004	27.315	-0.206	0.173
-384.990	-62.992	-0.130	0.054
-383.975	-104.875	0.537	-0.123
-382.960	-47.159	-0.006	0.003
-381.946	-170.260	-0.487	-0.017
-380.931	254.270	-0.136	0.232
-379.917	-175.935	-0.271	0.007
-378.902	-133.762	0.225	-0.028
-377.888	126.983	-0.052	-0.066
-376.873	297.236	0.132	0.242
-375.858	-118.500	-0.132	0.023
-374.844	-48.007	0.145	-0.070
-373.829	-200.000	0.033	-0.206
-372.815	-200.000	-0.042	-0.370
-371.800	40.427	-0.301	0.271
-370.785	-113.737	0.290	-0.056
-369.771	219.748	0.126	-0.201
-368.756	178.854	0.131	0.191
-367.742	800.000	-0.105	0.360
-366.727	-200.000	0.039	0.192
-365.712	-104.847	0.225	0.051
-364.698	-43.579	0.271	0.136
-363.683	186.446	0.186	0.276
-362.669	-50.646	-0.238	0.112
-361.654	-200.000	-0.048	-0.264
-360.639	422.118	0.146	-0.313
-359.625	-80.414	0.134	0.045
-358.610	151.490	0.149	-0.202
-357.596	800.000	0.074	0.265
-356.581	22.922	0.121	-0.099
-355.566	-200.000	-0.016	0.239
-354.552	800.000	-0.088	0.380
-353.537	-195.709	-0.133	-0.001
-352.523	-200.000	-0.005	-0.332
-351.508	45.928	0.286	0.264
-350.493	-15.310	0.166	-0.106
-349.479	-200.000	-0.026	-0.174
-348.464	-200.000	0.035	0.403
-347.450	-0.721	0.102	0.072
-346.435	-98.528	-0.359	-0.091
-345.420	-108.096	-0.086	-0.018
-344.406	153.332	-0.029	0.040
-343.391	-30.348	0.114	0.065
-342.377	-153.020	-0.215	0.015
-341.362	-88.130	-0.208	-0.062
-340.348	42.388	0.010	-0.009
-339.333	-60.540	0.019	-0.008
-338.318	380.565	0.021	-0.043
-337.304	210.270	0.213	-0.332
-336.289	19.970	-0.275	-0.221
-335.275	-150.115	0.204	-0.016
-334.260	800.000	0.053	0.147
-333.245	-200.000	-0.065	0.433
-332.231	792.013	0.061	0.168
-331.216	-72.000	0.128	0.047
-330.202	1.771	-0.109	0.078
-329.187	800.000	0.028	0.107
-328.172	800.000	-0.046	0.128
-327.158	-32.477	-0.221	0.123
-326.143	153.275	0.251	-0.341
-325.129	-192.950	-0.422	-0.004
-324.114	344.308	0.074	-0.145
-323.099	-200.000	-0.009	-0.333
-322.085	-200.000	-0.000	0.265
-321.070	800.000	0.089	-0.276
-320.056	-89.226	0.237	-0.070
-319.041	44.557	0.142	-0.130
-318.026	-105.481	-0.301	0.068
-317.012	211.165	-0.070	0.110
-315.997	-118.793	0.119	-0.021
-314.983	-79.034	0.235	0.079
-313.968	-133.212	-0.258	0.032
-312.953	430.222	0.168	-0.361
-311.939	-200.000	0.009	0.249
-310.924	-72.206	-0.061	0.023
-309.910	800.000	-0.062	0.258
-308.895	35.035	-0.087	-0.076
-307.880	-7.976	-0.308	-0.207
-306.866	5.373	0.125	0.092
-305.851	189.866	-0.179	-0.268
-304.837	-93.668	0.525	-0.144
-303.822	800.000	-0.093	-0.282
-302.807	126.749	-0.047	0.060
-301.793	-85.899	0.197	0.061
-300.778	359.219	0.184	0.367
-299.764	-139.174	-0.175	0.019
-298.749	-195.864	-0.283	0.002
-297.735	16.775	-0.074	-0.059
-296.720	800.000	-0.017	0.052
-295.705	-200.000	-0.015	0.284
-294.691	800.000	-0.098	-0.287
-293.676	800.000	-0.027	0.078
-292.662	-200.000	0.015	0.297
-291.647	303.565	0.150	-0.277
-290.632	196.540	0.120	-0.181
-289.618	800.000	-0.022	-0.065
-288.603	50.039	0.145	0.136
-287.589	-25.113	0.132	-0.078
-286.574	44.078	-0.032	-0.029
-285.559	173.764	-0.107	-0.153
-284.545	-177.685	-0.441	-0.011
-283.530	-200.000	-0.021	0.417
-282.516	-64.833	0.211	0.085
-281.501	402.320	0.132	0.275
-280.486	198.212	-0.122	0.185
-279.472	-51.533	0.142	0.066
-278.457	-200.000	0.013	0.272
-277.443	-200.000	-0.028	-0.429
-276.428	80.997	-0.117	-0.126
-275.413	-53.929	0.055	0.025
-274.399	800.000	0.071	-0.289
-273.384	-181.459	-0.301	-0.006
-272.370	-200.000	0.007	0.183
-271.355	172.207	-0.148	-0.211
-270.340	-173.806	0.214	0.006
-269.326	-54.623	0.225	-0.101
-268.311	800.000	0.093	0.361
-267.297	-200.000	-0.030	0.454
-266.282	-87.381	-0.144	-0.043
-265.267	800.000	-0.079	-0.232
-264.253	-17.981	0.211	-0.131
-263.238	-147.262	-0.203	0.017
-262.224	-88.291	-0.336	-0.100
-261.209	-200.000	0.014	0.182
-260.195	800.000	-0.072	0.265
-259.180	24.419	0.063	-0.052
-258.165	-126.853	0.200	-0.029
-257.151	-4.675	0.272	-0.186
-256.136	167.988	0.038	0.054
-255.122	800.000	0.039	-0.140
-254.107	-189.246	0.196	0.002
-253.092	-200.000	0.042	0.283
-252.078	-200.000	0.041	-0.275
-251.063	-129.605	-0.319	-0.044
-250.049	800.000	0.056	0.198
-249.034	-70.993	-0.129	0.048
-248.019	-111.217	-0.329	-0.067
-247.005	-139.131	0.379	0.041
-245.990	-200.000	-0.012	-0.138
-244.976	-99.458	0.144	0.036
-243.961	-18.429	-0.253	0.157
-242.946	-124.492	-0.202	0.031
-241.932	-126.526	-0.244	-0.036
-240.917	380.886	0.042	-0.086
-239.903	120.103	0.096	-0.118
-238.888	-114.925	-0.012	-0.002
-237.873	-200.000	0.023	0.141
-236.859	349.963	0.227	0.445
-235.844	46.148	0.324	-0.298
-234.830	19.613	0.142	0.113
-233.815	759.955	0.075	-0.200
-232.800	-61.044	0.139	0.058
-231.786	-128.902	-0.243	0.034
-230.771	-76.701	0.323	-0.112
-229.757	34.139	0.099	0.086
-228.742	-9.625	0.209	0.138
-227.727	-200.000	0.006	-0.063
-226.713	40.436	-0.189	0.168
-225.698	800.000	-0.036	0.155
-224.684	-200.000	-0.038	0.229
-223.669	-8.956	0.117	-0.077
-222.655	251.442	-0.242	-0.409
-221.640	-71.233	0.320	-0.119
-220.625	356.366	-0.054	-0.106
-219.611	-200.000	-0.063	-0.334
-218.596	237.716	0.016	0.027
-217.582	-108.641	0.302	-0.064
-216.567	-200.000	-0.023	0.110
-215.552	547.823	0.051	0.122
-214.538	3.184	-0.275	0.198
-213.523	-172.663	0.298	0.009
-212.509	42.597	0.204	-0.184
-211.494	-5.158	0.252	0.172
-210.479	232.358	0.282	-0.458
-209.465	12.431	0.183	0.140
-208.450	96.979	0.150	-0.171
-207.436	-32.740	-0.200	-0.110
-206.421	-200.000	0.008	0.095
-205.406	-200.000	-0.014	0.615
-204.392	-200.000	0.023	-0.111
-203.377	800.000	-0.024	-0.067
-202.363	50.158	0.065	-0.061
-201.348	50.635	-0.251	-0.235
-200.333	795.936	0.189	-0.514
-199.319	15.098	-0.203	0.158
-198.304	-138.930	-0.307	0.033
-197.290	138.528	0.198	-0.258
-196.275	212.543	0.117	-0.183
-195.260	-65.005	0.090	0.036
-194.246	-143.880	-0.326	-0.030
-193.231	-87.960	-0.167	0.050
-192.217	778.772	-0.008	0.021
-191.202	800.000	0.045	-0.173
-190.187	-200.000	0.009	0.055
-189.173	49.799	-0.111	-0.104
-188.158	98.943	-0.131	0.150
-187.144	-103.659	-0.154	0.036
-186.129	205.780	0.134	0.206
-185.114	143.519	0.134	0.176
-184.100	-75.583	0.364	-0.128
-183.085	-169.319	-0.251	0.009
-182.071	130.324	0.164	-0.209
-181.056	-107.787	0.150	0.032
-180.042	-136.238	-0.309	0.036
-179.027	-8.641	-0.095	-0.063
-178.012	-62.396	0.107	0.044
-176.998	800.000	-0.091	0.264
-175.983	-159.005	-0.213	0.012
-174.969	-37.146	0.117	-0.062
-173.954	-3.159	0.295	0.204
-172.939	-86.942	-0.163	-0.049
-171.925	132.974	-0.271	-0.346
-170.910	800.000	0.063	-0.233
-169.896	800.000	-0.038	0.110
-168.881	-103.269	-0.276	-0.064
-167.866	435.570	-0.125	0.269
-166.852	-103.314	0.065	0.015
-165.837	800.000	-0.041	0.131
-164.823	495.653	-0.035	-0.078
-163.808	-93.211	-0.276	0.076
-162.793	-148.669	-0.211	0.017
-161.779	115.404	0.157	0.189
-160.764	165.777	-0.140	-0.196
-159.750	800.000	0.050	-0.169
-158.735	50.006	-0.084	-0.079
-157.720	-43.249	-0.072	-0.036
-156.706	-31.571	0.222	-0.123
-155.691	-200.000	-0.015	-0.180
-154.677	-59.600	0.213	0.090
-153.662	-200.000	-0.055	0.270
-152.647	-35.452	0.228	-0.122
-151.633	-96.474	0.240	0.063
-150.618	800.000	0.037	-0.150
-149.604	363.494	0.127	0.252
-148.589	-200.000	-0.001	-0.096
-147.574	800.000	0.131	-0.396
-146.560	48.794	0.209	0.194
-145.545	-40.589	-0.205	0.105
-144.531	-152.800	-0.348	0.024
-143.516	-121.872	-0.082	0.013
-142.502	-200.000	-0.037	0.168
-141.487	87.121	0.046	-0.050
-140.472	-200.000	0.317	0.001
-139.458	-84.500	0.135	-0.042
-138.443	-87.094	-0.335	-0.101
-137.429	-162.367	-0.259	0.013
-136.414	733.712	-0.063	0.168
-135.399	-10.110	-0.196	-0.129
-134.385	358.708	-0.143	-0.283
-133.370	57.875	0.201	-0.195
-132.356	-144.811	-0.114	0.010
-131.341	-200.000	0.053	-0.500
-130.326	-142.820	0.168	0.016
-129.312	-200.000	-0.030	0.328
-128.297	-200.000	-0.011	-0.328
-127.283	795.754	0.107	-0.292
-126.268	-200.000	0.010	-0.107
-125.253	-200.000	-0.001	0.019
-124.239	-200.000	0.030	0.282
-123.224	-200.000	0.018	-0.108
-122.210	-96.528	0.268	-0.070
-121.195	-116.773	0.313	0.057
-120.180	38.720	0.071	-0.063
-119.166	150.255	0.222	0.297
-118.151	-200.000	-0.000	-0.197
-117.137	-26.277	0.149	0.086
-116.122	800.000	-0.046	-0.176
-115.107	800.000	0.048	0.162
-114.093	244.484	0.034	-0.056
-113.078	286.743	0.075	-0.134
-112.064	-200.000	0.033	-0.251
-111.049	187.324	-0.247	-0.363
-110.034	-4.263	-0.046	-0.032
-109.020	119.479	-0.291	0.355
-108.005	800.000	0.081	0.333
-106.991	800.000	0.089	-0.342
-105.976	-200.000	0.017	-0.268
-104.962	508.163	0.020	-0.047
-103.947	-134.041	-0.138	-0.017
-102.932	-17.479	0.195	-0.121
-101.918	101.429	-0.080	0.093
-100.903	6.595	0.272	-0.200
-99.889	-30.600	-0.186	0.104
-98.874	-98.735	-0.092	-0.023
-97.859	594.695	-0.037	0.089
-96.845	-147.673	0.121	0.010
-95.830	-200.000	-0.025	0.326
-94.816	-65.593	-0.085	0.034
-93.801	-70.631	0.115	-0.043
-92.786	53.021	0.254	0.239
-91.772	-69.427	0.138	0.052
-90.757	50.049	0.105	-0.098
-89.743	-140.172	0.411	0.043
-88.728	129.649	-0.099	-0.125
-87.713	159.331	-0.052	0.072
-86.699	56.831	-0.081	0.078
-85.684	-10.152	-0.101	0.066
-84.670	-67.911	0.137	-0.053
-83.655	-200.000	0.022	0.196
-82.640	-104.051	0.308	-0.071
-81.626	30.623	-0.168	0.141
-80.611	271.371	-0.070	-0.121
-79.597	800.000	0.014	0.048
-78.582	-107.779	-0.323	0.069
-77.567	-89.787	0.186	0.054
-76.553	-200.000	0.016	0.231
-75.538	28.063	-0.126	0.105
-74.524	-35.284	0.158	-0.085
-73.509	800.000	-0.048	-0.143
-72.494	86.906	-0.115	0.125
-71.480	-26.261	0.082	-0.047
-70.465	113.927	-0.063	-0.075
-69.451	-193.454	-0.165	-0.001
-68.436	-141.969	0.138	0.014
-67.422	-25.081	0.314	-0.183
-66.407	130.453	-0.062	-0.079
-65.392	68.924	-0.162	0.164
-64.378	302.986	-0.069	-0.125
-63.363	-56.800	0.180	-0.078
-62.349	-200.000	0.073	-0.329
-61.334	47.184	-0.898	-0.823
-60.319	179.013	0.398	0.573
-59.305	800.000	-0.302	-1.182
-58.290	-200.000	0.132	1.057
-57.276	316.639	0.646	1.202
-56.261	-200.000	96.473	597.502
-55.246	564.898	1374.634	3280.875
-54.232	160.739	2551.864	3508.419
-53.217	112.132	2163.186	2574.357
-52.203	42.746	1708.285	1532.000
-51.188	35.331	1521.773	1314.115
-50.173	32.981	1495.043	1275.138
-49.159	52.041	1544.649	1448.694
-48.144	53.737	1562.243	1476.785
-47.130	35.543	1521.379	1315.019
-46.115	32.420	1507.139	1281.429
-45.100	32.204	1503.675	1276.968
-44.086	32.225	1501.823	1275.484
-43.071	32.155	1500.113	1273.508
-42.057	32.145	1498.052	1271.642
-41.042	32.198	1496.700	1270.805
-40.027	32.189	1495.450	1269.627
-39.013	32.137	1493.559	1267.621
-37.998	32.098	1492.731	1266.607
-36.984	32.121	1491.786	1265.913
-35.969	32.155	1490.397	1264.912
-34.954	32.179	1488.580	1263.481
-33.940	32.095	1487.377	1261.842
-32.925	32.125	1486.100	1260.914
-31.911	32.237	1484.264	1260.053
-30.896	32.040	1483.726	1258.225
-29.881	32.121	1482.183	1257.411
-28.867	32.195	1480.667	1256.572
-27.852	32.185	1479.370	1255.355
-26.838	32.150	1477.889	1253.811
-25.823	32.093	1476.542	1252.241
-24.809	32.187	1474.214	1250.845
-23.794	32.168	1472.735	1249.414
-22.779	32.133	1472.091	1248.583
-21.765	32.252	1470.349	1247.845
-20.750	32.150	1469.494	1246.391
-19.736	32.170	1468.718	1245.817
-18.721	32.171	1467.376	1244.635
-17.706	32.166	1465.904	1243.309
-16.692	32.094	1465.418	1242.370
-15.677	32.106	1464.417	1241.551
-14.663	32.153	1463.093	1240.691
-13.648	32.062	1462.331	1239.392
-12.633	32.097	1461.580	1238.936
-11.619	32.114	1460.423	1238.022
-10.604	32.112	1459.290	1236.997
-9.590	32.112	1458.816	1236.544
-8.575	32.129	1457.739	1235.698
-7.560	32.076	1456.885	1234.573
-6.546	32.075	1455.932	1233.711
-5.531	32.035	1454.988	1232.598
-4.517	32.131	1453.470	1231.897
-3.502	32.091	1452.925	1231.120
-2.487	32.088	1451.700	1230.018
-1.473	32.104	1450.688	1229.216
-0.458	32.077	1449.233	1227.757
0.556	32.022	1439.518	1217.092
1.571	29.123	1414.949	1177.705
2.586	25.888	1359.008	1111.135
3.600	24.316	1279.486	1036.892
4.615	22.958	1232.691	991.266
5.629	19.266	1174.647	924.736
6.644	9.503	1088.058	807.732
7.659	2.674	1046.993	744.124
8.673	1.812	1041.546	736.020
9.688	1.572	1038.890	732.925
10.702	1.489	1036.779	730.971
11.717	1.537	1034.668	729.650
12.731	4.422	1038.229	745.971
13.746	13.924	1052.290	802.092
14.761	22.223	1063.042	850.536
15.775	24.652	1065.396	864.100
16.790	24.950	1064.885	865.051
17.804	24.875	1064.149	864.015
18.819	24.646	1063.576	862.367
19.834	24.841	1062.688	862.511
20.848	24.933	1062.542	862.762
21.863	24.892	1062.287	862.279
22.877	24.918	1061.891	862.007
23.892	24.925	1060.905	861.166
24.907	24.832	1060.473	860.288
25.921	24.850	1059.086	859.175
26.936	24.811	1058.644	858.552
27.950	24.895	1057.045	857.585
28.965	24.811	1056.299	856.500
29.980	24.959	1054.524	855.690
30.994	24.678	1053.772	853.665
32.009	24.894	1053.031	854.018
33.023	25.092	1052.025	854.070
34.038	24.790	1050.937	851.673
35.053	24.735	1050.625	851.084
36.067	24.966	1049.408	851.122
37.082	24.861	1048.975	850.194
38.096	24.841	1048.495	849.635
39.111	25.093	1047.747	850.149
40.126	25.163	1046.946	849.756
41.140	25.126	1045.900	848.660
42.155	24.860	1043.935	845.730
43.169	24.578	1043.056	843.613
44.184	24.462	1042.108	842.223
45.199	24.565	1041.434	842.091
46.213	24.508	1040.159	840.717
47.228	24.536	1039.362	840.129
48.242	24.694	1038.239	839.890
49.257	24.712	1037.929	839.652
50.271	24.831	1037.271	839.603
51.286	25.005	1036.370	839.613
52.301	25.060	1035.552	839.133
53.315	24.970	1035.232	838.382
54.330	25.045	1034.146	837.775
55.344	24.899	1033.225	836.274
56.359	24.896	1032.761	835.812
57.374	24.842	1032.089	834.942
58.388	24.747	1030.795	833.379
59.403	24.585	1030.657	832.439
60.417	24.633	1029.796	831.891
61.432	24.610	1028.439	830.614
62.447	24.623	1027.926	830.186
63.461	24.789	1027.446	830.497
64.476	24.781	1026.609	829.710
65.490	24.649	1026.015	828.543
66.505	24.671	1024.460	827.317
67.520	24.597	1024.406	826.860
68.534	24.756	1023.190	826.538
69.549	24.503	1022.923	825.083
70.563	24.262	1021.179	822.490
71.578	24.100	1020.669	821.257
72.593	24.280	1019.680	821.221
73.607	24.230	1018.132	819.668
74.622	23.905	1017.994	817.993
75.636	24.322	1016.969	819.011
76.651	24.410	1016.653	819.090
77.666	24.370	1015.541	817.937
78.680	24.128	1014.857	816.206
79.695	24.216	1014.181	815.992
80.709	24.382	1013.648	816.249
81.724	24.562	1012.504	816.080
82.739	24.577	1011.547	815.306
83.753	24.548	1010.891	814.570
84.768	24.802	1010.466	815.314
85.782	25.195	1009.799	816.496
86.797	25.327	1008.771	816.188
87.812	25.255	1008.284	815.397
88.826	25.046	1007.182	813.487
89.841	25.063	1006.978	813.326
90.855	25.176	1005.779	812.798
91.870	25.226	1005.015	812.333
92.884	25.178	1003.922	811.161
93.899	25.019	1003.154	809.752
94.914	24.938	1002.297	808.622
95.928	25.089	1001.636	808.700
96.943	25.154	1000.639	808.116
97.957	24.971	999.098	805.977
98.972	24.567	998.509	803.612
99.987	24.454	996.835	801.687
101.001	24.605	996.745	802.220
102.016	24.772	996.381	802.606
103.030	24.862	995.323	802.085
104.045	24.877	994.177	801.159
105.060	24.653	993.220	799.313
106.074	24.464	992.183	797.565
107.089	24.531	991.378	797.148
108.103	24.887	990.977	798.340
109.118	24.975	989.993	797.870
110.133	24.624	989.059	795.485
111.147	24.644	988.074	794.711
112.162	24.489	987.029	793.112
113.176	24.159	986.046	790.787
114.191	24.392	985.060	790.958
115.206	24.526	984.367	790.925
116.220	24.324	983.035	788.891
117.235	24.168	982.236	787.491
118.249	24.268	981.983	787.660
119.264	24.358	980.859	787.088
120.279	24.238	979.868	785.693
121.293	24.072	979.605	784.683
122.308	24.306	978.984	785.145
123.322	24.262	977.862	783.984
124.337	24.225	976.779	782.885
125.352	24.220	975.425	781.708
126.366	23.768	974.050	778.554
127.381	23.418	972.418	775.650
128.395	23.867	972.824	777.870
129.410	24.670	972.383	780.960
130.424	24.699	971.641	780.420
131.439	24.929	970.276	780.257
132.454	24.755	969.718	778.980
133.468	24.719	968.824	778.037
134.483	24.648	968.218	777.173
135.497	24.784	967.241	776.910
136.512	24.908	966.818	777.044
137.527	24.925	966.301	776.631
138.541	24.993	965.325	776.073
139.556	25.043	964.969	775.935
140.570	25.034	963.667	774.779
141.585	25.143	962.790	774.477
142.600	25.099	962.401	773.907
143.614	25.017	961.457	772.724
144.629	25.118	960.883	772.630
145.643	25.417	960.222	773.317
146.658	25.236	959.048	771.527
147.673	24.953	957.999	769.399
148.687	24.928	957.134	768.527
149.702	25.044	955.584	767.714
150.716	24.917	954.482	766.215
151.731	24.860	953.550	765.157
152.746	24.827	953.370	764.804
153.760	25.161	952.700	765.625
154.775	25.249	952.080	765.432
155.789	25.158	951.335	764.380
156.804	25.226	950.107	763.612
157.819	25.106	949.065	762.197
158.833	25.149	948.503	761.860
159.848	25.204	948.037	761.656
160.862	25.444	946.744	761.564
161.877	25.156	946.353	759.962
162.892	25.091	945.454	758.898
163.906	25.285	944.029	758.508
164.921	25.219	943.490	757.728
165.935	25.153	942.482	756.572
166.950	25.212	941.277	755.788
167.964	25.165	940.920	755.236
168.979	25.046	939.757	753.738
169.994	25.020	938.713	752.722
171.008	24.773	937.754	750.852
172.023	25.059	936.830	751.244
173.037	25.350	936.485	752.118
174.052	25.047	935.337	749.864
175.067	25.018	933.946	748.559
176.081	24.976	933.505	747.965
177.096	24.957	932.745	747.210
178.110	24.947	931.960	746.475
179.125	24.900	930.487	745.034
180.140	24.607	929.595	743.035
181.154	24.555	929.121	742.373
182.169	24.704	928.543	742.467
183.183	24.889	928.466	743.108
184.198	25.046	928.688	743.870
185.213	25.003	927.736	742.863
186.227	24.954	926.783	741.832
187.242	25.047	926.320	741.780
188.256	25.186	925.511	741.640
189.271	25.311	924.570	741.338
190.286	25.372	924.171	741.203
191.300	25.166	923.086	739.418
192.315	24.488	921.908	735.618
193.329	23.781	920.327	731.384
194.344	23.284	919.557	728.660
195.359	23.956	919.892	731.625
196.373	24.851	920.106	735.413
197.388	25.137	919.792	736.271
198.402	25.008	919.029	735.064
199.417	25.076	918.630	734.958
200.432	25.052	918.065	734.345
201.446	24.967	917.182	733.224
202.461	24.654	916.587	731.406
203.475	24.697	916.398	731.365
204.490	24.300	914.719	728.337
205.504	23.248	912.646	722.333
206.519	23.618	912.363	723.555
207.534	24.463	912.797	727.278
208.548	24.574	912.600	727.510
209.563	24.909	912.112	728.418
210.577	25.028	911.110	728.037
211.592	24.783	910.530	726.516
212.607	25.169	910.802	728.237
213.621	25.346	909.684	727.994
214.636	25.256	908.940	726.972
215.650	25.294	908.775	726.930
216.665	25.254	908.006	726.086
217.680	25.216	907.544	725.502
218.694	25.439	906.769	725.716
219.709	25.089	905.813	723.475
220.723	24.700	904.906	721.120
221.738	24.908	904.299	721.409
222.753	25.006	904.171	721.638
223.767	24.971	903.549	720.935
224.782	25.176	902.456	720.824
225.796	25.279	901.978	720.792
226.811	25.265	901.974	720.671
227.826	25.026	900.349	718.348
228.840	24.313	898.782	714.183
229.855	24.106	898.780	713.286
230.869	24.367	898.297	713.888
231.884	24.172	896.896	711.931
232.899	23.966	896.808	710.972
233.913	24.857	897.149	714.743
234.928	24.954	896.583	714.613
235.942	24.929	895.657	713.712
236.957	24.872	894.933	712.847
237.972	24.601	894.112	711.050
238.986	24.532	893.720	710.403
240.001	24.618	893.192	710.262
241.015	24.770	892.078	709.916
242.030	24.776	891.806	709.660
243.045	24.960	890.863	709.577
244.059	25.035	890.431	709.466
245.074	25.295	890.001	710.091
246.088	25.182	889.309	709.028
247.103	24.693	888.852	706.667
248.117	24.760	888.236	706.380
249.132	25.417	888.401	709.045
250.147	25.694	887.602	709.435
251.161	25.778	887.274	709.442
252.176	25.864	887.212	709.669
253.190	26.050	886.162	709.495
254.205	26.004	886.021	709.138
255.220	26.227	885.570	709.594
256.234	26.213	884.225	708.397
257.249	26.087	884.043	707.694
258.263	25.907	883.480	706.475
259.278	25.944	882.622	705.871
260.293	25.940	882.627	705.799
261.307	25.951	882.235	705.464
262.322	25.857	881.736	704.636
263.336	25.739	880.706	703.290
264.351	25.318	879.076	700.285
265.366	24.148	877.565	694.459
266.380	23.844	876.334	692.239
267.395	24.684	876.867	695.871
268.409	25.474	876.806	698.837
269.424	25.563	875.982	698.463
270.439	25.630	875.763	698.487
271.453	25.781	875.170	698.536
272.468	25.772	874.368	697.799
273.482	25.793	874.278	697.749
274.497	25.999	873.822	698.120
275.512	25.819	872.579	696.369
276.526	25.305	871.387	693.373
277.541	25.490	871.286	693.943
278.555	25.726	871.111	694.654
279.570	25.618	870.351	693.570
280.585	25.464	869.753	692.440
281.599	25.518	869.417	692.319
282.614	25.586	868.823	692.045
283.628	25.117	867.452	689.091
284.643	24.858	866.491	687.272
285.657	25.389	866.303	689.100
286.672	25.210	865.839	687.984
287.687	24.735	864.606	685.123
288.701	25.173	864.714	686.824
289.716	25.518	864.751	688.114
290.730	25.042	863.933	685.582
291.745	25.037	862.934	684.709
292.760	24.815	861.855	682.946
293.774	24.710	861.309	682.052
294.789	25.702	861.980	686.307
295.803	26.339	861.516	688.305
296.818	26.251	861.191	687.647
297.833	26.439	860.931	688.096
298.847	26.004	860.322	685.895
299.862	25.567	859.336	683.387
300.876	25.968	858.405	684.109
301.891	26.285	858.260	685.136
302.906	26.285	857.648	684.586
303.920	25.797	856.671	681.899
304.935	25.768	856.142	681.306
305.949	26.192	856.072	682.795
306.964	26.386	855.035	682.641
307.979	26.103	854.507	681.088
308.993	25.890	854.229	680.004
310.008	26.297	853.944	681.250
311.022	26.512	853.698	681.805
312.037	26.314	852.869	680.339
313.052	25.929	852.457	678.501
314.066	25.941	851.590	677.795
315.081	25.310	849.857	673.987
316.095	24.503	848.928	670.163
317.110	25.059	848.910	672.175
318.125	25.908	849.241	675.563
319.139	25.512	848.119	673.129
320.154	24.264	846.665	667.247
321.168	23.869	845.558	664.836
322.183	24.693	845.435	667.761
323.197	25.302	846.447	670.778
324.212	25.780	846.094	672.223
325.227	25.849	845.580	672.013
326.241	26.127	844.855	672.414
327.256	25.942	844.355	671.265
328.270	25.861	843.697	670.382
329.285	25.838	842.899	669.604
330.300	25.666	842.150	668.311
331.314	25.372	841.311	666.495
332.329	25.425	840.881	666.292
333.343	25.766	840.897	667.510
334.358	26.041	840.495	668.149
335.373	26.071	839.845	667.687
336.387	26.145	839.303	667.469
337.402	26.343	839.248	668.099
338.416	26.673	838.792	668.896
339.431	26.590	837.602	667.582
340.446	26.642	837.417	667.567
341.460	26.859	837.247	668.172
342.475	26.778	836.558	667.264
343.489	26.730	835.541	666.218
344.504	26.510	835.342	665.190
345.519	26.702	834.838	665.437
346.533	26.984	834.883	666.450
347.548	27.037	834.280	666.103
348.562	27.144	833.555	665.856
349.577	26.927	833.285	664.789
350.592	27.001	832.461	664.341
351.606	26.941	831.812	663.546
352.621	26.812	831.529	662.791
353.635	26.667	831.269	661.994
354.650	26.785	830.797	661.993
355.665	26.344	829.655	659.412
356.679	25.330	827.885	654.255
357.694	25.152	827.474	653.226
358.708	25.911	827.225	655.732
359.723	25.738	827.077	654.929
360.738	26.170	826.439	655.936
361.752	26.580	826.243	657.211
362.767	26.629	825.844	657.012
363.781	26.983	825.971	658.339
364.796	27.054	826.185	658.709
365.810	27.382	825.165	659.027
366.825	27.531	824.750	659.176
367.840	27.371	824.512	658.346
368.854	27.057	823.982	656.731
369.869	26.753	822.913	654.724
370.883	26.634	822.107	653.595
371.898	26.705	821.788	653.538
372.913	26.609	821.074	652.567
373.927	26.632	820.608	652.222
374.942	26.802	820.154	652.414
375.956	26.859	819.557	652.086
376.971	26.976	819.146	652.124
377.986	27.173	818.644	652.374
379.000	27.224	818.725	652.563
380.015	27.334	817.739	652.115
381.029	27.199	816.817	650.839
382.044	27.162	816.374	650.294
383.059	27.307	815.676	650.199
384.073	27.122	815.571	649.397
385.088	27.290	815.089	649.554
386.102	27.260	814.458	648.887
387.117	27.039	813.806	647.522
388.132	27.153	812.863	647.120
389.146	26.666	812.443	644.995
390.161	26.193	811.483	642.494
391.175	26.375	811.063	642.751
392.190	27.028	811.115	645.057
393.205	27.006	810.328	644.297
394.219	25.865	808.945	639.096
395.234	24.262	806.675	631.570
396.248	23.498	805.719	628.062
397.263	24.530	806.631	632.374
398.278	26.497	808.318	640.613
399.292	26.938	807.868	641.758
400.307	26.620	807.004	639.892
401.321	26.330	806.839	638.681
402.336	26.380	806.645	638.648
403.350	26.817	806.611	640.106
404.365	27.329	806.418	641.703
405.380	27.531	806.166	642.157
406.394	27.935	805.705	643.155
407.409	28.054	805.182	643.099
408.423	27.973	804.875	642.514
409.438	27.922	804.250	641.777
410.453	27.970	803.886	641.599
411.467	28.077	803.465	641.582
412.482	27.832	803.053	640.338
413.496	27.952	802.684	640.408
414.511	28.084	801.864	640.158
415.526	28.069	801.858	640.042
416.540	27.991	801.548	639.467
417.555	27.840	800.959	638.412
418.569	27.820	799.982	637.507
419.584	27.577	799.722	636.395
420.599	27.668	799.121	636.178
421.613	110.286	1285.887	1460.468
422.628	95.059	1356.790	1460.565
