DTS Sentinel unit serial number:	SN413079Multiplexer serial number:	ORYXHardware model number:	OX4-SRSoftware version number:	ORYX F/W v4.00 Oryx Data Collector v3.7.2.0data status	okinstallation	princeton_trtdifferential loss correction	single-endedforward channel	channel 3reverse channel	N/Adate	2019/09/10time	17:38:11forward acquisition time	60.00reverse acquisition time	0.00gamma	496.2192k internal	0.2299k external	0.2299temperature offset calibration	0.9909default loss term (dB/km)	0.3790temperature slope calibration	1.0000multiplexer offset coefficient	1.0000multiplexer slope coefficient	1.0000fibre end	0.00T internal ref (°C)	37.62T ext. ref 1 (°C)	-0.34T ext. ref 2 (°C)	31.22length (m)	temperature (°C)	Stokes	anti-Stokes-747.200	113.043	-0.181	-0.225
-746.185	-47.157	-0.530	0.264
-745.171	-141.514	-0.287	-0.030
-744.156	199.315	-0.095	0.149
-743.142	69.941	0.111	0.117
-742.127	362.071	-0.109	0.224
-741.112	-3.244	-0.070	-0.050
-740.098	30.530	-0.116	0.102
-739.083	-200.000	-0.069	-0.321
-738.069	9.597	0.124	-0.096
-737.054	-55.893	-0.220	0.100
-736.039	-78.876	-0.182	0.063
-735.025	255.486	-0.136	0.238
-734.010	-32.282	-0.275	-0.157
-732.996	289.544	-0.177	-0.328
-731.981	-154.179	-0.456	0.031
-730.966	19.149	-0.434	0.355
-729.952	447.362	-0.120	-0.269
-728.937	-100.303	0.303	-0.077
-727.923	266.883	-0.055	-0.098
-726.908	-34.836	-0.545	-0.303
-725.894	-200.000	0.017	-0.222
-724.879	176.095	0.091	-0.135
-723.864	-2.411	-0.173	-0.124
-722.850	439.428	0.053	-0.119
-721.835	-200.000	-0.009	-0.108
-720.821	-200.000	0.006	-0.159
-719.806	-81.944	-0.250	0.083
-718.791	-200.000	0.026	0.142
-717.777	-23.693	-0.161	-0.098
-716.762	800.000	0.012	0.036
-715.748	196.716	0.144	0.223
-714.733	21.897	0.050	-0.041
-713.718	120.180	-0.110	-0.139
-712.704	443.533	0.074	-0.166
-711.689	60.768	-0.212	0.214
-710.675	-21.548	-0.120	0.074
-709.660	12.159	-0.114	-0.089
-708.645	-200.000	0.015	0.208
-707.631	-62.520	0.061	0.026
-706.616	-119.723	-0.151	0.026
-705.602	63.586	-0.056	-0.057
-704.587	-44.253	-0.252	0.129
-703.572	-62.522	0.397	-0.168
-702.558	577.951	-0.128	-0.318
-701.543	325.422	0.098	-0.190
-700.529	452.003	-0.159	0.359
-699.514	-89.160	0.025	0.007
-698.499	-135.470	0.153	-0.019
-697.485	-54.800	0.140	0.064
-696.470	-61.713	-0.150	-0.064
-695.456	9.598	-0.230	-0.177
-694.441	390.432	0.126	0.266
-693.426	154.308	-0.142	-0.199
-692.412	-200.000	-0.033	-0.263
-691.397	800.000	0.052	-0.219
-690.383	-104.608	0.339	0.080
-689.368	-110.242	-0.468	-0.099
-688.354	225.155	-0.087	-0.143
-687.339	217.927	-0.075	0.122
-686.324	97.462	-0.117	0.137
-685.310	528.413	0.130	-0.313
-684.295	-9.168	0.096	0.066
-683.281	-184.576	-0.025	-0.000
-682.266	-47.627	0.152	-0.075
-681.251	-200.000	-0.015	0.099
-680.237	-148.857	0.226	-0.019
-679.222	-200.000	0.024	-0.138
-678.208	-78.667	-0.118	0.041
-677.193	-68.589	-0.299	-0.118
-676.178	-38.223	-0.287	0.155
-675.164	-149.971	0.212	0.017
-674.149	-200.000	-0.175	-0.001
-673.135	-111.003	-0.506	0.106
-672.120	-7.192	-0.165	0.114
-671.105	160.406	0.144	-0.204
-670.091	-24.066	-0.047	-0.029
-669.076	444.175	-0.235	-0.525
-668.062	-186.772	-0.234	0.003
-667.047	117.789	-0.228	0.285
-666.032	-200.000	-0.019	0.441
-665.018	-37.097	-0.155	-0.084
-664.003	-200.000	0.038	-0.454
-662.989	800.000	0.097	-0.381
-661.974	57.976	0.017	-0.017
-660.959	-153.609	0.155	0.011
-659.945	34.424	0.285	-0.253
-658.930	-200.000	0.024	0.159
-657.916	441.318	-0.129	0.286
-656.901	-52.603	-0.173	-0.081
-655.886	1.255	-0.084	0.061
-654.872	-105.366	-0.205	0.048
-653.857	75.024	-0.158	-0.170
-652.843	268.962	0.148	-0.263
-651.828	-198.627	0.300	0.002
-650.814	2.557	-0.213	0.157
-649.799	-97.659	-0.392	0.103
-648.784	-200.000	0.011	-0.173
-647.770	-24.781	-0.128	-0.077
-646.755	348.751	-0.290	-0.581
-645.741	142.916	0.210	-0.284
-644.726	52.582	0.163	-0.159
-643.711	209.055	0.114	-0.182
-642.697	243.427	0.050	-0.085
-641.682	524.276	0.085	0.203
-640.668	8.766	-0.081	0.062
-639.653	-156.123	-0.385	0.025
-638.638	-22.969	0.157	0.096
-637.624	97.994	0.098	-0.114
-636.609	-200.000	-0.003	-0.016
-635.595	180.676	0.238	0.356
-634.580	-106.517	0.135	0.031
-633.565	-117.489	0.285	-0.052
-632.551	56.662	-0.080	0.079
-631.536	-200.000	0.077	0.399
-630.522	-200.000	0.157	-0.001
-629.507	119.844	-0.191	-0.240
-628.492	-154.437	-0.247	0.017
-627.478	-52.329	-0.111	-0.052
-626.463	-69.549	0.127	-0.049
-625.449	108.000	0.147	0.178
-624.434	-200.000	-0.037	-0.199
-623.419	-200.000	0.016	-0.201
-622.405	-47.159	-0.040	-0.020
-621.390	164.878	0.095	-0.136
-620.376	68.736	0.302	0.315
-619.361	-200.000	0.047	-0.403
-618.346	121.211	-0.118	0.150
-617.332	40.676	0.185	0.169
-616.317	-58.042	-0.118	0.052
-615.303	-73.810	0.079	-0.029
-614.288	-68.434	0.063	0.025
-613.273	-17.830	0.067	0.043
-612.259	-163.782	-0.110	0.005
-611.244	-115.753	-0.121	0.023
-610.230	-114.211	-0.158	-0.031
-609.215	80.595	0.118	-0.129
-608.201	-93.112	-0.047	0.013
-607.186	-170.102	-0.092	-0.003
-606.171	-175.781	0.306	0.008
-605.157	-95.067	0.097	0.027
-604.142	535.268	-0.044	0.107
-603.128	543.026	-0.085	-0.207
-602.113	-82.501	-0.095	0.031
-601.098	-200.000	-0.209	0.001
-600.084	800.000	0.088	-0.274
-599.069	-26.009	-0.259	0.155
-598.055	-103.746	-0.184	0.044
-597.040	-200.000	-0.006	-0.073
-596.025	1.527	-0.030	-0.022
-595.011	50.309	0.127	-0.122
-593.996	-200.000	-0.019	0.298
-592.982	-32.178	-0.205	0.116
-591.967	-127.773	-0.291	-0.043
-590.952	-37.033	0.159	-0.086
-589.938	209.431	0.139	0.221
-588.923	276.593	-0.006	-0.010
-587.909	-83.019	-0.067	-0.022
-586.894	517.055	0.057	-0.134
-585.879	157.307	-0.277	-0.389
-584.865	-49.000	0.242	0.118
-583.850	476.814	0.108	0.248
-582.836	397.257	0.089	0.188
-581.821	70.303	-0.104	-0.109
-580.806	13.243	0.209	0.164
-579.792	26.229	0.005	-0.004
-578.777	54.516	0.119	0.117
-577.763	-76.453	-0.129	0.046
-576.748	-136.688	0.454	0.053
-575.733	53.098	0.137	-0.133
-574.719	5.608	0.100	0.075
-573.704	-169.451	0.129	0.005
-572.690	800.000	0.067	0.252
-571.675	-200.000	0.008	-0.222
-570.661	-7.469	-0.204	-0.140
-569.646	-132.504	-0.472	0.062
-568.631	-147.481	0.084	-0.007
-567.617	-200.000	0.008	0.064
-566.602	138.650	0.106	-0.141
-565.588	144.576	0.056	0.076
-564.573	-200.000	-0.002	-0.063
-563.558	67.191	-0.096	-0.100
-562.544	25.188	-0.022	-0.019
-561.529	432.452	0.153	0.336
-560.515	-200.000	-0.007	-0.064
-559.500	57.613	0.241	0.239
-558.485	-63.439	-0.274	-0.114
-557.471	53.431	0.107	0.104
-556.456	-86.558	0.282	0.088
-555.442	-138.342	-0.155	-0.017
-554.427	-70.683	0.111	-0.042
-553.412	-95.718	-0.220	0.060
-552.398	-49.598	-0.126	-0.061
-551.383	-52.040	0.205	0.096
-550.369	-18.976	-0.111	0.070
-549.354	-66.700	-0.145	-0.058
-548.339	-200.000	-0.039	-0.310
-547.325	-10.886	-0.065	-0.043
-546.310	-176.906	-0.264	0.007
-545.296	-200.000	0.040	-0.181
-544.281	286.877	0.044	-0.080
-543.266	-28.429	-0.299	-0.174
-542.252	-138.038	0.359	-0.040
-541.237	-42.635	0.148	-0.076
-540.223	-119.762	-0.376	-0.066
-539.208	42.574	0.048	0.045
-538.193	446.674	0.078	0.175
-537.179	-128.485	0.129	-0.019
-536.164	-76.918	0.139	-0.049
-535.150	677.872	-0.059	0.154
-534.135	276.443	0.103	-0.185
-533.121	-110.364	-0.116	0.025
-532.106	-94.455	-0.148	-0.041
-531.091	800.000	0.024	-0.084
-530.077	-120.376	0.312	-0.054
-529.062	-68.825	0.425	-0.166
-528.048	-183.773	-0.384	0.007
-527.033	-200.000	-0.006	-0.239
-526.018	232.670	-0.035	-0.059
-525.004	672.791	-0.084	-0.221
-523.989	-200.000	0.035	-0.158
-522.975	247.627	-0.112	-0.192
-521.960	186.566	0.236	-0.355
-520.945	397.238	0.083	-0.176
-519.931	-154.530	0.194	0.013
-518.916	800.000	-0.096	-0.421
-517.902	-200.000	0.010	-0.226
-516.887	-130.159	0.601	-0.083
-515.872	146.437	0.095	-0.129
-514.858	-56.545	-0.105	0.047
-513.843	-24.423	-0.302	-0.182
-512.829	23.066	0.208	0.173
-511.814	-135.055	0.457	0.056
-510.799	8.422	-0.127	0.097
-509.785	11.985	-0.224	0.174
-508.770	-181.948	-0.076	-0.001
-507.756	-200.000	-0.013	0.079
-506.741	800.000	0.083	0.329
-505.726	136.698	-0.171	0.226
-504.712	2.865	0.171	-0.126
-503.697	-32.041	-0.217	0.123
-502.683	94.507	-0.076	-0.088
-501.668	-122.405	0.123	0.020
-500.653	-121.249	-0.178	0.030
-499.639	48.390	-0.187	-0.177
-498.624	-200.000	-0.052	0.263
-497.610	-200.000	0.003	0.347
-496.595	40.886	-0.061	0.055
-495.581	-200.000	0.061	0.269
-494.566	77.335	-0.151	0.162
-493.551	-159.715	0.052	-0.003
-492.537	271.078	-0.116	0.207
-491.522	-16.787	-0.288	-0.184
-490.508	-50.349	-0.308	0.147
-489.493	186.089	0.117	0.176
-488.478	-85.220	-0.273	-0.086
-487.464	-51.666	0.213	-0.100
-486.449	-152.701	-0.308	0.022
-485.435	-66.078	-0.205	-0.083
-484.420	6.176	0.179	-0.134
-483.405	-54.941	0.259	0.118
-482.391	68.061	0.085	0.088
-481.376	209.592	-0.228	-0.361
-480.362	503.918	-0.069	-0.161
-479.347	11.735	-0.171	0.132
-478.332	-200.000	0.008	-0.061
-477.318	800.000	-0.041	-0.121
-476.303	-157.218	-0.228	0.014
-475.289	231.994	0.126	0.209
-474.274	-62.248	-0.595	0.250
-473.259	527.099	0.135	-0.320
-472.245	-63.285	-0.152	0.063
-471.230	364.041	0.085	-0.174
-470.216	24.493	0.227	0.189
-469.201	-144.402	0.034	-0.003
-468.186	-200.000	-0.001	-0.432
-467.172	235.546	-0.087	-0.144
-466.157	-200.000	-0.006	0.205
-465.143	800.000	-0.034	0.099
-464.128	-130.816	0.269	0.036
-463.113	-194.084	-0.686	-0.006
-462.099	144.006	-0.049	-0.066
-461.084	45.475	-0.256	0.238
-460.070	-10.544	0.138	-0.092
-459.055	171.030	-0.076	0.110
-458.040	330.849	-0.087	-0.169
-457.026	800.000	0.047	0.177
-456.011	-200.000	-0.004	0.219
-454.997	-123.873	-0.401	-0.064
-453.982	-200.000	-0.000	0.009
-452.968	296.014	0.146	0.269
-451.953	-200.000	0.008	0.084
-450.938	-25.695	-0.067	-0.040
-449.924	-39.840	-0.177	0.093
-448.909	-56.556	-0.113	-0.050
-447.895	-18.047	0.437	0.276
-446.880	-91.214	-0.064	-0.019
-445.865	-196.911	-0.063	-0.000
-444.851	213.556	-0.131	-0.209
-443.836	-0.648	0.357	-0.255
-442.822	207.865	-0.303	-0.478
-441.807	27.238	-0.329	-0.279
-440.792	800.000	0.114	0.389
-439.778	96.499	-0.158	0.182
-438.763	-106.298	0.025	-0.006
-437.749	195.780	-0.159	-0.244
-436.734	248.154	0.104	0.178
-435.719	1.412	-0.102	0.074
-434.705	289.342	0.219	0.401
-433.690	-127.146	-0.139	-0.021
-432.676	11.518	-0.071	0.055
-431.661	-200.000	-0.009	-0.274
-430.646	-50.453	-0.240	-0.114
-429.632	19.279	-0.394	-0.319
-428.617	800.000	0.075	-0.269
-427.603	773.200	0.164	0.450
-426.588	503.770	0.091	0.212
-425.573	-118.381	-0.182	0.033
-424.559	74.572	0.212	-0.224
-423.544	148.725	-0.179	0.243
-422.530	100.572	0.238	0.279
-421.515	66.235	0.172	-0.176
-420.500	148.566	0.097	0.132
-419.486	800.000	0.049	-0.202
-418.471	-56.737	0.261	-0.117
-417.457	-7.982	-0.105	0.071
-416.442	-103.906	-0.250	-0.059
-415.428	800.000	0.023	0.087
-414.413	194.825	-0.043	-0.065
-413.398	-195.270	-0.260	0.002
-412.384	-57.957	0.236	-0.104
-411.369	-89.116	0.108	-0.032
-410.355	40.524	0.170	-0.155
-409.340	46.316	-0.198	-0.185
-408.325	553.573	0.116	-0.281
-407.311	-114.874	0.243	-0.047
-406.296	151.984	-0.116	-0.159
-405.282	800.000	-0.068	0.249
-404.267	38.151	0.051	0.045
-403.252	-200.000	-0.026	-0.447
-402.238	91.409	0.035	-0.039
-401.223	-200.000	0.124	-0.552
-400.209	259.231	-0.063	-0.110
-399.194	-74.310	0.059	-0.022
-398.179	502.603	0.123	0.287
-397.165	-72.520	-0.294	0.109
-396.150	-63.277	0.389	0.162
-395.136	-169.141	0.388	-0.015
-394.121	-29.374	0.102	-0.059
-393.106	-26.561	-0.256	0.151
-392.092	263.328	0.083	0.145
-391.077	-200.000	0.027	0.286
-390.063	-20.450	-0.276	0.171
-389.048	27.405	-0.076	0.064
-388.033	-52.525	-0.167	-0.078
-387.019	113.783	0.129	0.157
-386.004	274.386	0.085	-0.152
-384.990	800.000	0.116	0.353
-383.975	188.236	-0.177	0.266
-382.960	12.962	0.118	-0.092
-381.946	-200.000	0.062	-0.277
-380.931	-148.749	-0.175	0.014
-379.917	-122.153	-0.371	-0.061
-378.902	-185.441	0.060	0.001
-377.888	-151.536	-0.280	-0.021
-376.873	-24.402	0.354	0.212
-375.858	-154.924	0.149	0.010
-374.844	-115.682	0.201	0.038
-373.829	43.727	-0.066	0.061
-372.815	-184.278	0.324	0.005
-371.800	529.103	-0.138	0.327
-370.785	800.000	0.037	-0.110
-369.771	80.617	0.208	-0.226
-368.756	34.046	0.142	0.125
-367.742	-17.405	0.257	-0.162
-366.727	50.784	0.131	-0.125
-365.712	-113.265	-0.117	-0.023
-364.698	-53.791	0.197	-0.090
-363.683	-133.355	0.357	-0.045
-362.669	55.967	-0.145	0.141
-361.654	800.000	-0.006	-0.025
-360.639	800.000	0.026	-0.107
-359.625	800.000	0.081	-0.238
-358.610	-56.927	0.088	-0.039
-357.596	-42.060	0.160	0.082
-356.581	-200.000	-0.018	0.137
-355.566	78.716	-0.139	0.150
-354.552	548.513	-0.062	0.150
-353.537	800.000	-0.039	0.124
-352.523	-16.956	0.078	-0.050
-351.508	-5.253	-0.324	0.224
-350.493	-45.085	0.255	0.127
-349.479	-200.000	-0.003	-0.069
-348.464	105.108	-0.040	0.047
-347.450	-131.642	0.054	-0.007
-346.435	-33.451	-0.122	-0.068
-345.420	81.182	-0.142	0.154
-344.406	-81.541	0.305	-0.101
-343.391	-116.748	-0.077	0.014
-342.377	-181.154	0.113	0.002
-341.362	115.174	0.039	-0.048
-340.348	374.950	-0.094	0.193
-339.333	-200.000	-0.003	0.033
-338.318	800.000	-0.118	-0.400
-337.304	285.528	-0.169	-0.306
-336.289	-116.263	0.324	0.060
-335.275	-180.815	0.128	0.003
-334.260	91.302	-0.115	-0.129
-333.245	800.000	-0.120	-0.390
-332.231	800.000	0.027	0.109
-331.216	256.421	-0.076	0.131
-330.202	375.515	-0.130	-0.265
-329.187	22.398	-0.128	-0.105
-328.172	-99.291	0.360	-0.091
-327.158	-51.286	-0.200	0.094
-326.143	-200.000	-0.003	0.045
-325.129	800.000	-0.124	-0.346
-324.114	-80.831	-0.509	-0.170
-323.099	-200.000	0.034	-0.205
-322.085	-200.000	-0.001	0.070
-321.070	-118.490	0.330	0.059
-320.056	800.000	-0.049	-0.196
-319.041	800.000	-0.023	-0.071
-318.026	-200.000	0.006	0.199
-317.012	-200.000	-0.008	-0.048
-315.997	434.180	0.056	-0.122
-314.983	-48.749	0.012	-0.006
-313.968	-200.000	0.024	0.201
-312.953	-7.460	-0.146	-0.099
-311.939	503.624	-0.161	-0.375
-310.924	12.845	0.507	0.393
-309.910	-58.950	-0.287	0.124
-308.895	-126.632	-0.427	-0.063
-307.880	71.375	0.198	-0.206
-306.866	-91.512	-0.292	-0.084
-305.851	54.299	0.307	0.296
-304.837	-167.571	-0.169	0.007
-303.822	160.842	0.037	0.052
-302.807	32.039	-0.252	0.218
-301.793	800.000	-0.043	0.138
-300.778	574.213	0.079	0.193
-299.764	-51.395	-0.269	0.126
-298.749	-67.383	-0.255	-0.101
-297.735	128.318	-0.019	0.025
-296.720	-91.946	0.083	0.024
-295.705	800.000	0.031	0.105
-294.691	112.132	-0.190	-0.230
-293.676	-200.000	0.025	0.384
-292.662	83.054	0.024	0.026
-291.647	224.400	0.067	0.109
-290.632	161.517	0.107	-0.151
-289.618	117.884	-0.219	0.271
-288.603	-48.918	0.254	0.122
-287.589	800.000	0.075	0.264
-286.574	30.244	0.157	0.134
-285.559	90.893	-0.165	-0.185
-284.545	-200.000	-0.025	0.369
-283.530	152.645	-0.130	0.178
-282.516	-200.000	0.015	0.070
-281.501	123.033	-0.109	0.137
-280.486	-200.000	0.009	0.258
-279.472	-37.401	0.438	0.235
-278.457	19.181	0.082	-0.066
-277.443	800.000	-0.049	-0.204
-276.428	140.137	-0.235	-0.311
-275.413	-56.868	0.086	-0.038
-274.399	689.550	0.055	0.144
-273.384	-160.128	0.363	0.020
-272.370	142.012	-0.124	-0.165
-271.355	-200.000	-0.014	-0.319
-270.340	-76.495	0.274	-0.096
-269.326	116.147	0.153	-0.188
-268.311	-187.555	-0.373	0.005
-267.297	-38.132	0.236	-0.125
-266.282	150.531	0.107	0.146
-265.267	-200.000	-0.019	-0.123
-264.253	44.676	0.115	0.106
-263.238	800.000	0.093	0.314
-262.224	-191.763	0.113	0.001
-261.209	-71.685	-0.118	0.044
-260.195	-114.913	0.289	-0.055
-259.180	800.000	0.031	-0.110
-258.165	-77.510	0.045	0.016
-257.151	-11.080	-0.368	0.243
-256.136	-200.000	0.022	0.264
-255.122	-145.854	-0.402	0.036
-254.107	13.153	-0.089	0.069
-253.092	18.305	-0.207	-0.165
-252.078	-200.000	0.019	0.222
-251.063	173.846	0.132	-0.190
-250.049	487.870	0.059	0.135
-249.034	95.291	-0.162	-0.185
-248.019	-148.822	-0.499	-0.040
-247.005	235.262	-0.120	0.198
-245.990	557.897	-0.087	-0.209
-244.976	84.758	0.170	0.187
-243.961	-148.651	0.208	-0.017
-242.946	-146.173	0.274	-0.024
-241.932	-61.939	0.105	-0.044
-240.917	800.000	0.057	-0.203
-239.903	-94.736	-0.206	0.056
-238.888	-200.000	0.030	0.226
-237.873	107.203	0.261	-0.310
-236.859	-200.000	0.011	0.085
-235.844	-20.356	0.110	0.068
-234.830	203.030	-0.138	0.213
-233.815	-200.000	-0.032	-0.282
-232.800	-44.596	0.166	-0.083
-231.786	-116.434	0.279	0.052
-230.771	-200.000	-0.059	-0.286
-229.757	50.953	0.078	-0.074
-228.742	786.379	0.048	0.132
-227.727	89.985	-0.152	0.170
-226.713	-109.475	0.108	0.023
-225.698	-15.719	-0.059	0.037
-224.684	-200.000	0.015	-0.200
-223.669	506.625	-0.075	0.174
-222.655	800.000	0.086	0.306
-221.640	-6.065	0.128	-0.088
-220.625	-53.613	0.168	0.077
-219.611	225.841	0.087	0.141
-218.596	-200.000	0.009	-0.064
-217.582	-67.466	0.295	0.116
-216.567	-200.000	-0.007	0.098
-215.552	-200.000	-0.037	0.164
-214.538	-122.083	-0.079	-0.013
-213.523	29.100	0.040	-0.034
-212.509	-113.070	-0.292	0.058
-211.494	12.159	0.184	0.141
-210.479	-56.572	0.212	-0.094
-209.465	-127.763	0.059	0.009
-208.450	-200.000	0.015	0.129
-207.436	-200.000	-0.094	0.441
-206.421	21.245	-0.098	0.080
-205.406	479.266	-0.095	0.215
-204.392	-200.000	0.019	0.219
-203.377	-78.011	-0.092	-0.032
-202.363	-13.218	0.101	-0.066
-201.348	-117.556	-0.237	-0.043
-200.333	12.270	-0.181	0.140
-199.319	43.480	0.268	0.244
-198.304	-200.000	0.041	-0.291
-197.290	-48.495	0.323	0.155
-196.275	-200.000	0.004	0.018
-195.260	37.104	-0.094	0.083
-194.246	-42.635	0.216	0.110
-193.231	-200.000	0.018	-0.352
-192.217	-200.000	0.002	-0.406
-191.202	-7.767	0.054	-0.036
-190.187	79.955	0.152	-0.163
-189.173	-34.127	-0.365	0.200
-188.158	58.110	-0.091	-0.089
-187.144	672.346	-0.171	-0.443
-186.129	-103.103	0.073	-0.017
-185.114	-200.000	0.011	0.229
-184.100	800.000	0.068	-0.274
-183.085	-200.000	-0.021	-0.128
-182.071	604.290	0.068	0.168
-181.056	-123.063	-0.265	0.043
-180.042	-0.668	0.193	0.137
-179.027	-74.943	0.218	-0.078
-178.012	-200.000	-0.037	0.171
-176.998	116.061	0.119	0.146
-175.983	161.603	-0.048	0.067
-174.969	-200.000	-0.052	0.330
-173.954	163.156	-0.299	-0.420
-172.939	-73.707	-0.311	-0.113
-171.925	206.013	0.138	-0.213
-170.910	469.008	-0.083	-0.186
-169.896	800.000	-0.065	0.204
-168.881	55.127	-0.215	-0.207
-167.866	89.469	0.082	-0.091
-166.852	-8.832	0.130	0.087
-165.837	-159.168	0.142	-0.008
-164.823	-70.360	0.170	-0.064
-163.808	-12.993	0.020	-0.013
-162.793	776.871	0.025	0.068
-161.779	-119.814	0.224	-0.039
-160.764	26.430	-0.125	0.104
-159.750	800.000	0.039	0.136
-158.735	-159.472	-0.202	-0.011
-157.720	534.892	-0.007	0.016
-156.706	-72.295	0.219	0.081
-155.691	-151.238	0.258	-0.019
-154.677	-93.421	0.072	0.020
-153.662	800.000	-0.032	0.096
-152.647	-95.143	0.347	-0.093
-151.633	-115.688	-0.262	-0.049
-150.618	34.578	0.067	0.059
-149.604	11.848	-0.071	-0.055
-148.589	-200.000	-0.023	-0.243
-147.574	771.917	0.119	0.324
-146.560	200.430	-0.048	-0.073
-145.545	332.159	-0.036	-0.070
-144.531	-200.000	-0.025	-0.447
-143.516	-148.975	-0.260	-0.021
-142.502	-166.945	0.082	-0.003
-141.487	-105.601	-0.130	0.029
-140.472	800.000	-0.033	0.107
-139.458	-33.434	-0.147	0.081
-138.443	-45.059	-0.165	-0.082
-137.429	-29.182	0.240	0.137
-136.414	-20.390	0.112	-0.069
-135.399	196.970	0.080	-0.121
-134.385	-23.047	-0.030	0.018
-133.370	364.420	-0.117	0.234
-132.356	-49.532	0.377	0.179
-131.341	16.606	-0.088	0.069
-130.326	800.000	0.094	-0.268
-129.312	166.695	0.144	-0.204
-128.297	-91.703	-0.456	-0.129
-127.283	-200.000	0.018	-0.295
-126.268	-56.758	-0.089	0.039
-125.253	-200.000	-0.016	-0.093
-124.239	-38.758	-0.327	0.172
-123.224	-200.000	-0.015	0.082
-122.210	18.872	0.186	-0.148
-121.195	-103.493	-0.158	-0.037
-120.180	-123.790	-0.128	0.020
-119.166	-200.000	-0.022	-0.270
-118.151	-14.061	0.350	0.225
-117.137	196.831	0.238	0.361
-116.122	-54.254	-0.008	-0.004
-115.107	295.076	-0.082	0.149
-114.093	-147.547	0.153	-0.013
-113.078	-10.534	0.252	0.166
-112.064	142.220	-0.100	-0.133
-111.049	312.455	0.251	0.468
-110.034	-200.000	0.033	0.180
-109.020	-85.909	0.059	0.018
-108.005	133.075	0.023	-0.030
-106.991	737.373	0.019	0.051
-105.976	-67.390	0.227	0.089
-104.962	449.019	0.068	0.149
-103.947	33.670	0.343	-0.297
-102.932	238.301	0.205	0.339
-101.918	-56.923	0.091	-0.040
-100.903	193.998	-0.101	-0.152
-99.889	219.651	0.058	0.092
-98.874	800.000	0.045	0.147
-97.859	164.104	-0.156	-0.219
-96.845	-200.000	-0.022	0.143
-95.830	800.000	-0.022	0.066
-94.816	720.782	0.080	0.211
-93.801	42.975	-0.022	0.020
-92.786	-137.144	0.335	0.038
-91.772	402.115	-0.142	0.296
-90.757	138.476	0.161	-0.210
-89.743	6.809	0.150	-0.111
-88.728	-65.853	0.135	0.054
-87.713	-96.746	0.189	0.049
-86.699	-59.362	0.198	-0.085
-85.684	293.913	0.084	-0.153
-84.670	-11.944	0.391	0.255
-83.655	-92.760	-0.148	0.041
-82.640	-54.915	0.173	0.078
-81.626	-135.934	-0.202	0.024
-80.611	259.143	-0.114	-0.196
-79.597	55.403	-0.128	0.123
-78.582	-110.250	0.238	0.049
-77.567	201.346	0.106	-0.162
-76.553	108.615	0.100	-0.118
-75.538	-111.006	0.013	0.003
-74.524	-22.719	-0.182	-0.109
-73.509	-101.867	-0.155	-0.037
-72.494	800.000	-0.045	-0.137
-71.480	-139.231	0.251	0.027
-70.465	-15.975	0.206	-0.130
-69.451	-105.924	-0.182	-0.041
-68.436	-200.000	0.003	0.031
-67.422	34.198	0.195	-0.169
-66.407	206.224	0.073	-0.113
-65.392	-192.216	0.526	0.005
-64.378	82.733	-0.139	0.150
-63.363	-62.930	-0.099	0.041
-62.349	800.000	-0.047	0.193
-61.334	113.097	-0.642	-0.774
-60.319	194.526	0.391	0.590
-59.305	509.723	-0.271	-0.627
-58.290	27.627	0.980	0.819
-57.276	347.169	0.742	1.451
-56.261	-200.000	86.569	504.852
-55.246	546.977	1379.919	3279.863
-54.232	180.205	2627.575	3827.841
-53.217	117.862	2268.316	2775.204
-52.203	47.490	1795.906	1663.008
-51.188	40.729	1602.366	1435.091
-50.173	38.177	1574.720	1392.114
-49.159	54.838	1618.845	1551.749
-48.144	58.716	1638.027	1598.078
-47.130	41.180	1597.544	1433.792
-46.115	37.951	1582.608	1397.245
-45.100	37.826	1578.659	1392.814
-44.086	37.678	1577.304	1390.506
-43.071	37.637	1575.576	1388.631
-42.057	37.573	1573.455	1386.249
-41.042	37.558	1572.437	1385.195
-40.027	37.547	1570.720	1383.547
-39.013	37.551	1569.208	1382.189
-37.998	37.520	1567.768	1380.649
-36.984	37.543	1566.459	1379.603
-35.969	37.686	1564.598	1378.922
-34.954	37.602	1563.450	1377.259
-33.940	37.612	1562.153	1376.133
-32.925	37.635	1560.819	1375.066
-31.911	37.649	1559.477	1373.931
-30.896	37.581	1558.451	1372.486
-29.881	37.661	1556.809	1371.551
-28.867	37.656	1555.123	1369.978
-27.852	37.686	1554.012	1369.159
-26.838	37.542	1552.744	1366.970
-25.823	37.665	1550.531	1365.836
-24.809	37.762	1548.723	1364.863
-23.794	37.648	1547.747	1363.151
-22.779	37.701	1546.154	1362.071
-21.765	37.668	1545.212	1360.952
-20.750	37.648	1544.103	1359.782
-19.736	37.715	1542.618	1358.887
-18.721	37.765	1541.256	1357.981
-17.706	37.508	1540.708	1355.657
-16.692	37.680	1539.246	1355.516
-15.677	37.686	1538.350	1354.709
-14.663	37.586	1537.243	1352.987
-13.648	37.646	1535.897	1352.168
-12.633	37.594	1535.196	1351.134
-11.619	37.627	1533.953	1350.214
-10.604	37.549	1533.300	1349.048
-9.590	37.720	1531.859	1348.911
-8.575	37.620	1531.182	1347.566
-7.560	37.668	1530.588	1347.322
-6.546	37.576	1529.872	1346.000
-5.531	37.552	1528.914	1344.939
-4.517	37.524	1528.352	1344.197
-3.502	37.591	1526.777	1343.221
-2.487	37.596	1525.630	1342.192
-1.473	37.608	1524.588	1341.305
-0.458	37.581	1523.197	1339.845
0.556	35.151	1513.323	1328.519
1.571	32.133	1484.200	1282.268
2.586	28.017	1418.385	1198.383
3.600	25.877	1332.032	1112.129
4.615	24.291	1284.286	1062.727
5.629	20.374	1225.780	991.891
6.644	9.612	1134.261	860.563
7.659	1.106	1087.695	781.448
8.673	-0.091	1081.793	771.000
9.688	-0.350	1078.608	767.338
10.702	-0.412	1077.086	765.873
11.717	-0.517	1075.164	763.903
12.731	2.462	1079.357	782.047
13.746	11.880	1092.376	839.918
14.761	17.446	1099.591	874.055
15.775	16.753	1097.184	868.516
16.790	16.003	1095.851	863.538
17.804	15.898	1094.603	861.941
18.819	15.580	1093.874	859.666
19.834	15.593	1093.174	859.105
20.848	15.675	1092.486	858.905
21.863	15.609	1092.262	858.318
22.877	15.510	1091.493	857.132
23.892	15.446	1090.976	856.325
24.907	15.428	1090.043	855.425
25.921	15.425	1089.536	854.937
26.936	15.431	1088.568	854.129
27.950	15.510	1087.549	853.659
28.965	15.560	1086.003	852.623
29.980	15.496	1084.051	850.690
30.994	15.376	1082.687	848.938
32.009	15.491	1081.696	848.665
33.023	15.639	1080.654	848.520
34.038	15.433	1079.803	846.736
35.053	15.462	1078.541	845.819
36.067	15.516	1077.918	845.530
37.082	15.602	1076.899	845.088
38.096	15.671	1076.531	845.069
39.111	15.746	1075.140	844.280
40.126	15.735	1074.422	843.585
41.140	15.742	1073.286	842.657
42.155	15.593	1071.391	840.349
43.169	15.420	1070.462	838.680
44.184	15.390	1069.390	837.618
45.199	15.540	1067.619	836.901
46.213	15.387	1066.560	835.234
47.228	15.270	1066.195	834.298
48.242	15.357	1064.546	833.365
49.257	15.325	1063.349	832.191
50.271	15.314	1062.524	831.419
51.286	15.478	1061.656	831.482
52.301	15.458	1060.868	830.689
53.315	15.530	1059.688	830.046
54.330	15.488	1058.999	829.228
55.344	15.651	1057.912	829.105
56.359	15.520	1057.074	827.732
57.374	15.611	1055.719	827.047
58.388	15.496	1054.728	825.631
59.403	15.334	1054.325	824.446
60.417	15.551	1053.150	824.521
61.432	15.367	1052.253	822.839
62.447	15.359	1051.513	822.152
63.461	15.357	1051.407	821.986
64.476	15.477	1050.085	821.465
65.490	15.452	1048.990	820.417
66.505	15.386	1048.272	819.459
67.520	15.507	1047.075	819.041
68.534	15.588	1045.958	818.489
69.549	15.457	1045.601	817.500
70.563	15.294	1044.481	815.759
71.578	15.114	1043.929	814.381
72.593	15.390	1042.822	814.784
73.607	15.127	1041.794	812.632
74.622	15.266	1040.771	812.435
75.636	15.477	1039.908	812.712
76.651	15.560	1038.643	812.053
77.666	15.339	1038.244	810.601
78.680	15.315	1036.978	809.424
79.695	15.341	1036.312	808.962
80.709	15.391	1035.707	808.656
81.724	15.583	1034.668	808.698
82.739	15.387	1033.991	807.154
83.753	15.400	1033.149	806.490
84.768	15.627	1032.191	806.757
85.782	15.566	1031.376	805.761
86.797	15.716	1030.417	805.657
87.812	15.653	1029.357	804.457
88.826	15.495	1028.388	802.872
89.841	15.484	1027.838	802.318
90.855	15.556	1026.825	801.803
91.870	15.661	1026.133	801.690
92.884	15.630	1025.287	800.808
93.899	15.599	1024.149	799.704
94.914	15.568	1023.190	798.735
95.928	15.649	1022.395	798.428
96.943	15.727	1021.629	798.132
97.957	15.470	1020.727	796.135
98.972	15.311	1019.613	794.446
99.987	15.106	1018.288	792.373
101.001	15.102	1017.904	791.986
102.016	15.391	1017.250	792.771
103.030	15.427	1016.506	792.293
104.045	15.451	1015.120	791.256
105.060	15.321	1013.298	789.152
106.074	15.087	1012.399	787.281
107.089	15.055	1012.094	786.824
108.103	15.403	1011.232	787.720
109.118	15.651	1010.525	788.260
110.133	15.444	1009.583	786.488
111.147	15.468	1008.657	785.809
112.162	15.500	1007.321	784.847
113.176	15.360	1006.153	783.215
114.191	15.368	1005.231	782.464
115.206	15.504	1004.015	782.084
116.220	15.298	1002.980	780.250
117.235	15.095	1001.948	778.435
118.249	15.337	1001.395	779.060
119.264	15.402	1000.389	778.509
120.279	15.264	999.139	776.827
121.293	15.370	998.313	776.608
122.308	15.356	997.812	776.086
123.322	15.491	996.655	775.740
124.337	15.509	995.469	774.831
125.352	15.396	994.163	773.227
126.366	15.040	992.539	770.256
127.381	14.732	990.663	767.317
128.395	15.020	989.966	768.030
129.410	15.538	989.223	769.763
130.424	15.522	988.868	769.345
131.439	15.606	987.504	768.599
132.454	15.486	986.587	767.270
133.468	15.477	985.454	766.280
134.483	15.546	984.618	765.874
135.497	15.529	984.202	765.407
136.512	15.739	983.347	765.630
137.527	15.893	982.131	765.318
138.541	15.806	981.651	764.477
139.556	15.764	980.808	763.564
140.570	15.690	979.955	762.499
141.585	15.725	978.895	761.761
142.600	15.587	978.439	760.715
143.614	15.544	977.239	759.522
144.629	15.761	976.268	759.678
145.643	15.830	975.666	759.454
146.658	15.717	974.142	757.693
147.673	15.593	973.217	756.348
148.687	15.611	972.390	755.720
149.702	15.622	971.182	754.761
150.716	15.511	970.804	753.907
151.731	15.508	969.464	752.784
152.746	15.764	968.428	753.060
153.760	15.824	967.974	752.905
154.775	15.920	966.887	752.426
155.789	15.894	966.167	751.680
156.804	15.744	965.483	750.412
157.819	15.604	964.666	749.089
158.833	15.697	963.459	748.497
159.848	15.934	962.601	748.819
160.862	15.738	962.062	747.462
161.877	15.591	960.944	745.878
162.892	15.755	959.815	745.660
163.906	15.896	959.170	745.716
164.921	15.858	958.170	744.709
165.935	15.920	956.856	743.896
166.950	15.855	955.908	742.802
167.964	15.698	955.029	741.363
168.979	15.716	953.871	740.476
169.994	15.623	953.172	739.460
171.008	15.686	951.771	738.585
172.023	15.804	950.982	738.427
173.037	15.798	950.237	737.757
174.052	15.726	948.462	735.995
175.067	15.564	947.394	734.394
176.081	15.601	946.764	734.003
177.096	15.615	946.303	733.640
178.110	15.728	945.355	733.334
179.125	15.641	944.564	732.277
180.140	15.485	943.372	730.608
181.154	15.453	942.923	730.056
182.169	15.529	942.086	729.674
183.183	15.595	941.350	729.326
184.198	15.820	940.904	729.894
185.213	15.830	940.185	729.315
186.227	15.814	939.295	728.491
187.242	15.937	938.755	728.538
188.256	15.909	937.883	727.676
189.271	15.795	937.023	726.452
190.286	15.887	936.091	726.061
191.300	15.750	935.851	725.223
192.315	15.603	934.541	723.511
193.329	15.209	933.083	720.622
194.344	14.967	932.137	718.789
195.359	15.171	932.481	719.867
196.373	15.670	932.343	721.841
197.388	15.873	931.322	721.857
198.402	15.648	930.662	720.316
199.417	15.578	929.757	719.253
200.432	15.517	929.366	718.627
201.446	15.507	928.435	717.800
202.461	15.044	928.232	715.601
203.475	15.128	927.596	715.405
204.490	14.942	926.094	713.390
205.504	14.235	924.035	708.733
206.519	14.594	924.113	710.258
207.534	15.415	924.150	713.717
208.548	15.354	923.558	712.936
209.563	15.566	923.516	713.742
210.577	15.734	921.881	713.128
211.592	15.478	921.630	711.787
212.607	15.768	921.165	712.592
213.621	15.747	920.405	711.853
214.636	15.722	919.621	711.077
215.650	15.780	919.167	710.907
216.665	15.954	918.186	710.821
217.680	15.797	917.816	709.808
218.694	15.986	917.342	710.175
219.709	15.661	915.981	707.693
220.723	15.574	914.607	706.202
221.738	15.666	914.774	706.654
222.753	15.901	914.121	707.074
223.767	15.742	913.286	705.699
224.782	15.792	912.429	705.184
225.796	15.823	911.959	704.889
226.811	15.993	911.029	704.817
227.826	15.669	909.931	702.554
228.840	15.179	908.590	699.408
229.855	15.064	908.184	698.556
230.869	15.336	907.797	699.331
231.884	15.108	906.946	697.664
232.899	15.263	905.923	697.459
233.913	15.740	906.422	699.766
234.928	15.924	905.356	699.649
235.942	15.987	904.611	699.272
236.957	16.008	904.161	698.947
237.972	15.678	903.239	696.808
238.986	15.768	902.549	696.585
240.001	15.770	901.797	695.951
241.015	15.886	900.871	695.655
242.030	15.806	900.383	694.885
243.045	15.951	899.883	695.037
244.059	15.962	899.226	694.512
245.074	15.980	898.639	694.072
246.088	16.119	897.693	693.854
247.103	15.731	896.509	691.280
248.117	15.583	895.954	690.184
249.132	16.043	895.374	691.565
250.147	16.201	895.082	691.926
251.161	16.065	894.108	690.555
252.176	16.294	892.871	690.475
253.190	16.260	892.935	690.325
254.205	16.171	892.539	689.592
255.220	16.452	891.372	689.777
256.234	16.568	890.727	689.690
257.249	16.417	890.014	688.463
258.263	16.275	889.451	687.389
259.278	16.384	888.842	687.300
260.293	16.417	888.317	686.966
261.307	16.440	887.874	686.657
262.322	16.364	886.716	685.391
263.336	16.216	886.181	684.317
264.351	15.823	884.643	681.479
265.366	15.158	882.875	677.369
266.380	14.723	881.680	674.634
267.395	15.397	882.028	677.565
268.409	16.061	881.755	679.972
269.424	16.099	881.105	679.563
270.439	16.178	880.844	679.621
271.453	16.339	880.097	679.632
272.468	16.292	879.865	679.206
273.482	16.533	879.018	679.458
274.497	16.437	878.495	678.609
275.512	16.439	877.038	677.431
276.526	16.032	875.552	674.597
277.541	16.079	875.493	674.679
278.555	16.344	874.989	675.288
279.570	16.111	873.686	673.296
280.585	15.814	873.202	671.677
281.599	15.982	872.395	671.668
282.614	16.132	871.916	671.834
283.628	16.007	871.129	670.674
284.643	15.829	870.228	669.213
285.657	16.200	869.940	670.404
286.672	16.007	869.541	669.273
287.687	15.669	868.579	667.130
288.701	15.893	867.982	667.502
289.716	15.978	867.783	667.627
290.730	15.818	867.226	666.507
291.745	15.641	865.966	664.777
292.760	15.683	864.867	664.042
293.774	15.641	863.996	663.150
294.789	16.088	864.520	665.255
295.803	16.544	864.078	666.655
296.818	16.741	863.478	666.909
297.833	16.991	863.040	667.493
298.847	16.662	862.015	665.352
299.862	16.446	860.692	663.425
300.876	16.649	859.900	663.550
301.891	16.654	859.778	663.416
302.906	16.746	859.149	663.233
303.920	16.304	857.680	660.311
304.935	16.105	857.178	659.089
305.949	16.377	856.699	659.723
306.964	16.574	856.329	660.150
307.979	16.597	855.914	659.861
308.993	16.592	855.202	659.234
310.008	16.732	854.921	659.505
311.022	16.870	854.348	659.541
312.037	16.656	853.951	658.343
313.052	16.779	852.931	657.976
314.066	16.573	852.451	656.751
315.081	16.305	851.295	654.762
316.095	15.880	849.716	651.845
317.110	16.066	850.053	652.764
318.125	16.704	850.326	655.389
319.139	16.471	848.927	653.352
320.154	15.738	847.981	649.733
321.168	15.641	847.188	648.694
322.183	15.901	847.181	649.637
323.197	16.422	846.983	651.436
324.212	16.660	846.454	651.886
325.227	16.752	846.234	652.014
326.241	16.976	845.669	652.382
327.256	16.907	845.060	651.590
328.270	16.851	844.451	650.849
329.285	16.833	843.595	650.062
330.300	16.689	842.714	648.775
331.314	16.705	842.211	648.391
332.329	16.741	841.452	647.884
333.343	16.756	841.003	647.539
334.358	16.841	840.654	647.538
335.373	16.846	840.110	647.080
336.387	16.906	839.268	646.605
337.402	17.012	838.876	646.648
338.416	17.182	838.368	646.847
339.431	16.953	837.623	645.345
340.446	17.000	836.799	644.831
341.460	17.069	836.190	644.567
342.475	16.994	835.768	643.900
343.489	16.861	835.034	642.772
344.504	16.697	834.541	641.714
345.519	17.083	834.117	642.795
346.533	17.026	833.843	642.311
347.548	17.267	833.327	642.766
348.562	17.221	833.118	642.374
349.577	17.218	832.689	641.976
350.592	17.359	831.979	641.907
351.606	17.343	831.253	641.227
352.621	17.404	830.949	641.168
353.635	17.398	829.869	640.253
354.650	17.248	829.609	639.431
355.665	16.907	829.081	637.688
356.679	16.299	828.136	634.617
357.694	16.268	826.798	633.419
358.708	16.602	826.859	634.664
359.723	16.578	826.213	634.021
360.738	17.029	825.642	635.216
361.752	17.191	825.536	635.685
362.767	17.369	824.843	635.761
363.781	17.367	824.877	635.723
364.796	17.474	824.295	635.620
365.810	17.498	824.264	635.628
366.825	17.614	823.693	635.566
367.840	17.647	823.041	635.126
368.854	17.429	822.719	634.011
369.869	17.318	821.777	632.816
370.883	17.250	820.856	631.798
371.898	17.311	820.384	631.605
372.913	17.093	819.819	630.304
373.927	17.091	819.173	629.745
374.942	17.272	818.648	629.958
375.956	17.469	818.134	630.235
376.971	17.517	817.744	630.055
377.986	17.411	817.288	629.257
379.000	17.563	816.772	629.368
380.015	17.634	816.019	628.991
381.029	17.642	815.146	628.293
382.044	17.500	814.787	627.439
383.059	17.579	814.273	627.276
384.073	17.564	813.166	626.315
385.088	17.530	813.332	626.259
386.102	17.736	813.135	626.810
387.117	17.464	812.446	625.226
388.132	17.762	811.868	625.821
389.146	17.598	811.221	624.664
390.161	17.319	810.130	622.746
391.175	17.143	809.579	621.623
392.190	17.222	809.448	621.756
393.205	17.286	809.266	621.795
394.219	16.807	808.166	619.145
395.234	16.086	806.396	615.107
396.248	15.703	805.622	613.064
397.263	16.295	806.096	615.530
398.278	17.444	806.643	620.083
399.292	17.715	806.500	620.906
400.307	17.668	805.869	620.193
401.321	17.626	805.602	619.778
402.336	17.569	805.330	619.308
403.350	17.580	804.924	618.980
404.365	17.809	804.786	619.652
405.380	17.991	804.028	619.675
406.394	18.077	803.919	619.849
407.409	18.264	803.025	619.781
408.423	18.322	802.111	619.231
409.438	18.118	801.743	618.153
410.453	17.939	801.554	617.307
411.467	18.108	800.850	617.321
412.482	18.171	800.332	617.094
413.496	18.064	800.306	616.631
414.511	18.216	799.989	616.884
415.526	18.250	799.515	616.584
416.540	18.239	799.079	616.154
417.555	18.191	798.806	615.715
418.569	17.940	797.792	613.976
419.584	17.758	797.381	612.952
420.599	17.914	796.765	612.986
421.613	150.891	1356.041	1780.499
422.628	130.801	1437.536	1780.629
