DTS Sentinel unit serial number:	SN413079Multiplexer serial number:	ORYXHardware model number:	OX4-SRSoftware version number:	ORYX F/W v4.00 Oryx Data Collector v3.7.2.0data status	okinstallation	princeton_trtdifferential loss correction	single-endedforward channel	channel 3reverse channel	N/Adate	2019/09/11time	23:02:11forward acquisition time	60.00reverse acquisition time	0.00gamma	496.2192k internal	0.2316k external	0.2316temperature offset calibration	1.0051default loss term (dB/km)	0.3790temperature slope calibration	1.0000multiplexer offset coefficient	1.0000multiplexer slope coefficient	1.0000fibre end	0.00T internal ref (°C)	34.56T ext. ref 1 (°C)	1.84T ext. ref 2 (°C)	29.14length (m)	temperature (°C)	Stokes	anti-Stokes-747.200	17.805	0.179	0.144
-746.185	-200.000	-0.083	0.618
-745.171	46.034	0.167	-0.156
-744.156	142.633	-0.091	0.122
-743.142	800.000	-0.030	0.131
-742.127	-200.000	0.005	0.351
-741.112	335.810	-0.118	0.232
-740.098	403.174	0.052	0.111
-739.083	55.389	-0.201	0.197
-738.069	38.768	-0.143	0.129
-737.054	-200.000	-0.000	-0.054
-736.039	800.000	-0.109	-0.314
-735.025	-200.000	-0.009	-0.046
-734.010	-49.216	-0.141	0.068
-732.996	-68.312	-0.254	0.100
-731.981	63.341	0.356	0.362
-730.966	-59.564	0.121	0.053
-729.952	800.000	-0.043	0.165
-728.937	-200.000	-0.053	-0.236
-727.923	-64.802	0.289	0.118
-726.908	-137.808	-0.453	0.051
-725.894	800.000	0.086	-0.315
-724.879	800.000	-0.081	-0.249
-723.864	116.759	0.083	0.103
-722.850	24.072	0.097	-0.081
-721.835	800.000	0.031	-0.098
-720.821	-25.787	0.122	0.073
-719.806	527.268	-0.135	-0.321
-718.791	14.530	-0.169	-0.133
-717.777	-155.819	0.198	-0.013
-716.762	-174.307	-0.191	0.006
-715.748	-17.199	0.278	0.177
-714.733	-8.450	-0.023	-0.016
-713.718	800.000	0.042	-0.143
-712.704	192.530	-0.295	-0.450
-711.689	-200.000	-0.051	0.275
-710.675	-131.831	0.142	-0.019
-709.660	63.396	0.165	-0.167
-708.645	-200.000	0.018	0.163
-707.631	-19.700	-0.331	0.207
-706.616	159.976	-0.180	0.253
-705.602	800.000	0.077	0.303
-704.587	453.552	-0.135	-0.302
-703.572	280.551	0.069	-0.124
-702.558	800.000	0.031	0.089
-701.543	121.052	0.260	0.327
-700.529	-71.092	0.108	0.041
-699.514	-200.000	0.024	0.163
-698.499	-79.639	-0.059	0.020
-697.485	800.000	0.024	-0.090
-696.470	-21.354	0.263	0.163
-695.456	-160.732	0.243	0.013
-694.441	800.000	-0.066	-0.210
-693.426	134.493	0.061	-0.080
-692.412	-98.150	0.111	-0.029
-691.397	31.106	-0.176	0.152
-690.383	479.392	-0.092	-0.210
-689.368	-200.000	0.013	-0.530
-688.354	429.322	-0.062	-0.136
-687.339	-171.915	-0.053	0.002
-686.324	8.002	0.073	0.056
-685.310	-104.514	0.203	-0.047
-684.295	-133.706	-0.195	0.025
-683.281	-33.262	-0.423	-0.237
-682.266	-94.549	-0.132	-0.036
-681.251	164.514	-0.189	-0.269
-680.237	-186.351	-0.278	-0.004
-679.222	-44.172	0.177	0.090
-678.208	154.078	0.139	0.192
-677.193	166.684	0.045	0.065
-676.178	-92.947	-0.078	0.022
-675.164	-107.187	0.165	-0.037
-674.149	27.635	-0.200	-0.170
-673.135	466.403	0.149	-0.338
-672.120	79.081	-0.148	0.160
-671.105	559.669	0.084	-0.205
-670.091	26.150	0.105	0.088
-669.076	-155.208	-0.092	0.006
-668.062	-86.953	0.465	0.143
-667.047	-52.892	0.039	0.018
-666.032	-9.846	0.193	-0.130
-665.018	-13.107	-0.213	0.140
-664.003	178.254	-0.154	0.227
-662.989	-112.244	-0.437	-0.089
-661.974	347.969	-0.051	-0.101
-660.959	800.000	0.021	-0.066
-659.945	-141.074	0.165	0.017
-658.930	159.997	0.046	0.065
-657.916	-43.272	-0.283	0.145
-656.901	-85.513	-0.364	-0.114
-655.886	-146.074	-0.113	0.010
-654.872	-55.303	-0.133	0.060
-653.857	800.000	0.027	0.094
-652.843	52.672	0.092	0.089
-651.828	-134.922	-0.325	0.040
-650.814	582.191	0.157	-0.388
-649.799	80.223	0.140	-0.152
-648.784	26.057	-0.496	-0.418
-647.770	336.730	-0.090	-0.177
-646.755	132.552	-0.104	-0.135
-645.741	-200.000	-0.029	-0.202
-644.726	-39.863	-0.314	-0.165
-643.711	37.526	-0.161	-0.144
-642.697	784.633	-0.048	-0.132
-641.682	-112.477	-0.172	-0.035
-640.668	-174.772	-0.121	-0.003
-639.653	32.083	-0.040	0.035
-638.638	-76.555	0.446	0.158
-637.624	-148.458	-0.324	-0.027
-636.609	15.243	0.157	0.124
-635.595	2.609	0.196	-0.143
-634.580	158.004	0.103	0.144
-633.565	-136.320	-0.309	-0.036
-632.551	93.204	0.155	-0.177
-631.536	131.176	0.146	0.190
-630.522	366.892	-0.057	0.115
-629.507	-200.000	0.000	0.113
-628.492	510.095	0.120	-0.281
-627.478	178.512	0.020	0.029
-626.463	-174.596	0.406	0.012
-625.449	346.668	0.113	-0.224
-624.434	-128.606	-0.174	0.025
-623.419	-40.478	0.120	0.063
-622.405	-200.000	-0.010	-0.210
-621.390	225.292	0.152	-0.248
-620.376	-111.857	0.065	-0.013
-619.361	-200.000	0.085	0.405
-618.346	-169.035	0.295	0.011
-617.332	-11.223	0.338	0.225
-616.317	222.816	-0.065	0.106
-615.303	-31.782	0.277	-0.156
-614.288	24.414	-0.039	0.032
-613.273	-167.107	-0.306	0.013
-612.259	-200.000	0.060	0.302
-611.244	-107.384	0.225	-0.050
-610.230	747.458	-0.102	-0.276
-609.215	-139.359	-0.255	-0.028
-608.201	-200.000	-0.071	0.317
-607.186	800.000	0.067	-0.237
-606.171	-73.528	-0.340	-0.125
-605.157	-200.000	0.055	0.304
-604.142	-89.960	0.403	-0.119
-603.128	-29.639	0.171	0.098
-602.113	124.546	-0.035	0.044
-601.098	78.509	-0.327	-0.352
-600.084	800.000	-0.031	0.117
-599.069	-157.468	0.241	-0.015
-598.055	-34.122	-0.143	-0.079
-597.040	40.756	-0.078	0.071
-596.025	-143.389	-0.275	0.027
-595.011	152.856	0.013	-0.017
-593.996	-76.804	-0.104	0.037
-592.982	800.000	0.048	0.159
-591.967	14.218	0.122	0.096
-590.952	800.000	0.016	0.063
-589.938	-189.228	0.109	0.001
-588.923	32.720	-0.173	-0.151
-587.909	-200.000	0.011	-0.196
-586.894	195.135	0.232	0.355
-585.879	800.000	0.046	0.136
-584.865	-80.018	-0.299	0.101
-583.850	-120.823	-0.410	-0.070
-582.836	62.342	-0.132	-0.133
-581.821	-119.543	-0.114	0.020
-580.806	-95.848	-0.274	0.074
-579.792	-145.017	0.207	0.019
-578.777	-107.133	0.134	-0.030
-577.763	528.719	-0.071	0.169
-576.748	-200.000	-0.048	-0.319
-575.733	800.000	0.123	-0.512
-574.719	800.000	-0.049	-0.213
-573.704	-100.183	-0.213	-0.053
-572.690	-71.641	0.026	0.010
-571.675	-97.190	-0.119	0.031
-570.661	-31.292	-0.080	-0.045
-569.646	-88.934	0.199	-0.059
-568.631	75.647	-0.202	-0.215
-567.617	290.490	-0.102	0.187
-566.602	-144.147	-0.515	0.048
-565.588	-30.971	-0.232	-0.132
-564.573	800.000	-0.052	0.220
-563.558	-44.934	0.107	-0.053
-562.544	-24.199	0.050	-0.030
-561.529	-25.511	-0.171	0.102
-560.515	800.000	-0.127	0.405
-559.500	-200.000	0.013	-0.226
-558.485	-46.497	-0.277	-0.137
-557.471	-27.062	-0.099	0.058
-556.456	-92.021	0.088	0.025
-555.442	58.457	-0.138	0.136
-554.427	-200.000	0.013	-0.213
-553.412	47.962	0.321	0.302
-552.398	-111.979	0.112	-0.023
-551.383	62.033	0.204	-0.205
-550.369	800.000	0.058	-0.186
-549.354	-14.811	0.135	0.087
-548.339	-140.121	0.209	0.022
-547.325	402.672	-0.084	0.178
-546.310	-151.961	-0.142	-0.010
-545.296	156.464	0.238	0.330
-544.281	-200.000	-0.027	-0.324
-543.266	800.000	0.028	-0.084
-542.252	-129.514	0.162	0.022
-541.237	800.000	-0.010	0.034
-540.223	-84.775	0.169	0.053
-539.208	1.310	-0.213	-0.154
-538.193	746.089	-0.174	-0.470
-537.179	-30.993	-0.129	-0.073
-536.164	236.805	-0.076	-0.127
-535.150	37.469	0.083	0.074
-534.135	221.923	-0.045	-0.073
-533.121	45.117	-0.031	0.028
-532.106	130.338	0.070	0.090
-531.091	361.251	0.023	0.046
-530.077	-78.854	0.142	0.049
-529.062	97.474	-0.101	0.116
-528.048	198.376	-0.039	-0.060
-527.033	180.326	-0.199	-0.293
-526.018	-200.000	0.035	-0.332
-525.004	-145.170	-0.132	-0.012
-523.989	-15.313	-0.151	0.097
-522.975	-55.729	0.137	0.062
-521.960	-91.041	0.220	-0.063
-520.945	129.970	0.346	0.444
-519.931	-80.419	0.077	0.026
-518.916	-200.000	-0.001	0.115
-517.902	-200.000	-0.006	-0.130
-516.887	44.935	0.136	0.125
-515.872	-122.384	0.372	0.061
-514.858	406.687	0.075	0.160
-513.843	-121.830	-0.098	-0.016
-512.829	577.978	-0.142	-0.349
-511.814	406.095	0.087	0.184
-510.799	489.969	-0.090	-0.206
-509.785	75.957	-0.173	0.184
-508.770	-112.904	-0.203	0.040
-507.756	-200.000	0.043	0.280
-506.741	-200.000	0.016	-0.186
-505.726	-200.000	0.033	0.281
-504.712	-200.000	0.004	0.230
-503.697	104.143	-0.083	-0.099
-502.683	-200.000	-0.039	-0.282
-501.668	-69.442	-0.184	0.071
-500.653	137.209	0.095	-0.125
-499.639	81.857	0.263	0.286
-498.624	-148.727	-0.171	-0.014
-497.610	433.143	-0.074	0.162
-496.595	30.757	0.230	0.198
-495.581	486.991	-0.115	0.264
-494.566	-200.000	0.026	0.233
-493.551	141.612	0.104	0.138
-492.537	800.000	0.109	0.325
-491.522	49.720	0.015	0.014
-490.508	228.398	0.086	-0.141
-489.493	-38.679	-0.117	0.062
-488.478	-95.369	-0.096	-0.026
-487.464	408.646	-0.137	0.291
-486.449	550.577	0.079	0.189
-485.435	-58.795	-0.305	0.132
-484.420	-126.564	-0.271	0.040
-483.405	486.707	0.015	0.035
-482.391	-113.354	0.351	0.069
-481.376	-200.000	0.364	-0.002
-480.362	-90.817	0.193	-0.056
-479.347	800.000	-0.039	0.138
-478.332	-91.156	0.056	-0.016
-477.318	-38.344	0.369	0.196
-476.303	800.000	-0.029	0.083
-475.289	140.643	-0.064	0.085
-474.274	-200.000	-0.001	0.102
-473.259	-145.519	-0.293	0.026
-472.245	-200.000	-0.020	-0.112
-471.230	183.931	-0.135	-0.200
-470.216	-165.364	-0.098	-0.004
-469.201	-200.000	0.044	-0.342
-468.186	-6.894	-0.214	-0.146
-467.172	245.382	0.043	0.072
-466.157	90.054	0.075	0.084
-465.143	-116.344	0.067	-0.012
-464.128	-145.534	0.170	-0.015
-463.113	-102.032	0.141	-0.034
-462.099	-200.000	-0.084	-0.510
-461.084	800.000	-0.179	0.500
-460.070	-124.519	0.106	-0.016
-459.055	125.610	0.133	0.168
-458.040	538.076	-0.049	-0.118
-457.026	-159.647	-0.074	0.004
-456.011	-200.000	0.000	0.214
-454.997	358.743	0.147	0.294
-453.982	584.699	-0.073	-0.180
-452.968	800.000	-0.079	0.239
-451.953	-47.306	-0.231	0.113
-450.938	426.985	0.100	0.217
-449.924	149.296	0.122	-0.166
-448.909	800.000	-0.014	0.045
-447.895	800.000	0.032	-0.112
-446.880	-116.978	0.112	0.021
-445.865	-27.204	0.217	-0.127
-444.851	-158.301	-0.064	-0.004
-443.836	-16.842	-0.281	0.178
-442.822	800.000	-0.042	0.141
-441.807	755.076	0.092	-0.249
-440.792	800.000	0.054	0.158
-439.778	28.930	-0.172	0.146
-438.763	-98.253	0.170	-0.044
-437.749	-45.644	-0.136	-0.067
-436.734	149.589	0.046	0.063
-435.719	93.005	0.080	-0.090
-434.705	-31.040	0.172	-0.097
-433.690	19.989	-0.079	-0.064
-432.676	800.000	-0.076	0.245
-431.661	-59.563	0.197	-0.085
-430.646	-86.915	0.218	-0.066
-429.632	800.000	0.024	0.100
-428.617	437.709	0.039	0.086
-427.603	-40.834	-0.349	-0.181
-426.588	205.330	0.074	0.115
-425.573	-67.000	-0.164	-0.065
-424.559	121.931	0.052	0.065
-423.544	-200.000	-0.016	-0.094
-422.530	29.328	-0.192	0.163
-421.515	22.100	0.238	0.195
-420.500	-200.000	-0.033	-0.182
-419.486	112.080	0.159	-0.192
-418.471	113.393	-0.139	-0.169
-417.457	800.000	-0.041	0.142
-416.442	-200.000	-0.000	-0.140
-415.428	800.000	-0.111	0.398
-414.413	-200.000	-0.050	-0.314
-413.398	-142.912	0.215	0.021
-412.384	441.870	0.171	0.375
-411.369	-187.131	0.295	-0.004
-410.355	749.408	0.039	0.104
-409.340	-75.461	0.367	0.131
-408.325	-200.000	-0.031	0.152
-407.311	-30.193	-0.067	0.038
-406.296	234.045	0.147	-0.242
-405.282	-200.000	-0.080	0.481
-404.267	382.195	-0.138	-0.284
-403.252	-82.063	0.264	-0.086
-402.238	-23.957	-0.430	0.257
-401.223	606.887	-0.153	-0.381
-400.209	-66.448	-0.293	-0.116
-399.194	10.633	0.207	0.158
-398.179	80.980	0.070	-0.076
-397.165	4.678	-0.049	0.036
-396.150	-44.010	0.386	-0.194
-395.136	-200.000	0.034	-0.225
-394.121	800.000	0.036	-0.141
-393.106	800.000	-0.048	0.157
-392.092	72.592	-0.129	0.135
-391.077	-157.925	0.208	0.012
-390.063	-200.000	0.024	0.387
-389.048	-127.863	0.353	0.051
-388.033	-19.664	-0.136	-0.084
-387.019	100.820	-0.245	0.285
-386.004	-200.000	0.003	-0.130
-384.990	397.936	-0.130	0.272
-383.975	48.882	-0.302	-0.283
-382.960	-11.549	-0.227	0.149
-381.946	-18.543	-0.182	-0.113
-380.931	330.229	0.039	-0.076
-379.917	-61.809	0.134	-0.056
-378.902	-200.000	0.014	0.305
-377.888	-151.032	0.277	-0.021
-376.873	800.000	-0.109	-0.357
-375.858	538.034	0.153	0.363
-374.844	-200.000	-0.010	0.057
-373.829	-159.997	-0.208	-0.011
-372.815	-200.000	0.039	-0.295
-371.800	800.000	0.042	-0.177
-370.785	-183.350	0.313	0.005
-369.771	-130.478	0.257	-0.035
-368.756	-52.603	0.282	0.130
-367.742	-154.288	-0.027	-0.002
-366.727	-0.072	-0.197	0.140
-365.712	418.267	0.026	0.055
-364.698	62.141	-0.166	-0.166
-363.683	80.941	0.163	0.175
-362.669	-93.773	0.141	0.039
-361.654	-7.565	0.168	-0.113
-360.639	490.357	-0.059	0.136
-359.625	-26.570	-0.151	-0.088
-358.610	47.766	-0.191	0.178
-357.596	604.403	0.034	-0.084
-356.581	-200.000	-0.101	-0.459
-355.566	-200.000	-0.043	-0.274
-354.552	544.327	-0.162	0.387
-353.537	-37.556	0.156	-0.083
-352.523	35.544	0.303	0.265
-351.508	-102.864	0.192	0.045
-350.493	-111.208	-0.093	0.019
-349.479	632.251	0.116	-0.292
-348.464	-200.000	0.010	0.094
-347.450	800.000	-0.098	0.316
-346.435	-107.378	-0.202	0.044
-345.420	688.408	-0.137	-0.358
-344.406	176.466	0.113	-0.164
-343.391	-109.678	-0.097	0.020
-342.377	309.681	0.105	-0.196
-341.362	330.776	0.323	0.621
-340.348	-148.713	0.077	0.006
-339.333	615.458	0.080	-0.199
-338.318	-8.205	0.195	0.131
-337.304	233.242	-0.144	-0.236
-336.289	737.327	-0.076	-0.204
-335.275	800.000	0.030	-0.109
-334.260	-45.730	-0.440	0.217
-333.245	-75.886	-0.281	-0.099
-332.231	-16.025	0.255	0.162
-331.216	-15.928	-0.032	-0.020
-330.202	-38.966	-0.168	-0.088
-329.187	-200.000	0.002	-0.116
-328.172	86.714	-0.229	-0.252
-327.158	-125.444	-0.271	0.041
-326.143	-81.756	-0.116	-0.038
-325.129	-7.459	-0.134	0.090
-324.114	-109.081	-0.166	-0.035
-323.099	-129.019	-0.110	0.015
-322.085	-200.000	-0.050	0.255
-321.070	-200.000	0.004	-0.108
-320.056	-200.000	0.007	-0.091
-319.041	-200.000	-0.043	0.475
-318.026	154.516	-0.014	0.019
-317.012	-38.479	-0.198	-0.104
-315.997	800.000	-0.097	-0.280
-314.983	86.342	-0.186	-0.204
-313.968	-100.163	0.236	0.058
-312.953	14.315	0.471	-0.366
-311.939	107.504	-0.222	-0.263
-310.924	70.461	0.065	-0.067
-309.910	-200.000	0.027	-0.164
-308.895	-37.747	-0.184	-0.097
-307.880	-80.621	0.343	0.114
-306.866	-72.441	-0.126	-0.046
-305.851	54.663	-0.061	0.059
-304.837	800.000	0.046	0.156
-303.822	-200.000	0.025	0.144
-302.807	43.754	-0.312	-0.285
-301.793	-190.783	-0.270	-0.003
-300.778	112.723	0.378	-0.456
-299.764	203.861	-0.149	0.229
-298.749	149.181	-0.074	-0.099
-297.735	-200.000	-0.040	-0.381
-296.720	129.983	-0.102	-0.129
-295.705	182.099	0.168	0.247
-294.691	583.260	-0.033	-0.081
-293.676	800.000	0.073	-0.276
-292.662	116.025	-0.138	0.169
-291.647	-200.000	-0.009	-0.117
-290.632	-86.097	-0.174	0.053
-289.618	-200.000	-0.006	0.117
-288.603	-200.000	0.010	-0.188
-287.589	518.980	0.154	0.360
-286.574	800.000	-0.024	0.074
-285.559	525.855	-0.034	-0.080
-284.545	140.971	-0.172	-0.227
-283.530	321.756	-0.143	-0.271
-282.516	108.822	0.237	0.282
-281.501	-200.000	0.033	0.159
-280.486	132.164	0.256	-0.328
-279.472	370.629	-0.022	0.045
-278.457	-200.000	0.007	0.084
-277.443	-200.000	0.001	-0.230
-276.428	-200.000	0.032	0.173
-275.413	70.138	-0.160	-0.164
-274.399	201.607	-0.115	-0.176
-273.384	-200.000	-0.058	-0.310
-272.370	-138.910	0.129	-0.014
-271.355	332.869	0.269	-0.517
-270.340	-200.000	0.043	0.214
-269.326	-83.233	-0.135	0.043
-268.311	155.380	0.181	-0.247
-267.297	-147.125	0.234	-0.020
-266.282	-39.508	0.164	-0.086
-265.267	22.434	0.109	-0.089
-264.253	-200.000	0.002	-0.278
-263.238	-108.168	0.129	-0.028
-262.224	65.500	0.201	0.202
-261.209	-59.486	-0.095	-0.041
-260.195	-153.796	-0.465	0.032
-259.180	302.359	-0.049	0.091
-258.165	21.569	0.271	-0.219
-257.151	90.746	-0.203	-0.227
-256.136	500.656	-0.030	0.070
-255.122	516.270	-0.112	-0.260
-254.107	-135.674	0.435	0.051
-253.092	-200.000	-0.021	0.162
-252.078	90.153	0.068	-0.076
-251.063	72.165	0.192	0.199
-250.049	-200.000	-0.027	0.363
-249.034	-56.430	0.114	-0.050
-248.019	-64.256	-0.186	0.075
-247.005	-143.838	-0.211	0.020
-245.990	-195.805	-0.485	-0.003
-244.976	-158.084	-0.242	-0.014
-243.961	536.163	0.097	0.228
-242.946	-53.073	0.144	-0.066
-241.932	233.252	0.104	-0.169
-240.917	-105.273	0.369	-0.084
-239.903	-5.358	-0.140	-0.096
-238.888	-98.099	0.220	0.056
-237.873	-200.000	-0.021	0.304
-236.859	516.556	-0.157	0.364
-235.844	353.577	0.109	-0.216
-234.830	-11.855	-0.080	-0.052
-233.815	-200.000	0.037	-0.413
-232.800	-119.333	-0.031	0.005
-231.786	-106.886	0.124	-0.027
-230.771	179.664	0.084	0.122
-229.757	-21.493	-0.043	-0.026
-228.742	67.958	-0.177	0.180
-227.727	112.184	-0.144	0.173
-226.713	-200.000	0.060	-0.564
-225.698	554.749	0.168	0.400
-224.684	-145.948	0.194	-0.017
-223.669	-114.441	0.099	-0.019
-222.655	-72.106	0.262	0.097
-221.640	800.000	-0.078	-0.267
-220.625	494.580	-0.140	0.318
-219.611	-81.691	0.194	0.063
-218.596	-46.726	0.265	0.129
-217.582	-200.000	0.038	0.263
-216.567	-200.000	0.000	0.282
-215.552	-57.045	-0.370	0.162
-214.538	255.683	-0.102	0.174
-213.523	-52.842	-0.359	-0.164
-212.509	407.730	0.102	0.214
-211.494	-73.137	0.156	0.057
-210.479	-136.795	-0.180	0.021
-209.465	130.718	0.124	0.158
-208.450	-11.713	-0.230	0.150
-207.436	800.000	-0.020	-0.084
-206.421	-123.198	0.192	-0.030
-205.406	800.000	0.111	0.312
-204.392	-185.760	0.237	0.004
-203.377	118.881	0.074	-0.091
-202.363	303.229	0.102	0.187
-201.348	-200.000	0.005	-0.228
-200.333	800.000	-0.116	0.328
-199.319	88.209	0.183	-0.201
-198.304	-48.034	0.152	0.073
-197.290	160.695	-0.344	-0.476
-196.275	-159.410	-0.279	-0.015
-195.260	-71.026	0.122	0.045
-194.246	165.614	0.158	-0.222
-193.231	-174.546	-0.365	0.010
-192.217	-5.826	-0.099	-0.067
-191.202	-52.623	-0.266	0.122
-190.187	-200.000	-0.022	0.165
-189.173	-104.555	0.191	-0.044
-188.158	800.000	-0.034	-0.111
-187.144	-200.000	0.012	0.098
-186.129	-144.579	-0.351	0.032
-185.114	295.631	-0.062	0.112
-184.100	81.048	-0.027	0.029
-183.085	800.000	-0.016	-0.045
-182.071	-77.581	-0.406	-0.139
-181.056	-128.172	-0.154	-0.022
-180.042	-12.725	0.236	-0.152
-179.027	-200.000	0.056	0.309
-178.012	208.814	0.095	-0.147
-176.998	34.720	0.174	-0.151
-175.983	185.243	0.096	0.141
-174.969	41.634	0.193	0.173
-173.954	-139.452	0.144	0.015
-172.939	119.972	0.072	-0.089
-171.925	-89.325	-0.255	-0.074
-170.910	-200.000	-0.035	0.205
-169.896	-120.592	-0.244	0.041
-168.881	319.142	0.018	0.033
-167.866	-60.440	0.068	-0.029
-166.852	-35.805	0.190	-0.102
-165.837	-24.010	0.188	-0.111
-164.823	-200.000	0.014	-0.095
-163.808	-74.503	-0.288	0.103
-162.793	-157.597	0.129	0.008
-161.779	40.244	0.084	0.075
-160.764	-200.000	0.002	0.095
-159.750	-172.528	0.212	0.007
-158.735	-111.129	0.096	-0.019
-157.720	239.383	-0.047	-0.077
-156.706	309.163	0.229	0.424
-155.691	800.000	0.042	-0.137
-154.677	18.659	-0.312	0.247
-153.662	103.593	-0.233	-0.271
-152.647	60.519	0.270	-0.265
-151.633	-110.090	0.366	0.076
-150.618	-69.475	-0.186	0.071
-149.604	17.262	0.021	-0.017
-148.589	-200.000	0.041	0.241
-147.574	-200.000	0.035	-0.352
-146.560	800.000	0.072	-0.221
-145.545	-200.000	-0.015	0.205
-144.531	800.000	0.049	0.196
-143.516	-130.583	0.270	-0.036
-142.502	800.000	-0.115	-0.339
-141.487	305.468	0.084	0.154
-140.472	800.000	-0.181	0.584
-139.458	800.000	0.066	0.194
-138.443	94.530	0.175	0.197
-137.429	-21.085	0.191	0.115
-136.414	-9.515	-0.144	0.095
-135.399	-200.000	0.009	0.409
-134.385	800.000	-0.043	0.122
-133.370	-200.000	0.010	0.187
-132.356	13.208	-0.107	0.082
-131.341	411.360	0.231	0.484
-130.326	25.957	0.358	0.296
-129.312	136.444	0.124	-0.160
-128.297	-158.458	0.112	-0.006
-127.283	-19.165	-0.070	-0.043
-126.268	800.000	0.042	-0.117
-125.253	-0.288	-0.113	0.079
-124.239	200.815	-0.272	0.413
-123.224	-8.983	0.101	0.067
-122.210	-173.270	0.198	-0.006
-121.195	-200.000	0.014	0.077
-120.180	800.000	-0.030	0.092
-119.166	199.524	-0.144	0.218
-118.151	199.113	-0.112	-0.170
-117.137	-67.759	0.204	-0.079
-116.122	5.844	-0.162	-0.119
-115.107	800.000	-0.033	-0.129
-114.093	-22.943	0.396	0.236
-113.078	-85.161	0.227	-0.070
-112.064	29.818	-0.152	0.128
-111.049	-58.451	0.203	0.087
-110.034	73.020	0.066	0.068
-109.020	-166.240	0.217	-0.009
-108.005	799.248	-0.151	0.411
-106.991	585.137	-0.077	0.187
-105.976	800.000	-0.045	-0.147
-104.962	71.179	-0.151	-0.155
-103.947	-99.827	0.250	-0.062
-102.932	-127.923	0.167	0.024
-101.918	800.000	0.019	0.071
-100.903	191.583	0.144	-0.214
-99.889	7.635	-0.243	-0.180
-98.874	-139.880	-0.154	-0.016
-97.859	-4.268	0.115	-0.079
-96.845	-47.201	-0.086	0.041
-95.830	671.589	0.075	0.193
-94.816	745.089	-0.122	0.324
-93.801	800.000	0.061	0.209
-92.786	719.409	0.102	-0.267
-91.772	-176.857	-0.366	0.009
-90.757	-161.233	0.477	-0.024
-89.743	-200.000	0.082	0.366
-88.728	112.469	0.160	0.191
-87.713	-200.000	-0.028	0.227
-86.699	-24.822	-0.111	0.065
-85.684	26.112	0.102	-0.084
-84.670	-66.821	-0.066	-0.026
-83.655	800.000	0.037	-0.157
-82.640	73.763	0.108	-0.112
-81.626	-200.000	-0.074	-0.456
-80.611	-14.334	0.413	0.262
-79.597	-136.527	-0.324	0.037
-78.582	531.750	-0.015	0.036
-77.567	800.000	-0.059	0.228
-76.553	-150.524	-0.386	0.029
-75.538	-200.000	-0.025	0.240
-74.524	-110.354	-0.068	0.014
-73.509	655.257	-0.023	-0.059
-72.494	-200.000	0.012	0.069
-71.480	-144.378	-0.173	0.016
-70.465	72.711	-0.238	0.245
-69.451	-110.385	0.197	-0.040
-68.436	-19.688	-0.166	0.101
-67.422	-34.703	-0.366	-0.197
-66.407	800.000	0.039	0.113
-65.392	282.854	-0.106	0.188
-64.378	3.488	0.141	0.102
-63.363	-92.030	0.127	-0.035
-62.349	22.173	-0.109	-0.088
-61.334	67.145	-0.957	-0.962
-60.319	250.110	0.250	0.419
-59.305	87.694	-0.581	-0.635
-58.290	587.341	0.370	0.899
-57.276	652.178	0.501	1.266
-56.261	-200.000	97.748	587.559
-55.246	558.721	1386.195	3298.618
-54.232	153.645	2586.143	3493.534
-53.217	114.222	2178.571	2614.446
-52.203	45.142	1715.149	1558.660
-51.188	37.691	1527.901	1337.512
-50.173	35.294	1500.332	1297.130
-49.159	55.428	1552.301	1481.047
-48.144	58.926	1571.469	1523.316
-47.130	38.092	1526.044	1338.421
-46.115	34.843	1510.100	1302.302
-45.100	34.601	1506.851	1297.799
-44.086	34.563	1505.460	1296.295
-43.071	34.552	1503.183	1294.209
-42.057	34.642	1501.257	1293.104
-41.042	34.597	1499.830	1291.523
-40.027	34.547	1498.821	1290.265
-39.013	34.565	1497.086	1288.841
-37.998	34.476	1496.376	1287.575
-36.984	34.484	1495.070	1286.456
-35.969	34.507	1493.835	1285.498
-34.954	34.553	1492.284	1284.423
-33.940	34.564	1490.710	1283.091
-32.925	34.615	1489.197	1282.081
-31.911	34.594	1488.641	1281.411
-30.896	34.626	1486.951	1280.117
-29.881	34.673	1485.293	1278.954
-28.867	34.646	1483.982	1277.593
-27.852	34.576	1482.876	1276.124
-26.838	34.636	1481.309	1275.127
-25.823	34.638	1479.631	1273.639
-24.809	34.624	1478.396	1272.436
-23.794	34.525	1477.141	1270.642
-22.779	34.565	1476.357	1270.184
-21.765	34.570	1474.926	1268.941
-20.750	34.670	1473.382	1268.224
-19.736	34.622	1472.599	1267.183
-18.721	34.544	1472.079	1266.168
-17.706	34.542	1471.003	1265.176
-16.692	34.569	1469.669	1264.156
-15.677	34.586	1468.450	1263.175
-14.663	34.645	1467.235	1262.468
-13.648	34.469	1466.746	1260.832
-12.633	34.496	1465.500	1259.890
-11.619	34.598	1464.742	1259.858
-10.604	34.562	1463.636	1258.624
-9.590	34.511	1462.933	1257.633
-8.575	34.595	1462.221	1257.526
-7.560	34.524	1461.330	1256.241
-6.546	34.503	1460.625	1255.449
-5.531	34.482	1459.745	1254.503
-4.517	34.486	1458.640	1253.530
-3.502	34.419	1458.207	1252.668
-2.487	34.533	1456.432	1251.837
-1.473	34.542	1455.246	1250.827
-0.458	34.486	1454.196	1249.511
0.556	34.897	1444.505	1239.360
1.571	31.889	1418.875	1198.083
2.586	28.411	1358.297	1125.513
3.600	26.669	1276.748	1047.780
4.615	25.291	1230.336	1001.915
5.629	21.398	1173.227	934.563
6.644	11.259	1085.525	814.225
7.659	3.203	1042.502	743.109
8.673	2.154	1036.703	733.874
9.688	1.803	1034.126	730.301
10.702	1.641	1032.234	728.129
11.717	1.753	1030.242	727.191
12.731	5.642	1034.275	748.589
13.746	15.509	1048.739	806.599
14.761	23.063	1058.542	850.549
15.775	24.716	1059.939	859.553
16.790	24.955	1059.651	860.391
17.804	24.795	1058.837	858.886
18.819	24.549	1058.055	856.994
19.834	24.737	1057.309	857.216
20.848	24.911	1056.730	857.505
21.863	24.979	1056.428	857.505
22.877	24.852	1056.533	856.908
23.892	24.833	1056.158	856.438
24.907	24.785	1054.586	854.860
25.921	24.816	1054.071	854.511
26.936	24.885	1052.977	853.879
27.950	24.853	1052.431	853.211
28.965	24.770	1051.345	851.859
29.980	24.774	1049.354	850.189
30.994	24.665	1048.349	848.783
32.009	24.843	1047.672	849.004
33.023	24.993	1047.006	849.099
34.038	24.585	1046.348	846.558
35.053	24.668	1045.183	845.932
36.067	24.801	1044.444	845.887
37.082	24.751	1044.069	845.274
38.096	24.915	1042.989	845.100
39.111	25.011	1042.940	845.438
40.126	25.207	1041.515	845.130
41.140	25.112	1040.326	843.645
42.155	24.767	1038.959	840.840
43.169	24.394	1038.119	838.332
44.184	24.449	1036.873	837.511
45.199	24.497	1035.861	836.842
46.213	24.446	1034.903	835.756
47.228	24.441	1033.999	834.929
48.242	24.582	1033.185	834.856
49.257	24.713	1032.481	834.824
50.271	24.628	1031.908	833.894
51.286	24.837	1030.933	834.007
52.301	24.953	1030.371	834.015
53.315	24.953	1029.533	833.265
54.330	25.011	1028.401	832.543
55.344	24.822	1028.113	831.358
56.359	24.734	1027.083	830.045
57.374	24.764	1026.166	829.368
58.388	24.571	1025.659	827.991
59.403	24.587	1024.831	827.324
60.417	24.574	1024.066	826.576
61.432	24.453	1022.970	825.055
62.447	24.574	1022.200	824.921
63.461	24.602	1022.257	825.023
64.476	24.643	1021.006	824.130
65.490	24.594	1020.265	823.231
66.505	24.538	1019.107	821.970
67.520	24.516	1018.493	821.300
68.534	24.620	1017.950	821.265
69.549	24.479	1017.001	819.781
70.563	24.062	1016.024	817.008
71.578	24.056	1015.154	816.207
72.593	24.166	1014.374	816.013
73.607	23.966	1013.071	813.979
74.622	24.114	1011.822	813.576
75.636	24.140	1011.856	813.654
76.651	24.379	1010.904	813.906
77.666	24.391	1009.788	812.990
78.680	24.186	1008.844	811.225
79.695	24.325	1008.327	811.367
80.709	24.350	1008.194	811.304
81.724	24.516	1007.294	811.263
82.739	24.371	1006.425	809.834
83.753	24.342	1005.627	808.988
84.768	24.668	1004.952	809.851
85.782	25.131	1003.998	811.104
86.797	25.236	1003.402	811.026
87.812	25.098	1002.857	809.889
88.826	24.808	1002.289	808.049
89.841	25.032	1001.307	808.195
90.855	25.105	1000.580	807.870
91.870	25.244	999.729	807.734
92.884	25.146	998.643	806.345
93.899	24.899	998.204	804.811
94.914	24.818	996.659	803.130
95.928	25.002	996.282	803.578
96.943	25.005	995.514	802.904
97.957	24.734	993.939	800.350
98.972	24.542	992.939	798.614
99.987	24.358	991.719	796.742
101.001	24.545	990.965	796.899
102.016	24.726	991.335	797.935
103.030	24.753	990.347	797.186
104.045	24.776	989.269	796.353
105.060	24.650	987.884	794.609
106.074	24.409	987.051	792.794
107.089	24.274	986.414	791.616
108.103	24.861	985.712	793.587
109.118	24.893	985.049	793.121
110.133	24.507	984.190	790.654
111.147	24.611	982.563	789.734
112.162	24.508	981.734	788.542
113.176	24.164	980.619	786.060
114.191	24.387	979.702	786.238
115.206	24.710	979.108	787.117
116.220	24.177	978.593	784.285
117.235	23.972	977.348	782.315
118.249	24.144	976.966	782.698
119.264	24.240	976.093	782.351
120.279	24.110	974.951	780.797
121.293	23.987	974.530	779.850
122.308	24.194	973.994	780.262
123.322	24.284	972.790	779.622
124.337	24.181	971.770	778.284
125.352	24.142	970.256	776.833
126.366	23.788	968.977	774.197
127.381	23.372	967.605	771.224
128.395	23.883	967.636	773.401
129.410	24.539	967.297	775.914
130.424	24.834	966.560	776.536
131.439	24.767	965.350	775.202
132.454	24.594	964.856	773.988
133.468	24.831	963.517	773.871
134.483	24.628	963.206	772.675
135.497	24.805	962.470	772.781
136.512	24.789	961.881	772.172
137.527	24.978	961.206	772.378
138.541	24.956	960.065	771.296
139.556	25.003	959.614	771.067
140.570	24.954	959.117	770.390
141.585	24.905	957.897	769.131
142.600	25.070	957.403	769.375
143.614	25.036	956.499	768.433
144.629	25.006	955.679	767.577
145.643	25.254	954.838	767.895
146.658	25.085	953.978	766.413
147.673	25.055	952.482	765.019
148.687	24.936	951.313	763.502
149.702	24.795	950.759	762.390
150.716	24.719	949.331	760.852
151.731	24.828	947.969	760.159
152.746	24.769	947.838	759.736
153.760	24.941	947.116	759.819
154.775	25.187	946.510	760.309
155.789	25.267	945.533	759.797
156.804	25.054	945.082	758.463
157.819	25.049	943.841	757.380
158.833	25.161	943.010	757.122
159.848	25.190	942.383	756.670
160.862	25.338	941.519	756.535
161.877	25.131	940.391	754.687
162.892	25.112	939.622	753.928
163.906	25.094	938.787	753.115
164.921	25.127	937.864	752.443
165.935	25.076	936.838	751.341
166.950	25.036	935.741	750.228
167.964	25.215	934.716	750.089
168.979	25.143	934.036	749.176
169.994	24.961	933.107	747.605
171.008	24.903	931.996	746.407
172.023	25.083	931.549	746.733
173.037	25.177	931.070	746.673
174.052	25.141	929.418	745.131
175.067	24.942	928.415	743.438
176.081	24.792	927.981	742.403
177.096	24.964	927.177	742.404
178.110	24.980	926.332	741.731
179.125	24.728	925.360	739.842
180.140	24.520	924.323	738.090
181.154	24.561	923.294	737.370
182.169	24.615	923.108	737.380
183.183	24.896	922.939	738.340
184.198	25.042	922.750	738.725
185.213	24.971	922.306	738.009
186.227	24.927	921.203	736.883
187.242	25.089	920.826	737.182
188.256	25.154	919.612	736.412
189.271	25.059	919.045	735.504
190.286	25.227	918.069	735.345
191.300	25.126	917.553	734.452
192.315	24.545	915.825	730.629
193.329	23.681	914.813	726.222
194.344	23.427	913.176	723.824
195.359	24.017	913.826	726.686
196.373	24.808	914.418	730.324
197.388	24.953	914.146	730.631
198.402	25.008	912.884	729.783
199.417	25.016	912.547	729.483
200.432	25.045	911.775	728.917
201.446	24.893	911.517	728.030
202.461	24.630	910.744	726.276
203.475	24.701	909.979	725.892
204.490	24.259	908.738	723.047
205.504	23.106	906.691	716.682
206.519	23.521	906.289	717.983
207.534	24.461	906.706	722.053
208.548	24.662	906.037	722.270
209.563	25.048	905.836	723.602
210.577	24.999	905.220	722.851
211.592	24.680	904.400	720.847
212.607	24.977	904.532	722.087
213.621	25.177	904.000	722.404
214.636	25.134	903.331	721.631
215.650	25.184	902.656	721.229
216.665	25.069	902.343	720.450
217.680	25.128	901.794	720.186
218.694	25.197	901.157	719.891
219.709	24.944	899.848	717.769
220.723	24.728	898.899	716.081
221.738	24.803	898.708	716.166
222.753	24.898	898.228	716.103
223.767	24.862	897.758	715.519
224.782	25.019	896.715	715.250
225.796	25.351	896.174	716.082
226.811	25.337	895.860	715.713
227.826	24.961	894.252	712.865
228.840	24.187	892.747	708.526
229.855	24.158	892.306	707.997
230.869	24.369	891.742	708.327
231.884	23.923	891.469	706.277
232.899	23.881	890.694	705.435
233.913	24.690	890.882	708.729
234.928	25.013	890.363	709.533
235.942	24.911	889.891	708.691
236.957	24.954	889.459	708.456
237.972	24.683	888.223	706.337
238.986	24.559	886.979	704.795
240.001	24.669	886.958	705.151
241.015	24.665	886.172	704.446
242.030	24.666	885.896	704.169
243.045	24.965	885.180	704.715
244.059	24.850	884.962	704.027
245.074	25.059	884.518	704.433
246.088	25.112	883.658	703.894
247.103	24.771	882.341	701.445
248.117	24.692	882.291	701.035
249.132	25.016	882.464	702.378
250.147	25.595	881.931	704.158
251.161	25.772	881.051	704.086
252.176	25.932	880.739	704.400
253.190	25.888	879.882	703.480
254.205	25.865	879.773	703.243
255.220	26.203	879.091	703.953
256.234	25.991	878.935	702.937
257.249	25.927	877.910	701.809
258.263	25.765	877.309	700.636
259.278	25.767	877.124	700.433
260.293	25.855	876.274	700.033
261.307	25.976	875.663	699.955
262.322	25.831	874.864	698.693
263.336	25.678	874.108	697.433
264.351	25.307	872.963	695.020
265.366	24.173	871.172	689.149
266.380	23.784	869.754	686.463
267.395	24.703	870.453	690.505
268.409	25.358	870.769	693.228
269.424	25.349	870.024	692.536
270.439	25.421	869.654	692.458
271.453	25.679	868.530	692.497
272.468	25.693	868.045	692.101
273.482	25.862	867.918	692.588
274.497	25.919	867.432	692.357
275.512	25.620	866.587	690.474
276.526	25.204	865.319	687.809
277.541	25.233	865.045	687.642
278.555	25.657	864.992	689.162
279.570	25.534	864.106	687.927
280.585	25.418	863.410	686.868
281.599	25.616	862.324	686.698
282.614	25.638	862.480	686.846
283.628	25.225	860.945	683.990
284.643	24.781	860.214	681.654
285.657	25.134	860.703	683.329
286.672	25.166	859.602	682.516
287.687	24.628	858.698	679.691
288.701	25.002	858.458	680.864
289.716	25.310	858.348	681.887
290.730	24.878	857.611	679.598
291.745	24.839	856.428	678.455
292.760	24.726	855.562	677.279
293.774	24.655	854.979	676.489
294.789	25.609	855.504	680.456
295.803	26.182	856.073	683.017
296.818	26.268	855.159	682.551
297.833	26.245	854.871	682.176
298.847	26.017	853.671	680.297
299.862	25.668	852.885	678.296
300.876	25.833	852.409	678.478
301.891	26.110	852.039	679.165
302.906	26.369	851.460	679.619
303.920	25.769	850.448	676.498
304.935	25.544	850.035	675.265
305.949	25.965	849.787	676.588
306.964	26.188	848.829	676.602
307.979	26.105	847.872	675.468
308.993	25.882	847.719	674.452
310.008	26.197	847.749	675.593
311.022	26.392	847.031	675.690
312.037	26.157	846.647	674.447
313.052	26.118	845.706	673.491
314.066	25.907	844.962	672.053
315.081	25.245	843.463	668.337
316.095	24.569	841.985	664.592
317.110	25.024	842.567	666.688
318.125	25.903	842.932	670.188
319.139	25.489	841.818	667.705
320.154	24.398	839.774	661.980
321.168	23.780	839.086	659.087
322.183	24.472	839.231	661.706
323.197	25.395	839.669	665.415
324.212	25.857	839.237	666.723
325.227	25.824	839.356	666.639
326.241	26.018	838.517	666.629
327.256	26.042	837.570	665.908
328.270	25.890	837.241	665.025
329.285	25.760	836.812	664.146
330.300	25.702	835.831	663.097
331.314	25.330	835.439	661.356
332.329	25.279	834.687	660.513
333.343	25.774	834.350	662.008
334.358	26.067	833.759	662.559
335.373	26.113	833.095	662.141
336.387	26.167	832.906	662.130
337.402	26.215	832.972	662.300
338.416	26.419	832.775	662.832
339.431	26.445	831.900	662.172
340.446	26.417	831.228	661.475
341.460	26.683	830.686	661.959
342.475	26.660	829.985	661.257
343.489	26.456	829.393	659.982
344.504	26.456	828.923	659.551
345.519	26.703	828.166	659.788
346.533	26.904	827.990	660.321
347.548	26.953	827.769	660.265
348.562	26.786	828.065	659.836
349.577	26.869	826.986	659.218
350.592	26.850	826.176	658.446
351.606	26.777	826.025	658.003
352.621	26.766	824.934	657.033
353.635	26.833	824.542	656.906
354.650	26.795	823.915	656.212
355.665	26.310	823.268	653.886
356.679	25.279	821.604	648.782
357.694	25.132	821.011	647.723
358.708	25.848	820.898	650.162
359.723	25.781	820.417	649.482
360.738	26.075	819.968	650.130
361.752	26.539	819.939	651.718
362.767	26.525	819.587	651.331
363.781	26.916	819.563	652.661
364.796	27.257	819.336	653.650
365.810	27.130	819.252	653.066
366.825	27.321	818.121	652.794
367.840	27.263	818.433	652.776
368.854	27.052	817.744	651.412
369.869	26.745	816.684	649.412
370.883	26.486	816.184	648.028
371.898	26.665	815.369	647.963
372.913	26.556	814.406	646.751
373.927	26.497	813.992	646.156
374.942	26.645	813.807	646.481
375.956	26.853	813.160	646.649
376.971	26.826	813.014	646.380
377.986	26.992	811.897	646.026
379.000	27.184	811.852	646.617
380.015	27.169	811.455	646.190
381.029	27.059	810.624	645.080
382.044	27.091	810.026	644.662
383.059	27.185	809.565	644.571
384.073	27.298	808.730	644.247
385.088	27.233	808.616	643.870
386.102	27.357	807.841	643.633
387.117	27.017	807.139	641.817
388.132	26.997	806.524	641.202
389.146	26.680	806.187	639.755
390.161	26.129	805.148	636.931
391.175	26.180	805.072	636.995
392.190	26.812	804.861	639.001
393.205	26.629	804.181	637.760
394.219	25.791	802.381	633.328
395.234	24.239	800.443	626.296
396.248	23.342	799.535	622.378
397.263	24.421	800.324	626.732
398.278	26.317	801.654	634.379
399.292	26.792	801.492	635.861
400.307	26.447	800.486	633.798
401.321	26.591	799.848	633.740
402.336	26.531	799.695	633.352
403.350	26.741	799.927	634.214
404.365	27.281	799.691	635.860
405.380	27.541	799.589	636.631
406.394	27.779	799.406	637.260
407.409	27.927	799.270	637.612
408.423	28.016	798.383	637.158
409.438	27.896	797.449	635.941
410.453	27.980	797.238	636.010
411.467	28.009	796.913	635.791
412.482	27.833	796.676	634.934
413.496	27.726	796.307	634.214
414.511	28.008	795.868	634.788
415.526	27.866	795.512	633.955
416.540	27.880	795.205	633.702
417.555	27.860	794.620	633.111
418.569	27.607	794.002	631.687
419.584	27.489	792.953	630.387
420.599	27.479	792.767	630.150
421.613	108.625	1280.542	1445.503
422.628	93.438	1351.619	1445.624
