DTS Sentinel unit serial number:	SN413079Multiplexer serial number:	ORYXHardware model number:	OX4-SRSoftware version number:	ORYX F/W v4.00 Oryx Data Collector v3.7.2.0data status	okinstallation	princeton_trtdifferential loss correction	single-endedforward channel	channel 3reverse channel	N/Adate	2019/09/11time	18:18:11forward acquisition time	60.00reverse acquisition time	0.00gamma	496.2192k internal	0.2287k external	0.2287temperature offset calibration	0.9996default loss term (dB/km)	0.3790temperature slope calibration	1.0000multiplexer offset coefficient	1.0000multiplexer slope coefficient	1.0000fibre end	0.00T internal ref (°C)	44.00T ext. ref 1 (°C)	1.15T ext. ref 2 (°C)	38.90length (m)	temperature (°C)	Stokes	anti-Stokes-747.200	-68.802	0.212	0.084
-746.185	114.065	-0.331	0.413
-745.171	-39.470	0.227	0.122
-744.156	75.138	0.137	0.148
-743.142	-45.213	0.341	0.174
-742.127	523.389	0.084	0.203
-741.112	-21.901	0.163	0.102
-740.098	800.000	0.024	-0.097
-739.083	-59.712	-0.061	-0.027
-738.069	788.805	0.098	0.275
-737.054	14.592	0.269	0.216
-736.039	74.453	0.155	-0.167
-735.025	-90.666	0.411	0.122
-734.010	-8.132	-0.263	-0.181
-732.996	13.405	0.055	0.043
-731.981	84.502	-0.130	0.146
-730.966	46.313	0.082	-0.078
-729.952	800.000	0.026	-0.106
-728.937	14.990	0.119	-0.096
-727.923	404.715	0.250	0.540
-726.908	-159.477	-0.143	0.008
-725.894	800.000	-0.034	-0.120
-724.879	-55.138	0.157	-0.073
-723.864	7.782	-0.169	-0.130
-722.850	134.229	-0.128	0.170
-721.835	18.634	0.113	-0.093
-720.821	-200.000	0.005	0.258
-719.806	173.619	0.178	-0.263
-718.791	800.000	-0.105	-0.348
-717.777	-158.382	-0.018	-0.001
-716.762	-31.347	-0.416	-0.240
-715.748	-32.180	0.125	-0.072
-714.733	-116.255	0.130	0.025
-713.718	-72.722	-0.137	0.052
-712.704	-25.722	0.210	-0.127
-711.689	-146.145	-0.127	-0.011
-710.675	-129.132	-0.117	0.017
-709.660	-200.000	0.011	0.096
-708.645	441.302	0.035	0.079
-707.631	-200.000	-0.004	-0.093
-706.616	47.057	-0.094	0.090
-705.602	10.154	-0.114	-0.089
-704.587	-200.000	0.008	-0.046
-703.572	130.237	0.133	0.174
-702.558	-144.446	0.039	0.004
-701.543	240.151	0.090	0.154
-700.529	166.747	-0.084	-0.122
-699.514	-164.562	0.361	-0.017
-698.499	119.728	0.052	-0.066
-697.485	48.817	-0.126	-0.121
-696.470	-200.000	0.021	0.312
-695.456	-93.627	0.140	-0.039
-694.441	-200.000	0.029	0.148
-693.426	-7.849	0.036	0.025
-692.412	159.968	-0.198	-0.283
-691.397	393.043	0.096	-0.205
-690.383	-147.630	0.191	-0.016
-689.368	-200.000	-0.035	-0.164
-688.354	-200.000	0.005	0.039
-687.339	3.383	0.079	-0.059
-686.324	22.397	-0.412	0.345
-685.310	-164.328	0.170	0.008
-684.295	-134.309	-0.350	0.044
-683.281	-99.538	-0.042	0.011
-682.266	800.000	0.076	-0.263
-681.251	20.884	0.193	0.160
-680.237	-112.741	0.285	-0.058
-679.222	-80.906	0.267	0.091
-678.208	-52.409	0.290	0.137
-677.193	-88.296	-0.216	0.066
-676.178	242.194	0.112	0.192
-675.164	-49.766	0.114	0.055
-674.149	-200.000	0.018	-0.411
-673.135	800.000	-0.106	-0.383
-672.120	121.059	-0.040	0.051
-671.105	-130.497	0.156	0.022
-670.091	-57.406	-0.216	-0.097
-669.076	-136.998	0.359	-0.042
-668.062	-200.000	-0.001	-0.167
-667.047	-200.000	0.055	-0.461
-666.032	800.000	-0.026	-0.082
-665.018	-101.140	0.165	-0.041
-664.003	540.006	0.016	-0.039
-662.989	-200.000	-0.021	-0.103
-661.974	-200.000	0.041	0.347
-660.959	53.313	0.229	0.224
-659.945	30.818	-0.293	-0.257
-658.930	-25.743	-0.443	-0.267
-657.916	-6.426	-0.121	-0.085
-656.901	800.000	-0.054	-0.230
-655.886	161.102	0.262	-0.374
-654.872	-200.000	0.007	0.319
-653.857	22.945	-0.103	0.087
-652.843	-200.000	0.002	-0.071
-651.828	131.090	0.069	-0.090
-650.814	289.282	0.108	-0.201
-649.799	-21.888	-0.361	-0.224
-648.784	800.000	0.073	-0.260
-647.770	89.167	-0.290	0.331
-646.755	800.000	0.061	0.256
-645.741	-156.736	-0.106	-0.007
-644.726	-63.204	-0.165	-0.069
-643.711	-200.000	0.008	-0.278
-642.697	-96.122	-0.123	0.033
-641.682	99.855	0.048	0.057
-640.668	-113.255	-0.178	0.036
-639.653	173.257	-0.166	-0.244
-638.638	72.284	-0.108	-0.115
-637.624	20.842	-0.224	-0.186
-636.609	3.214	-0.101	-0.075
-635.595	-156.649	-0.228	-0.014
-634.580	800.000	0.046	0.199
-633.565	-200.000	-0.015	0.102
-632.551	241.056	0.164	-0.280
-631.536	-122.621	0.117	-0.019
-630.522	407.252	-0.071	0.153
-629.507	-188.048	0.080	-0.001
-628.492	-200.000	0.060	-0.311
-627.478	191.094	-0.098	0.151
-626.463	412.244	0.100	0.218
-625.449	-122.235	0.500	-0.083
-624.434	-70.291	-0.176	-0.068
-623.419	-200.000	0.032	0.376
-622.405	757.813	0.062	0.172
-621.390	-143.505	0.070	-0.007
-620.376	-138.414	-0.187	0.021
-619.361	-200.000	-0.009	0.133
-618.346	-116.885	0.206	-0.038
-617.332	218.565	-0.058	-0.094
-616.317	7.595	0.105	0.080
-615.303	-97.360	-0.224	0.060
-614.288	800.000	0.047	-0.200
-613.273	-99.509	0.381	-0.098
-612.259	312.946	-0.052	-0.099
-611.244	-104.241	-0.125	0.030
-610.230	-200.000	-0.016	-0.330
-609.215	-53.684	0.242	0.113
-608.201	18.846	-0.315	0.257
-607.186	147.691	-0.252	-0.346
-606.171	-200.000	0.040	-0.201
-605.157	101.779	-0.066	0.078
-604.142	800.000	-0.041	0.175
-603.128	-200.000	-0.019	0.202
-602.113	61.622	0.094	-0.096
-601.098	4.360	-0.248	-0.186
-600.084	-20.030	-0.152	0.096
-599.069	-23.510	-0.156	-0.096
-598.055	-200.000	-0.005	0.163
-597.040	-48.290	-0.234	-0.115
-596.025	800.000	0.007	-0.032
-595.011	767.597	-0.043	-0.120
-593.996	429.012	0.149	-0.328
-592.982	64.265	-0.090	-0.093
-591.967	352.380	0.108	0.218
-590.952	93.309	0.158	0.182
-589.938	-55.287	-0.157	-0.072
-588.923	800.000	0.036	-0.107
-587.909	-200.000	0.008	-0.125
-586.894	140.091	-0.081	-0.108
-585.879	-200.000	0.027	0.120
-584.865	271.310	0.066	-0.118
-583.850	175.433	-0.278	-0.411
-582.836	-35.679	0.102	0.056
-581.821	23.273	0.133	0.111
-580.806	-42.975	-0.095	0.049
-579.792	-72.656	-0.333	-0.125
-578.777	800.000	-0.090	0.363
-577.763	800.000	-0.065	0.199
-576.748	4.292	0.323	0.241
-575.733	-18.371	0.293	-0.186
-574.719	10.978	0.156	-0.122
-573.704	800.000	-0.086	-0.241
-572.690	-15.334	-0.251	0.164
-571.675	800.000	-0.075	-0.251
-570.661	48.793	0.253	-0.242
-569.646	43.284	0.156	0.145
-568.631	-164.691	0.129	-0.006
-567.617	-99.143	0.098	-0.025
-566.602	-154.403	0.150	-0.010
-565.588	-122.529	0.130	-0.022
-564.573	-168.657	-0.253	0.010
-563.558	-107.423	0.345	-0.077
-562.544	166.150	-0.025	0.036
-561.529	171.750	0.091	-0.132
-560.515	-200.000	0.033	-0.169
-559.500	-28.059	-0.330	0.195
-558.485	127.027	-0.158	-0.204
-557.471	-166.483	-0.266	-0.011
-556.456	257.826	-0.130	0.229
-555.442	326.132	0.107	0.209
-554.427	114.644	0.114	-0.142
-553.412	-109.480	-0.041	0.009
-552.398	800.000	-0.048	-0.145
-551.383	169.200	-0.214	-0.310
-550.369	258.226	0.088	0.155
-549.354	-200.000	-0.052	0.271
-548.339	60.597	-0.295	0.298
-547.325	98.794	0.045	-0.053
-546.310	690.366	-0.163	-0.435
-545.296	46.090	0.218	-0.205
-544.281	-29.399	0.369	0.215
-543.266	800.000	-0.066	0.240
-542.252	-11.911	-0.275	0.184
-541.237	13.288	0.261	-0.206
-540.223	-48.687	-0.160	0.078
-539.208	109.700	0.065	0.080
-538.193	-81.027	-0.191	0.064
-537.179	800.000	0.103	0.392
-536.164	506.608	-0.039	0.092
-535.150	107.985	0.181	-0.220
-534.135	221.793	-0.067	0.110
-533.121	-141.416	-0.132	0.014
-532.106	68.970	0.058	0.060
-531.091	183.723	0.078	-0.117
-530.077	-200.000	-0.004	0.233
-529.062	180.572	0.022	-0.033
-528.048	157.060	-0.231	0.325
-527.033	-132.010	0.197	-0.026
-526.018	293.326	0.155	-0.288
-525.004	653.641	-0.049	0.127
-523.989	-200.000	0.025	-0.432
-522.975	257.822	0.094	0.164
-521.960	-85.385	0.073	-0.023
-520.945	-200.000	-0.085	-0.385
-519.931	-10.242	0.201	-0.136
-518.916	265.778	0.065	0.116
-517.902	336.709	-0.186	-0.367
-516.887	-121.898	0.305	0.051
-515.872	330.919	-0.185	0.362
-514.858	-26.569	0.141	-0.084
-513.843	-75.722	0.279	0.101
-512.829	34.909	-0.156	0.139
-511.814	-41.614	-0.215	0.112
-510.799	2.637	-0.168	0.124
-509.785	-200.000	0.004	-0.470
-508.770	-18.503	0.371	0.236
-507.756	47.725	0.261	0.248
-506.741	364.055	-0.105	-0.214
-505.726	733.917	0.115	0.312
-504.712	800.000	-0.093	-0.385
-503.697	-114.992	0.175	-0.034
-502.683	136.596	0.146	0.193
-501.668	-116.488	0.195	-0.036
-500.653	800.000	0.040	0.169
-499.639	-45.653	-0.112	0.056
-498.624	-200.000	-0.005	0.143
-497.610	-200.000	0.017	-0.089
-496.595	-200.000	0.012	0.320
-495.581	-46.367	-0.144	-0.072
-494.566	-57.837	-0.125	-0.056
-493.551	-73.305	0.246	-0.092
-492.537	-69.574	-0.214	-0.083
-491.522	5.977	0.296	0.223
-490.508	-14.645	0.208	-0.136
-489.493	800.000	-0.072	-0.286
-488.478	402.024	-0.178	-0.380
-487.464	124.694	0.125	-0.160
-486.449	83.454	-0.224	0.248
-485.435	-113.273	-0.030	-0.006
-484.420	-124.085	0.124	0.020
-483.405	-126.647	-0.316	-0.047
-482.391	211.589	-0.074	-0.118
-481.376	31.236	-0.118	0.102
-480.362	-150.179	0.148	0.012
-479.347	215.920	0.185	0.298
-478.332	79.042	0.042	-0.046
-477.318	267.964	-0.096	-0.172
-476.303	-123.993	0.326	0.052
-475.289	-200.000	0.032	0.166
-474.274	12.520	-0.118	0.092
-473.259	-200.000	0.002	0.088
-472.245	-130.265	-0.418	0.058
-471.230	88.188	0.118	0.133
-470.216	-166.385	0.210	-0.009
-469.201	-97.543	0.389	0.102
-468.186	53.039	0.025	0.024
-467.172	800.000	-0.082	0.286
-466.157	180.321	-0.045	-0.067
-465.143	33.093	-0.069	0.060
-464.128	-135.841	-0.221	0.027
-463.113	289.408	-0.117	-0.216
-462.099	318.894	-0.034	-0.065
-461.084	98.697	0.202	0.237
-460.070	-200.000	0.021	0.382
-459.055	-101.522	0.282	0.070
-458.040	-115.880	0.483	0.092
-457.026	-142.850	-0.319	0.031
-456.011	461.571	-0.112	0.254
-454.997	77.988	0.110	0.119
-453.982	-34.685	-0.146	-0.081
-452.968	-80.096	0.272	-0.093
-451.953	22.130	-0.190	-0.157
-450.938	-140.495	-0.141	-0.015
-449.924	212.302	0.141	0.225
-448.909	-196.437	-0.195	-0.001
-447.895	141.819	-0.139	0.187
-446.880	194.260	0.070	0.108
-445.865	517.943	0.095	0.226
-444.851	-200.000	0.036	0.274
-443.836	216.830	-0.190	-0.307
-442.822	-200.000	-0.040	0.247
-441.807	-36.024	0.170	0.093
-440.792	-141.664	0.398	0.041
-439.778	107.527	-0.160	0.193
-438.763	161.826	0.060	-0.085
-437.749	164.311	0.111	-0.159
-436.734	37.360	0.075	0.067
-435.719	22.910	0.107	-0.089
-434.705	800.000	0.119	0.383
-433.690	-61.334	0.151	-0.064
-432.676	115.794	0.034	-0.042
-431.661	800.000	0.036	-0.154
-430.646	39.882	0.175	-0.159
-429.632	75.803	-0.090	0.096
-428.617	270.624	0.052	-0.093
-427.603	-0.466	0.113	0.081
-426.588	63.481	0.220	-0.223
-425.573	191.045	0.091	0.138
-424.559	-200.000	0.027	0.297
-423.544	109.530	0.137	-0.166
-422.530	164.405	0.084	-0.121
-421.515	-136.951	0.081	0.009
-420.500	319.769	0.123	0.237
-419.486	-30.716	-0.223	0.128
-418.471	-87.832	-0.347	-0.106
-417.457	-51.334	-0.193	-0.091
-416.442	-142.476	-0.149	0.015
-415.428	416.777	-0.072	0.156
-414.413	-51.322	-0.116	0.055
-413.398	-200.000	-0.006	-0.084
-412.384	167.412	0.093	-0.134
-411.369	60.091	-0.121	-0.121
-410.355	15.488	-0.113	0.090
-409.340	61.986	0.066	0.067
-408.325	-200.000	0.031	0.145
-407.311	140.451	-0.079	0.105
-406.296	800.000	0.018	0.060
-405.282	-200.000	-0.013	-0.271
-404.267	-61.267	-0.313	0.133
-403.252	-200.000	0.027	0.370
-402.238	-166.102	0.206	0.009
-401.223	800.000	0.061	0.269
-400.209	-162.724	-0.418	0.021
-399.194	-143.224	0.176	-0.017
-398.179	-14.020	0.398	0.260
-397.165	-200.000	0.022	0.225
-396.150	19.663	-0.220	-0.179
-395.136	125.248	0.088	-0.113
-394.121	62.334	0.181	0.183
-393.106	132.367	0.073	0.095
-392.092	8.025	-0.207	-0.157
-391.077	800.000	-0.114	-0.496
-390.063	-67.765	0.235	-0.093
-389.048	621.322	0.052	0.131
-388.033	76.574	-0.182	0.195
-387.019	-54.047	-0.131	-0.060
-386.004	598.004	-0.053	-0.133
-384.990	-14.055	0.145	-0.095
-383.975	331.362	0.095	0.185
-382.960	91.878	0.071	0.081
-381.946	-183.322	-0.135	-0.002
-380.931	-137.628	0.287	-0.033
-379.917	800.000	0.009	-0.030
-378.902	-75.357	0.130	0.047
-377.888	250.881	-0.188	0.323
-376.873	800.000	-0.038	-0.146
-375.858	800.000	-0.101	-0.349
-374.844	-200.000	0.020	-0.093
-373.829	130.753	-0.156	0.203
-372.815	800.000	-0.069	-0.214
-371.800	12.518	0.074	-0.057
-370.785	-200.000	-0.029	0.231
-369.771	224.629	0.076	0.124
-368.756	-108.110	0.334	-0.073
-367.742	12.016	0.113	-0.088
-366.727	-40.987	-0.240	0.125
-365.712	-200.000	-0.044	0.240
-364.698	-64.459	-0.185	-0.076
-363.683	-200.000	-0.013	-0.106
-362.669	160.033	0.061	-0.086
-361.654	-36.787	-0.324	-0.176
-360.639	86.282	0.126	-0.141
-359.625	228.166	0.127	0.209
-358.610	-21.568	-0.299	-0.184
-357.596	204.122	0.126	-0.197
-356.581	-200.000	0.015	-0.076
-355.566	-107.719	-0.163	-0.036
-354.552	152.232	-0.115	0.159
-353.537	-19.028	-0.028	0.017
-352.523	-106.255	0.207	0.047
-351.508	-41.478	-0.183	0.095
-350.493	115.853	-0.141	0.175
-349.479	566.132	-0.088	0.216
-348.464	-200.000	-0.012	0.123
-347.450	-133.766	0.500	-0.063
-346.435	30.051	-0.210	0.181
-345.420	-19.830	0.061	-0.038
-344.406	-71.433	0.125	0.047
-343.391	800.000	-0.053	-0.187
-342.377	800.000	-0.120	-0.378
-341.362	19.748	-0.365	-0.297
-340.348	799.710	-0.066	-0.184
-339.333	127.456	-0.143	-0.183
-338.318	191.171	0.241	-0.366
-337.304	103.387	0.253	0.300
-336.289	-24.481	-0.325	0.196
-335.275	-44.048	-0.128	-0.065
-334.260	-56.842	-0.080	0.036
-333.245	-20.037	-0.230	-0.143
-332.231	-76.747	0.275	0.097
-331.216	37.024	0.277	-0.247
-330.202	-64.370	0.154	0.063
-329.187	-63.144	0.292	0.122
-328.172	-46.824	0.251	0.124
-327.158	-174.815	0.120	-0.003
-326.143	-1.262	0.278	0.198
-325.129	-92.865	-0.079	-0.022
-324.114	-95.502	0.201	0.054
-323.099	91.455	0.096	-0.109
-322.085	-200.000	-0.030	0.142
-321.070	15.344	-0.199	-0.158
-320.056	-36.006	-0.056	-0.030
-319.041	83.989	-0.049	-0.054
-318.026	-24.886	0.102	-0.061
-317.012	-105.751	0.142	0.032
-315.997	348.662	0.058	-0.115
-314.983	-200.000	-0.012	-0.292
-313.968	21.807	-0.386	0.317
-312.953	-162.273	-0.136	-0.007
-311.939	-200.000	-0.049	0.244
-310.924	-50.097	0.018	0.009
-309.910	-3.436	-0.084	0.059
-308.895	94.063	-0.154	-0.176
-307.880	-200.000	-0.018	0.410
-306.866	66.320	-0.116	0.119
-305.851	-94.180	0.169	0.047
-304.837	800.000	-0.084	0.287
-303.822	139.242	0.009	-0.012
-302.807	-103.453	0.204	0.048
-301.793	-166.622	-0.167	-0.007
-300.778	530.748	-0.122	-0.291
-299.764	-200.000	0.048	-0.401
-298.749	121.608	-0.076	0.096
-297.735	-14.016	0.092	-0.060
-296.720	-77.021	-0.315	0.111
-295.705	154.388	0.127	0.176
-294.691	-84.935	0.194	0.061
-293.676	249.804	0.155	-0.265
-292.662	800.000	0.031	0.136
-291.647	-35.584	0.033	0.018
-290.632	336.745	0.026	-0.051
-289.618	245.772	-0.051	-0.086
-288.603	-156.108	0.187	-0.012
-287.589	800.000	0.018	-0.057
-286.574	-33.874	0.111	0.062
-285.559	57.381	0.063	0.062
-284.545	-62.726	0.218	-0.091
-283.530	-33.552	0.098	-0.055
-282.516	327.458	0.054	-0.104
-281.501	-200.000	-0.008	-0.167
-280.486	-200.000	-0.013	0.078
-279.472	267.360	-0.066	0.116
-278.457	184.802	0.096	0.143
-277.443	800.000	0.109	-0.444
-276.428	44.412	-0.124	0.115
-275.413	800.000	-0.074	0.313
-274.399	27.081	-0.164	-0.138
-273.384	-200.000	0.032	-0.332
-272.370	202.075	0.122	0.190
-271.355	-148.783	-0.066	-0.005
-270.340	155.589	-0.079	-0.109
-269.326	49.571	-0.128	0.122
-268.311	-15.632	0.170	-0.109
-267.297	359.897	0.221	-0.446
-266.282	93.125	-0.242	-0.275
-265.267	-200.000	-0.003	0.196
-264.253	-200.000	-0.017	0.209
-263.238	10.641	-0.202	-0.155
-262.224	-200.000	-0.035	0.295
-261.209	90.254	-0.220	0.248
-260.195	176.613	0.134	-0.196
-259.180	800.000	-0.018	-0.072
-258.165	-14.035	0.236	-0.154
-257.151	7.888	0.176	-0.133
-256.136	-200.000	0.008	-0.144
-255.122	105.828	0.021	0.025
-254.107	-52.900	-0.172	0.080
-253.092	18.029	-0.098	-0.079
-252.078	-121.843	0.292	0.048
-251.063	-153.914	0.068	0.005
-250.049	45.304	-0.251	-0.233
-249.034	-123.733	-0.272	-0.043
-248.019	137.984	0.156	-0.206
-247.005	46.196	0.083	0.077
-245.990	70.428	0.172	0.179
-244.976	-85.783	-0.420	-0.131
-243.961	111.964	0.082	-0.100
-242.946	87.076	-0.041	0.046
-241.932	315.169	-0.042	0.080
-240.917	-88.386	-0.139	0.042
-239.903	93.858	0.122	-0.140
-238.888	194.734	-0.111	0.169
-237.873	-140.676	0.292	-0.030
-236.859	-200.000	0.058	0.278
-235.844	585.617	0.096	-0.238
-234.830	219.669	-0.129	0.208
-233.815	101.467	-0.080	0.094
-232.800	-0.442	-0.191	-0.136
-231.786	63.298	-0.348	0.351
-230.771	122.829	-0.090	0.114
-229.757	-200.000	-0.013	-0.177
-228.742	-200.000	0.035	-0.239
-227.727	-200.000	-0.021	-0.117
-226.713	-21.899	0.173	0.106
-225.698	233.628	-0.090	0.149
-224.684	210.571	-0.163	-0.257
-223.669	-51.831	0.158	0.074
-222.655	-55.822	0.122	0.055
-221.640	-184.957	-0.263	-0.004
-220.625	-9.932	-0.127	-0.085
-219.611	-200.000	-0.080	-0.545
-218.596	-40.911	0.030	-0.016
-217.582	80.250	-0.155	-0.168
-216.567	-30.442	0.061	-0.035
-215.552	-142.532	0.281	-0.028
-214.538	800.000	-0.031	0.136
-213.523	104.657	0.321	-0.381
-212.509	800.000	-0.090	0.318
-211.494	-200.000	0.004	-0.051
-210.479	-14.334	0.222	-0.143
-209.465	-16.121	-0.269	0.172
-208.450	800.000	0.073	0.300
-207.436	-200.000	-0.040	-0.206
-206.421	52.122	0.279	-0.268
-205.406	64.845	0.199	-0.202
-204.392	-200.000	-0.026	0.201
-203.377	129.337	0.073	-0.094
-202.363	-200.000	0.016	-0.237
-201.348	-145.192	-0.104	-0.010
-200.333	-9.877	-0.178	-0.119
-199.319	484.221	0.019	-0.044
-198.304	-10.993	0.081	-0.054
-197.290	-144.433	-0.223	-0.021
-196.275	-200.000	-0.023	-0.379
-195.260	-200.000	0.003	0.499
-194.246	-61.812	-0.239	-0.100
-193.231	-51.964	0.059	0.028
-192.217	143.185	0.097	0.129
-191.202	73.626	-0.089	0.094
-190.187	235.206	-0.105	-0.173
-189.173	-200.000	0.081	-0.408
-188.158	212.228	0.121	0.192
-187.144	5.565	0.024	-0.018
-186.129	-142.667	0.091	-0.009
-185.114	35.022	-0.165	0.145
-184.100	-200.000	0.423	0.000
-183.085	-90.772	0.079	-0.023
-182.071	-200.000	-0.020	0.205
-181.056	-87.184	-0.241	0.074
-180.042	-200.000	-0.015	0.392
-179.027	220.882	0.042	-0.068
-178.012	800.000	-0.049	-0.174
-176.998	222.158	0.218	-0.352
-175.983	104.955	0.073	0.086
-174.969	-133.391	-0.237	0.030
-173.954	-136.034	-0.324	0.038
-172.939	-187.515	0.167	-0.002
-171.925	295.748	0.155	0.284
-170.910	52.520	0.040	0.038
-169.896	-148.016	-0.334	0.028
-168.881	-192.647	0.175	0.002
-167.866	533.163	-0.153	-0.363
-166.852	80.431	0.170	0.183
-165.837	-12.877	0.200	0.130
-164.823	768.339	-0.053	0.145
-163.808	-200.000	-0.080	-0.354
-162.793	-146.124	0.364	0.032
-161.779	-200.000	-0.026	0.142
-160.764	800.000	-0.057	0.163
-159.750	-200.000	0.013	0.088
-158.735	800.000	-0.053	0.224
-157.720	-175.228	0.229	0.006
-156.706	800.000	-0.031	-0.125
-155.691	800.000	-0.042	0.117
-154.677	-94.542	-0.231	-0.063
-153.662	138.155	-0.185	-0.243
-152.647	-200.000	0.019	-0.222
-151.633	32.588	-0.263	0.228
-150.618	-60.841	0.170	0.072
-149.604	98.994	0.247	-0.286
-148.589	-200.000	0.022	0.281
-147.574	96.625	0.173	0.198
-146.560	-88.389	0.186	0.056
-145.545	355.900	-0.040	0.079
-144.531	-190.087	0.200	-0.002
-143.516	-200.000	0.005	0.097
-142.502	427.799	0.018	0.038
-141.487	-115.788	0.471	-0.088
-140.472	122.774	0.048	-0.060
-139.458	183.295	-0.223	0.330
-138.443	26.815	-0.183	-0.153
-137.429	-79.703	0.180	0.061
-136.414	233.032	-0.069	-0.113
-135.399	800.000	0.047	-0.200
-134.385	-200.000	0.015	0.173
-133.370	-200.000	0.068	0.348
-132.356	-200.000	0.015	0.263
-131.341	-200.000	-0.019	-0.116
-130.326	-200.000	0.007	0.175
-129.312	-74.631	-0.224	0.081
-128.297	559.571	0.091	0.219
-127.283	-48.626	0.425	-0.205
-126.268	-119.099	0.386	0.068
-125.253	-46.499	-0.258	-0.127
-124.239	-155.352	0.082	-0.005
-123.224	23.531	0.158	-0.131
-122.210	-200.000	0.034	0.150
-121.195	112.692	0.063	0.076
-120.180	-200.000	0.028	0.150
-119.166	-154.967	-0.138	-0.009
-118.151	800.000	-0.047	-0.157
-117.137	-69.162	-0.169	-0.065
-116.122	172.732	-0.072	-0.104
-115.107	52.760	0.092	0.088
-114.093	35.071	-0.373	0.327
-113.078	800.000	-0.041	0.157
-112.064	-42.712	0.267	-0.136
-111.049	-21.066	-0.178	0.109
-110.034	-161.009	0.327	0.017
-109.020	800.000	0.043	0.162
-108.005	-200.000	-0.028	0.377
-106.991	-200.000	0.045	0.359
-105.976	800.000	0.136	-0.394
-104.962	800.000	0.098	-0.349
-103.947	-5.832	0.276	-0.189
-102.932	800.000	0.010	0.042
-101.918	800.000	0.038	0.128
-100.903	266.781	-0.269	0.470
-99.889	-152.477	0.353	0.025
-98.874	-162.986	0.356	-0.017
-97.859	-58.899	-0.122	0.053
-96.845	-44.825	0.182	-0.091
-95.830	-28.462	0.061	-0.035
-94.816	-65.937	0.347	-0.139
-93.801	209.807	0.109	-0.172
-92.786	-67.589	0.122	-0.048
-91.772	-200.000	0.041	0.202
-90.757	64.030	0.055	0.056
-89.743	-74.720	0.449	-0.161
-88.728	-137.267	0.238	-0.027
-87.713	-45.879	-0.219	0.108
-86.699	-200.000	-0.005	0.249
-85.684	-200.000	-0.012	0.214
-84.670	-200.000	-0.007	-0.358
-83.655	733.491	0.058	-0.155
-82.640	20.947	0.142	-0.115
-81.626	-68.216	-0.135	-0.052
-80.611	-200.000	-0.033	0.312
-79.597	-32.095	0.020	-0.011
-78.582	800.000	0.038	-0.156
-77.567	126.469	-0.153	-0.193
-76.553	800.000	-0.032	-0.132
-75.538	658.509	-0.050	-0.128
-74.524	280.420	0.143	-0.256
-73.509	518.805	0.137	-0.320
-72.494	-57.757	-0.117	-0.051
-71.480	-200.000	-0.033	-0.579
-70.465	0.350	0.172	-0.123
-69.451	141.297	-0.155	-0.205
-68.436	-200.000	-0.007	-0.113
-67.422	-166.636	-0.243	-0.010
-66.407	-110.916	-0.198	-0.041
-65.392	395.498	0.062	-0.130
-64.378	-110.669	-0.288	0.060
-63.363	-200.000	-0.046	-0.280
-62.349	-200.000	0.015	0.174
-61.334	59.576	-0.543	-0.535
-60.319	800.000	-0.076	0.233
-59.305	-200.000	-0.101	-1.062
-58.290	172.624	0.498	0.716
-57.276	179.091	0.935	1.366
-56.261	-200.000	71.344	529.093
-55.246	608.348	1269.865	3164.851
-54.232	147.387	2489.951	3348.054
-53.217	122.274	2239.641	2793.944
-52.203	55.564	1762.479	1704.287
-51.188	47.842	1555.792	1450.711
-50.173	44.734	1525.426	1401.009
-49.159	59.957	1559.157	1537.811
-48.144	67.670	1579.318	1611.043
-47.130	48.002	1543.951	1440.553
-46.115	44.247	1529.046	1400.747
-45.100	44.069	1525.772	1396.470
-44.086	44.089	1523.917	1394.850
-43.071	43.950	1522.000	1392.087
-42.057	44.028	1519.662	1390.432
-41.042	43.983	1518.733	1389.218
-40.027	43.953	1517.331	1387.671
-39.013	43.918	1515.599	1385.791
-37.998	43.978	1513.982	1384.669
-36.984	44.005	1512.853	1383.769
-35.969	44.016	1511.674	1382.710
-34.954	43.974	1510.990	1381.740
-33.940	44.061	1508.784	1380.263
-32.925	44.032	1507.379	1378.722
-31.911	44.075	1505.828	1377.545
-30.896	44.030	1504.476	1375.949
-29.881	44.086	1503.316	1375.208
-28.867	44.044	1501.708	1373.399
-27.852	44.136	1500.213	1372.604
-26.838	44.090	1498.915	1371.046
-25.823	44.026	1497.491	1369.261
-24.809	44.047	1495.372	1367.411
-23.794	44.073	1493.874	1366.158
-22.779	44.064	1492.732	1364.999
-21.765	44.005	1491.882	1363.770
-20.750	44.057	1490.657	1362.947
-19.736	43.980	1489.863	1361.650
-18.721	43.991	1488.245	1360.193
-17.706	44.045	1486.428	1358.843
-16.692	44.011	1485.490	1357.702
-15.677	44.012	1484.610	1356.849
-14.663	43.974	1483.946	1355.936
-13.648	44.037	1482.865	1355.315
-12.633	43.984	1482.380	1354.465
-11.619	44.012	1481.395	1353.695
-10.604	43.900	1480.459	1352.039
-9.590	43.826	1479.821	1350.910
-8.575	43.934	1478.397	1350.273
-7.560	43.865	1477.840	1349.256
-6.546	43.998	1476.731	1349.073
-5.531	43.978	1475.587	1347.838
-4.517	43.984	1474.496	1346.831
-3.502	43.979	1473.652	1345.972
-2.487	43.929	1472.990	1344.983
-1.473	43.973	1471.830	1344.165
-0.458	43.982	1470.216	1342.695
0.556	43.369	1461.052	1332.767
1.571	40.525	1432.853	1288.484
2.586	36.202	1369.603	1204.576
3.600	33.785	1285.750	1116.531
4.615	31.575	1236.958	1061.545
5.629	26.008	1177.872	980.577
6.644	13.123	1084.239	837.623
7.659	3.014	1035.518	750.735
8.673	1.450	1029.363	738.606
9.688	1.207	1026.246	735.128
10.702	1.043	1025.112	733.458
11.717	0.901	1023.459	731.525
12.731	4.889	1028.165	754.156
13.746	15.921	1043.828	819.540
14.761	23.166	1052.554	861.733
15.775	23.665	1053.003	864.456
16.790	23.786	1052.089	864.217
17.804	23.665	1051.233	862.850
18.819	23.509	1050.258	861.215
19.834	23.455	1049.594	860.336
20.848	23.456	1050.089	860.671
21.863	23.544	1048.770	859.937
22.877	23.636	1048.673	860.227
23.892	23.601	1048.201	859.594
24.907	23.494	1047.360	858.314
25.921	23.534	1046.390	857.637
26.936	23.434	1045.803	856.596
27.950	23.580	1044.187	855.901
28.965	23.445	1043.776	854.838
29.980	23.437	1041.823	853.122
30.994	23.415	1040.442	851.810
32.009	23.495	1039.794	851.590
33.023	23.778	1039.271	852.441
34.038	23.400	1038.401	849.842
35.053	23.354	1037.437	848.758
36.067	23.536	1036.881	849.099
37.082	23.571	1036.285	848.704
38.096	23.658	1035.063	848.043
39.111	23.655	1034.508	847.500
40.126	23.888	1033.874	848.014
41.140	23.689	1032.887	846.181
42.155	23.388	1031.185	843.281
43.169	23.180	1029.586	840.911
44.184	23.216	1028.404	840.041
45.199	23.251	1028.096	839.881
46.213	23.244	1027.036	838.906
47.228	23.179	1025.977	837.663
48.242	23.240	1025.609	837.574
49.257	23.344	1024.791	837.326
50.271	23.410	1024.117	837.013
51.286	23.575	1023.266	837.023
52.301	23.635	1022.430	836.548
53.315	23.518	1022.155	835.698
54.330	23.626	1021.133	835.293
55.344	23.429	1020.291	833.604
56.359	23.602	1019.213	833.463
57.374	23.619	1018.434	832.835
58.388	23.457	1017.583	831.301
59.403	23.408	1016.335	829.980
60.417	23.441	1015.684	829.528
61.432	23.238	1015.085	828.019
62.447	23.085	1014.863	827.048
63.461	23.465	1013.756	827.849
64.476	23.317	1013.495	826.869
65.490	23.422	1012.097	826.148
66.505	23.183	1011.308	824.317
67.520	23.118	1010.471	823.260
68.534	23.266	1009.639	823.198
69.549	23.202	1008.563	821.947
70.563	22.832	1007.420	819.228
71.578	22.848	1006.789	818.714
72.593	22.844	1005.917	817.915
73.607	22.754	1004.607	816.362
74.622	22.727	1003.968	815.644
75.636	23.005	1002.977	816.055
76.651	23.105	1002.620	816.151
77.666	23.157	1001.804	815.655
78.680	22.887	1000.635	813.388
79.695	22.959	1000.242	813.329
80.709	23.064	999.648	813.254
81.724	23.147	998.987	813.026
82.739	23.139	998.075	812.178
83.753	23.161	997.089	811.402
84.768	23.522	996.478	812.489
85.782	23.664	996.470	813.058
86.797	23.741	996.172	813.098
87.812	23.907	994.590	812.492
88.826	23.578	993.698	810.188
89.841	23.624	992.987	809.748
90.855	23.730	992.313	809.610
91.870	23.827	991.265	809.127
92.884	23.897	990.199	808.502
93.899	23.669	989.573	806.884
94.914	23.498	988.572	805.221
95.928	23.690	987.797	805.386
96.943	23.761	987.021	805.005
97.957	23.471	985.998	802.785
98.972	23.237	984.941	800.796
99.987	23.114	983.984	799.391
101.001	23.217	983.357	799.279
102.016	23.329	982.963	799.392
103.030	23.417	982.049	798.975
104.045	23.458	980.820	798.089
105.060	23.300	979.388	796.142
106.074	23.145	978.594	794.729
107.089	23.100	977.958	793.942
108.103	23.563	977.141	795.284
109.118	23.525	976.319	794.373
110.133	23.559	974.617	793.074
111.147	23.356	974.400	791.919
112.162	23.150	973.612	790.288
113.176	22.910	972.190	787.990
114.191	23.153	971.028	788.064
115.206	23.325	970.431	788.276
116.220	22.933	969.403	785.627
117.235	22.798	968.247	784.021
118.249	22.910	967.986	784.238
119.264	23.054	966.988	784.000
120.279	22.775	966.316	782.147
121.293	22.783	965.609	781.540
122.308	22.846	965.075	781.318
123.322	22.918	963.953	780.660
124.337	22.987	962.925	780.064
125.352	22.970	961.697	778.926
126.366	22.420	960.301	775.301
127.381	22.109	959.143	772.931
128.395	22.637	958.540	774.699
129.410	23.308	958.090	777.212
130.424	23.473	957.643	777.504
131.439	23.596	956.303	776.884
132.454	23.515	955.212	775.577
133.468	23.478	954.155	774.490
134.483	23.426	953.822	773.924
135.497	23.476	953.401	773.732
136.512	23.660	952.843	774.009
137.527	23.682	952.400	773.677
138.541	23.619	951.709	772.774
139.556	23.674	950.688	772.116
140.570	23.643	949.485	770.936
141.585	23.621	949.043	770.415
142.600	23.682	948.500	770.168
143.614	23.665	947.154	768.933
144.629	23.797	946.907	769.239
145.643	23.971	946.391	769.502
146.658	23.932	945.079	768.201
147.673	23.587	943.872	765.662
148.687	23.587	943.014	764.900
149.702	23.522	941.631	763.430
150.716	23.456	940.517	762.174
151.731	23.437	939.390	761.114
152.746	23.492	938.414	760.492
153.760	23.718	938.253	761.263
154.775	23.709	937.899	760.869
155.789	23.812	936.675	760.247
156.804	23.773	935.714	759.234
157.819	23.802	934.646	758.423
158.833	23.754	933.780	757.449
159.848	23.738	933.332	756.950
160.862	24.111	932.496	757.794
161.877	23.833	931.598	755.816
162.892	23.680	931.020	754.627
163.906	23.794	930.004	754.224
164.921	23.650	929.109	752.822
165.935	23.872	927.942	752.747
166.950	23.793	926.992	751.578
167.964	23.832	926.488	751.264
168.979	23.771	925.385	750.050
169.994	23.704	924.200	748.738
171.008	23.603	922.986	747.263
172.023	23.702	922.449	747.179
173.037	23.900	921.749	747.379
174.052	23.574	921.169	745.474
175.067	23.562	919.860	744.298
176.081	23.372	919.487	743.133
177.096	23.511	918.284	742.679
178.110	23.558	917.540	742.207
179.125	23.374	916.381	740.437
180.140	23.035	915.573	738.300
181.154	23.154	914.825	738.130
182.169	23.198	914.432	737.929
183.183	23.428	914.191	738.630
184.198	23.789	913.701	739.669
185.213	23.777	912.816	738.840
186.227	23.747	911.981	737.973
187.242	23.676	912.001	737.629
188.256	23.784	911.462	737.574
189.271	23.747	910.483	736.565
190.286	23.867	909.841	736.478
191.300	23.848	908.736	735.440
192.315	23.254	907.429	731.862
193.329	22.504	906.069	727.603
194.344	22.034	904.998	724.741
195.359	22.634	905.267	727.368
196.373	23.566	905.232	731.115
197.388	23.835	904.902	731.894
198.402	23.664	904.658	730.927
199.417	23.657	904.108	730.392
200.432	23.707	903.604	730.122
201.446	23.656	902.600	729.039
202.461	23.292	901.837	726.862
203.475	23.327	901.397	726.588
204.490	22.966	899.780	723.743
205.504	21.813	897.955	717.493
206.519	21.997	898.243	718.415
207.534	23.032	898.366	722.684
208.548	23.229	897.515	722.738
209.563	23.573	897.372	723.965
210.577	23.748	896.595	723.988
211.592	23.581	895.104	722.039
212.607	23.884	895.485	723.517
213.621	23.935	895.439	723.621
214.636	24.010	894.073	722.758
215.650	23.833	894.092	721.990
216.665	23.858	892.986	721.135
217.680	23.796	892.998	720.831
218.694	23.915	892.576	720.909
219.709	23.612	891.352	718.631
220.723	23.269	890.446	716.446
221.738	23.294	890.140	716.239
222.753	23.644	889.499	717.075
223.767	23.601	889.411	716.768
224.782	23.653	888.140	715.888
225.796	23.944	887.286	716.306
226.811	24.070	887.253	716.726
227.826	23.666	886.140	714.138
228.840	22.861	884.293	709.352
229.855	22.550	883.738	707.596
230.869	22.974	883.481	709.030
231.884	22.639	882.514	706.849
232.899	22.632	882.079	706.409
233.913	23.537	882.103	709.991
234.928	23.661	882.011	710.349
235.942	23.539	881.088	709.055
236.957	23.666	880.241	708.818
237.972	23.372	879.504	706.991
238.986	23.242	878.453	705.564
240.001	23.249	878.458	705.532
241.015	23.337	877.660	705.181
242.030	23.348	876.956	704.598
243.045	23.529	876.525	704.906
244.059	23.603	876.019	704.730
245.074	23.808	875.568	705.121
246.088	23.860	874.828	704.670
247.103	23.371	873.793	701.833
248.117	23.419	873.438	701.677
249.132	24.089	873.246	704.111
250.147	24.314	873.166	704.876
251.161	24.395	872.995	704.994
252.176	24.671	872.361	705.512
253.190	24.561	871.755	704.522
254.205	24.548	871.248	704.000
255.220	24.625	870.798	703.876
256.234	24.772	869.843	703.623
257.249	24.569	869.049	702.118
258.263	24.477	868.702	701.416
259.278	24.527	867.816	700.834
260.293	24.527	867.559	700.566
261.307	24.582	867.165	700.401
262.322	24.638	866.128	699.719
263.336	24.500	865.479	698.595
264.351	24.083	864.465	696.083
265.366	23.005	862.399	690.151
266.380	22.325	861.671	686.853
267.395	23.340	861.947	690.975
268.409	24.050	862.298	693.966
269.424	24.184	861.118	693.473
270.439	24.094	861.078	693.032
271.453	24.281	860.436	693.178
272.468	24.319	859.741	692.707
273.482	24.468	859.140	692.739
274.497	24.697	858.869	693.348
275.512	24.563	858.046	692.103
276.526	23.874	856.496	688.124
277.541	24.087	856.234	688.677
278.555	24.431	856.017	689.771
279.570	24.361	855.252	688.824
280.585	24.214	854.669	687.726
281.599	24.155	854.265	687.115
282.614	24.306	853.722	687.196
283.628	23.941	852.484	684.735
284.643	23.409	851.901	682.160
285.657	23.865	851.986	683.924
286.672	23.848	851.140	683.117
287.687	23.321	850.077	680.182
288.701	23.525	850.140	680.954
289.716	23.980	849.482	682.110
290.730	23.649	848.744	680.189
291.745	23.556	848.330	679.445
292.760	23.480	847.287	678.257
293.774	23.311	846.553	676.962
294.789	24.121	847.166	680.490
295.803	24.836	847.098	683.107
296.818	24.750	847.222	682.815
297.833	24.834	846.188	682.241
298.847	24.644	845.210	680.670
299.862	24.377	843.801	678.460
300.876	24.368	843.739	678.315
301.891	24.903	843.205	679.859
302.906	24.984	842.561	679.586
303.920	24.590	841.697	677.337
304.935	24.291	841.413	675.913
305.949	24.652	841.164	677.023
306.964	24.910	840.570	677.461
307.979	24.675	839.702	675.814
308.993	24.498	839.227	674.703
310.008	24.850	839.298	676.032
311.022	25.005	838.461	675.882
312.037	24.916	837.919	675.049
313.052	24.650	837.333	673.514
314.066	24.647	836.811	673.024
315.081	23.892	835.357	668.955
316.095	23.196	833.718	664.970
317.110	23.605	834.246	666.869
318.125	24.422	834.359	669.970
319.139	24.221	833.237	668.256
320.154	23.125	831.196	662.456
321.168	22.604	830.411	659.824
322.183	23.221	830.875	662.445
323.197	24.007	831.346	665.701
324.212	24.478	830.964	667.097
325.227	24.555	830.842	667.230
326.241	24.749	830.390	667.532
327.256	24.601	829.313	666.055
328.270	24.380	828.887	664.829
329.285	24.510	828.041	664.578
330.300	24.470	827.213	663.706
331.314	24.029	826.518	661.448
332.329	24.084	826.170	661.317
333.343	24.411	825.850	662.217
334.358	24.847	825.424	663.433
335.373	24.855	824.610	662.747
336.387	24.843	824.271	662.375
337.402	25.082	824.009	662.987
338.416	25.274	823.623	663.330
339.431	25.231	823.391	662.925
340.446	25.210	822.425	662.009
341.460	25.409	822.178	662.489
342.475	25.300	821.598	661.559
343.489	25.130	820.875	660.294
344.504	25.056	820.620	659.756
345.519	25.452	819.734	660.441
346.533	25.647	819.828	661.176
347.548	25.627	819.315	660.632
348.562	25.684	818.909	660.454
349.577	25.561	818.383	659.518
350.592	25.395	818.009	658.553
351.606	25.408	817.333	657.996
352.621	25.467	816.811	657.735
353.635	25.470	816.082	657.100
354.650	25.329	815.635	656.165
355.665	25.057	814.671	654.340
356.679	24.064	813.023	649.341
357.694	23.805	812.591	647.991
358.708	24.494	812.203	650.134
359.723	24.582	811.651	649.955
360.738	24.689	811.699	650.324
361.752	25.029	811.806	651.589
362.767	25.235	811.473	652.015
363.781	25.531	811.121	652.750
364.796	25.814	811.040	653.653
365.810	25.736	810.702	653.040
366.825	25.785	810.053	652.636
367.840	25.924	809.768	652.854
368.854	25.811	808.850	651.645
369.869	25.341	808.593	649.680
370.883	25.165	807.694	648.267
371.898	25.386	806.736	648.238
372.913	25.119	806.294	646.862
373.927	25.262	806.336	647.353
374.942	25.304	805.810	647.025
375.956	25.580	804.943	647.267
376.971	25.470	804.873	646.756
377.986	25.522	804.203	646.347
379.000	25.880	803.431	646.957
380.015	25.985	803.135	647.037
381.029	25.729	802.452	645.512
382.044	25.791	801.425	644.852
383.059	25.905	801.368	645.154
384.073	25.927	800.508	644.485
385.088	25.928	800.256	644.227
386.102	25.848	799.536	643.306
387.117	25.717	799.145	642.467
388.132	25.585	798.541	641.454
389.146	25.557	797.491	640.454
390.161	24.893	796.555	637.284
391.175	24.877	796.633	637.230
392.190	25.446	796.372	638.990
393.205	25.442	796.346	638.898
394.219	24.620	794.606	634.528
395.234	23.143	792.239	627.350
396.248	22.066	791.297	622.733
397.263	23.103	792.038	626.938
398.278	25.104	793.159	634.865
399.292	25.453	793.441	636.268
400.307	25.251	792.479	634.728
401.321	25.081	792.238	633.877
402.336	25.237	792.039	634.213
403.350	25.485	791.514	634.613
404.365	25.974	791.555	636.314
405.380	26.325	791.106	637.134
406.394	26.465	791.289	637.719
407.409	26.525	791.118	637.735
408.423	26.611	790.280	637.306
409.438	26.604	789.619	636.694
410.453	26.603	789.526	636.558
411.467	26.454	789.116	635.647
412.482	26.533	788.471	635.349
413.496	26.480	787.869	634.622
414.511	26.651	787.378	634.769
415.526	26.657	787.279	634.654
416.540	26.577	786.740	633.885
417.555	26.461	786.294	633.065
418.569	26.225	785.898	631.864
419.584	25.992	785.335	630.541
420.599	26.270	784.575	630.843
421.613	83.934	1237.212	1299.936
422.628	71.111	1303.204	1300.083
