DTS Sentinel unit serial number:	SN413079Multiplexer serial number:	ORYXHardware model number:	OX4-SRSoftware version number:	ORYX F/W v4.00 Oryx Data Collector v3.7.2.0data status	okinstallation	princeton_trtdifferential loss correction	single-endedforward channel	channel 3reverse channel	N/Adate	2019/09/10time	18:50:10forward acquisition time	60.00reverse acquisition time	0.00gamma	496.2192k internal	0.2311k external	0.2311temperature offset calibration	0.9912default loss term (dB/km)	0.3790temperature slope calibration	1.0000multiplexer offset coefficient	1.0000multiplexer slope coefficient	1.0000fibre end	0.00T internal ref (°C)	34.98T ext. ref 1 (°C)	-0.37T ext. ref 2 (°C)	27.18length (m)	temperature (°C)	Stokes	anti-Stokes-747.200	-100.877	0.154	-0.038
-746.185	110.079	0.313	0.382
-745.171	201.288	-0.006	-0.010
-744.156	136.808	-0.227	0.302
-743.142	-200.000	0.056	0.287
-742.127	-181.712	-0.053	-0.001
-741.112	-101.386	-0.050	-0.012
-740.098	194.592	0.024	-0.038
-739.083	-78.036	0.317	0.111
-738.069	142.088	0.086	0.115
-737.054	198.659	0.128	0.199
-736.039	-19.201	-0.067	-0.042
-735.025	-200.000	0.033	-0.320
-734.010	80.832	-0.027	-0.029
-732.996	380.570	-0.046	0.095
-731.981	-38.143	-0.091	-0.049
-730.966	109.394	-0.236	0.287
-729.952	-27.717	-0.187	-0.110
-728.937	504.679	0.096	0.224
-727.923	39.720	-0.190	-0.173
-726.908	61.923	-0.134	0.135
-725.894	-200.000	0.013	0.093
-724.879	208.348	0.129	-0.204
-723.864	-95.095	-0.376	-0.103
-722.850	282.617	-0.320	-0.583
-721.835	162.194	0.087	0.124
-720.821	394.668	0.047	-0.099
-719.806	-200.000	0.000	0.092
-718.791	216.924	0.195	0.314
-717.777	800.000	-0.018	0.071
-716.762	-200.000	-0.320	-0.000
-715.748	133.618	-0.209	-0.274
-714.733	180.936	0.010	0.015
-713.718	-49.754	-0.320	0.154
-712.704	-43.071	0.260	-0.133
-711.689	424.472	0.082	0.179
-710.675	-200.000	-0.019	-0.245
-709.660	-200.000	0.017	0.348
-708.645	-200.000	-0.020	0.262
-707.631	-200.000	-0.005	0.059
-706.616	113.342	-0.055	0.067
-705.602	592.727	0.038	-0.096
-704.587	-97.467	-0.116	0.031
-703.572	-53.108	-0.134	-0.063
-702.558	-200.000	0.020	0.349
-701.543	-200.000	0.046	-0.310
-700.529	538.757	0.038	0.090
-699.514	-71.753	-0.148	0.056
-698.499	146.748	0.315	-0.430
-697.485	800.000	0.074	-0.245
-696.470	-45.794	-0.274	-0.137
-695.456	107.866	0.125	-0.150
-694.441	-123.703	0.087	0.014
-693.426	-200.000	-0.050	0.231
-692.412	436.344	-0.062	-0.137
-691.397	222.849	0.026	-0.042
-690.383	93.563	-0.087	0.099
-689.368	-37.969	0.132	0.071
-688.354	-152.511	0.317	-0.023
-687.339	-103.580	0.144	-0.034
-686.324	-53.224	-0.282	-0.131
-685.310	-173.521	-0.224	0.007
-684.295	-75.234	-0.085	-0.031
-683.281	-82.996	-0.252	0.082
-682.266	800.000	0.061	0.195
-681.251	282.222	0.086	-0.156
-680.237	290.822	0.059	0.108
-679.222	149.899	0.097	0.134
-678.208	291.541	-0.104	-0.192
-677.193	75.998	-0.163	-0.174
-676.178	800.000	-0.033	-0.131
-675.164	91.198	0.183	0.208
-674.149	-200.000	0.029	-0.131
-673.135	-200.000	-0.011	-0.074
-672.120	-200.000	0.036	0.301
-671.105	-200.000	0.026	0.127
-670.091	-86.164	0.095	-0.030
-669.076	-200.000	0.017	0.330
-668.062	52.326	0.190	0.184
-667.047	8.341	-0.245	-0.186
-666.032	-76.420	0.169	-0.060
-665.018	-56.979	-0.322	-0.144
-664.003	21.566	0.249	0.205
-662.989	432.989	0.121	0.266
-661.974	-52.597	0.117	0.055
-660.959	-95.869	-0.340	0.092
-659.945	-33.160	-0.153	-0.086
-658.930	800.000	0.121	0.374
-657.916	342.201	-0.151	0.298
-656.901	-200.000	0.050	-0.247
-655.886	-200.000	0.029	-0.162
-654.872	-200.000	-0.008	0.093
-653.857	185.362	-0.130	-0.196
-652.843	57.952	0.153	-0.152
-651.828	120.692	0.057	-0.072
-650.814	-151.230	0.133	-0.010
-649.799	-145.322	0.139	0.013
-648.784	118.601	-0.060	0.075
-647.770	128.271	-0.071	0.092
-646.755	-123.625	-0.205	0.033
-645.741	-87.903	0.215	-0.065
-644.726	-52.633	-0.166	-0.078
-643.711	-66.606	0.069	0.028
-642.697	53.229	0.066	-0.064
-641.682	-200.000	-0.004	0.029
-640.668	129.716	0.117	0.151
-639.653	150.136	0.172	-0.236
-638.638	-200.000	-0.022	0.110
-637.624	-19.184	-0.108	-0.067
-636.609	-197.154	0.297	-0.002
-635.595	-4.378	0.077	0.054
-634.580	243.808	-0.159	0.270
-633.565	712.378	0.039	0.105
-632.551	-200.000	-0.014	-0.073
-631.536	-200.000	0.008	0.059
-630.522	-121.106	-0.134	-0.023
-629.507	-132.750	-0.216	0.028
-628.492	-80.901	-0.131	-0.044
-627.478	86.171	0.186	0.207
-626.463	-30.226	0.087	0.050
-625.449	592.984	-0.113	0.281
-624.434	12.118	-0.235	-0.183
-623.419	-75.041	0.213	-0.077
-622.405	147.462	0.102	0.138
-621.390	691.370	-0.109	-0.287
-620.376	351.684	-0.173	-0.345
-619.361	800.000	-0.071	-0.285
-618.346	59.292	0.177	-0.176
-617.332	-153.914	-0.382	0.026
-616.317	-26.402	0.191	0.113
-615.303	42.310	-0.009	0.008
-614.288	-25.785	0.199	-0.118
-613.273	122.082	0.132	-0.167
-612.259	347.248	-0.054	0.106
-611.244	-15.220	-0.193	-0.125
-610.230	-99.721	-0.168	0.043
-609.215	-145.150	0.254	0.023
-608.201	800.000	0.077	0.283
-607.186	127.671	0.073	-0.094
-606.171	-200.000	0.022	-0.215
-605.157	800.000	-0.021	0.078
-604.142	-200.000	-0.005	-0.303
-603.128	42.685	-0.070	0.064
-602.113	-126.161	-0.103	-0.016
-601.098	-200.000	0.032	-0.299
-600.084	339.261	-0.113	0.223
-599.069	-75.477	-0.300	0.108
-598.055	203.757	0.113	0.176
-597.040	33.241	-0.211	-0.185
-596.025	-7.171	0.171	-0.117
-595.011	-200.000	-0.055	-0.312
-593.996	-87.343	-0.383	-0.117
-592.982	-200.000	0.041	-0.369
-591.967	-200.000	-0.034	-0.367
-590.952	-30.677	-0.316	-0.180
-589.938	144.187	-0.286	0.385
-588.923	-88.236	-0.281	-0.085
-587.909	-135.195	0.405	0.049
-586.894	728.973	0.051	-0.139
-585.879	-87.499	-0.183	0.056
-584.865	217.752	-0.091	0.146
-583.850	-6.049	-0.038	-0.026
-582.836	-148.421	-0.154	0.013
-581.821	-15.862	0.106	0.068
-580.806	21.730	-0.262	0.215
-579.792	-146.670	-0.159	-0.014
-578.777	-178.447	0.305	-0.007
-577.763	66.378	-0.173	0.178
-576.748	-152.438	-0.188	0.014
-575.733	118.056	0.037	-0.046
-574.719	-6.617	-0.145	0.099
-573.704	-46.439	0.044	0.022
-572.690	-38.135	-0.200	-0.107
-571.675	116.990	0.173	-0.215
-570.661	301.457	-0.203	0.379
-569.646	-100.238	0.079	0.020
-568.631	-102.660	-0.284	-0.068
-567.617	8.034	-0.328	0.248
-566.602	-200.000	-0.006	-0.152
-565.588	101.444	0.159	0.187
-564.573	91.436	0.208	0.235
-563.558	33.897	-0.176	0.154
-562.544	-34.733	-0.098	-0.054
-561.529	800.000	0.049	-0.141
-560.515	-85.072	0.130	0.041
-559.500	-107.276	0.112	-0.025
-558.485	594.242	-0.138	-0.345
-557.471	152.189	-0.197	0.271
-556.456	-200.000	0.021	0.520
-555.442	80.110	-0.164	-0.178
-554.427	-173.854	-0.120	-0.004
-553.412	-116.453	0.171	-0.032
-552.398	-116.068	-0.153	0.029
-551.383	36.477	-0.329	-0.292
-550.369	57.114	-0.109	-0.107
-549.354	34.934	0.113	0.100
-548.339	-200.000	0.013	-0.080
-547.325	800.000	0.090	-0.258
-546.310	520.743	0.086	-0.204
-545.296	239.809	0.068	-0.114
-544.281	-200.000	-0.023	-0.231
-543.266	-200.000	0.005	-0.031
-542.252	55.436	-0.099	-0.096
-541.237	-200.000	-0.008	-0.077
-540.223	-97.457	0.061	-0.016
-539.208	800.000	-0.012	-0.034
-538.193	-180.951	-0.352	-0.007
-537.179	125.120	0.075	-0.095
-536.164	374.835	-0.098	-0.202
-535.150	-200.000	-0.018	0.196
-534.135	31.009	0.002	-0.002
-533.121	-75.169	0.129	0.046
-532.106	800.000	-0.058	-0.192
-531.091	555.909	0.093	-0.226
-530.077	-57.613	-0.055	-0.024
-529.062	-29.949	0.274	-0.157
-528.048	-9.005	-0.252	-0.170
-527.033	13.547	0.279	-0.218
-526.018	-6.339	0.211	0.145
-525.004	-200.000	0.019	-0.114
-523.989	-145.281	0.461	0.042
-522.975	-43.131	0.171	-0.087
-521.960	800.000	0.077	0.265
-520.945	253.945	-0.165	-0.284
-519.931	800.000	0.045	0.181
-518.916	63.110	-0.037	0.037
-517.902	7.228	0.139	0.104
-516.887	800.000	0.058	-0.223
-515.872	-3.430	0.121	-0.085
-514.858	-200.000	0.003	-0.157
-513.843	800.000	-0.070	-0.219
-512.829	-42.043	0.386	-0.199
-511.814	-20.607	-0.174	-0.107
-510.799	623.369	-0.149	0.378
-509.785	800.000	0.108	0.428
-508.770	133.444	0.047	-0.061
-507.756	654.434	-0.074	-0.192
-506.741	178.996	0.142	-0.208
-505.726	-200.000	0.001	-0.384
-504.712	33.009	-0.316	0.275
-503.697	-66.410	0.136	-0.054
-502.683	800.000	-0.045	0.180
-501.668	-200.000	0.005	0.101
-500.653	-200.000	-0.020	-0.099
-499.639	55.217	0.223	-0.217
-498.624	-53.592	-0.079	-0.036
-497.610	-150.690	-0.302	0.023
-496.595	-200.000	0.052	0.265
-495.581	-163.320	-0.117	0.006
-494.566	28.175	0.307	-0.260
-493.551	214.869	0.026	-0.042
-492.537	327.599	-0.203	0.392
-491.522	800.000	-0.112	0.402
-490.508	-200.000	-0.025	-0.543
-489.493	113.730	0.045	-0.055
-488.478	22.616	0.177	0.146
-487.464	-89.570	-0.238	0.070
-486.449	-79.129	-0.144	0.049
-485.435	-88.965	0.191	-0.057
-484.420	285.290	-0.147	0.267
-483.405	-200.000	-0.009	-0.217
-482.391	482.856	0.038	0.086
-481.376	120.143	0.157	0.196
-480.362	-121.883	-0.203	0.034
-479.347	-200.000	-0.002	-0.183
-478.332	58.611	0.076	0.075
-477.318	13.864	-0.147	0.114
-476.303	31.622	0.250	0.216
-475.289	-131.618	-0.081	-0.011
-474.274	-125.959	-0.362	0.055
-473.259	-150.894	0.191	-0.015
-472.245	138.995	0.160	-0.211
-471.230	800.000	0.041	0.138
-470.216	-200.000	0.023	-0.112
-469.201	186.584	0.079	-0.119
-468.186	12.876	-0.255	0.198
-467.172	-141.575	-0.009	0.001
-466.157	-122.325	0.366	0.060
-465.143	119.979	-0.168	-0.209
-464.128	51.099	-0.100	0.095
-463.113	-149.684	0.201	-0.016
-462.099	-16.879	0.444	-0.281
-461.084	-200.000	-0.062	0.505
-460.070	-63.591	0.131	0.054
-459.055	165.920	-0.061	0.087
-458.040	449.707	0.091	-0.201
-457.026	-185.500	0.144	0.002
-456.011	-136.757	-0.188	0.022
-454.997	17.592	0.279	0.223
-453.982	-63.295	-0.382	0.158
-452.968	-159.645	0.224	0.012
-451.953	504.944	0.069	-0.161
-450.938	-72.325	0.144	-0.053
-449.924	307.389	-0.071	-0.133
-448.909	-43.829	0.061	-0.031
-447.895	503.625	0.081	-0.189
-446.880	272.692	-0.102	-0.180
-445.865	178.018	-0.066	0.096
-444.851	101.981	0.179	0.210
-443.836	-128.827	-0.475	0.067
-442.822	222.616	-0.079	-0.128
-441.807	-200.000	0.022	0.131
-440.792	-200.000	-0.021	-0.095
-439.778	800.000	0.042	-0.140
-438.763	-200.000	-0.045	-0.358
-437.749	-3.484	-0.194	-0.135
-436.734	800.000	0.052	-0.171
-435.719	-150.961	0.253	0.019
-434.705	-34.040	0.068	-0.037
-433.690	5.752	0.142	0.105
-432.676	230.057	-0.078	0.127
-431.661	-200.000	0.015	-0.094
-430.646	-32.471	-0.282	0.158
-429.632	800.000	-0.011	-0.030
-428.617	613.697	0.187	0.468
-427.603	-149.320	0.256	-0.020
-426.588	-200.000	0.038	0.177
-425.573	-0.769	0.264	0.187
-424.559	438.341	0.166	-0.362
-423.544	-200.000	0.000	-0.159
-422.530	205.578	0.205	-0.319
-421.515	34.420	0.259	-0.226
-420.500	136.520	0.310	-0.405
-419.486	-0.715	-0.055	-0.039
-418.471	155.989	-0.061	-0.084
-417.457	-18.286	-0.081	-0.051
-416.442	800.000	0.140	0.405
-415.428	-200.000	-0.035	0.221
-414.413	220.599	0.100	0.160
-413.398	186.677	0.274	0.409
-412.384	800.000	0.051	0.174
-411.369	-200.000	-0.008	0.258
-410.355	-118.556	-0.127	0.023
-409.340	-200.000	-0.062	0.274
-408.325	20.416	-0.175	-0.141
-407.311	-52.784	-0.008	0.004
-406.296	-79.595	0.285	0.097
-405.282	33.067	-0.024	-0.021
-404.267	800.000	-0.099	-0.418
-403.252	509.256	-0.038	0.088
-402.238	12.877	-0.359	-0.278
-401.223	595.364	-0.056	0.140
-400.209	-59.497	0.257	0.111
-399.194	-144.094	-0.245	-0.023
-398.179	-116.316	-0.162	0.030
-397.165	224.504	-0.111	-0.180
-396.150	-162.526	-0.276	-0.014
-395.136	-95.637	0.097	0.026
-394.121	-200.000	-0.075	-0.414
-393.106	121.299	-0.127	0.158
-392.092	800.000	0.019	-0.069
-391.077	-104.627	-0.126	0.029
-390.063	-140.381	0.095	0.010
-389.048	-120.019	0.155	-0.027
-388.033	20.955	0.183	0.148
-387.019	58.913	-0.189	0.186
-386.004	800.000	-0.066	-0.188
-384.990	135.884	-0.057	0.074
-383.975	50.854	-0.307	0.291
-382.960	-86.517	0.221	0.068
-381.946	-200.000	-0.025	-0.188
-380.931	-86.556	-0.368	-0.113
-379.917	-200.000	-0.009	0.071
-378.902	800.000	0.036	-0.149
-377.888	-133.195	0.170	0.021
-376.873	-200.000	0.003	0.284
-375.858	-170.146	-0.117	0.004
-374.844	-96.792	-0.117	0.031
-373.829	-135.488	-0.357	-0.043
-372.815	31.435	0.294	0.253
-371.800	-54.759	0.149	-0.067
-370.785	153.575	0.113	0.154
-369.771	122.167	0.160	-0.200
-368.756	-103.680	-0.028	0.007
-367.742	166.413	0.066	0.094
-366.727	-109.241	-0.079	-0.017
-365.712	-35.985	0.253	-0.137
-364.698	607.924	0.143	0.357
-363.683	-105.119	0.187	-0.043
-362.669	-46.150	0.185	0.091
-361.654	-70.460	-0.174	-0.066
-360.639	211.488	0.100	-0.158
-359.625	-61.743	0.336	0.141
-358.610	437.181	0.056	0.121
-357.596	59.381	0.190	-0.188
-356.581	-93.259	-0.378	-0.105
-355.566	-74.241	0.274	0.099
-354.552	-120.288	0.072	0.012
-353.537	800.000	0.011	-0.038
-352.523	405.533	-0.110	0.233
-351.508	-200.000	0.011	-0.133
-350.493	160.547	-0.081	-0.114
-349.479	-115.924	0.444	-0.083
-348.464	-56.864	0.214	-0.094
-347.450	-104.795	-0.199	0.046
-346.435	-97.051	0.124	-0.032
-345.420	-99.801	-0.344	-0.086
-344.406	201.940	-0.153	-0.237
-343.391	-80.272	-0.078	-0.026
-342.377	233.257	-0.246	-0.404
-341.362	-92.445	0.073	-0.021
-340.348	-200.000	-0.023	-0.193
-339.333	-45.332	-0.237	0.117
-338.318	264.786	0.141	-0.245
-337.304	-45.609	0.301	0.149
-336.289	-200.000	-0.026	0.402
-335.275	29.299	0.142	0.121
-334.260	-95.451	-0.214	0.057
-333.245	-22.435	0.154	0.093
-332.231	331.018	-0.229	-0.440
-331.216	-72.882	0.153	0.056
-330.202	-200.000	-0.007	-0.288
-329.187	-117.789	-0.354	0.063
-328.172	-19.070	0.128	-0.080
-327.158	-140.853	-0.253	-0.026
-326.143	-55.762	-0.209	0.093
-325.129	212.504	0.114	-0.180
-324.114	-200.000	0.027	0.156
-323.099	213.570	-0.087	-0.138
-322.085	10.110	-0.244	0.185
-321.070	-6.966	0.108	-0.073
-320.056	-200.000	-0.034	0.170
-319.041	475.694	-0.106	0.240
-318.026	139.539	-0.050	0.066
-317.012	-107.753	0.293	0.064
-315.997	-200.000	-0.006	0.050
-314.983	-200.000	-0.035	0.219
-313.968	-200.000	-0.032	-0.155
-312.953	-161.780	-0.155	-0.008
-311.939	-156.891	0.160	0.010
-310.924	-3.225	0.089	0.062
-309.910	306.359	-0.090	0.166
-308.895	-123.132	-0.320	0.051
-307.880	-200.000	-0.016	0.104
-306.866	-104.900	-0.146	-0.033
-305.851	-200.000	-0.001	0.099
-304.837	443.032	0.116	0.253
-303.822	35.595	-0.110	-0.097
-302.807	399.815	0.008	0.016
-301.793	-110.567	0.270	0.056
-300.778	704.516	0.069	0.181
-299.764	-126.522	-0.218	0.032
-298.749	-8.064	-0.279	0.188
-297.735	1.310	-0.101	0.072
-296.720	183.068	0.136	0.200
-295.705	-80.056	0.194	-0.065
-294.691	-158.064	0.384	0.023
-293.676	118.766	-0.040	-0.050
-292.662	33.239	-0.058	0.051
-291.647	-140.788	0.244	0.025
-290.632	-0.859	0.258	-0.182
-289.618	10.902	-0.032	0.024
-288.603	-100.541	0.168	0.042
-287.589	327.289	0.032	0.061
-286.574	-200.000	-0.017	-0.240
-285.559	-200.000	0.006	-0.060
-284.545	98.786	-0.160	0.184
-283.530	-133.263	0.052	0.007
-282.516	34.479	-0.415	-0.361
-281.501	502.894	0.096	0.222
-280.486	-67.178	0.092	0.036
-279.472	49.907	0.238	0.224
-278.457	-83.304	0.205	0.066
-277.443	14.650	-0.263	-0.205
-276.428	-71.834	-0.343	-0.127
-275.413	-79.649	-0.178	0.060
-274.399	-151.997	0.243	-0.018
-273.384	258.079	-0.223	-0.383
-272.370	102.566	-0.166	0.194
-271.355	-101.715	-0.322	0.078
-270.340	-61.570	0.373	-0.156
-269.326	-65.441	0.137	0.055
-268.311	-90.011	-0.150	-0.044
-267.297	-133.271	0.324	-0.041
-266.282	52.306	-0.047	-0.045
-265.267	-200.000	0.030	0.132
-264.253	-200.000	0.035	0.238
-263.238	-138.208	-0.274	0.030
-262.224	800.000	-0.103	0.358
-261.209	-200.000	0.020	-0.205
-260.195	-150.692	-0.211	-0.016
-259.180	800.000	0.112	-0.310
-258.165	-43.629	-0.278	0.140
-257.151	-81.104	-0.189	0.062
-256.136	-136.084	-0.368	-0.043
-255.122	140.217	0.071	-0.093
-254.107	13.498	0.153	0.119
-253.092	-55.073	-0.181	0.081
-252.078	-100.512	-0.379	-0.093
-251.063	13.373	-0.179	-0.138
-250.049	35.545	-0.186	-0.163
-249.034	-109.897	0.122	0.026
-248.019	282.554	0.149	-0.267
-247.005	-46.453	-0.039	0.019
-245.990	800.000	0.073	0.273
-244.976	82.120	0.326	-0.351
-243.961	1.814	0.228	-0.164
-242.946	-125.284	0.230	-0.035
-241.932	-200.000	0.031	0.136
-240.917	-88.361	-0.340	-0.101
-239.903	-100.690	0.193	-0.047
-238.888	648.141	0.109	0.278
-237.873	-10.452	0.232	0.153
-236.859	-167.688	0.143	0.006
-235.844	-30.431	0.236	0.133
-234.830	87.153	-0.209	0.230
-233.815	-200.000	0.013	-0.191
-232.800	-52.700	0.105	-0.048
-231.786	-30.431	-0.084	-0.048
-230.771	-200.000	-0.008	0.144
-229.757	29.929	-0.196	0.166
-228.742	109.162	0.171	0.204
-227.727	-200.000	0.030	0.220
-226.713	63.892	0.267	-0.267
-225.698	60.013	-0.018	0.018
-224.684	503.565	0.055	-0.126
-223.669	800.000	-0.045	0.136
-222.655	-200.000	-0.018	0.175
-221.640	-200.000	0.008	0.052
-220.625	-200.000	-0.010	-0.085
-219.611	-200.000	-0.001	0.128
-218.596	800.000	0.081	-0.235
-217.582	66.365	0.129	-0.131
-216.567	-200.000	-0.013	-0.324
-215.552	-122.520	0.264	0.043
-214.538	-12.989	0.240	-0.155
-213.523	140.462	0.064	-0.084
-212.509	-47.442	-0.170	0.082
-211.494	-36.199	-0.147	-0.079
-210.479	250.148	0.184	0.310
-209.465	-200.000	-0.016	0.219
-208.450	-74.038	-0.165	0.059
-207.436	313.611	0.131	0.245
-206.421	280.321	0.064	0.113
-205.406	29.348	0.098	-0.083
-204.392	-200.000	0.035	0.186
-203.377	-63.276	0.114	0.047
-202.363	-81.397	-0.293	0.096
-201.348	331.410	0.052	0.099
-200.333	-8.243	-0.147	0.099
-199.319	375.701	-0.079	-0.160
-198.304	-82.340	0.102	0.033
-197.290	-200.000	-0.229	0.000
-196.275	800.000	0.057	-0.164
-195.260	800.000	0.050	0.207
-194.246	308.199	0.094	0.175
-193.231	-200.000	0.046	0.309
-192.217	27.292	-0.231	-0.192
-191.202	-102.863	0.377	0.089
-190.187	-55.512	-0.088	0.039
-189.173	59.716	0.150	-0.147
-188.158	800.000	-0.086	0.321
-187.144	48.814	0.076	-0.071
-186.129	42.407	0.112	-0.101
-185.114	-85.155	0.074	-0.023
-184.100	264.778	0.205	0.355
-183.085	-150.170	0.168	-0.013
-182.071	215.928	0.182	-0.286
-181.056	219.816	-0.062	0.098
-180.042	331.834	0.175	0.334
-179.027	178.213	-0.174	0.252
-178.012	-48.993	-0.097	-0.046
-176.998	-144.305	0.151	-0.014
-175.983	-136.880	0.251	-0.029
-174.969	-65.479	-0.269	0.107
-173.954	303.093	-0.109	0.200
-172.939	-200.000	0.020	-0.174
-171.925	-34.545	-0.136	-0.074
-170.910	28.731	-0.172	0.145
-169.896	-97.855	0.270	0.069
-168.881	-200.000	-0.009	-0.183
-167.866	-77.356	-0.086	0.030
-166.852	-200.000	0.013	0.166
-165.837	-200.000	-0.027	-0.268
-164.823	-200.000	0.053	0.232
-163.808	-200.000	-0.037	-0.283
-162.793	-136.991	0.118	-0.013
-161.779	368.949	0.216	-0.434
-160.764	-62.192	-0.200	0.083
-159.750	32.137	0.062	-0.053
-158.735	-75.643	0.076	-0.027
-157.720	-200.000	-0.017	0.079
-156.706	-200.000	-0.010	-0.043
-155.691	-119.267	-0.206	-0.036
-154.677	324.515	-0.049	-0.093
-153.662	-93.268	-0.104	-0.029
-152.647	-191.502	-0.047	-0.000
-151.633	-180.458	0.130	0.003
-150.618	-11.521	0.235	-0.154
-149.604	-94.603	0.183	-0.049
-148.589	184.761	0.183	-0.269
-147.574	800.000	0.084	-0.320
-146.560	164.735	0.143	-0.201
-145.545	800.000	-0.025	-0.098
-144.531	800.000	0.064	0.265
-143.516	-60.951	-0.124	0.052
-142.502	108.704	-0.175	0.207
-141.487	328.200	-0.125	0.237
-140.472	-146.599	0.712	-0.061
-139.458	-101.167	-0.071	-0.017
-138.443	217.296	0.049	-0.077
-137.429	556.266	-0.033	0.079
-136.414	325.945	-0.103	0.195
-135.399	-36.123	0.096	-0.052
-134.385	209.431	0.227	-0.352
-133.370	-143.893	-0.413	-0.039
-132.356	94.911	0.256	0.289
-131.341	64.470	0.113	0.113
-130.326	-121.791	0.402	0.066
-129.312	247.606	0.133	0.222
-128.297	-167.830	-0.240	-0.009
-127.283	-200.000	-0.003	0.088
-126.268	800.000	0.119	-0.336
-125.253	315.116	0.031	0.058
-124.239	-53.623	-0.132	-0.060
-123.224	435.268	-0.045	0.097
-122.210	-121.702	0.260	0.043
-121.195	-41.753	-0.078	-0.039
-120.180	-74.377	-0.428	-0.153
-119.166	-104.051	0.191	-0.044
-118.151	-47.324	-0.285	0.137
-117.137	418.980	0.111	-0.235
-116.122	180.930	0.053	-0.077
-115.107	-100.900	0.289	-0.070
-114.093	413.986	0.048	0.101
-113.078	-95.539	0.299	0.079
-112.064	-90.816	-0.144	0.041
-111.049	-200.000	0.018	0.112
-110.034	87.812	-0.068	0.075
-109.020	43.310	0.265	0.240
-108.005	-200.000	-0.023	0.517
-106.991	-200.000	-0.002	-0.014
-105.976	45.832	0.178	0.163
-104.962	162.473	-0.233	-0.324
-103.947	12.294	-0.066	0.051
-102.932	800.000	0.074	0.213
-101.918	-40.908	-0.109	0.056
-100.903	800.000	0.090	0.319
-99.889	800.000	0.060	0.168
-98.874	71.053	-0.217	-0.222
-97.859	768.516	0.053	-0.143
-96.845	59.810	-0.246	0.241
-95.830	-194.228	-0.273	0.002
-94.816	-8.669	-0.061	0.040
-93.801	800.000	0.105	0.363
-92.786	-108.067	0.299	0.064
-91.772	55.705	-0.156	0.149
-90.757	203.722	-0.234	0.358
-89.743	645.816	-0.035	-0.088
-88.728	35.457	-0.262	-0.227
-87.713	4.505	-0.090	-0.065
-86.699	-6.807	-0.199	-0.134
-85.684	-42.951	0.299	0.150
-84.670	284.175	-0.090	0.160
-83.655	-200.000	-0.037	0.203
-82.640	-139.498	-0.104	-0.011
-81.626	36.772	-0.013	-0.011
-80.611	-200.000	-0.032	-0.314
-79.597	-200.000	-0.008	-0.085
-78.582	-200.000	-0.018	0.123
-77.567	-17.077	0.354	-0.221
-76.553	309.170	0.174	-0.321
-75.538	-200.000	0.002	-0.179
-74.524	54.111	-0.216	0.206
-73.509	-11.718	-0.200	0.130
-72.494	194.168	0.044	-0.066
-71.480	-200.000	-0.016	0.294
-70.465	-200.000	-0.000	0.107
-69.451	800.000	-0.128	-0.499
-68.436	-176.139	0.348	0.009
-67.422	-97.739	0.059	-0.015
-66.407	-200.000	-0.005	-0.039
-65.392	509.134	0.217	0.497
-64.378	244.565	0.015	0.025
-63.363	-28.790	0.058	0.033
-62.349	-200.000	0.090	0.438
-61.334	119.157	-0.926	-1.133
-60.319	50.649	0.402	0.376
-59.305	800.000	-0.294	-1.069
-58.290	203.087	0.693	1.058
-57.276	465.714	0.718	1.590
-56.261	-200.000	100.229	576.163
-55.246	600.040	1411.217	3461.615
-54.232	182.017	2637.311	3838.548
-53.217	119.042	2211.746	2702.082
-52.203	45.372	1741.136	1587.409
-51.188	38.142	1550.695	1363.489
-50.173	35.697	1522.533	1321.888
-49.159	54.202	1575.008	1497.399
-48.144	57.867	1593.415	1540.476
-47.130	38.388	1547.500	1362.178
-46.115	35.237	1531.984	1326.698
-45.100	35.071	1528.533	1322.508
-44.086	34.985	1527.098	1320.623
-43.071	34.963	1525.033	1318.630
-42.057	34.860	1523.880	1316.873
-41.042	34.868	1522.548	1315.725
-40.027	34.901	1520.608	1314.225
-39.013	34.918	1519.218	1313.086
-37.998	34.995	1517.873	1312.400
-36.984	35.034	1516.272	1311.227
-35.969	34.954	1515.309	1309.798
-34.954	35.068	1513.566	1309.022
-33.940	34.944	1512.230	1306.968
-32.925	35.132	1510.589	1306.780
-31.911	34.951	1509.775	1304.789
-30.896	35.020	1508.128	1303.779
-29.881	35.021	1506.809	1302.596
-28.867	34.983	1505.650	1301.286
-27.852	35.004	1504.283	1300.191
-26.838	35.033	1502.365	1298.682
-25.823	35.014	1500.941	1297.270
-24.809	35.037	1499.531	1296.155
-23.794	35.060	1498.208	1295.116
-22.779	35.053	1496.940	1293.919
-21.765	34.941	1496.194	1292.471
-20.750	35.055	1494.700	1291.896
-19.736	34.921	1494.063	1290.392
-18.721	34.942	1492.838	1289.423
-17.706	34.982	1491.665	1288.630
-16.692	34.957	1490.219	1287.158
-15.677	34.942	1489.761	1286.609
-14.663	34.854	1488.517	1284.896
-13.648	34.857	1487.781	1284.230
-12.633	35.008	1486.180	1283.809
-11.619	34.972	1485.400	1282.843
-10.604	34.987	1484.667	1282.262
-9.590	34.941	1484.423	1281.689
-8.575	35.030	1483.100	1281.089
-7.560	35.007	1482.424	1280.304
-6.546	35.131	1481.166	1279.997
-5.531	34.967	1480.019	1277.857
-4.517	35.039	1479.239	1277.614
-3.502	35.011	1478.769	1276.971
-2.487	34.909	1477.784	1275.387
-1.473	34.870	1476.711	1274.152
-0.458	34.884	1475.101	1272.805
0.556	32.308	1464.964	1260.020
1.571	28.679	1436.960	1211.925
2.586	24.484	1371.549	1130.159
3.600	22.378	1287.565	1048.333
4.615	21.087	1241.736	1003.508
5.629	17.912	1186.008	940.916
6.644	8.700	1099.212	824.719
7.659	0.924	1056.658	754.101
8.673	-0.131	1050.349	744.305
9.688	-0.376	1047.513	741.021
10.702	-0.471	1046.121	739.500
11.717	-0.502	1044.260	737.967
12.731	2.576	1047.501	755.384
13.746	11.533	1060.574	809.296
14.761	17.557	1068.213	845.028
15.775	17.776	1067.269	845.295
16.790	17.526	1066.409	843.301
17.804	17.266	1065.560	841.266
18.819	17.064	1064.288	839.189
19.834	17.157	1063.993	839.343
20.848	17.165	1063.135	838.629
21.863	17.087	1062.845	837.944
22.877	16.953	1062.574	836.994
23.892	17.043	1061.525	836.538
24.907	17.007	1060.622	835.575
25.921	16.990	1060.447	835.278
26.936	17.167	1058.829	834.801
27.950	17.064	1058.765	834.168
28.965	17.144	1056.698	832.857
29.980	16.944	1055.523	830.879
30.994	16.861	1053.749	829.005
32.009	17.065	1052.528	828.965
33.023	17.224	1052.237	829.439
34.038	16.992	1050.658	826.991
35.053	16.920	1049.979	826.031
36.067	17.107	1049.233	826.286
37.082	17.176	1048.120	825.668
38.096	17.243	1047.614	825.524
39.111	17.236	1047.040	824.965
40.126	17.356	1045.765	824.470
41.140	17.256	1044.643	823.026
42.155	17.205	1042.778	821.236
43.169	16.842	1042.136	818.906
44.184	17.076	1040.162	818.411
45.199	16.915	1039.486	817.031
46.213	16.936	1038.221	816.065
47.228	16.811	1037.409	814.756
48.242	16.850	1035.987	813.751
49.257	16.852	1035.310	813.155
50.271	16.807	1034.939	812.578
51.286	17.024	1033.427	812.358
52.301	17.104	1032.563	811.990
53.315	16.880	1031.807	810.252
54.330	17.081	1030.751	810.314
55.344	17.123	1029.843	809.727
56.359	17.173	1028.273	808.659
57.374	17.153	1027.737	808.072
58.388	16.928	1027.126	806.450
59.403	16.926	1025.851	805.366
60.417	17.102	1025.264	805.669
61.432	16.902	1024.448	804.011
62.447	16.973	1023.262	803.342
63.461	16.933	1023.047	802.913
64.476	17.107	1022.146	802.960
65.490	17.123	1021.039	802.092
66.505	16.992	1020.193	800.738
67.520	16.900	1019.273	799.511
68.534	16.995	1018.286	799.118
69.549	16.947	1017.240	797.999
70.563	16.774	1016.326	796.398
71.578	16.747	1015.525	795.575
72.593	16.699	1014.803	794.709
73.607	16.618	1013.387	793.151
74.622	16.577	1012.558	792.240
75.636	16.793	1012.186	792.890
76.651	16.937	1011.205	792.726
77.666	16.942	1009.775	791.557
78.680	16.800	1008.997	790.214
79.695	16.752	1008.936	789.873
80.709	16.949	1008.071	790.044
81.724	17.062	1006.884	789.569
82.739	16.835	1006.360	788.036
83.753	16.937	1005.214	787.541
84.768	17.068	1004.647	787.635
85.782	17.216	1003.654	787.474
86.797	17.214	1002.975	786.862
87.812	17.180	1002.039	785.901
88.826	17.159	1000.864	784.814
89.841	17.090	1000.358	784.025
90.855	17.206	999.625	783.919
91.870	17.290	998.566	783.407
92.884	17.298	997.681	782.677
93.899	17.187	996.920	781.503
94.914	17.161	995.461	780.170
95.928	17.223	995.326	780.282
96.943	17.173	994.250	779.136
97.957	16.973	993.607	777.646
98.972	16.859	992.215	775.968
99.987	16.613	990.996	773.819
101.001	16.628	990.631	773.538
102.016	16.971	989.526	774.169
103.030	17.037	988.937	773.941
104.045	16.936	988.008	772.687
105.060	16.799	986.032	770.448
106.074	16.696	984.848	768.987
107.089	16.748	984.461	768.857
108.103	17.073	984.084	769.965
109.118	17.246	982.996	769.832
110.133	16.900	982.069	767.472
111.147	17.067	981.145	767.437
112.162	17.051	979.975	766.380
113.176	16.784	978.756	764.154
114.191	16.875	977.916	763.843
115.206	16.923	977.259	763.476
116.220	16.675	975.774	761.135
117.235	16.551	974.875	759.810
118.249	16.842	973.649	760.091
119.264	16.845	972.975	759.510
120.279	16.860	971.950	758.712
121.293	16.900	971.334	758.342
122.308	16.869	970.770	757.696
123.322	16.922	969.847	757.147
124.337	16.931	968.702	756.227
125.352	16.908	966.991	754.722
126.366	16.509	965.139	751.433
127.381	16.228	963.926	749.179
128.395	16.595	963.659	750.532
129.410	17.214	962.424	752.246
130.424	17.176	961.940	751.630
131.439	17.259	960.595	750.880
132.454	17.127	959.633	749.479
133.468	17.006	959.089	748.453
134.483	17.033	958.307	747.896
135.497	17.009	957.677	747.233
136.512	17.252	956.486	747.306
137.527	17.348	955.945	747.241
138.541	17.423	954.459	746.340
139.556	17.252	954.455	745.523
140.570	17.282	953.335	744.712
141.585	17.381	952.314	744.281
142.600	17.352	951.636	743.559
143.614	17.261	950.348	742.091
144.629	17.443	949.629	742.258
145.643	17.530	949.145	742.195
146.658	17.433	948.209	740.974
147.673	17.375	946.901	739.635
148.687	17.300	946.044	738.572
149.702	17.158	945.090	737.146
150.716	17.254	943.508	736.264
151.731	17.236	942.888	735.638
152.746	17.198	942.214	734.883
153.760	17.367	941.635	735.096
154.775	17.449	940.892	734.804
155.789	17.483	940.018	734.203
156.804	17.390	939.344	733.213
157.819	17.226	937.991	731.383
158.833	17.392	937.125	731.359
159.848	17.477	936.495	731.164
160.862	17.594	935.580	730.890
161.877	17.379	934.556	729.104
162.892	17.382	933.902	728.543
163.906	17.542	933.041	728.492
164.921	17.424	932.235	727.290
165.935	17.558	930.724	726.620
166.950	17.559	930.004	726.000
167.964	17.618	929.014	725.413
168.979	17.363	928.130	723.576
169.994	17.411	926.939	722.787
171.008	17.255	926.152	721.445
172.023	17.375	925.516	721.396
173.037	17.448	924.611	720.937
174.052	17.245	923.286	718.977
175.067	17.146	922.031	717.520
176.081	17.196	921.596	717.329
177.096	17.249	921.263	717.231
178.110	17.331	919.986	716.518
179.125	17.223	918.895	715.153
180.140	17.106	917.613	713.598
181.154	16.986	917.219	712.723
182.169	17.105	916.293	712.441
183.183	17.234	915.998	712.691
184.198	17.483	915.499	713.282
185.213	17.400	915.175	712.619
186.227	17.333	914.101	711.440
187.242	17.462	913.598	711.524
188.256	17.538	913.050	711.350
189.271	17.437	912.019	710.065
190.286	17.388	911.609	709.480
191.300	17.353	910.716	708.573
192.315	17.078	909.454	706.386
193.329	16.620	907.837	703.165
194.344	16.251	906.954	700.885
195.359	16.814	906.459	702.779
196.373	17.380	906.681	705.234
197.388	17.577	906.388	705.761
198.402	17.392	905.744	704.429
199.417	17.181	904.696	702.679
200.432	17.110	904.426	702.115
201.446	17.150	903.828	701.752
202.461	16.828	903.053	699.760
203.475	16.927	902.158	699.413
204.490	16.639	900.734	697.062
205.504	15.633	899.046	691.555
206.519	15.934	899.482	693.068
207.534	16.849	899.179	696.538
208.548	17.031	898.545	696.733
209.563	17.301	898.507	697.750
210.577	17.444	897.707	697.650
211.592	17.114	896.861	695.581
212.607	17.355	896.696	696.380
213.621	17.424	896.059	696.106
214.636	17.373	895.078	695.073
215.650	17.372	894.673	694.694
216.665	17.519	893.816	694.563
217.680	17.442	893.498	693.944
218.694	17.634	893.087	694.343
219.709	17.302	892.183	692.230
220.723	17.041	891.069	690.240
221.738	17.185	890.843	690.591
222.753	17.459	890.015	691.000
223.767	17.437	889.117	690.153
224.782	17.532	888.268	689.818
225.796	17.498	887.823	689.273
226.811	17.661	887.015	689.244
227.826	17.278	886.053	686.890
228.840	16.667	884.800	683.391
229.855	16.599	883.877	682.344
230.869	16.878	883.375	683.019
231.884	16.627	882.605	681.353
232.899	16.623	882.004	680.812
233.913	17.488	881.814	684.085
234.928	17.465	881.739	683.873
235.942	17.467	881.011	683.254
236.957	17.625	880.112	683.130
237.972	17.396	879.001	681.293
238.986	17.253	878.427	680.215
240.001	17.388	877.644	680.087
241.015	17.292	876.945	679.100
242.030	17.450	876.425	679.270
243.045	17.455	875.568	678.565
244.059	17.637	875.101	678.869
245.074	17.634	874.704	678.489
246.088	17.608	873.761	677.595
247.103	17.201	872.569	674.992
248.117	17.383	871.417	674.761
249.132	17.760	871.466	676.235
250.147	17.910	871.394	676.717
251.161	17.774	870.515	675.435
252.176	18.055	869.964	676.061
253.190	18.033	869.082	675.228
254.205	18.110	868.421	674.957
255.220	18.280	867.991	675.237
256.234	18.260	867.808	674.954
257.249	18.308	866.774	674.280
258.263	18.131	866.046	672.957
259.278	18.062	865.447	672.162
260.293	18.128	865.121	672.108
261.307	18.278	864.149	671.882
262.322	18.126	863.723	670.895
263.336	17.853	863.215	669.370
264.351	17.447	861.240	666.190
265.366	16.588	859.054	661.084
266.380	16.062	858.827	658.798
267.395	16.888	859.293	662.325
268.409	17.630	859.310	665.174
269.424	17.687	858.423	664.653
270.439	17.853	857.943	664.867
271.453	18.053	857.472	665.223
272.468	18.055	856.440	664.372
273.482	18.114	856.518	664.604
274.497	18.223	855.564	664.228
275.512	17.997	854.605	662.548
276.526	17.630	852.822	659.685
277.541	17.814	852.496	660.087
278.555	17.993	852.350	660.608
279.570	17.923	851.223	659.404
280.585	17.455	850.666	657.111
281.599	17.771	849.574	657.426
282.614	18.017	849.330	658.128
283.628	17.650	848.206	655.787
284.643	17.342	847.413	653.930
285.657	17.772	846.955	655.170
286.672	17.631	846.563	654.269
287.687	17.107	845.648	651.492
288.701	17.478	845.446	652.703
289.716	17.759	844.994	653.375
290.730	17.450	843.710	651.141
291.745	17.330	843.379	650.367
292.760	17.382	841.830	649.314
293.774	17.140	841.761	648.282
294.789	18.022	841.921	651.711
295.803	18.455	841.855	653.254
296.818	18.431	841.415	652.763
297.833	18.686	840.951	653.317
298.847	18.511	839.396	651.388
299.862	18.241	838.360	649.499
300.876	18.290	837.831	649.217
301.891	18.565	837.403	649.870
302.906	18.511	837.103	649.378
303.920	18.098	836.005	646.905
304.935	17.967	834.885	645.486
305.949	18.319	834.519	646.474
306.964	18.496	834.037	646.711
307.979	18.341	833.613	645.743
308.993	18.254	833.072	644.937
310.008	18.480	833.057	645.723
311.022	18.568	832.525	645.583
312.037	18.529	831.382	644.492
313.052	18.362	831.279	643.727
314.066	18.304	829.951	642.424
315.081	17.848	829.252	640.116
316.095	17.419	827.718	637.270
317.110	17.812	827.732	638.695
318.125	18.451	827.951	641.202
319.139	18.090	826.988	639.050
320.154	17.282	825.510	634.834
321.168	16.860	824.870	632.709
322.183	17.354	824.608	634.296
323.197	18.072	824.921	637.157
324.212	18.248	824.592	637.505
325.227	18.525	823.953	637.984
326.241	18.580	823.511	637.791
327.256	18.514	822.946	637.052
328.270	18.582	822.268	636.721
329.285	18.327	822.090	635.579
330.300	18.351	821.119	634.863
331.314	18.094	820.385	633.287
332.329	18.237	819.639	633.186
333.343	18.539	818.658	633.488
334.358	18.394	819.087	633.225
335.373	18.621	818.217	633.337
336.387	18.775	817.460	633.263
337.402	18.857	817.076	633.210
338.416	18.834	816.602	632.702
339.431	18.907	815.460	632.029
340.446	18.821	815.079	631.363
341.460	18.833	814.693	631.054
342.475	18.856	814.095	630.616
343.489	18.684	812.871	628.983
344.504	18.654	812.710	628.693
345.519	18.910	812.462	629.385
346.533	19.105	812.314	629.927
347.548	19.053	811.896	629.356
348.562	19.222	811.220	629.394
349.577	19.172	810.600	628.675
350.592	19.282	810.062	628.605
351.606	19.330	809.655	628.407
352.621	19.258	809.333	627.839
353.635	19.214	808.548	627.016
354.650	19.084	808.088	626.129
355.665	18.670	807.391	624.030
356.679	18.038	805.777	620.432
357.694	17.847	805.168	619.217
358.708	18.402	805.283	621.262
359.723	18.251	804.578	620.116
360.738	18.614	804.108	621.014
361.752	19.016	803.867	622.228
362.767	19.052	803.609	622.103
363.781	19.216	803.050	622.206
364.796	19.303	803.160	622.554
365.810	19.562	802.572	622.974
366.825	19.422	802.595	622.432
367.840	19.419	801.779	621.735
368.854	19.364	801.179	621.016
369.869	18.966	800.675	619.139
370.883	19.015	799.825	618.603
371.898	19.079	798.875	618.044
372.913	18.809	798.469	616.704
373.927	18.727	797.831	615.864
374.942	19.074	797.376	616.701
375.956	19.266	797.002	617.046
376.971	19.063	796.419	615.812
377.986	19.212	796.029	615.989
379.000	19.302	795.663	615.973
380.015	19.497	794.842	615.979
381.029	19.361	794.217	614.954
382.044	19.298	793.654	614.242
383.059	19.449	793.502	614.605
384.073	19.312	792.711	613.453
385.088	19.430	792.223	613.440
386.102	19.575	791.800	613.572
387.117	19.417	791.250	612.530
388.132	19.375	790.605	611.829
389.146	19.203	790.027	610.718
390.161	18.847	789.508	609.002
391.175	18.616	788.736	607.533
392.190	19.136	788.377	609.044
393.205	19.100	788.291	608.794
394.219	18.326	786.778	604.839
395.234	17.267	785.048	599.722
396.248	16.681	784.048	596.838
397.263	17.606	784.754	600.587
398.278	19.089	785.506	606.338
399.292	19.419	785.482	607.429
400.307	19.280	785.007	606.518
401.321	19.282	784.497	606.077
402.336	19.052	784.342	605.093
403.350	19.491	783.959	606.289
404.365	19.692	784.004	606.974
405.380	19.803	783.382	606.829
406.394	20.029	782.697	607.035
407.409	19.967	782.457	606.580
408.423	19.924	782.181	606.161
409.438	19.925	781.428	605.527
410.453	19.875	780.915	604.903
411.467	20.096	780.590	605.368
412.482	20.048	780.100	604.767
413.496	19.996	779.439	604.020
414.511	20.233	779.152	604.570
415.526	20.208	778.544	603.957
416.540	20.065	778.748	603.566
417.555	20.044	778.002	602.860
418.569	19.857	777.230	601.560
419.584	19.733	776.795	600.738
420.599	19.784	775.981	600.234
421.613	154.507	1358.245	1791.287
422.628	133.326	1443.082	1791.356
