DTS Sentinel unit serial number:	SN413079Multiplexer serial number:	ORYXHardware model number:	OX4-SRSoftware version number:	ORYX F/W v4.00 Oryx Data Collector v3.7.2.0data status	okinstallation	princeton_trtdifferential loss correction	single-endedforward channel	channel 3reverse channel	N/Adate	2019/09/10time	18:46:11forward acquisition time	60.00reverse acquisition time	0.00gamma	496.2192k internal	0.2310k external	0.2310temperature offset calibration	0.9908default loss term (dB/km)	0.3790temperature slope calibration	1.0000multiplexer offset coefficient	1.0000multiplexer slope coefficient	1.0000fibre end	0.00T internal ref (°C)	35.14T ext. ref 1 (°C)	-0.43T ext. ref 2 (°C)	27.32length (m)	temperature (°C)	Stokes	anti-Stokes-747.200	800.000	0.024	0.098
-746.185	-200.000	0.001	0.246
-745.171	-81.410	-0.174	0.058
-744.156	-200.000	0.035	0.527
-743.142	-200.000	-0.208	0.000
-742.127	-200.000	-0.057	-0.265
-741.112	800.000	-0.029	0.089
-740.098	-151.340	-0.236	-0.018
-739.083	123.454	0.138	-0.175
-738.069	-200.000	0.046	0.290
-737.054	71.387	0.146	0.154
-736.039	228.685	-0.074	0.122
-735.025	-200.000	-0.022	0.119
-734.010	-75.851	-0.423	-0.152
-732.996	260.539	-0.182	-0.319
-731.981	387.820	-0.106	-0.222
-730.966	-145.762	-0.216	0.020
-729.952	269.336	0.026	0.046
-728.937	12.061	-0.268	-0.209
-727.923	800.000	-0.092	0.317
-726.908	-114.734	-0.198	-0.038
-725.894	-33.725	-0.076	-0.042
-724.879	-200.000	0.047	-0.281
-723.864	743.180	-0.157	-0.427
-722.850	319.664	0.101	-0.194
-721.835	-25.206	0.088	-0.053
-720.821	144.103	0.165	-0.223
-719.806	4.281	0.199	-0.148
-718.791	800.000	-0.034	-0.101
-717.777	174.592	0.211	-0.310
-716.762	-200.000	-0.001	-0.163
-715.748	-53.422	-0.114	0.053
-714.733	1.938	-0.128	-0.094
-713.718	-5.506	-0.073	0.051
-712.704	17.028	0.117	0.094
-711.689	-45.536	0.062	0.031
-710.675	-200.000	-0.019	-0.093
-709.660	87.963	-0.270	-0.304
-708.645	800.000	0.040	0.128
-707.631	-71.381	-0.091	0.035
-706.616	52.766	-0.092	-0.089
-705.602	-6.294	-0.418	-0.290
-704.587	-200.000	-0.148	-0.000
-703.572	23.689	-0.121	-0.101
-702.558	238.908	0.150	0.254
-701.543	3.500	0.196	-0.145
-700.529	498.158	0.129	-0.302
-699.514	-44.461	0.157	-0.080
-698.499	800.000	0.020	-0.073
-697.485	-194.345	0.242	0.002
-696.470	-21.165	-0.189	-0.117
-695.456	-200.000	0.058	-0.290
-694.441	-82.449	0.228	0.075
-693.426	-45.833	0.182	-0.091
-692.412	-170.330	0.148	0.005
-691.397	401.288	-0.108	-0.230
-690.383	-200.000	0.012	-0.087
-689.368	-196.816	-0.253	0.002
-688.354	197.489	0.172	0.265
-687.339	-82.020	-0.046	0.015
-686.324	800.000	0.008	-0.025
-685.310	257.151	-0.143	0.249
-684.295	-130.046	-0.061	0.008
-683.281	-66.748	0.418	-0.168
-682.266	-200.000	-0.006	-0.039
-681.251	-172.653	-0.188	0.006
-680.237	-198.289	-0.267	0.002
-679.222	-3.404	0.264	0.186
-678.208	-136.882	-0.307	0.036
-677.193	-11.782	-0.183	-0.122
-676.178	70.446	0.270	0.283
-675.164	-9.738	0.337	0.227
-674.149	-98.409	-0.298	-0.077
-673.135	469.353	0.201	0.458
-672.120	-200.000	-0.044	0.252
-671.105	-28.646	-0.260	0.152
-670.091	-200.000	-0.008	-0.228
-669.076	-92.546	0.422	0.120
-668.062	114.306	0.126	-0.155
-667.047	48.629	-0.183	-0.174
-666.032	-24.282	-0.278	0.168
-665.018	680.915	-0.084	0.223
-664.003	73.049	0.061	0.065
-662.989	1.890	-0.202	-0.147
-661.974	-200.000	0.119	-0.000
-660.959	673.059	0.137	0.360
-659.945	800.000	0.057	0.164
-658.930	-106.380	-0.386	-0.087
-657.916	-124.589	-0.257	0.040
-656.901	102.742	-0.145	0.171
-655.886	60.471	-0.072	-0.072
-654.872	8.088	-0.110	0.084
-653.857	800.000	0.095	0.307
-652.843	43.245	-0.053	0.049
-651.828	41.902	-0.110	-0.101
-650.814	35.505	0.185	0.165
-649.799	-26.191	0.171	-0.102
-648.784	-200.000	0.037	-0.270
-647.770	337.179	0.043	-0.085
-646.755	225.225	0.100	-0.164
-645.741	415.524	-0.091	-0.195
-644.726	800.000	0.013	0.045
-643.711	-93.581	-0.291	0.081
-642.697	0.668	0.144	0.104
-641.682	185.354	0.234	-0.352
-640.668	-200.000	0.025	-0.192
-639.653	-27.053	0.071	-0.042
-638.638	23.591	0.240	0.200
-637.624	-152.746	-0.257	0.018
-636.609	-164.018	0.084	-0.004
-635.595	103.076	0.042	0.049
-634.580	-112.534	0.347	-0.070
-633.565	282.740	-0.059	0.106
-632.551	388.093	0.106	-0.223
-631.536	631.844	0.044	-0.112
-630.522	-200.000	0.017	-0.387
-629.507	-48.598	-0.158	-0.077
-628.492	-200.000	-0.000	-0.039
-627.478	-114.681	0.079	-0.015
-626.463	-149.520	0.390	-0.031
-625.449	-140.144	0.059	-0.006
-624.434	13.859	0.178	0.140
-623.419	-169.546	0.340	0.013
-622.405	230.145	0.033	0.055
-621.390	94.868	-0.252	-0.290
-620.376	212.532	-0.152	-0.242
-619.361	17.286	0.167	0.134
-618.346	-200.000	0.038	0.325
-617.332	359.123	-0.130	-0.262
-616.317	160.083	-0.041	0.058
-615.303	800.000	-0.089	0.308
-614.288	76.961	-0.229	0.246
-613.273	-200.000	0.029	-0.275
-612.259	653.229	0.198	0.513
-611.244	186.347	-0.102	0.153
-610.230	-96.524	-0.118	-0.032
-609.215	231.083	0.309	-0.511
-608.201	766.888	-0.070	-0.194
-607.186	-140.768	0.259	-0.027
-606.171	479.007	-0.135	0.309
-605.157	-82.456	-0.215	-0.071
-604.142	-200.000	0.024	0.116
-603.128	178.101	-0.091	0.133
-602.113	447.416	0.049	-0.110
-601.098	405.787	-0.054	-0.115
-600.084	-200.000	0.012	-0.195
-599.069	351.978	-0.131	-0.262
-598.055	-136.259	-0.242	0.029
-597.040	-19.927	0.183	-0.114
-596.025	800.000	0.031	-0.102
-595.011	-200.000	0.069	0.324
-593.996	32.799	-0.015	-0.013
-592.982	-105.993	0.142	-0.032
-591.967	-103.907	0.537	0.127
-590.952	800.000	-0.066	-0.245
-589.938	353.330	-0.046	-0.093
-588.923	-136.255	-0.363	-0.043
-587.909	141.184	-0.002	0.002
-586.894	33.739	-0.079	-0.069
-585.879	536.871	0.107	0.257
-584.865	72.531	-0.155	-0.163
-583.850	-200.000	0.025	-0.152
-582.836	-62.085	-0.185	0.078
-581.821	41.088	-0.293	-0.267
-580.806	82.664	-0.231	0.253
-579.792	-154.777	0.090	-0.006
-578.777	-106.129	-0.199	-0.045
-577.763	-7.700	-0.209	-0.142
-576.748	800.000	-0.034	-0.111
-575.733	800.000	-0.142	0.404
-574.719	-190.188	0.178	-0.002
-573.704	113.776	-0.062	-0.076
-572.690	-10.376	-0.240	0.161
-571.675	-80.950	0.199	-0.067
-570.661	-200.000	-0.000	-0.151
-569.646	800.000	-0.076	-0.288
-568.631	800.000	0.065	-0.221
-567.617	-104.135	-0.120	-0.028
-566.602	-200.000	-0.065	-0.406
-565.588	470.151	0.140	0.317
-564.573	-12.514	-0.201	-0.132
-563.558	133.558	0.283	-0.370
-562.544	-200.000	-0.011	-0.056
-561.529	205.098	-0.183	0.287
-560.515	17.913	-0.204	-0.164
-559.500	43.883	0.165	-0.153
-558.485	-106.487	-0.339	-0.076
-557.471	31.126	-0.277	-0.240
-556.456	-200.000	-0.007	-0.284
-555.442	13.073	-0.343	-0.268
-554.427	-200.000	0.048	0.227
-553.412	396.391	0.059	-0.125
-552.398	106.678	-0.224	0.268
-551.383	178.804	-0.089	0.131
-550.369	688.242	0.087	-0.228
-549.354	-101.934	-0.106	0.026
-548.339	300.467	-0.093	0.173
-547.325	-91.845	-0.139	0.040
-546.310	-200.000	-0.002	-0.267
-545.296	-200.000	0.033	0.213
-544.281	-41.680	0.196	0.102
-543.266	-131.814	0.124	-0.016
-542.252	128.368	0.220	0.282
-541.237	800.000	0.022	0.069
-540.223	-93.914	0.231	0.064
-539.208	-61.128	-0.277	-0.118
-538.193	800.000	-0.017	-0.058
-537.179	800.000	0.045	-0.158
-536.164	238.458	0.109	-0.183
-535.150	151.209	0.159	0.219
-534.135	67.624	0.245	0.252
-533.121	-41.743	-0.080	0.042
-532.106	127.510	0.069	-0.089
-531.091	207.082	0.126	-0.198
-530.077	-103.224	0.257	0.061
-529.062	785.801	-0.066	-0.183
-528.048	-117.709	-0.332	0.060
-527.033	-172.383	-0.100	-0.003
-526.018	-86.725	0.281	-0.087
-525.004	800.000	0.036	0.106
-523.989	602.273	-0.047	-0.117
-522.975	215.487	-0.098	0.157
-521.960	800.000	0.039	-0.167
-520.945	-31.886	0.311	0.175
-519.931	-114.712	0.110	0.021
-518.916	-200.000	-0.023	-0.144
-517.902	170.315	-0.139	-0.201
-516.887	-108.253	0.199	0.043
-515.872	-200.000	0.048	0.243
-514.858	-72.981	-0.214	-0.079
-513.843	-4.950	-0.139	0.096
-512.829	-93.413	0.134	-0.037
-511.814	8.301	0.066	0.050
-510.799	-200.000	0.028	-0.146
-509.785	-46.381	0.156	-0.077
-508.770	-200.000	0.051	0.286
-507.756	442.176	0.110	0.241
-506.741	-138.167	-0.166	-0.018
-505.726	45.897	0.221	0.206
-504.712	-85.501	0.191	0.060
-503.697	-200.000	0.008	0.112
-502.683	373.281	0.035	0.072
-501.668	410.002	-0.083	0.177
-500.653	800.000	-0.062	-0.186
-499.639	64.974	-0.186	-0.189
-498.624	247.449	-0.113	-0.192
-497.610	-200.000	0.019	-0.172
-496.595	-43.999	0.248	-0.126
-495.581	786.725	0.073	-0.202
-494.566	17.672	0.054	-0.043
-493.551	174.966	-0.114	0.165
-492.537	-146.594	-0.133	0.012
-491.522	-60.510	0.136	-0.058
-490.508	332.736	0.047	0.091
-489.493	-197.564	-0.202	-0.001
-488.478	490.499	-0.071	-0.164
-487.464	-200.000	-0.021	0.271
-486.449	-150.954	-0.073	0.006
-485.435	-88.645	0.047	-0.014
-484.420	-149.002	-0.127	0.010
-483.405	189.091	0.129	-0.195
-482.391	-174.656	0.149	-0.004
-481.376	-66.100	0.048	0.019
-480.362	-39.479	-0.195	0.103
-479.347	-200.000	-0.052	-0.250
-478.332	-12.671	0.200	0.131
-477.318	365.860	0.099	0.201
-476.303	-183.978	-0.208	-0.004
-475.289	-111.429	0.200	0.041
-474.274	-80.747	-0.214	0.072
-473.259	662.383	0.121	0.313
-472.245	800.000	-0.045	-0.175
-471.230	-123.854	-0.281	-0.045
-470.216	187.666	-0.147	0.221
-469.201	51.588	-0.189	-0.180
-468.186	349.599	-0.066	-0.131
-467.172	379.084	-0.020	0.042
-466.157	-95.254	-0.116	0.031
-465.143	209.868	0.030	-0.048
-464.128	41.968	-0.424	0.386
-463.113	-79.617	-0.091	0.031
-462.099	-200.000	0.021	-0.095
-461.084	238.117	-0.136	-0.227
-460.070	71.012	-0.099	-0.103
-459.055	131.370	-0.063	-0.081
-458.040	338.594	-0.016	-0.032
-457.026	-51.327	-0.284	0.133
-456.011	212.139	-0.107	-0.169
-454.997	24.276	0.338	0.280
-453.982	-55.033	0.217	-0.098
-452.968	-88.507	-0.277	0.083
-451.953	-169.077	0.148	0.006
-450.938	-45.764	-0.108	-0.053
-449.924	-141.994	0.239	0.024
-448.909	8.711	0.199	-0.151
-447.895	-200.000	0.006	-0.253
-446.880	-129.030	0.128	-0.018
-445.865	800.000	0.034	-0.123
-444.851	-145.085	-0.261	0.024
-443.836	-200.000	0.031	0.307
-442.822	-42.066	0.153	-0.079
-441.807	-200.000	-0.006	0.106
-440.792	79.977	-0.295	-0.319
-439.778	253.495	0.108	0.185
-438.763	42.671	0.234	-0.214
-437.749	-148.491	0.135	-0.011
-436.734	-61.452	-0.213	0.090
-435.719	419.747	0.136	-0.292
-434.705	-200.000	-0.006	0.150
-433.690	-200.000	0.156	0.001
-432.676	-200.000	-0.005	0.315
-431.661	800.000	-0.059	0.229
-430.646	-200.000	0.001	0.011
-429.632	-200.000	0.011	0.252
-428.617	-38.376	-0.212	0.113
-427.603	160.904	0.114	-0.160
-426.588	-200.000	0.012	0.358
-425.573	-101.838	-0.135	-0.033
-424.559	-200.000	-0.014	-0.390
-423.544	-200.000	0.023	0.348
-422.530	-200.000	0.001	-0.162
-421.515	210.512	0.042	0.066
-420.500	800.000	-0.080	0.297
-419.486	-200.000	-0.023	-0.195
-418.471	206.637	-0.136	0.213
-417.457	301.775	0.096	-0.178
-416.442	-61.414	0.120	-0.051
-415.428	488.492	0.104	0.239
-414.413	800.000	0.051	0.184
-413.398	147.141	-0.113	0.153
-412.384	13.260	0.094	-0.073
-411.369	-26.022	-0.200	-0.118
-410.355	800.000	0.023	0.075
-409.340	-136.251	-0.127	0.015
-408.325	-144.289	-0.455	0.042
-407.311	-84.868	0.227	-0.071
-406.296	-200.000	-0.000	0.275
-405.282	309.758	-0.124	0.233
-404.267	235.222	-0.203	0.336
-403.252	-118.772	-0.236	-0.042
-402.238	-200.000	-0.024	0.279
-401.223	-6.805	-0.125	-0.085
-400.209	-200.000	-0.013	0.254
-399.194	-58.346	0.180	-0.078
-398.179	170.535	-0.069	-0.098
-397.165	-91.375	-0.068	0.019
-396.150	-186.090	0.248	0.004
-395.136	-81.751	-0.566	-0.186
-394.121	-200.000	0.008	-0.245
-393.106	-200.000	-0.044	-0.398
-392.092	-200.000	0.035	-0.187
-391.077	800.000	-0.070	-0.236
-390.063	-123.990	0.207	-0.033
-389.048	-200.000	-0.026	-0.202
-388.033	19.889	-0.151	0.122
-387.019	800.000	0.037	-0.141
-386.004	-44.405	-0.302	0.151
-384.990	80.117	0.107	-0.116
-383.975	77.291	-0.089	0.095
-382.960	-155.340	-0.243	0.016
-381.946	-35.295	0.292	-0.159
-380.931	-66.247	-0.101	-0.040
-379.917	160.228	-0.104	-0.146
-378.902	617.984	0.075	0.188
-377.888	-17.984	0.248	-0.156
-376.873	-59.264	0.087	0.038
-375.858	286.226	0.100	-0.181
-374.844	-7.327	-0.232	0.158
-373.829	151.780	-0.189	-0.258
-372.815	7.958	0.070	0.052
-371.800	-23.151	0.203	0.122
-370.785	-159.295	0.517	-0.029
-369.771	636.340	0.048	0.123
-368.756	97.465	-0.190	-0.218
-367.742	-57.509	0.364	-0.160
-366.727	244.641	0.028	0.046
-365.712	4.479	-0.168	-0.124
-364.698	37.671	-0.154	-0.137
-363.683	-200.000	-0.029	0.401
-362.669	71.882	0.371	-0.386
-361.654	-62.802	-0.140	0.058
-360.639	-5.561	0.180	0.124
-359.625	-200.000	-0.021	0.219
-358.610	-135.103	-0.326	-0.039
-357.596	13.553	0.364	-0.283
-356.581	-106.739	-0.237	-0.053
-355.566	-200.000	-0.005	-0.035
-354.552	20.726	0.275	-0.223
-353.537	-31.430	-0.287	-0.162
-352.523	-200.000	0.000	-0.230
-351.508	800.000	0.042	-0.131
-350.493	-105.459	0.263	0.060
-349.479	320.092	0.108	-0.205
-348.464	-26.083	0.539	-0.317
-347.450	77.950	0.320	0.341
-346.435	-39.035	0.140	-0.074
-345.420	800.000	-0.026	-0.075
-344.406	-129.550	-0.238	-0.033
-343.391	263.584	0.038	0.066
-342.377	-57.125	0.372	-0.164
-341.362	-94.229	-0.127	0.035
-340.348	-200.000	-0.097	0.454
-339.333	324.522	0.096	-0.184
-338.318	36.698	-0.106	0.094
-337.304	117.433	-0.167	-0.205
-336.289	-69.377	-0.255	0.098
-335.275	131.924	0.036	-0.046
-334.260	800.000	0.041	-0.143
-333.245	185.144	0.100	0.148
-332.231	800.000	-0.024	-0.091
-331.216	221.177	0.143	-0.229
-330.202	-124.103	-0.082	-0.013
-329.187	-46.863	-0.204	0.100
-328.172	-126.314	0.301	-0.045
-327.158	-118.657	-0.131	-0.023
-326.143	409.474	0.089	-0.189
-325.129	-161.310	-0.104	-0.005
-324.114	-103.146	-0.220	0.052
-323.099	-110.357	0.202	-0.042
-322.085	64.355	0.164	-0.165
-321.070	86.221	0.235	0.258
-320.056	800.000	-0.020	0.056
-319.041	83.397	-0.178	0.194
-318.026	75.541	-0.095	0.100
-317.012	665.277	0.029	0.075
-315.997	-200.000	-0.002	0.068
-314.983	-51.473	-0.312	-0.146
-313.968	-200.000	-0.028	0.174
-312.953	225.408	0.174	-0.282
-311.939	137.119	-0.060	0.079
-310.924	176.952	0.093	-0.135
-309.910	-200.000	0.004	0.122
-308.895	-200.000	0.000	0.049
-307.880	-150.533	-0.226	-0.017
-306.866	-200.000	0.019	0.242
-305.851	-112.255	-0.234	-0.047
-304.837	54.367	-0.242	0.232
-303.822	-94.245	0.128	-0.035
-302.807	-86.193	0.160	0.049
-301.793	-200.000	-0.049	0.318
-300.778	128.921	-0.115	-0.147
-299.764	361.849	-0.154	-0.307
-298.749	-200.000	-0.017	-0.098
-297.735	-131.899	0.119	0.015
-296.720	226.843	-0.094	0.153
-295.705	-200.000	-0.057	0.428
-294.691	800.000	0.086	0.277
-293.676	224.018	-0.109	-0.176
-292.662	-46.500	-0.332	0.162
-291.647	153.373	0.058	0.079
-290.632	-200.000	0.047	0.246
-289.618	62.230	0.208	-0.207
-288.603	95.214	0.361	-0.411
-287.589	234.496	-0.055	0.090
-286.574	-200.000	-0.035	-0.343
-285.559	-200.000	-0.061	-0.275
-284.545	198.523	-0.240	-0.366
-283.530	-144.286	0.226	-0.021
-282.516	-60.019	-0.126	0.053
-281.501	-146.359	-0.211	0.018
-280.486	66.320	-0.204	0.207
-279.472	-200.000	0.014	0.075
-278.457	-148.077	0.238	-0.020
-277.443	567.542	-0.092	0.224
-276.428	800.000	-0.061	0.258
-275.413	149.361	-0.139	0.187
-274.399	800.000	0.084	-0.350
-273.384	306.516	0.072	-0.134
-272.370	-42.410	0.236	0.120
-271.355	-87.869	0.187	-0.056
-270.340	-200.000	-0.033	-0.166
-269.326	-200.000	0.026	0.135
-268.311	-200.000	0.006	-0.169
-267.297	13.962	-0.082	-0.063
-266.282	137.751	0.162	-0.212
-265.267	-200.000	-0.001	0.240
-264.253	-115.408	-0.139	0.026
-263.238	210.899	-0.158	-0.248
-262.224	-49.333	-0.215	-0.102
-261.209	-35.086	-0.282	0.153
-260.195	-105.744	-0.139	0.031
-259.180	-78.522	0.262	-0.089
-258.165	-200.000	-0.062	0.377
-257.151	399.038	-0.111	-0.232
-256.136	-173.462	-0.161	0.005
-255.122	55.921	0.170	0.164
-254.107	-179.391	-0.219	-0.005
-253.092	187.045	-0.090	0.134
-252.078	-168.011	0.287	-0.011
-251.063	-40.170	-0.096	0.050
-250.049	12.874	-0.150	0.115
-249.034	-113.566	-0.462	-0.090
-248.019	-100.477	0.026	0.006
-247.005	-23.746	0.352	0.210
-245.990	-124.436	0.181	0.028
-244.976	-200.000	0.023	-0.152
-243.961	8.264	-0.132	0.099
-242.946	99.125	0.176	0.202
-241.932	-102.535	0.336	-0.080
-240.917	-1.442	-0.264	0.185
-239.903	-148.934	0.226	0.018
-238.888	282.003	0.186	-0.332
-237.873	-96.635	0.204	-0.054
-236.859	204.905	-0.069	0.106
-235.844	579.761	0.099	-0.241
-234.830	800.000	-0.083	0.252
-233.815	-4.140	0.226	-0.156
-232.800	504.685	0.172	0.397
-231.786	-78.985	0.275	-0.093
-230.771	800.000	-0.078	-0.248
-229.757	-200.000	0.014	0.126
-228.742	-128.385	0.216	0.031
-227.727	34.307	-0.120	0.104
-226.713	79.507	-0.136	0.145
-225.698	-174.583	-0.207	0.006
-224.684	-200.000	0.052	-0.268
-223.669	800.000	0.065	0.268
-222.655	-93.291	0.137	0.038
-221.640	84.060	-0.297	-0.323
-220.625	124.336	-0.250	0.313
-219.611	-102.631	0.075	0.018
-218.596	800.000	-0.112	-0.323
-217.582	-88.797	0.187	-0.055
-216.567	-45.836	-0.210	0.103
-215.552	254.487	0.084	-0.143
-214.538	800.000	0.114	0.455
-213.523	-200.000	0.019	0.125
-212.509	236.653	0.069	-0.114
-211.494	-200.000	-0.004	0.494
-210.479	-154.669	-0.364	0.024
-209.465	-200.000	-0.000	0.285
-208.450	-20.422	-0.195	-0.119
-207.436	183.307	-0.243	0.357
-206.421	80.702	0.067	0.072
-205.406	11.098	-0.098	-0.074
-204.392	271.376	-0.189	0.331
-203.377	782.792	0.097	0.265
-202.363	52.793	-0.224	-0.213
-201.348	-200.000	-0.047	-0.215
-200.333	67.812	0.098	-0.099
-199.319	10.446	0.166	0.125
-198.304	429.944	-0.147	0.317
-197.290	25.202	0.198	0.164
-196.275	141.769	-0.194	0.256
-195.260	-147.124	-0.289	0.025
-194.246	-32.527	-0.140	0.077
-193.231	-110.440	0.329	0.068
-192.217	-159.219	-0.176	0.010
-191.202	-200.000	-0.001	0.400
-190.187	-160.076	0.174	0.009
-189.173	-81.951	-0.175	0.057
-188.158	800.000	0.065	-0.235
-187.144	-53.183	0.327	-0.149
-186.129	87.750	0.182	-0.200
-185.114	371.892	0.045	0.091
-184.100	105.297	0.161	-0.189
-183.085	143.426	0.132	0.175
-182.071	244.379	0.185	0.310
-181.056	800.000	0.013	0.052
-180.042	800.000	0.035	0.114
-179.027	-119.850	0.307	-0.053
-178.012	-37.125	0.085	-0.045
-176.998	-64.558	0.135	-0.054
-175.983	73.074	-0.129	-0.134
-174.969	-13.795	0.261	-0.167
-173.954	293.114	0.098	0.177
-172.939	69.838	-0.117	-0.120
-171.925	-200.000	-0.031	-0.204
-170.910	-200.000	-0.071	0.368
-169.896	-132.213	0.157	0.020
-168.881	-53.464	-0.159	-0.072
-167.866	-100.185	-0.206	0.051
-166.852	205.537	-0.191	-0.294
-165.837	-200.000	0.025	0.333
-164.823	37.618	-0.142	0.125
-163.808	95.264	-0.025	-0.029
-162.793	-129.209	-0.069	-0.010
-161.779	800.000	0.032	0.112
-160.764	-1.912	-0.067	-0.047
-159.750	-101.473	0.387	0.093
-158.735	-17.232	0.037	-0.023
-157.720	-86.666	0.171	0.052
-156.706	-63.439	0.196	0.080
-155.691	-200.000	-0.023	0.192
-154.677	-200.000	-0.007	0.254
-153.662	-121.751	0.301	-0.049
-152.647	27.974	0.209	0.175
-151.633	-37.562	0.134	-0.071
-150.618	90.681	0.131	-0.146
-149.604	-94.223	0.154	-0.042
-148.589	-125.837	0.019	0.003
-147.574	106.055	-0.261	0.306
-146.560	136.203	0.114	0.148
-145.545	198.626	0.154	0.234
-144.531	-200.000	0.010	-0.217
-143.516	-164.740	-0.301	-0.013
-142.502	33.360	0.186	0.160
-141.487	800.000	0.138	0.540
-140.472	800.000	-0.060	-0.205
-139.458	88.949	-0.070	0.077
-138.443	458.968	0.159	0.350
-137.429	-140.028	0.279	0.029
-136.414	-21.904	0.289	-0.174
-135.399	283.644	-0.068	0.122
-134.385	-162.854	-0.149	-0.007
-133.370	800.000	0.006	-0.020
-132.356	-122.203	0.205	0.033
-131.341	800.000	-0.080	0.290
-130.326	-119.881	0.323	-0.055
-129.312	-82.724	0.224	-0.072
-128.297	-188.194	0.170	-0.002
-127.283	-134.634	0.105	-0.013
-126.268	612.248	0.031	-0.077
-125.253	-17.301	-0.424	-0.265
-124.239	-192.575	-0.348	0.003
-123.224	800.000	-0.067	-0.199
-122.210	-200.000	-0.014	-0.258
-121.195	-12.702	0.158	-0.102
-120.180	-85.809	-0.167	-0.051
-119.166	-70.959	-0.367	-0.137
-118.151	77.350	0.106	-0.112
-117.137	179.699	-0.127	-0.184
-116.122	165.281	-0.175	0.244
-115.107	-200.000	-0.009	0.171
-114.093	800.000	-0.037	0.161
-113.078	-200.000	0.061	0.295
-112.064	61.851	-0.239	0.236
-111.049	-70.330	-0.084	-0.032
-110.034	-200.000	-0.038	0.206
-109.020	268.570	-0.007	-0.012
-108.005	-23.146	0.101	0.060
-106.991	348.153	0.138	-0.270
-105.976	50.119	-0.343	0.321
-104.962	-200.000	0.022	0.229
-103.947	800.000	-0.083	-0.358
-102.932	-200.000	-0.027	-0.334
-101.918	-200.000	-0.006	-0.070
-100.903	94.089	0.121	0.136
-99.889	-40.718	-0.183	-0.094
-98.874	-105.703	0.248	-0.056
-97.859	106.017	0.118	0.138
-96.845	320.367	0.076	0.143
-95.830	-55.340	0.385	-0.171
-94.816	-123.340	-0.198	0.031
-93.801	-103.642	-0.032	0.007
-92.786	-200.000	0.000	-0.104
-91.772	191.265	0.107	-0.159
-90.757	465.561	-0.139	0.309
-89.743	10.594	0.315	-0.238
-88.728	-145.218	-0.181	-0.016
-87.713	-67.660	-0.472	-0.183
-86.699	239.028	-0.073	-0.121
-85.684	-2.066	-0.149	-0.104
-84.670	455.471	-0.135	0.295
-83.655	-85.615	0.326	-0.100
-82.640	-86.225	-0.441	0.135
-81.626	20.742	0.300	0.240
-80.611	542.106	-0.059	-0.139
-79.597	-200.000	0.044	0.193
-78.582	293.125	0.071	-0.129
-77.567	384.568	0.039	0.080
-76.553	800.000	-0.044	0.150
-75.538	800.000	-0.041	0.168
-74.524	-144.183	0.349	0.032
-73.509	-118.763	0.355	0.062
-72.494	800.000	0.040	0.157
-71.480	16.498	-0.261	0.204
-70.465	157.348	0.178	-0.244
-69.451	69.095	0.254	-0.258
-68.436	800.000	-0.091	0.263
-67.422	800.000	-0.072	0.289
-66.407	800.000	-0.025	0.099
-65.392	-200.000	-0.003	0.145
-64.378	68.872	-0.316	-0.321
-63.363	148.921	0.171	-0.229
-62.349	-117.581	0.146	0.026
-61.334	37.013	-0.748	-0.655
-60.319	93.311	0.577	0.645
-59.305	800.000	-0.237	-0.666
-58.290	146.125	0.772	1.024
-57.276	444.576	0.518	1.123
-56.261	-200.000	99.431	569.487
-55.246	600.429	1403.794	3445.895
-54.232	182.304	2633.833	3837.927
-53.217	120.102	2213.718	2715.005
-52.203	45.619	1743.735	1592.450
-51.188	38.322	1552.521	1366.994
-50.173	35.757	1524.647	1324.756
-49.159	54.398	1576.899	1501.260
-48.144	58.203	1595.393	1545.461
-47.130	38.582	1549.035	1365.523
-46.115	35.342	1533.484	1329.350
-45.100	35.205	1530.635	1325.880
-44.086	35.114	1528.809	1323.613
-43.071	35.144	1526.410	1321.694
-42.057	35.140	1524.885	1320.293
-41.042	35.100	1523.492	1318.759
-40.027	35.074	1522.273	1317.474
-39.013	35.191	1520.347	1316.557
-37.998	35.185	1518.817	1315.137
-36.984	35.159	1518.271	1314.438
-35.969	35.112	1516.414	1312.452
-34.954	35.169	1515.266	1311.798
-33.940	35.080	1514.478	1310.451
-32.925	35.103	1512.676	1309.003
-31.911	35.173	1511.562	1308.463
-30.896	35.270	1509.751	1307.505
-29.881	35.229	1508.850	1306.391
-28.867	35.303	1506.610	1304.906
-27.852	35.254	1505.501	1303.559
-26.838	35.216	1504.385	1302.282
-25.823	35.216	1502.630	1300.714
-24.809	35.153	1500.861	1298.703
-23.794	35.099	1500.402	1297.888
-22.779	35.174	1498.848	1296.996
-21.765	35.131	1497.318	1295.335
-20.750	35.160	1496.676	1294.920
-19.736	35.159	1495.871	1294.165
-18.721	35.064	1494.779	1292.527
-17.706	35.153	1493.114	1291.642
-16.692	35.162	1492.090	1290.762
-15.677	35.035	1491.469	1289.317
-14.663	35.143	1490.115	1288.823
-13.648	35.096	1489.227	1287.687
-12.633	35.129	1487.691	1286.528
-11.619	35.132	1487.182	1286.060
-10.604	34.980	1486.713	1284.583
-9.590	35.050	1485.634	1284.072
-8.575	35.135	1484.779	1283.848
-7.560	35.136	1483.894	1283.038
-6.546	35.189	1482.866	1282.454
-5.531	35.084	1482.464	1281.354
-4.517	35.121	1481.329	1280.568
-3.502	35.169	1479.808	1279.522
-2.487	35.193	1478.736	1278.703
-1.473	35.093	1477.788	1277.169
-0.458	35.163	1476.575	1276.536
0.556	32.491	1466.185	1263.279
1.571	28.792	1438.785	1215.153
2.586	24.453	1374.256	1133.070
3.600	22.494	1289.721	1051.598
4.615	21.257	1243.457	1006.659
5.629	18.060	1187.614	943.742
6.644	8.723	1101.132	826.921
7.659	0.818	1058.695	755.611
8.673	-0.290	1052.238	745.432
9.688	-0.434	1049.190	742.493
10.702	-0.485	1047.563	741.024
11.717	-0.520	1046.014	739.691
12.731	2.543	1049.220	757.049
13.746	11.560	1062.384	811.438
14.761	17.636	1069.655	847.220
15.775	17.685	1068.727	846.653
16.790	17.542	1067.338	844.769
17.804	17.156	1066.813	842.367
18.819	17.018	1066.149	841.080
19.834	16.966	1065.526	840.256
20.848	16.991	1064.604	839.579
21.863	16.994	1064.007	839.052
22.877	16.943	1064.016	838.733
23.892	16.952	1062.973	837.880
24.907	16.758	1062.765	836.684
25.921	16.853	1061.688	836.231
26.936	17.044	1060.888	836.466
27.950	16.912	1060.230	835.224
28.965	16.986	1058.422	834.089
29.980	16.872	1056.682	832.082
30.994	16.892	1055.374	831.081
32.009	17.017	1054.752	831.129
33.023	17.130	1053.394	830.538
34.038	16.885	1052.322	828.421
35.053	16.957	1051.361	827.941
36.067	17.049	1050.557	827.684
37.082	17.081	1049.868	827.226
38.096	16.983	1049.709	826.548
39.111	17.241	1048.672	826.915
40.126	17.348	1047.182	826.188
41.140	17.256	1046.127	824.835
42.155	16.984	1044.774	822.379
43.169	16.800	1043.675	820.547
44.184	16.799	1042.224	819.333
45.199	16.889	1040.917	818.666
46.213	16.779	1039.674	817.085
47.228	16.787	1038.896	816.441
48.242	16.812	1038.216	815.955
49.257	16.757	1037.121	814.758
50.271	16.960	1035.990	814.769
51.286	16.980	1035.338	814.284
52.301	17.012	1034.262	813.517
53.315	17.006	1033.232	812.604
54.330	16.944	1032.460	811.631
55.344	16.847	1031.707	810.504
56.359	17.008	1030.241	810.048
57.374	16.992	1029.686	809.462
58.388	16.868	1028.284	807.698
59.403	16.768	1027.939	806.880
60.417	17.020	1026.868	807.167
61.432	16.754	1026.273	805.361
62.447	16.780	1025.554	804.853
63.461	17.018	1024.459	805.052
64.476	16.949	1023.934	804.241
65.490	17.000	1022.896	803.594
66.505	16.984	1021.754	802.552
67.520	16.964	1020.914	801.725
68.534	17.026	1020.175	801.365
69.549	16.938	1019.398	800.269
70.563	16.716	1017.981	798.043
71.578	16.680	1017.189	797.181
72.593	16.746	1016.444	796.836
73.607	16.474	1015.738	794.935
74.622	16.634	1014.327	794.508
75.636	16.802	1013.415	794.515
76.651	16.890	1013.013	794.538
77.666	16.839	1011.719	793.216
78.680	16.660	1011.312	791.990
79.695	16.676	1010.533	791.385
80.709	16.809	1009.952	791.479
81.724	16.808	1009.365	790.944
82.739	16.758	1008.196	789.729
83.753	16.793	1007.193	789.033
84.768	17.035	1006.318	789.405
85.782	17.094	1005.758	789.168
86.797	17.147	1005.109	788.836
87.812	17.130	1003.918	787.753
88.826	17.119	1002.975	786.892
89.841	16.962	1002.142	785.443
90.855	16.980	1001.766	785.161
91.870	17.086	1000.562	784.641
92.884	17.046	999.932	783.891
93.899	17.067	998.530	782.819
94.914	16.923	998.076	781.731
95.928	17.143	996.983	781.819
96.943	17.151	996.272	781.227
97.957	16.896	995.314	779.237
98.972	16.832	993.920	777.781
99.987	16.458	992.831	775.148
101.001	16.490	992.151	774.691
102.016	16.903	991.197	775.767
103.030	16.897	990.843	775.396
104.045	16.937	989.258	774.270
105.060	16.604	988.264	771.904
106.074	16.609	986.585	770.545
107.089	16.628	985.995	770.106
108.103	16.969	985.953	771.554
109.118	17.144	984.733	771.329
110.133	16.951	983.934	769.758
111.147	16.958	983.034	769.016
112.162	16.974	981.406	767.748
113.176	16.837	980.042	765.994
114.191	16.921	978.916	765.424
115.206	16.818	978.832	764.829
116.220	16.596	977.259	762.529
117.235	16.602	976.002	761.511
118.249	16.778	975.438	761.792
119.264	16.602	974.629	760.303
120.279	16.649	973.856	759.845
121.293	16.743	972.830	759.399
122.308	16.743	972.129	758.781
123.322	16.827	971.342	758.476
124.337	16.888	969.994	757.630
125.352	16.766	968.573	755.908
126.366	16.459	966.707	753.017
127.381	16.160	965.410	750.611
128.395	16.491	965.344	751.965
129.410	16.873	964.882	753.237
130.424	17.127	963.419	753.154
131.439	17.091	962.572	752.265
132.454	17.141	961.603	751.663
133.468	17.100	960.174	750.301
134.483	16.952	959.707	749.215
135.497	17.026	959.087	748.991
136.512	17.241	958.336	749.286
137.527	17.350	957.703	749.207
138.541	17.337	956.613	748.231
139.556	17.386	955.287	747.339
140.570	17.162	955.152	746.185
141.585	17.121	954.069	745.092
142.600	17.253	952.861	744.664
143.614	17.162	951.956	743.489
144.629	17.294	950.840	743.129
145.643	17.398	950.761	743.460
146.658	17.232	949.497	741.681
147.673	17.177	948.311	740.448
148.687	17.084	947.815	739.587
149.702	17.197	946.509	738.995
150.716	17.107	945.376	737.655
151.731	17.151	944.342	736.976
152.746	17.302	943.214	736.685
153.760	17.317	943.226	736.691
154.775	17.377	942.577	736.382
155.789	17.388	941.514	735.532
156.804	17.337	940.651	734.572
157.819	17.315	939.482	733.499
158.833	17.289	938.544	732.592
159.848	17.292	937.701	731.883
160.862	17.358	937.137	731.659
161.877	17.252	936.156	730.374
162.892	17.172	935.503	729.457
163.906	17.428	934.897	730.019
164.921	17.572	933.480	729.462
165.935	17.476	932.221	728.002
166.950	17.385	931.602	727.066
167.964	17.415	930.591	726.342
168.979	17.494	929.075	725.432
169.994	17.278	928.138	723.715
171.008	17.209	927.314	722.716
172.023	17.337	926.843	722.828
173.037	17.406	925.867	722.297
174.052	17.171	924.707	720.332
175.067	16.942	923.802	718.594
176.081	17.176	923.080	718.957
177.096	17.260	922.082	718.472
178.110	17.385	921.399	718.404
179.125	17.111	920.520	716.498
180.140	16.874	919.634	714.746
181.154	17.091	918.665	714.846
182.169	17.095	918.126	714.379
183.183	17.015	917.648	713.608
184.198	17.388	917.044	714.642
185.213	17.341	916.638	714.065
186.227	17.212	915.791	712.800
187.242	17.395	915.563	713.329
188.256	17.444	914.454	712.606
189.271	17.448	913.164	711.555
190.286	17.415	913.333	711.486
191.300	17.288	911.681	709.605
192.315	17.055	910.680	707.790
193.329	16.540	909.668	704.796
194.344	16.103	908.838	702.272
195.359	16.530	908.520	703.742
196.373	17.196	909.026	706.840
197.388	17.410	908.391	707.177
198.402	17.240	907.016	705.337
199.417	17.131	906.555	704.466
200.432	17.176	905.709	703.929
201.446	16.934	905.499	702.702
202.461	16.708	904.452	700.894
203.475	16.689	903.841	700.279
204.490	16.413	902.430	697.984
205.504	15.545	900.561	692.899
206.519	15.935	900.604	694.477
207.534	16.815	900.417	697.899
208.548	16.915	900.243	698.114
209.563	17.190	899.896	698.913
210.577	17.267	898.876	698.376
211.592	16.995	897.900	696.439
212.607	17.216	897.981	697.347
213.621	17.441	896.925	697.386
214.636	17.244	896.918	696.512
215.650	17.365	896.197	696.386
216.665	17.448	895.272	695.948
217.680	17.487	894.708	695.604
218.694	17.381	894.279	694.779
219.709	17.184	892.956	692.885
220.723	16.968	892.110	691.286
221.738	17.207	891.363	691.620
222.753	17.373	891.053	691.995
223.767	17.162	890.580	690.707
224.782	17.317	889.564	690.486
225.796	17.248	889.087	689.776
226.811	17.548	888.220	690.260
227.826	17.249	887.096	688.115
228.840	16.635	885.605	684.413
229.855	16.447	885.290	683.349
230.869	16.694	884.933	684.011
231.884	16.445	883.906	682.153
232.899	16.630	882.856	682.026
233.913	17.289	883.032	684.761
234.928	17.405	882.732	684.932
235.942	17.398	881.885	684.187
236.957	17.589	881.156	684.330
237.972	17.272	880.047	682.134
238.986	17.164	879.636	681.323
240.001	17.310	879.034	681.381
241.015	17.296	878.587	680.920
242.030	17.273	877.231	679.713
243.045	17.368	876.780	679.683
244.059	17.500	876.192	679.696
245.074	17.631	875.654	679.741
246.088	17.448	874.953	678.405
247.103	17.092	873.913	676.123
248.117	17.061	873.302	675.469
249.132	17.450	873.433	677.058
250.147	17.816	872.566	677.777
251.161	17.666	872.010	676.692
252.176	17.757	871.198	676.363
253.190	17.892	870.081	675.971
254.205	17.959	869.807	675.961
255.220	18.103	869.307	676.084
256.234	18.105	868.700	675.561
257.249	18.090	868.154	675.015
258.263	17.881	867.580	673.687
259.278	18.010	866.561	673.342
260.293	17.983	866.770	673.339
261.307	18.112	865.713	672.965
262.322	17.973	864.739	671.604
263.336	17.805	864.182	670.450
264.351	17.377	862.764	667.611
265.366	16.299	860.616	661.669
266.380	15.936	860.023	659.733
267.395	16.881	859.939	663.309
268.409	17.707	859.911	666.458
269.424	17.703	859.575	666.124
270.439	17.809	858.881	665.942
271.453	17.962	858.405	666.111
272.468	17.911	857.406	665.078
273.482	18.115	857.454	665.851
274.497	18.109	857.065	665.466
275.512	17.961	855.555	663.658
276.526	17.581	854.288	661.144
277.541	17.687	853.552	660.926
278.555	17.964	853.464	661.873
279.570	17.754	852.481	660.241
280.585	17.476	851.817	658.590
281.599	17.554	851.193	658.354
282.614	17.806	850.748	658.923
283.628	17.548	849.222	656.688
284.643	17.200	848.652	654.847
285.657	17.590	848.477	656.160
286.672	17.588	847.843	655.602
287.687	17.189	846.795	653.199
288.701	17.372	846.470	653.595
289.716	17.726	846.073	654.588
290.730	17.422	845.189	652.683
291.745	17.050	844.930	650.997
292.760	17.036	843.570	649.840
293.774	17.168	842.784	649.680
294.789	17.729	843.110	652.021
295.803	18.234	843.418	654.133
296.818	18.373	842.806	654.128
297.833	18.624	842.153	654.522
298.847	18.323	840.963	652.395
299.862	18.071	840.261	650.830
300.876	18.192	839.418	650.582
301.891	18.373	839.082	650.950
302.906	18.359	838.319	650.248
303.920	17.939	837.328	647.830
304.935	17.819	836.470	646.653
305.949	18.042	836.027	647.098
306.964	18.282	835.446	647.501
307.979	18.221	834.757	646.677
308.993	18.087	834.425	645.857
310.008	18.572	834.081	647.363
311.022	18.571	833.706	647.011
312.037	18.389	833.032	645.745
313.052	18.275	832.489	644.837
314.066	18.264	831.622	644.068
315.081	17.624	830.688	640.881
316.095	17.064	829.653	637.920
317.110	17.429	829.476	639.101
318.125	18.224	829.407	641.974
319.139	17.831	828.566	639.795
320.154	17.048	827.172	635.730
321.168	16.852	825.919	633.977
322.183	17.202	826.382	635.584
323.197	17.843	826.302	637.864
324.212	18.121	826.012	638.622
325.227	18.210	825.367	638.399
326.241	18.405	825.060	638.832
327.256	18.386	824.658	638.395
328.270	18.300	824.129	637.610
329.285	18.354	822.948	636.840
330.300	18.134	822.231	635.410
331.314	17.985	821.498	634.234
332.329	17.958	821.148	633.809
333.343	18.264	820.590	634.456
334.358	18.458	820.065	634.712
335.373	18.423	819.285	633.924
336.387	18.478	818.794	633.689
337.402	18.589	817.995	633.425
338.416	18.770	817.559	633.700
339.431	18.667	816.945	632.791
340.446	18.728	816.243	632.412
341.460	18.804	816.096	632.524
342.475	18.876	814.928	631.828
343.489	18.403	814.687	629.846
344.504	18.526	814.038	629.742
345.519	18.781	813.755	630.402
346.533	18.816	813.338	630.150
347.548	18.957	813.228	630.527
348.562	19.026	812.653	630.279
349.577	19.069	812.063	629.923
350.592	18.941	811.780	629.178
351.606	19.052	810.948	628.883
352.621	19.198	810.280	628.844
353.635	19.136	809.496	627.953
354.650	19.072	809.041	627.311
355.665	18.563	808.531	625.005
356.679	17.979	806.443	621.214
357.694	17.575	806.562	619.781
358.708	18.233	806.224	621.856
359.723	18.271	805.671	621.514
360.738	18.423	805.599	621.954
361.752	18.837	804.920	622.877
362.767	18.778	804.940	622.625
363.781	18.872	804.844	622.836
364.796	19.264	803.988	623.535
365.810	19.274	803.643	623.251
366.825	19.352	803.226	623.153
367.840	19.401	802.567	622.762
368.854	19.241	802.289	621.917
369.869	18.903	801.684	620.174
370.883	18.632	801.246	618.802
371.898	18.970	800.488	619.380
372.913	18.799	799.462	617.913
373.927	18.545	799.138	616.698
374.942	18.828	798.628	617.266
375.956	19.093	797.714	617.457
376.971	19.113	797.200	617.074
377.986	19.170	796.828	616.936
379.000	19.349	796.646	617.380
380.015	19.245	796.230	616.631
381.029	19.124	795.630	615.680
382.044	19.207	794.736	615.229
383.059	19.264	794.230	614.989
384.073	19.271	794.007	614.785
385.088	19.258	793.454	614.257
386.102	19.325	792.918	614.027
387.117	19.366	792.197	613.558
388.132	19.290	791.826	612.947
389.146	19.115	791.246	611.823
390.161	18.721	790.305	609.642
391.175	18.686	789.963	609.200
392.190	18.767	790.297	609.691
393.205	18.939	789.076	609.305
394.219	18.330	787.616	605.968
395.234	17.301	785.821	600.898
396.248	16.675	785.298	598.236
397.263	17.514	785.782	601.516
398.278	18.921	786.888	607.284
399.292	19.297	786.686	608.401
400.307	19.003	786.183	606.921
401.321	19.121	785.595	606.827
402.336	19.000	785.202	606.046
403.350	19.396	784.998	607.230
404.365	19.560	784.764	607.572
405.380	19.730	784.190	607.671
406.394	19.806	783.875	607.640
407.409	20.001	783.126	607.690
408.423	19.795	782.889	606.728
409.438	19.652	782.568	605.927
410.453	19.886	782.009	606.259
411.467	19.955	781.743	606.239
412.482	19.954	780.954	605.571
413.496	19.779	780.873	604.842
414.511	19.941	780.420	605.005
415.526	19.949	779.905	604.580
416.540	19.992	779.566	604.414
417.555	19.888	778.981	603.546
418.569	19.815	777.749	602.284
419.584	19.580	777.411	601.150
420.599	19.672	776.821	600.960
421.613	154.128	1357.969	1790.474
422.628	133.024	1442.641	1790.573
