DTS Sentinel unit serial number:	SN413079Multiplexer serial number:	ORYXHardware model number:	OX4-SRSoftware version number:	ORYX F/W v4.00 Oryx Data Collector v3.7.2.0data status	okinstallation	princeton_trtdifferential loss correction	single-endedforward channel	channel 3reverse channel	N/Adate	2019/09/11time	17:54:11forward acquisition time	60.00reverse acquisition time	0.00gamma	496.2192k internal	0.2286k external	0.2286temperature offset calibration	0.9993default loss term (dB/km)	0.3790temperature slope calibration	1.0000multiplexer offset coefficient	1.0000multiplexer slope coefficient	1.0000fibre end	0.00T internal ref (°C)	44.00T ext. ref 1 (°C)	1.13T ext. ref 2 (°C)	38.95length (m)	temperature (°C)	Stokes	anti-Stokes-747.200	-2.120	0.080	0.058
-746.185	144.068	0.216	0.296
-745.171	219.435	-0.061	-0.101
-744.156	-62.397	-0.464	-0.198
-743.142	-17.294	-0.025	-0.016
-742.127	400.401	0.121	0.261
-741.112	139.727	0.122	0.164
-740.098	800.000	-0.112	0.427
-739.083	800.000	-0.057	0.183
-738.069	-200.000	-0.007	-0.216
-737.054	432.443	0.109	0.242
-736.039	76.250	-0.280	0.304
-735.025	14.147	0.262	0.210
-734.010	35.152	0.198	-0.178
-732.996	36.714	-0.156	-0.141
-731.981	-12.434	0.066	0.044
-730.966	-142.838	0.146	-0.015
-729.952	-158.894	-0.048	0.003
-728.937	-2.667	0.164	-0.118
-727.923	269.947	-0.056	0.102
-726.908	-200.000	0.001	0.338
-725.894	-200.000	-0.010	0.127
-724.879	800.000	-0.071	-0.203
-723.864	-137.756	-0.044	-0.005
-722.850	-89.029	0.284	-0.086
-721.835	-40.491	0.234	-0.124
-720.821	117.419	-0.113	0.143
-719.806	-84.658	-0.105	0.034
-718.791	268.123	0.157	-0.282
-717.777	-69.811	0.232	0.091
-716.762	-200.000	-0.017	0.197
-715.748	41.585	0.186	0.172
-714.733	-200.000	-0.016	0.168
-713.718	77.770	-0.179	0.195
-712.704	126.906	0.142	-0.184
-711.689	800.000	0.024	0.070
-710.675	-74.866	0.191	-0.070
-709.660	-200.000	-0.002	-0.197
-708.645	10.217	0.108	-0.084
-707.631	800.000	0.069	-0.282
-706.616	800.000	-0.119	-0.360
-705.602	-89.684	0.090	-0.027
-704.587	122.523	-0.047	-0.061
-703.572	-2.659	-0.305	0.219
-702.558	-200.000	0.006	-0.091
-701.543	12.538	0.255	0.202
-700.529	-144.069	0.161	-0.015
-699.514	89.998	0.194	0.222
-698.499	800.000	-0.121	-0.343
-697.485	-200.000	0.054	-0.340
-696.470	-200.000	-0.028	-0.160
-695.456	-200.000	-0.012	0.162
-694.441	-141.544	-0.486	-0.050
-693.426	603.137	-0.087	-0.221
-692.412	229.403	-0.112	0.187
-691.397	37.769	-0.136	-0.124
-690.383	240.829	-0.122	-0.208
-689.368	107.922	-0.206	-0.251
-688.354	771.290	-0.024	-0.066
-687.339	-174.751	0.195	0.006
-686.324	-200.000	0.107	0.482
-685.310	516.409	-0.083	-0.198
-684.295	-200.000	0.009	-0.058
-683.281	800.000	0.039	0.148
-682.266	-200.000	-0.012	-0.177
-681.251	296.524	-0.063	0.118
-680.237	-127.194	-0.147	-0.022
-679.222	-200.000	-0.021	-0.166
-678.208	-131.978	0.131	0.018
-677.193	220.683	-0.179	-0.294
-676.178	-200.000	-0.081	-0.367
-675.164	-127.934	0.251	0.037
-674.149	-200.000	0.046	-0.228
-673.135	415.216	0.195	-0.425
-672.120	120.386	0.137	-0.174
-671.105	384.242	-0.265	-0.559
-670.091	-5.438	-0.184	-0.129
-669.076	-194.763	0.166	-0.001
-668.062	-100.847	0.299	-0.075
-667.047	49.456	-0.372	-0.358
-666.032	-10.777	0.046	0.031
-665.018	-122.401	0.243	0.041
-664.003	-200.000	0.052	-0.247
-662.989	-200.000	-0.012	-0.177
-661.974	-155.384	0.069	-0.005
-660.959	-65.003	-0.134	-0.055
-659.945	-36.948	-0.232	-0.127
-658.930	-200.000	-0.161	-0.000
-657.916	-11.588	-0.251	-0.169
-656.901	387.963	0.109	-0.232
-655.886	53.815	0.197	-0.194
-654.872	32.013	-0.060	-0.053
-653.857	-37.431	-0.389	-0.212
-652.843	-123.906	0.039	0.006
-651.828	22.839	0.030	0.025
-650.814	-200.000	0.005	0.195
-649.799	59.818	0.119	0.120
-648.784	154.642	0.028	0.040
-647.770	-117.425	0.116	0.022
-646.755	-133.132	0.186	0.024
-645.741	60.987	0.282	0.286
-644.726	-140.273	0.101	-0.011
-643.711	800.000	0.102	0.304
-642.697	211.977	-0.277	-0.446
-641.682	800.000	-0.038	0.151
-640.668	50.064	-0.126	0.122
-639.653	753.125	0.094	-0.260
-638.638	-200.000	-0.004	-0.258
-637.624	88.510	0.109	0.124
-636.609	800.000	0.037	0.115
-635.595	45.745	-0.162	0.153
-634.580	42.653	-0.092	-0.085
-633.565	144.608	-0.114	-0.156
-632.551	44.167	0.266	0.250
-631.536	-47.389	0.287	0.143
-630.522	-200.000	0.094	0.422
-629.507	45.126	-0.133	-0.125
-628.492	-145.326	0.087	-0.008
-627.478	800.000	0.092	0.266
-626.463	-48.781	-0.115	-0.057
-625.449	-97.562	0.092	0.024
-624.434	-200.000	-0.020	0.113
-623.419	47.984	-0.090	-0.085
-622.405	99.630	-0.061	0.072
-621.390	800.000	0.046	-0.175
-620.376	-181.532	0.268	-0.005
-619.361	-47.945	-0.094	0.047
-618.346	-57.945	0.371	0.165
-617.332	17.673	-0.252	-0.204
-616.317	27.265	-0.146	-0.125
-615.303	235.517	-0.130	-0.220
-614.288	23.996	-0.352	-0.296
-613.273	-200.000	-0.053	0.257
-612.259	57.914	0.164	0.164
-611.244	-86.926	0.110	-0.034
-610.230	-107.468	0.205	0.046
-609.215	-200.000	-0.073	-0.383
-608.201	28.040	-0.123	-0.106
-607.186	-61.139	-0.205	-0.088
-606.171	295.437	-0.113	-0.212
-605.157	800.000	-0.056	-0.196
-604.142	800.000	0.070	0.302
-603.128	-200.000	0.021	0.112
-602.113	146.297	0.097	-0.132
-601.098	25.126	0.224	-0.189
-600.084	-48.327	-0.028	0.014
-599.069	220.589	-0.147	-0.240
-598.055	-2.472	0.460	-0.329
-597.040	77.303	0.313	-0.340
-596.025	235.528	-0.038	0.065
-595.011	800.000	-0.051	-0.178
-593.996	-10.467	-0.223	0.151
-592.982	61.583	-0.192	-0.195
-591.967	-61.410	0.303	0.130
-590.952	-63.767	-0.485	0.203
-589.938	-93.008	-0.495	-0.141
-588.923	391.913	-0.126	-0.266
-587.909	-181.945	0.222	-0.004
-586.894	190.175	0.051	0.078
-585.879	2.497	0.185	0.137
-584.865	800.000	-0.069	0.268
-583.850	293.083	0.191	0.355
-582.836	478.293	-0.119	-0.274
-581.821	-19.705	0.056	0.035
-580.806	-133.357	0.321	0.041
-579.792	88.585	-0.102	-0.116
-578.777	800.000	-0.043	-0.176
-577.763	-200.000	0.039	-0.248
-576.748	800.000	-0.088	0.279
-575.733	26.045	0.228	-0.194
-574.719	-137.589	0.395	-0.045
-573.704	14.300	-0.056	-0.044
-572.690	-130.298	-0.152	0.021
-571.675	-200.000	0.032	-0.224
-570.661	-113.203	0.188	-0.038
-569.646	-200.000	-0.037	-0.190
-568.631	-53.513	-0.221	0.103
-567.617	-120.289	0.137	0.024
-566.602	-145.953	0.182	-0.016
-565.588	-94.332	-0.281	0.078
-564.573	105.708	0.249	-0.300
-563.558	130.501	0.121	0.158
-562.544	-48.830	0.240	-0.117
-561.529	140.090	-0.085	0.114
-560.515	-51.207	0.253	0.121
-559.500	-35.636	-0.477	0.263
-558.485	56.791	-0.084	-0.084
-557.471	57.853	-0.145	0.145
-556.456	-79.093	0.332	0.115
-555.442	-77.617	-0.446	-0.158
-554.427	-200.000	0.008	0.089
-553.412	-200.000	-0.051	-0.257
-552.398	800.000	0.074	-0.328
-551.383	365.655	-0.158	0.325
-550.369	288.063	-0.109	0.201
-549.354	75.889	0.157	-0.169
-548.339	279.762	-0.230	-0.418
-547.325	-200.000	-0.066	-0.335
-546.310	76.493	-0.238	-0.257
-545.296	-140.584	-0.096	0.010
-544.281	160.529	-0.096	0.136
-543.266	17.733	0.161	-0.130
-542.252	-87.751	0.317	-0.097
-541.237	99.949	0.145	0.171
-540.223	-123.348	-0.251	-0.041
-539.208	31.477	0.066	-0.058
-538.193	28.149	-0.050	-0.043
-537.179	-23.589	0.178	-0.109
-536.164	-54.104	-0.099	-0.046
-535.150	-2.896	-0.131	-0.093
-534.135	167.032	-0.153	0.221
-533.121	-200.000	0.025	0.205
-532.106	141.360	0.239	-0.322
-531.091	210.125	0.208	0.333
-530.077	21.010	-0.279	-0.230
-529.062	800.000	-0.105	0.341
-528.048	78.546	0.147	0.159
-527.033	122.011	0.043	-0.055
-526.018	8.963	-0.130	0.100
-525.004	446.947	-0.047	0.104
-523.989	695.701	-0.133	0.356
-522.975	-200.000	0.043	0.297
-521.960	98.219	0.216	-0.254
-520.945	-59.603	0.140	0.061
-519.931	-8.234	0.215	0.147
-518.916	-62.492	-0.266	-0.112
-517.902	-200.000	0.010	0.088
-516.887	-143.117	0.050	0.005
-515.872	749.992	-0.051	0.141
-514.858	-200.000	0.008	-0.055
-513.843	800.000	-0.034	-0.117
-512.829	800.000	0.127	0.412
-511.814	800.000	-0.098	0.307
-510.799	-144.542	-0.222	-0.021
-509.785	398.561	0.134	0.285
-508.770	-19.133	0.282	-0.178
-507.756	-0.372	-0.084	-0.061
-506.741	91.489	-0.068	-0.077
-505.726	-136.933	0.169	-0.020
-504.712	445.882	-0.161	-0.359
-503.697	-61.260	0.107	-0.046
-502.683	-150.678	-0.297	-0.023
-501.668	800.000	-0.071	0.252
-500.653	-79.937	-0.089	-0.031
-499.639	81.679	-0.112	-0.123
-498.624	-76.017	0.466	0.168
-497.610	-118.602	0.114	0.020
-496.595	431.562	-0.045	-0.098
-495.581	-200.000	-0.018	0.242
-494.566	18.893	-0.079	0.064
-493.551	208.228	0.144	-0.229
-492.537	99.387	0.158	-0.186
-491.522	491.591	-0.042	0.098
-490.508	-96.560	-0.284	0.076
-489.493	800.000	0.088	-0.261
-488.478	-59.169	-0.301	0.132
-487.464	-200.000	0.000	-0.122
-486.449	30.701	-0.135	0.118
-485.435	-66.098	0.132	-0.053
-484.420	405.078	-0.085	0.181
-483.405	223.999	-0.106	0.175
-482.391	-144.739	0.168	0.016
-481.376	-57.595	0.238	0.106
-480.362	-31.491	-0.269	-0.154
-479.347	800.000	0.012	-0.045
-478.332	-1.277	-0.043	-0.031
-477.318	-68.366	-0.267	0.105
-476.303	-200.000	-0.047	-0.322
-475.289	-200.000	0.066	0.341
-474.274	4.069	0.082	-0.061
-473.259	236.304	0.077	-0.130
-472.245	97.162	0.249	0.290
-471.230	-55.522	0.363	-0.165
-470.216	-200.000	0.024	-0.287
-469.201	431.837	0.036	-0.080
-468.186	-94.045	0.101	-0.028
-467.172	70.161	-0.266	0.279
-466.157	-200.000	0.001	-0.198
-465.143	379.311	-0.096	0.199
-464.128	606.493	0.071	0.180
-463.113	-200.000	-0.054	0.393
-462.099	-112.509	-0.245	0.050
-461.084	-200.000	0.059	-0.280
-460.070	-48.762	-0.076	-0.037
-459.055	-200.000	0.026	-0.303
-458.040	180.232	0.156	-0.232
-457.026	-14.373	0.064	-0.042
-456.011	-117.075	-0.073	0.014
-454.997	190.867	-0.116	0.177
-453.982	-131.321	-0.386	0.052
-452.968	231.123	0.045	0.074
-451.953	-200.000	-0.077	-0.409
-450.938	-22.659	-0.202	0.124
-449.924	133.731	0.148	0.194
-448.909	-16.444	0.200	-0.129
-447.895	191.466	0.063	-0.096
-446.880	90.638	-0.123	0.139
-445.865	-132.025	-0.158	0.021
-444.851	-54.567	0.289	-0.133
-443.836	127.764	-0.174	-0.225
-442.822	-189.032	-0.195	0.002
-441.807	275.699	-0.165	-0.297
-440.792	-151.937	-0.208	-0.015
-439.778	98.627	0.112	0.131
-438.763	-51.729	-0.330	0.156
-437.749	-148.811	-0.179	0.015
-436.734	-108.686	0.113	-0.025
-435.719	-165.279	0.392	0.018
-434.705	75.093	0.114	-0.121
-433.690	-34.932	0.158	0.087
-432.676	-46.030	-0.123	0.062
-431.661	-25.895	0.191	0.114
-430.646	28.843	0.148	0.127
-429.632	-1.797	-0.295	0.210
-428.617	235.376	-0.065	-0.109
-427.603	-200.000	0.007	-0.545
-426.588	-83.232	-0.119	0.039
-425.573	-200.000	0.012	-0.143
-424.559	527.255	0.064	0.152
-423.544	21.512	0.218	0.179
-422.530	-147.890	0.465	-0.039
-421.515	-68.374	-0.170	0.067
-420.500	-79.075	0.047	0.016
-419.486	-112.938	0.317	-0.063
-418.471	121.699	0.065	-0.082
-417.457	-46.062	-0.301	0.150
-416.442	-48.871	0.070	0.034
-415.428	57.452	0.225	-0.223
-414.413	-108.653	0.112	-0.024
-413.398	-200.000	0.009	0.120
-412.384	800.000	-0.024	0.087
-411.369	800.000	0.048	-0.188
-410.355	-15.507	0.075	-0.048
-409.340	135.462	-0.148	0.196
-408.325	-91.990	0.138	0.039
-407.311	122.350	-0.179	0.226
-406.296	393.940	0.127	0.267
-405.282	13.800	-0.127	-0.100
-404.267	-57.649	0.020	0.009
-403.252	13.804	-0.112	0.088
-402.238	-200.000	-0.030	0.283
-401.223	23.037	-0.181	0.151
-400.209	-200.000	0.040	0.181
-399.194	0.163	-0.113	-0.082
-398.179	-200.000	0.008	-0.049
-397.165	-94.014	-0.011	0.003
-396.150	-41.139	0.127	0.066
-395.136	198.191	-0.041	-0.064
-394.121	553.597	-0.094	0.230
-393.106	218.901	-0.106	-0.172
-392.092	-146.277	0.110	0.010
-391.077	-200.000	-0.031	0.212
-390.063	-158.716	-0.302	-0.018
-389.048	-62.774	0.218	0.092
-388.033	182.576	-0.244	-0.365
-387.019	-52.213	-0.142	0.067
-386.004	-22.590	-0.210	-0.129
-384.990	45.354	0.194	0.181
-383.975	-200.000	-0.004	0.146
-382.960	-200.000	-0.030	0.150
-381.946	-10.712	0.040	0.027
-380.931	-116.302	0.332	-0.062
-379.917	189.704	-0.049	-0.075
-378.902	17.615	0.326	0.262
-377.888	143.095	0.170	-0.228
-376.873	6.132	-0.167	-0.125
-375.858	-100.605	0.313	-0.078
-374.844	-20.433	0.044	0.027
-373.829	234.890	-0.060	0.100
-372.815	-22.336	-0.349	0.214
-371.800	210.722	-0.120	0.191
-370.785	202.865	-0.110	-0.172
-369.771	-117.943	-0.257	-0.047
-368.756	800.000	0.143	-0.450
-367.742	-55.616	0.090	0.041
-366.727	800.000	0.051	-0.192
-365.712	-200.000	0.005	-0.078
-364.698	-157.518	-0.240	0.015
-363.683	800.000	-0.040	0.160
-362.669	-35.147	-0.177	-0.097
-361.654	31.997	0.032	0.028
-360.639	152.407	-0.092	0.128
-359.625	800.000	-0.032	0.116
-358.610	-75.554	-0.172	0.062
-357.596	-200.000	-0.011	0.201
-356.581	6.796	-0.082	-0.062
-355.566	219.473	0.074	-0.119
-354.552	-79.092	0.306	-0.105
-353.537	99.270	-0.096	0.113
-352.523	-22.272	0.109	0.067
-351.508	800.000	-0.030	0.101
-350.493	210.829	-0.112	0.179
-349.479	800.000	-0.009	0.025
-348.464	-200.000	-0.002	-0.013
-347.450	221.269	0.217	0.352
-346.435	-123.620	0.175	-0.028
-345.420	800.000	-0.034	0.102
-344.406	102.163	-0.039	-0.046
-343.391	-126.933	-0.185	0.027
-342.377	-118.104	0.094	-0.017
-341.362	57.214	-0.273	0.269
-340.348	-163.123	-0.152	-0.007
-339.333	-200.000	-0.007	0.270
-338.318	23.486	0.131	-0.108
-337.304	281.047	0.143	-0.259
-336.289	-69.698	-0.486	0.188
-335.275	-200.000	-0.039	-0.179
-334.260	-163.320	-0.267	0.013
-333.245	-200.000	0.037	0.178
-332.231	-200.000	0.014	0.099
-331.216	-106.942	-0.430	-0.096
-330.202	800.000	-0.024	0.075
-329.187	118.752	-0.137	0.170
-328.172	333.381	0.052	0.101
-327.158	-115.687	0.193	0.036
-326.143	-200.000	0.005	0.097
-325.129	-200.000	0.001	0.100
-324.114	-124.610	-0.259	0.041
-323.099	314.607	-0.017	0.031
-322.085	-46.605	0.111	0.055
-321.070	-182.183	0.267	0.005
-320.056	17.709	0.120	-0.097
-319.041	-142.043	-0.554	-0.056
-318.026	-200.000	0.076	-0.402
-317.012	-38.818	-0.184	0.098
-315.997	329.040	0.110	-0.213
-314.983	-126.761	-0.304	-0.045
-313.968	-96.778	0.258	0.069
-312.953	214.962	0.089	-0.142
-311.939	290.700	0.135	0.248
-310.924	44.505	0.292	0.270
-309.910	6.474	-0.174	0.131
-308.895	-200.000	0.005	0.087
-307.880	-132.918	0.279	-0.036
-306.866	93.259	0.113	-0.129
-305.851	-200.000	0.032	0.305
-304.837	217.606	0.131	0.210
-303.822	-200.000	-0.031	0.181
-302.807	598.655	-0.083	0.207
-301.793	146.816	0.070	0.094
-300.778	-70.117	0.270	-0.104
-299.764	-130.073	0.201	0.028
-298.749	293.254	-0.135	0.249
-297.735	-126.907	0.169	-0.025
-296.720	-118.741	-0.224	-0.040
-295.705	-126.403	0.264	0.040
-294.691	32.772	-0.252	0.220
-293.676	800.000	-0.110	0.367
-292.662	-44.776	0.012	-0.006
-291.647	800.000	0.023	-0.073
-290.632	-200.000	-0.050	-0.353
-289.618	116.398	-0.121	0.149
-288.603	215.000	0.086	-0.137
-287.589	66.326	0.353	-0.362
-286.574	-11.342	-0.231	-0.153
-285.559	-200.000	0.014	0.110
-284.545	105.893	0.265	0.316
-283.530	800.000	0.059	-0.226
-282.516	-200.000	-0.007	0.094
-281.501	40.810	0.096	-0.087
-280.486	21.740	-0.099	0.081
-279.472	800.000	-0.051	0.180
-278.457	114.361	-0.134	0.165
-277.443	245.074	-0.080	-0.135
-276.428	-39.972	-0.337	-0.177
-275.413	-51.343	0.204	0.096
-274.399	-55.998	0.389	-0.175
-273.384	-89.655	0.288	0.085
-272.370	-200.000	0.014	-0.094
-271.355	-25.774	-0.205	-0.122
-270.340	800.000	0.065	0.236
-269.326	28.916	0.067	-0.057
-268.311	543.619	0.173	0.415
-267.297	329.993	-0.121	0.235
-266.282	-37.616	0.225	-0.121
-265.267	-89.911	-0.342	0.101
-264.253	-104.021	-0.205	-0.048
-263.238	242.674	0.191	-0.323
-262.224	13.841	-0.311	-0.243
-261.209	-84.302	-0.190	0.061
-260.195	373.809	-0.091	0.186
-259.180	-200.000	-0.004	-0.134
-258.165	176.848	0.051	-0.075
-257.151	97.178	0.180	-0.208
-256.136	-189.528	-0.203	-0.002
-255.122	-14.892	0.144	0.093
-254.107	-200.000	0.023	-0.176
-253.092	-56.067	-0.242	-0.109
-252.078	79.438	-0.249	0.268
-251.063	-44.072	0.054	-0.027
-250.049	-40.829	-0.062	0.032
-249.034	-110.412	0.097	0.020
-248.019	-200.000	0.032	-0.549
-247.005	-200.000	0.022	-0.494
-245.990	277.005	-0.099	-0.176
-244.976	-80.765	-0.388	0.130
-243.961	247.428	-0.102	0.174
-242.946	23.207	0.089	0.073
-241.932	92.193	-0.051	-0.057
-240.917	800.000	-0.068	-0.225
-239.903	76.327	0.146	0.155
-238.888	73.443	-0.178	0.188
-237.873	-200.000	0.033	0.259
-236.859	126.969	0.037	-0.047
-235.844	-146.925	-0.148	0.013
-234.830	-148.319	-0.297	-0.025
-233.815	12.668	-0.119	0.093
-232.800	-200.000	0.081	-0.512
-231.786	-40.955	-0.080	0.041
-230.771	-200.000	0.009	0.180
-229.757	800.000	-0.050	-0.145
-228.742	642.418	-0.116	-0.297
-227.727	418.773	0.075	-0.161
-226.713	-137.605	0.248	0.028
-225.698	-191.661	-0.134	0.001
-224.684	-156.475	-0.038	0.002
-223.669	-24.758	0.193	-0.115
-222.655	-58.082	0.307	-0.135
-221.640	619.509	0.087	-0.221
-220.625	175.803	-0.205	0.299
-219.611	342.318	-0.108	-0.212
-218.596	-8.352	0.078	-0.053
-217.582	800.000	-0.059	-0.222
-216.567	800.000	0.061	-0.188
-215.552	-120.649	-0.384	0.065
-214.538	-200.000	-0.038	-0.198
-213.523	-157.305	0.066	0.004
-212.509	140.463	0.267	0.354
-211.494	-84.850	0.356	-0.112
-210.479	-200.000	0.016	0.183
-209.465	7.514	0.135	-0.101
-208.450	-114.350	-0.303	-0.059
-207.436	-148.142	-0.293	-0.024
-206.421	-134.519	0.114	0.014
-205.406	-200.000	0.024	-0.232
-204.392	-200.000	-0.061	-0.295
-203.377	221.893	0.279	0.450
-202.363	194.700	-0.075	-0.115
-201.348	-39.864	-0.303	-0.159
-200.333	-74.521	0.216	0.078
-199.319	-200.000	0.076	-0.351
-198.304	136.798	-0.215	0.283
-197.290	-137.355	-0.056	0.006
-196.275	-200.000	-0.011	0.320
-195.260	-90.796	0.060	-0.018
-194.246	-200.000	0.025	-0.410
-193.231	523.973	-0.047	-0.111
-192.217	-142.407	0.086	0.008
-191.202	12.423	0.125	-0.097
-190.187	104.598	0.089	-0.106
-189.173	61.329	-0.037	0.037
-188.158	97.901	0.031	-0.035
-187.144	85.461	0.074	-0.082
-186.129	-3.473	0.248	0.173
-185.114	-147.076	0.521	-0.045
-184.100	-53.451	0.169	-0.078
-183.085	-200.000	-0.009	0.179
-182.071	279.667	0.086	0.155
-181.056	-62.933	-0.277	0.115
-180.042	-121.883	0.031	0.005
-179.027	322.865	0.177	-0.339
-178.012	-39.808	0.143	0.075
-176.998	1.591	0.169	-0.122
-175.983	309.955	0.039	-0.072
-174.969	800.000	0.061	-0.200
-173.954	-6.794	-0.441	0.301
-172.939	-124.905	-0.300	0.046
-171.925	-200.000	0.004	0.020
-170.910	145.582	0.123	0.165
-169.896	-166.666	-0.246	0.010
-168.881	-29.740	-0.062	-0.035
-167.866	-200.000	0.002	-0.064
-166.852	-200.000	0.005	0.040
-165.837	156.110	-0.084	0.117
-164.823	58.596	0.330	0.325
-163.808	-200.000	0.002	-0.116
-162.793	-120.411	0.334	-0.057
-161.779	800.000	-0.040	0.124
-160.764	241.220	-0.027	-0.045
-159.750	-63.801	0.155	-0.064
-158.735	800.000	-0.092	-0.403
-157.720	490.610	0.193	0.444
-156.706	101.674	-0.107	0.125
-155.691	611.022	-0.111	-0.278
-154.677	-200.000	0.024	-0.437
-153.662	-48.048	-0.050	-0.024
-152.647	-0.308	0.177	-0.126
-151.633	15.643	0.185	0.146
-150.618	605.933	0.104	-0.259
-149.604	-107.005	0.066	0.015
-148.589	14.012	-0.235	-0.184
-147.574	-200.000	0.055	0.269
-146.560	-200.000	0.052	0.231
-145.545	-200.000	-0.017	0.097
-144.531	-200.000	-0.000	-0.187
-143.516	274.736	-0.041	0.073
-142.502	386.464	-0.049	0.101
-141.487	717.621	0.066	-0.177
-140.472	194.752	-0.110	0.167
-139.458	48.842	-0.254	0.239
-138.443	-200.000	-0.053	-0.251
-137.429	10.186	-0.219	0.167
-136.414	-103.346	-0.063	0.015
-135.399	-200.000	-0.001	0.410
-134.385	548.283	-0.090	0.216
-133.370	143.443	0.245	0.327
-132.356	-165.124	0.244	-0.011
-131.341	753.009	-0.150	-0.407
-130.326	231.981	0.134	0.220
-129.312	-108.659	0.217	0.047
-128.297	344.765	0.048	0.095
-127.283	-89.580	0.257	-0.075
-126.268	392.681	0.109	-0.227
-125.253	-200.000	-0.032	0.255
-124.239	169.680	-0.216	-0.309
-123.224	-105.066	0.137	0.031
-122.210	-37.289	0.056	0.030
-121.195	-139.925	-0.118	-0.012
-120.180	534.360	0.103	-0.244
-119.166	800.000	0.148	-0.465
-118.151	614.129	0.106	0.265
-117.137	-200.000	-0.051	0.253
-116.122	-26.861	0.243	-0.142
-115.107	177.289	0.114	0.166
-114.093	-151.046	-0.224	0.017
-113.078	492.346	0.117	0.269
-112.064	800.000	0.061	-0.187
-111.049	41.649	0.156	0.141
-110.034	-200.000	0.120	0.547
-109.020	337.095	0.040	-0.078
-108.005	-200.000	0.024	-0.113
-106.991	800.000	-0.099	0.417
-105.976	105.452	0.109	0.128
-104.962	-165.598	0.338	-0.015
-103.947	800.000	-0.106	-0.339
-102.932	-25.978	0.135	0.080
-101.918	0.080	0.068	0.049
-100.903	-200.000	-0.018	0.100
-99.889	94.441	0.090	0.102
-98.874	-128.882	-0.215	-0.030
-97.859	72.201	0.090	0.094
-96.845	31.014	0.090	-0.077
-95.830	-200.000	-0.044	-0.340
-94.816	800.000	0.024	-0.091
-93.801	-100.304	0.276	-0.069
-92.786	-200.000	-0.026	0.326
-91.772	-200.000	0.035	-0.165
-90.757	-123.037	-0.292	0.047
-89.743	800.000	0.051	0.220
-88.728	87.785	-0.099	0.109
-87.713	-111.191	-0.054	-0.011
-86.699	-99.685	0.246	0.062
-85.684	-44.438	-0.216	0.108
-84.670	-135.802	-0.294	0.035
-83.655	-131.226	-0.275	0.036
-82.640	-188.183	-0.082	0.001
-81.626	-45.063	0.191	-0.095
-80.611	-196.669	0.155	-0.001
-79.597	-104.519	0.079	0.018
-78.582	-105.483	0.478	-0.109
-77.567	-200.000	0.011	0.093
-76.553	-116.711	-0.120	-0.022
-75.538	72.967	-0.272	-0.284
-74.524	-198.289	0.383	-0.002
-73.509	800.000	0.026	0.092
-72.494	-101.668	-0.284	-0.069
-71.480	800.000	0.007	0.027
-70.465	66.666	0.275	-0.279
-69.451	-200.000	0.067	-0.323
-68.436	13.189	0.276	0.213
-67.422	390.771	0.060	-0.125
-66.407	-106.735	-0.139	0.031
-65.392	-59.687	-0.204	0.088
-64.378	-76.064	0.210	-0.074
-63.363	800.000	0.084	0.258
-62.349	800.000	0.122	-0.399
-61.334	-0.954	-0.924	-0.653
-60.319	-200.000	0.007	0.046
-59.305	-200.000	-0.068	-0.689
-58.290	-45.618	0.816	0.403
-57.276	800.000	0.471	1.546
-56.261	-200.000	70.752	523.404
-55.246	606.990	1268.034	3158.163
-54.232	147.163	2487.826	3343.757
-53.217	121.942	2241.446	2793.797
-52.203	55.756	1764.641	1708.221
-51.188	47.782	1558.224	1452.847
-50.173	44.727	1527.578	1403.210
-49.159	59.925	1561.004	1539.713
-48.144	67.441	1581.206	1611.706
-47.130	47.990	1545.967	1442.636
-46.115	44.291	1531.022	1403.136
-45.100	44.156	1527.914	1399.306
-44.086	44.071	1526.103	1397.001
-43.071	43.938	1524.521	1394.583
-42.057	43.960	1522.366	1392.708
-41.042	43.899	1520.709	1390.718
-40.027	44.006	1519.262	1390.078
-39.013	44.046	1517.717	1388.880
-37.998	43.994	1516.508	1387.359
-36.984	44.080	1515.317	1386.805
-35.969	43.941	1514.305	1384.872
-34.954	44.056	1512.438	1383.894
-33.940	43.976	1511.533	1382.466
-32.925	44.037	1509.882	1381.321
-31.911	44.036	1508.381	1379.887
-30.896	44.067	1506.707	1378.511
-29.881	44.120	1505.387	1377.610
-28.867	44.077	1504.073	1376.056
-27.852	44.053	1502.694	1374.579
-26.838	44.114	1500.911	1373.305
-25.823	44.092	1499.328	1371.655
-24.809	44.078	1497.227	1369.580
-23.794	44.165	1496.150	1369.130
-22.779	44.004	1495.490	1367.385
-21.765	44.121	1494.024	1366.784
-20.750	44.088	1493.123	1365.682
-19.736	44.005	1491.847	1363.902
-18.721	44.007	1490.733	1362.842
-17.706	43.977	1489.440	1361.405
-16.692	43.951	1488.347	1360.176
-15.677	43.942	1487.677	1359.447
-14.663	43.918	1486.639	1358.289
-13.648	43.908	1485.680	1357.290
-12.633	43.932	1484.483	1356.299
-11.619	43.898	1483.852	1355.446
-10.604	43.876	1482.767	1354.254
-9.590	43.951	1481.589	1353.626
-8.575	43.960	1480.687	1352.806
-7.560	44.006	1480.070	1352.498
-6.546	43.974	1478.913	1351.169
-5.531	43.809	1478.918	1350.020
-4.517	43.975	1476.915	1349.248
-3.502	43.955	1476.190	1348.395
-2.487	43.978	1475.174	1347.569
-1.473	43.844	1474.010	1345.562
-0.458	43.954	1472.886	1345.210
0.556	43.373	1463.797	1336.045
1.571	40.686	1436.072	1293.149
2.586	36.678	1374.128	1212.214
3.600	34.421	1290.197	1124.774
4.615	32.120	1242.191	1069.738
5.629	26.729	1182.733	989.113
6.644	13.392	1088.383	842.664
7.659	2.976	1039.147	753.600
8.673	1.464	1032.574	741.394
9.688	1.206	1029.774	738.060
10.702	0.862	1028.572	735.465
11.717	0.980	1026.452	734.455
12.731	4.988	1032.370	758.146
13.746	16.224	1048.236	824.941
14.761	23.359	1057.148	866.926
15.775	23.606	1056.210	867.286
16.790	23.740	1055.575	867.342
17.804	23.517	1054.839	865.575
18.819	23.381	1053.670	863.876
19.834	23.552	1052.783	863.902
20.848	23.512	1052.863	863.695
21.863	23.416	1052.834	863.128
22.877	23.617	1052.037	863.378
23.892	23.506	1051.265	862.129
24.907	23.454	1050.549	861.212
25.921	23.439	1049.844	860.487
26.936	23.436	1049.175	859.847
27.950	23.347	1048.430	858.727
28.965	23.517	1046.714	858.069
29.980	23.316	1045.259	855.830
30.994	23.171	1044.184	854.176
32.009	23.442	1043.309	854.689
33.023	23.621	1042.241	854.599
34.038	23.297	1041.821	852.622
35.053	23.317	1040.733	851.754
36.067	23.534	1039.950	852.080
37.082	23.426	1039.548	851.153
38.096	23.562	1038.579	850.939
39.111	23.731	1037.656	850.917
40.126	23.754	1037.314	850.671
41.140	23.749	1035.882	849.395
42.155	23.576	1034.439	847.314
43.169	23.166	1032.855	843.984
44.184	23.084	1032.074	842.884
45.199	23.087	1031.232	842.135
46.213	23.129	1030.208	841.421
47.228	23.001	1029.417	840.094
48.242	23.212	1028.821	840.534
49.257	23.338	1027.833	840.250
50.271	23.466	1027.407	840.435
51.286	23.508	1026.407	839.741
52.301	23.507	1025.591	838.995
53.315	23.490	1025.329	838.629
54.330	23.616	1024.161	838.194
55.344	23.356	1023.879	836.658
56.359	23.589	1022.239	836.345
57.374	23.516	1021.641	835.436
58.388	23.292	1020.548	833.413
59.403	23.295	1020.031	832.933
60.417	23.257	1019.405	832.168
61.432	23.074	1018.539	830.529
62.447	23.138	1017.737	830.100
63.461	23.320	1017.075	830.340
64.476	23.275	1016.526	829.607
65.490	23.108	1015.435	827.864
66.505	23.101	1014.527	827.016
67.520	23.272	1013.357	826.788
68.534	23.388	1012.782	826.788
69.549	23.260	1012.120	825.578
70.563	22.868	1010.792	822.594
71.578	22.732	1010.259	821.459
72.593	22.788	1009.392	820.940
73.607	22.655	1007.967	819.092
74.622	22.701	1007.222	818.625
75.636	22.872	1006.692	818.917
76.651	23.094	1005.861	819.196
77.666	22.928	1005.003	817.655
78.680	23.004	1003.736	816.905
79.695	22.804	1003.709	815.885
80.709	22.955	1003.104	816.019
81.724	23.179	1001.870	815.976
82.739	23.021	1001.650	814.999
83.753	23.012	1000.658	814.076
84.768	23.302	1000.042	814.839
85.782	23.688	999.440	816.050
86.797	23.876	998.825	816.338
87.812	23.712	997.453	814.394
88.826	23.604	997.014	813.467
89.841	23.596	996.202	812.698
90.855	23.678	995.548	812.465
91.870	23.693	994.727	811.794
92.884	23.729	993.886	811.198
93.899	23.629	993.016	809.961
94.914	23.455	992.052	808.309
95.928	23.567	991.314	808.148
96.943	23.700	990.284	807.840
97.957	23.335	989.535	805.498
98.972	23.144	988.249	803.513
99.987	22.971	987.151	801.763
101.001	23.008	986.873	801.637
102.016	23.366	986.132	802.585
103.030	23.491	985.413	802.494
104.045	23.382	984.096	800.860
105.060	23.184	982.774	798.816
106.074	23.095	981.752	797.516
107.089	23.105	981.106	796.965
108.103	23.352	980.734	797.704
109.118	23.496	979.487	797.266
110.133	23.180	978.634	795.081
111.147	23.279	977.476	794.513
112.162	23.136	976.302	792.851
113.176	22.840	975.280	790.625
114.191	23.071	974.326	790.814
115.206	23.199	973.558	790.693
116.220	22.761	972.784	788.037
117.235	22.599	971.973	786.591
118.249	22.851	971.258	787.067
119.264	22.838	970.181	786.063
120.279	22.832	969.333	785.283
121.293	22.745	968.463	784.120
122.308	22.971	967.802	784.520
123.322	22.980	967.247	784.041
124.337	22.916	966.132	782.782
125.352	22.870	965.033	781.619
126.366	22.467	962.754	777.926
127.381	22.143	961.526	775.435
128.395	22.453	961.749	776.914
129.410	23.280	961.506	780.295
130.424	23.358	960.380	779.654
131.439	23.313	959.537	778.705
132.454	23.357	958.378	777.886
133.468	23.225	957.758	776.736
134.483	23.315	956.735	776.232
135.497	23.375	955.887	775.741
136.512	23.606	955.301	776.206
137.527	23.621	955.060	776.005
138.541	23.723	953.847	775.399
139.556	23.674	953.485	774.819
140.570	23.676	952.678	774.103
141.585	23.631	951.814	773.137
142.600	23.729	951.031	772.862
143.614	23.670	950.114	771.790
144.629	23.860	949.644	772.164
145.643	23.941	949.073	771.987
146.658	23.936	947.780	770.842
147.673	23.818	946.244	769.013
148.687	23.587	945.477	767.326
149.702	23.401	944.530	765.687
150.716	23.548	943.007	765.015
151.731	23.351	942.333	763.552
152.746	23.475	941.308	763.190
153.760	23.580	941.457	763.695
154.775	23.627	940.470	763.029
155.789	23.677	939.821	762.651
156.804	23.756	938.723	762.031
157.819	23.632	937.567	760.491
158.833	23.650	936.812	759.891
159.848	23.719	936.486	759.853
160.862	23.933	934.923	759.431
161.877	23.792	934.094	758.089
162.892	23.643	933.179	756.647
163.906	23.662	932.575	756.169
164.921	23.795	931.265	755.606
165.935	23.630	930.697	754.377
166.950	23.618	929.565	753.340
167.964	23.798	928.748	753.377
168.979	23.843	927.962	752.863
169.994	23.609	927.141	751.141
171.008	23.405	925.952	749.248
172.023	23.626	925.161	749.472
173.037	23.863	924.664	750.003
174.052	23.617	923.388	747.868
175.067	23.439	922.705	746.500
176.081	23.469	921.674	745.724
177.096	23.560	920.857	745.378
178.110	23.592	919.888	744.662
179.125	23.317	919.078	742.791
180.140	22.972	918.101	740.489
181.154	23.010	917.607	740.184
182.169	23.203	916.780	740.259
183.183	23.382	916.926	741.060
184.198	23.719	916.708	742.228
185.213	23.690	915.610	741.151
186.227	23.534	915.308	740.189
187.242	23.696	914.763	740.357
188.256	23.756	914.178	740.072
189.271	23.760	912.519	738.677
190.286	23.733	912.211	738.249
191.300	23.640	911.594	737.302
192.315	23.170	910.187	734.145
193.329	22.438	908.693	729.847
194.344	22.009	907.572	727.102
195.359	22.455	907.889	729.141
196.373	23.423	908.226	733.352
197.388	23.842	907.639	734.549
198.402	23.742	907.052	733.594
199.417	23.628	906.488	732.601
200.432	23.614	906.214	732.258
201.446	23.579	905.463	731.440
202.461	23.301	904.314	729.305
203.475	23.256	904.159	728.931
204.490	22.955	902.241	726.080
205.504	21.652	900.539	719.300
206.519	21.990	900.671	720.729
207.534	23.118	900.516	725.168
208.548	23.226	900.186	725.283
209.563	23.467	900.009	726.063
210.577	23.589	899.635	726.195
211.592	23.210	898.715	723.838
212.607	23.577	898.424	725.041
213.621	23.752	897.962	725.318
214.636	23.682	897.120	724.289
215.650	23.788	896.442	724.107
216.665	23.675	895.861	723.118
217.680	23.723	895.487	722.945
218.694	23.784	895.196	722.896
219.709	23.597	893.760	720.912
220.723	23.303	893.072	719.098
221.738	23.259	892.518	718.411
222.753	23.565	892.208	719.339
223.767	23.548	891.470	718.611
224.782	23.612	890.806	718.273
225.796	23.774	890.602	718.700
226.811	23.901	889.908	718.590
227.826	23.471	888.610	715.740
228.840	22.757	886.952	711.466
229.855	22.506	886.640	710.141
230.869	22.893	886.279	711.348
231.884	22.539	885.123	708.933
232.899	22.616	884.331	708.544
233.913	23.272	884.905	711.579
234.928	23.584	883.846	711.915
235.942	23.515	883.416	711.232
236.957	23.475	883.057	710.717
237.972	23.186	882.150	708.767
238.986	23.200	881.506	708.244
240.001	23.296	880.884	708.065
241.015	23.334	880.286	707.673
242.030	23.425	879.812	707.594
243.045	23.443	879.178	707.091
244.059	23.510	878.956	707.118
245.074	23.800	878.256	707.648
246.088	23.732	877.758	706.913
247.103	23.273	876.500	704.015
248.117	23.290	876.328	703.881
249.132	23.827	876.454	706.052
250.147	24.161	876.026	706.972
251.161	24.297	875.422	706.961
252.176	24.454	874.801	707.019
253.190	24.394	874.012	706.080
254.205	24.588	873.499	706.372
255.220	24.686	873.331	706.559
256.234	24.651	872.526	705.708
257.249	24.545	872.271	705.023
258.263	24.522	871.335	704.112
259.278	24.390	870.783	703.085
260.293	24.581	870.143	703.258
261.307	24.620	869.825	703.090
262.322	24.567	868.905	702.076
263.336	24.326	868.547	700.779
264.351	23.847	867.312	697.839
265.366	22.872	865.163	692.229
266.380	22.210	864.272	688.863
267.395	23.184	864.410	692.726
268.409	24.019	864.776	696.225
269.424	23.913	864.183	695.272
270.439	24.025	863.998	695.499
271.453	24.271	863.196	695.754
272.468	24.260	862.660	695.215
273.482	24.387	861.854	695.000
274.497	24.627	861.307	695.434
275.512	24.460	860.625	694.169
276.526	23.799	859.282	690.458
277.541	23.886	859.198	690.669
278.555	24.322	858.662	691.869
279.570	24.276	857.825	690.953
280.585	23.929	857.637	689.395
281.599	23.971	857.385	689.294
282.614	24.146	856.961	689.572
283.628	23.763	855.302	686.696
284.643	23.350	854.419	684.330
285.657	23.822	854.176	685.898
286.672	23.668	854.095	685.177
287.687	23.213	852.959	682.453
288.701	23.417	852.961	683.180
289.716	24.014	852.600	685.128
290.730	23.654	851.716	682.974
291.745	23.508	850.876	681.679
292.760	23.241	850.037	679.921
293.774	23.054	849.671	678.849
294.789	24.117	849.605	682.814
295.803	24.809	849.704	685.485
296.818	24.920	849.322	685.544
297.833	24.927	848.889	685.159
298.847	24.632	847.667	682.986
299.862	24.340	846.435	680.819
300.876	24.404	846.028	680.674
301.891	24.765	846.208	682.137
302.906	24.906	845.236	681.829
303.920	24.451	844.321	679.298
304.935	24.358	843.398	678.144
305.949	24.761	843.300	679.536
306.964	24.898	842.899	679.671
307.979	24.588	842.173	677.850
308.993	24.589	841.486	677.240
310.008	24.873	841.449	678.227
311.022	24.962	841.367	678.441
312.037	24.916	840.443	677.459
313.052	24.543	839.817	675.484
314.066	24.508	839.071	674.694
315.081	23.849	837.730	671.067
316.095	23.024	836.464	666.886
317.110	23.599	836.573	669.080
318.125	24.429	836.965	672.463
319.139	24.219	835.688	670.589
320.154	22.972	834.255	664.692
321.168	22.552	833.331	662.319
322.183	23.164	833.376	664.596
323.197	24.032	833.739	668.086
324.212	24.352	833.383	668.939
325.227	24.489	833.112	669.179
326.241	24.649	832.697	669.385
327.256	24.609	831.812	668.465
328.270	24.459	831.514	667.604
329.285	24.307	831.252	666.768
330.300	24.032	830.137	664.787
331.314	24.052	829.018	663.908
332.329	24.048	828.656	663.542
333.343	24.564	827.948	664.837
334.358	24.744	827.932	665.439
335.373	24.685	827.282	664.634
336.387	24.731	827.215	664.696
337.402	24.976	826.546	665.008
338.416	25.194	826.344	665.593
339.431	25.110	825.682	664.692
340.446	25.066	825.308	664.168
341.460	25.177	825.147	664.391
342.475	25.275	824.285	664.002
343.489	25.264	823.154	662.991
344.504	24.935	823.065	661.645
345.519	25.262	822.301	662.178
346.533	25.425	822.179	662.623
347.548	25.549	821.700	662.635
348.562	25.551	821.214	662.195
349.577	25.515	820.805	661.672
350.592	25.459	820.087	660.829
351.606	25.396	819.539	660.098
352.621	25.366	819.298	659.735
353.635	25.379	818.551	659.121
354.650	25.244	818.285	658.354
355.665	25.034	817.249	656.692
356.679	23.974	815.645	651.466
357.694	23.635	815.535	650.081
358.708	24.306	815.077	652.112
359.723	24.420	814.146	651.728
360.738	24.543	814.336	652.272
361.752	25.024	814.251	653.901
362.767	25.096	813.642	653.616
363.781	25.407	813.643	654.693
364.796	25.679	813.359	655.395
365.810	25.694	813.413	655.437
366.825	25.916	812.845	655.728
367.840	25.903	812.218	655.117
368.854	25.709	811.585	653.844
369.869	25.348	810.872	651.901
370.883	25.337	809.689	650.853
371.898	25.212	809.637	650.301
372.913	25.248	808.879	649.766
373.927	25.412	808.020	649.611
374.942	25.423	807.477	649.155
375.956	25.437	807.302	649.010
376.971	25.423	806.937	648.607
377.986	25.543	806.729	648.815
379.000	25.647	806.226	648.727
380.015	25.858	805.292	648.681
381.029	25.529	804.791	647.035
382.044	25.666	803.988	646.824
383.059	25.630	803.986	646.635
384.073	25.786	803.469	646.726
385.088	25.746	802.693	645.900
386.102	25.739	802.060	645.307
387.117	25.525	801.856	644.319
388.132	25.441	801.124	643.371
389.146	25.396	800.584	642.721
390.161	24.898	799.545	640.049
391.175	24.690	799.322	639.073
392.190	25.347	799.189	641.255
393.205	25.539	798.985	641.719
394.219	24.612	797.215	636.939
395.234	23.000	794.647	629.098
396.248	22.017	793.755	624.841
397.263	23.169	794.291	629.308
398.278	24.850	795.921	636.527
399.292	25.576	795.629	638.818
400.307	25.155	794.844	636.636
401.321	25.138	794.661	636.371
402.336	25.105	794.403	635.993
403.350	25.426	794.295	636.989
404.365	25.771	794.235	638.106
405.380	26.130	793.790	638.964
406.394	26.336	793.668	639.537
407.409	26.500	793.698	640.086
408.423	26.596	792.738	639.595
409.438	26.545	792.114	638.853
410.453	26.447	791.911	638.289
411.467	26.450	791.668	638.046
412.482	26.380	791.262	637.416
413.496	26.464	790.342	636.913
414.511	26.452	790.004	636.544
415.526	26.414	789.762	636.158
416.540	26.650	788.974	636.295
417.555	26.393	788.721	635.133
418.569	26.231	787.842	633.800
419.584	26.090	787.438	632.923
420.599	26.283	786.860	633.079
421.613	83.001	1236.932	1295.641
422.628	70.311	1302.535	1295.787
