DTS Sentinel unit serial number:	SN413079Multiplexer serial number:	ORYXHardware model number:	OX4-SRSoftware version number:	ORYX F/W v4.00 Oryx Data Collector v3.7.2.0data status	okinstallation	princeton_trtdifferential loss correction	single-endedforward channel	channel 3reverse channel	N/Adate	2019/09/11time	01:30:11forward acquisition time	60.00reverse acquisition time	0.00gamma	496.2192k internal	0.2332k external	0.2332temperature offset calibration	0.9913default loss term (dB/km)	0.3790temperature slope calibration	1.0000multiplexer offset coefficient	1.0000multiplexer slope coefficient	1.0000fibre end	0.00T internal ref (°C)	29.12T ext. ref 1 (°C)	-0.30T ext. ref 2 (°C)	23.36length (m)	temperature (°C)	Stokes	anti-Stokes-747.200	-125.377	-0.058	0.009
-746.185	-200.000	0.017	0.362
-745.171	107.744	-0.320	-0.383
-744.156	488.521	0.040	-0.091
-743.142	-16.432	-0.533	-0.340
-742.127	-102.671	-0.208	-0.050
-741.112	-166.866	0.343	-0.014
-740.098	60.101	-0.184	0.182
-739.083	-7.980	-0.137	0.093
-738.069	-200.000	-0.120	0.578
-737.054	332.465	-0.126	0.245
-736.039	-89.775	-0.148	-0.044
-735.025	800.000	0.020	0.062
-734.010	-31.560	-0.384	0.217
-732.996	800.000	0.100	-0.289
-731.981	800.000	-0.090	0.326
-730.966	800.000	0.016	0.069
-729.952	592.214	-0.072	0.179
-728.937	-200.000	0.028	-0.199
-727.923	-200.000	-0.034	0.212
-726.908	365.079	0.055	-0.110
-725.894	250.980	0.005	0.009
-724.879	-65.672	-0.309	-0.125
-723.864	-200.000	-0.022	0.104
-722.850	-38.960	0.134	0.071
-721.835	-200.000	-0.044	0.260
-720.821	-39.440	-0.080	-0.042
-719.806	40.529	-0.447	-0.404
-718.791	-63.821	-0.357	0.147
-717.777	47.697	0.320	0.300
-716.762	-29.477	0.114	-0.065
-715.748	-27.808	-0.120	0.070
-714.733	-155.137	-0.355	0.023
-713.718	-97.888	0.130	0.034
-712.704	-138.366	0.198	0.022
-711.689	177.441	0.257	-0.376
-710.675	800.000	-0.040	-0.152
-709.660	800.000	0.020	-0.077
-708.645	-25.530	-0.259	-0.154
-707.631	-48.849	-0.189	-0.091
-706.616	-200.000	-0.020	-0.207
-705.602	-48.815	0.277	-0.134
-704.587	-146.836	-0.272	-0.024
-703.572	19.821	0.147	0.119
-702.558	-155.011	0.085	-0.006
-701.543	585.709	-0.116	0.286
-700.529	5.126	-0.092	0.068
-699.514	108.210	0.128	0.153
-698.499	506.479	-0.055	0.128
-697.485	800.000	0.036	-0.133
-696.470	556.027	0.065	0.157
-695.456	237.876	0.149	-0.248
-694.441	644.099	-0.066	-0.168
-693.426	-38.213	-0.146	-0.078
-692.412	39.779	-0.086	-0.078
-691.397	739.097	-0.092	0.247
-690.383	-200.000	0.016	0.337
-689.368	-68.203	-0.179	-0.070
-688.354	628.196	-0.045	-0.115
-687.339	-33.667	-0.141	0.078
-686.324	55.762	-0.156	-0.152
-685.310	-200.000	-0.007	-0.194
-684.295	-132.003	-0.155	-0.020
-683.281	-200.000	0.042	0.215
-682.266	-200.000	0.077	-0.459
-681.251	664.298	0.186	-0.482
-680.237	254.887	0.025	0.043
-679.222	307.049	0.039	0.074
-678.208	-106.802	-0.172	0.038
-677.193	-106.665	0.078	-0.017
-676.178	800.000	0.054	0.209
-675.164	800.000	-0.037	-0.120
-674.149	-95.146	-0.223	-0.060
-673.135	-54.253	-0.488	0.223
-672.120	-200.000	-0.009	0.116
-671.105	-69.319	0.163	0.063
-670.091	335.453	-0.076	0.147
-669.076	-21.495	-0.223	-0.137
-668.062	3.094	-0.191	-0.139
-667.047	413.468	0.096	0.205
-666.032	88.543	0.037	0.041
-665.018	76.184	-0.173	-0.184
-664.003	42.523	-0.051	0.046
-662.989	-22.721	-0.431	0.261
-661.974	489.011	0.056	-0.129
-660.959	-200.000	-0.018	0.202
-659.945	-76.594	0.168	-0.059
-658.930	-88.390	0.291	-0.087
-657.916	-77.081	-0.111	0.039
-656.901	-31.769	-0.157	-0.088
-655.886	322.324	-0.044	0.084
-654.872	120.851	0.138	0.172
-653.857	-166.158	-0.123	0.005
-652.843	-96.094	-0.443	0.118
-651.828	209.769	0.225	0.353
-650.814	42.270	-0.140	0.127
-649.799	-109.030	0.416	-0.089
-648.784	-134.406	0.462	-0.057
-647.770	723.010	0.059	0.157
-646.755	800.000	0.097	-0.273
-645.741	377.280	0.078	-0.159
-644.726	112.975	0.131	0.159
-643.711	-106.015	-0.078	-0.018
-642.697	-73.635	-0.123	0.045
-641.682	-96.957	-0.252	0.066
-640.668	-200.000	-0.069	-0.363
-639.653	108.062	0.046	-0.055
-638.638	-91.947	-0.191	-0.054
-637.624	-101.735	-0.204	-0.049
-636.609	163.103	0.015	-0.021
-635.595	800.000	0.053	-0.195
-634.580	80.304	0.117	0.127
-633.565	-30.036	0.193	0.110
-632.551	800.000	-0.093	0.265
-631.536	-200.000	0.000	-0.240
-630.522	406.317	-0.079	0.166
-629.507	375.071	-0.105	-0.215
-628.492	-83.058	0.119	-0.038
-627.478	320.725	0.056	-0.107
-626.463	-57.140	-0.086	-0.038
-625.449	-122.758	0.259	0.042
-624.434	243.524	-0.056	-0.094
-623.419	-39.304	-0.239	0.126
-622.405	356.436	-0.129	0.257
-621.390	-44.388	-0.408	0.204
-620.376	627.396	0.122	0.310
-619.361	159.237	-0.131	0.182
-618.346	13.409	-0.348	-0.270
-617.332	80.568	0.102	-0.110
-616.317	534.178	-0.051	-0.122
-615.303	800.000	0.094	-0.371
-614.288	-98.957	-0.251	0.064
-613.273	90.590	-0.050	0.057
-612.259	-39.238	-0.296	-0.156
-611.244	132.518	-0.121	-0.156
-610.230	-30.815	-0.188	-0.106
-609.215	-200.000	-0.004	0.243
-608.201	-36.262	-0.091	-0.049
-607.186	-200.000	-0.068	-0.000
-606.171	-200.000	-0.012	0.073
-605.157	76.361	0.229	-0.243
-604.142	-25.153	-0.446	0.264
-603.128	-117.646	-0.132	0.024
-602.113	-200.000	0.053	-0.239
-601.098	-62.703	0.171	0.071
-600.084	167.526	0.076	-0.108
-599.069	800.000	0.096	0.290
-598.055	97.816	0.190	-0.219
-597.040	-114.338	-0.443	0.085
-596.025	-18.491	-0.160	0.100
-595.011	-22.958	0.021	0.013
-593.996	408.268	0.131	-0.278
-592.982	45.312	0.027	-0.025
-591.967	105.021	-0.105	-0.124
-590.952	-101.608	0.121	-0.029
-589.938	-132.757	0.423	-0.054
-588.923	136.641	-0.095	0.124
-587.909	-200.000	0.033	0.184
-586.894	-24.484	-0.135	0.080
-585.879	-78.446	-0.076	-0.026
-584.865	-73.112	0.337	0.124
-583.850	-143.850	0.100	0.009
-582.836	-20.680	-0.096	0.059
-581.821	-73.036	0.218	-0.080
-580.806	800.000	0.106	-0.327
-579.792	-193.206	-0.042	-0.000
-578.777	93.545	-0.296	0.335
-577.763	21.758	0.267	0.217
-576.748	122.391	0.144	-0.180
-575.733	800.000	0.051	-0.161
-574.719	451.818	-0.076	-0.167
-573.704	278.643	-0.074	-0.131
-572.690	545.541	0.133	0.317
-571.675	800.000	0.099	-0.357
-570.661	343.103	-0.217	-0.425
-569.646	191.143	-0.112	0.168
-568.631	-101.989	0.348	0.084
-567.617	-117.581	-0.081	-0.015
-566.602	-8.654	-0.244	-0.164
-565.588	-140.576	0.154	0.016
-564.573	-200.000	0.032	-0.212
-563.558	-200.000	-0.016	-0.191
-562.544	-120.788	0.185	0.031
-561.529	-21.814	0.125	0.076
-560.515	181.806	-0.111	-0.164
-559.500	265.254	-0.103	-0.179
-558.485	33.794	-0.309	0.268
-557.471	-200.000	0.028	-0.142
-556.456	-137.111	-0.226	-0.026
-555.442	73.803	-0.079	0.083
-554.427	171.869	0.123	0.176
-553.412	-33.250	0.087	0.048
-552.398	11.340	-0.080	0.061
-551.383	-54.091	-0.375	0.170
-550.369	534.861	-0.160	-0.380
-549.354	800.000	0.059	-0.227
-548.339	800.000	0.145	0.420
-547.325	203.095	0.122	0.189
-546.310	228.702	0.127	-0.207
-545.296	46.300	0.018	0.017
-544.281	-67.637	-0.306	-0.120
-543.266	-17.072	-0.344	-0.217
-542.252	-144.603	0.475	0.044
-541.237	37.533	0.049	0.044
-540.223	23.045	0.182	-0.149
-539.208	101.928	0.118	0.137
-538.193	49.462	-0.288	0.270
-537.179	-54.348	0.192	-0.087
-536.164	1.641	0.198	-0.142
-535.150	-200.000	-0.027	-0.150
-534.135	-9.838	-0.126	0.084
-533.121	3.501	-0.208	0.151
-532.106	420.318	0.063	0.135
-531.091	-85.244	0.368	-0.115
-530.077	-200.000	0.021	-0.126
-529.062	16.880	-0.074	-0.059
-528.048	-67.442	-0.129	-0.051
-527.033	-1.102	0.302	0.213
-526.018	-171.701	-0.485	0.016
-525.004	800.000	0.023	-0.087
-523.989	-0.263	-0.129	0.092
-522.975	71.156	-0.117	0.121
-521.960	-200.000	-0.005	0.063
-520.945	-200.000	-0.007	0.137
-519.931	-134.312	0.227	0.028
-518.916	-60.121	-0.072	-0.031
-517.902	-200.000	-0.019	0.468
-516.887	42.373	-0.067	0.060
-515.872	-82.896	0.254	-0.082
-514.858	-130.920	0.101	-0.013
-513.843	-102.676	0.052	-0.012
-512.829	-103.742	0.044	0.010
-511.814	-200.000	-0.004	-0.085
-510.799	126.801	-0.176	-0.222
-509.785	399.724	-0.133	0.277
-508.770	123.615	-0.227	-0.283
-507.756	800.000	0.117	-0.477
-506.741	-63.167	-0.239	0.098
-505.726	-97.829	0.266	-0.068
-504.712	7.857	-0.200	-0.149
-503.697	-105.930	-0.293	-0.066
-502.683	3.545	0.135	0.098
-501.668	800.000	0.044	0.146
-500.653	349.926	-0.189	-0.372
-499.639	352.647	0.026	0.052
-498.624	77.448	-0.204	0.216
-497.610	-200.000	0.004	0.037
-496.595	-42.400	-0.218	0.111
-495.581	800.000	0.021	-0.060
-494.566	-200.000	0.174	-0.001
-493.551	-50.434	-0.142	-0.067
-492.537	-10.848	-0.067	-0.044
-491.522	143.840	-0.200	-0.265
-490.508	-78.155	-0.049	-0.017
-489.493	-200.000	0.005	-0.044
-488.478	120.235	0.146	0.180
-487.464	800.000	-0.076	0.212
-486.449	-200.000	-0.025	0.267
-485.435	465.767	0.061	-0.137
-484.420	333.583	-0.111	-0.214
-483.405	800.000	-0.058	-0.196
-482.391	-7.221	-0.177	-0.120
-481.376	-33.514	0.068	0.037
-480.362	-60.674	-0.129	-0.055
-479.347	-124.553	-0.162	-0.025
-478.332	-105.535	-0.248	0.056
-477.318	599.415	0.076	0.188
-476.303	-200.000	-0.007	0.147
-475.289	800.000	-0.048	0.151
-474.274	130.175	0.211	0.269
-473.259	-46.008	0.173	-0.085
-472.245	32.205	-0.112	-0.096
-471.230	-57.848	-0.392	-0.171
-470.216	155.451	0.052	0.072
-469.201	-79.813	0.130	0.044
-468.186	666.224	-0.085	0.218
-467.172	-156.828	-0.171	-0.010
-466.157	255.511	0.132	0.226
-465.143	800.000	0.181	0.592
-464.128	-28.491	-0.129	-0.074
-463.113	800.000	0.028	-0.093
-462.099	81.987	0.296	-0.319
-461.084	800.000	0.040	0.154
-460.070	-41.462	0.218	0.112
-459.055	-78.269	0.048	-0.017
-458.040	-63.195	-0.095	-0.039
-457.026	233.736	0.145	0.238
-456.011	163.917	-0.155	0.218
-454.997	88.023	-0.137	0.151
-453.982	188.770	0.076	-0.113
-452.968	113.096	-0.035	-0.042
-451.953	198.520	-0.167	-0.255
-450.938	514.301	0.050	0.116
-449.924	64.484	0.251	0.252
-448.909	-200.000	0.014	0.156
-447.895	-26.585	-0.350	0.204
-446.880	65.560	-0.376	-0.379
-445.865	50.404	0.077	0.072
-444.851	-200.000	0.022	-0.152
-443.836	-200.000	-0.030	0.282
-442.822	-200.000	0.059	-0.376
-441.807	-55.038	0.127	0.057
-440.792	500.254	0.081	-0.187
-439.778	-3.347	-0.093	-0.065
-438.763	345.561	0.128	0.250
-437.749	800.000	0.117	-0.382
-436.734	-200.000	0.093	0.460
-435.719	282.212	0.073	0.131
-434.705	-200.000	-0.019	-0.233
-433.690	800.000	0.111	0.328
-432.676	-200.000	-0.017	-0.225
-431.661	800.000	-0.042	-0.174
-430.646	-108.741	0.268	-0.057
-429.632	800.000	0.061	0.220
-428.617	-47.027	0.061	0.029
-427.603	800.000	0.074	-0.257
-426.588	505.999	-0.035	0.080
-425.573	-114.312	-0.404	0.077
-424.559	800.000	0.134	0.551
-423.544	89.180	-0.142	0.157
-422.530	-134.765	0.401	0.048
-421.515	800.000	-0.067	-0.206
-420.500	142.083	0.164	-0.216
-419.486	800.000	-0.046	0.178
-418.471	-130.723	0.194	-0.026
-417.457	-80.416	0.252	-0.084
-416.442	-27.653	-0.203	0.117
-415.428	-31.172	0.285	-0.160
-414.413	800.000	-0.020	-0.072
-413.398	-90.551	0.181	0.052
-412.384	-37.500	-0.043	0.023
-411.369	-115.409	0.305	0.057
-410.355	-21.199	-0.253	-0.154
-409.340	800.000	-0.044	0.189
-408.325	264.455	0.056	-0.096
-407.311	-45.974	0.076	-0.037
-406.296	800.000	0.039	-0.110
-405.282	344.120	-0.063	0.123
-404.267	-38.669	-0.023	0.012
-403.252	210.896	0.228	-0.356
-402.238	-200.000	-0.008	-0.050
-401.223	-127.946	0.135	0.019
-400.209	173.251	-0.106	-0.151
-399.194	800.000	0.087	-0.318
-398.179	-98.373	0.176	0.045
-397.165	37.587	0.095	-0.083
-396.150	-200.000	0.026	0.113
-395.136	47.819	-0.216	-0.200
-394.121	125.068	0.132	-0.165
-393.106	270.169	-0.090	0.156
-392.092	162.498	0.136	0.190
-391.077	-23.508	0.186	-0.111
-390.063	-144.607	-0.309	-0.028
-389.048	251.380	0.105	0.178
-388.033	-63.442	0.314	0.128
-387.019	-200.000	-0.014	-0.108
-386.004	288.869	-0.123	0.222
-384.990	477.366	0.105	-0.236
-383.975	151.498	-0.065	-0.088
-382.960	389.361	0.149	0.306
-381.946	59.196	-0.111	-0.108
-380.931	172.442	0.078	0.111
-379.917	235.983	0.102	-0.167
-378.902	-134.580	-0.295	-0.036
-377.888	-10.512	-0.362	-0.238
-376.873	-73.993	-0.191	0.069
-375.858	800.000	0.068	-0.196
-374.844	-200.000	0.003	-0.209
-373.829	-200.000	0.065	-0.309
-372.815	85.217	-0.233	-0.253
-371.800	-200.000	0.063	-0.346
-370.785	278.915	-0.075	-0.132
-369.771	-35.375	-0.179	-0.096
-368.756	-139.076	0.540	0.058
-367.742	106.380	0.107	-0.125
-366.727	-200.000	0.036	0.331
-365.712	-48.187	-0.107	-0.051
-364.698	-61.616	0.060	-0.025
-363.683	65.789	-0.112	-0.112
-362.669	242.571	-0.079	-0.130
-361.654	-200.000	0.022	0.165
-360.639	0.119	0.044	-0.031
-359.625	-200.000	0.017	-0.133
-358.610	354.506	-0.056	-0.109
-357.596	181.136	-0.115	-0.167
-356.581	66.579	-0.115	0.116
-355.566	-102.108	0.396	0.095
-354.552	-34.179	-0.233	0.127
-353.537	304.122	-0.118	-0.216
-352.523	244.346	0.104	0.174
-351.508	-200.000	-0.012	0.188
-350.493	-111.564	0.136	-0.027
-349.479	523.964	0.094	0.218
-348.464	-200.000	-0.048	-0.273
-347.450	147.353	-0.035	-0.047
-346.435	-200.000	0.045	-0.303
-345.420	-200.000	-0.027	-0.244
-344.406	800.000	-0.040	-0.156
-343.391	-53.653	0.252	0.114
-342.377	-123.656	-0.029	-0.005
-341.362	340.916	0.066	0.128
-340.348	-46.024	0.292	-0.142
-339.333	43.179	-0.090	-0.082
-338.318	-61.199	0.107	0.045
-337.304	-200.000	0.019	-0.123
-336.289	139.183	-0.077	0.100
-335.275	-67.698	0.199	0.077
-334.260	-39.374	0.159	-0.083
-333.245	-87.353	-0.211	0.063
-332.231	-68.521	-0.421	0.162
-331.216	-30.534	-0.066	0.037
-330.202	-145.139	0.352	0.032
-329.187	415.485	0.082	0.173
-328.172	158.110	0.057	-0.079
-327.158	-171.289	0.367	0.012
-326.143	308.460	0.082	-0.152
-325.129	86.493	-0.155	0.169
-324.114	-160.786	-0.109	-0.006
-323.099	9.931	-0.076	0.057
-322.085	-33.377	0.232	0.127
-321.070	67.518	-0.173	0.175
-320.056	40.265	-0.111	0.099
-319.041	800.000	0.045	0.154
-318.026	738.510	-0.071	0.189
-317.012	26.868	-0.282	0.234
-315.997	-69.601	-0.285	0.108
-314.983	-105.514	-0.204	-0.046
-313.968	-17.261	-0.131	-0.081
-312.953	-87.415	-0.140	-0.042
-311.939	-165.959	-0.079	-0.003
-310.924	87.687	-0.105	-0.115
-309.910	203.394	0.172	0.262
-308.895	800.000	-0.073	-0.213
-307.880	800.000	-0.033	-0.127
-306.866	-84.744	-0.505	0.157
-305.851	-200.000	0.008	-0.195
-304.837	74.335	0.220	-0.228
-303.822	-140.291	-0.289	0.030
-302.807	-68.602	0.210	-0.080
-301.793	-200.000	-0.018	0.094
-300.778	-200.000	0.023	0.236
-299.764	342.210	0.083	-0.160
-298.749	31.883	0.130	-0.111
-297.735	290.985	0.065	-0.117
-296.720	-45.396	-0.458	-0.224
-295.705	-131.417	0.256	0.033
-294.691	-53.718	0.142	0.064
-293.676	-200.000	-0.001	0.298
-292.662	110.701	0.049	0.058
-291.647	-61.497	0.189	-0.078
-290.632	800.000	0.047	0.133
-289.618	800.000	-0.056	0.170
-288.603	-147.038	-0.185	0.016
-287.589	131.337	-0.058	-0.073
-286.574	-200.000	0.008	-0.093
-285.559	218.147	-0.126	0.198
-284.545	-73.723	-0.112	-0.040
-283.530	2.127	-0.071	-0.051
-282.516	-78.726	0.427	0.144
-281.501	2.290	-0.305	-0.218
-280.486	-105.785	-0.204	-0.046
-279.472	-73.765	0.161	0.058
-278.457	-200.000	0.113	0.503
-277.443	-32.866	-0.116	0.064
-276.428	9.145	-0.110	-0.082
-275.413	42.498	-0.263	0.237
-274.399	-70.852	-0.106	0.039
-273.384	-200.000	-0.061	0.272
-272.370	-200.000	0.004	0.206
-271.355	0.922	-0.043	0.030
-270.340	-200.000	0.006	0.394
-269.326	321.921	0.097	-0.182
-268.311	-200.000	0.004	-0.048
-267.297	-50.845	0.271	0.126
-266.282	-193.570	0.268	0.002
-265.267	54.564	-0.120	-0.114
-264.253	406.000	-0.066	0.137
-263.238	86.870	0.115	-0.125
-262.224	-138.673	-0.065	0.007
-261.209	-53.698	-0.417	-0.188
-260.195	4.682	0.369	0.268
-259.180	-19.925	0.149	-0.091
-258.165	130.147	0.063	0.079
-257.151	12.892	-0.222	-0.170
-256.136	800.000	0.040	-0.132
-255.122	-200.000	-0.007	0.262
-254.107	575.644	-0.108	0.261
-253.092	74.600	-0.035	-0.037
-252.078	-102.357	0.420	-0.099
-251.063	-71.685	0.129	-0.047
-250.049	800.000	0.023	-0.093
-249.034	54.234	-0.115	-0.109
-248.019	462.957	-0.102	0.225
-247.005	-200.000	-0.009	0.065
-245.990	-15.591	-0.342	0.216
-244.976	-200.000	0.050	0.342
-243.961	800.000	-0.054	-0.160
-242.946	-88.109	-0.127	-0.037
-241.932	232.758	0.038	-0.061
-240.917	94.193	0.135	0.151
-239.903	329.751	0.041	-0.077
-238.888	278.498	0.102	-0.180
-237.873	22.863	0.163	0.132
-236.859	281.944	0.069	-0.123
-235.844	-46.892	0.330	-0.159
-234.830	-86.762	0.469	0.141
-233.815	465.070	-0.071	-0.156
-232.800	-42.409	0.375	-0.189
-231.786	-163.869	-0.185	0.009
-230.771	72.679	-0.108	-0.111
-229.757	800.000	0.073	0.231
-228.742	-39.866	0.226	-0.116
-227.727	-200.000	0.012	0.200
-226.713	-11.615	0.096	-0.062
-225.698	-102.765	-0.153	0.036
-224.684	43.027	0.116	0.105
-223.669	6.518	0.227	-0.167
-222.655	-200.000	-0.002	-0.294
-221.640	-69.434	0.234	0.088
-220.625	47.230	0.150	-0.137
-219.611	800.000	0.040	-0.124
-218.596	22.490	0.228	0.184
-217.582	-78.906	0.090	0.030
-216.567	800.000	-0.064	0.273
-215.552	-174.117	0.184	-0.005
-214.538	-200.000	0.027	0.233
-213.523	109.640	-0.058	-0.068
-212.509	-200.000	-0.017	0.148
-211.494	72.284	0.089	-0.091
-210.479	251.231	0.106	-0.178
-209.465	190.497	-0.141	-0.209
-208.450	-172.446	0.259	-0.008
-207.436	-89.744	-0.198	0.057
-206.421	123.562	-0.011	0.014
-205.406	59.084	0.064	-0.062
-204.392	-40.940	-0.012	0.006
-203.377	-170.462	0.226	0.008
-202.363	-12.655	-0.080	-0.051
-201.348	-0.943	-0.365	-0.255
-200.333	123.393	-0.154	0.190
-199.319	-145.562	-0.268	-0.024
-198.304	-151.448	-0.368	-0.027
-197.290	740.127	0.105	-0.278
-196.275	800.000	-0.041	0.167
-195.260	-200.000	-0.013	0.217
-194.246	-70.225	0.136	0.051
-193.231	-200.000	0.003	0.196
-192.217	15.388	-0.140	0.108
-191.202	-10.910	-0.324	0.211
-190.187	-31.515	-0.206	-0.114
-189.173	-21.320	0.255	0.154
-188.158	0.782	0.084	0.060
-187.144	13.234	0.050	0.038
-186.129	-200.000	-0.015	0.202
-185.114	12.445	0.133	0.101
-184.100	50.927	-0.132	0.123
-183.085	800.000	0.028	-0.113
-182.071	800.000	0.093	0.375
-181.056	-200.000	0.107	0.508
-180.042	-135.947	-0.162	0.019
-179.027	-49.160	0.076	0.036
-178.012	382.407	-0.095	0.193
-176.998	-33.287	0.079	0.043
-175.983	95.790	0.119	-0.134
-174.969	-20.252	0.140	0.085
-173.954	-100.943	-0.326	0.079
-172.939	-68.251	-0.329	-0.126
-171.925	-184.508	-0.172	0.003
-170.910	58.955	-0.122	0.118
-169.896	800.000	0.094	-0.333
-168.881	800.000	0.102	-0.390
-167.866	168.394	0.175	0.245
-166.852	-36.377	0.241	-0.128
-165.837	-27.646	-0.231	0.132
-164.823	7.133	0.116	-0.085
-163.808	-52.851	0.295	-0.134
-162.793	-92.495	-0.269	-0.074
-161.779	-31.124	0.169	-0.094
-160.764	-200.000	-0.069	-0.329
-159.750	-200.000	-0.018	0.155
-158.735	800.000	-0.041	-0.168
-157.720	170.139	0.155	0.219
-156.706	-55.610	-0.127	0.056
-155.691	646.718	-0.036	-0.091
-154.677	-159.191	0.073	0.004
-153.662	160.891	-0.205	-0.282
-152.647	28.449	0.115	-0.096
-151.633	-91.022	0.250	-0.071
-150.618	-48.219	-0.127	-0.060
-149.604	14.039	0.186	0.142
-148.589	-200.000	-0.011	0.072
-147.574	-96.957	0.089	0.023
-146.560	-200.000	0.006	0.106
-145.545	12.350	0.160	-0.121
-144.531	-22.002	-0.120	0.071
-143.516	-4.210	0.142	0.096
-142.502	4.067	-0.334	-0.240
-141.487	106.174	0.042	-0.048
-140.472	-200.000	-0.033	0.209
-139.458	-51.702	-0.220	0.101
-138.443	-11.789	-0.272	-0.176
-137.429	-65.604	-0.300	0.118
-136.414	74.295	0.146	0.151
-135.399	-49.248	-0.320	-0.150
-134.385	-130.576	0.085	-0.011
-133.370	-200.000	-0.109	0.000
-132.356	7.157	0.249	-0.183
-131.341	327.051	0.115	0.216
-130.326	354.989	-0.073	0.143
-129.312	-72.880	-0.422	-0.153
-128.297	-54.581	-0.297	0.132
-127.283	-20.539	0.082	0.049
-126.268	-63.637	-0.102	-0.041
-125.253	510.989	-0.024	-0.055
-124.239	590.692	-0.056	0.135
-123.224	-200.000	-0.044	0.278
-122.210	-200.000	0.025	-0.308
-121.195	11.240	0.137	-0.103
-120.180	-200.000	0.032	0.150
-119.166	437.334	0.175	-0.374
-118.151	77.332	-0.123	-0.128
-117.137	117.198	0.187	-0.226
-116.122	-96.529	-0.331	0.086
-115.107	-92.460	-0.333	0.092
-114.093	800.000	-0.029	0.117
-113.078	129.628	0.155	-0.195
-112.064	88.087	0.153	-0.167
-111.049	-189.544	0.163	-0.002
-110.034	-101.423	-0.267	-0.064
-109.020	15.108	0.130	-0.100
-108.005	800.000	-0.068	0.201
-106.991	60.712	-0.233	0.227
-105.976	-200.000	-0.044	-0.258
-104.962	-67.030	0.159	0.061
-103.947	111.144	0.149	0.176
-102.932	66.969	-0.257	-0.257
-101.918	798.760	-0.076	-0.206
-100.903	-24.050	0.114	-0.067
-99.889	306.578	0.071	0.130
-98.874	15.301	0.104	-0.080
-97.859	-107.147	-0.077	-0.017
-96.845	-112.790	0.398	-0.077
-95.830	-200.000	-0.055	-0.240
-94.816	-49.490	0.001	-0.001
-93.801	334.254	0.136	-0.258
-92.786	-107.895	-0.113	0.024
-91.772	335.883	-0.027	0.052
-90.757	30.722	0.069	0.058
-89.743	-200.000	-0.003	0.154
-88.728	800.000	0.092	-0.271
-87.713	289.077	-0.144	-0.257
-86.699	-131.100	0.263	-0.034
-85.684	697.175	0.025	0.064
-84.670	800.000	-0.028	0.102
-83.655	176.941	0.237	0.338
-82.640	-80.550	0.305	0.100
-81.626	-124.325	-0.275	0.042
-80.611	-99.603	-0.054	0.013
-79.597	-2.698	0.333	-0.228
-78.582	-167.032	0.143	0.006
-77.567	60.451	0.163	0.158
-76.553	-191.122	-0.183	-0.002
-75.538	-118.588	0.321	-0.056
-74.524	-46.496	-0.407	0.196
-73.509	-154.430	0.235	0.015
-72.494	370.683	0.118	-0.235
-71.480	-34.846	-0.076	-0.041
-70.465	-200.000	-0.016	0.080
-69.451	-48.416	0.183	0.086
-68.436	800.000	-0.033	0.135
-67.422	-111.156	-0.368	-0.074
-66.407	7.942	-0.149	0.109
-65.392	191.965	-0.040	-0.059
-64.378	121.295	-0.146	-0.178
-63.363	-15.551	0.141	0.088
-62.349	50.071	0.234	-0.216
-61.334	-28.950	-0.695	-0.391
-60.319	166.285	0.608	0.844
-59.305	800.000	-0.327	-1.090
-58.290	168.504	0.644	0.899
-57.276	800.000	0.579	1.740
-56.261	-200.000	106.659	625.602
-55.246	523.340	1514.108	3484.686
-54.232	176.257	2703.605	3845.649
-53.217	110.956	2183.424	2574.084
-52.203	39.847	1705.891	1499.524
-51.188	32.271	1518.279	1283.094
-50.173	29.970	1491.951	1245.335
-49.159	50.790	1548.767	1436.133
-48.144	50.935	1564.936	1452.068
-47.130	32.383	1520.472	1285.506
-46.115	29.440	1505.824	1253.120
-45.100	29.272	1502.206	1248.923
-44.086	29.228	1499.844	1246.607
-43.071	29.212	1497.760	1244.723
-42.057	29.161	1496.146	1242.984
-41.042	29.114	1495.021	1241.682
-40.027	29.106	1493.915	1240.660
-39.013	29.143	1492.299	1239.519
-37.998	28.953	1490.950	1237.069
-36.984	29.088	1489.765	1236.948
-35.969	29.003	1488.444	1235.230
-34.954	29.126	1486.788	1234.630
-33.940	29.095	1485.372	1233.198
-32.925	29.077	1484.053	1231.936
-31.911	29.119	1482.767	1231.102
-30.896	29.074	1481.931	1230.059
-29.881	29.199	1480.774	1229.879
-28.867	29.241	1479.048	1228.676
-27.852	29.184	1477.757	1227.181
-26.838	29.253	1476.130	1226.240
-25.823	29.176	1474.867	1224.625
-24.809	29.208	1473.140	1223.357
-23.794	29.140	1472.050	1221.954
-22.779	29.173	1470.231	1220.616
-21.765	29.119	1469.739	1219.797
-20.750	29.207	1468.631	1219.416
-19.736	29.225	1467.462	1218.516
-18.721	29.134	1466.421	1216.998
-17.706	29.106	1465.558	1216.051
-16.692	29.208	1464.005	1215.385
-15.677	29.133	1463.115	1214.107
-14.663	29.191	1462.098	1213.591
-13.648	29.090	1460.996	1211.967
-12.633	29.147	1460.407	1211.806
-11.619	29.078	1459.754	1210.758
-10.604	29.055	1458.791	1209.760
-9.590	29.082	1457.496	1208.819
-8.575	29.106	1456.696	1208.268
-7.560	29.173	1455.856	1207.960
-6.546	29.119	1454.721	1206.617
-5.531	29.069	1454.019	1205.658
-4.517	29.045	1453.381	1204.925
-3.502	29.077	1452.133	1204.053
-2.487	29.034	1451.712	1203.375
-1.473	29.120	1450.395	1202.794
-0.458	29.069	1448.869	1201.148
0.556	26.846	1439.366	1190.957
1.571	24.069	1414.176	1152.067
2.586	20.842	1354.995	1083.719
3.600	19.519	1273.896	1011.020
4.615	18.324	1229.736	969.125
5.629	15.878	1173.935	911.835
6.644	7.628	1090.169	805.047
7.659	0.945	1049.991	742.610
8.673	-0.113	1044.421	733.440
9.688	-0.251	1041.126	730.391
10.702	-0.425	1039.352	728.233
11.717	-0.400	1037.770	727.182
12.731	2.597	1040.477	743.574
13.746	11.303	1053.231	795.240
14.761	18.324	1062.244	836.388
15.775	19.908	1064.062	845.493
16.790	20.344	1062.895	846.617
17.804	20.215	1062.580	845.659
18.819	19.929	1061.895	843.647
19.834	20.082	1061.137	843.714
20.848	20.125	1060.710	843.511
21.863	20.201	1060.568	843.695
22.877	20.147	1060.096	842.978
23.892	20.131	1059.056	842.001
24.907	19.986	1058.659	840.907
25.921	20.039	1057.880	840.470
26.936	20.070	1056.988	839.840
27.950	20.252	1055.439	839.415
28.965	20.158	1054.326	837.999
29.980	19.983	1053.092	836.097
30.994	20.001	1051.385	834.758
32.009	20.113	1050.715	834.693
33.023	20.124	1050.526	834.519
34.038	20.001	1048.716	832.415
35.053	20.066	1047.770	831.902
36.067	20.145	1047.330	831.860
37.082	20.182	1046.205	831.070
38.096	20.270	1045.886	831.167
39.111	20.242	1045.528	830.674
40.126	20.481	1043.946	830.486
41.140	20.366	1042.535	828.743
42.155	20.089	1041.575	826.583
43.169	19.713	1040.380	823.772
44.184	19.748	1039.431	823.113
45.199	19.838	1038.146	822.453
46.213	19.779	1037.140	821.299
47.228	19.791	1035.922	820.322
48.242	19.922	1034.968	820.113
49.257	19.942	1034.458	819.729
50.271	20.057	1033.441	819.397
51.286	20.114	1032.855	819.127
52.301	20.222	1031.604	818.573
53.315	20.253	1031.182	818.313
54.330	20.231	1030.199	817.358
55.344	20.203	1028.861	816.090
56.359	20.217	1028.405	815.723
57.374	20.127	1027.761	814.719
58.388	20.022	1026.759	813.356
59.403	19.921	1025.971	812.185
60.417	20.084	1024.988	812.100
61.432	19.910	1024.181	810.575
62.447	19.944	1023.237	809.915
63.461	20.025	1022.665	809.772
64.476	20.031	1021.850	809.080
65.490	20.021	1020.770	808.108
66.505	19.862	1019.768	806.502
67.520	19.950	1019.174	806.372
68.534	20.048	1018.146	805.940
69.549	19.819	1017.528	804.315
70.563	19.651	1016.351	802.534
71.578	19.715	1015.002	801.696
72.593	19.591	1014.392	800.567
73.607	19.513	1013.320	799.291
74.622	19.591	1012.413	798.863
75.636	19.715	1012.021	799.058
76.651	19.883	1011.077	799.017
77.666	19.830	1010.223	798.027
78.680	19.563	1009.477	796.139
79.695	19.696	1009.132	796.407
80.709	19.826	1008.115	796.132
81.724	19.825	1007.879	795.872
82.739	19.934	1006.180	794.958
83.753	19.870	1005.725	794.236
84.768	20.224	1005.159	795.341
85.782	20.399	1003.922	795.093
86.797	20.510	1003.618	795.291
87.812	20.341	1002.627	793.661
88.826	20.198	1001.596	792.123
89.841	20.332	1000.761	792.004
90.855	20.489	999.807	791.893
91.870	20.418	998.973	790.842
92.884	20.336	998.203	789.787
93.899	20.243	997.508	788.747
94.914	20.108	996.742	787.458
95.928	20.256	995.795	787.312
96.943	20.314	995.536	787.300
97.957	20.063	994.144	784.993
98.972	19.905	992.267	782.725
99.987	19.733	991.497	781.274
101.001	19.771	990.951	780.946
102.016	19.951	990.615	781.425
103.030	20.020	989.666	780.917
104.045	19.960	988.124	779.359
105.060	19.946	986.553	777.991
106.074	19.841	985.497	776.616
107.089	19.866	984.660	776.002
108.103	20.175	984.672	777.329
109.118	20.240	984.131	777.122
110.133	19.916	982.958	774.678
111.147	19.944	981.748	773.780
112.162	19.743	980.632	771.937
113.176	19.638	978.946	770.073
114.191	19.774	978.029	769.886
115.206	19.931	976.882	769.615
116.220	19.568	975.939	767.191
117.235	19.458	974.961	765.867
118.249	19.504	974.400	765.562
119.264	19.694	973.303	765.476
120.279	19.567	972.872	764.507
121.293	19.669	971.946	764.162
122.308	19.766	971.274	763.995
123.322	19.786	970.438	763.358
124.337	19.676	969.276	761.890
125.352	19.571	967.838	760.228
126.366	19.245	966.011	757.295
127.381	19.003	964.717	755.152
128.395	19.521	964.493	757.182
129.410	20.087	963.914	759.140
130.424	20.160	963.282	758.897
131.439	20.138	962.153	757.841
132.454	20.156	960.738	756.742
133.468	19.973	960.216	755.465
134.483	20.036	959.504	755.112
135.497	20.088	958.600	754.559
136.512	20.122	958.323	754.421
137.527	20.288	957.149	754.155
138.541	20.332	956.154	753.492
139.556	20.282	955.543	752.730
140.570	20.151	955.133	751.771
141.585	20.354	953.793	751.527
142.600	20.309	953.493	751.031
143.614	20.166	952.149	749.287
144.629	20.358	951.162	749.275
145.643	20.411	951.155	749.430
146.658	20.410	949.626	748.156
147.673	20.330	948.519	746.875
148.687	20.402	947.581	746.377
149.702	20.228	946.653	744.835
150.716	20.145	945.493	743.497
151.731	20.181	944.658	742.932
152.746	20.215	943.816	742.346
153.760	20.364	943.188	742.426
154.775	20.535	942.580	742.612
155.789	20.637	941.614	742.221
156.804	20.514	940.378	740.659
157.819	20.533	939.495	739.978
158.833	20.562	938.235	739.043
159.848	20.610	938.111	739.084
160.862	20.552	937.432	738.236
161.877	20.360	936.505	736.624
162.892	20.470	935.299	736.077
163.906	20.568	935.058	736.237
164.921	20.566	933.789	735.167
165.935	20.536	932.315	733.813
166.950	20.561	931.180	732.963
167.964	20.635	930.409	732.603
168.979	20.562	929.257	731.322
169.994	20.446	928.522	730.194
171.008	20.192	927.535	728.285
172.023	20.514	926.545	728.793
173.037	20.493	926.110	728.297
174.052	20.454	924.205	726.572
175.067	20.374	923.501	725.620
176.081	20.328	922.524	724.596
177.096	20.326	921.944	724.070
178.110	20.365	921.280	723.646
179.125	20.047	920.139	721.360
180.140	19.910	918.916	719.772
181.154	19.974	918.110	719.341
182.169	19.978	917.829	719.072
183.183	20.269	917.215	719.737
184.198	20.478	917.132	720.473
185.213	20.507	915.986	719.629
186.227	20.300	915.708	718.492
187.242	20.476	914.969	718.574
188.256	20.400	914.560	717.878
189.271	20.474	913.392	717.203
190.286	20.577	912.744	717.056
191.300	20.335	911.990	715.401
192.315	19.963	910.724	712.816
193.329	19.387	908.831	708.903
194.344	18.869	908.126	706.160
195.359	19.425	908.491	708.667
196.373	20.253	908.714	712.177
197.388	20.528	908.386	712.986
198.402	20.219	907.536	710.989
199.417	20.269	907.092	710.783
200.432	20.216	906.963	710.405
201.446	20.216	905.728	709.375
202.461	19.856	904.902	707.193
203.475	20.019	904.414	707.414
204.490	19.696	902.780	704.756
205.504	18.398	901.299	698.251
206.519	18.891	901.211	700.128
207.534	20.022	901.136	704.613
208.548	19.980	900.824	704.136
209.563	20.325	900.548	705.260
210.577	20.260	899.541	704.143
211.592	20.074	898.785	702.736
212.607	20.497	898.457	704.133
213.621	20.538	898.218	704.048
214.636	20.454	897.707	703.245
215.650	20.514	896.980	702.859
216.665	20.467	895.785	701.669
217.680	20.637	895.372	701.970
218.694	20.582	894.989	701.383
219.709	20.243	894.058	699.226
220.723	20.001	892.950	697.326
221.738	20.082	892.776	697.454
222.753	20.387	891.901	697.934
223.767	20.207	891.327	696.701
224.782	20.407	890.712	696.959
225.796	20.488	890.250	696.860
226.811	20.579	889.327	696.444
227.826	20.258	888.429	694.392
228.840	19.450	886.689	689.744
229.855	19.286	886.319	688.737
230.869	19.650	885.822	689.743
231.884	19.407	884.299	687.529
232.899	19.412	884.718	687.814
233.913	20.257	884.698	691.106
234.928	20.422	884.087	691.222
235.942	20.320	883.447	690.258
236.957	20.450	882.669	690.103
237.972	20.058	881.607	687.657
238.986	19.915	880.803	686.402
240.001	20.237	879.903	686.917
241.015	20.211	879.328	686.302
242.030	20.116	879.337	685.872
243.045	20.343	878.640	686.166
244.059	20.414	878.146	685.999
245.074	20.647	877.596	686.431
246.088	20.519	876.805	685.246
247.103	20.066	875.842	682.648
248.117	20.122	875.353	682.426
249.132	20.545	875.405	684.071
250.147	20.902	875.059	685.147
251.161	20.832	874.658	684.493
252.176	21.148	873.594	684.843
253.190	21.069	873.075	684.066
254.205	21.177	872.115	683.673
255.220	21.314	872.082	684.127
256.234	21.290	871.857	683.792
257.249	21.227	870.784	682.646
258.263	21.175	870.131	681.872
259.278	21.143	869.283	681.020
260.293	21.192	869.073	680.989
261.307	21.184	868.885	680.750
262.322	21.052	868.000	679.482
263.336	20.996	867.238	678.608
264.351	20.613	865.627	675.797
265.366	19.368	863.562	669.296
266.380	19.100	862.510	667.384
267.395	19.932	862.917	670.863
268.409	20.723	863.225	674.109
269.424	20.762	862.471	673.613
270.439	20.944	862.134	673.993
271.453	21.028	861.076	673.430
272.468	20.985	860.565	672.808
273.482	21.216	860.259	673.398
274.497	21.320	859.707	673.307
275.512	21.205	858.520	671.877
276.526	20.471	857.333	668.066
277.541	20.699	857.168	668.756
278.555	20.994	856.757	669.506
279.570	20.753	856.335	668.195
280.585	20.731	855.042	667.040
281.599	20.654	854.894	666.573
282.614	20.838	854.322	666.771
283.628	20.494	852.910	664.293
284.643	20.038	852.292	662.012
285.657	20.643	852.072	664.095
286.672	20.602	851.394	663.351
287.687	19.920	850.571	660.050
288.701	20.312	850.476	661.414
289.716	20.593	850.452	662.407
290.730	20.310	849.251	660.334
291.745	20.207	848.294	659.140
292.760	19.930	847.385	657.324
293.774	19.930	847.103	657.048
294.789	20.948	847.105	660.856
295.803	21.522	846.924	662.829
296.818	21.552	846.745	662.744
297.833	21.729	846.261	662.975
298.847	21.309	845.095	660.417
299.862	20.955	844.052	658.207
300.876	21.279	843.405	658.867
301.891	21.437	843.896	659.786
302.906	21.493	842.810	659.091
303.920	21.069	841.480	656.399
304.935	20.928	841.114	655.526
305.949	21.277	840.673	656.432
306.964	21.447	840.169	656.621
307.979	21.211	839.259	654.967
308.993	21.283	838.890	654.892
310.008	21.640	838.663	655.994
311.022	21.750	837.897	655.745
312.037	21.435	837.537	654.229
313.052	21.258	836.890	653.003
314.066	21.208	835.834	651.934
315.081	20.518	834.548	648.301
316.095	19.882	833.590	645.128
317.110	20.407	833.707	647.121
318.125	21.166	834.072	650.175
319.139	20.845	833.246	648.278
320.154	19.701	831.312	642.466
321.168	19.475	829.876	640.462
322.183	20.042	830.490	642.982
323.197	20.823	830.878	646.125
324.212	21.014	830.762	646.688
325.227	21.071	830.395	646.553
326.241	21.516	829.690	647.595
327.256	21.285	828.956	646.113
328.270	21.173	828.559	645.329
329.285	21.236	827.610	644.768
330.300	21.046	826.802	643.381
331.314	20.905	825.765	641.998
332.329	20.871	825.262	641.423
333.343	21.252	824.957	642.530
334.358	21.279	824.971	642.587
335.373	21.507	823.940	642.562
336.387	21.492	823.336	641.980
337.402	21.596	823.535	642.458
338.416	21.881	823.262	643.236
339.431	21.819	822.055	642.007
340.446	21.860	821.670	641.802
341.460	21.956	821.181	641.715
342.475	21.988	820.475	641.221
343.489	21.679	819.978	639.648
344.504	21.823	819.176	639.490
345.519	21.972	818.933	639.787
346.533	22.134	818.630	640.084
347.548	22.201	818.379	640.077
348.562	22.352	818.108	640.358
349.577	22.194	817.238	639.046
350.592	22.235	816.403	638.485
351.606	22.355	816.139	638.656
352.621	22.268	815.787	638.009
353.635	22.085	815.225	636.850
354.650	22.077	814.681	636.341
355.665	21.690	813.455	633.927
356.679	20.645	812.377	629.252
357.694	20.537	811.700	628.280
358.708	21.138	811.385	630.153
359.723	21.161	810.834	629.750
360.738	21.373	810.711	630.364
361.752	21.623	810.937	631.387
362.767	22.034	810.451	632.431
363.781	22.139	809.924	632.342
364.796	22.416	809.803	633.188
365.810	22.506	809.326	633.083
366.825	22.360	809.124	632.344
367.840	22.629	808.524	632.785
368.854	22.437	808.084	631.697
369.869	21.991	807.093	629.269
370.883	22.047	806.064	628.610
371.898	22.077	805.741	628.411
372.913	21.851	805.075	627.027
373.927	21.788	804.450	626.259
374.942	21.992	803.974	626.561
375.956	22.084	803.631	626.566
376.971	22.249	803.064	626.659
377.986	22.330	802.504	626.454
379.000	22.384	802.497	626.585
380.015	22.423	801.753	626.087
381.029	22.273	800.944	624.867
382.044	22.058	800.667	623.834
383.059	22.432	799.943	624.541
384.073	22.462	799.526	624.266
385.088	22.542	799.144	624.197
386.102	22.560	798.442	623.656
387.117	22.387	797.930	622.589
388.132	22.237	797.490	621.661
389.146	22.103	796.670	620.494
390.161	21.624	795.633	617.942
391.175	21.542	795.440	617.446
392.190	21.995	795.310	618.886
393.205	22.067	795.086	618.914
394.219	21.135	793.480	614.328
395.234	19.639	790.766	606.920
396.248	19.037	790.235	604.346
397.263	20.013	791.301	608.541
398.278	21.707	792.164	615.102
399.292	22.171	791.881	616.456
400.307	21.868	791.362	614.934
401.321	21.825	791.014	614.460
402.336	21.933	790.409	614.311
403.350	22.397	790.204	615.723
404.365	22.617	790.170	616.409
405.380	22.799	790.443	617.205
406.394	22.990	789.823	617.333
407.409	23.282	789.251	617.854
408.423	22.980	789.031	616.571
409.438	22.998	788.383	616.073
410.453	23.088	787.654	615.762
411.467	23.231	787.565	616.136
412.482	23.139	786.599	615.004
413.496	23.065	786.143	614.338
414.511	23.233	786.010	614.763
415.526	23.210	785.411	614.160
416.540	23.200	785.237	613.937
417.555	23.120	784.868	613.315
418.569	22.916	783.921	611.816
419.584	22.771	783.639	611.039
420.599	22.845	783.058	610.787
421.613	158.273	1362.886	1799.144
422.628	136.883	1447.366	1799.234
