DTS Sentinel unit serial number:	SN413079Multiplexer serial number:	ORYXHardware model number:	OX4-SRSoftware version number:	ORYX F/W v4.00 Oryx Data Collector v3.7.2.0data status	okinstallation	princeton_trtdifferential loss correction	single-endedforward channel	channel 3reverse channel	N/Adate	2019/09/11time	09:58:11forward acquisition time	60.00reverse acquisition time	0.00gamma	496.2192k internal	0.2301k external	0.2301temperature offset calibration	0.9939default loss term (dB/km)	0.3790temperature slope calibration	1.0000multiplexer offset coefficient	1.0000multiplexer slope coefficient	1.0000fibre end	0.00T internal ref (°C)	35.31T ext. ref 1 (°C)	0.14T ext. ref 2 (°C)	32.62length (m)	temperature (°C)	Stokes	anti-Stokes-747.200	-13.857	0.281	-0.185
-746.185	518.550	-0.221	0.528
-745.171	163.956	-0.096	0.138
-744.156	-121.732	-0.229	0.039
-743.142	-121.429	0.296	-0.050
-742.127	-35.300	0.445	0.247
-741.112	-200.000	-0.151	0.001
-740.098	95.647	0.172	-0.201
-739.083	-149.833	-0.289	-0.023
-738.069	-200.000	-0.028	0.233
-737.054	311.092	-0.132	0.253
-736.039	-29.064	-0.358	0.209
-735.025	-54.451	0.342	0.158
-734.010	800.000	0.034	-0.112
-732.996	-44.687	-0.263	-0.134
-731.981	-21.738	-0.118	0.073
-730.966	15.951	0.083	0.066
-729.952	-64.261	-0.264	-0.109
-728.937	151.648	-0.132	-0.183
-727.923	-62.137	-0.356	0.151
-726.908	-2.769	0.148	0.105
-725.894	46.413	0.100	-0.095
-724.879	55.689	-0.121	-0.119
-723.864	-200.000	0.014	-0.446
-722.850	-99.688	-0.333	-0.085
-721.835	-200.000	-0.032	0.172
-720.821	-76.025	0.193	-0.070
-719.806	-101.870	-0.266	-0.065
-718.791	800.000	-0.043	-0.128
-717.777	-200.000	-0.030	0.285
-716.762	31.095	0.077	-0.067
-715.748	-200.000	0.021	0.118
-714.733	-151.135	0.112	-0.009
-713.718	800.000	0.030	-0.126
-712.704	135.274	-0.128	0.169
-711.689	-15.924	-0.140	-0.091
-710.675	164.376	0.063	-0.091
-709.660	-84.626	-0.039	0.012
-708.645	800.000	0.059	0.218
-707.631	417.208	-0.147	-0.320
-706.616	-35.388	0.201	0.111
-705.602	-90.996	0.093	-0.027
-704.587	-200.000	0.053	-0.263
-703.572	8.192	-0.068	0.052
-702.558	-110.492	-0.281	0.059
-701.543	800.000	0.033	-0.140
-700.529	610.006	-0.134	-0.341
-699.514	544.360	0.037	-0.089
-698.499	479.649	-0.091	-0.209
-697.485	249.832	0.109	-0.188
-696.470	690.693	-0.021	0.055
-695.456	-184.757	0.178	-0.003
-694.441	769.144	0.149	0.413
-693.426	800.000	-0.020	-0.058
-692.412	494.641	0.078	0.182
-691.397	-157.053	0.214	-0.013
-690.383	341.623	-0.181	-0.360
-689.368	-42.370	-0.113	-0.059
-688.354	800.000	-0.090	-0.359
-687.339	324.623	0.051	0.099
-686.324	800.000	0.104	0.374
-685.310	-200.000	0.013	-0.104
-684.295	685.114	-0.047	0.125
-683.281	361.708	-0.114	-0.233
-682.266	126.883	0.100	-0.128
-681.251	158.377	0.222	0.313
-680.237	239.266	0.113	0.191
-679.222	-31.000	-0.111	-0.064
-678.208	-18.673	-0.038	-0.024
-677.193	-144.730	0.367	-0.034
-676.178	-200.000	0.008	0.116
-675.164	25.602	0.132	-0.111
-674.149	-96.384	-0.031	-0.008
-673.135	-1.081	0.115	0.083
-672.120	-109.419	-0.131	-0.028
-671.105	172.341	-0.116	-0.170
-670.091	800.000	-0.047	-0.134
-669.076	-200.000	0.017	-0.273
-668.062	33.430	-0.208	-0.184
-667.047	236.945	0.202	-0.340
-666.032	430.417	-0.114	-0.250
-665.018	-95.333	-0.123	0.034
-664.003	475.596	0.130	-0.299
-662.989	-161.914	0.394	-0.020
-661.974	47.280	-0.256	-0.242
-660.959	-24.368	-0.193	0.117
-659.945	-86.455	0.209	0.065
-658.930	-21.772	0.158	-0.098
-657.916	76.483	-0.166	0.178
-656.901	-130.760	-0.527	0.072
-655.886	248.560	0.211	-0.363
-654.872	23.201	0.339	-0.283
-653.857	13.885	0.283	0.224
-652.843	44.668	0.095	-0.089
-651.828	-88.234	-0.153	0.047
-650.814	800.000	0.028	-0.085
-649.799	-21.989	-0.100	-0.062
-648.784	-200.000	-0.030	-0.208
-647.770	-41.201	-0.214	0.112
-646.755	-200.000	0.071	-0.333
-645.741	-141.001	0.143	0.015
-644.726	274.843	-0.023	-0.041
-643.711	-71.215	0.124	-0.047
-642.697	262.585	0.046	0.082
-641.682	-111.161	0.099	0.021
-640.668	-200.000	-0.003	-0.251
-639.653	-200.000	-0.008	0.124
-638.638	-73.276	0.179	0.067
-637.624	55.825	-0.190	0.187
-636.609	800.000	0.048	0.153
-635.595	-121.455	-0.159	0.027
-634.580	-99.043	0.310	0.080
-633.565	-200.000	-0.027	-0.165
-632.551	-37.812	-0.189	0.102
-631.536	6.227	0.038	0.029
-630.522	674.272	0.082	-0.215
-629.507	89.055	0.167	-0.188
-628.492	-153.379	0.064	-0.005
-627.478	174.895	0.284	-0.417
-626.463	-101.153	0.441	-0.110
-625.449	28.499	-0.339	-0.291
-624.434	333.951	-0.067	0.132
-623.419	34.365	0.180	-0.159
-622.405	-65.893	0.017	0.007
-621.390	-88.159	-0.206	-0.063
-620.376	5.902	0.147	0.111
-619.361	93.673	0.184	0.212
-618.346	800.000	-0.038	0.115
-617.332	800.000	-0.121	0.370
-616.317	128.788	-0.241	0.312
-615.303	58.540	0.185	0.184
-614.288	59.645	-0.102	0.102
-613.273	-34.241	-0.279	-0.156
-612.259	-200.000	-0.012	-0.295
-611.244	-73.427	-0.212	-0.078
-610.230	-9.107	-0.364	0.247
-609.215	87.103	-0.131	-0.146
-608.201	68.660	-0.196	-0.204
-607.186	-200.000	-0.051	0.271
-606.171	-140.746	0.363	-0.038
-605.157	-85.211	-0.092	0.029
-604.142	-1.888	0.350	-0.249
-603.128	-141.921	-0.238	0.024
-602.113	800.000	-0.039	-0.165
-601.098	-200.000	0.014	0.224
-600.084	-44.132	0.193	0.098
-599.069	-125.910	-0.273	-0.042
-598.055	-140.558	0.548	-0.058
-597.040	-165.804	0.110	0.005
-596.025	560.352	0.074	0.180
-595.011	136.708	-0.139	-0.184
-593.996	4.599	-0.289	-0.215
-592.982	-200.000	0.046	-0.285
-591.967	-84.129	-0.087	0.028
-590.952	-200.000	0.007	-0.252
-589.938	-93.703	-0.199	0.056
-588.923	800.000	0.048	0.156
-587.909	413.139	0.069	-0.148
-586.894	-4.852	-0.211	-0.148
-585.879	800.000	-0.043	-0.131
-584.865	-200.000	0.024	-0.225
-583.850	-83.951	0.050	-0.016
-582.836	-169.315	-0.387	0.014
-581.821	194.483	0.165	-0.254
-580.806	1.603	-0.075	0.055
-579.792	80.361	0.191	0.208
-578.777	-53.762	-0.232	-0.107
-577.763	124.311	-0.084	-0.107
-576.748	-111.884	0.283	0.058
-575.733	-28.661	-0.153	-0.089
-574.719	10.313	0.127	-0.098
-573.704	56.919	-0.184	-0.182
-572.690	-200.000	0.018	0.217
-571.675	800.000	0.091	-0.279
-570.661	159.741	0.154	-0.217
-569.646	-133.162	0.146	0.019
-568.631	226.625	-0.063	-0.104
-567.617	72.166	-0.190	-0.200
-566.602	125.858	0.085	-0.109
-565.588	800.000	0.140	0.463
-564.573	-106.206	0.167	0.038
-563.558	79.349	-0.140	-0.152
-562.544	-200.000	0.031	-0.257
-561.529	-200.000	0.003	0.040
-560.515	800.000	-0.092	-0.282
-559.500	-91.454	0.073	-0.021
-558.485	296.717	-0.019	0.035
-557.471	667.552	-0.035	0.091
-556.456	310.871	0.208	0.395
-555.442	124.951	-0.263	0.335
-554.427	-46.936	0.162	-0.080
-553.412	256.912	0.022	0.039
-552.398	-200.000	-0.346	-0.002
-551.383	68.777	-0.182	0.189
-550.369	431.631	0.056	0.123
-549.354	170.705	-0.082	-0.119
-548.339	-200.000	0.007	-0.137
-547.325	231.864	-0.060	0.100
-546.310	-143.684	0.056	0.005
-545.296	-200.000	-0.045	0.220
-544.281	322.389	-0.243	0.467
-543.266	-37.406	-0.201	0.109
-542.252	82.830	0.236	0.260
-541.237	-146.157	-0.222	-0.020
-540.223	34.434	0.308	0.272
-539.208	3.255	0.094	-0.069
-538.193	-200.000	-0.056	-0.277
-537.179	-200.000	-0.064	-0.435
-536.164	73.476	0.008	-0.008
-535.150	-51.608	0.398	-0.188
-534.135	-25.011	-0.086	0.052
-533.121	-200.000	0.030	0.159
-532.106	-100.938	0.411	-0.102
-531.091	-200.000	-0.071	-0.340
-530.077	-137.245	0.040	0.005
-529.062	171.632	-0.082	0.118
-528.048	-149.562	0.154	0.012
-527.033	-63.705	0.110	0.046
-526.018	-107.026	-0.187	-0.042
-525.004	-34.051	-0.091	0.051
-523.989	-107.916	-0.128	-0.028
-522.975	-111.512	0.127	-0.026
-521.960	23.911	-0.064	0.053
-520.945	-46.586	-0.134	0.067
-519.931	-152.329	-0.164	-0.012
-518.916	51.237	0.172	-0.165
-517.902	23.545	-0.232	-0.193
-516.887	-2.022	0.190	-0.135
-515.872	-100.520	-0.107	-0.027
-514.858	207.094	0.253	0.399
-513.843	21.627	0.024	-0.020
-512.829	354.137	0.100	-0.201
-511.814	800.000	0.032	-0.108
-510.799	-16.357	0.354	-0.227
-509.785	-157.595	0.095	-0.006
-508.770	-46.460	0.068	-0.034
-507.756	-122.792	-0.198	-0.032
-506.741	-62.288	0.231	-0.097
-505.726	53.067	0.131	0.127
-504.712	-200.000	-0.006	-0.126
-503.697	124.656	-0.255	-0.324
-502.683	388.646	-0.218	-0.457
-501.668	30.504	-0.104	-0.090
-500.653	-200.000	-0.010	0.270
-499.639	-112.926	-0.167	-0.033
-498.624	5.487	-0.198	0.148
-497.610	800.000	0.033	-0.125
-496.595	-107.247	0.152	-0.034
-495.581	372.772	0.157	0.322
-494.566	169.667	0.043	-0.063
-493.551	162.263	-0.039	0.055
-492.537	-57.626	-0.075	0.033
-491.522	14.792	0.202	0.160
-490.508	-90.343	-0.265	-0.078
-489.493	-130.034	0.096	0.013
-488.478	204.081	-0.215	-0.336
-487.464	-0.422	0.088	-0.063
-486.449	-156.725	-0.103	0.006
-485.435	2.110	0.171	0.125
-484.420	-40.356	0.410	-0.215
-483.405	-12.669	0.129	0.085
-482.391	-179.091	-0.082	0.002
-481.376	-34.259	-0.395	0.219
-480.362	-200.000	0.009	0.214
-479.347	-200.000	0.045	0.277
-478.332	-23.693	-0.128	-0.077
-477.318	118.866	0.115	0.143
-476.303	-28.219	-0.205	0.119
-475.289	-200.000	-0.022	-0.267
-474.274	-49.822	-0.025	-0.012
-473.259	-91.378	0.123	-0.036
-472.245	84.267	0.180	-0.199
-471.230	-34.285	0.092	0.051
-470.216	-73.795	-0.217	0.079
-469.201	-200.000	-0.031	-0.167
-468.186	27.858	-0.230	-0.195
-467.172	-61.397	-0.237	-0.100
-466.157	-84.410	-0.218	-0.070
-465.143	800.000	-0.057	0.197
-464.128	68.459	-0.227	-0.234
-463.113	613.168	0.016	-0.040
-462.099	-48.455	0.011	0.005
-461.084	-64.653	-0.266	0.109
-460.070	-200.000	-0.031	-0.139
-459.055	69.315	0.259	-0.269
-458.040	584.987	0.138	0.342
-457.026	800.000	0.037	-0.155
-456.011	-42.432	0.285	-0.146
-454.997	-200.000	-0.021	0.093
-453.982	4.274	0.118	0.087
-452.968	18.971	-0.164	-0.133
-451.953	-200.000	0.003	-0.229
-450.938	-79.937	0.038	0.013
-449.924	-116.011	-0.141	-0.026
-448.909	-200.000	0.006	0.306
-447.895	-35.025	0.255	-0.140
-446.880	714.689	-0.113	-0.301
-445.865	-87.775	-0.175	0.053
-444.851	-54.046	-0.248	0.114
-443.836	-136.360	-0.219	0.026
-442.822	47.334	0.099	-0.093
-441.807	167.781	-0.282	-0.403
-440.792	3.124	0.129	0.095
-439.778	-132.464	-0.057	-0.007
-438.763	-128.715	0.150	0.021
-437.749	116.303	0.023	-0.028
-436.734	-99.729	0.129	-0.032
-435.719	59.664	0.176	0.175
-434.705	246.677	0.141	0.240
-433.690	-10.787	0.144	0.096
-432.676	-200.000	0.042	0.248
-431.661	-200.000	0.001	-0.090
-430.646	235.471	-0.213	-0.354
-429.632	169.149	-0.096	0.137
-428.617	-34.379	0.179	-0.099
-427.603	382.662	0.185	-0.383
-426.588	800.000	0.033	-0.129
-425.573	-200.000	0.027	0.385
-424.559	-200.000	-0.048	0.329
-423.544	-121.154	-0.231	0.039
-422.530	800.000	0.010	0.030
-421.515	-100.353	0.134	0.033
-420.500	-122.716	-0.197	0.032
-419.486	800.000	0.057	-0.240
-418.471	-200.000	-0.046	0.435
-417.457	170.134	-0.055	-0.080
-416.442	30.568	0.097	0.084
-415.428	5.229	0.143	-0.106
-414.413	800.000	-0.076	0.307
-413.398	800.000	-0.011	-0.037
-412.384	45.167	0.134	0.124
-411.369	800.000	-0.038	-0.141
-410.355	-200.000	-0.058	-0.261
-409.340	-47.259	-0.269	-0.132
-408.325	-125.144	0.209	-0.032
-407.311	-84.968	-0.232	-0.073
-406.296	70.825	-0.197	-0.205
-405.282	333.996	0.029	-0.056
-404.267	-121.096	-0.066	-0.011
-403.252	1.531	0.129	0.093
-402.238	6.262	-0.200	-0.149
-401.223	-200.000	0.000	0.089
-400.209	92.286	0.227	0.257
-399.194	-36.216	-0.166	0.090
-398.179	94.504	0.225	0.257
-397.165	94.259	0.047	0.053
-396.150	-94.237	-0.169	-0.047
-395.136	-200.000	-0.026	-0.146
-394.121	780.602	-0.038	-0.105
-393.106	-200.000	-0.160	0.001
-392.092	-39.751	-0.428	-0.225
-391.077	-114.287	-0.209	-0.040
-390.063	58.372	0.053	-0.052
-389.048	-13.303	-0.352	-0.230
-388.033	-200.000	-0.048	0.339
-387.019	-171.912	0.151	0.005
-386.004	-9.824	0.226	0.151
-384.990	29.197	-0.388	0.331
-383.975	-52.321	0.341	-0.159
-382.960	256.821	0.059	0.102
-381.946	-55.466	-0.200	-0.090
-380.931	2.271	-0.032	-0.023
-379.917	-55.188	-0.182	0.082
-378.902	394.668	0.106	0.222
-377.888	-40.481	-0.028	-0.014
-376.873	-63.741	-0.221	-0.091
-375.858	487.916	-0.118	-0.271
-374.844	-200.000	-0.054	-0.278
-373.829	287.753	-0.079	-0.143
-372.815	191.690	-0.116	0.176
-371.800	242.146	0.125	0.211
-370.785	-200.000	-0.013	0.150
-369.771	18.001	0.108	0.087
-368.756	183.168	0.077	0.115
-367.742	-200.000	-0.036	0.301
-366.727	557.183	-0.052	0.126
-365.712	199.960	0.031	-0.048
-364.698	-46.746	0.179	0.088
-363.683	-200.000	-0.003	0.183
-362.669	-70.260	0.281	0.107
-361.654	-200.000	-0.014	0.295
-360.639	292.808	-0.124	-0.228
-359.625	-83.811	-0.402	0.129
-358.610	250.171	0.067	-0.115
-357.596	-200.000	0.008	-0.133
-356.581	-200.000	0.002	-0.170
-355.566	-200.000	-0.049	0.251
-354.552	800.000	0.103	0.307
-353.537	-89.916	0.239	-0.070
-352.523	800.000	0.069	-0.200
-351.508	723.365	-0.095	0.253
-350.493	-113.390	0.144	0.028
-349.479	-32.062	-0.103	0.058
-348.464	139.163	-0.116	0.153
-347.450	-93.174	-0.087	0.024
-346.435	800.000	-0.090	0.338
-345.420	326.874	-0.030	0.057
-344.406	291.460	0.028	-0.050
-343.391	-32.222	-0.220	0.123
-342.377	623.004	0.049	0.123
-341.362	159.028	-0.189	0.264
-340.348	180.004	-0.062	0.091
-339.333	-89.708	0.389	-0.114
-338.318	800.000	-0.012	-0.042
-337.304	69.592	0.246	0.254
-336.289	-37.216	0.253	0.136
-335.275	-6.354	-0.216	-0.148
-334.260	-63.751	-0.166	-0.068
-333.245	-37.736	0.418	-0.223
-332.231	-98.451	-0.164	0.042
-331.216	149.981	-0.104	-0.141
-330.202	-101.383	-0.284	-0.069
-329.187	-137.478	0.234	-0.027
-328.172	15.602	-0.171	-0.135
-327.158	138.769	-0.038	-0.049
-326.143	179.674	0.172	0.252
-325.129	129.927	0.109	-0.139
-324.114	800.000	0.091	-0.295
-323.099	-140.174	-0.060	0.006
-322.085	-160.752	0.247	0.013
-321.070	-110.955	-0.193	0.040
-320.056	-100.882	-0.104	-0.026
-319.041	-107.947	0.112	0.024
-318.026	436.037	0.077	0.168
-317.012	-52.436	-0.399	-0.185
-315.997	264.348	0.154	0.269
-314.983	-69.320	-0.015	0.006
-313.968	800.000	0.025	0.107
-312.953	-200.000	0.009	-0.208
-311.939	698.827	-0.051	-0.135
-310.924	800.000	0.188	0.547
-309.910	-152.221	-0.132	-0.010
-308.895	-143.547	0.379	0.036
-307.880	100.219	0.233	0.271
-306.866	122.519	-0.069	-0.086
-305.851	-24.919	-0.059	-0.035
-304.837	-200.000	0.080	0.401
-303.822	-200.000	-0.027	-0.144
-302.807	-97.076	0.077	-0.020
-301.793	-25.126	0.198	0.117
-300.778	-200.000	-0.037	0.193
-299.764	-140.609	-0.223	0.023
-298.749	800.000	-0.036	0.139
-297.735	-200.000	0.098	0.472
-296.720	-113.763	-0.417	-0.081
-295.705	-200.000	0.017	0.085
-294.691	326.444	-0.092	0.176
-293.676	-115.265	0.166	-0.031
-292.662	-163.128	0.191	0.009
-291.647	292.643	-0.088	-0.161
-290.632	513.853	-0.037	-0.086
-289.618	422.426	0.093	-0.199
-288.603	-65.532	0.288	0.116
-287.589	-126.312	-0.093	0.014
-286.574	800.000	-0.054	0.197
-285.559	-200.000	0.023	0.170
-284.545	266.351	0.084	-0.146
-283.530	73.536	-0.169	0.178
-282.516	-19.620	0.250	-0.155
-281.501	-69.463	0.043	0.017
-280.486	-96.409	-0.163	-0.043
-279.472	39.763	0.299	-0.269
-278.457	-14.484	0.252	-0.162
-277.443	28.162	-0.028	0.024
-276.428	-200.000	0.082	-0.503
-275.413	-200.000	-0.046	-0.337
-274.399	199.966	-0.050	-0.077
-273.384	270.600	0.127	-0.224
-272.370	-123.867	0.392	-0.062
-271.355	107.305	-0.057	0.067
-270.340	-200.000	0.017	-0.111
-269.326	-120.071	-0.225	0.039
-268.311	673.351	0.107	-0.278
-267.297	694.528	-0.017	0.044
-266.282	-200.000	-0.001	-0.152
-265.267	-39.434	-0.329	0.172
-264.253	-168.816	0.231	-0.009
-263.238	124.074	0.102	0.128
-262.224	21.626	0.240	-0.196
-261.209	177.083	0.067	-0.097
-260.195	-71.260	-0.144	-0.054
-259.180	-125.032	-0.453	-0.070
-258.165	-200.000	0.010	-0.049
-257.151	-100.138	0.239	-0.059
-256.136	-140.582	0.094	-0.010
-255.122	-59.472	0.097	-0.042
-254.107	-200.000	-0.025	0.162
-253.092	-200.000	0.030	-0.144
-252.078	-109.464	0.035	0.007
-251.063	-42.759	-0.262	0.133
-250.049	-200.000	0.019	-0.248
-249.034	-89.015	-0.134	-0.040
-248.019	67.469	0.090	0.092
-247.005	-131.146	0.543	-0.072
-245.990	320.900	-0.068	-0.129
-244.976	800.000	-0.034	-0.111
-243.961	99.676	0.096	-0.111
-242.946	-7.934	0.286	-0.193
-241.932	77.630	0.081	-0.086
-240.917	-200.000	0.007	0.421
-239.903	120.413	0.095	-0.118
-238.888	79.027	0.124	-0.132
-237.873	3.643	-0.085	0.062
-236.859	-200.000	-0.016	0.099
-235.844	-25.196	-0.208	0.123
-234.830	-200.000	0.016	0.198
-233.815	800.000	-0.142	-0.450
-232.800	222.536	0.084	0.136
-231.786	308.104	0.019	-0.036
-230.771	-18.504	0.163	0.102
-229.757	-36.365	-0.103	0.055
-228.742	800.000	0.023	-0.080
-227.727	46.046	-0.202	-0.187
-226.713	226.267	-0.143	0.232
-225.698	159.178	0.026	0.036
-224.684	-108.866	-0.202	0.043
-223.669	-200.000	-0.033	0.236
-222.655	800.000	-0.060	0.230
-221.640	-200.000	0.027	0.223
-220.625	-200.000	-0.056	0.357
-219.611	211.281	0.195	-0.307
-218.596	-200.000	0.047	0.331
-217.582	-17.359	0.200	0.125
-216.567	107.973	-0.063	0.076
-215.552	-34.057	0.357	0.196
-214.538	240.190	0.108	0.179
-213.523	123.743	-0.110	-0.138
-212.509	-196.010	0.094	0.001
-211.494	209.707	0.164	-0.256
-210.479	800.000	-0.004	0.016
-209.465	-200.000	-0.004	-0.088
-208.450	60.176	0.110	0.108
-207.436	37.937	-0.221	0.197
-206.421	800.000	-0.060	-0.257
-205.406	-24.998	-0.102	-0.061
-204.392	-96.206	-0.120	0.032
-203.377	179.938	0.049	0.072
-202.363	-200.000	-0.021	-0.370
-201.348	-83.383	-0.497	-0.159
-200.333	8.381	-0.337	0.253
-199.319	269.022	0.051	0.090
-198.304	239.027	0.099	0.164
-197.290	800.000	0.047	0.153
-196.275	-9.276	0.149	0.100
-195.260	800.000	0.073	0.226
-194.246	-26.641	0.259	0.151
-193.231	-200.000	0.001	0.166
-192.217	27.867	-0.093	-0.078
-191.202	-104.807	-0.246	-0.056
-190.187	-118.910	-0.136	0.024
-189.173	-93.307	-0.148	0.041
-188.158	123.924	-0.126	-0.158
-187.144	221.199	0.047	0.075
-186.129	324.037	0.010	-0.019
-185.114	-129.188	0.488	0.068
-184.100	426.054	-0.125	0.268
-183.085	-71.728	0.230	0.086
-182.071	-118.342	0.058	0.010
-181.056	116.602	0.061	0.075
-180.042	-200.000	-0.059	0.000
-179.027	575.129	-0.142	-0.346
-178.012	26.073	0.500	0.416
-176.998	242.235	-0.105	0.175
-175.983	-129.601	-0.377	0.052
-174.969	3.975	0.148	0.108
-173.954	-83.660	-0.139	0.044
-172.939	800.000	0.089	-0.248
-171.925	-78.371	-0.227	0.078
-170.910	226.017	0.141	0.228
-169.896	71.938	-0.082	-0.085
-168.881	153.135	-0.161	0.219
-167.866	-3.164	-0.101	0.071
-166.852	31.929	-0.076	-0.065
-165.837	-45.399	-0.054	0.027
-164.823	34.809	0.213	-0.185
-163.808	-107.735	0.175	-0.038
-162.793	800.000	0.055	-0.169
-161.779	-150.196	0.357	-0.028
-160.764	-182.166	0.204	-0.004
-159.750	-200.000	0.029	-0.307
-158.735	232.726	0.067	-0.109
-157.720	211.500	-0.080	0.126
-156.706	-38.178	-0.218	-0.115
-155.691	-76.065	0.391	-0.138
-154.677	-107.145	-0.168	-0.037
-153.662	-61.242	0.170	0.071
-152.647	-127.392	-0.248	0.036
-151.633	800.000	-0.025	-0.077
-150.618	-114.655	0.309	0.059
-149.604	800.000	-0.044	0.149
-148.589	-200.000	0.016	0.323
-147.574	800.000	-0.077	0.217
-146.560	-200.000	0.012	-0.100
-145.545	-200.000	0.003	-0.353
-144.531	800.000	0.054	0.170
-143.516	420.514	0.069	0.148
-142.502	-155.359	-0.110	-0.007
-141.487	-200.000	-0.005	0.221
-140.472	-17.761	-0.147	-0.092
-139.458	-200.000	-0.023	0.166
-138.443	-5.462	-0.275	0.188
-137.429	-126.159	0.344	0.051
-136.414	-200.000	-0.008	-0.062
-135.399	-35.471	0.095	-0.051
-134.385	273.587	-0.022	-0.038
-133.370	-74.132	0.096	0.034
-132.356	579.772	0.109	-0.266
-131.341	-107.925	-0.179	0.039
-130.326	-62.927	0.166	0.068
-129.312	-133.632	0.144	0.018
-128.297	-131.147	-0.272	-0.036
-127.283	800.000	-0.074	-0.304
-126.268	800.000	0.041	-0.155
-125.253	16.294	-0.212	-0.167
-124.239	167.428	-0.161	0.228
-123.224	-200.000	-0.067	-0.469
-122.210	-139.540	0.244	0.026
-121.195	157.401	0.180	-0.248
-120.180	68.288	0.295	-0.301
-119.166	-92.314	-0.154	-0.043
-118.151	-121.091	-0.263	0.044
-117.137	37.266	-0.107	0.094
-116.122	764.847	-0.072	-0.194
-115.107	-27.626	-0.183	-0.106
-114.093	-9.831	-0.234	0.155
-113.078	-45.423	0.141	0.069
-112.064	372.667	0.038	-0.077
-111.049	-87.622	-0.134	-0.040
-110.034	153.965	-0.092	-0.125
-109.020	-55.691	0.258	0.115
-108.005	-46.232	-0.047	0.023
-106.991	19.488	-0.117	-0.094
-105.976	-28.450	0.145	-0.083
-104.962	29.145	0.235	-0.198
-103.947	800.000	0.124	-0.501
-102.932	-171.918	0.300	0.010
-101.918	77.866	0.142	-0.150
-100.903	-68.215	-0.322	-0.125
-99.889	4.312	0.016	0.011
-98.874	-133.366	0.232	-0.029
-97.859	-49.773	0.191	-0.090
-96.845	493.459	0.108	-0.246
-95.830	580.970	0.058	0.141
-94.816	-105.472	-0.307	0.069
-93.801	135.424	-0.069	0.089
-92.786	112.352	0.168	0.202
-91.772	-97.687	-0.088	-0.023
-90.757	164.234	0.172	-0.241
-89.743	-200.000	-0.014	-0.212
-88.728	-138.611	-0.195	0.021
-87.713	-147.618	0.158	0.013
-86.699	652.010	0.098	-0.251
-85.684	82.270	-0.098	-0.106
-84.670	44.184	0.079	0.072
-83.655	-200.000	-0.009	-0.064
-82.640	-70.014	0.376	0.142
-81.626	70.988	0.271	0.279
-80.611	209.407	0.084	0.131
-79.597	-154.116	-0.078	0.005
-78.582	102.859	-0.033	-0.039
-77.567	-200.000	-0.005	0.186
-76.553	48.559	-0.130	0.121
-75.538	69.717	0.265	-0.271
-74.524	800.000	-0.070	0.273
-73.509	-59.143	-0.139	-0.060
-72.494	-83.627	0.112	-0.036
-71.480	-40.397	0.216	0.112
-70.465	280.212	-0.162	-0.288
-69.451	-51.705	0.249	-0.115
-68.436	16.003	-0.122	0.096
-67.422	-62.736	0.235	0.097
-66.407	-93.771	0.225	-0.062
-65.392	-94.810	0.396	-0.107
-64.378	-200.000	-0.066	-0.503
-63.363	-129.745	0.326	-0.045
-62.349	521.209	-0.022	0.052
-61.334	19.257	-0.988	-0.787
-60.319	260.511	0.276	0.474
-59.305	-200.000	-0.011	-0.464
-58.290	210.341	0.433	0.675
-57.276	800.000	0.537	1.631
-56.261	-200.000	90.793	507.439
-55.246	551.708	1366.031	3254.603
-54.232	184.820	2607.588	3836.683
-53.217	114.877	2231.709	2700.952
-52.203	45.070	1761.891	1610.675
-51.188	38.277	1568.634	1385.992
-50.173	35.840	1540.960	1344.481
-49.159	52.465	1588.540	1504.372
-48.144	56.037	1608.003	1548.131
-47.130	38.763	1564.556	1385.605
-46.115	35.511	1549.168	1349.118
-45.100	35.410	1545.885	1345.495
-44.086	35.375	1543.728	1343.322
-43.071	35.249	1541.983	1340.872
-42.057	35.260	1540.224	1339.361
-41.042	35.374	1538.495	1338.600
-40.027	35.361	1537.094	1337.240
-39.013	35.341	1535.433	1335.602
-37.998	35.321	1534.730	1334.797
-36.984	35.299	1533.207	1333.268
-35.969	35.215	1532.533	1332.045
-34.954	35.311	1530.385	1330.788
-33.940	35.307	1529.227	1329.706
-32.925	35.350	1527.435	1328.390
-31.911	35.339	1526.635	1327.566
-30.896	35.427	1524.733	1326.469
-29.881	35.395	1523.497	1325.116
-28.867	35.282	1522.516	1323.431
-27.852	35.324	1520.794	1322.170
-26.838	35.365	1519.072	1320.905
-25.823	35.469	1517.433	1320.142
-24.809	35.355	1515.807	1317.894
-23.794	35.365	1514.484	1316.757
-22.779	35.282	1513.684	1315.442
-21.765	35.336	1512.525	1314.751
-20.750	35.428	1511.269	1314.239
-19.736	35.426	1510.059	1313.123
-18.721	35.373	1508.905	1311.705
-17.706	35.371	1507.895	1310.762
-16.692	35.289	1506.733	1309.136
-15.677	35.285	1505.674	1308.135
-14.663	35.394	1503.971	1307.348
-13.648	35.238	1503.250	1305.605
-12.633	35.230	1502.359	1304.730
-11.619	35.245	1501.741	1304.238
-10.604	35.240	1501.197	1303.682
-9.590	35.194	1499.542	1301.881
-8.575	35.254	1499.460	1302.164
-7.560	35.326	1498.092	1301.415
-6.546	35.252	1497.446	1300.299
-5.531	35.234	1496.287	1299.118
-4.517	35.224	1495.338	1298.174
-3.502	35.204	1494.722	1297.454
-2.487	35.233	1493.240	1296.317
-1.473	35.236	1492.378	1295.533
-0.458	35.240	1491.091	1294.391
0.556	33.611	1481.755	1285.119
1.571	31.318	1455.481	1246.940
2.586	28.237	1394.339	1174.717
3.600	26.724	1311.112	1095.365
4.615	25.375	1263.291	1047.455
5.629	21.026	1204.589	974.452
6.644	9.871	1113.694	842.899
7.659	1.445	1068.625	766.357
8.673	0.319	1062.241	756.066
9.688	0.169	1059.409	753.231
10.702	-0.037	1057.913	751.074
11.717	0.109	1056.118	750.458
12.731	3.865	1061.596	773.085
13.746	14.352	1076.443	836.755
14.761	21.281	1085.173	878.435
15.775	22.091	1085.267	882.501
16.790	22.111	1084.881	882.213
17.804	21.819	1083.923	879.891
18.819	21.757	1082.646	878.461
19.834	21.782	1082.518	878.409
20.848	22.003	1081.861	878.904
21.863	22.008	1081.565	878.610
22.877	21.882	1081.249	877.644
23.892	21.970	1080.240	877.187
24.907	21.740	1079.401	875.279
25.921	21.702	1079.494	875.091
26.936	21.826	1078.200	874.579
27.950	21.953	1076.608	873.846
28.965	21.800	1075.682	872.257
29.980	21.702	1073.987	870.316
30.994	21.580	1073.292	869.068
32.009	21.833	1072.101	869.281
33.023	22.086	1071.329	869.831
34.038	21.700	1070.031	866.796
35.053	21.652	1069.439	865.999
36.067	21.891	1068.812	866.598
37.082	21.846	1067.972	865.618
38.096	22.011	1066.992	865.557
39.111	22.000	1066.530	865.054
40.126	22.241	1065.634	865.435
41.140	22.102	1064.339	863.625
42.155	21.838	1062.916	861.097
43.169	21.554	1061.901	858.808
44.184	21.498	1060.763	857.536
45.199	21.561	1059.398	856.666
46.213	21.462	1058.852	855.664
47.228	21.427	1057.723	854.503
48.242	21.711	1056.508	854.833
49.257	21.719	1055.978	854.366
50.271	21.855	1055.005	854.166
51.286	21.839	1054.691	853.757
52.301	21.878	1054.107	853.399
53.315	21.886	1053.247	852.665
54.330	21.909	1052.342	851.969
55.344	21.816	1051.345	850.635
56.359	21.766	1050.523	849.653
57.374	21.908	1049.807	849.687
58.388	21.591	1048.749	847.222
59.403	21.701	1047.824	846.932
60.417	21.632	1047.437	846.211
61.432	21.425	1046.368	844.275
62.447	21.524	1045.839	844.247
63.461	21.600	1045.377	844.166
64.476	21.608	1044.355	843.306
65.490	21.624	1043.579	842.684
66.505	21.473	1042.770	841.227
67.520	21.478	1041.933	840.502
68.534	21.651	1040.942	840.460
69.549	21.483	1040.161	838.951
70.563	21.265	1038.824	836.753
71.578	21.106	1038.385	835.562
72.593	21.156	1036.835	834.481
73.607	21.177	1035.668	833.569
74.622	21.028	1035.205	832.410
75.636	21.244	1034.468	832.775
76.651	21.522	1033.444	833.203
77.666	21.304	1032.874	831.629
78.680	21.264	1031.673	830.401
79.695	21.302	1031.541	830.398
80.709	21.438	1030.787	830.364
81.724	21.610	1029.594	830.147
82.739	21.515	1028.544	828.775
83.753	21.494	1027.798	828.004
84.768	21.823	1027.115	828.933
85.782	21.936	1027.216	829.476
86.797	22.251	1026.183	830.055
87.812	22.038	1025.690	828.579
88.826	22.051	1024.154	827.325
89.841	22.046	1023.274	826.517
90.855	22.041	1022.664	825.927
91.870	21.999	1022.286	825.353
92.884	22.132	1020.977	824.846
93.899	21.848	1020.389	822.968
94.914	21.839	1019.200	821.895
95.928	21.907	1018.750	821.777
96.943	22.006	1017.881	821.467
97.957	21.806	1016.582	819.409
98.972	21.537	1015.045	816.843
99.987	21.375	1014.181	815.319
101.001	21.323	1013.723	814.638
102.016	21.750	1013.261	816.182
103.030	21.719	1012.156	815.079
104.045	21.755	1011.289	814.473
105.060	21.665	1009.710	812.714
106.074	21.381	1008.693	810.504
107.089	21.427	1007.866	809.981
108.103	21.892	1007.354	811.653
109.118	21.781	1006.728	810.561
110.133	21.597	1005.446	808.609
111.147	21.583	1004.582	807.778
112.162	21.373	1003.273	805.687
113.176	21.262	1001.916	804.013
114.191	21.413	1001.160	804.031
115.206	21.471	1000.188	803.447
116.220	21.141	999.340	801.179
117.235	20.941	998.397	799.434
118.249	21.265	997.266	799.943
119.264	21.344	996.419	799.555
120.279	21.168	995.526	797.963
121.293	21.163	994.887	797.356
122.308	21.166	994.222	796.768
123.322	21.142	994.019	796.423
124.337	21.268	992.601	795.790
125.352	21.280	990.738	794.280
126.366	20.869	989.000	790.955
127.381	20.586	987.736	788.587
128.395	21.000	987.380	790.109
129.410	21.641	987.351	792.921
130.424	21.856	986.613	793.229
131.439	21.789	985.347	791.839
132.454	21.739	984.621	790.959
133.468	21.753	983.960	790.424
134.483	21.721	982.605	789.120
135.497	21.719	982.098	788.635
136.512	21.934	981.700	789.210
137.527	21.942	981.184	788.761
138.541	22.114	979.854	788.397
139.556	21.946	979.325	787.146
140.570	21.881	978.813	786.374
141.585	21.998	977.190	785.526
142.600	22.041	976.669	785.229
143.614	21.972	975.664	784.045
144.629	21.990	975.117	783.614
145.643	22.292	974.570	784.451
146.658	22.168	973.304	782.814
147.673	21.938	972.138	780.783
148.687	21.928	970.866	779.646
149.702	21.775	969.813	778.052
150.716	21.752	968.835	777.096
151.731	21.811	967.911	776.548
152.746	21.757	967.350	775.790
153.760	22.035	966.443	776.225
154.775	22.245	965.921	776.665
155.789	22.181	965.308	775.819
156.804	22.150	963.928	774.503
157.819	22.070	962.830	773.202
158.833	21.943	962.535	772.338
159.848	22.215	961.459	772.603
160.862	22.230	961.103	772.314
161.877	22.054	960.017	770.600
162.892	22.094	958.474	769.467
163.906	22.169	957.786	769.175
164.921	22.006	957.152	767.888
165.935	22.007	955.721	766.677
166.950	22.106	954.956	766.425
167.964	22.113	953.627	765.323
168.979	22.119	952.508	764.382
169.994	21.912	952.110	763.094
171.008	21.930	950.746	762.013
172.023	22.026	950.241	761.956
173.037	22.218	949.433	762.076
174.052	22.001	948.615	760.412
175.067	21.878	947.003	758.518
176.081	21.803	946.062	757.375
177.096	21.869	945.723	757.322
178.110	22.025	944.861	757.237
179.125	21.769	943.637	755.086
180.140	21.468	942.729	752.999
181.154	21.391	942.222	752.192
182.169	21.535	941.638	752.281
183.183	21.791	941.322	753.061
184.198	22.126	940.891	754.088
185.213	22.012	939.931	752.762
186.227	21.907	939.695	752.055
187.242	22.052	938.857	751.940
188.256	22.082	938.292	751.552
189.271	22.104	937.031	750.565
190.286	22.212	936.637	750.647
191.300	22.099	935.728	749.368
192.315	21.352	934.859	745.424
193.329	20.772	932.855	741.288
194.344	20.497	931.693	739.130
195.359	21.015	932.182	741.656
196.373	21.747	932.406	744.882
197.388	22.044	932.165	745.887
198.402	21.924	930.941	744.333
199.417	21.964	930.441	744.035
200.432	21.836	930.263	743.284
201.446	21.736	929.674	742.325
202.461	21.536	928.485	740.464
203.475	21.588	928.265	740.442
204.490	21.175	926.467	737.200
205.504	20.119	924.537	731.149
206.519	20.553	924.542	732.918
207.534	21.386	925.124	736.826
208.548	21.591	924.386	737.034
209.563	21.886	924.259	738.110
210.577	22.052	923.274	737.955
211.592	21.689	922.433	735.694
212.607	22.137	922.537	737.595
213.621	22.182	921.938	737.238
214.636	22.058	921.288	736.134
215.650	22.097	920.518	735.618
216.665	22.124	919.773	735.066
217.680	22.149	919.214	734.661
218.694	22.201	918.836	734.510
219.709	21.895	917.649	732.218
220.723	21.536	916.766	729.955
221.738	21.655	916.471	730.150
222.753	21.853	915.937	730.487
223.767	21.944	914.908	729.979
224.782	22.049	914.192	729.781
225.796	22.055	914.041	729.617
226.811	22.230	913.288	729.679
227.826	21.819	912.053	726.925
228.840	21.031	910.784	722.586
229.855	21.003	910.058	721.832
230.869	21.367	909.353	722.712
231.884	21.027	908.486	720.556
232.899	20.868	907.943	719.403
233.913	21.866	908.250	723.703
234.928	22.069	907.720	724.054
235.942	21.754	907.046	722.156
236.957	21.858	906.741	722.275
237.972	21.553	904.912	719.501
238.986	21.588	904.565	719.305
240.001	21.589	904.362	719.086
241.015	21.581	903.313	718.155
242.030	21.686	902.982	718.259
243.045	21.867	902.149	718.273
244.059	21.948	901.683	718.171
245.074	21.918	901.707	718.003
246.088	21.872	900.629	716.894
247.103	21.658	899.591	715.130
248.117	21.779	898.843	714.965
249.132	22.180	899.106	716.748
250.147	22.533	898.772	717.856
251.161	22.549	898.176	717.382
252.176	22.742	897.701	717.723
253.190	22.830	897.074	717.518
254.205	22.935	896.529	717.445
255.220	22.933	895.676	716.688
256.234	22.988	895.271	716.526
257.249	22.947	894.721	715.856
258.263	22.633	894.481	714.326
259.278	22.772	893.403	713.964
260.293	22.707	893.116	713.412
261.307	22.869	892.312	713.359
262.322	22.767	891.465	712.207
263.336	22.592	890.846	710.944
264.351	22.247	889.522	708.437
265.366	21.102	887.498	702.155
266.380	20.659	886.796	699.755
267.395	21.669	886.830	703.784
268.409	22.233	887.585	706.586
269.424	22.407	886.449	706.319
270.439	22.526	885.887	706.285
271.453	22.681	885.404	706.458
272.468	22.522	884.715	705.209
273.482	22.706	884.264	705.522
274.497	22.929	883.730	705.927
275.512	22.808	882.728	704.580
276.526	22.161	881.131	700.665
277.541	22.262	881.025	700.922
278.555	22.625	880.827	702.147
279.570	22.559	879.732	700.948
280.585	22.402	878.893	699.596
281.599	22.418	878.740	699.473
282.614	22.536	878.252	699.493
283.628	22.123	877.015	696.808
284.643	21.688	876.526	694.635
285.657	22.105	876.214	695.980
286.672	22.142	875.269	695.312
287.687	21.604	874.292	692.346
288.701	21.847	874.659	693.537
289.716	22.426	873.977	695.223
290.730	22.100	873.110	693.184
291.745	21.928	872.244	691.757
292.760	21.866	871.050	690.505
293.774	21.703	871.007	689.770
294.789	22.515	871.536	693.326
295.803	23.086	871.656	695.606
296.818	23.149	871.070	695.322
297.833	23.209	870.648	695.163
298.847	22.893	869.485	692.931
299.862	22.515	868.398	690.523
300.876	22.862	867.683	691.254
301.891	23.114	867.781	692.254
302.906	23.157	867.088	691.810
303.920	22.767	865.721	689.135
304.935	22.668	864.673	687.853
305.949	22.975	864.960	689.220
306.964	23.176	864.122	689.271
307.979	22.780	863.739	687.365
308.993	22.790	863.256	686.956
310.008	23.091	862.912	687.795
311.022	23.204	862.515	687.857
312.037	22.991	861.941	686.510
313.052	22.918	860.900	685.337
314.066	22.891	860.469	684.829
315.081	22.176	858.848	680.709
316.095	21.496	857.291	676.787
317.110	21.989	857.581	678.862
318.125	22.748	858.078	682.131
319.139	22.290	857.128	679.547
320.154	21.198	855.441	673.935
321.168	20.797	854.360	671.478
322.183	21.448	854.310	673.891
323.197	22.166	855.003	677.142
324.212	22.624	854.531	678.474
325.227	22.790	853.978	678.612
326.241	22.816	853.468	678.248
327.256	22.900	852.755	677.942
328.270	22.895	852.372	677.558
329.285	22.727	851.402	676.085
330.300	22.567	850.441	674.648
331.314	22.331	850.032	673.363
332.329	22.287	849.601	672.793
333.343	22.625	849.169	673.684
334.358	23.021	848.821	674.859
335.373	23.005	848.023	674.104
336.387	23.048	847.417	673.727
337.402	23.286	847.354	674.523
338.416	23.370	846.856	674.388
339.431	23.453	845.987	673.951
340.446	23.440	845.508	673.461
341.460	23.409	845.611	673.364
342.475	23.568	844.788	673.251
343.489	23.349	844.014	671.745
344.504	23.265	843.539	670.991
345.519	23.549	843.308	671.824
346.533	23.798	842.883	672.366
347.548	23.833	842.430	672.080
348.562	23.810	842.014	671.601
349.577	23.776	841.364	670.894
350.592	23.866	840.390	670.399
351.606	23.688	840.436	669.704
352.621	23.716	839.713	669.174
353.635	23.475	839.121	667.736
354.650	23.534	838.471	667.381
355.665	23.226	837.510	665.401
356.679	22.139	835.844	659.939
357.694	22.145	835.138	659.344
358.708	22.762	835.265	661.700
359.723	22.778	834.582	661.162
360.738	22.852	834.623	661.413
361.752	23.460	834.104	663.217
362.767	23.485	833.878	663.072
363.781	23.854	833.387	664.002
364.796	23.979	833.707	664.664
365.810	24.103	833.011	664.513
366.825	24.233	832.691	664.683
367.840	24.255	832.214	664.327
368.854	23.997	831.665	662.870
369.869	23.556	830.504	660.245
370.883	23.511	830.006	659.625
371.898	23.621	829.455	659.537
372.913	23.526	828.905	658.685
373.927	23.399	828.200	657.597
374.942	23.690	827.250	657.865
375.956	23.761	827.139	657.978
376.971	23.815	827.079	658.074
377.986	23.844	826.104	657.348
379.000	24.049	825.773	657.782
380.015	24.070	825.705	657.747
381.029	23.943	824.726	656.443
382.044	23.850	824.137	655.570
383.059	24.040	823.544	655.742
384.073	24.027	822.772	655.021
385.088	24.056	822.883	655.160
386.102	24.136	822.138	654.800
387.117	23.958	821.242	653.376
388.132	23.939	820.479	652.641
389.146	23.724	819.858	651.300
390.161	23.138	818.913	648.347
391.175	23.161	819.098	648.520
392.190	23.676	818.797	650.111
393.205	23.739	818.147	649.768
394.219	22.681	816.697	644.692
395.234	21.110	814.451	637.132
396.248	20.506	813.260	633.940
397.263	21.429	814.194	637.982
398.278	23.386	815.341	645.966
399.292	23.780	815.046	647.111
400.307	23.506	814.208	645.391
401.321	23.533	813.882	645.172
402.336	23.556	813.638	645.006
403.350	23.671	813.765	645.468
404.365	24.170	813.797	647.251
405.380	24.428	813.565	647.945
406.394	24.617	813.371	648.418
407.409	24.811	812.846	648.646
408.423	24.930	812.283	648.570
409.438	24.671	811.652	647.073
410.453	24.615	811.246	646.488
411.467	24.806	810.646	646.643
412.482	24.788	810.037	646.036
413.496	24.701	809.912	645.563
414.511	24.757	809.671	645.519
415.526	24.731	809.106	644.917
416.540	24.624	808.704	644.154
417.555	24.774	807.997	644.072
418.569	24.580	807.020	642.538
419.584	24.558	806.650	642.108
420.599	24.359	806.354	641.101
421.613	151.694	1365.751	1789.956
422.628	131.653	1447.266	1790.056
