DTS Sentinel unit serial number:	SN413079Multiplexer serial number:	ORYXHardware model number:	OX4-SRSoftware version number:	ORYX F/W v4.00 Oryx Data Collector v3.7.2.0data status	okinstallation	princeton_trtdifferential loss correction	single-endedforward channel	channel 3reverse channel	N/Adate	2019/09/12time	01:38:10forward acquisition time	60.00reverse acquisition time	0.00gamma	496.2192k internal	0.2320k external	0.2320temperature offset calibration	1.0067default loss term (dB/km)	0.3790temperature slope calibration	1.0000multiplexer offset coefficient	1.0000multiplexer slope coefficient	1.0000fibre end	0.00T internal ref (°C)	32.87T ext. ref 1 (°C)	2.07T ext. ref 2 (°C)	27.58length (m)	temperature (°C)	Stokes	anti-Stokes-747.200	339.615	-0.150	-0.296
-746.185	-88.426	-0.018	-0.005
-745.171	-133.556	0.151	-0.019
-744.156	284.421	-0.233	0.424
-743.142	-109.998	0.057	0.012
-742.127	-200.000	-0.027	0.315
-741.112	76.789	-0.040	-0.043
-740.098	78.049	0.227	0.245
-739.083	333.664	-0.060	0.117
-738.069	127.743	-0.163	0.210
-737.054	8.489	-0.252	-0.192
-736.039	-200.000	-0.009	-0.243
-735.025	-104.209	-0.046	-0.011
-734.010	-115.938	-0.365	0.069
-732.996	-200.000	-0.019	-0.261
-731.981	800.000	-0.141	-0.419
-730.966	800.000	-0.072	-0.310
-729.952	389.767	-0.063	-0.131
-728.937	16.030	0.387	-0.308
-727.923	-4.566	-0.252	-0.176
-726.908	254.777	0.205	-0.355
-725.894	800.000	-0.078	0.262
-724.879	543.970	0.022	-0.053
-723.864	-33.162	-0.129	0.072
-722.850	-116.209	0.225	-0.042
-721.835	-82.390	-0.283	-0.093
-720.821	32.450	-0.058	0.050
-719.806	153.462	-0.190	-0.263
-718.791	169.320	-0.168	-0.242
-717.777	-116.714	0.217	0.040
-716.762	800.000	0.049	0.204
-715.748	-85.259	-0.310	0.098
-714.733	64.935	-0.281	-0.287
-713.718	-55.830	-0.038	-0.017
-712.704	301.023	0.168	-0.313
-711.689	19.905	-0.194	0.158
-710.675	-51.297	-0.330	0.156
-709.660	-200.000	0.020	-0.205
-708.645	-20.426	0.127	0.079
-707.631	631.822	0.097	0.248
-706.616	-16.690	-0.131	-0.084
-705.602	-200.000	0.009	-0.052
-704.587	19.863	0.102	0.083
-703.572	-69.196	-0.285	0.110
-702.558	-200.000	0.033	-0.188
-701.543	309.927	-0.098	-0.186
-700.529	-59.404	0.187	-0.081
-699.514	-15.088	-0.089	-0.058
-698.499	351.760	-0.106	-0.211
-697.485	-112.119	0.213	-0.043
-696.470	-40.063	-0.191	0.100
-695.456	312.863	0.116	0.220
-694.441	800.000	0.023	-0.084
-693.426	-17.303	-0.140	0.089
-692.412	-172.530	-0.157	0.005
-691.397	48.053	-0.081	-0.077
-690.383	-12.854	0.129	-0.085
-689.368	-200.000	0.026	0.124
-688.354	-200.000	0.164	0.001
-687.339	163.402	-0.083	0.118
-686.324	-145.427	0.091	0.008
-685.310	-200.000	-0.004	-0.059
-684.295	-129.288	0.223	-0.031
-683.281	-124.659	0.254	-0.040
-682.266	103.896	-0.102	0.121
-681.251	428.963	-0.154	0.336
-680.237	576.982	0.021	-0.053
-679.222	-200.000	-0.002	-0.232
-678.208	75.704	0.209	-0.223
-677.193	23.933	0.035	-0.029
-676.178	85.155	0.107	-0.118
-675.164	71.837	-0.040	0.042
-674.149	-200.000	-0.007	-0.039
-673.135	-99.621	0.181	-0.046
-672.120	666.515	0.044	-0.113
-671.105	-40.313	-0.506	-0.266
-670.091	-112.094	0.169	-0.034
-669.076	-123.247	0.269	0.043
-668.062	-166.762	0.199	0.008
-667.047	-200.000	-0.002	0.177
-666.032	310.153	-0.112	0.212
-665.018	-96.513	0.265	-0.071
-664.003	22.261	-0.097	-0.080
-662.989	-200.000	-0.024	-0.263
-661.974	-30.304	-0.061	-0.035
-660.959	-64.791	0.074	-0.030
-659.945	167.760	0.228	0.326
-658.930	-89.615	0.270	0.080
-657.916	84.323	-0.085	0.094
-656.901	-31.596	-0.412	0.233
-655.886	-162.035	-0.432	0.022
-654.872	263.968	-0.107	0.187
-653.857	-95.104	-0.167	0.045
-652.843	107.602	-0.216	0.259
-651.828	705.831	-0.009	0.025
-650.814	70.234	0.055	0.057
-649.799	-12.264	-0.084	-0.056
-648.784	109.157	-0.141	0.170
-647.770	56.566	-0.287	0.281
-646.755	331.749	0.064	-0.124
-645.741	106.454	-0.104	0.124
-644.726	-39.492	0.317	0.167
-643.711	-43.043	0.426	0.218
-642.697	800.000	-0.024	-0.093
-641.682	78.398	-0.277	-0.298
-640.668	800.000	0.132	0.452
-639.653	-42.421	0.141	0.072
-638.638	800.000	0.040	-0.128
-637.624	800.000	0.038	-0.110
-636.609	800.000	0.041	0.113
-635.595	-59.266	0.229	-0.099
-634.580	-200.000	0.023	0.354
-633.565	27.193	0.234	0.198
-632.551	-200.000	0.010	0.112
-631.536	-67.000	-0.191	-0.076
-630.522	1.399	-0.190	0.137
-629.507	43.355	0.080	-0.074
-628.492	-105.852	0.099	0.022
-627.478	-94.847	0.140	-0.038
-626.463	-94.201	0.185	0.051
-625.449	-61.463	-0.131	-0.055
-624.434	-34.222	0.305	-0.168
-623.419	-200.000	-0.051	0.225
-622.405	-152.055	-0.184	0.014
-621.390	-144.258	0.213	0.020
-620.376	-200.000	0.022	-0.379
-619.361	50.586	0.237	-0.226
-618.346	800.000	-0.059	0.189
-617.332	87.258	0.031	-0.034
-616.317	181.592	0.294	0.435
-615.303	-200.000	-0.013	-0.226
-614.288	66.098	-0.051	0.052
-613.273	-39.007	-0.167	0.088
-612.259	330.295	0.236	0.457
-611.244	-200.000	-0.003	-0.256
-610.230	222.172	0.246	0.398
-609.215	-127.507	-0.155	0.023
-608.201	670.957	-0.105	0.274
-607.186	277.678	-0.084	-0.150
-606.171	591.974	0.178	-0.443
-605.157	800.000	-0.057	-0.205
-604.142	112.166	0.137	0.167
-603.128	-72.790	0.151	-0.056
-602.113	-151.096	-0.208	0.016
-601.098	-8.716	-0.405	0.274
-600.084	-170.844	-0.111	-0.004
-599.069	349.361	0.113	-0.224
-598.055	72.782	-0.153	0.161
-597.040	86.495	-0.305	0.338
-596.025	-72.069	-0.127	-0.047
-595.011	800.000	-0.091	0.335
-593.996	-115.001	0.355	0.068
-592.982	800.000	-0.141	0.413
-591.967	-68.828	-0.229	-0.089
-590.952	-200.000	-0.024	-0.184
-589.938	134.263	0.052	-0.067
-588.923	-200.000	0.009	0.107
-587.909	-200.000	0.002	0.363
-586.894	-155.558	0.170	-0.011
-585.879	800.000	0.077	-0.259
-584.865	188.298	0.170	-0.255
-583.850	-200.000	0.006	-0.344
-582.836	-200.000	0.005	0.118
-581.821	-200.000	0.040	0.222
-580.806	800.000	-0.051	0.193
-579.792	-29.339	-0.256	0.147
-578.777	800.000	-0.081	-0.260
-577.763	-44.081	0.051	0.026
-576.748	37.654	-0.324	0.289
-575.733	689.144	0.084	-0.222
-574.719	-200.000	-0.014	-0.191
-573.704	-110.784	0.039	-0.008
-572.690	-175.441	-0.313	0.009
-571.675	800.000	-0.087	-0.295
-570.661	-81.838	-0.065	-0.022
-569.646	-24.702	-0.096	0.058
-568.631	653.211	-0.045	-0.115
-567.617	690.871	0.124	-0.327
-566.602	-200.000	-0.035	0.218
-565.588	-200.000	-0.002	0.038
-564.573	62.433	0.179	-0.180
-563.558	-65.037	-0.382	0.155
-562.544	-63.258	0.133	-0.055
-561.529	163.108	-0.130	0.183
-560.515	-75.211	0.217	-0.078
-559.500	338.779	-0.095	0.185
-558.485	259.792	-0.219	0.379
-557.471	696.732	-0.099	-0.262
-556.456	-200.000	0.022	0.119
-555.442	-74.787	-0.131	-0.047
-554.427	-50.353	-0.091	0.043
-553.412	144.132	0.101	0.136
-552.398	159.525	0.109	0.152
-551.383	-103.278	-0.126	0.030
-550.369	-116.855	0.146	-0.027
-549.354	140.743	0.411	-0.545
-548.339	25.956	-0.382	0.320
-547.325	800.000	-0.027	-0.112
-546.310	137.751	-0.080	0.105
-545.296	795.113	0.026	-0.072
-544.281	261.476	0.059	0.102
-543.266	-123.942	0.306	-0.048
-542.252	109.807	-0.234	0.281
-541.237	-33.222	-0.184	0.102
-540.223	0.914	0.150	-0.108
-539.208	800.000	-0.091	-0.256
-538.193	-200.000	-0.015	0.309
-537.179	139.780	0.160	0.212
-536.164	-200.000	0.012	-0.196
-535.150	63.397	-0.006	0.006
-534.135	44.860	0.105	-0.097
-533.121	197.873	0.108	-0.166
-532.106	800.000	-0.034	-0.102
-531.091	-192.657	0.018	0.000
-530.077	32.394	0.226	0.195
-529.062	-10.563	0.035	0.023
-528.048	-200.000	0.007	0.120
-527.033	-200.000	-0.010	0.153
-526.018	-200.000	0.028	0.192
-525.004	2.930	0.101	0.074
-523.989	22.036	-0.094	0.077
-522.975	227.790	-0.032	-0.052
-521.960	93.268	-0.007	0.008
-520.945	147.121	-0.116	-0.157
-519.931	21.766	-0.097	0.079
-518.916	353.214	0.149	0.296
-517.902	35.137	-0.024	0.021
-516.887	4.937	0.094	0.069
-515.872	33.855	0.157	0.137
-514.858	-153.349	0.313	0.022
-513.843	769.574	-0.062	-0.170
-512.829	800.000	0.054	-0.191
-511.814	89.911	-0.128	-0.143
-510.799	-28.674	0.265	0.153
-509.785	-101.902	-0.230	-0.056
-508.770	-200.000	-0.000	-0.234
-507.756	-139.123	0.432	-0.047
-506.741	-200.000	-0.003	-0.060
-505.726	-200.000	0.023	-0.236
-504.712	-40.499	-0.158	-0.082
-503.697	16.635	0.152	-0.120
-502.683	301.377	-0.093	-0.172
-501.668	-105.323	-0.207	-0.047
-500.653	221.279	-0.191	-0.307
-499.639	-87.395	0.128	0.039
-498.624	-200.000	0.008	-0.121
-497.610	-200.000	-0.020	0.146
-496.595	5.058	-0.291	0.214
-495.581	-200.000	-0.007	0.066
-494.566	299.722	0.272	0.503
-493.551	-170.932	0.313	-0.011
-492.537	-40.557	-0.183	0.095
-491.522	-200.000	0.013	-0.177
-490.508	-111.511	-0.231	-0.047
-489.493	32.705	0.157	-0.136
-488.478	52.962	-0.081	-0.078
-487.464	-69.479	0.143	-0.055
-486.449	165.694	-0.161	0.228
-485.435	-21.144	-0.343	-0.210
-484.420	361.594	0.055	-0.110
-483.405	-132.424	-0.184	-0.024
-482.391	-50.639	-0.172	-0.081
-481.376	-200.000	0.067	-0.466
-480.362	-24.925	0.135	-0.080
-479.347	84.098	0.096	0.105
-478.332	156.159	0.150	-0.208
-477.318	-200.000	0.011	-0.562
-476.303	800.000	0.120	-0.416
-475.289	-172.754	0.355	0.011
-474.274	63.468	0.150	0.151
-473.259	800.000	-0.076	0.242
-472.245	-200.000	-0.001	0.262
-471.230	-112.387	-0.163	0.033
-470.216	-66.199	0.079	-0.032
-469.201	-146.346	0.188	-0.016
-468.186	-133.941	-0.056	-0.007
-467.172	-200.000	0.036	0.317
-466.157	-97.828	0.166	-0.043
-465.143	-133.891	-0.217	-0.027
-464.128	745.138	-0.085	-0.228
-463.113	-200.000	0.009	-0.068
-462.099	98.429	-0.078	-0.090
-461.084	102.436	0.302	0.353
-460.070	43.872	-0.151	0.139
-459.055	138.382	-0.184	-0.242
-458.040	-200.000	-0.013	0.175
-457.026	-130.535	-0.125	-0.017
-456.011	-200.000	-0.009	0.071
-454.997	29.734	0.060	-0.051
-453.982	23.385	-0.211	0.174
-452.968	-200.000	-0.052	0.231
-451.953	-200.000	-0.064	0.316
-450.938	-12.877	0.141	0.091
-449.924	-74.676	-0.118	0.042
-448.909	-111.303	0.232	0.047
-447.895	-142.622	-0.320	-0.031
-446.880	800.000	0.033	0.104
-445.865	-200.000	0.057	0.272
-444.851	-200.000	-0.012	0.199
-443.836	-57.892	0.141	0.061
-442.822	50.697	0.162	0.153
-441.807	-51.264	0.268	-0.126
-440.792	236.922	-0.083	0.137
-439.778	-200.000	-0.003	-0.083
-438.763	-12.828	0.143	-0.093
-437.749	80.500	-0.168	0.180
-436.734	-200.000	-0.051	-0.475
-435.719	-37.127	0.281	0.151
-434.705	5.755	0.187	-0.138
-433.690	261.812	0.094	-0.163
-432.676	35.308	-0.353	-0.310
-431.661	-200.000	-0.008	0.233
-430.646	-200.000	-0.037	-0.289
-429.632	358.385	-0.105	0.209
-428.617	-55.427	0.078	-0.035
-427.603	-94.866	0.055	-0.015
-426.588	-132.629	-0.439	-0.056
-425.573	-18.948	-0.132	-0.082
-424.559	-78.888	-0.088	0.030
-423.544	-138.610	-0.109	0.012
-422.530	129.442	0.160	-0.203
-421.515	-27.964	0.148	0.086
-420.500	146.820	-0.177	-0.237
-419.486	-111.586	-0.132	-0.027
-418.471	-200.000	0.011	0.140
-417.457	-74.680	0.078	-0.028
-416.442	-94.949	-0.182	0.049
-415.428	-200.000	-0.157	0.000
-414.413	133.602	-0.359	-0.463
-413.398	6.809	-0.218	-0.162
-412.384	20.070	-0.073	0.059
-411.369	-71.578	-0.107	-0.040
-410.355	161.118	-0.140	-0.196
-409.340	98.309	-0.048	0.055
-408.325	24.065	0.132	-0.109
-407.311	9.266	0.375	-0.283
-406.296	-113.340	-0.365	0.071
-405.282	187.473	-0.204	0.304
-404.267	-69.684	0.274	0.104
-403.252	3.896	0.210	-0.153
-402.238	-99.187	-0.184	-0.046
-401.223	-102.360	-0.433	0.104
-400.209	369.636	-0.180	-0.364
-399.194	139.397	-0.163	0.214
-398.179	375.752	-0.060	0.123
-397.165	62.669	-0.101	0.100
-396.150	-101.698	-0.452	-0.109
-395.136	-5.241	0.208	-0.143
-394.121	-52.768	-0.199	0.092
-393.106	515.689	-0.083	0.194
-392.092	-200.000	-0.016	-0.106
-391.077	288.482	0.110	0.199
-390.063	-22.704	0.119	0.071
-389.048	-200.000	-0.005	-0.240
-388.033	-111.635	-0.292	-0.059
-387.019	34.345	-0.259	-0.226
-386.004	-41.614	-0.298	-0.153
-384.990	13.349	-0.309	0.239
-383.975	221.751	-0.123	0.197
-382.960	-19.953	-0.155	0.095
-381.946	10.568	-0.327	-0.249
-380.931	-12.158	-0.147	-0.096
-379.917	800.000	-0.066	0.262
-378.902	-177.832	0.080	-0.002
-377.888	-183.466	0.205	0.004
-376.873	60.050	0.211	-0.208
-375.858	-109.166	0.138	-0.029
-374.844	-132.666	-0.144	0.018
-373.829	158.411	0.143	-0.198
-372.815	42.230	0.084	-0.076
-371.800	233.683	-0.065	0.106
-370.785	-68.210	-0.219	0.085
-369.771	-48.956	-0.074	0.036
-368.756	-92.932	0.132	-0.037
-367.742	800.000	0.064	-0.276
-366.727	-28.625	-0.292	-0.168
-365.712	800.000	0.060	0.227
-364.698	26.650	0.215	-0.179
-363.683	-80.880	-0.208	0.069
-362.669	9.263	0.289	-0.217
-361.654	225.185	0.107	-0.172
-360.639	800.000	-0.190	-0.541
-359.625	68.762	-0.150	-0.154
-358.610	52.999	0.137	-0.131
-357.596	14.628	-0.256	0.199
-356.581	-103.898	0.249	-0.058
-355.566	-25.428	0.353	0.208
-354.552	181.369	-0.073	-0.107
-353.537	506.336	-0.042	0.098
-352.523	-25.046	-0.172	0.102
-351.508	-133.700	0.216	-0.027
-350.493	-56.204	-0.253	0.112
-349.479	800.000	0.009	0.027
-348.464	-200.000	0.045	-0.283
-347.450	154.352	-0.107	0.146
-346.435	121.720	0.199	-0.247
-345.420	663.898	0.078	-0.199
-344.406	9.819	-0.034	0.026
-343.391	800.000	-0.062	0.193
-342.377	205.867	0.076	-0.118
-341.362	-162.185	-0.309	0.015
-340.348	800.000	-0.059	0.173
-339.333	-200.000	0.068	0.355
-338.318	185.614	-0.171	0.253
-337.304	159.115	-0.099	-0.137
-336.289	-200.000	-0.001	-0.090
-335.275	-200.000	-0.004	-0.090
-334.260	-62.668	0.129	-0.053
-333.245	407.518	0.063	-0.132
-332.231	76.767	-0.178	0.188
-331.216	158.822	0.031	-0.043
-330.202	410.940	0.116	-0.245
-329.187	269.706	-0.173	-0.302
-328.172	-14.340	0.156	-0.100
-327.158	800.000	0.089	-0.380
-326.143	368.380	0.140	-0.281
-325.129	27.638	-0.038	-0.032
-324.114	-183.066	0.328	0.006
-323.099	22.473	0.362	0.294
-322.085	138.426	-0.136	0.178
-321.070	-91.570	0.197	-0.056
-320.056	-38.715	0.135	0.071
-319.041	-200.000	-0.058	0.272
-318.026	-75.907	-0.387	-0.136
-317.012	205.700	-0.254	0.393
-315.997	27.485	-0.232	0.194
-314.983	-200.000	-0.015	-0.404
-313.968	347.816	-0.145	0.284
-312.953	-33.569	0.314	0.172
-311.939	800.000	-0.099	0.288
-310.924	-118.766	0.030	0.005
-309.910	-130.520	0.298	-0.040
-308.895	368.756	-0.043	0.086
-307.880	192.956	-0.121	0.182
-306.866	557.782	-0.077	0.184
-305.851	-200.000	0.133	-0.000
-304.837	483.186	-0.220	0.498
-303.822	129.435	0.052	0.066
-302.807	800.000	-0.021	-0.088
-301.793	552.428	0.069	-0.165
-300.778	-39.841	0.229	0.119
-299.764	22.074	-0.111	-0.090
-298.749	-21.824	-0.342	-0.207
-297.735	-185.876	0.192	0.003
-296.720	-100.801	-0.274	-0.067
-295.705	-5.474	0.101	-0.069
-294.691	800.000	-0.032	-0.136
-293.676	-126.809	0.287	-0.042
-292.662	114.964	0.258	-0.313
-291.647	-73.350	0.442	-0.161
-290.632	-89.069	0.122	0.036
-289.618	-60.627	-0.202	0.085
-288.603	261.020	-0.134	-0.231
-287.589	-200.000	0.081	-0.463
-286.574	800.000	-0.106	-0.296
-285.559	71.560	0.291	0.300
-284.545	157.823	-0.116	0.159
-283.530	55.873	0.085	0.081
-282.516	-92.246	0.430	-0.121
-281.501	153.931	0.219	0.298
-280.486	13.405	0.093	0.071
-279.472	-200.000	0.011	-0.227
-278.457	215.677	-0.176	0.277
-277.443	428.624	-0.178	-0.381
-276.428	-76.190	0.166	-0.058
-275.413	800.000	0.096	0.366
-274.399	-45.667	-0.156	0.076
-273.384	-23.810	0.086	0.051
-272.370	-31.123	-0.061	-0.034
-271.355	21.068	0.171	-0.138
-270.340	800.000	0.194	0.531
-269.326	-200.000	0.035	-0.204
-268.311	-74.242	0.212	-0.076
-267.297	-161.764	-0.156	0.008
-266.282	247.848	-0.030	0.050
-265.267	-174.791	-0.546	0.015
-264.253	2.683	0.185	-0.133
-263.238	157.574	-0.122	-0.167
-262.224	-38.492	0.072	0.038
-261.209	152.132	0.254	-0.344
-260.195	525.068	0.117	-0.273
-259.180	-39.328	-0.462	-0.240
-258.165	-200.000	0.003	0.309
-257.151	131.695	-0.153	0.195
-256.136	314.077	0.082	0.153
-255.122	35.546	-0.168	0.146
-254.107	-193.877	-0.211	0.002
-253.092	43.659	-0.154	0.140
-252.078	199.637	0.135	-0.205
-251.063	140.952	0.162	0.212
-250.049	-117.754	0.098	0.017
-249.034	-23.382	0.343	-0.204
-248.019	16.072	-0.277	0.216
-247.005	-91.110	-0.480	-0.137
-245.990	204.689	-0.255	0.392
-244.976	-23.334	-0.526	-0.313
-243.961	60.374	0.302	0.296
-242.946	272.915	0.112	0.195
-241.932	250.654	0.050	-0.084
-240.917	114.098	-0.196	0.236
-239.903	304.809	-0.132	0.244
-238.888	-109.534	-0.321	0.067
-237.873	-101.907	-0.167	0.040
-236.859	-200.000	-0.011	-0.167
-235.844	-52.948	0.151	0.069
-234.830	-152.888	-0.093	-0.007
-233.815	160.494	0.236	0.327
-232.800	-200.000	-0.008	0.050
-231.786	-179.043	-0.214	-0.005
-230.771	-34.841	0.312	0.169
-229.757	-29.851	-0.170	-0.096
-228.742	800.000	0.018	-0.074
-227.727	-200.000	0.000	-0.314
-226.713	-98.037	0.184	0.047
-225.698	31.323	0.261	-0.222
-224.684	-184.410	0.292	-0.005
-223.669	800.000	-0.061	0.175
-222.655	87.698	-0.183	0.201
-221.640	800.000	0.085	0.301
-220.625	-77.412	-0.251	0.086
-219.611	-155.229	-0.225	-0.015
-218.596	-200.000	0.008	-0.091
-217.582	115.727	0.090	0.109
-216.567	-101.098	0.371	-0.090
-215.552	-40.059	0.180	-0.093
-214.538	-118.071	-0.155	-0.027
-213.523	182.920	-0.107	-0.156
-212.509	414.444	0.141	-0.298
-211.494	556.777	0.039	0.093
-210.479	-47.067	0.246	-0.119
-209.465	-28.550	0.261	0.149
-208.450	140.786	0.091	-0.119
-207.436	-138.421	0.206	0.023
-206.421	-103.158	-0.076	-0.018
-205.406	477.645	0.081	-0.181
-204.392	275.079	-0.026	0.045
-203.377	-200.000	-0.005	-0.166
-202.363	182.338	-0.151	-0.221
-201.348	-24.816	0.365	-0.215
-200.333	-37.953	-0.237	-0.124
-199.319	-200.000	-0.003	0.078
-198.304	-35.372	-0.129	0.069
-197.290	-6.658	-0.116	-0.078
-196.275	208.192	-0.040	0.063
-195.260	-71.873	0.500	0.184
-194.246	520.116	0.086	-0.200
-193.231	138.529	0.133	-0.173
-192.217	-123.983	0.092	0.014
-191.202	121.419	0.118	-0.146
-190.187	139.119	-0.154	0.201
-189.173	800.000	0.102	0.393
-188.158	-6.192	0.144	-0.097
-187.144	445.471	-0.206	0.448
-186.129	-200.000	-0.043	-0.197
-185.114	104.805	0.168	-0.196
-184.100	-33.801	0.337	-0.184
-183.085	126.253	0.224	-0.281
-182.071	-59.739	0.290	0.123
-181.056	-200.000	-0.020	-0.228
-180.042	-95.866	-0.251	-0.066
-179.027	-77.467	-0.175	-0.060
-178.012	-91.571	-0.247	0.070
-176.998	56.935	0.145	-0.140
-175.983	800.000	0.043	-0.162
-174.969	-200.000	-0.020	0.092
-173.954	800.000	-0.130	0.461
-172.939	189.349	0.149	0.221
-171.925	-184.276	0.208	-0.003
-170.910	800.000	-0.105	-0.301
-169.896	-80.673	0.487	-0.160
-168.881	517.574	-0.083	-0.191
-167.866	-200.000	-0.007	0.293
-166.852	-200.000	-0.004	0.190
-165.837	-92.664	0.057	-0.016
-164.823	-133.841	-0.315	-0.039
-163.808	-3.177	-0.279	0.192
-162.793	-38.455	0.094	0.049
-161.779	-109.137	0.231	0.049
-160.764	-39.576	0.316	-0.163
-159.750	-50.169	-0.281	-0.132
-158.735	-111.809	0.258	-0.052
-157.720	61.291	-0.207	-0.203
-156.706	426.444	0.124	-0.264
-155.691	-200.000	-0.033	0.175
-154.677	-117.088	-0.054	-0.010
-153.662	-85.442	0.242	0.075
-152.647	-12.859	0.308	0.198
-151.633	-73.705	0.259	0.093
-150.618	-61.824	-0.220	0.091
-149.604	320.272	0.058	-0.109
-148.589	-8.418	-0.167	-0.111
-147.574	-200.000	0.035	-0.302
-146.560	42.909	0.129	0.117
-145.545	256.993	0.073	0.124
-144.531	521.071	-0.037	-0.085
-143.516	56.642	0.084	0.081
-142.502	-7.056	0.158	-0.106
-141.487	-200.000	0.022	-0.133
-140.472	-83.188	0.191	-0.061
-139.458	-200.000	-0.036	-0.380
-138.443	-121.593	-0.337	-0.055
-137.429	800.000	-0.031	0.113
-136.414	-200.000	-0.015	-0.159
-135.399	-57.906	0.219	-0.094
-134.385	95.401	-0.180	-0.203
-133.370	73.628	-0.113	0.117
-132.356	-200.000	-0.004	-0.066
-131.341	605.967	-0.026	0.065
-130.326	469.393	0.018	-0.041
-129.312	-175.792	0.141	0.004
-128.297	800.000	0.097	-0.296
-127.283	-33.567	0.348	-0.190
-126.268	800.000	-0.077	0.217
-125.253	12.770	-0.169	-0.129
-124.239	-113.668	0.138	0.027
-123.224	67.798	0.145	-0.147
-122.210	-168.630	-0.321	-0.012
-121.195	94.748	0.212	-0.238
-120.180	39.987	0.425	-0.377
-119.166	50.214	0.110	-0.102
-118.151	187.239	-0.087	0.128
-117.137	800.000	-0.075	-0.205
-116.122	-159.654	-0.188	-0.010
-115.107	-120.593	0.265	0.044
-114.093	-81.008	-0.119	0.039
-113.078	800.000	0.012	-0.042
-112.064	-118.947	-0.338	0.059
-111.049	-152.659	-0.110	0.008
-110.034	-71.987	0.193	-0.071
-109.020	-121.465	-0.134	0.022
-108.005	800.000	-0.128	0.372
-106.991	-88.778	0.367	0.108
-105.976	-80.542	0.352	0.116
-104.962	91.311	0.187	-0.207
-103.947	-175.317	0.251	0.007
-102.932	249.834	0.092	-0.154
-101.918	243.127	0.104	0.172
-100.903	-61.152	0.257	0.107
-99.889	118.362	-0.127	-0.155
-98.874	-120.444	0.066	0.011
-97.859	146.965	0.149	-0.198
-96.845	80.851	-0.047	0.050
-95.830	-149.866	-0.113	0.009
-94.816	800.000	-0.081	0.227
-93.801	800.000	-0.070	-0.241
-92.786	-200.000	-0.039	-0.269
-91.772	-138.964	0.345	-0.037
-90.757	-38.231	0.175	0.092
-89.743	-102.089	0.193	0.046
-88.728	-13.312	-0.142	0.091
-87.713	-18.510	-0.140	0.086
-86.699	125.526	0.188	-0.234
-85.684	121.962	0.191	-0.235
-84.670	25.260	0.138	0.113
-83.655	442.840	0.060	-0.131
-82.640	-150.320	0.131	0.010
-81.626	800.000	-0.065	-0.276
-80.611	-122.349	-0.395	-0.063
-79.597	294.075	0.164	-0.295
-78.582	501.716	0.054	0.124
-77.567	9.242	-0.088	-0.065
-76.553	-133.343	0.161	-0.020
-75.538	179.268	0.164	0.236
-74.524	755.536	0.063	0.168
-73.509	-93.675	-0.484	-0.132
-72.494	176.177	0.068	-0.097
-71.480	-30.399	0.116	0.065
-70.465	-70.488	0.158	-0.059
-69.451	800.000	-0.028	-0.111
-68.436	-48.547	-0.058	0.028
-67.422	-200.000	0.008	-0.168
-66.407	-200.000	-0.007	0.280
-65.392	800.000	0.065	0.266
-64.378	800.000	0.083	0.281
-63.363	-148.953	-0.183	0.015
-62.349	172.473	-0.151	0.214
-61.334	-9.021	-1.106	-0.729
-60.319	188.776	0.305	0.450
-59.305	148.195	-0.665	-0.883
-58.290	268.598	0.475	0.820
-57.276	553.491	0.690	1.632
-56.261	-200.000	96.002	577.925
-55.246	559.012	1375.691	3268.436
-54.232	160.698	2550.366	3504.648
-53.217	111.532	2162.756	2567.707
-52.203	43.239	1707.300	1534.293
-51.188	36.126	1520.506	1317.966
-50.173	33.654	1493.582	1277.947
-49.159	52.859	1542.260	1451.456
-48.144	54.652	1559.900	1480.271
-47.130	36.241	1519.301	1317.494
-46.115	33.119	1504.736	1283.651
-45.100	33.001	1501.680	1280.195
-44.086	32.949	1499.818	1278.206
-43.071	32.876	1497.944	1276.060
-42.057	32.874	1496.308	1274.607
-41.042	32.851	1494.748	1273.074
-40.027	32.972	1493.369	1272.663
-39.013	32.864	1492.149	1270.847
-37.998	32.854	1491.114	1269.847
-36.984	32.881	1489.711	1268.783
-35.969	32.872	1488.620	1267.739
-34.954	32.867	1487.025	1266.301
-33.940	32.967	1485.317	1265.466
-32.925	32.861	1484.369	1263.900
-31.911	32.904	1483.169	1263.110
-30.896	32.902	1481.805	1261.890
-29.881	33.018	1480.137	1261.189
-28.867	32.943	1478.599	1259.329
-27.852	32.896	1477.220	1257.796
-26.838	32.889	1476.483	1257.070
-25.823	32.871	1474.504	1255.218
-24.809	32.847	1473.041	1253.758
-23.794	32.931	1471.245	1252.738
-22.779	32.879	1470.308	1251.545
-21.765	32.967	1468.731	1250.741
-20.750	33.031	1467.393	1249.974
-19.736	32.946	1466.490	1248.593
-18.721	32.797	1465.818	1246.986
-17.706	32.892	1464.499	1246.441
-16.692	32.891	1463.504	1245.537
-15.677	32.859	1462.737	1244.625
-14.663	32.867	1461.402	1243.491
-13.648	32.810	1460.443	1242.251
-12.633	32.848	1459.731	1241.844
-11.619	32.852	1458.961	1241.166
-10.604	32.863	1458.172	1240.523
-9.590	32.735	1457.117	1238.731
-8.575	32.801	1456.162	1238.306
-7.560	32.880	1455.283	1238.027
-6.546	32.807	1454.974	1237.237
-5.531	32.900	1453.427	1236.480
-4.517	32.774	1452.770	1235.044
-3.502	32.797	1451.508	1234.076
-2.487	32.806	1450.750	1233.444
-1.473	32.700	1449.613	1231.732
-0.458	32.801	1448.334	1231.259
0.556	33.292	1438.813	1220.052
1.571	30.560	1414.975	1182.383
2.586	27.242	1363.275	1118.707
3.600	25.894	1285.492	1046.962
4.615	24.433	1238.294	1000.249
5.629	20.759	1180.064	933.469
6.644	10.944	1092.973	815.516
7.659	3.285	1050.271	746.565
8.673	2.190	1044.964	737.443
9.688	2.128	1041.090	734.349
10.702	1.955	1039.627	732.421
11.717	1.997	1037.700	731.202
12.731	5.678	1041.963	751.826
13.746	15.559	1056.423	810.059
14.761	22.957	1066.589	853.666
15.775	24.988	1067.860	864.419
16.790	25.277	1067.476	865.424
17.804	25.131	1066.642	863.969
18.819	24.967	1065.696	862.339
19.834	25.029	1065.310	862.247
20.848	25.128	1064.822	862.253
21.863	25.328	1064.453	862.836
22.877	25.202	1064.382	862.096
23.892	25.172	1063.560	861.211
24.907	25.244	1062.329	860.484
25.921	25.122	1061.979	859.538
26.936	25.180	1061.233	859.137
27.950	25.224	1059.620	857.967
28.965	25.085	1058.826	856.585
29.980	25.068	1056.903	854.872
30.994	25.033	1055.838	853.765
32.009	25.164	1055.586	854.111
33.023	25.358	1054.759	854.292
34.038	25.103	1053.765	852.199
35.053	25.009	1053.183	851.203
36.067	25.160	1052.117	850.985
37.082	25.193	1051.471	850.545
38.096	25.227	1050.883	850.152
39.111	25.350	1050.270	850.164
40.126	25.379	1049.501	849.604
41.140	25.457	1047.815	848.533
42.155	25.052	1046.930	845.831
43.169	24.876	1045.319	843.624
44.184	24.758	1044.534	842.358
45.199	24.895	1043.264	841.906
46.213	24.950	1042.155	841.195
47.228	24.801	1041.713	840.066
48.242	25.120	1040.851	840.792
49.257	25.127	1040.469	840.441
50.271	25.255	1039.479	840.167
51.286	25.263	1039.073	839.801
52.301	25.307	1038.347	839.345
53.315	25.339	1037.777	838.962
54.330	25.287	1037.026	838.036
55.344	25.135	1036.217	836.598
56.359	25.127	1035.338	835.776
57.374	25.195	1034.351	835.225
58.388	25.018	1033.301	833.477
59.403	24.913	1033.064	832.723
60.417	24.930	1032.264	832.087
61.432	24.741	1031.586	830.588
62.447	24.846	1031.073	830.587
63.461	24.971	1030.214	830.402
64.476	24.949	1029.852	829.936
65.490	24.956	1028.781	829.030
66.505	24.889	1027.664	827.748
67.520	24.775	1026.840	826.484
68.534	24.989	1025.966	826.696
69.549	24.912	1025.114	825.584
70.563	24.544	1023.917	822.848
71.578	24.507	1023.180	822.011
72.593	24.426	1022.783	821.250
73.607	24.456	1020.991	819.874
74.622	24.493	1020.240	819.368
75.636	24.550	1019.596	819.039
76.651	24.822	1019.084	819.805
77.666	24.644	1018.294	818.282
78.680	24.550	1017.176	816.881
79.695	24.531	1016.496	816.177
80.709	24.769	1016.167	816.925
81.724	24.854	1015.423	816.644
82.739	24.695	1014.392	815.017
83.753	24.813	1013.204	814.530
84.768	24.913	1013.290	814.979
85.782	25.361	1012.740	816.505
86.797	25.451	1012.170	816.382
87.812	25.602	1011.046	816.086
88.826	25.391	1010.021	814.230
89.841	25.308	1009.451	813.323
90.855	25.507	1008.419	813.320
91.870	25.489	1007.685	812.574
92.884	25.463	1006.597	811.508
93.899	25.386	1005.703	810.367
94.914	25.173	1004.772	808.588
95.928	25.497	1003.868	809.248
96.943	25.433	1003.542	808.623
97.957	25.074	1002.145	805.812
98.972	24.803	1001.286	803.834
99.987	24.689	1000.685	802.768
101.001	24.803	999.421	802.196
102.016	24.982	999.294	802.823
103.030	25.057	998.310	802.297
104.045	25.091	997.165	801.461
105.060	24.901	996.091	799.678
106.074	24.805	995.021	798.316
107.089	24.834	994.292	797.792
108.103	25.144	994.115	798.960
109.118	25.189	993.179	798.339
110.133	24.931	991.992	796.167
111.147	24.843	990.988	794.901
112.162	24.780	990.008	793.761
113.176	24.703	988.557	792.188
114.191	24.704	988.368	791.972
115.206	24.892	987.108	791.723
116.220	24.549	986.041	789.283
117.235	24.418	985.174	787.940
118.249	24.584	984.881	788.370
119.264	24.599	984.100	787.742
120.279	24.606	982.987	786.809
121.293	24.593	981.631	785.599
122.308	24.534	981.294	785.000
123.322	24.695	980.397	784.917
124.337	24.530	979.683	783.554
125.352	24.419	978.198	781.810
126.366	23.993	976.820	778.776
127.381	23.826	975.129	776.628
128.395	24.218	975.147	778.286
129.410	24.870	974.676	780.686
130.424	24.973	974.423	780.866
131.439	25.083	973.340	780.409
132.454	25.046	972.198	779.262
133.468	25.033	971.398	778.496
134.483	24.900	970.745	777.327
135.497	25.078	970.349	777.712
136.512	25.324	969.256	777.832
137.527	25.442	968.470	777.643
138.541	25.333	967.925	776.667
139.556	25.203	967.392	775.610
140.570	25.173	966.760	774.902
141.585	25.366	965.779	774.881
142.600	25.454	964.815	774.416
143.614	25.296	963.846	772.891
144.629	25.564	962.829	773.160
145.643	25.657	962.908	773.555
146.658	25.567	961.470	771.946
147.673	25.486	960.109	770.436
148.687	25.318	958.958	768.726
149.702	25.200	958.139	767.495
150.716	25.124	957.328	766.452
151.731	25.017	956.548	765.306
152.746	25.084	955.786	764.913
153.760	25.313	954.955	765.155
154.775	25.512	954.392	765.484
155.789	25.452	953.851	764.727
156.804	25.518	952.727	764.042
157.819	25.475	951.614	762.898
158.833	25.493	951.181	762.561
159.848	25.487	950.703	762.082
160.862	25.678	949.781	762.087
161.877	25.499	949.002	760.637
162.892	25.342	947.838	758.972
163.906	25.498	946.954	758.854
164.921	25.338	946.351	757.629
165.935	25.416	944.706	756.575
166.950	25.549	944.419	756.837
167.964	25.604	942.928	755.805
168.979	25.649	941.990	755.178
169.994	25.454	940.793	753.333
171.008	25.223	940.221	751.840
172.023	25.458	939.418	752.117
173.037	25.686	938.666	752.399
174.052	25.517	937.770	750.910
175.067	25.301	936.699	749.086
176.081	25.135	936.086	747.836
177.096	25.369	935.132	747.981
178.110	25.387	934.344	747.359
179.125	25.023	933.479	745.089
180.140	24.898	932.296	743.558
181.154	24.757	932.152	742.795
182.169	24.882	931.903	743.048
183.183	25.164	931.236	743.621
184.198	25.556	930.794	744.825
185.213	25.503	929.840	743.778
186.227	25.328	929.308	742.560
187.242	25.440	929.225	742.892
188.256	25.471	927.981	741.963
189.271	25.496	927.395	741.530
190.286	25.505	926.723	740.964
191.300	25.475	925.661	739.925
192.315	24.950	923.962	736.343
193.329	24.095	922.664	731.734
194.344	23.669	921.960	729.361
195.359	24.414	922.188	732.535
196.373	25.235	922.348	735.968
197.388	25.366	922.433	736.507
198.402	25.377	921.087	735.411
199.417	25.317	921.072	735.091
200.432	25.417	920.693	735.131
201.446	25.246	919.706	733.579
202.461	24.954	918.854	731.640
203.475	25.012	918.465	731.505
204.490	24.734	916.803	728.984
205.504	23.530	914.119	721.886
206.519	23.969	914.320	723.770
207.534	24.784	915.236	727.748
208.548	25.026	914.260	727.889
209.563	25.332	914.474	729.240
210.577	25.386	913.489	728.610
211.592	25.034	912.762	726.535
212.607	25.475	912.839	728.320
213.621	25.555	912.230	728.097
214.636	25.559	911.478	727.447
215.650	25.568	911.165	727.168
216.665	25.381	910.426	725.758
217.680	25.474	909.878	725.633
218.694	25.682	909.367	726.001
219.709	25.352	908.330	723.779
220.723	24.975	907.267	721.348
221.738	25.101	907.291	721.814
222.753	25.322	906.867	722.299
223.767	25.372	905.767	721.562
224.782	25.379	904.881	720.818
225.796	25.575	904.630	721.343
226.811	25.698	904.136	721.379
227.826	25.381	902.591	718.811
228.840	24.431	901.462	714.050
229.855	24.323	900.723	712.972
230.869	24.618	900.396	713.828
231.884	24.496	898.994	712.166
232.899	24.404	898.836	711.612
233.913	25.198	899.362	715.132
234.928	25.374	898.610	715.173
235.942	25.281	897.959	714.221
236.957	25.229	897.557	713.631
237.972	25.005	896.181	711.583
238.986	24.810	895.572	710.264
240.001	24.975	895.196	710.558
241.015	25.078	894.251	710.150
242.030	25.266	893.620	710.332
243.045	25.337	893.494	710.450
244.059	25.374	893.313	710.388
245.074	25.479	892.801	710.336
246.088	25.414	891.986	709.365
247.103	25.164	890.808	707.381
248.117	25.225	890.337	707.187
249.132	25.718	890.429	709.136
250.147	25.946	890.544	710.063
251.161	26.055	889.520	709.614
252.176	26.251	888.982	709.893
253.190	26.207	888.532	709.297
254.205	26.323	888.205	709.429
255.220	26.584	887.649	709.945
256.234	26.500	887.025	709.055
257.249	26.554	886.174	708.525
258.263	26.242	885.999	707.098
259.278	26.196	885.431	706.405
260.293	26.204	884.865	705.920
261.307	26.357	884.431	706.108
262.322	26.329	883.378	705.097
263.336	26.233	882.717	704.133
264.351	25.550	881.682	700.586
265.366	24.588	879.249	694.852
266.380	24.190	878.455	692.614
267.395	25.077	878.771	696.249
268.409	25.761	878.975	699.005
269.424	25.763	878.225	698.354
270.439	26.019	877.428	698.650
271.453	26.080	877.276	698.704
272.468	26.062	876.615	698.047
273.482	26.262	876.332	698.532
274.497	26.193	875.986	697.928
275.512	26.295	874.731	697.260
276.526	25.536	873.679	693.435
277.541	25.706	873.397	693.804
278.555	26.112	873.104	695.074
279.570	25.813	872.634	693.489
280.585	25.791	871.840	692.711
281.599	25.879	871.235	692.508
282.614	26.083	871.080	693.105
283.628	25.609	869.565	690.020
284.643	25.199	868.577	687.605
285.657	25.632	868.483	689.129
286.672	25.652	867.636	688.474
287.687	24.957	867.056	685.292
288.701	25.271	867.135	686.496
289.716	25.736	866.966	688.078
290.730	25.421	865.447	685.612
291.745	25.362	864.940	684.925
292.760	25.127	864.054	683.264
293.774	25.042	863.178	682.190
294.789	25.913	864.484	686.479
295.803	26.491	864.395	688.549
296.818	26.554	863.886	688.322
297.833	26.692	863.263	688.290
298.847	26.377	862.001	686.028
299.862	26.108	860.950	684.110
300.876	26.396	860.502	684.783
301.891	26.706	860.361	685.787
302.906	26.486	859.933	684.551
303.920	26.341	858.607	682.887
304.935	26.208	857.955	681.807
305.949	26.426	858.289	682.833
306.964	26.727	857.223	683.060
307.979	26.555	856.310	681.626
308.993	26.335	856.096	680.566
310.008	26.591	856.139	681.504
311.022	26.833	855.381	681.752
312.037	26.668	854.746	680.565
313.052	26.580	853.828	679.442
314.066	26.198	853.234	677.479
315.081	25.613	851.495	673.846
316.095	24.860	850.288	670.011
317.110	25.352	851.053	672.402
318.125	26.125	851.436	675.538
319.139	25.984	850.091	673.882
320.154	24.816	848.178	667.949
321.168	24.210	847.271	664.915
322.183	24.833	847.499	667.360
323.197	25.882	847.696	671.368
324.212	26.142	847.712	672.288
325.227	26.201	847.511	672.289
326.241	26.303	847.147	672.319
327.256	26.351	846.282	671.752
328.270	26.115	845.926	670.534
329.285	25.965	845.387	669.491
330.300	25.916	844.384	668.454
331.314	25.781	843.387	667.107
332.329	25.843	842.916	666.904
333.343	26.402	842.639	668.696
334.358	26.518	842.364	668.847
335.373	26.351	841.941	667.833
336.387	26.519	841.248	667.847
337.402	26.830	841.087	668.807
338.416	26.891	840.556	668.549
339.431	26.841	840.022	667.879
340.446	26.829	839.389	667.273
341.460	27.046	839.396	668.019
342.475	27.006	838.866	667.389
343.489	26.786	837.884	665.744
344.504	26.801	836.921	664.974
345.519	26.985	836.942	665.606
346.533	27.353	836.571	666.602
347.548	27.205	836.422	665.880
348.562	27.270	835.554	665.370
349.577	27.266	835.068	664.908
350.592	27.181	834.513	664.097
351.606	27.354	833.936	664.211
352.621	27.193	833.739	663.407
353.635	27.144	832.867	662.476
354.650	26.994	832.596	661.655
355.665	26.682	831.325	659.452
356.679	25.677	829.476	654.274
357.694	25.489	829.357	653.439
358.708	26.223	829.353	656.045
359.723	26.195	828.592	655.283
360.738	26.349	828.586	655.782
361.752	26.749	828.567	657.158
362.767	26.953	828.181	657.531
363.781	27.189	828.017	658.199
364.796	27.649	827.876	659.691
365.810	27.550	827.531	659.003
366.825	27.822	827.227	659.686
367.840	27.795	826.651	659.070
368.854	27.513	825.900	657.394
369.869	27.130	824.894	655.154
370.883	26.818	824.494	653.653
371.898	27.056	823.725	653.845
372.913	26.917	823.160	652.836
373.927	26.963	822.481	652.407
374.942	27.166	821.482	652.286
375.956	27.293	821.444	652.654
376.971	27.225	820.926	651.941
377.986	27.499	820.351	652.407
379.000	27.610	820.342	652.740
380.015	27.644	819.522	652.152
381.029	27.586	818.780	651.296
382.044	27.520	818.114	650.475
383.059	27.715	817.649	650.742
384.073	27.737	816.918	650.181
385.088	27.732	816.715	649.945
386.102	27.688	816.173	649.298
387.117	27.422	815.148	647.480
388.132	27.233	815.305	646.875
389.146	27.166	814.340	645.813
390.161	26.489	813.534	642.714
391.175	26.569	813.189	642.668
392.190	27.347	812.919	645.158
393.205	27.133	812.919	644.340
394.219	26.218	810.888	639.435
395.234	24.695	808.685	632.261
396.248	23.810	807.517	628.166
397.263	24.851	808.481	632.541
398.278	26.697	810.076	640.265
399.292	27.271	809.848	642.054
400.307	27.001	808.900	640.293
401.321	26.819	808.413	639.209
402.336	26.815	808.501	639.207
403.350	27.139	808.069	639.951
404.365	27.616	808.213	641.687
405.380	27.915	807.806	642.359
406.394	28.248	807.637	643.338
407.409	28.363	806.984	643.166
408.423	28.389	806.809	643.060
409.438	28.287	805.812	641.851
410.453	28.444	805.602	642.178
411.467	28.418	805.340	641.820
412.482	28.401	804.442	640.989
413.496	28.193	804.233	640.038
414.511	28.203	803.907	639.759
415.526	28.417	803.393	640.040
416.540	28.387	803.028	639.586
417.555	28.282	802.773	638.962
418.569	28.025	801.992	637.385
419.584	27.895	801.341	636.361
420.599	27.928	800.944	636.103
421.613	110.916	1284.731	1456.675
422.628	95.714	1355.229	1456.800
