DTS Sentinel unit serial number:	SN413079Multiplexer serial number:	ORYXHardware model number:	OX4-SRSoftware version number:	ORYX F/W v4.00 Oryx Data Collector v3.7.2.0data status	okinstallation	princeton_trtdifferential loss correction	single-endedforward channel	channel 3reverse channel	N/Adate	2019/09/11time	03:18:10forward acquisition time	60.00reverse acquisition time	0.00gamma	496.2192k internal	0.2331k external	0.2331temperature offset calibration	0.9911default loss term (dB/km)	0.3790temperature slope calibration	1.0000multiplexer offset coefficient	1.0000multiplexer slope coefficient	1.0000fibre end	0.00T internal ref (°C)	29.37T ext. ref 1 (°C)	-0.29T ext. ref 2 (°C)	24.14length (m)	temperature (°C)	Stokes	anti-Stokes-747.200	800.000	0.059	-0.199
-746.185	-139.158	-0.196	-0.021
-745.171	-200.000	0.013	-0.164
-744.156	57.909	0.138	-0.136
-743.142	-109.719	0.205	0.043
-742.127	-53.897	0.082	-0.038
-741.112	-200.000	0.029	0.289
-740.098	729.539	-0.136	0.365
-739.083	121.231	0.031	0.039
-738.069	227.960	0.113	0.185
-737.054	-200.000	-0.067	0.345
-736.039	-200.000	0.009	0.211
-735.025	-54.962	0.056	0.025
-734.010	-174.141	-0.459	-0.013
-732.996	154.196	-0.191	-0.264
-731.981	-40.111	0.037	-0.019
-730.966	-11.555	-0.250	0.166
-729.952	-46.254	-0.248	-0.123
-728.937	60.332	-0.291	-0.289
-727.923	53.203	0.125	0.120
-726.908	-200.000	-0.011	-0.248
-725.894	-110.967	-0.280	-0.058
-724.879	-58.893	-0.066	-0.029
-723.864	98.899	-0.126	0.146
-722.850	251.236	0.071	-0.122
-721.835	800.000	-0.073	-0.210
-720.821	800.000	-0.016	-0.058
-719.806	81.239	-0.183	-0.199
-718.791	97.148	0.030	-0.035
-717.777	800.000	0.053	0.168
-716.762	-85.744	-0.189	0.059
-715.748	-147.997	0.064	0.005
-714.733	606.848	-0.089	0.222
-713.718	100.456	-0.359	-0.419
-712.704	329.642	0.186	-0.359
-711.689	323.359	-0.074	0.142
-710.675	-200.000	0.047	-0.398
-709.660	800.000	0.079	-0.276
-708.645	-67.415	0.334	0.132
-707.631	105.464	0.109	-0.130
-706.616	28.364	-0.215	0.182
-705.602	227.311	-0.049	-0.080
-704.587	-38.033	-0.192	-0.102
-703.572	238.668	-0.045	0.075
-702.558	-109.881	-0.156	-0.033
-701.543	133.404	0.052	0.067
-700.529	210.604	-0.238	-0.375
-699.514	-200.000	0.056	-0.289
-698.499	-200.000	-0.052	-0.251
-697.485	-200.000	0.023	-0.395
-696.470	800.000	-0.136	0.454
-695.456	-166.722	0.232	0.010
-694.441	245.080	-0.118	0.200
-693.426	-179.486	0.162	0.004
-692.412	-200.000	-0.081	-0.374
-691.397	-200.000	-0.016	-0.145
-690.383	-200.000	-0.001	-0.076
-689.368	89.210	-0.250	-0.280
-688.354	101.794	-0.047	-0.056
-687.339	-135.976	0.271	0.032
-686.324	-26.990	-0.316	-0.185
-685.310	441.159	0.077	-0.170
-684.295	169.342	-0.085	-0.122
-683.281	132.235	-0.131	-0.170
-682.266	80.839	0.164	-0.178
-681.251	-40.790	-0.084	-0.044
-680.237	25.662	-0.175	-0.147
-679.222	508.836	-0.089	-0.207
-678.208	382.804	-0.158	-0.327
-677.193	184.272	0.130	-0.193
-676.178	-52.102	0.353	0.164
-675.164	484.742	0.129	-0.295
-674.149	-88.507	-0.273	-0.082
-673.135	-155.529	0.046	-0.003
-672.120	3.573	-0.070	0.051
-671.105	-200.000	0.014	-0.095
-670.091	-92.602	0.131	0.037
-669.076	-119.563	-0.562	0.098
-668.062	19.753	-0.232	-0.187
-667.047	-200.000	-0.006	0.080
-666.032	-101.164	-0.068	-0.017
-665.018	138.635	-0.125	0.164
-664.003	-113.082	0.102	0.020
-662.989	-135.220	-0.164	0.020
-661.974	508.315	0.171	-0.399
-660.959	-199.375	0.167	-0.001
-659.945	-200.000	-0.020	-0.294
-658.930	6.576	0.244	0.182
-657.916	-137.174	0.214	-0.024
-656.901	13.668	-0.164	-0.128
-655.886	-56.062	-0.154	-0.069
-654.872	-76.194	-0.311	0.110
-653.857	-200.000	0.001	0.301
-652.843	-200.000	0.002	-0.077
-651.828	-85.311	0.044	-0.014
-650.814	37.317	-0.361	-0.321
-649.799	-92.169	0.179	-0.051
-648.784	193.918	0.103	0.157
-647.770	-5.434	0.132	-0.091
-646.755	9.192	0.112	-0.085
-645.741	-200.000	0.016	0.358
-644.726	14.760	0.119	-0.093
-643.711	-200.000	0.056	-0.249
-642.697	27.825	-0.341	-0.288
-641.682	-34.678	0.084	-0.046
-640.668	448.617	0.046	-0.101
-639.653	-200.000	0.030	0.160
-638.638	438.191	-0.081	0.177
-637.624	-131.496	0.058	-0.008
-636.609	4.228	-0.104	-0.077
-635.595	-36.042	0.235	-0.127
-634.580	-104.886	0.359	-0.083
-633.565	-200.000	-0.029	0.253
-632.551	-100.308	0.119	-0.030
-631.536	-25.232	0.218	-0.129
-630.522	-82.014	-0.232	0.076
-629.507	64.949	-0.274	-0.278
-628.492	-101.524	0.047	-0.012
-627.478	-92.588	-0.258	-0.073
-626.463	143.368	0.158	0.211
-625.449	548.538	-0.133	-0.319
-624.434	800.000	-0.077	-0.222
-623.419	-70.163	0.335	0.128
-622.405	-5.072	0.190	0.131
-621.390	161.627	0.042	0.059
-620.376	340.946	-0.032	0.062
-619.361	226.178	0.089	0.144
-618.346	-118.588	-0.294	0.052
-617.332	-0.231	-0.114	-0.082
-616.317	-200.000	-0.003	-0.123
-615.303	-105.288	0.083	0.019
-614.288	-36.012	0.232	0.126
-613.273	-0.037	-0.121	-0.086
-612.259	-42.516	0.188	-0.096
-611.244	69.560	-0.094	-0.097
-610.230	534.146	-0.043	-0.101
-609.215	-22.897	-0.202	0.122
-608.201	368.900	-0.061	-0.124
-607.186	66.691	-0.175	-0.178
-606.171	62.209	0.218	0.218
-605.157	-20.528	0.072	-0.044
-604.142	-157.181	0.208	0.013
-603.128	-190.174	-0.148	0.002
-602.113	-5.839	0.066	0.045
-601.098	800.000	-0.113	-0.425
-600.084	114.584	0.068	-0.083
-599.069	57.687	-0.167	-0.163
-598.055	-61.628	0.234	0.098
-597.040	98.959	0.266	-0.307
-596.025	-39.864	0.195	0.102
-595.011	409.775	-0.070	-0.149
-593.996	-200.000	0.020	-0.322
-592.982	-69.697	0.110	-0.042
-591.967	-121.785	-0.274	0.045
-590.952	-89.907	-0.237	-0.069
-589.938	-98.739	0.151	0.038
-588.923	-38.718	0.056	0.030
-587.909	192.307	-0.190	-0.286
-586.894	33.733	0.172	-0.150
-585.879	41.626	0.108	0.098
-584.865	-200.000	-0.014	0.232
-583.850	-200.000	-0.087	0.430
-582.836	634.402	0.124	-0.314
-581.821	-52.863	-0.234	0.108
-580.806	-51.439	-0.223	0.104
-579.792	-200.000	0.028	-0.184
-578.777	-85.622	-0.300	0.093
-577.763	81.496	0.399	-0.432
-576.748	27.032	-0.022	0.019
-575.733	113.197	-0.176	-0.214
-574.719	-24.052	-0.257	-0.153
-573.704	800.000	-0.028	0.080
-572.690	-104.043	0.106	0.025
-571.675	-200.000	-0.032	-0.273
-570.661	131.938	-0.111	0.142
-569.646	72.264	-0.247	0.257
-568.631	570.652	0.111	0.269
-567.617	335.466	-0.033	-0.063
-566.602	445.952	-0.158	-0.346
-565.588	-99.748	-0.230	-0.058
-564.573	-70.655	0.149	-0.056
-563.558	54.156	0.046	-0.044
-562.544	800.000	-0.063	0.218
-561.529	-10.181	0.215	-0.143
-560.515	283.890	0.064	0.115
-559.500	-122.336	0.249	-0.041
-558.485	297.542	-0.034	0.063
-557.471	-47.922	-0.271	0.131
-556.456	800.000	0.040	0.122
-555.442	-200.000	0.048	0.286
-554.427	175.911	-0.045	-0.065
-553.412	100.858	-0.087	-0.101
-552.398	-33.841	-0.252	0.139
-551.383	-58.161	0.092	0.040
-550.369	-86.241	-0.049	-0.015
-549.354	-69.555	0.053	0.020
-548.339	-172.227	-0.084	0.003
-547.325	800.000	-0.103	0.374
-546.310	-53.167	0.337	-0.155
-545.296	800.000	-0.051	-0.165
-544.281	-200.000	-0.018	-0.106
-543.266	188.047	0.041	-0.061
-542.252	-32.931	-0.030	0.017
-541.237	-83.260	-0.315	-0.101
-540.223	-121.825	-0.284	0.047
-539.208	367.354	-0.234	-0.472
-538.193	-103.672	-0.105	0.024
-537.179	-14.436	-0.333	-0.214
-536.164	765.824	0.184	-0.498
-535.150	800.000	0.127	-0.494
-534.135	341.618	-0.168	0.328
-533.121	800.000	0.038	-0.104
-532.106	800.000	-0.066	0.184
-531.091	33.620	-0.101	0.088
-530.077	-154.726	0.141	0.009
-529.062	448.563	0.125	-0.274
-528.048	296.788	-0.061	-0.111
-527.033	-200.000	-0.033	0.172
-526.018	266.530	-0.078	-0.136
-525.004	800.000	-0.015	-0.058
-523.989	-200.000	-0.048	0.223
-522.975	180.899	0.088	-0.128
-521.960	290.064	-0.117	0.213
-520.945	-141.953	0.131	0.013
-519.931	-200.000	-0.044	0.257
-518.916	-69.148	0.129	-0.050
-517.902	-50.499	0.268	0.126
-516.887	-33.638	0.151	-0.083
-515.872	-71.978	0.171	-0.063
-514.858	800.000	-0.068	-0.221
-513.843	14.876	-0.186	0.145
-512.829	21.542	0.171	-0.138
-511.814	40.524	0.036	-0.033
-510.799	-200.000	-0.052	-0.237
-509.785	337.917	0.138	0.268
-508.770	0.313	-0.173	0.123
-507.756	56.002	-0.211	0.204
-506.741	291.951	-0.256	0.464
-505.726	-200.000	-0.036	0.338
-504.712	-17.950	-0.259	-0.162
-503.697	203.319	-0.056	0.087
-502.683	800.000	-0.029	-0.125
-501.668	72.315	-0.164	0.171
-500.653	537.039	0.147	-0.349
-499.639	-200.000	0.035	-0.184
-498.624	-200.000	-0.039	-0.294
-497.610	24.412	-0.186	-0.153
-496.595	95.995	-0.081	0.092
-495.581	791.974	0.104	0.284
-494.566	-200.000	0.038	0.226
-493.551	-150.720	-0.252	-0.019
-492.537	200.810	-0.136	-0.208
-491.522	-74.439	0.224	0.080
-490.508	-174.023	-0.081	-0.002
-489.493	-200.000	-0.004	-0.045
-488.478	180.958	-0.088	-0.129
-487.464	-105.787	-0.099	-0.022
-486.449	-94.973	-0.272	0.073
-485.435	92.957	0.242	-0.272
-484.420	-25.068	0.267	-0.157
-483.405	800.000	-0.084	0.266
-482.391	272.528	0.014	0.024
-481.376	51.751	-0.074	0.070
-480.362	11.479	-0.170	-0.129
-479.347	421.606	-0.101	0.215
-478.332	601.269	0.136	0.335
-477.318	-110.259	0.244	0.051
-476.303	-200.000	-0.021	0.123
-475.289	-186.353	-0.093	0.001
-474.274	-13.706	0.218	-0.141
-473.259	-7.977	-0.225	-0.151
-472.245	-92.415	-0.192	0.054
-471.230	-200.000	-0.003	0.215
-470.216	-200.000	0.036	0.353
-469.201	13.195	0.121	0.093
-468.186	-126.001	-0.153	0.023
-467.172	-175.010	0.181	-0.005
-466.157	430.978	-0.185	0.398
-465.143	-126.768	-0.134	-0.020
-464.128	291.557	0.106	0.192
-463.113	-25.234	-0.354	-0.209
-462.099	-200.000	0.009	0.051
-461.084	-70.750	0.211	0.079
-460.070	14.869	-0.085	0.066
-459.055	34.142	0.113	0.098
-458.040	284.513	0.048	-0.086
-457.026	137.238	0.051	0.066
-456.011	434.733	0.114	0.247
-454.997	-62.758	0.243	-0.100
-453.982	-69.589	-0.305	-0.116
-452.968	-48.747	-0.429	0.205
-451.953	-123.297	-0.360	0.057
-450.938	-133.723	-0.350	0.043
-449.924	-45.933	0.114	-0.056
-448.909	-69.472	-0.279	0.106
-447.895	-140.713	-0.216	0.022
-446.880	252.624	0.125	-0.212
-445.865	186.867	0.165	-0.244
-444.851	-54.794	-0.050	-0.022
-443.836	-200.000	-0.050	0.233
-442.822	144.513	0.119	0.158
-441.807	-13.276	0.197	0.127
-440.792	-200.000	-0.010	0.240
-439.778	-63.150	0.197	-0.081
-438.763	-200.000	0.002	0.230
-437.749	-11.842	0.015	0.010
-436.734	-200.000	-0.004	0.058
-435.719	-37.078	-0.143	0.076
-434.705	-52.969	-0.337	-0.154
-433.690	72.828	0.133	0.138
-432.676	800.000	-0.040	-0.145
-431.661	25.617	0.075	-0.062
-430.646	17.236	0.088	-0.069
-429.632	-200.000	0.038	0.388
-428.617	-83.401	-0.142	-0.045
-427.603	-56.730	0.327	0.144
-426.588	210.065	-0.095	-0.148
-425.573	5.291	0.285	0.209
-424.559	800.000	0.047	0.148
-423.544	-159.826	-0.139	0.008
-422.530	-200.000	0.007	0.445
-421.515	-87.097	-0.255	-0.077
-420.500	-175.757	0.100	-0.003
-419.486	449.822	0.081	-0.178
-418.471	-131.863	0.179	0.023
-417.457	-45.682	-0.230	-0.113
-416.442	231.220	0.042	-0.068
-415.428	92.753	0.047	0.052
-414.413	-110.241	0.073	0.015
-413.398	-101.838	0.286	0.069
-412.384	-32.720	0.266	-0.147
-411.369	47.684	-0.322	-0.298
-410.355	-173.482	-0.178	0.005
-409.340	77.204	0.115	0.121
-408.325	800.000	0.048	-0.209
-407.311	64.362	0.095	0.095
-406.296	-1.831	0.085	0.059
-405.282	800.000	0.017	0.057
-404.267	-105.973	-0.186	0.042
-403.252	-151.177	0.247	0.018
-402.238	595.833	-0.125	-0.308
-401.223	800.000	-0.067	0.233
-400.209	-68.857	0.111	0.042
-399.194	-58.099	-0.113	-0.049
-398.179	3.489	0.121	-0.088
-397.165	-200.000	0.046	0.334
-396.150	361.411	0.076	-0.151
-395.136	-87.734	-0.260	-0.078
-394.121	-146.385	0.342	0.030
-393.106	-200.000	0.005	0.147
-392.092	-51.316	-0.291	-0.135
-391.077	800.000	-0.134	0.547
-390.063	-200.000	0.044	-0.425
-389.048	-124.276	0.097	-0.015
-388.033	-142.664	-0.186	-0.018
-387.019	-122.459	-0.216	-0.035
-386.004	-37.053	0.190	-0.101
-384.990	-150.205	-0.268	-0.021
-383.975	80.653	-0.179	-0.191
-382.960	181.518	0.174	0.254
-381.946	92.370	0.171	0.192
-380.931	98.901	0.155	-0.178
-379.917	-101.154	0.211	0.051
-378.902	-200.000	0.053	0.300
-377.888	-200.000	-0.020	-0.360
-376.873	0.452	0.286	-0.203
-375.858	800.000	-0.035	0.098
-374.844	65.474	-0.284	0.286
-373.829	-200.000	0.018	-0.095
-372.815	552.110	-0.132	-0.315
-371.800	738.378	0.049	0.130
-370.785	704.298	-0.121	-0.317
-369.771	62.313	0.133	0.132
-368.756	-133.079	-0.425	0.053
-367.742	194.132	0.062	0.094
-366.727	-186.355	0.291	0.004
-365.712	-44.317	0.168	-0.084
-364.698	-86.482	0.208	0.063
-363.683	-200.000	0.025	-0.117
-362.669	-119.549	0.057	-0.010
-361.654	-164.150	-0.097	-0.004
-360.639	-128.858	-0.390	-0.054
-359.625	98.228	0.050	0.057
-358.610	130.604	-0.012	0.016
-357.596	-11.072	0.090	-0.059
-356.581	800.000	0.075	0.224
-355.566	-200.000	-0.092	-0.432
-354.552	-35.588	0.122	0.066
-353.537	201.434	0.103	-0.158
-352.523	-151.892	-0.219	0.016
-351.508	45.045	0.338	-0.308
-350.493	-78.905	0.282	-0.095
-349.479	800.000	0.042	0.115
-348.464	-200.000	0.036	-0.171
-347.450	797.330	-0.012	-0.032
-346.435	0.053	-0.116	0.082
-345.420	-64.744	0.131	0.053
-344.406	800.000	-0.043	-0.162
-343.391	-91.760	0.299	0.084
-342.377	130.642	-0.230	-0.292
-341.362	-105.071	0.090	0.020
-340.348	85.815	0.189	0.206
-339.333	-200.000	-0.044	0.195
-338.318	-131.832	0.216	-0.028
-337.304	-104.217	-0.173	0.040
-336.289	-168.251	0.260	0.010
-335.275	37.222	-0.097	-0.085
-334.260	51.425	-0.126	-0.119
-333.245	800.000	0.138	-0.480
-332.231	-75.233	0.252	0.089
-331.216	197.229	0.129	0.195
-330.202	166.453	-0.100	0.141
-329.187	116.897	-0.180	-0.219
-328.172	-200.000	-0.002	-0.125
-327.158	265.647	0.060	-0.104
-326.143	573.056	-0.151	-0.364
-325.129	-62.151	0.218	-0.090
-324.114	17.856	0.081	0.064
-323.099	111.170	-0.136	0.162
-322.085	-200.000	-0.079	-0.458
-321.070	94.927	0.162	-0.182
-320.056	-5.805	-0.197	0.134
-319.041	347.295	0.184	-0.359
-318.026	-19.693	0.107	-0.066
-317.012	-200.000	0.055	0.371
-315.997	800.000	0.021	-0.088
-314.983	-200.000	0.019	-0.225
-313.968	16.175	0.188	0.147
-312.953	81.356	-0.066	0.071
-311.939	-161.810	0.121	0.006
-310.924	-96.967	-0.288	-0.075
-309.910	-200.000	0.028	0.298
-308.895	-78.398	0.278	0.094
-307.880	26.917	-0.156	-0.129
-306.866	-181.319	0.228	0.004
-305.851	-150.018	0.273	-0.021
-304.837	-200.000	-0.023	0.346
-303.822	178.478	-0.051	-0.074
-302.807	-130.272	-0.097	-0.013
-301.793	41.116	0.178	-0.159
-300.778	456.144	-0.214	0.471
-299.764	-29.445	-0.240	0.136
-298.749	800.000	0.047	-0.150
-297.735	-83.813	0.190	0.060
-296.720	-12.076	-0.238	-0.154
-295.705	-200.000	-0.003	-0.066
-294.691	-200.000	-0.009	-0.104
-293.676	558.962	-0.064	0.153
-292.662	42.725	0.097	0.087
-291.647	103.768	-0.163	0.190
-290.632	-44.854	0.103	0.051
-289.618	41.974	-0.355	0.318
-288.603	255.982	0.170	-0.289
-287.589	-94.573	0.487	-0.131
-286.574	-91.953	-0.123	-0.034
-285.559	223.287	-0.131	-0.210
-284.545	70.389	0.069	0.070
-283.530	800.000	0.053	-0.162
-282.516	-35.170	0.269	0.145
-281.501	-43.668	0.246	0.123
-280.486	26.987	0.208	0.172
-279.472	-132.145	-0.165	0.021
-278.457	-43.426	-0.140	-0.070
-277.443	41.128	-0.132	-0.118
-276.428	403.451	-0.020	0.042
-275.413	-200.000	0.027	0.347
-274.399	-95.662	-0.283	0.075
-273.384	111.786	0.117	-0.140
-272.370	-155.211	0.233	0.015
-271.355	800.000	-0.023	0.076
-270.340	-200.000	-0.016	0.155
-269.326	28.021	-0.282	-0.235
-268.311	-200.000	0.009	-0.212
-267.297	800.000	-0.017	-0.073
-266.282	9.444	-0.228	0.171
-265.267	-32.475	0.102	0.056
-264.253	-1.632	-0.137	0.095
-263.238	800.000	-0.081	0.238
-262.224	-126.169	0.190	0.028
-261.209	15.260	0.314	-0.243
-260.195	-67.601	0.161	-0.062
-259.180	-200.000	-0.023	-0.141
-258.165	76.485	-0.057	-0.059
-257.151	-82.426	-0.241	0.077
-256.136	-28.016	-0.245	0.140
-255.122	-200.000	-0.020	0.087
-254.107	-200.000	-0.020	-0.268
-253.092	-108.322	-0.193	-0.041
-252.078	-30.627	-0.112	0.062
-251.063	-189.464	-0.102	-0.001
-250.049	-200.000	-0.076	0.374
-249.034	-175.413	0.533	-0.014
-248.019	-74.525	0.029	0.010
-247.005	800.000	-0.033	-0.131
-245.990	800.000	0.043	-0.150
-244.976	-200.000	0.062	-0.345
-243.961	-25.468	0.203	0.118
-242.946	-103.571	0.164	0.038
-241.932	-200.000	-0.027	-0.300
-240.917	109.235	0.063	0.075
-239.903	-200.000	0.032	0.292
-238.888	-88.804	0.364	0.107
-237.873	306.494	-0.026	0.047
-236.859	-200.000	-0.001	0.183
-235.844	-70.357	-0.157	-0.059
-234.830	-200.000	-0.050	0.318
-233.815	-75.280	-0.048	0.017
-232.800	-108.786	-0.263	0.056
-231.786	721.464	-0.057	0.149
-230.771	800.000	-0.068	0.232
-229.757	-168.902	0.064	-0.002
-228.742	-23.095	0.154	-0.092
-227.727	-200.000	-0.036	-0.197
-226.713	-200.000	0.011	-0.210
-225.698	-200.000	0.001	0.227
-224.684	-200.000	0.018	-0.169
-223.669	-200.000	-0.029	0.212
-222.655	800.000	0.063	0.225
-221.640	12.239	0.176	0.133
-220.625	-6.742	-0.056	0.038
-219.611	-51.285	-0.224	-0.103
-218.596	220.016	0.060	0.096
-217.582	-55.615	0.252	0.111
-216.567	-200.000	-0.033	-0.220
-215.552	124.607	-0.222	-0.275
-214.538	276.130	0.164	-0.288
-213.523	19.908	-0.174	-0.138
-212.509	-79.281	0.273	-0.091
-211.494	800.000	-0.074	0.248
-210.479	290.008	0.026	-0.046
-209.465	-42.229	0.226	0.114
-208.450	377.142	0.136	-0.274
-207.436	-200.000	0.011	-0.126
-206.421	-200.000	0.012	0.208
-205.406	800.000	-0.016	0.048
-204.392	153.611	0.150	0.202
-203.377	524.100	0.073	-0.168
-202.363	-94.459	0.104	0.028
-201.348	-200.000	0.042	0.362
-200.333	68.894	0.202	0.205
-199.319	-121.246	-0.307	-0.051
-198.304	-123.716	-0.411	-0.064
-197.290	111.035	0.178	-0.211
-196.275	472.114	-0.059	-0.130
-195.260	-41.122	0.045	0.023
-194.246	130.439	-0.173	0.218
-193.231	-173.873	-0.163	0.005
-192.217	82.857	-0.088	0.094
-191.202	-143.895	-0.163	0.015
-190.187	14.531	0.239	-0.184
-189.173	-25.296	-0.172	-0.100
-188.158	267.029	0.126	0.217
-187.144	-119.291	0.175	0.030
-186.129	-86.711	-0.056	0.017
-185.114	-100.884	0.327	0.079
-184.100	-200.000	0.014	-0.227
-183.085	21.052	0.108	0.086
-182.071	94.858	0.230	0.257
-181.056	130.224	0.129	0.163
-180.042	-200.000	-0.023	0.177
-179.027	-200.000	-0.038	-0.227
-178.012	-75.709	-0.183	-0.064
-176.998	-30.777	0.037	0.020
-175.983	-147.118	-0.265	0.022
-174.969	-59.842	-0.287	0.121
-173.954	-102.454	0.084	0.020
-172.939	-4.062	0.163	-0.111
-171.925	25.087	0.117	-0.096
-170.910	-200.000	0.028	-0.209
-169.896	-200.000	-0.004	0.429
-168.881	432.423	0.049	0.104
-167.866	-175.376	-0.474	0.013
-166.852	-30.906	-0.133	0.074
-165.837	-200.000	0.078	0.398
-164.823	-93.805	-0.194	0.053
-163.808	420.569	0.102	-0.215
-162.793	-73.331	0.265	0.096
-161.779	60.787	-0.273	0.266
-160.764	800.000	0.032	0.125
-159.750	251.066	0.122	-0.204
-158.735	43.780	0.101	-0.091
-157.720	-154.088	-0.113	0.008
-156.706	255.241	0.054	-0.091
-155.691	800.000	-0.103	-0.289
-154.677	428.517	-0.103	-0.219
-153.662	-61.186	0.111	0.046
-152.647	800.000	0.049	0.181
-151.633	-60.789	-0.200	-0.083
-150.618	800.000	-0.121	-0.366
-149.604	-78.262	-0.270	0.091
-148.589	166.521	0.066	-0.091
-147.574	11.384	0.154	-0.116
-146.560	179.632	-0.235	-0.338
-145.545	446.891	-0.072	-0.157
-144.531	-200.000	0.073	0.328
-143.516	10.209	-0.145	-0.108
-142.502	-200.000	-0.038	0.262
-141.487	556.382	-0.069	0.163
-140.472	-200.000	-0.004	-0.122
-139.458	800.000	-0.067	0.207
-138.443	-69.167	0.120	0.046
-137.429	-72.043	-0.195	0.071
-136.414	33.045	0.300	0.256
-135.399	425.334	0.103	0.217
-134.385	162.159	0.208	0.287
-133.370	-3.764	0.249	0.170
-132.356	41.926	0.156	0.139
-131.341	-102.350	-0.038	-0.009
-130.326	-127.727	-0.226	0.032
-129.312	134.391	-0.188	-0.240
-128.297	-127.933	-0.320	-0.045
-127.283	204.895	0.170	-0.260
-126.268	709.248	-0.039	-0.102
-125.253	-200.000	-0.042	-0.196
-124.239	-198.917	0.249	0.001
-123.224	56.619	0.359	0.343
-122.210	-93.713	-0.179	0.049
-121.195	-200.000	-0.002	-0.173
-120.180	21.871	0.192	0.154
-119.166	-200.000	0.024	-0.444
-118.151	12.366	0.110	0.083
-117.137	672.969	-0.088	0.225
-116.122	-200.000	-0.044	0.208
-115.107	-16.277	-0.140	0.087
-114.093	-200.000	-0.132	0.000
-113.078	800.000	-0.044	0.140
-112.064	-80.983	-0.198	-0.064
-111.049	-200.000	-0.004	0.159
-110.034	-20.077	-0.164	-0.100
-109.020	1.409	-0.121	0.085
-108.005	-31.065	0.252	-0.139
-106.991	800.000	0.129	0.438
-105.976	-0.445	-0.116	-0.081
-104.962	382.463	-0.105	0.211
-103.947	-200.000	0.002	0.010
-102.932	800.000	-0.025	-0.091
-101.918	-200.000	0.016	-0.142
-100.903	201.031	-0.119	0.179
-99.889	-149.093	-0.121	0.009
-98.874	-71.972	0.029	0.011
-97.859	-132.838	-0.154	-0.019
-96.845	194.378	0.069	-0.102
-95.830	361.743	-0.139	-0.274
-94.816	-131.885	-0.204	-0.026
-93.801	-200.000	0.033	0.192
-92.786	-99.481	-0.352	-0.087
-91.772	-79.235	0.234	-0.078
-90.757	-139.093	0.210	-0.022
-89.743	778.607	0.089	-0.239
-88.728	-120.240	0.510	0.085
-87.713	-161.770	0.347	-0.017
-86.699	88.621	0.350	-0.381
-85.684	-37.749	-0.231	-0.120
-84.670	-60.773	-0.328	-0.136
-83.655	-200.000	-0.015	0.078
-82.640	-200.000	-0.044	0.237
-81.626	-149.596	0.318	-0.025
-80.611	-42.937	0.201	-0.100
-79.597	128.287	-0.247	0.309
-78.582	800.000	0.054	0.205
-77.567	-102.059	0.280	-0.066
-76.553	-200.000	0.044	-0.262
-75.538	13.934	0.153	-0.117
-74.524	-29.742	0.015	-0.008
-73.509	-200.000	-0.030	0.149
-72.494	310.847	0.233	0.428
-71.480	-43.809	0.023	-0.012
-70.465	98.222	0.039	-0.044
-69.451	242.126	0.067	-0.111
-68.436	-76.593	0.338	-0.116
-67.422	51.717	-0.075	0.070
-66.407	-179.717	0.259	0.005
-65.392	-77.444	-0.194	0.066
-64.378	185.174	0.152	-0.221
-63.363	-200.000	-0.074	-0.365
-62.349	5.770	-0.242	0.175
-61.334	5.809	-1.077	-0.781
-60.319	32.219	0.635	0.537
-59.305	800.000	-0.267	-0.987
-58.290	179.264	0.802	1.150
-57.276	800.000	0.413	1.499
-56.261	-200.000	106.224	612.447
-55.246	505.264	1508.400	3423.068
-54.232	176.297	2701.376	3844.397
-53.217	110.299	2185.760	2572.175
-52.203	40.034	1704.987	1500.753
-51.188	32.498	1514.817	1282.230
-50.173	30.122	1488.028	1243.583
-49.159	51.324	1544.655	1436.518
-48.144	51.604	1560.427	1453.039
-47.130	32.724	1516.325	1284.838
-46.115	29.668	1502.029	1252.011
-45.100	29.525	1498.280	1247.872
-44.086	29.484	1495.939	1245.592
-43.071	29.472	1494.079	1243.915
-42.057	29.347	1492.618	1241.804
-41.042	29.431	1490.674	1240.706
-40.027	29.442	1489.021	1239.352
-39.013	29.358	1488.207	1238.063
-37.998	29.321	1486.919	1236.696
-36.984	29.284	1485.919	1235.569
-35.969	29.406	1484.424	1235.092
-34.954	29.386	1482.391	1233.214
-33.940	29.401	1480.866	1231.996
-32.925	29.498	1479.203	1231.215
-31.911	29.414	1478.672	1230.161
-30.896	29.522	1477.329	1229.714
-29.881	29.459	1476.291	1228.386
-28.867	29.431	1474.738	1226.860
-27.852	29.429	1473.923	1226.118
-26.838	29.417	1472.158	1224.518
-25.823	29.444	1470.544	1223.307
-24.809	29.450	1468.971	1221.991
-23.794	29.350	1468.006	1220.479
-22.779	29.440	1466.257	1219.571
-21.765	29.427	1465.324	1218.662
-20.750	29.479	1464.410	1218.192
-19.736	29.404	1462.930	1216.420
-18.721	29.411	1461.976	1215.627
-17.706	29.402	1460.816	1214.554
-16.692	29.341	1460.392	1213.748
-15.677	29.321	1458.728	1212.185
-14.663	29.309	1458.019	1211.472
-13.648	29.368	1456.852	1210.841
-12.633	29.381	1455.855	1210.050
-11.619	29.302	1455.435	1209.132
-10.604	29.327	1454.215	1208.239
-9.590	29.293	1453.618	1207.469
-8.575	29.299	1452.838	1206.814
-7.560	29.255	1451.739	1205.563
-6.546	29.331	1450.681	1205.135
-5.531	29.327	1449.841	1204.365
-4.517	29.289	1449.190	1203.526
-3.502	29.217	1448.507	1202.444
-2.487	29.332	1447.261	1202.111
-1.473	29.309	1445.812	1200.709
-0.458	29.275	1445.012	1199.776
0.556	27.047	1435.440	1189.766
1.571	24.305	1410.429	1151.258
2.586	21.227	1351.717	1084.158
3.600	19.802	1270.809	1010.855
4.615	18.785	1226.114	969.476
5.629	16.334	1171.453	912.943
6.644	8.214	1087.615	806.624
7.659	1.113	1046.927	741.726
8.673	-0.078	1041.241	731.835
9.688	-0.279	1038.125	728.601
10.702	-0.399	1036.324	726.694
11.717	-0.404	1034.732	725.489
12.731	2.959	1037.826	743.897
13.746	11.833	1050.974	796.609
14.761	18.561	1059.490	835.895
15.775	20.191	1060.778	844.788
16.790	20.604	1060.734	846.688
17.804	20.457	1059.893	845.227
18.819	20.232	1059.006	843.349
19.834	20.292	1058.386	843.075
20.848	20.453	1057.788	843.303
21.863	20.427	1057.947	843.231
22.877	20.364	1057.433	842.439
23.892	20.392	1056.644	841.872
24.907	20.309	1055.498	840.484
25.921	20.301	1055.253	840.177
26.936	20.436	1054.347	840.032
27.950	20.339	1053.288	838.647
28.965	20.379	1051.951	837.701
29.980	20.344	1049.960	835.871
30.994	20.248	1049.041	834.607
32.009	20.379	1047.980	834.317
33.023	20.548	1047.152	834.393
34.038	20.414	1045.618	832.458
35.053	20.344	1044.852	831.438
36.067	20.497	1044.485	831.802
37.082	20.454	1043.714	830.911
38.096	20.527	1042.661	830.347
39.111	20.567	1042.160	830.065
40.126	20.769	1040.994	830.029
41.140	20.740	1039.424	828.565
42.155	20.394	1038.491	826.104
43.169	20.199	1036.948	823.874
44.184	20.136	1035.660	822.478
45.199	20.107	1034.637	821.459
46.213	20.169	1033.797	821.011
47.228	20.122	1032.528	819.709
48.242	20.256	1031.835	819.718
49.257	20.265	1031.074	819.082
50.271	20.258	1030.708	818.687
51.286	20.436	1029.660	818.624
52.301	20.505	1029.109	818.438
53.315	20.520	1028.073	817.610
54.330	20.493	1027.367	816.852
55.344	20.460	1026.157	815.663
56.359	20.446	1025.331	814.865
57.374	20.580	1024.345	814.639
58.388	20.286	1023.701	812.677
59.403	20.207	1022.928	811.623
60.417	20.323	1022.136	811.467
61.432	20.020	1021.254	809.277
62.447	20.053	1020.805	809.004
63.461	20.254	1020.056	809.275
64.476	20.368	1019.057	808.946
65.490	20.262	1017.960	807.508
66.505	20.093	1017.360	806.176
67.520	20.193	1016.130	805.590
68.534	20.196	1015.670	805.171
69.549	20.106	1014.580	803.820
70.563	19.884	1013.390	801.774
71.578	19.775	1012.735	800.680
72.593	19.794	1011.776	799.943
73.607	19.658	1010.356	798.118
74.622	19.630	1009.853	797.521
75.636	19.988	1008.867	798.322
76.651	20.110	1008.287	798.357
77.666	19.968	1007.127	796.715
78.680	19.817	1006.407	795.381
79.695	19.996	1005.408	795.341
80.709	19.947	1005.157	794.848
81.724	20.045	1004.664	794.839
82.739	20.042	1003.474	793.811
83.753	20.009	1002.286	792.649
84.768	20.447	1001.514	793.972
85.782	20.517	1001.153	793.934
86.797	20.610	1000.913	794.100
87.812	20.654	999.753	793.310
88.826	20.610	998.505	792.046
89.841	20.415	997.864	790.584
90.855	20.598	996.897	790.577
91.870	20.685	995.810	790.044
92.884	20.528	995.370	788.911
93.899	20.599	993.734	787.868
94.914	20.421	992.943	786.363
95.928	20.562	992.458	786.549
96.943	20.644	991.383	785.995
97.957	20.237	990.667	783.521
98.972	20.078	989.370	781.710
99.987	19.921	988.314	780.099
101.001	20.051	987.773	780.185
102.016	20.296	987.167	780.741
103.030	20.353	986.122	780.103
104.045	20.327	985.200	779.186
105.060	20.051	983.683	776.679
106.074	20.049	982.031	775.302
107.089	20.039	981.534	774.793
108.103	20.403	981.105	776.011
109.118	20.422	980.322	775.408
110.133	20.228	979.075	773.491
111.147	20.060	978.421	772.156
112.162	20.227	976.738	771.504
113.176	19.950	975.535	769.254
114.191	20.062	974.770	769.079
115.206	20.104	974.300	768.826
116.220	19.845	972.788	766.418
117.235	19.757	971.906	765.265
118.249	19.797	971.638	765.167
119.264	19.851	970.478	764.422
120.279	19.809	969.489	763.392
121.293	19.723	969.040	762.590
122.308	20.009	967.447	762.530
123.322	19.877	967.312	761.773
124.337	19.945	965.609	760.662
125.352	19.889	964.578	759.540
126.366	19.449	962.754	756.106
127.381	19.145	961.636	753.831
128.395	19.600	961.605	755.734
129.410	20.121	961.125	757.565
130.424	20.498	960.032	758.282
131.439	20.401	959.283	757.201
132.454	20.244	958.305	755.677
133.468	20.360	957.020	755.100
134.483	20.276	956.597	754.339
135.497	20.413	955.655	754.124
136.512	20.431	955.621	754.106
137.527	20.505	954.448	753.434
138.541	20.664	953.464	753.279
139.556	20.555	953.286	752.601
140.570	20.564	952.169	751.693
141.585	20.620	951.021	750.961
142.600	20.618	950.485	750.463
143.614	20.558	949.280	749.186
144.629	20.667	948.944	749.325
145.643	20.829	947.953	749.174
146.658	20.773	947.101	748.191
147.673	20.628	945.784	746.462
148.687	20.584	944.664	745.324
149.702	20.541	943.336	744.027
150.716	20.321	942.602	742.440
151.731	20.307	942.105	741.926
152.746	20.428	941.013	741.514
153.760	20.664	940.168	741.791
154.775	20.857	939.378	741.922
155.789	20.753	939.126	741.214
156.804	20.740	937.425	739.751
157.819	20.695	936.802	739.003
158.833	20.625	936.253	738.209
159.848	20.731	935.631	738.102
160.862	20.856	934.706	737.836
161.877	20.689	933.499	736.112
162.892	20.625	932.881	735.287
163.906	20.799	932.389	735.570
164.921	20.761	931.272	734.466
165.935	20.653	930.303	733.181
166.950	20.686	928.835	732.098
167.964	20.809	928.084	731.958
168.979	20.775	926.836	730.768
169.994	20.596	926.150	729.409
171.008	20.584	924.945	728.349
172.023	20.782	924.341	728.636
173.037	20.857	923.244	728.020
174.052	20.491	922.734	726.022
175.067	20.342	921.462	724.338
176.081	20.473	920.852	724.339
177.096	20.609	919.746	723.970
178.110	20.563	919.039	723.160
179.125	20.393	917.917	721.508
180.140	20.110	916.740	719.343
181.154	20.285	916.114	719.515
182.169	20.277	916.064	719.379
183.183	20.392	915.512	719.356
184.198	20.833	914.667	720.457
185.213	20.649	914.402	719.419
186.227	20.766	913.547	719.169
187.242	20.679	913.180	718.457
188.256	20.750	912.286	717.982
189.271	20.699	911.268	716.908
190.286	20.892	911.012	717.438
191.300	20.761	909.739	715.832
192.315	20.239	908.187	712.407
193.329	19.506	907.141	708.512
194.344	19.024	906.223	705.757
195.359	19.691	906.258	708.460
196.373	20.432	907.008	712.020
197.388	20.536	906.420	711.920
198.402	20.654	905.609	711.703
199.417	20.452	904.585	710.011
200.432	20.644	904.386	710.578
201.446	20.611	903.391	709.596
202.461	20.055	902.908	706.887
203.475	20.151	902.132	706.610
204.490	19.768	901.034	704.128
205.504	18.547	899.014	697.521
206.519	19.096	899.184	699.824
207.534	20.029	899.261	703.615
208.548	20.277	898.203	703.732
209.563	20.535	898.538	704.975
210.577	20.499	897.598	704.031
211.592	20.304	896.608	702.403
212.607	20.700	896.834	704.122
213.621	20.714	896.258	703.661
214.636	20.644	895.331	702.591
215.650	21.008	894.312	703.198
216.665	20.739	894.177	701.942
217.680	20.752	893.693	701.551
218.694	20.900	893.059	701.592
219.709	20.541	892.365	699.540
220.723	20.217	890.989	697.098
221.738	20.357	890.710	697.379
222.753	20.630	890.273	698.070
223.767	20.561	889.263	696.938
224.782	20.548	888.738	696.414
225.796	20.765	888.167	696.774
226.811	20.858	887.796	696.793
227.826	20.523	886.032	694.009
228.840	19.769	884.899	690.055
229.855	19.754	883.805	689.081
230.869	19.954	883.481	689.561
231.884	19.660	882.653	687.685
232.899	19.638	882.262	687.231
233.913	20.546	882.418	690.902
234.928	20.674	881.776	690.847
235.942	20.690	880.993	690.235
236.957	20.613	880.655	689.604
237.972	20.322	879.537	687.518
238.986	20.173	878.658	686.180
240.001	20.376	878.326	686.663
241.015	20.294	877.930	685.969
242.030	20.442	877.085	685.833
243.045	20.546	876.468	685.697
244.059	20.517	876.093	685.228
245.074	20.607	875.643	685.170
246.088	20.796	874.465	684.934
247.103	20.354	873.867	682.667
248.117	20.479	872.964	682.392
249.132	20.917	873.130	684.180
250.147	21.107	872.607	684.455
251.161	21.298	871.980	684.654
252.176	21.361	871.721	684.635
253.190	21.490	870.736	684.304
254.205	21.380	870.570	683.683
255.220	21.613	870.140	684.198
256.234	21.594	869.232	683.348
257.249	21.488	868.541	682.330
258.263	21.441	867.867	681.557
259.278	21.325	867.554	680.801
260.293	21.482	867.152	681.035
261.307	21.314	866.892	680.117
262.322	21.346	865.659	679.215
263.336	21.414	864.938	678.853
264.351	20.761	863.692	675.280
265.366	19.660	861.713	669.412
266.380	19.216	860.935	667.029
267.395	20.151	861.263	670.844
268.409	20.809	861.588	673.582
269.424	20.901	860.560	673.076
270.439	21.213	859.625	673.488
271.453	21.224	859.574	673.432
272.468	21.142	858.989	672.597
273.482	21.372	858.599	673.119
274.497	21.547	858.163	673.390
275.512	21.363	856.568	671.372
276.526	20.677	855.611	667.931
277.541	21.002	855.055	668.685
278.555	21.378	854.788	669.855
279.570	21.222	853.691	668.341
280.585	20.985	853.040	666.866
281.599	21.012	853.023	666.898
282.614	21.193	852.471	667.098
283.628	20.725	851.554	664.537
284.643	20.425	850.392	662.426
285.657	20.820	850.495	663.954
286.672	20.770	849.288	662.763
287.687	20.178	848.784	660.058
288.701	20.626	848.559	661.529
289.716	20.999	848.461	662.813
290.730	20.739	846.820	660.485
291.745	20.591	846.332	659.486
292.760	20.287	845.680	657.765
293.774	20.298	845.425	657.551
294.789	21.115	846.143	661.147
295.803	21.783	845.628	663.215
296.818	21.775	845.281	662.854
297.833	21.946	844.557	662.874
298.847	21.621	843.425	660.702
299.862	21.217	842.594	658.467
300.876	21.400	841.887	658.546
301.891	21.740	841.538	659.495
302.906	21.815	841.179	659.435
303.920	21.393	840.160	656.995
304.935	21.254	839.201	655.665
305.949	21.820	838.809	657.424
306.964	21.676	838.769	656.795
307.979	21.611	837.835	655.762
308.993	21.456	837.247	654.662
310.008	21.734	837.348	655.726
311.022	21.884	836.538	655.591
312.037	21.768	836.402	654.995
313.052	21.604	835.413	653.549
314.066	21.527	834.584	652.555
315.081	21.013	833.007	649.353
316.095	20.313	831.852	645.791
317.110	20.830	832.262	647.974
318.125	21.571	832.712	651.027
319.139	21.183	831.610	648.666
320.154	19.888	829.857	642.437
321.168	19.592	828.852	640.505
322.183	20.215	829.236	643.054
323.197	21.046	829.517	646.295
324.212	21.276	829.578	647.138
325.227	21.303	829.062	646.781
326.241	21.576	828.889	647.596
327.256	21.666	827.327	646.649
328.270	21.484	827.016	645.679
329.285	21.470	826.339	645.040
330.300	21.339	825.422	643.787
331.314	21.071	824.852	642.300
332.329	21.166	824.429	642.262
333.343	21.445	823.953	642.862
334.358	21.761	823.711	643.774
335.373	21.570	823.037	642.489
336.387	21.717	822.549	642.590
337.402	21.810	822.396	642.755
338.416	22.040	822.020	643.249
339.431	22.096	821.195	642.750
340.446	22.181	820.626	642.558
341.460	22.219	820.359	642.432
342.475	22.114	819.640	641.428
343.489	21.942	818.866	640.137
344.504	22.067	818.081	639.923
345.519	22.241	818.222	640.612
346.533	22.523	817.672	641.151
347.548	22.734	817.253	641.533
348.562	22.556	816.840	640.503
349.577	22.556	816.297	640.023
350.592	22.435	815.788	639.126
351.606	22.487	815.272	638.854
352.621	22.341	814.949	638.017
353.635	22.443	814.253	637.784
354.650	22.225	813.669	636.482
355.665	21.942	812.572	634.546
356.679	20.902	811.116	629.595
357.694	20.781	810.509	628.631
358.708	21.482	810.217	630.878
359.723	21.375	809.740	630.066
360.738	21.476	809.824	630.440
361.752	22.140	809.354	632.408
362.767	22.132	809.142	632.156
363.781	22.469	808.953	633.166
364.796	22.660	808.917	633.767
365.810	22.742	808.217	633.459
366.825	22.799	808.207	633.598
367.840	22.736	807.577	632.823
368.854	22.643	807.330	632.239
369.869	22.312	806.194	630.108
370.883	22.112	805.435	628.745
371.898	22.327	804.912	629.048
372.913	22.065	804.034	627.371
373.927	22.087	803.623	627.073
374.942	22.314	803.324	627.595
375.956	22.348	802.581	627.079
376.971	22.516	802.086	627.235
377.986	22.468	801.819	626.800
379.000	22.726	801.317	627.270
380.015	22.492	801.258	626.338
381.029	22.690	799.949	625.961
382.044	22.693	799.057	625.217
383.059	22.753	799.096	625.407
384.073	22.713	798.659	624.866
385.088	22.696	798.119	624.328
386.102	22.722	797.676	624.018
387.117	22.749	796.521	623.154
388.132	22.467	796.234	621.882
389.146	22.422	795.451	621.055
390.161	21.717	794.997	618.159
391.175	21.794	794.332	617.858
392.190	22.463	794.162	620.028
393.205	22.395	793.784	619.438
394.219	21.521	792.170	615.054
395.234	19.897	790.185	607.759
396.248	19.186	788.865	604.198
397.263	20.204	790.131	608.691
398.278	22.107	791.094	616.056
399.292	22.512	791.158	617.471
400.307	22.296	790.252	615.953
401.321	22.103	789.818	614.887
402.336	22.195	789.633	615.008
403.350	22.515	789.438	615.922
404.365	22.863	789.481	617.119
405.380	22.967	789.299	617.283
406.394	23.383	788.882	618.357
407.409	23.534	788.539	618.560
408.423	23.500	787.844	617.841
409.438	23.364	787.224	616.828
410.453	23.368	786.776	616.436
411.467	23.469	786.491	616.507
412.482	23.528	785.696	616.033
413.496	23.407	785.543	615.440
414.511	23.467	785.203	615.328
415.526	23.443	784.781	614.859
416.540	23.389	784.472	614.376
417.555	23.287	783.985	613.585
418.569	23.139	783.039	612.280
419.584	23.042	782.392	611.385
420.599	23.251	782.040	611.777
421.613	157.386	1364.581	1798.239
422.628	136.015	1449.430	1798.301
