DTS Sentinel unit serial number:	SN413079Multiplexer serial number:	ORYXHardware model number:	OX4-SRSoftware version number:	ORYX F/W v4.00 Oryx Data Collector v3.7.2.0data status	okinstallation	princeton_trtdifferential loss correction	single-endedforward channel	channel 3reverse channel	N/Adate	2019/09/10time	20:42:11forward acquisition time	60.00reverse acquisition time	0.00gamma	496.2192k internal	0.2327k external	0.2327temperature offset calibration	0.9921default loss term (dB/km)	0.3790temperature slope calibration	1.0000multiplexer offset coefficient	1.0000multiplexer slope coefficient	1.0000fibre end	0.00T internal ref (°C)	31.87T ext. ref 1 (°C)	-0.31T ext. ref 2 (°C)	25.24length (m)	temperature (°C)	Stokes	anti-Stokes-747.200	-200.000	-0.032	0.420
-746.185	94.222	-0.394	0.451
-745.171	800.000	-0.048	0.196
-744.156	1.558	-0.195	0.142
-743.142	-163.100	0.137	-0.007
-742.127	800.000	-0.094	0.337
-741.112	-169.395	-0.156	-0.006
-740.098	123.553	0.246	0.311
-739.083	498.802	-0.060	0.140
-738.069	800.000	-0.045	0.163
-737.054	70.922	-0.287	-0.300
-736.039	-47.433	-0.257	-0.126
-735.025	-140.249	0.063	0.007
-734.010	-24.214	-0.173	-0.104
-732.996	73.049	-0.113	0.119
-731.981	111.864	-0.227	0.276
-730.966	-200.000	-0.046	0.419
-729.952	22.667	-0.108	-0.089
-728.937	-23.367	-0.201	-0.122
-727.923	25.854	0.253	-0.213
-726.908	-200.000	0.025	-0.292
-725.894	800.000	-0.073	-0.239
-724.879	800.000	-0.106	-0.331
-723.864	-152.779	0.065	0.005
-722.850	-103.787	-0.055	-0.013
-721.835	-64.257	-0.406	0.167
-720.821	-73.680	0.206	-0.076
-719.806	-8.833	0.433	0.292
-718.791	-200.000	-0.004	-0.252
-717.777	-200.000	0.026	-0.147
-716.762	-22.157	-0.355	-0.217
-715.748	10.971	0.037	0.029
-714.733	-92.601	0.168	-0.047
-713.718	171.216	0.280	-0.405
-712.704	122.814	-0.238	-0.300
-711.689	-9.725	-0.205	0.137
-710.675	361.022	0.114	-0.230
-709.660	-133.141	0.337	0.043
-708.645	-94.274	-0.217	0.060
-707.631	39.064	0.148	-0.133
-706.616	800.000	-0.128	-0.417
-705.602	-123.077	-0.062	0.010
-704.587	-200.000	-0.043	-0.341
-703.572	150.791	0.214	0.293
-702.558	41.795	-0.143	0.131
-701.543	102.664	0.350	-0.412
-700.529	-155.194	-0.172	0.011
-699.514	-200.000	-0.052	0.288
-698.499	800.000	0.012	0.049
-697.485	14.113	-0.122	0.096
-696.470	-200.000	0.003	-0.295
-695.456	426.026	-0.108	0.235
-694.441	800.000	-0.046	-0.146
-693.426	800.000	-0.114	-0.468
-692.412	800.000	-0.069	-0.265
-691.397	224.995	0.182	0.296
-690.383	46.201	-0.263	-0.246
-689.368	-200.000	0.106	0.502
-688.354	-200.000	0.038	0.223
-687.339	-46.176	-0.402	-0.199
-686.324	-17.216	0.261	-0.165
-685.310	166.296	0.232	-0.331
-684.295	-4.444	-0.497	-0.346
-683.281	800.000	-0.082	-0.261
-682.266	-22.099	-0.272	0.166
-681.251	-7.948	0.035	-0.024
-680.237	258.972	-0.220	0.382
-679.222	-147.426	-0.224	-0.019
-678.208	-200.000	0.004	-0.350
-677.193	-8.771	0.247	-0.167
-676.178	425.159	0.117	0.252
-675.164	800.000	-0.116	-0.321
-674.149	-120.452	0.018	-0.003
-673.135	-16.638	0.332	0.211
-672.120	192.618	0.111	-0.169
-671.105	-200.000	-0.004	0.073
-670.091	159.234	0.139	-0.194
-669.076	800.000	-0.065	-0.250
-668.062	257.190	0.073	0.127
-667.047	115.786	0.096	0.118
-666.032	28.698	-0.225	0.192
-665.018	138.023	-0.345	-0.455
-664.003	-157.416	-0.071	-0.004
-662.989	-45.276	-0.284	0.142
-661.974	-200.000	0.016	-0.260
-660.959	-200.000	0.010	-0.289
-659.945	-200.000	-0.027	-0.229
-658.930	-67.953	0.340	0.133
-657.916	-68.426	0.089	0.035
-656.901	99.751	-0.216	0.252
-655.886	-101.921	0.227	-0.055
-654.872	-26.848	0.338	-0.199
-653.857	75.573	0.126	-0.133
-652.843	-31.414	-0.305	0.173
-651.828	-20.882	0.198	-0.122
-650.814	-200.000	0.044	0.249
-649.799	230.789	-0.094	0.155
-648.784	338.072	0.148	-0.290
-647.770	800.000	0.071	-0.238
-646.755	-155.467	0.328	-0.021
-645.741	148.637	-0.025	-0.034
-644.726	107.667	0.289	-0.346
-643.711	18.258	-0.053	-0.042
-642.697	10.364	0.288	-0.220
-641.682	-200.000	0.007	0.351
-640.668	-200.000	0.037	0.190
-639.653	259.461	0.051	0.089
-638.638	800.000	0.075	0.298
-637.624	54.015	-0.105	0.101
-636.609	800.000	-0.061	-0.248
-635.595	800.000	-0.089	-0.247
-634.580	-124.685	0.330	0.051
-633.565	579.214	0.143	-0.352
-632.551	54.628	-0.029	0.028
-631.536	-169.231	-0.240	0.009
-630.522	238.872	-0.092	0.153
-629.507	-200.000	-0.015	0.187
-628.492	-200.000	-0.033	-0.200
-627.478	800.000	0.078	0.293
-626.463	-29.872	-0.122	-0.070
-625.449	292.337	0.122	-0.224
-624.434	800.000	0.042	-0.133
-623.419	-106.389	-0.053	-0.012
-622.405	800.000	0.127	0.426
-621.390	-123.945	-0.187	-0.029
-620.376	541.400	0.091	-0.217
-619.361	664.844	0.151	0.392
-618.346	-138.649	0.131	0.014
-617.332	-34.227	-0.183	-0.101
-616.317	-95.413	0.103	0.028
-615.303	85.240	-0.099	0.109
-614.288	108.436	-0.065	-0.078
-613.273	-96.158	-0.184	0.049
-612.259	-11.517	-0.334	0.220
-611.244	166.757	-0.175	0.248
-610.230	-40.140	0.103	-0.054
-609.215	150.628	-0.108	0.147
-608.201	-158.725	0.105	-0.006
-607.186	141.450	-0.213	-0.283
-606.171	-137.050	-0.266	-0.030
-605.157	-200.000	-0.023	-0.179
-604.142	377.540	-0.049	-0.100
-603.128	-40.516	-0.313	0.163
-602.113	126.024	-0.086	-0.109
-601.098	25.475	0.096	-0.080
-600.084	-200.000	-0.043	-0.355
-599.069	144.165	-0.059	-0.079
-598.055	-200.000	-0.015	0.232
-597.040	-16.291	0.367	0.233
-596.025	62.636	-0.147	-0.147
-595.011	-61.836	-0.149	0.062
-593.996	588.590	-0.012	0.029
-592.982	-0.999	-0.221	0.157
-591.967	77.656	-0.138	0.147
-590.952	-82.550	-0.246	0.080
-589.938	-108.469	0.308	0.066
-588.923	-200.000	0.069	-0.321
-587.909	57.303	0.207	-0.202
-586.894	-25.669	0.065	0.038
-585.879	7.467	0.239	-0.179
-584.865	65.263	0.213	0.216
-583.850	-139.229	-0.255	-0.028
-582.836	800.000	0.107	-0.302
-581.821	-76.675	0.381	-0.134
-580.806	-200.000	-0.019	-0.238
-579.792	124.320	0.064	-0.080
-578.777	-20.364	-0.222	0.137
-577.763	157.356	0.132	-0.183
-576.748	345.434	0.043	0.086
-575.733	-55.097	-0.099	-0.044
-574.719	-158.399	-0.220	0.013
-573.704	787.935	-0.119	0.326
-572.690	-200.000	0.055	0.316
-571.675	-160.491	-0.179	-0.010
-570.661	33.199	-0.163	-0.142
-569.646	-69.502	-0.257	-0.098
-568.631	196.268	0.249	-0.380
-567.617	-103.294	0.240	0.057
-566.602	-39.978	0.399	0.208
-565.588	38.515	0.207	-0.184
-564.573	607.181	-0.074	-0.185
-563.558	-200.000	-0.041	-0.439
-562.544	-200.000	-0.024	-0.208
-561.529	-81.166	-0.131	-0.043
-560.515	-179.138	0.093	0.002
-559.500	201.524	0.170	-0.261
-558.485	-92.831	-0.168	0.047
-557.471	-200.000	0.018	-0.260
-556.456	-138.455	0.125	-0.014
-555.442	-200.000	-0.001	0.186
-554.427	92.983	-0.205	0.232
-553.412	800.000	-0.086	-0.346
-552.398	-52.642	-0.327	-0.151
-551.383	-27.489	-0.318	-0.185
-550.369	-163.615	-0.336	0.016
-549.354	-200.000	0.008	0.212
-548.339	-137.677	-0.448	0.050
-547.325	-97.029	0.153	-0.040
-546.310	-167.374	-0.184	-0.007
-545.296	394.263	0.057	-0.118
-544.281	308.362	-0.073	-0.136
-543.266	-200.000	0.018	-0.080
-542.252	-145.957	-0.139	-0.012
-541.237	-84.701	0.062	-0.020
-540.223	-200.000	0.009	-0.102
-539.208	66.179	-0.019	-0.019
-538.193	-200.000	-0.003	-0.117
-537.179	-200.000	-0.003	-0.137
-536.164	800.000	-0.070	-0.197
-535.150	-26.371	-0.144	-0.084
-534.135	231.753	0.156	0.256
-533.121	-58.919	0.063	0.027
-532.106	800.000	-0.044	0.129
-531.091	131.339	0.093	0.120
-530.077	-91.911	0.408	0.116
-529.062	800.000	-0.081	0.274
-528.048	63.740	-0.051	0.051
-527.033	800.000	0.135	0.377
-526.018	-2.964	-0.130	-0.091
-525.004	-200.000	0.006	0.307
-523.989	-200.000	0.015	0.312
-522.975	-170.084	-0.095	-0.003
-521.960	536.260	-0.085	0.201
-520.945	-41.226	0.233	0.120
-519.931	-151.788	0.239	0.018
-518.916	-80.643	-0.175	-0.058
-517.902	800.000	0.082	0.316
-516.887	120.299	-0.239	-0.297
-515.872	36.834	-0.193	-0.170
-514.858	-194.558	-0.386	-0.003
-513.843	800.000	0.104	-0.405
-512.829	-200.000	0.064	-0.434
-511.814	-107.591	-0.176	-0.038
-510.799	-200.000	-0.049	0.306
-509.785	-56.953	-0.139	-0.061
-508.770	-200.000	-0.014	-0.207
-507.756	10.282	0.296	-0.225
-506.741	800.000	-0.072	-0.205
-505.726	800.000	0.073	0.296
-504.712	-92.486	0.190	-0.053
-503.697	-200.000	0.033	0.183
-502.683	-77.981	0.379	-0.131
-501.668	-76.901	0.161	-0.056
-500.653	-131.285	-0.303	0.040
-499.639	41.759	-0.244	0.221
-498.624	232.046	-0.158	-0.259
-497.610	-150.612	-0.212	0.016
-496.595	421.676	0.018	0.038
-495.581	-145.409	0.249	0.022
-494.566	-57.130	0.108	-0.048
-493.551	89.523	-0.182	-0.203
-492.537	-81.871	-0.208	0.068
-491.522	-109.197	0.106	0.023
-490.508	-114.827	0.232	-0.044
-489.493	800.000	-0.040	0.126
-488.478	417.953	0.089	-0.191
-487.464	72.869	0.223	-0.233
-486.449	800.000	0.040	0.135
-485.435	800.000	-0.088	0.247
-484.420	70.660	-0.250	-0.258
-483.405	92.637	-0.051	-0.057
-482.391	800.000	-0.076	-0.217
-481.376	416.582	-0.137	0.292
-480.362	-152.326	0.275	0.020
-479.347	-200.000	0.037	-0.343
-478.332	133.842	-0.062	-0.079
-477.318	800.000	0.053	0.220
-476.303	800.000	0.052	0.194
-475.289	-138.692	0.198	-0.022
-474.274	52.293	-0.199	-0.189
-473.259	121.592	0.123	-0.153
-472.245	-31.157	0.325	0.183
-471.230	-200.000	-0.018	-0.154
-470.216	-108.118	0.227	0.049
-469.201	-93.314	0.197	0.054
-468.186	-200.000	0.002	0.170
-467.172	117.038	-0.080	-0.098
-466.157	-200.000	0.001	0.237
-465.143	-200.000	0.029	0.139
-464.128	528.358	-0.085	0.201
-463.113	222.534	0.075	0.121
-462.099	-71.758	-0.157	0.058
-461.084	-87.166	0.129	-0.039
-460.070	-48.477	-0.164	-0.079
-459.055	800.000	0.030	-0.128
-458.040	-83.115	-0.398	0.128
-457.026	50.679	-0.141	-0.133
-456.011	-107.608	0.446	0.097
-454.997	174.787	-0.087	-0.125
-453.982	133.317	0.233	-0.300
-452.968	276.676	0.057	-0.101
-451.953	-149.141	-0.142	-0.011
-450.938	43.052	-0.266	-0.242
-449.924	-200.000	-0.005	-0.306
-448.909	-165.794	0.207	-0.009
-447.895	-154.986	0.318	0.021
-446.880	-86.365	0.290	0.089
-445.865	-195.378	-0.454	-0.003
-444.851	-200.000	-0.318	0.000
-443.836	-200.000	0.023	0.171
-442.822	-89.590	-0.047	-0.014
-441.807	3.964	0.107	0.078
-440.792	-20.851	0.340	0.207
-439.778	800.000	-0.044	0.125
-438.763	-21.328	0.232	0.141
-437.749	46.166	0.257	0.237
-436.734	-110.978	-0.323	0.066
-435.719	409.016	0.082	0.172
-434.705	32.945	0.152	0.132
-433.690	-92.435	-0.076	0.021
-432.676	259.609	-0.088	-0.152
-431.661	-200.000	-0.009	0.110
-430.646	800.000	-0.048	-0.193
-429.632	-200.000	-0.005	0.073
-428.617	-76.875	0.156	0.054
-427.603	73.454	0.210	0.219
-426.588	-200.000	0.030	0.137
-425.573	60.113	0.037	0.036
-424.559	-156.636	-0.147	0.009
-423.544	15.169	-0.099	0.078
-422.530	-36.739	-0.129	0.069
-421.515	19.397	-0.145	-0.116
-420.500	-134.004	-0.365	0.045
-419.486	-200.000	0.023	-0.283
-418.471	-200.000	0.056	-0.263
-417.457	-50.796	0.373	-0.174
-416.442	-118.991	0.160	0.028
-415.428	-200.000	0.049	-0.286
-414.413	-48.189	0.310	0.149
-413.398	40.056	0.055	0.049
-412.384	586.319	0.128	0.314
-411.369	800.000	-0.069	0.261
-410.355	169.427	0.090	-0.128
-409.340	-170.348	-0.232	-0.008
-408.325	-70.239	-0.235	0.089
-407.311	-29.107	-0.117	-0.067
-406.296	-98.110	-0.369	0.094
-405.282	118.145	0.098	0.120
-404.267	800.000	0.131	0.428
-403.252	64.751	-0.147	0.148
-402.238	-115.631	-0.235	0.044
-401.223	123.778	-0.150	-0.187
-400.209	800.000	0.041	0.165
-399.194	62.481	0.269	-0.267
-398.179	154.738	-0.150	-0.205
-397.165	-137.883	-0.088	0.010
-396.150	9.599	-0.188	-0.141
-395.136	-163.784	-0.290	0.014
-394.121	263.690	0.180	-0.312
-393.106	34.393	0.091	-0.079
-392.092	-118.028	0.213	-0.038
-391.077	80.797	0.206	-0.221
-390.063	122.939	-0.084	0.104
-389.048	-200.000	0.007	-0.075
-388.033	-200.000	0.026	-0.120
-387.019	-77.644	-0.279	0.096
-386.004	-42.127	-0.265	-0.134
-384.990	800.000	0.040	-0.112
-383.975	-151.701	0.197	0.014
-382.960	121.900	-0.065	0.081
-381.946	88.847	-0.180	0.199
-380.931	-88.391	0.087	0.026
-379.917	-200.000	-0.016	-0.282
-378.902	-200.000	0.064	0.285
-377.888	95.906	-0.195	-0.221
-376.873	-60.084	0.077	-0.033
-375.858	21.227	0.130	0.105
-374.844	448.933	0.113	0.248
-373.829	450.708	0.059	-0.130
-372.815	481.283	-0.093	-0.210
-371.800	98.895	-0.241	-0.277
-370.785	-109.936	-0.154	-0.032
-369.771	10.676	-0.453	0.343
-368.756	94.270	0.149	-0.168
-367.742	-130.590	-0.393	-0.053
-366.727	-200.000	0.043	-0.306
-365.712	17.822	0.284	-0.225
-364.698	-37.326	-0.070	0.037
-363.683	-126.513	0.298	0.044
-362.669	569.788	0.070	-0.170
-361.654	-200.000	-0.017	0.092
-360.639	-2.100	-0.291	0.203
-359.625	59.331	-0.142	-0.139
-358.610	139.050	-0.161	0.211
-357.596	-117.203	-0.202	-0.036
-356.581	464.612	0.015	0.034
-355.566	-200.000	0.054	0.330
-354.552	-153.693	-0.169	-0.012
-353.537	78.632	-0.225	0.239
-352.523	-106.070	-0.093	-0.021
-351.508	774.618	0.054	-0.146
-350.493	615.550	-0.080	-0.200
-349.479	800.000	0.072	-0.261
-348.464	-96.637	-0.250	0.065
-347.450	-200.000	0.028	-0.132
-346.435	-200.000	0.002	0.127
-345.420	-180.407	0.114	-0.002
-344.406	42.054	-0.223	-0.201
-343.391	10.952	0.088	0.067
-342.377	-200.000	-0.027	0.186
-341.362	252.490	-0.160	-0.271
-340.348	-200.000	0.031	-0.147
-339.333	-133.512	0.070	-0.009
-338.318	15.761	-0.080	-0.062
-337.304	-22.561	0.130	0.078
-336.289	-148.504	0.071	-0.006
-335.275	172.262	0.090	0.128
-334.260	84.607	-0.231	0.250
-333.245	-62.362	-0.273	0.113
-332.231	94.124	0.069	0.077
-331.216	-96.257	0.307	-0.081
-330.202	800.000	0.072	0.287
-329.187	-92.344	0.311	0.087
-328.172	-92.573	-0.223	0.062
-327.158	294.790	0.076	0.138
-326.143	113.730	0.266	-0.320
-325.129	-83.483	-0.186	0.059
-324.114	205.389	0.217	0.335
-323.099	-200.000	-0.020	-0.190
-322.085	26.395	-0.037	0.030
-321.070	176.027	0.088	-0.127
-320.056	-112.531	-0.330	-0.065
-319.041	-125.200	0.457	0.069
-318.026	-108.442	-0.394	0.084
-317.012	98.512	0.105	-0.120
-315.997	21.852	-0.133	-0.107
-314.983	-183.847	0.337	0.006
-313.968	121.043	0.108	-0.133
-312.953	-106.922	-0.128	-0.028
-311.939	270.332	0.165	-0.288
-310.924	-200.000	0.016	-0.273
-309.910	444.927	0.085	-0.185
-308.895	113.293	-0.215	-0.259
-307.880	-75.739	-0.141	-0.050
-306.866	337.447	0.141	-0.271
-305.851	216.152	0.127	0.201
-304.837	2.767	0.454	-0.326
-303.822	-200.000	-0.077	0.349
-302.807	355.024	0.033	0.065
-301.793	397.619	0.068	0.140
-300.778	-200.000	0.030	-0.234
-299.764	-135.873	-0.266	-0.031
-298.749	-20.802	0.136	0.082
-297.735	55.376	-0.154	-0.148
-296.720	139.173	-0.032	0.041
-295.705	757.156	0.180	0.482
-294.691	-200.000	-0.083	-0.395
-293.676	373.413	-0.063	-0.127
-292.662	-82.848	0.225	0.072
-291.647	168.548	0.078	-0.110
-290.632	-125.494	-0.139	0.021
-289.618	45.585	0.105	-0.096
-288.603	42.803	-0.110	0.099
-287.589	439.519	0.167	0.362
-286.574	800.000	0.010	0.034
-285.559	20.384	-0.065	-0.052
-284.545	-200.000	-0.007	-0.091
-283.530	-200.000	-0.019	-0.207
-282.516	163.602	0.155	0.215
-281.501	182.067	0.113	0.164
-280.486	-14.967	0.076	-0.048
-279.472	316.056	-0.080	0.150
-278.457	-41.311	-0.070	0.035
-277.443	110.613	0.161	-0.191
-276.428	33.441	0.107	-0.092
-275.413	283.605	0.128	0.228
-274.399	-148.154	-0.268	-0.022
-273.384	452.095	-0.049	0.107
-272.370	-157.636	0.196	-0.012
-271.355	101.554	0.207	-0.239
-270.340	800.000	-0.065	-0.199
-269.326	-200.000	-0.037	0.231
-268.311	-172.947	-0.218	0.007
-267.297	-9.740	0.276	-0.182
-266.282	-200.000	-0.001	-0.201
-265.267	90.529	0.136	0.151
-264.253	-100.650	-0.218	0.053
-263.238	341.461	0.114	0.221
-262.224	-121.217	0.386	0.064
-261.209	167.745	0.105	-0.148
-260.195	429.696	-0.095	-0.204
-259.180	-99.872	0.229	-0.057
-258.165	27.297	0.130	-0.108
-257.151	119.766	-0.118	0.145
-256.136	-60.473	0.181	-0.076
-255.122	501.921	-0.090	0.206
-254.107	255.513	0.037	-0.062
-253.092	-19.089	-0.059	-0.036
-252.078	-53.974	0.267	0.120
-251.063	-200.000	0.003	0.108
-250.049	-93.318	0.195	0.053
-249.034	-31.405	-0.267	0.149
-248.019	-177.251	-0.145	-0.004
-247.005	411.522	-0.051	-0.108
-245.990	76.533	-0.084	-0.088
-244.976	125.145	-0.071	0.088
-243.961	800.000	0.047	-0.150
-242.946	-200.000	-0.026	-0.217
-241.932	-200.000	-0.026	0.116
-240.917	-92.312	0.207	-0.058
-239.903	177.035	0.159	0.228
-238.888	121.158	-0.106	0.130
-237.873	134.918	-0.208	0.267
-236.859	648.905	-0.063	0.160
-235.844	-200.000	0.011	0.197
-234.830	324.299	0.088	0.167
-233.815	30.036	-0.013	-0.011
-232.800	473.697	0.089	-0.199
-231.786	-91.354	0.257	0.073
-230.771	-116.096	-0.151	-0.028
-229.757	254.613	-0.261	0.440
-228.742	-3.349	0.243	-0.167
-227.727	17.225	0.144	-0.113
-226.713	-64.205	-0.020	-0.008
-225.698	-12.032	0.203	-0.131
-224.684	176.177	0.034	0.049
-223.669	-155.550	-0.161	0.010
-222.655	57.273	-0.088	0.085
-221.640	-57.553	0.125	-0.054
-220.625	800.000	0.034	0.098
-219.611	-200.000	0.043	0.331
-218.596	-200.000	-0.037	0.411
-217.582	58.587	-0.169	0.163
-216.567	-158.263	0.264	-0.015
-215.552	800.000	0.029	0.115
-214.538	-154.456	-0.075	-0.005
-213.523	488.389	0.080	-0.180
-212.509	800.000	-0.133	-0.417
-211.494	-200.000	0.033	-0.463
-210.479	98.707	0.094	0.107
-209.465	-62.216	-0.093	-0.038
-208.450	-200.000	-0.029	-0.174
-207.436	-122.414	0.110	-0.018
-206.421	256.658	-0.139	0.235
-205.406	-200.000	-0.054	-0.503
-204.392	-180.466	-0.278	0.006
-203.377	-200.000	0.006	-0.186
-202.363	-35.858	-0.285	-0.152
-201.348	110.784	0.077	0.091
-200.333	-116.923	-0.078	0.014
-199.319	74.956	-0.279	0.291
-198.304	-200.000	-0.016	0.458
-197.290	-200.000	-0.009	0.238
-196.275	7.113	-0.094	-0.070
-195.260	-33.627	0.293	-0.160
-194.246	800.000	0.086	0.276
-193.231	88.183	-0.121	0.132
-192.217	214.216	0.177	-0.277
-191.202	-76.602	0.169	0.059
-190.187	800.000	0.056	0.161
-189.173	381.643	0.169	0.343
-188.158	-117.838	-0.172	0.030
-187.144	29.766	-0.232	0.195
-186.129	-96.383	-0.189	0.049
-185.114	1.397	0.187	0.133
-184.100	176.870	-0.178	0.255
-183.085	295.385	0.142	0.257
-182.071	-75.741	0.068	0.024
-181.056	-100.959	-0.297	-0.072
-180.042	800.000	-0.074	-0.205
-179.027	-58.320	0.300	-0.129
-178.012	-134.512	0.241	-0.029
-176.998	766.674	0.073	0.195
-175.983	200.261	-0.039	0.058
-174.969	-48.166	0.085	-0.040
-173.954	-52.707	-0.339	-0.154
-172.939	-27.418	0.162	-0.093
-171.925	-47.643	0.146	0.070
-170.910	800.000	0.057	0.224
-169.896	-68.876	0.188	-0.072
-168.881	800.000	0.052	0.182
-167.866	404.629	0.031	-0.064
-166.852	-200.000	-0.020	0.156
-165.837	-200.000	-0.050	0.422
-164.823	-99.162	0.037	-0.009
-163.808	-86.815	-0.150	-0.045
-162.793	136.817	0.146	-0.188
-161.779	167.177	-0.135	0.189
-160.764	-84.607	-0.070	-0.022
-159.750	-200.000	-0.080	0.422
-158.735	-200.000	-0.007	-0.076
-157.720	-200.000	0.020	-0.105
-156.706	-200.000	-0.005	-0.118
-155.691	4.618	0.156	-0.113
-154.677	320.703	-0.151	0.282
-153.662	-114.212	0.250	0.048
-152.647	448.842	-0.026	-0.058
-151.633	273.645	0.109	0.190
-150.618	-124.121	-0.357	-0.055
-149.604	-45.512	-0.289	0.141
-148.589	-200.000	-0.017	-0.093
-147.574	800.000	0.028	0.115
-146.560	45.309	0.104	-0.095
-145.545	26.230	-0.043	-0.035
-144.531	53.067	0.169	-0.159
-143.516	-62.650	-0.228	0.093
-142.502	668.528	0.114	0.290
-141.487	800.000	0.082	0.337
-140.472	129.026	-0.108	0.136
-139.458	180.420	-0.060	-0.087
-138.443	140.105	-0.272	0.353
-137.429	300.302	0.143	-0.260
-136.414	-62.993	0.235	-0.096
-135.399	800.000	0.115	0.354
-134.385	23.059	-0.292	0.236
-133.370	-141.698	-0.449	-0.044
-132.356	155.754	-0.060	0.081
-131.341	615.443	0.086	-0.213
-130.326	-123.003	0.468	-0.074
-129.312	13.786	0.266	0.204
-128.297	-1.704	-0.113	-0.078
-127.283	329.600	0.124	0.234
-126.268	-200.000	0.032	-0.298
-125.253	-48.889	-0.103	-0.049
-124.239	-200.000	-0.032	0.228
-123.224	-200.000	-0.020	-0.145
-122.210	-113.879	0.249	0.048
-121.195	800.000	0.019	-0.056
-120.180	800.000	0.070	0.242
-119.166	331.778	-0.145	-0.275
-118.151	5.743	0.131	0.095
-117.137	93.993	-0.097	-0.109
-116.122	337.736	-0.162	0.311
-115.107	198.505	-0.008	0.012
-114.093	359.378	0.070	-0.138
-113.078	34.384	-0.349	-0.299
-112.064	-200.000	-0.011	-0.148
-111.049	-96.794	0.177	-0.046
-110.034	800.000	-0.032	-0.102
-109.020	75.469	0.286	-0.297
-108.005	175.663	0.176	-0.251
-106.991	56.417	-0.094	-0.090
-105.976	-68.206	0.120	-0.046
-104.962	-200.000	-0.023	0.248
-103.947	-18.771	0.125	-0.077
-102.932	800.000	-0.017	0.069
-101.918	800.000	-0.041	0.129
-100.903	-200.000	0.022	-0.297
-99.889	-172.315	-0.166	0.005
-98.874	329.950	0.070	-0.132
-97.859	-141.638	-0.226	-0.022
-96.845	-135.937	-0.390	-0.045
-95.830	251.331	0.232	-0.388
-94.816	278.228	0.253	0.443
-93.801	26.288	-0.146	-0.120
-92.786	800.000	-0.046	0.128
-91.772	-108.998	0.103	0.022
-90.757	67.380	0.127	-0.127
-89.743	-134.125	-0.349	-0.042
-88.728	-200.000	0.013	0.299
-87.713	-60.018	-0.179	0.075
-86.699	180.646	0.136	-0.196
-85.684	403.384	-0.111	-0.230
-84.670	223.387	0.099	-0.156
-83.655	92.090	-0.111	0.123
-82.640	493.960	0.063	-0.142
-81.626	-136.618	-0.277	0.031
-80.611	-200.000	0.012	0.120
-79.597	512.260	0.119	-0.271
-78.582	800.000	0.082	-0.351
-77.567	111.395	0.057	-0.067
-76.553	-112.056	0.085	0.017
-75.538	-20.973	-0.271	0.163
-74.524	156.385	-0.297	0.402
-73.509	-90.092	-0.163	-0.047
-72.494	412.280	-0.046	0.097
-71.480	1.560	-0.047	0.033
-70.465	25.618	-0.212	0.173
-69.451	800.000	-0.079	0.237
-68.436	-172.285	-0.497	0.016
-67.422	800.000	0.047	0.201
-66.407	350.548	-0.106	0.207
-65.392	-200.000	0.021	-0.288
-64.378	313.189	-0.110	0.204
-63.363	141.639	0.057	0.074
-62.349	16.468	0.078	0.061
-61.334	25.327	-1.085	-0.885
-60.319	-87.153	0.735	0.219
-59.305	-200.000	-0.034	-0.916
-58.290	-200.000	0.282	1.323
-57.276	800.000	0.380	1.550
-56.261	-200.000	98.034	608.196
-55.246	618.669	1399.737	3450.215
-54.232	193.176	2589.499	3841.590
-53.217	117.250	2166.609	2613.250
-52.203	42.774	1705.194	1524.143
-51.188	35.162	1519.597	1306.536
-50.173	32.707	1493.340	1267.433
-49.159	52.192	1543.954	1444.048
-48.144	54.009	1561.055	1472.404
-47.130	35.273	1519.785	1307.248
-46.115	32.097	1505.275	1273.221
-45.100	32.005	1501.808	1269.617
-44.086	31.882	1500.005	1267.214
-43.071	31.894	1497.748	1265.336
-42.057	31.843	1496.621	1263.988
-41.042	31.870	1495.009	1262.762
-40.027	31.940	1493.201	1261.654
-39.013	31.783	1492.306	1259.789
-37.998	31.932	1490.562	1259.269
-36.984	31.828	1489.562	1257.676
-35.969	31.948	1488.209	1257.287
-34.954	31.913	1487.044	1256.022
-33.940	31.958	1485.525	1254.989
-32.925	31.865	1484.332	1253.310
-31.911	31.844	1482.911	1251.917
-30.896	31.894	1481.434	1250.957
-29.881	31.954	1480.294	1250.343
-28.867	31.936	1478.690	1248.817
-27.852	31.908	1477.302	1247.409
-26.838	31.945	1475.980	1246.491
-25.823	31.958	1474.297	1245.104
-24.809	31.913	1472.617	1243.340
-23.794	31.895	1471.231	1242.002
-22.779	31.884	1470.113	1240.937
-21.765	31.869	1469.258	1240.066
-20.750	31.983	1468.025	1239.726
-19.736	31.935	1466.786	1238.315
-18.721	31.890	1465.742	1237.090
-17.706	31.884	1464.754	1236.171
-16.692	31.882	1463.488	1235.038
-15.677	31.921	1462.310	1234.248
-14.663	31.853	1461.603	1233.156
-13.648	31.778	1460.911	1232.031
-12.633	31.833	1459.655	1231.283
-11.619	31.839	1458.693	1230.465
-10.604	31.823	1458.147	1229.849
-9.590	31.784	1457.482	1228.985
-8.575	31.936	1456.027	1228.702
-7.560	31.782	1455.671	1227.344
-6.546	31.802	1454.782	1226.677
-5.531	31.843	1453.686	1225.975
-4.517	31.857	1452.610	1225.109
-3.502	31.801	1451.514	1223.771
-2.487	31.801	1450.271	1222.675
-1.473	31.803	1449.473	1221.968
-0.458	31.796	1448.425	1220.986
0.556	29.597	1438.476	1209.716
1.571	26.522	1412.216	1167.725
2.586	23.013	1350.443	1094.851
3.600	21.318	1267.746	1017.852
4.615	20.017	1222.980	974.506
5.629	17.055	1167.329	914.153
6.644	8.294	1082.453	803.675
7.659	0.993	1041.013	737.386
8.673	-0.096	1035.699	728.284
9.688	-0.307	1032.792	725.152
10.702	-0.355	1030.928	723.550
11.717	-0.461	1029.177	721.743
12.731	2.556	1031.844	738.103
13.746	11.224	1045.172	789.731
14.761	17.835	1053.034	827.774
15.775	18.901	1053.394	833.156
16.790	18.899	1052.548	832.401
17.804	18.708	1051.184	830.323
18.819	18.439	1050.920	828.743
19.834	18.609	1050.105	828.847
20.848	18.612	1049.728	828.493
21.863	18.567	1049.308	827.868
22.877	18.627	1048.784	827.671
23.892	18.564	1048.037	826.707
24.907	18.537	1047.017	825.697
25.921	18.485	1046.448	824.924
26.936	18.537	1045.918	824.685
27.950	18.547	1044.650	823.661
28.965	18.605	1042.979	822.546
29.980	18.460	1041.731	820.796
30.994	18.326	1040.470	819.089
32.009	18.648	1039.185	819.543
33.023	18.702	1038.822	819.444
34.038	18.484	1037.930	817.627
35.053	18.531	1036.492	816.644
36.067	18.561	1036.626	816.820
37.082	18.605	1035.175	815.817
38.096	18.813	1034.751	816.398
39.111	18.843	1033.671	815.617
40.126	18.929	1032.612	815.116
41.140	18.767	1031.880	813.700
42.155	18.598	1030.215	811.515
43.169	18.342	1029.031	809.301
44.184	18.389	1027.229	808.031
45.199	18.438	1026.466	807.592
46.213	18.303	1025.551	806.167
47.228	18.243	1024.662	805.110
48.242	18.324	1023.274	804.334
49.257	18.352	1022.694	803.935
50.271	18.495	1021.626	803.698
51.286	18.547	1021.134	803.483
52.301	18.557	1019.953	802.527
53.315	18.526	1019.584	802.023
54.330	18.670	1018.338	801.645
55.344	18.613	1017.431	800.592
56.359	18.549	1016.639	799.602
57.374	18.521	1015.707	798.664
58.388	18.437	1014.911	797.576
59.403	18.431	1013.907	796.690
60.417	18.528	1013.029	796.381
61.432	18.337	1012.422	794.947
62.447	18.351	1011.888	794.521
63.461	18.455	1011.407	794.554
64.476	18.454	1010.419	793.705
65.490	18.573	1008.935	793.020
66.505	18.415	1008.763	792.084
67.520	18.463	1007.452	791.205
68.534	18.586	1006.568	791.007
69.549	18.499	1005.144	789.420
70.563	18.234	1004.266	787.439
71.578	18.164	1003.549	786.485
72.593	18.172	1002.687	785.779
73.607	18.097	1001.460	784.400
74.622	17.988	1000.573	783.141
75.636	18.289	1000.219	784.172
76.651	18.395	999.155	783.753
77.666	18.210	998.729	782.505
78.680	18.225	997.312	781.391
79.695	18.198	996.683	780.707
80.709	18.390	996.028	781.001
81.724	18.415	995.442	780.585
82.739	18.310	994.759	779.504
83.753	18.400	993.397	778.777
84.768	18.552	993.308	779.327
85.782	18.719	992.411	779.314
86.797	18.916	991.377	779.325
87.812	18.791	990.290	777.839
88.826	18.635	989.891	776.747
89.841	18.796	988.583	776.381
90.855	18.828	987.586	775.674
91.870	18.859	987.097	775.361
92.884	18.724	986.451	774.174
93.899	18.670	985.504	773.120
94.914	18.652	984.374	772.085
95.928	18.718	983.907	771.946
96.943	18.800	982.817	771.393
97.957	18.517	981.826	769.276
98.972	18.366	980.502	767.494
99.987	18.096	979.507	765.437
101.001	18.145	979.031	765.219
102.016	18.512	978.406	766.304
103.030	18.679	977.211	766.045
104.045	18.584	975.258	764.023
105.060	18.353	974.314	762.188
106.074	18.212	972.969	760.443
107.089	18.139	972.413	759.615
108.103	18.514	972.765	761.489
109.118	18.724	971.616	761.453
110.133	18.560	970.216	759.564
111.147	18.441	969.586	758.475
112.162	18.363	968.029	756.846
113.176	18.353	966.472	755.516
114.191	18.376	965.869	755.080
115.206	18.461	965.216	754.880
116.220	18.220	964.000	752.798
117.235	17.995	963.088	751.033
118.249	18.176	962.220	751.086
119.264	18.249	961.110	750.472
120.279	18.319	960.343	750.114
121.293	18.159	959.143	748.410
122.308	18.332	958.692	748.748
123.322	18.248	958.109	747.860
124.337	18.304	956.940	747.126
125.352	18.186	955.648	745.534
126.366	17.849	953.840	742.591
127.381	17.569	952.195	740.033
128.395	17.953	952.529	741.892
129.410	18.541	952.099	744.047
130.424	18.806	951.074	744.325
131.439	18.798	949.577	743.057
132.454	18.568	949.058	741.590
133.468	18.723	947.633	741.078
134.483	18.549	947.086	739.832
135.497	18.679	946.393	739.788
136.512	18.803	946.102	740.029
137.527	18.824	945.319	739.440
138.541	18.703	944.304	738.064
139.556	18.846	943.390	737.896
140.570	18.933	942.670	737.641
141.585	18.929	941.562	736.691
142.600	18.827	940.952	735.711
143.614	18.827	939.825	734.768
144.629	18.837	939.343	734.369
145.643	18.960	938.901	734.481
146.658	19.102	937.776	734.141
147.673	18.937	936.504	732.378
148.687	18.802	935.274	730.780
149.702	18.804	934.377	730.021
150.716	18.652	933.762	728.831
151.731	18.608	932.827	727.849
152.746	18.762	931.811	727.644
153.760	18.908	931.187	727.710
154.775	19.007	930.526	727.549
155.789	18.922	930.394	727.021
156.804	19.016	928.993	726.261
157.819	19.021	927.434	724.999
158.833	18.817	927.038	723.764
159.848	18.927	926.610	723.831
160.862	19.034	925.457	723.317
161.877	18.834	924.744	721.855
162.892	18.703	924.179	720.800
163.906	18.988	923.275	721.227
164.921	18.935	922.294	720.171
165.935	19.044	920.717	719.334
166.950	19.033	920.223	718.838
167.964	19.107	919.404	718.446
168.979	19.060	918.041	717.120
169.994	18.881	917.062	715.545
171.008	18.810	915.958	714.326
172.023	18.965	915.526	714.569
173.037	18.975	914.450	713.708
174.052	18.916	913.103	712.348
175.067	18.705	912.562	710.989
176.081	18.705	911.887	710.403
177.096	18.798	911.448	710.382
178.110	18.851	910.089	709.479
179.125	18.684	908.997	707.875
180.140	18.508	908.099	706.387
181.154	18.543	907.173	705.750
182.169	18.577	906.629	705.402
183.183	18.828	906.335	706.145
184.198	19.034	905.642	706.389
185.213	18.871	904.964	705.128
186.227	18.877	904.097	704.417
187.242	18.921	904.136	704.562
188.256	18.993	903.239	704.098
189.271	18.949	901.840	702.765
190.286	18.999	901.459	702.609
191.300	18.980	900.377	701.627
192.315	18.564	899.169	698.927
193.329	17.934	897.737	695.190
194.344	17.444	897.082	692.624
195.359	18.125	897.057	695.315
196.373	18.830	896.960	698.044
197.388	19.031	896.967	698.805
198.402	18.886	896.070	697.456
199.417	18.828	895.102	696.406
200.432	18.899	894.277	695.988
201.446	18.688	894.086	694.925
202.461	18.240	893.591	692.664
203.475	18.538	892.896	693.272
204.490	17.961	891.421	689.735
205.504	16.998	889.618	684.395
206.519	17.452	889.248	685.882
207.534	18.414	889.451	689.851
208.548	18.490	888.703	689.516
209.563	18.718	889.024	690.622
210.577	18.816	887.969	690.136
211.592	18.594	887.320	688.679
212.607	18.875	887.217	689.667
213.621	18.960	886.286	689.223
214.636	19.092	885.293	688.917
215.650	19.176	884.647	688.691
216.665	19.084	884.395	688.063
217.680	18.890	883.922	686.862
218.694	19.092	883.464	687.248
219.709	18.670	882.422	684.697
220.723	18.404	881.738	683.042
221.738	18.622	881.448	683.629
222.753	19.015	880.552	684.435
223.767	18.837	879.552	682.889
224.782	18.951	878.838	682.727
225.796	19.119	878.007	682.691
226.811	19.213	877.543	682.641
227.826	18.891	876.440	680.448
228.840	18.025	875.466	676.204
229.855	17.926	874.874	675.298
230.869	18.290	873.825	675.866
231.884	17.899	873.127	673.722
232.899	18.112	872.640	674.125
233.913	18.844	872.761	677.048
234.928	18.896	872.522	677.007
235.942	18.869	871.565	676.097
236.957	18.997	870.701	675.871
237.972	18.715	869.826	674.023
238.986	18.621	869.174	673.092
240.001	18.704	868.472	672.812
241.015	18.864	867.404	672.553
242.030	18.869	866.993	672.192
243.045	18.910	866.641	672.020
244.059	19.034	866.106	672.031
245.074	19.306	865.290	672.400
246.088	19.030	864.721	670.823
247.103	18.616	863.765	668.407
248.117	18.597	863.529	668.091
249.132	19.261	862.890	670.123
250.147	19.478	862.427	670.548
251.161	19.506	861.802	670.111
252.176	19.623	861.303	670.116
253.190	19.663	860.139	669.308
254.205	19.561	859.978	668.726
255.220	19.763	859.697	669.231
256.234	19.887	858.826	668.974
257.249	19.730	858.466	668.028
258.263	19.604	857.690	666.876
259.278	19.653	856.969	666.447
260.293	19.847	856.383	666.680
261.307	19.931	855.673	666.393
262.322	19.640	855.318	664.937
263.336	19.552	854.556	663.946
264.351	19.100	852.960	660.914
265.366	17.971	850.937	654.960
266.380	17.533	849.980	652.488
267.395	18.461	850.391	656.300
268.409	19.230	850.609	659.354
269.424	19.175	849.995	658.612
270.439	19.359	849.686	659.018
271.453	19.567	848.610	658.918
272.468	19.558	848.117	658.442
273.482	19.740	847.961	658.958
274.497	19.912	847.243	658.997
275.512	19.730	846.196	657.429
276.526	19.076	845.005	653.962
277.541	19.317	844.249	654.236
278.555	19.672	844.208	655.492
279.570	19.422	842.969	653.525
280.585	19.086	842.321	651.693
281.599	19.261	841.809	651.903
282.614	19.370	841.490	652.009
283.628	19.081	840.233	649.884
284.643	18.782	839.878	648.426
285.657	19.100	839.861	649.555
286.672	19.005	838.794	648.313
287.687	18.592	838.057	646.131
288.701	18.883	837.729	646.919
289.716	19.275	837.490	648.150
290.730	18.921	836.644	646.109
291.745	18.803	835.783	644.944
292.760	18.657	834.656	643.470
293.774	18.576	834.154	642.719
294.789	19.482	834.838	646.589
295.803	20.138	834.277	648.550
296.818	20.077	834.168	648.181
297.833	20.196	833.373	647.950
298.847	19.980	832.212	646.182
299.862	19.589	831.543	644.149
300.876	19.715	831.407	644.458
301.891	20.058	830.535	645.002
302.906	20.009	830.005	644.350
303.920	19.616	828.997	642.050
304.935	19.464	828.199	640.812
305.949	19.799	827.825	641.707
306.964	20.039	827.248	642.092
307.979	19.769	826.619	640.550
308.993	19.783	826.331	640.319
310.008	20.164	826.171	641.551
311.022	20.246	825.385	641.187
312.037	20.013	825.049	640.008
313.052	19.913	824.644	639.268
314.066	19.702	824.008	637.939
315.081	19.282	822.338	635.040
316.095	18.594	821.177	631.557
317.110	19.061	821.632	633.572
318.125	19.804	821.533	636.171
319.139	19.380	820.641	633.867
320.154	18.598	818.835	629.549
321.168	18.184	817.984	627.319
322.183	18.835	818.077	629.722
323.197	19.326	818.697	631.943
324.212	19.692	818.166	632.820
325.227	19.853	817.750	633.030
326.241	20.098	817.123	633.383
327.256	20.010	816.595	632.598
328.270	19.912	815.940	631.676
329.285	19.895	815.027	630.852
330.300	19.680	814.520	629.620
331.314	19.345	813.889	627.858
332.329	19.483	813.060	627.662
333.343	19.911	812.613	628.817
334.358	20.131	812.106	629.170
335.373	20.031	811.729	628.460
336.387	19.904	811.705	627.923
337.402	20.123	811.048	628.155
338.416	20.344	810.631	628.574
339.431	20.327	809.958	627.937
340.446	20.307	809.036	627.096
341.460	20.470	808.731	627.390
342.475	20.565	807.924	627.053
343.489	20.330	807.683	625.963
344.504	20.266	806.679	624.896
345.519	20.580	806.657	625.958
346.533	20.535	806.332	625.488
347.548	20.661	805.685	625.383
348.562	20.814	805.440	625.688
349.577	20.735	805.211	625.168
350.592	20.879	804.194	624.841
351.606	20.881	804.047	624.680
352.621	20.846	803.323	623.936
353.635	20.826	802.732	623.351
354.650	20.712	802.417	622.643
355.665	20.300	801.507	620.407
356.679	19.431	799.771	615.908
357.694	19.256	799.164	614.763
358.708	19.718	799.225	616.405
359.723	19.593	798.850	615.615
360.738	20.048	798.001	616.525
361.752	20.432	798.159	617.960
362.767	20.530	797.736	617.925
363.781	20.642	797.594	618.160
364.796	20.954	797.522	619.158
365.810	21.145	796.597	619.059
366.825	21.005	796.636	618.538
367.840	21.136	796.074	618.511
368.854	20.854	795.439	616.965
369.869	20.513	794.684	615.120
370.883	20.488	793.804	614.296
371.898	20.520	793.414	614.054
372.913	20.390	792.885	613.128
373.927	20.459	791.895	612.554
374.942	20.553	791.454	612.490
375.956	20.743	791.382	613.049
376.971	20.674	790.778	612.284
377.986	20.919	790.242	612.676
379.000	20.984	790.081	612.724
380.015	20.929	789.405	611.954
381.029	20.795	789.038	611.143
382.044	20.735	788.256	610.273
383.059	20.992	787.674	610.670
384.073	20.963	787.187	610.135
385.088	20.918	786.774	609.604
386.102	21.140	786.503	610.119
387.117	20.919	785.921	608.839
388.132	20.889	785.369	608.253
389.146	20.847	784.414	607.315
390.161	20.259	783.765	604.710
391.175	20.220	783.362	604.208
392.190	20.638	783.366	605.613
393.205	20.812	782.657	605.618
394.219	19.650	781.393	600.549
395.234	18.539	779.345	595.067
396.248	17.993	778.479	592.461
397.263	19.002	778.887	596.219
398.278	20.664	779.995	602.779
399.292	20.821	780.093	603.343
400.307	20.643	779.364	602.112
401.321	20.657	778.790	601.662
402.336	20.566	778.422	601.010
403.350	20.844	778.210	601.755
404.365	21.307	778.323	603.386
405.380	21.385	778.004	603.357
406.394	21.580	777.575	603.644
407.409	21.734	777.161	603.799
408.423	21.742	776.258	603.072
409.438	21.633	776.069	602.494
410.453	21.511	775.927	601.911
411.467	21.723	775.444	602.213
412.482	21.703	774.899	601.669
413.496	21.542	774.158	600.487
414.511	21.705	774.196	601.024
415.526	21.895	773.285	600.911
416.540	21.706	773.117	600.083
417.555	21.665	772.669	599.540
418.569	21.279	771.926	597.590
419.584	21.131	771.782	596.919
420.599	21.429	771.033	597.306
421.613	157.529	1360.513	1794.623
422.628	135.848	1446.429	1794.749
