DTS Sentinel unit serial number:	SN413079Multiplexer serial number:	ORYXHardware model number:	OX4-SRSoftware version number:	ORYX F/W v4.00 Oryx Data Collector v3.7.2.0data status	okinstallation	princeton_trtdifferential loss correction	single-endedforward channel	channel 3reverse channel	N/Adate	2019/09/11time	23:30:11forward acquisition time	60.00reverse acquisition time	0.00gamma	496.2192k internal	0.2318k external	0.2318temperature offset calibration	1.0051default loss term (dB/km)	0.3790temperature slope calibration	1.0000multiplexer offset coefficient	1.0000multiplexer slope coefficient	1.0000fibre end	0.00T internal ref (°C)	34.25T ext. ref 1 (°C)	1.87T ext. ref 2 (°C)	28.33length (m)	temperature (°C)	Stokes	anti-Stokes-747.200	411.680	-0.098	0.212
-746.185	-34.716	-0.262	0.145
-745.171	-30.602	0.232	0.133
-744.156	-57.959	0.162	0.072
-743.142	-200.000	-0.007	0.142
-742.127	-200.000	0.029	0.336
-741.112	424.792	-0.114	-0.247
-740.098	65.838	-0.271	0.278
-739.083	-33.278	-0.067	0.038
-738.069	56.701	0.117	0.116
-737.054	29.136	0.094	-0.080
-736.039	-134.295	-0.289	-0.036
-735.025	-110.028	-0.271	0.057
-734.010	-1.839	-0.333	-0.237
-732.996	489.953	0.143	-0.331
-731.981	-85.239	0.156	-0.049
-730.966	-2.684	-0.335	-0.237
-729.952	-88.307	0.135	-0.041
-728.937	-78.974	-0.096	-0.033
-727.923	-48.574	-0.231	0.112
-726.908	-78.155	-0.553	-0.192
-725.894	-45.040	-0.385	-0.194
-724.879	-200.000	-0.022	0.171
-723.864	121.359	-0.289	0.364
-722.850	800.000	-0.070	0.198
-721.835	-200.000	0.020	0.186
-720.821	-200.000	-0.016	0.118
-719.806	800.000	-0.039	-0.165
-718.791	-200.000	-0.002	0.235
-717.777	-104.339	0.160	-0.037
-716.762	412.611	0.078	-0.167
-715.748	46.656	0.206	0.193
-714.733	391.408	-0.109	0.229
-713.718	-55.055	-0.186	0.085
-712.704	-200.000	-0.012	0.110
-711.689	23.198	0.170	-0.141
-710.675	719.742	0.119	-0.320
-709.660	240.048	0.038	0.063
-708.645	-47.495	-0.411	0.202
-707.631	333.457	0.075	0.146
-706.616	800.000	0.031	0.122
-705.602	-200.000	0.042	-0.238
-704.587	-137.171	0.262	0.030
-703.572	-138.562	-0.336	-0.037
-702.558	-40.095	-0.230	0.121
-701.543	800.000	0.027	-0.107
-700.529	233.446	-0.150	-0.249
-699.514	1.783	-0.298	-0.217
-698.499	800.000	0.050	-0.177
-697.485	-200.000	0.008	0.231
-696.470	205.367	0.102	-0.160
-695.456	-117.079	0.065	0.012
-694.441	225.627	0.154	-0.251
-693.426	-189.615	-0.212	-0.002
-692.412	-67.596	-0.297	0.118
-691.397	-149.405	-0.036	0.003
-690.383	122.205	0.184	0.232
-689.368	203.459	-0.110	-0.172
-688.354	-200.000	0.029	0.167
-687.339	-13.892	-0.120	-0.078
-686.324	-128.737	0.054	-0.008
-685.310	800.000	-0.091	0.271
-684.295	185.472	0.111	-0.166
-683.281	-200.000	0.010	-0.228
-682.266	-200.000	-0.001	-0.384
-681.251	41.621	-0.081	0.074
-680.237	223.084	-0.087	0.141
-679.222	-171.782	-0.297	0.010
-678.208	-91.514	-0.534	-0.154
-677.193	-2.716	-0.248	0.175
-676.178	43.354	-0.227	0.209
-675.164	-151.373	0.377	0.028
-674.149	46.349	0.213	-0.200
-673.135	340.167	-0.136	-0.269
-672.120	-200.000	-0.002	0.269
-671.105	214.105	0.278	-0.444
-670.091	-80.383	-0.170	0.057
-669.076	72.282	-0.192	0.201
-668.062	104.152	-0.091	0.108
-667.047	-162.350	0.280	-0.014
-666.032	800.000	0.030	0.093
-665.018	87.574	0.039	0.044
-664.003	-126.172	0.292	-0.044
-662.989	-28.256	-0.261	0.152
-661.974	23.955	-0.093	0.077
-660.959	-200.000	0.016	-0.323
-659.945	-200.000	-0.017	-0.123
-658.930	102.829	0.084	-0.099
-657.916	-97.203	0.298	-0.079
-656.901	-58.833	-0.358	0.156
-655.886	-179.162	0.140	0.003
-654.872	-200.000	-0.052	0.442
-653.857	432.538	0.094	0.206
-652.843	-96.781	-0.217	-0.058
-651.828	122.374	0.143	-0.181
-650.814	-34.425	-0.155	-0.086
-649.799	800.000	-0.106	-0.371
-648.784	-153.822	0.115	0.008
-647.770	127.183	-0.208	-0.266
-646.755	-200.000	0.007	0.043
-645.741	176.679	-0.172	0.252
-644.726	-37.709	-0.088	0.047
-643.711	298.687	-0.062	-0.115
-642.697	-94.152	0.236	-0.065
-641.682	-100.767	-0.362	-0.090
-640.668	13.594	-0.149	0.117
-639.653	508.456	-0.021	0.050
-638.638	-200.000	-0.003	-0.232
-637.624	800.000	0.059	-0.211
-636.609	-33.092	0.345	0.193
-635.595	-42.681	-0.117	-0.060
-634.580	-200.000	0.025	-0.157
-633.565	-105.342	0.198	-0.045
-632.551	-173.565	0.276	0.008
-631.536	4.301	-0.279	-0.206
-630.522	-200.000	-0.046	0.230
-629.507	-200.000	0.069	-0.450
-628.492	143.135	0.168	0.225
-627.478	-200.000	0.050	0.240
-626.463	55.856	-0.137	-0.134
-625.449	-32.284	-0.224	-0.126
-624.434	-52.442	-0.209	-0.097
-623.419	-36.255	0.076	0.041
-622.405	-24.198	0.343	-0.206
-621.390	-65.646	0.187	0.076
-620.376	50.827	-0.172	-0.164
-619.361	313.353	0.200	-0.379
-618.346	522.673	-0.100	0.236
-617.332	-188.487	0.185	-0.002
-616.317	800.000	0.108	-0.342
-615.303	800.000	-0.058	-0.239
-614.288	367.126	0.199	-0.406
-613.273	302.068	-0.054	0.100
-612.259	800.000	0.097	-0.361
-611.244	-31.463	0.044	-0.025
-610.230	142.347	-0.146	0.195
-609.215	-18.228	-0.190	0.120
-608.201	536.213	0.073	-0.174
-607.186	-68.528	-0.180	-0.070
-606.171	-144.227	-0.077	-0.007
-605.157	800.000	-0.109	0.323
-604.142	124.052	0.037	0.047
-603.128	76.760	0.147	-0.157
-602.113	-79.592	0.386	0.131
-601.098	-149.801	0.343	-0.027
-600.084	210.389	-0.051	-0.081
-599.069	28.447	-0.150	-0.127
-598.055	-200.000	-0.017	-0.222
-597.040	234.460	0.116	0.193
-596.025	208.609	0.151	-0.237
-595.011	-81.688	-0.258	0.085
-593.996	-153.200	-0.087	0.006
-592.982	75.876	0.117	0.124
-591.967	-94.436	-0.257	0.070
-590.952	-110.190	-0.273	-0.057
-589.938	-53.937	-0.184	0.084
-588.923	-200.000	0.017	-0.078
-587.909	12.564	-0.121	0.094
-586.894	-200.000	0.005	-0.138
-585.879	636.625	0.134	0.342
-584.865	33.737	0.053	0.046
-583.850	86.494	0.094	0.104
-582.836	-36.808	0.057	0.031
-581.821	26.581	-0.143	0.120
-580.806	800.000	0.027	0.115
-579.792	-36.743	0.233	0.126
-578.777	-80.147	0.264	-0.089
-577.763	-77.730	0.256	0.089
-576.748	61.831	0.204	0.204
-575.733	-200.000	-0.060	0.287
-574.719	-121.682	0.193	-0.032
-573.704	119.223	0.116	-0.144
-572.690	-10.421	-0.268	0.179
-571.675	-70.413	-0.107	0.041
-570.661	434.583	-0.077	-0.167
-569.646	800.000	-0.068	0.216
-568.631	-200.000	-0.031	-0.224
-567.617	117.137	-0.232	0.286
-566.602	800.000	0.046	0.201
-565.588	-57.515	-0.032	0.014
-564.573	-200.000	-0.032	-0.269
-563.558	617.454	-0.046	0.117
-562.544	776.402	0.074	-0.204
-561.529	50.226	0.166	0.158
-560.515	765.374	0.066	0.180
-559.500	-200.000	-0.055	-0.276
-558.485	55.449	-0.170	-0.165
-557.471	-95.660	-0.193	0.052
-556.456	-1.131	0.129	-0.092
-555.442	-162.378	0.070	-0.004
-554.427	205.396	-0.090	-0.141
-553.412	-57.784	0.100	0.044
-552.398	-200.000	0.095	0.430
-551.383	-60.868	0.200	0.085
-550.369	334.118	-0.105	-0.204
-549.354	-200.000	-0.037	-0.328
-548.339	800.000	-0.162	0.476
-547.325	-41.253	0.100	-0.052
-546.310	679.802	-0.142	-0.372
-545.296	-200.000	-0.037	0.218
-544.281	-200.000	-0.071	0.357
-543.266	249.933	0.078	0.133
-542.252	-200.000	-0.018	-0.168
-541.237	-92.830	-0.035	-0.010
-540.223	407.353	0.061	0.130
-539.208	190.236	-0.159	0.240
-538.193	256.794	-0.195	-0.336
-537.179	156.464	0.120	-0.167
-536.164	-200.000	0.034	0.186
-535.150	-200.000	-0.016	-0.249
-534.135	70.438	0.449	-0.466
-533.121	6.677	-0.027	0.020
-532.106	-33.194	0.199	-0.110
-531.091	767.278	-0.162	-0.442
-530.077	800.000	-0.065	-0.224
-529.062	800.000	-0.048	-0.196
-528.048	-114.951	0.295	0.056
-527.033	-58.388	0.124	-0.054
-526.018	156.611	-0.110	0.153
-525.004	-200.000	0.040	0.181
-523.989	288.380	0.045	0.082
-522.975	800.000	0.104	0.306
-521.960	-200.000	0.007	-0.171
-520.945	-67.452	0.068	-0.027
-519.931	-104.799	-0.156	-0.036
-518.916	-108.189	0.166	0.036
-517.902	-200.000	0.051	-0.379
-516.887	-53.198	-0.162	0.075
-515.872	115.692	0.098	-0.120
-514.858	-200.000	0.014	-0.173
-513.843	-200.000	0.040	0.198
-512.829	55.760	-0.260	0.252
-511.814	-27.703	0.215	-0.125
-510.799	-106.981	0.232	-0.052
-509.785	-53.196	-0.211	-0.097
-508.770	34.396	-0.382	-0.335
-507.756	-22.929	0.133	-0.080
-506.741	-200.000	0.013	-0.137
-505.726	68.689	0.175	0.180
-504.712	-200.000	-0.029	0.329
-503.697	-21.563	0.183	-0.112
-502.683	-200.000	0.005	-0.158
-501.668	-113.442	0.466	-0.092
-500.653	800.000	-0.034	-0.118
-499.639	332.313	0.127	-0.246
-498.624	134.858	-0.189	0.247
-497.610	407.740	0.129	-0.273
-496.595	-200.000	0.024	0.162
-495.581	20.478	0.140	-0.114
-494.566	-85.756	0.131	-0.041
-493.551	-102.118	-0.040	-0.010
-492.537	-124.554	-0.090	-0.014
-491.522	-87.639	-0.082	0.025
-490.508	-199.532	0.276	-0.001
-489.493	-53.958	-0.279	0.127
-488.478	-41.815	-0.271	-0.139
-487.464	-24.235	0.020	0.012
-486.449	-11.385	0.225	0.148
-485.435	-171.611	0.236	-0.008
-484.420	-200.000	-0.050	-0.243
-483.405	241.446	0.189	-0.317
-482.391	-64.558	0.351	-0.143
-481.376	-200.000	0.011	-0.105
-480.362	-69.877	-0.230	0.088
-479.347	800.000	0.073	0.296
-478.332	668.043	-0.046	-0.118
-477.318	132.942	-0.062	0.081
-476.303	-8.041	-0.237	-0.160
-475.289	-0.907	-0.160	-0.114
-474.274	74.859	0.307	0.324
-473.259	402.302	-0.129	-0.272
-472.245	136.412	-0.165	0.216
-471.230	800.000	0.109	0.421
-470.216	32.396	0.059	0.051
-469.201	9.966	-0.028	0.022
-468.186	151.244	-0.183	-0.250
-467.172	-95.733	0.223	-0.060
-466.157	800.000	0.038	-0.144
-465.143	24.996	-0.126	-0.105
-464.128	-200.000	0.059	-0.306
-463.113	-134.952	-0.109	0.013
-462.099	-200.000	-0.051	0.250
-461.084	245.091	-0.166	0.280
-460.070	800.000	0.055	0.183
-459.055	-200.000	-0.011	0.134
-458.040	800.000	0.065	0.285
-457.026	592.389	0.011	-0.028
-456.011	25.085	-0.273	-0.227
-454.997	131.861	0.024	-0.030
-453.982	-14.927	-0.121	-0.078
-452.968	-64.711	-0.204	0.083
-451.953	-77.791	-0.278	-0.096
-450.938	-138.153	-0.281	-0.031
-449.924	321.177	-0.063	0.120
-448.909	-70.891	0.043	-0.016
-447.895	-51.183	0.056	0.026
-446.880	-200.000	-0.011	0.324
-445.865	-200.000	0.029	0.165
-444.851	-98.457	-0.364	-0.093
-443.836	-200.000	0.007	0.047
-442.822	-65.589	-0.226	0.091
-441.807	-92.051	-0.385	-0.109
-440.792	-200.000	0.051	0.271
-439.778	-152.032	-0.130	-0.009
-438.763	-118.335	-0.363	-0.064
-437.749	-25.638	0.143	-0.084
-436.734	-200.000	-0.014	-0.243
-435.719	134.609	0.155	-0.201
-434.705	800.000	-0.081	0.287
-433.690	-200.000	0.055	-0.259
-432.676	-74.683	0.164	0.059
-431.661	-51.604	-0.238	0.111
-430.646	-10.420	-0.167	0.111
-429.632	-176.358	0.412	0.011
-428.617	-200.000	0.017	0.084
-427.603	-141.369	-0.049	-0.005
-426.588	-200.000	0.050	-0.257
-425.573	-101.370	-0.198	-0.048
-424.559	-129.952	0.273	-0.037
-423.544	14.858	-0.255	0.200
-422.530	-200.000	0.021	0.374
-421.515	800.000	-0.092	0.356
-420.500	100.109	0.168	-0.194
-419.486	-8.282	0.263	-0.177
-418.471	-36.948	-0.075	-0.040
-417.457	303.519	0.077	0.143
-416.442	-95.858	0.346	-0.092
-415.428	-167.785	-0.303	-0.012
-414.413	20.832	-0.137	-0.111
-413.398	-200.000	0.010	0.337
-412.384	-6.924	-0.178	-0.121
-411.369	-37.906	0.337	0.179
-410.355	58.362	0.201	-0.197
-409.340	69.242	0.237	0.244
-408.325	180.279	0.052	-0.076
-407.311	-32.055	0.341	0.190
-406.296	46.850	-0.133	-0.124
-405.282	-200.000	-0.027	-0.281
-404.267	472.390	0.044	-0.100
-403.252	-200.000	-0.020	0.203
-402.238	-114.377	0.162	-0.031
-401.223	-131.700	-0.175	-0.023
-400.209	-161.801	-0.323	-0.016
-399.194	-133.851	0.165	0.021
-398.179	105.272	0.279	-0.329
-397.165	-173.022	-0.186	-0.006
-396.150	800.000	-0.017	0.047
-395.136	10.032	0.248	-0.188
-394.121	-63.409	0.363	0.149
-393.106	-17.397	-0.247	0.155
-392.092	71.474	0.200	0.207
-391.077	-72.190	-0.060	-0.022
-390.063	0.687	-0.167	0.119
-389.048	205.168	-0.061	0.094
-388.033	-200.000	0.019	0.152
-387.019	-200.000	0.007	0.179
-386.004	-2.205	-0.317	0.222
-384.990	-200.000	-0.019	0.166
-383.975	482.755	-0.140	-0.317
-382.960	-56.759	-0.322	-0.142
-381.946	-103.324	-0.327	0.077
-380.931	-200.000	0.053	0.235
-379.917	-200.000	0.007	-0.106
-378.902	47.950	-0.182	-0.170
-377.888	200.967	0.128	0.197
-376.873	-100.745	0.294	0.072
-375.858	-95.741	0.102	-0.027
-374.844	190.238	-0.298	0.447
-373.829	11.756	0.269	-0.206
-372.815	800.000	-0.147	-0.427
-371.800	372.553	-0.111	0.225
-370.785	174.745	-0.026	0.038
-369.771	-96.674	-0.217	0.057
-368.756	-131.931	0.245	-0.032
-367.742	800.000	0.050	-0.212
-366.727	37.371	-0.021	-0.018
-365.712	-43.063	-0.161	-0.081
-364.698	4.662	0.101	-0.074
-363.683	800.000	-0.083	-0.353
-362.669	-86.235	0.252	-0.078
-361.654	800.000	0.083	-0.333
-360.639	54.085	0.052	-0.050
-359.625	490.287	-0.072	-0.164
-358.610	-169.103	0.235	-0.009
-357.596	142.745	-0.130	-0.173
-356.581	800.000	-0.099	-0.284
-355.566	-133.216	-0.276	-0.035
-354.552	-168.213	0.206	-0.008
-353.537	4.719	-0.248	0.182
-352.523	-200.000	-0.012	-0.310
-351.508	-20.779	-0.157	-0.096
-350.493	29.513	-0.082	0.070
-349.479	93.737	-0.199	0.224
-348.464	800.000	0.062	0.190
-347.450	-200.000	-0.004	0.308
-346.435	-200.000	-0.003	-0.045
-345.420	-126.414	-0.278	0.041
-344.406	764.935	0.072	-0.194
-343.391	124.729	0.176	0.221
-342.377	216.287	0.120	0.190
-341.362	22.364	-0.211	0.172
-340.348	-36.514	-0.265	-0.142
-339.333	-200.000	-0.005	-0.109
-338.318	152.290	0.232	-0.316
-337.304	290.984	-0.133	0.240
-336.289	378.282	0.021	-0.043
-335.275	81.022	-0.263	-0.283
-334.260	-184.806	0.097	0.002
-333.245	-200.000	0.133	-0.593
-332.231	-24.655	-0.242	-0.144
-331.216	-172.827	-0.264	0.008
-330.202	800.000	-0.065	0.265
-329.187	800.000	0.107	0.300
-328.172	800.000	0.034	-0.114
-327.158	-200.000	-0.008	-0.221
-326.143	800.000	-0.092	0.289
-325.129	800.000	-0.054	-0.196
-324.114	708.633	0.028	-0.075
-323.099	-200.000	-0.003	0.138
-322.085	-163.978	-0.276	0.013
-321.070	-154.281	-0.144	0.010
-320.056	21.329	0.070	0.057
-319.041	251.578	-0.064	-0.108
-318.026	602.415	0.218	0.540
-317.012	-93.076	0.181	-0.050
-315.997	800.000	-0.032	-0.137
-314.983	800.000	-0.062	-0.195
-313.968	200.189	0.096	0.147
-312.953	133.237	0.069	-0.088
-311.939	-128.440	-0.436	0.062
-310.924	9.255	-0.208	-0.157
-309.910	800.000	-0.059	0.199
-308.895	-200.000	-0.025	0.333
-307.880	-129.347	0.223	0.031
-306.866	-53.756	0.108	-0.049
-305.851	559.960	-0.155	0.372
-304.837	-52.785	0.326	-0.149
-303.822	-189.485	-0.226	-0.003
-302.807	-200.000	-0.019	-0.248
-301.793	237.447	0.180	-0.297
-300.778	-74.753	-0.138	-0.049
-299.764	-200.000	-0.015	-0.296
-298.749	81.131	-0.227	-0.244
-297.735	-19.559	0.218	0.135
-296.720	-12.852	-0.155	0.100
-295.705	68.527	-0.070	0.072
-294.691	-200.000	-0.031	0.531
-293.676	-200.000	0.023	0.101
-292.662	-157.160	0.418	0.025
-291.647	454.839	-0.042	-0.093
-290.632	65.561	-0.070	0.070
-289.618	-156.614	0.180	-0.011
-288.603	2.830	0.203	0.147
-287.589	207.379	0.026	-0.040
-286.574	123.617	0.077	0.096
-285.559	256.269	0.066	-0.113
-284.545	36.114	0.103	-0.090
-283.530	9.361	-0.387	-0.291
-282.516	-110.459	0.234	-0.048
-281.501	8.805	0.248	-0.186
-280.486	-200.000	0.021	-0.189
-279.472	380.541	-0.149	-0.304
-278.457	-0.777	-0.039	0.027
-277.443	59.372	-0.161	0.158
-276.428	800.000	0.018	-0.070
-275.413	-200.000	0.063	0.335
-274.399	-200.000	0.015	0.224
-273.384	-167.987	-0.186	-0.007
-272.370	-84.763	0.253	0.079
-271.355	-26.285	0.153	0.089
-270.340	-64.839	-0.400	0.161
-269.326	109.769	-0.158	0.188
-268.311	-10.518	0.126	0.083
-267.297	138.394	0.196	0.255
-266.282	228.482	-0.101	0.163
-265.267	-200.000	-0.027	0.260
-264.253	501.011	0.147	0.336
-263.238	297.674	-0.150	0.274
-262.224	-90.150	0.470	-0.136
-261.209	-101.332	-0.332	0.081
-260.195	-35.433	0.227	0.123
-259.180	-200.000	0.020	-0.150
-258.165	160.561	0.121	-0.168
-257.151	113.565	0.076	-0.092
-256.136	-23.000	0.195	0.117
-255.122	17.984	0.097	-0.077
-254.107	697.274	0.024	0.062
-253.092	-31.544	0.173	-0.096
-252.078	-200.000	0.150	0.666
-251.063	-154.963	0.208	-0.014
-250.049	14.361	0.127	0.098
-249.034	96.896	-0.129	0.147
-248.019	1.838	-0.024	0.017
-247.005	-200.000	-0.021	0.124
-245.990	-3.155	-0.220	-0.152
-244.976	800.000	-0.066	-0.183
-243.961	-18.154	0.356	0.221
-242.946	-72.463	0.344	-0.126
-241.932	-200.000	0.279	0.001
-240.917	126.823	0.159	-0.200
-239.903	-134.806	-0.139	-0.017
-238.888	800.000	0.040	-0.146
-237.873	124.228	0.163	0.204
-236.859	707.823	-0.077	0.203
-235.844	-200.000	0.080	0.380
-234.830	800.000	0.088	0.251
-233.815	-200.000	0.008	-0.154
-232.800	261.938	0.024	-0.041
-231.786	-67.623	0.125	0.049
-230.771	268.109	-0.147	-0.255
-229.757	-53.439	0.069	0.031
-228.742	-89.075	-0.231	0.068
-227.727	109.251	0.125	-0.148
-226.713	-106.604	-0.428	-0.095
-225.698	800.000	-0.010	0.036
-224.684	409.091	0.106	-0.222
-223.669	171.902	0.311	-0.444
-222.655	-13.720	-0.220	-0.141
-221.640	213.183	-0.093	0.146
-220.625	-200.000	0.028	-0.125
-219.611	800.000	-0.036	-0.106
-218.596	268.960	0.137	-0.238
-217.582	97.371	0.125	0.142
-216.567	80.712	-0.352	0.376
-215.552	-66.245	-0.215	-0.085
-214.538	800.000	-0.052	-0.171
-213.523	-88.053	-0.137	0.041
-212.509	-200.000	-0.005	-0.029
-211.494	800.000	-0.063	-0.201
-210.479	294.047	-0.096	-0.173
-209.465	-200.000	0.006	0.041
-208.450	-4.264	-0.059	0.041
-207.436	133.048	0.176	0.226
-206.421	-3.998	0.071	0.049
-205.406	-173.764	-0.270	-0.008
-204.392	704.105	-0.073	0.190
-203.377	40.725	0.195	-0.175
-202.363	-54.351	0.176	-0.079
-201.348	73.357	-0.081	0.084
-200.333	-56.400	-0.090	0.040
-199.319	136.351	-0.121	0.157
-198.304	-70.131	0.266	0.100
-197.290	-37.886	0.093	0.049
-196.275	-116.991	0.439	-0.079
-195.260	-119.969	0.303	-0.052
-194.246	87.918	-0.185	-0.203
-193.231	-200.000	-0.011	0.323
-192.217	-200.000	-0.043	0.270
-191.202	-39.892	0.171	0.089
-190.187	-200.000	-0.008	0.073
-189.173	800.000	0.041	0.127
-188.158	-95.258	0.351	0.094
-187.144	800.000	0.011	0.042
-186.129	-103.238	0.180	0.042
-185.114	247.290	-0.151	0.252
-184.100	177.006	0.138	-0.199
-183.085	-179.709	0.369	0.008
-182.071	-42.919	-0.157	0.079
-181.056	48.102	-0.153	0.142
-180.042	-24.725	0.024	-0.014
-179.027	800.000	0.144	0.438
-178.012	-27.613	0.170	-0.098
-176.998	-64.402	-0.397	0.160
-175.983	-41.220	-0.220	-0.112
-174.969	114.739	-0.194	0.234
-173.954	-10.225	-0.194	0.127
-172.939	41.671	0.057	0.051
-171.925	-19.509	0.336	-0.206
-170.910	-95.945	-0.306	-0.081
-169.896	-104.096	-0.165	-0.038
-168.881	484.449	-0.058	-0.130
-167.866	323.775	-0.114	-0.216
-166.852	-145.923	0.180	-0.016
-165.837	800.000	-0.047	-0.197
-164.823	-200.000	-0.027	-0.229
-163.808	120.901	0.164	-0.201
-162.793	462.738	-0.167	0.369
-161.779	-21.862	-0.068	0.041
-160.764	-151.089	-0.211	-0.016
-159.750	60.247	0.276	0.270
-158.735	-162.355	-0.239	0.012
-157.720	-57.990	-0.154	-0.067
-156.706	800.000	-0.035	0.121
-155.691	-162.286	-0.199	0.010
-154.677	800.000	-0.102	0.346
-153.662	602.727	0.125	-0.308
-152.647	-99.165	0.191	-0.048
-151.633	-138.773	-0.237	-0.026
-150.618	-154.690	-0.223	-0.015
-149.604	158.389	0.187	0.257
-148.589	304.612	-0.211	-0.387
-147.574	242.798	-0.096	0.159
-146.560	-40.911	-0.062	0.031
-145.545	-98.239	0.252	-0.064
-144.531	-200.000	0.057	0.414
-143.516	-200.000	0.011	-0.215
-142.502	-200.000	-0.001	-0.336
-141.487	-159.282	0.116	0.006
-140.472	122.999	0.081	0.100
-139.458	86.520	-0.141	-0.154
-138.443	773.457	0.060	-0.162
-137.429	10.502	-0.072	-0.054
-136.414	16.187	0.401	0.313
-135.399	-109.049	0.108	-0.023
-134.385	62.294	0.102	-0.100
-133.370	151.318	0.203	-0.274
-132.356	33.167	0.272	0.233
-131.341	170.739	0.139	-0.197
-130.326	13.651	-0.317	-0.243
-129.312	120.795	-0.192	-0.236
-128.297	-200.000	0.015	0.104
-127.283	-32.434	0.101	-0.055
-126.268	2.482	-0.346	0.248
-125.253	183.458	-0.086	0.125
-124.239	-200.000	-0.009	-0.186
-123.224	-14.113	0.095	-0.061
-122.210	359.332	0.259	-0.511
-121.195	-29.305	0.025	-0.014
-120.180	-101.996	-0.321	0.076
-119.166	49.843	0.336	-0.313
-118.151	-105.412	0.111	-0.025
-117.137	135.132	-0.249	0.320
-116.122	-200.000	0.022	-0.320
-115.107	345.689	0.183	0.355
-114.093	-30.911	0.291	0.163
-113.078	74.462	0.064	-0.067
-112.064	-28.728	0.024	0.013
-111.049	-105.870	-0.213	0.048
-110.034	-200.000	-0.000	0.043
-109.020	-105.486	0.142	-0.032
-108.005	172.938	-0.136	-0.194
-106.991	130.129	-0.171	-0.216
-105.976	496.115	0.148	0.335
-104.962	197.836	0.053	-0.080
-103.947	264.365	-0.021	-0.036
-102.932	-60.771	-0.377	-0.158
-101.918	403.035	-0.019	-0.039
-100.903	-93.555	-0.206	0.056
-99.889	-99.830	-0.269	-0.067
-98.874	-71.688	0.443	-0.163
-97.859	800.000	-0.083	-0.317
-96.845	431.889	-0.093	0.200
-95.830	-200.000	0.036	-0.291
-94.816	-200.000	0.002	-0.063
-93.801	104.111	-0.053	-0.062
-92.786	-126.361	0.270	-0.040
-91.772	443.265	0.247	-0.533
-90.757	146.284	-0.252	-0.334
-89.743	354.427	0.167	-0.327
-88.728	-125.325	-0.296	-0.045
-87.713	179.963	0.035	-0.050
-86.699	-55.073	0.388	-0.172
-85.684	122.836	0.099	0.123
-84.670	119.028	0.214	-0.262
-83.655	-76.446	0.242	-0.084
-82.640	-200.000	0.001	0.130
-81.626	-63.287	0.364	-0.148
-80.611	-200.000	0.005	-0.156
-79.597	-200.000	0.001	-0.255
-78.582	87.026	0.083	0.091
-77.567	-44.355	0.151	0.075
-76.553	-200.000	-0.035	-0.171
-75.538	-200.000	-0.031	-0.282
-74.524	-200.000	0.047	0.271
-73.509	-116.704	0.051	0.009
-72.494	30.570	-0.265	0.224
-71.480	800.000	0.058	-0.178
-70.465	333.805	0.225	0.430
-69.451	733.517	-0.112	0.297
-68.436	-200.000	0.006	0.189
-67.422	-84.128	0.260	-0.081
-66.407	-200.000	0.015	-0.132
-65.392	-116.500	-0.394	-0.072
-64.378	800.000	0.066	-0.201
-63.363	-200.000	-0.011	-0.258
-62.349	-200.000	-0.007	-0.174
-61.334	35.384	-0.941	-0.813
-60.319	147.168	0.491	0.651
-59.305	800.000	-0.233	-0.856
-58.290	343.925	0.472	0.911
-57.276	481.853	0.808	1.808
-56.261	-200.000	97.558	588.002
-55.246	551.726	1392.312	3293.817
-54.232	153.834	2588.880	3496.230
-53.217	112.965	2177.128	2599.760
-52.203	44.366	1714.406	1550.814
-51.188	37.268	1526.172	1332.026
-50.173	34.775	1499.906	1292.220
-49.159	54.517	1549.554	1471.053
-48.144	57.832	1568.880	1512.100
-47.130	37.747	1524.195	1333.367
-46.115	34.547	1508.564	1297.917
-45.100	34.317	1505.841	1293.960
-44.086	34.276	1504.125	1292.158
-43.071	34.293	1501.904	1290.314
-42.057	34.172	1500.488	1288.230
-41.042	34.274	1499.063	1287.646
-40.027	34.228	1497.946	1286.324
-39.013	34.241	1495.958	1284.653
-37.998	34.212	1494.614	1283.252
-36.984	34.328	1493.438	1282.969
-35.969	34.240	1492.486	1281.509
-34.954	34.253	1490.716	1280.025
-33.940	34.227	1489.387	1278.658
-32.925	34.236	1487.944	1277.430
-31.911	34.291	1486.494	1276.508
-30.896	34.347	1485.359	1275.856
-29.881	34.289	1484.040	1274.284
-28.867	34.350	1483.002	1273.750
-27.852	34.272	1481.563	1271.940
-26.838	34.316	1480.027	1270.864
-25.823	34.215	1478.548	1268.871
-24.809	34.194	1477.210	1267.531
-23.794	34.314	1475.528	1266.836
-22.779	34.263	1474.288	1265.384
-21.765	34.362	1473.086	1264.958
-20.750	34.287	1471.626	1263.156
-19.736	34.345	1471.005	1262.958
-18.721	34.309	1469.897	1261.720
-17.706	34.257	1469.055	1260.600
-16.692	34.239	1467.886	1259.433
-15.677	34.312	1466.819	1258.945
-14.663	34.265	1465.914	1257.808
-13.648	34.297	1464.751	1256.975
-12.633	34.280	1464.063	1256.223
-11.619	34.207	1463.263	1255.004
-10.604	34.111	1462.710	1253.845
-9.590	34.192	1461.704	1253.465
-8.575	34.179	1460.659	1252.438
-7.560	34.145	1460.109	1251.695
-6.546	34.195	1459.315	1251.290
-5.531	34.181	1458.292	1250.273
-4.517	34.235	1456.846	1249.337
-3.502	34.129	1456.854	1248.596
-2.487	34.173	1455.426	1247.614
-1.473	34.249	1453.820	1246.683
-0.458	34.239	1452.863	1245.749
0.556	34.411	1443.294	1234.196
1.571	31.422	1417.537	1193.026
2.586	28.033	1357.218	1121.407
3.600	26.466	1275.536	1044.786
4.615	25.035	1229.512	999.024
5.629	21.398	1172.997	933.640
6.644	11.271	1086.044	814.028
7.659	3.315	1042.421	743.007
8.673	2.203	1036.027	733.050
9.688	1.907	1033.616	729.863
10.702	1.661	1032.001	727.483
11.717	1.700	1030.308	726.410
12.731	5.445	1034.387	747.138
13.746	15.416	1048.783	805.549
14.761	23.081	1058.132	849.636
15.775	24.799	1059.791	859.151
16.790	25.021	1059.296	859.737
17.804	24.921	1057.978	858.113
18.819	24.573	1057.718	856.159
19.834	24.768	1057.043	856.468
20.848	24.874	1056.658	856.587
21.863	24.850	1056.643	856.385
22.877	24.966	1056.377	856.648
23.892	24.861	1055.538	855.392
24.907	24.841	1054.297	854.214
25.921	24.889	1054.045	854.164
26.936	24.854	1052.822	852.931
27.950	24.893	1051.815	852.225
28.965	24.858	1050.803	851.162
29.980	24.693	1049.189	848.998
30.994	24.564	1048.202	847.510
32.009	24.806	1047.794	848.255
33.023	24.914	1046.840	847.917
34.038	24.879	1045.561	846.640
35.053	24.739	1045.189	845.604
36.067	24.929	1044.644	845.988
37.082	24.764	1043.883	844.516
38.096	24.927	1042.966	844.468
39.111	24.999	1042.273	844.169
40.126	25.132	1041.569	844.151
41.140	25.004	1040.742	842.804
42.155	24.907	1038.516	840.472
43.169	24.517	1037.893	838.067
44.184	24.586	1036.806	837.434
45.199	24.415	1036.101	835.989
46.213	24.375	1035.265	835.054
47.228	24.512	1033.722	834.375
48.242	24.605	1033.461	834.528
49.257	24.759	1032.573	834.456
50.271	24.730	1031.979	833.768
51.286	24.815	1031.463	833.670
52.301	24.878	1030.867	833.409
53.315	24.920	1029.818	832.683
54.330	24.996	1028.893	832.216
55.344	24.851	1028.209	830.913
56.359	24.896	1027.269	830.292
57.374	24.868	1026.302	829.303
58.388	24.707	1025.569	827.895
59.403	24.598	1025.074	826.914
60.417	24.664	1024.029	826.306
61.432	24.526	1023.048	824.804
62.447	24.466	1022.709	824.181
63.461	24.635	1022.119	824.410
64.476	24.617	1021.284	823.581
65.490	24.648	1020.389	822.931
66.505	24.431	1019.943	821.500
67.520	24.614	1018.910	821.434
68.534	24.693	1018.281	821.220
69.549	24.368	1017.391	818.938
70.563	24.216	1016.222	817.226
71.578	24.089	1015.304	815.834
72.593	24.248	1014.193	815.597
73.607	23.983	1013.289	813.584
74.622	24.000	1012.732	813.146
75.636	24.313	1011.872	813.812
76.651	24.430	1011.290	813.803
77.666	24.290	1010.615	812.553
78.680	24.311	1009.504	811.679
79.695	24.224	1008.991	810.799
80.709	24.355	1008.474	810.907
81.724	24.478	1007.949	810.976
82.739	24.497	1007.213	810.399
83.753	24.521	1005.842	809.331
84.768	24.752	1005.306	809.875
85.782	25.118	1004.861	811.101
86.797	25.038	1004.738	810.567
87.812	24.992	1003.391	809.201
88.826	24.931	1002.260	807.944
89.841	24.978	1001.914	807.802
90.855	25.133	1001.074	807.755
91.870	25.120	1000.366	807.052
92.884	25.084	999.578	806.185
93.899	25.122	998.083	805.075
94.914	24.874	997.542	803.458
95.928	24.958	997.181	803.470
96.943	25.010	995.648	802.396
97.957	24.784	995.044	800.830
98.972	24.514	993.845	798.583
99.987	24.393	992.468	796.866
101.001	24.420	992.395	796.860
102.016	24.817	991.895	798.161
103.030	24.873	990.810	797.464
104.045	24.720	989.968	796.037
105.060	24.575	988.579	794.202
106.074	24.461	987.696	792.919
107.089	24.429	986.757	791.950
108.103	24.731	986.511	793.025
109.118	24.973	985.654	793.336
110.133	24.575	984.826	790.836
111.147	24.556	983.597	789.698
112.162	24.364	982.200	787.658
113.176	24.291	981.282	786.531
114.191	24.403	980.534	786.355
115.206	24.398	980.164	785.964
116.220	24.233	978.653	783.959
117.235	24.040	977.576	782.181
118.249	24.267	976.842	782.520
119.264	24.185	976.567	781.870
120.279	24.078	975.639	780.588
121.293	24.283	974.457	780.471
122.308	24.324	973.857	780.100
123.322	24.198	973.300	779.035
124.337	24.098	972.431	777.833
125.352	24.188	970.743	776.810
126.366	23.685	969.539	773.585
127.381	23.530	967.725	771.392
128.395	23.888	968.134	773.210
129.410	24.598	967.467	775.691
130.424	24.719	967.056	775.818
131.439	24.749	965.710	774.800
132.454	24.704	964.803	773.810
133.468	24.683	964.168	773.143
134.483	24.683	963.382	772.444
135.497	24.676	962.780	771.860
136.512	24.859	962.050	771.998
137.527	25.033	961.334	772.103
138.541	24.940	960.567	771.020
139.556	25.175	959.551	771.148
140.570	25.049	958.987	770.085
141.585	24.939	958.418	769.088
142.600	25.018	957.726	768.800
143.614	24.929	956.607	767.453
144.629	25.078	955.812	767.387
145.643	25.338	955.571	768.239
146.658	25.277	954.019	766.660
147.673	25.097	952.975	764.985
148.687	24.933	952.082	763.503
149.702	24.853	950.900	762.146
150.716	24.716	950.224	760.954
151.731	24.768	948.639	759.839
152.746	24.795	948.304	759.617
153.760	24.880	948.095	759.744
154.775	25.026	947.417	759.752
155.789	25.160	946.162	759.248
156.804	25.106	945.546	758.455
157.819	25.135	944.368	757.569
158.833	25.035	944.079	756.847
159.848	25.324	942.900	757.051
160.862	25.292	942.276	756.348
161.877	25.113	941.488	754.896
162.892	25.118	940.448	754.018
163.906	25.291	939.559	753.962
164.921	25.168	938.620	752.626
165.935	25.144	937.573	751.623
166.950	25.178	936.542	750.868
167.964	25.153	935.754	750.069
168.979	25.178	934.516	749.113
169.994	25.051	933.600	747.785
171.008	24.799	932.834	746.053
172.023	25.082	932.214	746.668
173.037	25.231	931.079	746.313
174.052	25.023	929.919	744.456
175.067	24.935	928.652	743.009
176.081	24.824	928.195	742.120
177.096	24.896	927.490	741.788
178.110	25.037	926.410	741.440
179.125	24.685	925.849	739.470
180.140	24.538	924.577	737.782
181.154	24.588	923.812	737.310
182.169	24.661	923.779	737.522
183.183	24.745	923.508	737.588
184.198	25.059	923.335	738.680
185.213	24.949	922.427	737.434
186.227	24.938	921.748	736.781
187.242	25.108	921.112	736.905
188.256	25.144	920.678	736.640
189.271	25.076	919.804	735.597
190.286	25.265	919.079	735.728
191.300	25.058	917.848	733.830
192.315	24.496	916.887	730.698
193.329	23.694	914.897	725.769
194.344	23.424	913.744	723.689
195.359	24.042	914.092	726.423
196.373	24.848	914.595	730.048
197.388	25.073	914.328	730.689
198.402	25.141	913.494	730.234
199.417	25.020	912.717	729.056
200.432	25.041	912.737	729.092
201.446	24.970	911.635	727.860
202.461	24.581	910.794	725.545
203.475	24.724	910.470	725.804
204.490	24.250	909.067	722.696
205.504	23.186	906.876	716.586
206.519	23.536	906.634	717.748
207.534	24.546	907.259	722.264
208.548	24.528	906.862	721.813
209.563	24.952	906.137	722.885
210.577	24.970	905.743	722.577
211.592	24.727	904.782	720.767
212.607	25.194	904.718	722.534
213.621	25.302	904.071	722.389
214.636	25.033	903.416	720.722
215.650	25.246	903.074	721.241
216.665	25.045	902.159	719.639
217.680	25.180	901.964	719.961
218.694	25.255	901.657	719.955
219.709	24.954	900.527	717.783
220.723	24.595	899.702	715.624
221.738	24.829	899.030	715.962
222.753	24.946	898.656	716.067
223.767	24.974	897.941	715.545
224.782	25.245	896.719	715.592
225.796	25.078	897.041	715.119
226.811	25.386	896.047	715.489
227.826	24.983	894.646	712.703
228.840	24.079	893.435	708.082
229.855	23.953	892.818	707.029
230.869	24.328	892.272	708.024
231.884	23.935	891.753	705.991
232.899	23.900	890.723	704.975
233.913	24.859	891.064	708.981
234.928	24.875	890.666	708.665
235.942	24.905	890.252	708.394
236.957	25.027	889.128	707.916
237.972	24.614	888.222	705.503
238.986	24.456	887.830	704.506
240.001	24.695	887.103	704.811
241.015	24.588	886.609	703.934
242.030	24.714	886.023	703.903
243.045	24.958	885.331	704.248
244.059	24.973	885.075	704.041
245.074	25.135	884.452	704.121
246.088	25.157	883.619	703.479
247.103	24.800	882.678	701.270
248.117	24.648	882.387	700.382
249.132	25.412	882.072	703.062
250.147	25.703	882.084	704.149
251.161	25.803	881.500	704.011
252.176	26.027	880.917	704.356
253.190	25.778	880.544	703.023
254.205	25.909	880.212	703.206
255.220	26.174	879.526	703.629
256.234	26.011	878.968	702.487
257.249	25.968	878.373	701.783
258.263	25.666	878.034	700.273
259.278	25.913	877.240	700.538
260.293	25.851	876.789	699.875
261.307	25.888	876.244	699.521
262.322	25.869	875.573	698.851
263.336	25.789	874.726	697.803
264.351	25.247	873.574	694.724
265.366	24.364	871.094	689.279
266.380	23.726	870.533	686.311
267.395	24.635	871.065	690.185
268.409	25.403	871.176	693.176
269.424	25.370	870.463	692.420
270.439	25.555	870.279	692.923
271.453	25.781	869.230	692.897
272.468	25.638	868.591	691.776
273.482	25.940	868.203	692.568
274.497	26.040	867.763	692.539
275.512	25.835	866.970	691.056
276.526	25.327	865.473	687.856
277.541	25.475	865.257	688.193
278.555	25.799	864.884	689.074
279.570	25.625	864.244	687.840
280.585	25.461	863.390	686.471
281.599	25.414	863.650	686.439
282.614	25.663	863.022	686.829
283.628	25.161	861.897	683.960
284.643	24.694	861.335	681.672
285.657	25.156	861.344	683.379
286.672	25.144	860.033	682.234
287.687	24.638	859.314	679.678
288.701	25.091	858.982	681.079
289.716	25.308	859.249	682.054
290.730	24.998	858.013	679.837
291.745	24.956	857.028	678.836
292.760	24.801	855.916	677.308
293.774	24.573	856.036	676.482
294.789	25.513	856.327	680.208
295.803	26.252	856.028	682.707
296.818	26.168	855.746	682.104
297.833	26.343	855.366	682.402
298.847	26.026	854.089	680.125
299.862	25.632	853.027	677.738
300.876	25.884	852.943	678.558
301.891	26.153	852.605	679.240
302.906	26.267	851.929	679.072
303.920	25.937	850.866	676.925
304.935	25.679	850.209	675.374
305.949	26.021	850.545	676.865
306.964	26.227	849.617	676.839
307.979	26.073	848.646	675.429
308.993	25.914	848.403	674.579
310.008	26.283	848.069	675.635
311.022	26.431	847.897	675.991
312.037	26.282	846.965	674.633
313.052	26.069	846.327	673.272
314.066	26.110	845.261	672.515
315.081	25.097	844.408	668.004
316.095	24.545	843.013	664.787
317.110	25.060	842.942	666.588
318.125	25.798	843.468	669.690
319.139	25.421	842.549	667.501
320.154	24.476	840.745	662.510
321.168	23.813	839.996	659.403
322.183	24.445	840.020	661.705
323.197	25.375	840.445	665.428
324.212	25.756	840.144	666.542
325.227	25.775	840.090	666.512
326.241	26.076	839.438	667.048
327.256	26.062	838.536	666.222
328.270	25.797	837.849	664.637
329.285	25.653	837.647	663.887
330.300	25.550	836.775	662.759
331.314	25.326	836.053	661.304
332.329	25.358	835.241	660.719
333.343	25.906	834.746	662.285
334.358	26.055	834.789	662.806
335.373	26.139	834.207	662.593
336.387	26.135	833.538	661.988
337.402	26.302	833.505	662.517
338.416	26.603	832.719	662.935
339.431	26.538	832.359	662.355
340.446	26.455	831.744	661.503
341.460	26.590	831.423	661.683
342.475	26.680	830.737	661.406
343.489	26.575	829.880	660.282
344.504	26.493	829.544	659.655
345.519	26.649	828.983	659.720
346.533	26.897	828.980	660.564
347.548	26.968	828.563	660.431
348.562	26.986	828.252	660.188
349.577	26.875	827.633	659.236
350.592	26.965	826.592	658.675
351.606	26.794	826.637	658.029
352.621	26.843	825.919	657.579
353.635	26.573	825.610	656.294
354.650	26.532	824.968	655.581
355.665	26.333	823.984	654.019
356.679	25.354	822.121	648.945
357.694	25.259	821.598	648.133
358.708	25.925	821.613	650.490
359.723	25.807	821.133	649.628
360.738	26.098	820.850	650.394
361.752	26.684	820.896	652.485
362.767	26.409	821.078	651.584
363.781	26.889	820.300	652.635
364.796	27.188	820.131	653.517
365.810	27.278	819.748	653.479
366.825	27.299	819.249	653.096
367.840	27.303	819.364	653.147
368.854	27.106	818.588	651.763
369.869	26.743	817.580	649.600
370.883	26.586	816.893	648.436
371.898	26.770	815.871	648.224
372.913	26.579	815.456	647.157
373.927	26.740	814.946	647.270
374.942	26.714	814.662	646.894
375.956	26.913	813.746	646.817
376.971	27.033	813.472	646.970
377.986	27.028	813.327	646.781
379.000	27.219	812.915	647.076
380.015	27.094	812.603	646.326
381.029	27.106	811.206	645.198
382.044	27.042	810.994	644.746
383.059	27.098	810.602	644.577
384.073	27.366	809.829	644.853
385.088	27.237	809.600	644.159
386.102	27.210	808.898	643.446
387.117	27.099	808.235	642.468
388.132	27.020	807.424	641.491
389.146	26.678	807.266	640.101
390.161	26.224	806.234	637.620
391.175	26.246	805.658	637.189
392.190	26.850	806.224	639.708
393.205	26.842	805.295	638.889
394.219	25.777	803.818	633.913
395.234	24.249	801.212	626.438
396.248	23.491	800.072	622.827
397.263	24.458	800.771	626.712
398.278	26.286	802.658	634.563
399.292	26.940	802.599	636.754
400.307	26.601	801.617	634.732
401.321	26.574	801.116	634.184
402.336	26.460	801.283	633.861
403.350	26.779	801.098	634.776
404.365	27.105	800.678	635.527
405.380	27.607	800.524	637.104
406.394	27.684	800.387	637.207
407.409	27.953	800.021	637.797
408.423	27.920	799.451	637.174
409.438	27.842	798.857	636.370
410.453	27.970	798.281	636.301
411.467	28.053	798.110	636.397
412.482	27.995	797.332	635.520
413.496	27.767	797.086	634.476
414.511	27.894	796.404	634.317
415.526	27.980	796.140	634.348
416.540	27.944	795.822	633.914
417.555	27.862	795.403	633.239
418.569	27.502	794.368	631.111
419.584	27.570	793.879	630.904
420.599	27.618	793.843	630.986
421.613	109.206	1281.462	1448.252
422.628	93.989	1352.500	1448.359
