DTS Sentinel unit serial number:	SN413079Multiplexer serial number:	ORYXHardware model number:	OX4-SRSoftware version number:	ORYX F/W v4.00 Oryx Data Collector v3.7.2.0data status	okinstallation	princeton_trtdifferential loss correction	single-endedforward channel	channel 3reverse channel	N/Adate	2019/09/11time	05:22:11forward acquisition time	60.00reverse acquisition time	0.00gamma	496.2192k internal	0.2330k external	0.2330temperature offset calibration	0.9907default loss term (dB/km)	0.3790temperature slope calibration	1.0000multiplexer offset coefficient	1.0000multiplexer slope coefficient	1.0000fibre end	0.00T internal ref (°C)	29.44T ext. ref 1 (°C)	-0.25T ext. ref 2 (°C)	23.48length (m)	temperature (°C)	Stokes	anti-Stokes-747.200	800.000	-0.026	0.112
-746.185	-73.489	0.180	0.066
-745.171	399.652	-0.223	-0.470
-744.156	-98.864	0.203	-0.052
-743.142	576.510	-0.158	-0.389
-742.127	152.210	-0.059	0.081
-741.112	30.365	0.047	0.040
-740.098	-164.351	-0.156	-0.007
-739.083	-21.164	0.227	-0.140
-738.069	298.451	0.089	0.165
-737.054	22.847	0.240	0.198
-736.039	158.348	0.113	0.157
-735.025	-165.094	0.318	-0.014
-734.010	-86.442	0.172	-0.053
-732.996	-106.404	-0.378	-0.085
-731.981	128.292	0.143	0.183
-730.966	-200.000	-0.048	-0.330
-729.952	-61.198	-0.088	-0.037
-728.937	-51.241	-0.116	-0.055
-727.923	31.203	0.319	0.275
-726.908	64.417	0.085	0.087
-725.894	-76.075	-0.321	0.114
-724.879	-146.952	0.128	-0.011
-723.864	8.019	-0.167	0.126
-722.850	-52.740	-0.080	0.037
-721.835	190.043	0.035	0.052
-720.821	194.607	0.074	-0.113
-719.806	24.926	0.110	-0.092
-718.791	-200.000	-0.013	0.072
-717.777	-200.000	-0.007	-0.142
-716.762	-120.000	-0.069	-0.012
-715.748	-195.932	0.244	0.002
-714.733	24.299	-0.144	-0.120
-713.718	160.091	-0.068	0.096
-712.704	800.000	0.031	0.132
-711.689	-21.171	-0.113	-0.069
-710.675	29.002	0.136	-0.116
-709.660	112.849	0.048	0.058
-708.645	-200.000	0.002	0.188
-707.631	81.297	0.037	-0.040
-706.616	266.141	0.091	0.159
-705.602	-170.815	-0.188	0.006
-704.587	21.524	-0.397	0.325
-703.572	219.855	0.095	0.153
-702.558	210.844	0.128	-0.202
-701.543	800.000	-0.093	-0.301
-700.529	87.963	0.049	-0.055
-699.514	-15.591	-0.238	0.153
-698.499	437.978	0.195	0.427
-697.485	-87.772	0.223	-0.067
-696.470	111.905	0.063	-0.076
-695.456	-200.000	0.049	0.460
-694.441	12.788	-0.488	-0.379
-693.426	-200.000	0.031	0.169
-692.412	-120.110	-0.229	-0.039
-691.397	-200.000	0.023	0.149
-690.383	84.164	-0.233	-0.256
-689.368	-127.613	0.283	0.041
-688.354	50.040	-0.085	-0.081
-687.339	578.071	0.070	-0.171
-686.324	800.000	0.056	-0.206
-685.310	-200.000	0.155	0.001
-684.295	-2.228	-0.183	-0.129
-683.281	-200.000	-0.018	0.101
-682.266	17.812	-0.044	0.036
-681.251	-39.986	0.114	0.060
-680.237	-123.559	0.185	0.029
-679.222	800.000	0.096	-0.392
-678.208	145.679	-0.172	-0.232
-677.193	-120.851	0.221	-0.037
-676.178	-200.000	0.013	-0.230
-675.164	-154.111	-0.091	0.006
-674.149	800.000	-0.204	-0.609
-673.135	117.594	-0.249	-0.308
-672.120	-82.517	-0.316	-0.103
-671.105	232.639	0.153	0.253
-670.091	167.430	-0.236	-0.337
-669.076	-37.435	-0.320	0.172
-668.062	-97.861	-0.303	-0.079
-667.047	-40.633	0.198	0.103
-666.032	88.556	0.158	-0.177
-665.018	-8.096	0.154	-0.104
-664.003	-98.074	-0.182	-0.047
-662.989	-76.151	0.097	-0.034
-661.974	-200.000	-0.052	-0.281
-660.959	354.268	-0.042	-0.083
-659.945	-200.000	-0.047	-0.252
-658.930	92.801	-0.083	0.095
-657.916	-51.314	-0.077	0.036
-656.901	-60.136	-0.072	-0.031
-655.886	-52.171	0.150	0.070
-654.872	800.000	-0.034	0.112
-653.857	105.488	-0.151	-0.179
-652.843	-200.000	0.017	-0.160
-651.828	-6.589	-0.244	-0.166
-650.814	11.785	0.099	-0.077
-649.799	-200.000	0.007	-0.216
-648.784	-9.187	-0.283	-0.190
-647.770	-163.505	-0.245	0.012
-646.755	-138.338	0.116	-0.013
-645.741	365.963	-0.211	0.427
-644.726	177.988	0.126	-0.185
-643.711	-200.000	-0.057	-0.266
-642.697	65.193	-0.226	0.229
-641.682	-200.000	-0.055	0.255
-640.668	-200.000	-0.005	-0.041
-639.653	84.148	0.095	0.104
-638.638	-200.000	-0.005	-0.097
-637.624	-200.000	0.041	-0.346
-636.609	103.636	-0.112	-0.132
-635.595	-182.051	-0.303	-0.006
-634.580	-127.399	0.126	0.018
-633.565	-85.759	0.279	0.087
-632.551	11.260	-0.186	-0.142
-631.536	625.372	-0.039	0.099
-630.522	-200.000	0.026	0.204
-629.507	-54.089	0.236	-0.108
-628.492	-63.130	-0.231	0.095
-627.478	235.004	0.114	0.189
-626.463	-144.145	-0.213	-0.020
-625.449	-200.000	0.021	-0.324
-624.434	62.688	-0.056	0.056
-623.419	-200.000	0.012	-0.067
-622.405	-75.363	0.253	-0.090
-621.390	-77.337	0.300	-0.104
-620.376	-57.135	0.453	-0.200
-619.361	800.000	0.081	-0.294
-618.346	88.072	-0.169	-0.187
-617.332	-200.000	-0.011	-0.185
-616.317	-68.815	-0.257	0.099
-615.303	97.744	-0.349	-0.402
-614.288	-200.000	0.068	0.370
-613.273	800.000	0.097	-0.280
-612.259	-191.740	-0.131	0.001
-611.244	-6.459	0.195	0.133
-610.230	-200.000	-0.024	0.294
-609.215	-112.251	0.298	-0.060
-608.201	-2.085	-0.147	-0.103
-607.186	800.000	-0.023	0.066
-606.171	112.522	-0.135	0.164
-605.157	634.487	-0.062	0.156
-604.142	9.529	-0.257	0.195
-603.128	110.820	0.148	-0.178
-602.113	-171.905	-0.315	-0.010
-601.098	330.327	-0.056	-0.107
-600.084	800.000	-0.062	0.247
-599.069	-80.554	-0.375	-0.125
-598.055	800.000	0.070	-0.239
-597.040	-22.432	0.150	-0.091
-596.025	-200.000	-0.004	0.090
-595.011	-56.572	0.318	0.141
-593.996	668.857	-0.092	0.239
-592.982	-68.136	0.178	0.069
-591.967	-200.000	0.045	-0.302
-590.952	161.634	0.185	-0.259
-589.938	-111.616	-0.205	0.042
-588.923	-150.612	0.356	0.027
-587.909	800.000	-0.057	-0.170
-586.894	-71.356	0.159	-0.060
-585.879	-62.172	-0.228	0.095
-584.865	149.000	0.140	0.189
-583.850	-110.889	-0.259	0.053
-582.836	800.000	0.041	-0.132
-581.821	-143.554	0.336	-0.032
-580.806	-200.000	-0.048	0.766
-579.792	-200.000	-0.000	0.141
-578.777	-147.017	-0.252	-0.022
-577.763	-117.368	0.223	-0.040
-576.748	89.639	-0.163	0.181
-575.733	124.383	0.223	-0.281
-574.719	119.605	0.080	-0.099
-573.704	153.350	-0.100	-0.137
-572.690	112.411	-0.255	0.308
-571.675	371.851	-0.011	-0.022
-570.661	800.000	0.102	-0.331
-569.646	389.457	0.117	-0.242
-568.631	-146.968	-0.050	-0.004
-567.617	315.878	0.036	0.067
-566.602	144.076	-0.125	0.167
-565.588	-200.000	0.004	-0.123
-564.573	606.816	0.069	0.171
-563.558	37.382	-0.075	0.066
-562.544	800.000	0.086	0.331
-561.529	171.171	-0.042	0.060
-560.515	771.450	0.089	0.243
-559.500	78.026	-0.171	0.182
-558.485	-124.745	-0.167	0.026
-557.471	-174.036	-0.128	-0.004
-556.456	800.000	0.107	-0.340
-555.442	-200.000	0.048	0.346
-554.427	112.836	-0.050	-0.060
-553.412	-166.836	-0.275	-0.011
-552.398	-49.898	-0.183	0.087
-551.383	21.050	-0.125	-0.101
-550.369	-147.739	-0.095	-0.008
-549.354	-128.738	-0.230	-0.032
-548.339	-124.630	0.412	-0.064
-547.325	373.807	-0.067	0.135
-546.310	30.504	-0.178	-0.152
-545.296	-39.105	-0.187	-0.098
-544.281	-189.606	0.095	0.001
-543.266	360.855	-0.119	0.238
-542.252	-56.908	0.298	-0.131
-541.237	-21.283	0.141	-0.086
-540.223	580.844	-0.121	0.295
-539.208	13.128	0.159	-0.123
-538.193	291.591	0.179	-0.326
-537.179	-22.672	-0.234	-0.141
-536.164	800.000	0.043	0.134
-535.150	-200.000	0.007	0.220
-534.135	558.122	-0.086	-0.207
-533.121	23.236	0.181	-0.149
-532.106	242.956	-0.125	-0.209
-531.091	-200.000	-0.009	-0.059
-530.077	-143.024	0.064	0.006
-529.062	-168.926	-0.116	-0.004
-528.048	-42.212	-0.313	-0.160
-527.033	-199.728	-0.330	-0.002
-526.018	-200.000	-0.008	0.042
-525.004	-200.000	0.004	-0.208
-523.989	24.123	0.084	-0.069
-522.975	-72.915	-0.066	-0.024
-521.960	472.528	0.131	0.295
-520.945	-84.474	0.099	-0.031
-519.931	20.937	-0.220	-0.178
-518.916	46.546	0.116	-0.107
-517.902	800.000	-0.042	0.122
-516.887	-90.681	-0.096	0.028
-515.872	215.216	0.032	-0.050
-514.858	438.878	-0.082	-0.179
-513.843	523.641	-0.177	-0.415
-512.829	426.586	0.211	0.455
-511.814	-200.000	0.014	0.066
-510.799	95.735	-0.171	-0.194
-509.785	-200.000	0.005	0.086
-508.770	-45.589	0.328	0.162
-507.756	-200.000	-0.007	-0.279
-506.741	-200.000	0.005	-0.178
-505.726	127.206	-0.115	-0.145
-504.712	24.621	-0.291	-0.240
-503.697	53.223	0.200	0.191
-502.683	63.914	-0.194	-0.195
-501.668	800.000	-0.024	0.085
-500.653	-27.655	0.049	-0.028
-499.639	-55.030	-0.046	-0.020
-498.624	-200.000	0.012	0.099
-497.610	800.000	-0.099	-0.400
-496.595	-200.000	0.048	0.241
-495.581	800.000	0.113	0.411
-494.566	-94.624	0.185	-0.050
-493.551	-200.000	-0.002	-0.055
-492.537	800.000	-0.022	0.061
-491.522	-25.725	-0.186	-0.109
-490.508	-87.531	0.243	-0.073
-489.493	-89.243	-0.563	0.166
-488.478	-152.517	0.573	-0.041
-487.464	-5.142	-0.100	0.069
-486.449	-12.665	-0.316	-0.206
-485.435	-200.000	-0.020	0.249
-484.420	623.558	0.150	0.376
-483.405	361.566	0.040	-0.080
-482.391	285.299	0.129	-0.232
-481.376	108.206	-0.132	-0.157
-480.362	357.536	-0.046	-0.091
-479.347	-30.613	-0.173	-0.098
-478.332	-200.000	-0.026	0.190
-477.318	-51.805	0.012	0.006
-476.303	800.000	0.021	0.083
-475.289	-28.471	-0.041	-0.023
-474.274	-159.337	0.145	-0.008
-473.259	800.000	0.042	-0.155
-472.245	542.804	0.104	0.248
-471.230	81.274	-0.209	0.225
-470.216	-90.817	-0.224	0.064
-469.201	84.707	0.237	0.259
-468.186	-35.741	0.304	0.164
-467.172	60.025	0.186	-0.183
-466.157	-44.171	-0.309	-0.154
-465.143	309.285	0.068	0.127
-464.128	27.801	-0.248	-0.208
-463.113	-51.021	-0.103	-0.048
-462.099	-22.413	-0.291	0.176
-461.084	-38.334	0.263	0.138
-460.070	35.095	0.051	0.045
-459.055	165.721	0.106	-0.149
-458.040	65.858	-0.149	-0.150
-457.026	800.000	0.065	0.220
-456.011	800.000	-0.064	-0.191
-454.997	-14.702	-0.093	-0.059
-453.982	108.599	0.081	-0.096
-452.968	-25.745	0.167	0.098
-451.953	-13.818	0.172	-0.110
-450.938	-32.303	-0.133	-0.074
-449.924	-200.000	0.023	0.265
-448.909	-121.494	-0.061	0.010
-447.895	-98.988	0.138	0.035
-446.880	44.798	0.088	0.081
-445.865	-44.522	-0.138	-0.069
-444.851	253.358	0.072	-0.123
-443.836	-41.447	0.150	0.077
-442.822	28.052	0.168	-0.141
-441.807	-157.330	-0.212	0.013
-440.792	3.393	0.182	-0.132
-439.778	-200.000	-0.005	0.088
-438.763	255.841	0.082	0.140
-437.749	254.116	-0.092	0.156
-436.734	10.722	0.045	-0.034
-435.719	-50.744	0.162	0.076
-434.705	230.686	-0.168	-0.273
-433.690	-66.624	0.252	-0.099
-432.676	438.943	0.046	0.100
-431.661	-56.032	0.035	-0.015
-430.646	-200.000	0.019	-0.133
-429.632	41.923	-0.233	-0.210
-428.617	800.000	-0.088	0.370
-427.603	-75.237	0.136	-0.048
-426.588	-200.000	-0.003	-0.111
-425.573	381.805	0.087	0.178
-424.559	-113.594	-0.314	-0.061
-423.544	-22.068	0.044	-0.027
-422.530	-72.225	0.120	0.044
-421.515	-76.878	-0.218	-0.076
-420.500	-178.191	-0.402	0.009
-419.486	-200.000	-0.004	-0.091
-418.471	-45.075	-0.390	-0.193
-417.457	-200.000	0.008	0.106
-416.442	-127.214	-0.159	0.023
-415.428	-70.750	0.273	-0.103
-414.413	800.000	-0.058	0.192
-413.398	461.100	0.052	-0.115
-412.384	449.878	0.069	0.151
-411.369	-108.949	0.169	0.036
-410.355	213.735	0.098	0.154
-409.340	-94.032	-0.110	-0.030
-408.325	-101.832	-0.046	-0.011
-407.311	12.638	-0.156	-0.120
-406.296	-80.668	-0.180	0.059
-405.282	-174.427	0.311	0.009
-404.267	-200.000	-0.019	0.239
-403.252	3.625	0.060	0.043
-402.238	-99.818	0.106	-0.026
-401.223	800.000	-0.031	0.088
-400.209	-200.000	0.044	0.307
-399.194	-105.658	-0.218	0.049
-398.179	88.302	-0.104	-0.115
-397.165	606.227	0.078	-0.194
-396.150	800.000	-0.017	-0.065
-395.136	-99.495	0.177	-0.044
-394.121	-119.632	0.204	0.035
-393.106	-60.961	0.172	-0.072
-392.092	565.919	0.124	0.299
-391.077	-44.066	0.304	-0.152
-390.063	165.187	-0.086	0.121
-389.048	-58.898	0.380	0.163
-388.033	800.000	-0.114	-0.330
-387.019	-100.723	0.069	-0.017
-386.004	-62.080	0.113	-0.047
-384.990	-200.000	0.018	0.138
-383.975	115.868	-0.163	0.198
-382.960	78.058	0.107	-0.113
-381.946	-44.792	0.480	0.237
-380.931	-200.000	0.025	0.154
-379.917	-7.693	0.242	-0.162
-378.902	0.878	-0.034	-0.024
-377.888	415.818	-0.066	0.140
-376.873	-47.946	0.069	0.033
-375.858	-66.929	0.245	0.096
-374.844	34.042	-0.099	0.086
-373.829	-146.982	-0.350	0.030
-372.815	-124.287	0.088	-0.014
-371.800	-1.611	0.103	-0.072
-370.785	768.312	-0.049	-0.133
-369.771	217.608	-0.074	-0.117
-368.756	469.696	-0.023	0.052
-367.742	-200.000	-0.048	-0.326
-366.727	-55.505	0.199	0.088
-365.712	107.282	-0.093	0.109
-364.698	-148.498	0.148	0.012
-363.683	-118.900	-0.169	-0.030
-362.669	-200.000	-0.033	-0.143
-361.654	66.910	-0.107	-0.108
-360.639	-62.710	-0.010	0.004
-359.625	-96.900	0.313	-0.081
-358.610	650.161	-0.116	-0.296
-357.596	-49.222	0.264	-0.125
-356.581	-84.878	0.360	0.112
-355.566	222.503	-0.068	-0.108
-354.552	-200.000	0.053	-0.285
-353.537	-65.423	-0.055	-0.022
-352.523	-187.546	-0.487	-0.006
-351.508	38.525	0.251	-0.222
-350.493	800.000	-0.016	-0.054
-349.479	-200.000	0.054	0.258
-348.464	44.770	-0.176	0.160
-347.450	-200.000	-0.003	0.080
-346.435	15.217	0.236	-0.184
-345.420	-200.000	0.045	-0.226
-344.406	800.000	0.065	-0.193
-343.391	106.301	-0.011	0.013
-342.377	-200.000	0.065	-0.341
-341.362	-191.698	0.055	-0.001
-340.348	-200.000	0.031	-0.182
-339.333	8.781	-0.214	-0.159
-338.318	-113.393	0.099	-0.019
-337.304	78.499	-0.079	-0.084
-336.289	14.395	-0.223	0.173
-335.275	-142.283	0.266	-0.026
-334.260	583.295	0.104	-0.253
-333.245	132.673	-0.028	-0.036
-332.231	7.125	-0.179	-0.132
-331.216	-4.542	-0.245	-0.168
-330.202	-14.230	-0.186	0.119
-329.187	68.171	0.092	0.094
-328.172	9.439	-0.106	-0.080
-327.158	-13.040	-0.234	-0.151
-326.143	-167.941	-0.190	0.007
-325.129	800.000	0.089	-0.266
-324.114	-188.677	0.033	0.000
-323.099	331.016	0.142	-0.271
-322.085	58.873	0.071	-0.069
-321.070	-57.318	0.123	-0.054
-320.056	-200.000	-0.043	-0.438
-319.041	216.846	-0.091	-0.144
-318.026	-187.249	-0.284	0.004
-317.012	-60.694	0.203	0.085
-315.997	-200.000	0.051	0.239
-314.983	-19.778	-0.199	-0.122
-313.968	29.336	0.314	-0.264
-312.953	800.000	0.049	-0.171
-311.939	30.862	0.226	-0.192
-310.924	-105.687	-0.144	-0.032
-309.910	-200.000	0.016	-0.207
-308.895	-200.000	0.002	0.052
-307.880	800.000	0.114	0.384
-306.866	-200.000	-0.024	0.325
-305.851	-7.595	0.258	0.173
-304.837	-200.000	-0.010	0.291
-303.822	800.000	0.054	0.216
-302.807	800.000	-0.038	-0.109
-301.793	-200.000	0.000	0.077
-300.778	73.477	0.082	0.085
-299.764	-28.587	-0.236	0.135
-298.749	-144.524	-0.097	-0.009
-297.735	84.467	0.034	0.037
-296.720	-24.745	0.166	0.097
-295.705	-142.649	0.269	-0.026
-294.691	43.264	0.048	0.043
-293.676	-25.582	-0.399	0.233
-292.662	800.000	0.023	0.067
-291.647	-2.500	-0.127	0.088
-290.632	-26.080	-0.469	-0.273
-289.618	-12.483	0.256	-0.165
-288.603	-147.019	0.337	0.029
-287.589	800.000	-0.110	0.313
-286.574	-200.000	0.034	0.499
-285.559	-135.174	-0.275	-0.033
-284.545	59.761	0.191	-0.186
-283.530	41.522	0.181	-0.162
-282.516	800.000	-0.087	-0.290
-281.501	-10.946	-0.182	0.118
-280.486	-200.000	0.017	-0.325
-279.472	-200.000	0.023	0.144
-278.457	-64.185	0.047	0.019
-277.443	-147.389	0.066	-0.006
-276.428	587.629	-0.016	0.039
-275.413	-98.715	0.241	0.061
-274.399	-136.679	0.049	-0.006
-273.384	229.082	-0.015	-0.024
-272.370	-200.000	0.027	0.253
-271.355	-93.573	-0.396	0.108
-270.340	-200.000	-0.032	0.194
-269.326	-52.406	0.246	0.113
-268.311	-156.007	0.473	0.030
-267.297	800.000	0.045	-0.170
-266.282	96.966	-0.265	0.300
-265.267	-122.611	-0.102	-0.016
-264.253	672.975	0.137	0.351
-263.238	-10.459	0.114	0.075
-262.224	-34.940	0.288	-0.155
-261.209	-90.063	-0.191	-0.055
-260.195	800.000	-0.057	-0.218
-259.180	-125.856	-0.110	-0.016
-258.165	-200.000	0.002	0.036
-257.151	12.628	-0.234	-0.179
-256.136	24.569	0.195	-0.159
-255.122	-154.521	0.255	-0.017
-254.107	6.476	-0.289	-0.212
-253.092	24.586	0.166	-0.135
-252.078	-81.420	0.045	0.015
-251.063	800.000	-0.016	0.058
-250.049	800.000	-0.052	0.176
-249.034	-16.942	0.233	0.145
-248.019	679.247	-0.094	-0.242
-247.005	-67.149	-0.220	0.086
-245.990	-166.334	-0.185	-0.008
-244.976	786.167	0.080	0.216
-243.961	-54.999	-0.229	-0.102
-242.946	-16.503	-0.108	0.068
-241.932	-200.000	0.042	-0.229
-240.917	96.599	0.234	0.264
-239.903	-200.000	0.036	0.162
-238.888	14.269	0.245	0.188
-237.873	306.666	0.059	-0.109
-236.859	350.928	0.074	-0.145
-235.844	-200.000	-0.015	0.339
-234.830	233.426	0.084	-0.136
-233.815	65.756	-0.093	0.093
-232.800	-95.007	-0.102	-0.027
-231.786	-200.000	-0.017	0.188
-230.771	-200.000	0.013	-0.125
-229.757	-79.155	-0.181	0.061
-228.742	-37.410	-0.259	-0.137
-227.727	800.000	-0.055	-0.164
-226.713	-101.540	0.066	0.016
-225.698	44.136	-0.278	0.251
-224.684	800.000	0.080	0.289
-223.669	129.788	-0.070	0.088
-222.655	-200.000	0.440	-0.000
-221.640	-90.103	0.234	0.067
-220.625	152.177	-0.202	-0.272
-219.611	-77.177	0.168	0.058
-218.596	-55.700	0.106	-0.047
-217.582	-72.217	-0.229	-0.084
-216.567	1.899	-0.073	-0.052
-215.552	4.669	-0.259	0.187
-214.538	175.579	-0.079	-0.113
-213.523	-200.000	-0.001	0.253
-212.509	-200.000	-0.045	0.493
-211.494	-53.241	0.355	0.161
-210.479	-130.653	-0.356	-0.047
-209.465	-40.255	-0.648	0.332
-208.450	-58.883	0.237	-0.101
-207.436	-176.350	0.112	0.003
-206.421	-34.588	-0.209	-0.113
-205.406	-47.733	0.107	0.051
-204.392	34.163	-0.244	0.210
-203.377	8.912	0.203	-0.151
-202.363	-59.030	0.231	0.098
-201.348	-123.385	0.220	0.035
-200.333	92.895	-0.035	0.039
-199.319	-60.592	0.251	0.105
-198.304	-82.365	0.577	0.185
-197.290	-22.796	-0.054	0.032
-196.275	16.473	-0.301	-0.234
-195.260	-200.000	-0.008	-0.240
-194.246	-112.088	-0.241	0.048
-193.231	182.513	0.139	0.201
-192.217	-70.483	-0.119	0.044
-191.202	-200.000	0.037	0.290
-190.187	-200.000	-0.018	0.099
-189.173	62.248	-0.062	0.061
-188.158	800.000	-0.113	-0.440
-187.144	-47.634	-0.095	-0.046
-186.129	-147.178	0.133	-0.011
-185.114	-107.712	-0.245	0.053
-184.100	111.317	0.006	-0.007
-183.085	-55.778	-0.123	-0.054
-182.071	33.567	-0.141	0.121
-181.056	800.000	-0.020	-0.085
-180.042	-13.172	0.144	-0.092
-179.027	800.000	-0.081	0.320
-178.012	-141.881	0.188	0.019
-176.998	800.000	-0.106	0.312
-175.983	-8.570	0.020	-0.013
-174.969	14.510	-0.272	-0.209
-173.954	62.891	0.103	0.102
-172.939	209.491	-0.083	-0.128
-171.925	800.000	0.167	0.487
-170.910	611.019	0.066	-0.161
-169.896	179.680	-0.100	0.144
-168.881	-172.593	0.471	0.015
-167.866	49.448	0.119	0.110
-166.852	-78.294	-0.412	0.139
-165.837	585.972	-0.165	0.398
-164.823	83.132	0.104	0.111
-163.808	30.742	-0.222	-0.187
-162.793	-162.988	-0.063	0.003
-161.779	-91.831	0.205	0.057
-160.764	0.193	0.132	-0.093
-159.750	-200.000	-0.044	0.192
-158.735	800.000	0.053	0.222
-157.720	-200.000	-0.014	0.118
-156.706	-81.617	0.300	-0.097
-155.691	265.406	0.111	-0.190
-154.677	273.766	-0.265	-0.462
-153.662	-2.147	0.251	-0.173
-152.647	102.058	0.123	-0.141
-151.633	-59.933	0.239	-0.100
-150.618	-200.000	0.044	-0.223
-149.604	-200.000	-0.026	0.164
-148.589	58.378	-0.118	0.114
-147.574	-117.609	0.191	-0.034
-146.560	-83.125	0.111	-0.035
-145.545	147.030	-0.191	0.253
-144.531	800.000	0.124	-0.338
-143.516	800.000	0.080	-0.267
-142.502	22.747	-0.217	0.175
-141.487	-0.185	0.231	0.162
-140.472	40.423	0.099	0.087
-139.458	-200.000	-0.034	-0.288
-138.443	-200.000	0.055	-0.356
-137.429	-48.885	0.221	-0.104
-136.414	-36.579	-0.257	0.136
-135.399	654.416	-0.024	0.061
-134.385	-50.809	0.309	0.143
-133.370	-200.000	-0.041	0.206
-132.356	343.934	0.097	-0.187
-131.341	-93.790	0.138	-0.037
-130.326	8.296	-0.220	-0.163
-129.312	94.085	0.175	0.196
-128.297	-9.109	-0.270	-0.177
-127.283	-200.000	0.016	0.342
-126.268	4.481	-0.106	0.077
-125.253	-98.651	-0.301	-0.075
-124.239	-97.828	0.251	0.064
-123.224	2.306	0.223	0.159
-122.210	-20.257	-0.121	0.073
-121.195	-200.000	-0.001	0.314
-120.180	-200.000	0.012	-0.103
-119.166	-200.000	0.011	-0.051
-118.151	-200.000	0.046	-0.543
-117.137	-157.085	0.284	-0.017
-116.122	-50.458	-0.220	0.102
-115.107	68.541	0.067	-0.068
-114.093	20.688	0.068	-0.054
-113.078	-52.644	-0.179	0.081
-112.064	120.761	-0.184	-0.224
-111.049	634.773	0.088	-0.219
-110.034	-48.432	0.490	0.232
-109.020	18.099	-0.051	-0.040
-108.005	262.793	0.106	0.181
-106.991	-35.661	0.278	0.148
-105.976	77.468	-0.033	0.035
-104.962	-200.000	-0.088	0.385
-103.947	-137.625	0.148	0.016
-102.932	800.000	0.028	-0.098
-101.918	-89.634	0.125	-0.036
-100.903	-93.584	-0.057	0.016
-99.889	-38.536	0.206	0.107
-98.874	220.531	0.142	-0.223
-97.859	-92.096	0.306	0.085
-96.845	5.615	0.123	0.089
-95.830	-46.872	-0.023	-0.011
-94.816	-53.296	0.462	-0.208
-93.801	-79.426	0.238	-0.079
-92.786	-200.000	0.005	0.111
-91.772	34.474	-0.056	0.048
-90.757	452.448	-0.071	0.153
-89.743	-77.507	0.358	0.122
-88.728	55.419	0.082	-0.077
-87.713	77.890	-0.117	-0.123
-86.699	-60.238	-0.167	-0.070
-85.684	660.439	-0.086	0.218
-84.670	31.150	-0.331	0.279
-83.655	-200.000	0.030	-0.399
-82.640	-44.752	-0.124	-0.060
-81.626	800.000	-0.038	0.159
-80.611	292.790	-0.014	0.026
-79.597	213.077	0.052	0.080
-78.582	36.722	0.091	-0.079
-77.567	311.877	0.087	0.160
-76.553	-101.989	-0.247	-0.059
-75.538	181.245	-0.062	0.089
-74.524	210.672	-0.065	-0.100
-73.509	341.493	0.108	0.207
-72.494	319.924	0.199	0.370
-71.480	617.400	0.063	0.156
-70.465	-200.000	-0.014	-0.109
-69.451	-200.000	-0.005	-0.254
-68.436	-200.000	0.021	-0.184
-67.422	40.670	0.010	0.009
-66.407	-92.918	-0.487	-0.133
-65.392	-200.000	-0.053	-0.277
-64.378	-119.892	0.331	-0.056
-63.363	-200.000	0.014	-0.239
-62.349	125.187	-0.258	-0.319
-61.334	136.049	-0.860	-1.098
-60.319	1.869	0.719	0.508
-59.305	800.000	-0.309	-1.178
-58.290	80.177	0.878	0.926
-57.276	800.000	0.471	1.378
-56.261	-200.000	106.030	614.963
-55.246	508.066	1508.779	3432.388
-54.232	176.031	2702.361	3843.985
-53.217	110.825	2186.427	2577.993
-52.203	40.166	1705.771	1502.719
-51.188	32.530	1515.983	1283.663
-50.173	30.176	1489.676	1245.549
-49.159	51.442	1545.292	1438.172
-48.144	51.628	1562.116	1455.040
-47.130	32.746	1517.406	1286.142
-46.115	29.672	1502.945	1253.027
-45.100	29.586	1498.959	1249.077
-44.086	29.433	1497.181	1246.512
-43.071	29.379	1495.144	1244.397
-42.057	29.429	1493.059	1242.949
-41.042	29.379	1492.488	1242.086
-40.027	29.538	1490.448	1241.414
-39.013	29.381	1489.246	1239.305
-37.998	29.328	1488.042	1237.899
-36.984	29.361	1486.665	1236.924
-35.969	29.365	1485.199	1235.688
-34.954	29.374	1483.646	1234.408
-33.940	29.400	1482.265	1233.382
-32.925	29.430	1480.747	1232.270
-31.911	29.390	1479.604	1230.998
-30.896	29.546	1477.864	1230.542
-29.881	29.427	1477.316	1229.245
-28.867	29.460	1476.265	1228.541
-27.852	29.473	1474.373	1227.006
-26.838	29.585	1472.701	1226.309
-25.823	29.516	1471.193	1224.547
-24.809	29.560	1469.714	1223.561
-23.794	29.519	1468.395	1222.142
-22.779	29.466	1467.477	1220.978
-21.765	29.447	1466.605	1220.079
-20.750	29.511	1465.297	1219.367
-19.736	29.466	1463.938	1217.886
-18.721	29.481	1463.196	1217.324
-17.706	29.544	1461.349	1216.155
-16.692	29.512	1460.601	1215.270
-15.677	29.427	1459.814	1214.009
-14.663	29.434	1458.542	1212.947
-13.648	29.371	1457.773	1211.849
-12.633	29.419	1456.868	1211.364
-11.619	29.398	1455.878	1210.355
-10.604	29.382	1455.154	1209.600
-9.590	29.368	1454.817	1209.178
-8.575	29.498	1453.784	1209.124
-7.560	29.470	1452.667	1207.961
-6.546	29.407	1451.830	1206.806
-5.531	29.386	1451.210	1206.102
-4.517	29.310	1450.223	1204.739
-3.502	29.324	1449.182	1203.922
-2.487	29.479	1447.368	1203.378
-1.473	29.384	1447.122	1202.507
-0.458	29.422	1445.612	1201.447
0.556	27.027	1436.080	1190.875
1.571	24.166	1410.484	1151.093
2.586	20.821	1353.248	1083.512
3.600	19.404	1271.836	1009.947
4.615	18.208	1227.471	967.867
5.629	16.100	1173.406	913.744
6.644	8.207	1089.358	808.365
7.659	1.163	1048.728	743.688
8.673	-0.169	1043.508	733.421
9.688	-0.183	1039.789	730.672
10.702	-0.364	1038.268	728.659
11.717	-0.303	1036.563	727.693
12.731	3.012	1040.120	746.243
13.746	11.711	1052.664	797.770
14.761	18.566	1061.349	837.889
15.775	20.476	1063.600	848.934
16.790	20.760	1063.150	849.883
17.804	20.680	1062.081	848.566
18.819	20.356	1061.318	846.301
19.834	20.541	1060.489	846.467
20.848	20.628	1060.588	846.894
21.863	20.735	1060.132	846.976
22.877	20.805	1059.470	846.711
23.892	20.670	1058.759	845.412
24.907	20.661	1057.852	844.570
25.921	20.656	1057.760	844.395
26.936	20.619	1056.767	843.350
27.950	20.538	1055.189	841.622
28.965	20.627	1054.392	841.343
29.980	20.589	1052.186	839.325
30.994	20.523	1051.077	838.052
32.009	20.748	1049.997	838.198
33.023	20.853	1049.252	838.035
34.038	20.684	1047.890	836.060
35.053	20.616	1047.268	835.166
36.067	20.742	1046.335	834.947
37.082	20.773	1046.248	834.955
38.096	20.619	1045.445	833.504
39.111	20.753	1044.891	833.629
40.126	21.055	1043.043	833.525
41.140	20.990	1041.914	832.240
42.155	20.550	1040.570	828.994
43.169	20.286	1039.304	826.655
44.184	20.290	1038.272	825.779
45.199	20.475	1037.149	825.691
46.213	20.301	1036.225	824.054
47.228	20.256	1035.260	823.004
48.242	20.360	1034.638	822.931
49.257	20.583	1033.749	823.205
50.271	20.555	1033.215	822.575
51.286	20.648	1032.421	822.310
52.301	20.815	1031.340	822.163
53.315	20.844	1030.514	821.567
54.330	20.762	1030.018	820.714
55.344	20.639	1029.603	819.732
56.359	20.741	1028.286	819.092
57.374	20.699	1027.457	818.163
58.388	20.529	1026.321	816.385
59.403	20.533	1025.447	815.638
60.417	20.515	1024.987	815.113
61.432	20.436	1023.614	813.582
62.447	20.413	1023.287	813.140
63.461	20.611	1022.558	813.415
64.476	20.640	1021.861	812.925
65.490	20.537	1020.834	811.556
66.505	20.461	1019.713	810.237
67.520	20.525	1019.384	810.204
68.534	20.660	1018.326	809.919
69.549	20.415	1017.619	808.145
70.563	20.092	1016.434	805.631
71.578	19.954	1015.511	804.187
72.593	20.171	1014.493	804.316
73.607	19.910	1013.416	802.182
74.622	19.961	1012.504	801.623
75.636	20.258	1011.942	802.485
76.651	20.407	1011.102	802.433
77.666	20.150	1010.282	800.529
78.680	20.250	1009.242	800.092
79.695	20.194	1009.146	799.687
80.709	20.146	1009.032	799.305
81.724	20.445	1007.404	799.320
82.739	20.420	1006.319	798.275
83.753	20.253	1005.662	796.915
84.768	20.610	1004.708	797.726
85.782	20.764	1004.709	798.365
86.797	20.886	1003.779	798.111
87.812	20.950	1003.270	797.932
88.826	20.874	1001.510	796.112
89.841	20.794	1001.054	795.313
90.855	20.829	1000.563	795.012
91.870	20.963	999.329	794.572
92.884	20.925	998.714	793.843
93.899	20.860	997.895	792.823
94.914	20.775	996.814	791.509
95.928	20.850	995.867	791.027
96.943	20.867	994.858	790.231
97.957	20.649	994.148	788.613
98.972	20.401	993.228	786.687
99.987	20.166	991.731	784.368
101.001	20.267	991.470	784.550
102.016	20.460	990.457	784.553
103.030	20.567	990.020	784.621
104.045	20.682	988.053	783.508
105.060	20.416	987.131	781.512
106.074	20.262	985.966	779.828
107.089	20.324	985.647	779.787
108.103	20.725	985.099	781.082
109.118	20.653	984.310	780.064
110.133	20.376	983.073	777.777
111.147	20.355	982.063	776.814
112.162	20.507	980.379	776.093
113.176	20.236	979.383	774.026
114.191	20.223	978.981	773.582
115.206	20.477	977.733	773.658
116.220	20.069	977.288	771.421
117.235	19.929	975.913	769.646
118.249	20.239	975.078	770.294
119.264	20.111	974.687	769.349
120.279	20.168	973.203	768.361
121.293	20.108	972.716	767.643
122.308	20.177	972.502	767.716
123.322	20.138	971.419	766.618
124.337	20.189	969.851	765.536
125.352	20.090	968.438	763.918
126.366	19.582	967.413	760.807
127.381	19.420	965.526	758.540
128.395	19.996	965.268	760.802
129.410	20.560	965.012	763.009
130.424	20.681	964.171	762.811
131.439	20.644	963.029	761.677
132.454	20.672	961.978	760.901
133.468	20.670	960.699	759.811
134.483	20.540	960.043	758.660
135.497	20.512	959.700	758.198
136.512	20.813	958.715	758.666
137.527	20.803	958.124	758.085
138.541	20.910	957.144	757.707
139.556	20.745	956.444	756.371
140.570	20.820	955.722	756.059
141.585	20.863	954.601	755.289
142.600	20.898	954.046	754.936
143.614	20.934	952.446	753.760
144.629	20.893	952.516	753.570
145.643	21.177	951.945	754.278
146.658	20.988	950.701	752.412
147.673	20.895	949.296	750.833
148.687	20.814	948.036	749.421
149.702	20.716	947.041	748.145
150.716	20.694	945.919	747.098
151.731	20.746	945.124	746.627
152.746	20.659	944.469	745.674
153.760	20.884	944.164	746.329
154.775	20.963	943.166	745.813
155.789	21.110	942.604	745.929
156.804	20.960	941.492	744.346
157.819	21.031	940.184	743.547
158.833	20.936	939.573	742.594
159.848	21.128	938.582	742.559
160.862	21.126	938.140	742.138
161.877	21.142	936.532	740.868
162.892	20.991	936.180	739.882
163.906	21.037	935.730	739.659
164.921	20.983	934.416	738.324
165.935	21.029	933.026	737.355
166.950	21.000	932.450	736.711
167.964	21.213	931.226	736.580
168.979	21.003	930.229	734.840
169.994	20.758	929.621	733.263
171.008	20.901	927.895	732.439
172.023	21.029	927.626	732.698
173.037	21.192	926.779	732.647
174.052	20.885	925.826	730.546
175.067	20.769	924.794	729.177
176.081	20.809	924.118	728.749
177.096	20.819	923.412	728.171
178.110	20.871	922.216	727.378
179.125	20.687	921.625	726.081
180.140	20.403	920.068	723.605
181.154	20.479	919.816	723.659
182.169	20.497	919.802	723.660
183.183	20.748	919.136	724.116
184.198	21.063	918.635	724.966
185.213	21.028	917.836	724.127
186.227	20.849	917.198	722.816
187.242	21.006	916.923	723.188
188.256	21.192	915.450	722.731
189.271	21.123	914.968	722.001
190.286	21.019	914.623	721.235
191.300	20.956	913.532	720.051
192.315	20.534	911.913	716.970
193.329	19.683	910.643	712.403
194.344	19.375	909.550	710.216
195.359	20.050	909.833	713.153
196.373	20.727	910.006	716.011
197.388	20.975	909.599	716.650
198.402	20.905	909.037	715.856
199.417	20.715	908.442	714.544
200.432	20.878	907.767	714.616
201.446	20.619	907.386	713.193
202.461	20.432	906.168	711.407
203.475	20.500	905.775	711.313
204.490	19.998	904.410	708.127
205.504	18.973	902.122	702.091
206.519	19.373	902.174	703.699
207.534	20.271	902.738	707.744
208.548	20.572	902.012	708.338
209.563	20.921	901.480	709.277
210.577	20.770	900.921	708.161
211.592	20.564	899.970	706.516
212.607	21.064	899.861	708.399
213.621	21.067	899.366	707.956
214.636	21.060	898.586	707.254
215.650	21.031	898.082	706.677
216.665	21.128	897.271	706.368
217.680	21.024	896.984	705.658
218.694	21.185	896.229	705.651
219.709	20.851	895.360	703.555
220.723	20.392	894.758	701.170
221.738	20.636	894.144	701.612
222.753	20.913	893.581	702.221
223.767	20.826	892.644	701.073
224.782	20.965	891.950	701.026
225.796	21.013	891.719	700.977
226.811	21.138	891.094	700.923
227.826	20.669	890.025	698.141
228.840	19.962	888.396	693.968
229.855	19.990	887.824	693.571
230.869	20.152	887.467	693.878
231.884	19.881	886.299	691.822
232.899	19.904	885.749	691.424
233.913	20.657	886.410	694.887
234.928	20.849	885.675	695.015
235.942	20.816	884.692	694.053
236.957	20.828	884.159	693.619
237.972	20.618	883.294	692.041
238.986	20.474	882.364	690.681
240.001	20.628	882.162	691.073
241.015	20.611	881.442	690.382
242.030	20.662	880.781	690.006
243.045	20.740	880.459	690.001
244.059	20.882	879.831	690.009
245.074	21.106	879.172	690.318
246.088	21.099	878.600	689.781
247.103	20.571	877.666	686.900
248.117	20.707	877.002	686.856
249.132	21.220	876.870	688.716
250.147	21.494	876.778	689.662
251.161	21.484	876.450	689.303
252.176	21.670	875.839	689.494
253.190	21.609	874.949	688.492
254.205	21.582	874.908	688.295
255.220	21.951	874.289	689.196
256.234	21.752	873.616	687.823
257.249	21.684	872.768	686.829
258.263	21.573	872.072	685.784
259.278	21.600	871.620	685.473
260.293	21.768	871.056	685.626
261.307	21.836	870.577	685.456
262.322	21.600	869.885	683.929
263.336	21.566	869.034	683.066
264.351	21.019	867.779	679.888
265.366	19.938	865.290	673.673
266.380	19.723	864.562	672.210
267.395	20.474	865.046	675.447
268.409	21.299	865.016	678.572
269.424	21.310	864.123	677.852
270.439	21.333	864.100	677.862
271.453	21.581	863.312	678.147
272.468	21.578	862.595	677.512
273.482	21.672	862.660	677.867
274.497	21.738	862.165	677.674
275.512	21.625	860.562	675.917
276.526	20.979	859.637	672.641
277.541	21.197	859.583	673.379
278.555	21.536	859.664	674.690
279.570	21.471	858.254	673.272
280.585	21.223	857.405	671.593
281.599	21.428	856.458	671.580
282.614	21.423	856.627	671.635
283.628	20.982	855.490	668.991
284.643	20.581	854.797	666.854
285.657	21.148	854.452	668.698
286.672	21.032	853.829	667.707
287.687	20.409	852.812	664.470
288.701	20.759	852.830	665.762
289.716	21.114	852.572	666.858
290.730	20.988	851.251	665.285
291.745	20.747	850.949	664.071
292.760	20.697	849.706	662.855
293.774	20.642	849.135	662.139
294.789	21.484	849.602	665.651
295.803	22.174	849.835	668.399
296.818	22.139	849.396	667.861
297.833	22.206	848.407	667.279
298.847	21.972	847.453	665.584
299.862	21.721	846.035	663.459
300.876	21.790	846.028	663.658
301.891	22.022	845.955	664.417
302.906	22.149	845.251	664.286
303.920	21.695	844.215	661.701
304.935	21.618	843.549	660.827
305.949	21.911	843.438	661.790
306.964	22.080	842.720	661.805
307.979	21.856	842.352	660.613
308.993	21.721	842.001	659.773
310.008	22.143	841.671	661.040
311.022	22.199	841.309	660.908
312.037	22.109	840.339	659.750
313.052	21.858	839.618	658.186
314.066	21.781	839.149	657.471
315.081	21.271	837.218	653.990
316.095	20.362	836.843	650.235
317.110	20.942	836.882	652.380
318.125	21.818	836.617	655.392
319.139	21.234	835.979	652.653
320.154	20.080	834.314	646.990
321.168	19.826	833.353	645.238
322.183	20.560	833.601	648.112
323.197	21.322	834.131	651.306
324.212	21.408	833.929	651.413
325.227	21.774	833.173	652.128
326.241	21.909	832.285	651.876
327.256	21.736	831.987	650.940
328.270	21.757	831.163	650.316
329.285	21.732	830.549	649.686
330.300	21.635	829.604	648.532
331.314	21.241	829.172	646.678
332.329	21.406	828.376	646.607
333.343	21.915	827.803	647.983
334.358	22.078	827.692	648.441
335.373	21.964	827.222	647.595
336.387	21.997	826.579	647.158
337.402	22.237	826.247	647.725
338.416	22.353	826.117	647.992
339.431	22.278	825.412	647.107
340.446	22.265	825.070	646.734
341.460	22.610	824.609	647.581
342.475	22.409	823.977	646.291
343.489	22.171	823.324	644.848
344.504	22.341	822.333	644.637
345.519	22.555	822.464	645.466
346.533	22.690	822.146	645.654
347.548	22.578	821.565	644.732
348.562	22.708	821.212	644.873
349.577	22.790	820.215	644.333
350.592	22.716	819.729	643.624
351.606	22.625	819.426	642.997
352.621	22.702	819.078	642.949
353.635	22.708	818.152	642.187
354.650	22.411	817.958	640.895
355.665	22.197	817.069	639.365
356.679	21.125	815.673	634.320
357.694	21.050	814.779	633.297
358.708	21.689	814.882	635.640
359.723	21.640	814.203	634.878
360.738	21.896	814.073	635.649
361.752	22.300	813.827	636.862
362.767	22.364	813.401	636.705
363.781	22.706	813.636	638.068
364.796	22.935	812.991	638.334
365.810	23.020	812.666	638.329
366.825	23.014	812.100	637.807
367.840	23.150	811.777	637.987
368.854	22.771	811.337	636.217
369.869	22.435	810.370	634.193
370.883	22.462	809.546	633.588
371.898	22.490	809.216	633.377
372.913	22.434	808.450	632.518
373.927	22.387	807.824	631.806
374.942	22.648	806.909	631.970
375.956	22.674	806.811	631.929
376.971	22.611	806.528	631.428
377.986	22.956	805.686	631.946
379.000	22.860	805.639	631.508
380.015	22.890	804.886	630.972
381.029	22.829	804.452	630.358
382.044	22.757	803.871	629.589
383.059	23.049	803.019	629.908
384.073	23.002	802.995	629.663
385.088	22.927	802.631	629.055
386.102	23.018	801.983	628.814
387.117	22.812	801.007	627.264
388.132	22.754	800.391	626.521
389.146	22.802	799.462	625.908
390.161	22.104	798.926	622.958
391.175	22.169	798.466	622.773
392.190	22.759	798.689	624.983
393.205	22.591	798.304	624.031
394.219	21.705	796.475	619.417
395.234	20.227	794.107	612.308
396.248	19.493	792.948	608.772
397.263	20.656	794.063	613.678
398.278	22.365	795.389	620.682
399.292	22.538	795.440	621.277
400.307	22.469	794.356	620.133
401.321	22.280	794.469	619.498
402.336	22.342	793.965	619.271
403.350	22.723	793.859	620.473
404.365	23.059	793.672	621.451
405.380	23.371	793.579	622.420
406.394	23.579	793.189	622.791
407.409	23.867	792.630	623.307
408.423	23.734	792.094	622.364
409.438	23.612	791.496	621.410
410.453	23.626	791.278	621.234
411.467	23.627	790.935	620.913
412.482	23.699	790.284	620.599
413.496	23.589	789.765	619.752
414.511	23.853	789.498	620.409
415.526	23.592	789.165	619.182
416.540	23.761	788.588	619.266
417.555	23.580	788.176	618.255
418.569	23.275	787.410	616.537
419.584	23.208	786.969	615.906
420.599	23.363	786.341	615.898
421.613	156.873	1365.186	1797.635
422.628	135.686	1449.529	1797.739
