DTS Sentinel unit serial number:	SN413079Multiplexer serial number:	ORYXHardware model number:	OX4-SRSoftware version number:	ORYX F/W v4.00 Oryx Data Collector v3.7.2.0data status	okinstallation	princeton_trtdifferential loss correction	single-endedforward channel	channel 3reverse channel	N/Adate	2019/09/10time	18:54:11forward acquisition time	60.00reverse acquisition time	0.00gamma	496.2192k internal	0.2312k external	0.2312temperature offset calibration	0.9914default loss term (dB/km)	0.3790temperature slope calibration	1.0000multiplexer offset coefficient	1.0000multiplexer slope coefficient	1.0000fibre end	0.00T internal ref (°C)	34.83T ext. ref 1 (°C)	-0.38T ext. ref 2 (°C)	27.02length (m)	temperature (°C)	Stokes	anti-Stokes-747.200	295.436	-0.082	0.152
-746.185	147.551	-0.212	0.291
-745.171	-39.418	-0.110	-0.058
-744.156	170.678	0.126	0.183
-743.142	-80.332	-0.154	-0.052
-742.127	103.747	0.091	-0.109
-741.112	36.221	-0.081	0.072
-740.098	-200.000	-0.024	0.659
-739.083	800.000	-0.029	-0.095
-738.069	43.189	-0.127	0.118
-737.054	-9.834	-0.125	0.085
-736.039	-91.018	-0.163	0.047
-735.025	-97.627	-0.112	-0.029
-734.010	-200.000	-0.019	0.236
-732.996	-174.597	-0.110	-0.003
-731.981	-139.799	0.336	0.036
-730.966	-2.682	0.148	0.105
-729.952	647.650	-0.020	0.051
-728.937	-86.873	0.120	-0.037
-727.923	-50.036	-0.383	-0.184
-726.908	374.988	-0.080	-0.164
-725.894	-90.015	0.039	0.012
-724.879	-94.002	0.233	0.065
-723.864	-80.160	-0.551	0.187
-722.850	28.735	-0.154	-0.132
-721.835	18.779	-0.387	-0.314
-720.821	19.653	-0.282	0.230
-719.806	-33.439	0.159	0.089
-718.791	-160.412	-0.075	-0.004
-717.777	-19.024	0.071	-0.045
-716.762	-1.469	0.165	-0.118
-715.748	-65.508	-0.163	0.066
-714.733	-198.760	-0.118	-0.001
-713.718	-71.841	0.211	0.080
-712.704	-200.000	-0.032	-0.202
-711.689	-25.122	-0.232	-0.139
-710.675	-44.480	0.182	-0.092
-709.660	-125.495	0.087	0.013
-708.645	-83.269	-0.206	0.067
-707.631	-138.988	0.254	-0.028
-706.616	257.056	-0.056	-0.098
-705.602	-77.363	-0.162	0.057
-704.587	110.935	-0.091	0.110
-703.572	-0.202	-0.233	0.168
-702.558	-78.055	0.158	-0.055
-701.543	-180.473	-0.324	0.007
-700.529	35.035	0.240	0.213
-699.514	-6.377	0.084	0.058
-698.499	800.000	0.092	-0.280
-697.485	221.346	0.112	-0.183
-696.470	-70.238	-0.279	-0.107
-695.456	170.364	0.064	0.093
-694.441	800.000	0.104	0.441
-693.426	-22.716	0.222	-0.136
-692.412	-13.307	0.205	0.135
-691.397	-93.095	-0.369	-0.104
-690.383	-200.000	0.006	0.028
-689.368	-157.835	0.361	-0.022
-688.354	171.690	-0.137	-0.199
-687.339	28.150	0.252	-0.215
-686.324	-157.986	0.322	-0.019
-685.310	112.407	-0.242	0.296
-684.295	-63.395	-0.395	-0.164
-683.281	-68.732	0.235	-0.092
-682.266	-113.420	-0.524	-0.104
-681.251	42.132	0.201	0.185
-680.237	616.722	-0.043	-0.109
-679.222	-172.828	0.137	-0.004
-678.208	-30.431	-0.207	-0.119
-677.193	-50.223	0.234	-0.112
-676.178	112.755	0.225	0.275
-675.164	-11.317	0.138	-0.092
-674.149	-200.000	0.029	-0.296
-673.135	93.564	-0.182	0.208
-672.120	-3.980	-0.232	0.163
-671.105	240.827	-0.098	0.166
-670.091	-42.034	0.216	-0.112
-669.076	88.527	0.171	-0.192
-668.062	800.000	-0.041	-0.144
-667.047	-151.428	0.515	-0.039
-666.032	800.000	-0.079	-0.302
-665.018	136.604	-0.160	-0.212
-664.003	166.104	0.171	-0.245
-662.989	278.097	-0.097	-0.175
-661.974	-200.000	-0.055	-0.286
-660.959	-111.571	0.091	-0.019
-659.945	-107.698	0.245	0.054
-658.930	-62.603	-0.073	0.031
-657.916	-200.000	0.002	-0.188
-656.901	385.808	0.108	-0.225
-655.886	62.347	-0.231	0.234
-654.872	800.000	0.051	0.148
-653.857	-177.152	0.203	0.005
-652.843	-200.000	-0.002	0.158
-651.828	-200.000	-0.012	-0.271
-650.814	2.516	0.352	0.258
-649.799	227.162	-0.106	0.174
-648.784	-200.000	-0.018	0.119
-647.770	-200.000	-0.009	0.074
-646.755	-94.469	-0.265	0.073
-645.741	-135.615	0.139	-0.017
-644.726	-151.965	-0.247	0.018
-643.711	-200.000	-0.020	-0.627
-642.697	800.000	-0.038	-0.112
-641.682	800.000	0.120	-0.399
-640.668	-72.718	-0.209	0.078
-639.653	59.602	-0.136	-0.136
-638.638	7.535	-0.359	0.272
-637.624	-166.826	-0.173	-0.007
-636.609	-31.916	0.094	-0.053
-635.595	-200.000	0.008	0.305
-634.580	-118.649	0.185	0.033
-633.565	-182.944	0.127	-0.002
-632.551	-144.653	0.209	-0.019
-631.536	45.577	0.267	-0.249
-630.522	-53.620	-0.122	-0.056
-629.507	-69.812	0.093	-0.036
-628.492	-9.021	-0.166	0.112
-627.478	9.354	0.261	-0.199
-626.463	-200.000	-0.045	-0.206
-625.449	-41.636	0.165	-0.086
-624.434	250.195	-0.134	-0.230
-623.419	800.000	-0.162	-0.488
-622.405	90.966	0.083	-0.094
-621.390	-36.628	-0.317	-0.172
-620.376	-18.817	-0.145	-0.091
-619.361	166.856	-0.031	0.044
-618.346	800.000	-0.032	-0.136
-617.332	95.007	-0.153	-0.176
-616.317	65.615	0.073	-0.075
-615.303	120.038	0.136	0.171
-614.288	252.588	0.102	-0.176
-613.273	-37.533	-0.176	-0.095
-612.259	-24.963	0.163	-0.098
-611.244	386.376	-0.078	-0.163
-610.230	-3.781	0.274	-0.192
-609.215	9.442	0.363	-0.277
-608.201	329.795	-0.196	0.380
-607.186	-200.000	-0.043	0.441
-606.171	-94.544	-0.249	-0.068
-605.157	259.486	0.133	0.232
-604.142	800.000	0.093	-0.348
-603.128	-51.706	-0.043	0.020
-602.113	-141.295	-0.425	-0.044
-601.098	800.000	-0.016	0.047
-600.084	800.000	-0.008	-0.036
-599.069	-200.000	-0.001	-0.254
-598.055	326.266	0.070	0.136
-597.040	26.035	-0.187	0.157
-596.025	-190.904	-0.157	-0.002
-595.011	-72.313	-0.289	0.108
-593.996	-180.376	-0.239	0.005
-592.982	103.554	-0.224	-0.265
-591.967	308.869	-0.149	-0.280
-590.952	-200.000	0.013	-0.231
-589.938	69.953	0.066	-0.069
-588.923	15.480	-0.104	0.082
-587.909	37.463	0.109	0.097
-586.894	-144.560	0.248	0.023
-585.879	800.000	-0.104	-0.367
-584.865	-7.122	0.056	-0.039
-583.850	-40.356	-0.423	0.222
-582.836	164.487	-0.054	0.077
-581.821	176.091	0.099	-0.144
-580.806	-69.369	-0.527	-0.204
-579.792	284.913	0.159	-0.288
-578.777	620.063	-0.098	-0.248
-577.763	171.893	0.014	-0.020
-576.748	-27.509	-0.181	0.106
-575.733	330.962	-0.090	-0.176
-574.719	-85.646	-0.258	-0.081
-573.704	-72.414	-0.170	-0.063
-572.690	-200.000	-0.021	0.229
-571.675	-20.581	-0.159	-0.098
-570.661	127.615	0.201	0.257
-569.646	58.899	-0.168	0.166
-568.631	-11.722	0.139	0.092
-567.617	99.192	0.166	0.194
-566.602	-56.668	0.249	-0.111
-565.588	-93.927	-0.189	0.053
-564.573	737.607	0.096	-0.258
-563.558	-13.534	-0.071	0.046
-562.544	366.956	0.116	0.235
-561.529	-98.742	-0.436	-0.112
-560.515	-153.835	0.087	-0.006
-559.500	205.845	0.089	-0.140
-558.485	317.453	-0.093	0.177
-557.471	27.620	0.080	-0.068
-556.456	800.000	0.059	-0.252
-555.442	-200.000	0.005	-0.178
-554.427	-143.857	0.141	-0.013
-553.412	-200.000	0.012	0.145
-552.398	100.445	0.265	0.310
-551.383	-16.619	0.118	0.075
-550.369	800.000	-0.085	0.268
-549.354	-200.000	0.051	-0.409
-548.339	399.064	-0.083	0.174
-547.325	800.000	0.063	0.191
-546.310	-17.723	0.113	0.072
-545.296	-84.096	0.166	0.053
-544.281	81.283	-0.204	-0.222
-543.266	246.021	-0.066	0.111
-542.252	178.472	-0.105	0.155
-541.237	69.858	-0.224	0.233
-540.223	-30.400	-0.134	-0.076
-539.208	5.165	0.270	-0.200
-538.193	-42.772	0.184	-0.094
-537.179	557.078	-0.089	-0.216
-536.164	-200.000	0.027	0.416
-535.150	-158.719	0.114	-0.007
-534.135	40.816	-0.121	0.110
-533.121	-25.174	-0.274	-0.163
-532.106	98.774	-0.213	-0.248
-531.091	160.375	-0.108	-0.152
-530.077	-200.000	-0.026	-0.180
-529.062	-139.290	0.172	0.019
-528.048	-50.167	-0.271	0.129
-527.033	21.094	0.243	0.198
-526.018	116.521	0.104	0.128
-525.004	-132.497	0.417	0.054
-523.989	80.511	-0.073	-0.079
-522.975	-10.845	-0.385	-0.256
-521.960	-200.000	0.007	0.055
-520.945	-145.756	-0.095	-0.008
-519.931	228.338	0.171	-0.281
-518.916	89.185	0.065	-0.073
-517.902	800.000	0.026	0.092
-516.887	540.561	0.112	-0.269
-515.872	-127.764	-0.284	-0.041
-514.858	-200.000	-0.070	-0.432
-513.843	-200.000	-0.036	0.331
-512.829	-2.544	0.208	0.147
-511.814	764.237	-0.077	0.211
-510.799	6.405	0.199	-0.148
-509.785	106.226	0.117	-0.139
-508.770	438.315	-0.114	-0.249
-507.756	333.843	0.165	-0.321
-506.741	-131.104	-0.353	-0.047
-505.726	152.858	0.086	0.118
-504.712	0.793	-0.171	-0.123
-503.697	800.000	0.043	0.151
-502.683	-37.658	-0.289	-0.155
-501.668	-17.443	-0.160	-0.101
-500.653	-107.036	0.279	0.062
-499.639	-200.000	-0.007	0.150
-498.624	-186.221	-0.459	-0.007
-497.610	-200.000	-0.055	-0.347
-496.595	175.025	-0.162	-0.236
-495.581	51.071	-0.133	-0.126
-494.566	166.485	0.044	-0.062
-493.551	-200.000	-0.004	0.255
-492.537	-148.203	-0.126	-0.010
-491.522	0.356	0.156	0.112
-490.508	-93.049	0.114	-0.032
-489.493	-96.284	0.236	-0.063
-488.478	-114.051	-0.369	0.072
-487.464	-200.000	-0.006	-0.177
-486.449	74.221	-0.072	0.076
-485.435	278.148	-0.042	0.075
-484.420	-200.000	-0.032	0.225
-483.405	136.707	0.091	-0.120
-482.391	-1.844	0.331	-0.234
-481.376	-200.000	0.067	-0.384
-480.362	570.752	0.092	-0.225
-479.347	-145.707	0.158	0.014
-478.332	13.753	-0.230	0.180
-477.318	-78.068	-0.088	0.030
-476.303	106.670	-0.094	0.112
-475.289	-200.000	0.001	-0.181
-474.274	17.246	0.214	-0.170
-473.259	800.000	0.068	0.295
-472.245	47.812	0.244	-0.229
-471.230	10.352	-0.389	-0.297
-470.216	800.000	0.121	0.438
-469.201	800.000	-0.070	-0.273
-468.186	-10.953	-0.086	0.057
-467.172	213.882	0.070	0.111
-466.157	-115.762	-0.047	-0.009
-465.143	-49.533	-0.059	0.028
-464.128	-60.996	-0.092	0.039
-463.113	84.575	-0.110	-0.121
-462.099	-149.965	0.088	-0.007
-461.084	444.931	-0.127	-0.281
-460.070	-108.303	0.105	0.023
-459.055	-200.000	-0.019	0.234
-458.040	107.417	0.143	-0.170
-457.026	260.634	0.035	-0.060
-456.011	49.432	-0.181	0.171
-454.997	-67.348	-0.077	-0.030
-453.982	-119.378	0.235	0.041
-452.968	706.805	-0.126	-0.335
-451.953	-151.215	-0.130	0.010
-450.938	-23.417	-0.344	0.207
-449.924	-12.542	0.282	0.185
-448.909	-173.800	0.137	0.004
-447.895	-134.111	0.145	0.018
-446.880	-200.000	-0.002	0.155
-445.865	-200.000	-0.006	0.039
-444.851	251.042	-0.057	0.097
-443.836	-81.284	-0.214	-0.071
-442.822	-139.804	0.345	-0.037
-441.807	207.100	0.112	0.176
-440.792	114.180	0.092	0.112
-439.778	-31.017	-0.225	0.128
-438.763	-35.088	-0.239	-0.130
-437.749	-57.701	0.263	0.115
-436.734	-200.000	0.016	0.164
-435.719	-200.000	-0.075	-0.353
-434.705	-134.157	0.167	-0.021
-433.690	185.062	0.127	0.189
-432.676	201.992	-0.069	0.107
-431.661	-89.489	0.271	0.080
-430.646	-87.723	0.289	-0.087
-429.632	-132.387	0.114	-0.015
-428.617	490.753	-0.212	0.486
-427.603	-110.379	0.397	-0.083
-426.588	252.619	0.038	-0.064
-425.573	-200.000	-0.002	0.277
-424.559	-149.642	0.230	0.018
-423.544	-46.914	-0.252	-0.123
-422.530	115.150	-0.042	-0.051
-421.515	-139.678	-0.270	-0.029
-420.500	-18.797	0.061	0.038
-419.486	800.000	0.034	-0.145
-418.471	-80.092	-0.329	0.111
-417.457	-90.669	0.231	-0.067
-416.442	133.256	0.116	-0.150
-415.428	800.000	0.022	-0.064
-414.413	164.215	0.239	0.337
-413.398	17.167	0.120	-0.095
-412.384	132.995	0.128	-0.166
-411.369	432.770	0.100	0.217
-410.355	800.000	-0.106	-0.395
-409.340	-14.713	-0.422	0.272
-408.325	800.000	0.046	0.188
-407.311	-132.039	-0.099	-0.013
-406.296	172.879	0.088	-0.127
-405.282	26.004	-0.153	0.127
-404.267	93.362	-0.066	0.075
-403.252	-99.567	0.248	-0.062
-402.238	33.290	-0.338	-0.294
-401.223	-62.046	-0.095	0.040
-400.209	153.388	0.079	-0.109
-399.194	-128.241	-0.380	0.054
-398.179	-30.485	0.181	-0.103
-397.165	56.901	0.229	-0.223
-396.150	-121.774	-0.146	-0.024
-395.136	-121.582	-0.624	0.104
-394.121	-200.000	-0.020	-0.273
-393.106	800.000	-0.051	0.214
-392.092	-68.799	-0.173	0.067
-391.077	800.000	-0.078	0.226
-390.063	-26.205	0.193	0.113
-389.048	510.149	0.023	0.054
-388.033	-111.025	0.036	-0.007
-387.019	173.723	0.128	-0.185
-386.004	144.571	0.160	0.214
-384.990	-200.000	0.043	0.456
-383.975	496.949	0.118	0.271
-382.960	187.327	-0.171	0.255
-381.946	-59.087	0.167	-0.072
-380.931	-21.412	-0.114	-0.070
-379.917	-200.000	-0.008	0.090
-378.902	-200.000	0.015	0.315
-377.888	800.000	0.051	0.160
-376.873	-121.650	-0.225	-0.037
-375.858	-200.000	0.028	-0.181
-374.844	-200.000	0.015	0.178
-373.829	-62.072	0.398	-0.166
-372.815	-200.000	0.057	-0.493
-371.800	53.348	0.166	-0.159
-370.785	-142.088	0.374	0.037
-369.771	94.190	0.031	0.035
-368.756	12.632	0.074	-0.057
-367.742	-158.664	-0.110	0.006
-366.727	75.906	-0.160	0.169
-365.712	-51.898	0.197	-0.092
-364.698	509.052	-0.167	-0.389
-363.683	-200.000	-0.021	-0.114
-362.669	242.933	0.158	0.265
-361.654	506.802	-0.064	0.149
-360.639	-134.438	-0.256	-0.031
-359.625	10.126	0.031	0.024
-358.610	20.926	0.244	0.197
-357.596	303.935	-0.247	0.457
-356.581	-200.000	0.034	0.261
-355.566	-200.000	-0.001	0.116
-354.552	-117.550	-0.058	-0.010
-353.537	-76.551	-0.149	0.052
-352.523	-49.595	0.041	0.020
-351.508	-172.665	-0.191	-0.006
-350.493	-5.617	0.122	-0.083
-349.479	800.000	0.039	0.139
-348.464	91.513	-0.102	0.115
-347.450	81.373	0.308	-0.332
-346.435	-44.304	-0.150	-0.075
-345.420	-69.661	-0.280	-0.107
-344.406	800.000	-0.024	-0.069
-343.391	711.332	-0.125	0.332
-342.377	-200.000	-0.043	0.242
-341.362	30.389	-0.191	0.163
-340.348	-200.000	-0.031	-0.197
-339.333	359.147	0.126	0.252
-338.318	-200.000	-0.047	-0.217
-337.304	570.921	-0.003	0.007
-336.289	-54.933	0.126	0.057
-335.275	24.207	0.210	-0.173
-334.260	-35.970	0.318	0.172
-333.245	-128.029	-0.075	0.011
-332.231	97.818	0.069	-0.079
-331.216	55.253	0.156	-0.151
-330.202	-145.825	-0.191	-0.017
-329.187	-200.000	0.002	0.012
-328.172	-132.281	-0.261	-0.034
-327.158	245.169	0.179	0.301
-326.143	-25.301	-0.138	-0.082
-325.129	-79.920	-0.233	-0.078
-324.114	-44.100	0.203	-0.102
-323.099	-200.000	-0.017	-0.078
-322.085	117.946	-0.074	-0.091
-321.070	-68.392	-0.235	-0.091
-320.056	34.230	0.246	0.215
-319.041	-79.050	-0.044	0.015
-318.026	-200.000	0.031	-0.157
-317.012	-183.801	0.250	0.004
-315.997	-174.364	-0.231	0.007
-314.983	-200.000	-0.017	0.101
-313.968	-200.000	0.003	-0.050
-312.953	279.554	0.047	0.083
-311.939	-200.000	-0.005	0.070
-310.924	-200.000	-0.032	-0.418
-309.910	-147.732	0.397	0.033
-308.895	626.319	-0.243	-0.613
-307.880	-107.213	0.165	0.036
-306.866	66.090	-0.014	0.014
-305.851	10.872	0.059	-0.045
-304.837	45.716	0.270	0.249
-303.822	320.882	0.119	-0.226
-302.807	-110.486	-0.125	-0.026
-301.793	-96.585	-0.154	0.041
-300.778	1.215	-0.472	0.338
-299.764	63.002	0.131	0.130
-298.749	257.162	-0.071	0.122
-297.735	29.551	0.321	-0.272
-296.720	-47.888	-0.256	-0.124
-295.705	218.702	0.114	0.182
-294.691	-117.634	0.166	0.030
-293.676	378.974	0.057	0.115
-292.662	800.000	-0.097	-0.400
-291.647	-3.887	-0.182	0.126
-290.632	62.891	0.144	-0.143
-289.618	238.022	-0.204	-0.338
-288.603	194.828	0.116	-0.175
-287.589	292.252	-0.133	0.242
-286.574	4.186	0.160	-0.117
-285.559	-42.730	0.143	-0.072
-284.545	104.778	-0.037	-0.043
-283.530	-113.567	-0.244	-0.048
-282.516	-200.000	0.014	-0.106
-281.501	78.681	0.165	-0.176
-280.486	-1.085	-0.099	-0.070
-279.472	58.405	0.074	0.073
-278.457	589.564	0.198	0.487
-277.443	-155.154	-0.282	0.018
-276.428	-11.898	0.025	0.016
-275.413	-110.372	-0.327	0.068
-274.399	194.275	0.170	0.257
-273.384	-105.972	0.615	0.138
-272.370	25.116	0.074	0.061
-271.355	405.839	0.074	-0.157
-270.340	68.962	-0.083	-0.085
-269.326	215.870	-0.109	0.172
-268.311	-165.419	0.206	-0.009
-267.297	-71.419	-0.142	0.053
-266.282	800.000	-0.068	0.212
-265.267	41.317	-0.103	-0.093
-264.253	-100.091	-0.146	-0.036
-263.238	-134.108	0.199	-0.025
-262.224	55.462	0.276	0.266
-261.209	-13.247	0.389	-0.251
-260.195	-163.105	-0.101	0.005
-259.180	-200.000	0.017	-0.131
-258.165	285.076	0.116	0.209
-257.151	20.542	-0.100	0.081
-256.136	-149.939	0.117	-0.009
-255.122	-200.000	0.014	-0.068
-254.107	-200.000	-0.035	-0.298
-253.092	-41.268	0.401	0.206
-252.078	-104.842	0.088	0.020
-251.063	-33.315	-0.355	-0.195
-250.049	146.821	0.153	-0.205
-249.034	-169.913	0.217	-0.008
-248.019	-115.488	-0.132	-0.025
-247.005	-61.131	0.265	0.111
-245.990	85.724	-0.093	0.102
-244.976	-89.556	0.147	-0.043
-243.961	-200.000	0.049	0.378
-242.946	-52.728	0.089	0.041
-241.932	800.000	0.030	-0.117
-240.917	50.768	0.332	0.313
-239.903	36.633	-0.217	0.191
-238.888	-120.002	-0.090	0.015
-237.873	800.000	-0.071	-0.198
-236.859	96.249	-0.191	-0.217
-235.844	-91.615	-0.279	-0.079
-234.830	297.576	0.066	0.121
-233.815	-0.348	0.077	0.054
-232.800	-64.626	-0.110	0.044
-231.786	47.385	-0.193	-0.178
-230.771	-24.527	0.204	0.121
-229.757	-200.000	-0.043	-0.198
-228.742	211.707	-0.254	0.399
-227.727	-92.166	-0.092	0.026
-226.713	-200.000	-0.018	-0.134
-225.698	800.000	0.027	0.106
-224.684	-94.875	0.149	-0.040
-223.669	-173.929	0.235	-0.007
-222.655	-125.624	0.036	0.005
-221.640	-200.000	-0.007	0.351
-220.625	8.193	0.066	0.050
-219.611	-126.390	-0.180	-0.027
-218.596	-133.438	0.307	-0.038
-217.582	331.790	0.157	-0.301
-216.567	-200.000	-0.017	0.113
-215.552	-104.549	0.128	-0.029
-214.538	-87.976	-0.011	-0.003
-213.523	-129.653	0.126	0.017
-212.509	-28.970	0.144	-0.082
-211.494	229.791	-0.277	0.449
-210.479	800.000	0.058	0.176
-209.465	565.655	0.099	-0.239
-208.450	-56.342	-0.106	0.047
-207.436	-31.572	-0.175	0.098
-206.421	-35.987	0.166	0.089
-205.406	-200.000	-0.095	0.425
-204.392	25.985	0.288	-0.238
-203.377	800.000	-0.036	-0.133
-202.363	200.750	-0.172	-0.262
-201.348	438.762	0.096	0.207
-200.333	-59.854	-0.141	0.060
-199.319	-133.316	-0.210	-0.026
-198.304	154.845	-0.039	0.054
-197.290	45.745	0.245	0.225
-196.275	-135.608	-0.232	-0.027
-195.260	179.883	-0.135	0.197
-194.246	-108.834	0.175	0.037
-193.231	58.770	-0.104	0.101
-192.217	800.000	-0.023	0.091
-191.202	-87.308	0.218	0.066
-190.187	50.336	0.051	0.048
-189.173	351.861	-0.136	0.267
-188.158	-103.184	-0.126	0.030
-187.144	-69.373	0.198	-0.075
-186.129	528.819	-0.076	0.179
-185.114	-19.030	0.089	0.055
-184.100	-200.000	-0.021	0.353
-183.085	-200.000	-0.001	0.157
-182.071	-90.739	-0.297	-0.085
-181.056	7.665	0.247	-0.184
-180.042	-74.427	0.232	0.083
-179.027	61.276	0.100	-0.098
-178.012	-156.486	0.045	0.003
-176.998	102.190	0.381	-0.442
-175.983	2.516	0.240	0.173
-174.969	157.306	-0.045	-0.061
-173.954	128.781	0.122	0.154
-172.939	27.468	-0.079	-0.066
-171.925	-200.000	0.015	0.141
-170.910	-74.460	0.176	0.063
-169.896	-36.054	0.259	0.139
-168.881	216.612	0.065	0.103
-167.866	-124.280	0.120	0.019
-166.852	-63.696	0.079	-0.032
-165.837	7.912	-0.130	0.097
-164.823	110.663	-0.212	0.253
-163.808	800.000	0.057	0.227
-162.793	47.391	-0.172	-0.159
-161.779	-95.260	-0.136	-0.036
-160.764	-21.087	-0.134	0.082
-159.750	-58.561	0.101	0.043
-158.735	163.903	-0.068	-0.095
-157.720	-69.775	0.303	0.115
-156.706	800.000	-0.098	0.331
-155.691	423.271	0.081	-0.172
-154.677	-200.000	0.010	0.117
-153.662	-113.152	-0.111	0.022
-152.647	-89.042	0.327	0.096
-151.633	-152.741	0.196	-0.014
-150.618	-61.057	0.088	0.037
-149.604	800.000	-0.058	-0.187
-148.589	-141.556	0.251	-0.025
-147.574	-139.033	-0.378	0.041
-146.560	800.000	0.109	0.314
-145.545	181.857	-0.133	0.194
-144.531	29.626	-0.155	-0.131
-143.516	419.768	-0.122	-0.258
-142.502	800.000	-0.051	-0.194
-141.487	2.369	0.120	-0.086
-140.472	58.087	0.210	-0.204
-139.458	-57.128	0.213	-0.093
-138.443	-73.363	0.159	0.058
-137.429	-200.000	0.030	0.167
-136.414	-12.598	-0.107	-0.069
-135.399	121.724	0.092	-0.114
-134.385	104.784	0.097	-0.113
-133.370	-200.000	-0.077	-0.418
-132.356	512.377	-0.151	0.347
-131.341	76.571	-0.103	-0.109
-130.326	28.360	0.263	-0.220
-129.312	-33.146	0.197	0.108
-128.297	-152.077	0.203	0.015
-127.283	-128.801	0.282	0.039
-126.268	12.606	0.235	-0.180
-125.253	-200.000	-0.019	0.101
-124.239	-200.000	-0.011	0.144
-123.224	274.755	0.172	0.302
-122.210	-200.000	-0.018	-0.401
-121.195	-95.645	-0.361	-0.096
-120.180	-58.525	-0.287	0.123
-119.166	-130.545	-0.326	0.044
-118.151	-114.028	-0.121	-0.023
-117.137	-75.348	0.252	-0.089
-116.122	93.922	-0.173	0.194
-115.107	800.000	0.140	-0.465
-114.093	-119.304	0.324	-0.056
-113.078	174.116	0.047	-0.067
-112.064	32.533	0.158	0.136
-111.049	-84.060	-0.290	0.091
-110.034	-83.399	-0.108	-0.034
-109.020	-200.000	0.013	-0.072
-108.005	-200.000	0.019	0.125
-106.991	175.931	0.114	-0.164
-105.976	241.464	-0.028	0.045
-104.962	-144.537	-0.039	0.004
-103.947	-57.243	-0.175	0.076
-102.932	627.109	0.183	0.458
-101.918	-140.465	-0.320	-0.033
-100.903	54.870	-0.186	0.178
-99.889	118.125	0.064	0.078
-98.874	104.025	0.037	-0.042
-97.859	-76.121	0.271	-0.095
-96.845	96.763	0.136	0.155
-95.830	800.000	-0.076	-0.239
-94.816	-155.742	0.260	0.016
-93.801	150.260	-0.125	-0.167
-92.786	-8.261	0.349	-0.232
-91.772	-0.030	-0.101	-0.071
-90.757	16.332	0.179	-0.139
-89.743	-72.406	0.126	0.046
-88.728	-16.766	-0.185	-0.116
-87.713	-200.000	-0.077	-0.384
-86.699	-200.000	-0.010	0.156
-85.684	-147.110	-0.041	0.003
-84.670	-200.000	0.204	0.001
-83.655	-94.748	0.282	-0.076
-82.640	361.306	0.098	-0.195
-81.626	-83.987	0.218	-0.068
-80.611	-35.103	-0.201	-0.109
-79.597	-200.000	0.013	0.348
-78.582	286.318	0.199	0.354
-77.567	319.435	0.132	-0.247
-76.553	799.221	0.074	0.201
-75.538	-200.000	-0.018	-0.252
-74.524	-141.146	-0.391	0.039
-73.509	-200.000	-0.053	-0.238
-72.494	152.924	-0.140	-0.190
-71.480	186.499	0.221	0.325
-70.465	78.124	0.160	0.168
-69.451	388.023	-0.139	0.284
-68.436	-198.956	-0.187	0.001
-67.422	110.269	-0.080	-0.095
-66.407	-111.608	0.133	-0.027
-65.392	-71.402	-0.068	0.025
-64.378	-114.675	-0.217	0.041
-63.363	-62.515	-0.338	0.139
-62.349	-31.599	-0.409	-0.227
-61.334	78.483	-0.932	-0.983
-60.319	-34.827	0.511	0.276
-59.305	800.000	-0.191	-0.665
-58.290	15.426	1.012	0.785
-57.276	203.235	0.862	1.317
-56.261	-200.000	100.881	587.348
-55.246	607.689	1418.852	3496.343
-54.232	181.273	2642.559	3837.994
-53.217	119.517	2211.082	2704.470
-52.203	45.263	1738.895	1583.967
-51.188	37.958	1548.581	1359.872
-50.173	35.518	1520.382	1318.331
-49.159	54.227	1573.332	1495.461
-48.144	57.699	1592.219	1537.615
-47.130	38.220	1545.333	1358.625
-46.115	34.985	1530.058	1322.825
-45.100	34.848	1526.803	1319.012
-44.086	34.883	1524.720	1317.402
-43.071	34.755	1522.741	1314.764
-42.057	34.732	1521.697	1313.648
-41.042	34.791	1519.869	1312.423
-40.027	34.824	1518.708	1311.598
-39.013	34.889	1516.570	1310.144
-37.998	34.838	1515.406	1308.739
-36.984	34.846	1514.733	1308.157
-35.969	34.836	1513.217	1306.730
-34.954	34.805	1512.009	1305.418
-33.940	34.711	1510.763	1303.654
-32.925	34.821	1509.217	1303.013
-31.911	34.796	1508.033	1301.769
-30.896	34.884	1506.367	1300.883
-29.881	34.745	1505.685	1299.296
-28.867	34.882	1503.527	1298.312
-27.852	34.815	1502.165	1296.630
-26.838	34.876	1500.844	1295.853
-25.823	34.902	1499.115	1294.481
-24.809	34.877	1497.536	1292.902
-23.794	34.846	1496.285	1291.560
-22.779	34.831	1495.191	1290.461
-21.765	34.879	1493.674	1289.427
-20.750	34.913	1492.792	1288.842
-19.736	34.810	1492.026	1287.434
-18.721	34.805	1490.864	1286.347
-17.706	34.820	1490.023	1285.671
-16.692	34.764	1488.610	1284.026
-15.677	34.708	1487.687	1282.801
-14.663	34.867	1486.445	1282.750
-13.648	34.899	1485.131	1281.778
-12.633	34.774	1484.444	1280.295
-11.619	34.905	1483.257	1280.097
-10.604	34.788	1482.703	1278.784
-9.590	34.784	1482.008	1278.110
-8.575	34.888	1480.908	1277.806
-7.560	34.917	1480.203	1277.340
-6.546	34.842	1479.219	1275.940
-5.531	34.831	1478.053	1274.808
-4.517	34.780	1477.644	1274.064
-3.502	34.677	1477.097	1272.860
-2.487	34.729	1475.631	1271.890
-1.473	34.769	1474.359	1271.012
-0.458	34.792	1472.491	1269.503
0.556	32.184	1463.227	1256.896
1.571	28.606	1435.288	1209.264
2.586	24.372	1370.295	1127.697
3.600	22.314	1285.915	1045.942
4.615	21.085	1240.250	1001.663
5.629	18.033	1184.580	939.852
6.644	8.743	1098.347	823.770
7.659	0.885	1055.718	752.755
8.673	-0.213	1048.993	742.468
9.688	-0.383	1046.299	739.657
10.702	-0.424	1044.750	738.295
11.717	-0.501	1043.170	736.734
12.731	2.610	1046.147	754.095
13.746	11.683	1058.764	808.143
14.761	17.704	1066.792	844.095
15.775	17.835	1066.076	844.103
16.790	17.757	1064.815	842.646
17.804	17.380	1064.376	840.361
18.819	17.079	1063.135	837.824
19.834	17.142	1062.728	837.735
20.848	17.160	1062.045	837.214
21.863	17.228	1061.071	836.707
22.877	17.193	1060.997	836.403
23.892	17.219	1060.111	835.756
24.907	17.017	1059.576	834.267
25.921	17.152	1058.857	834.290
26.936	17.305	1057.747	834.095
27.950	17.290	1056.674	833.100
28.965	17.179	1055.463	831.529
29.980	17.086	1053.698	829.609
30.994	17.071	1052.177	828.266
32.009	17.145	1051.566	828.075
33.023	17.203	1050.974	827.818
34.038	16.979	1049.713	825.657
35.053	17.106	1048.496	825.244
36.067	17.255	1048.120	825.602
37.082	17.342	1046.917	825.003
38.096	17.401	1046.042	824.526
39.111	17.364	1045.676	823.985
40.126	17.485	1044.352	823.457
41.140	17.520	1042.916	822.419
42.155	17.361	1041.385	820.373
43.169	17.034	1040.516	818.041
44.184	17.125	1038.902	817.136
45.199	17.163	1038.126	816.633
46.213	17.013	1037.093	815.029
47.228	16.868	1036.394	813.714
48.242	16.954	1035.084	813.023
49.257	17.007	1034.114	812.443
50.271	17.241	1032.769	812.435
51.286	17.003	1032.835	811.276
52.301	17.108	1031.622	810.752
53.315	17.211	1030.594	810.365
54.330	17.148	1029.904	809.452
55.344	17.114	1029.022	808.526
56.359	17.258	1027.615	808.029
57.374	17.325	1026.745	807.593
58.388	17.066	1025.508	805.320
59.403	17.070	1025.174	805.006
60.417	17.132	1024.641	804.812
61.432	17.000	1023.532	803.243
62.447	17.036	1022.503	802.533
63.461	17.156	1021.679	802.386
64.476	17.251	1021.014	802.239
65.490	17.252	1019.811	801.226
66.505	17.048	1019.148	799.676
67.520	17.163	1018.340	799.511
68.534	17.071	1017.554	798.392
69.549	17.000	1016.584	797.228
70.563	16.826	1015.078	795.159
71.578	16.825	1014.349	794.510
72.593	16.925	1013.627	794.344
73.607	16.650	1012.486	792.095
74.622	16.819	1011.419	791.980
75.636	16.927	1011.179	792.225
76.651	17.111	1010.066	792.141
77.666	17.069	1008.729	790.825
78.680	17.022	1007.659	789.701
79.695	16.949	1007.624	789.265
80.709	17.006	1006.961	788.939
81.724	17.049	1006.267	788.526
82.739	17.023	1005.044	787.378
83.753	16.877	1004.700	786.361
84.768	17.155	1003.653	786.758
85.782	17.390	1002.848	787.147
86.797	17.270	1002.008	785.863
87.812	17.237	1001.041	784.882
88.826	17.322	999.934	784.335
89.841	17.308	999.262	783.674
90.855	17.383	998.280	783.181
91.870	17.468	997.128	782.599
92.884	17.457	996.091	781.665
93.899	17.350	995.255	780.450
94.914	17.137	994.830	779.069
95.928	17.201	993.636	778.359
96.943	17.550	992.775	779.211
97.957	17.258	991.358	776.696
98.972	16.912	990.678	774.516
99.987	16.698	989.428	772.492
101.001	16.717	988.827	772.043
102.016	17.034	988.036	772.803
103.030	17.166	987.523	772.929
104.045	17.109	985.880	771.320
105.060	17.101	984.313	769.986
106.074	16.713	983.412	767.456
107.089	16.757	982.968	767.243
108.103	17.250	982.025	768.670
109.118	17.311	981.814	768.711
110.133	17.105	980.573	766.743
111.147	17.109	979.899	766.162
112.162	17.031	978.572	764.709
113.176	16.929	977.131	763.053
114.191	16.995	976.164	762.530
115.206	17.085	975.537	762.374
116.220	16.741	974.065	759.614
117.235	16.610	973.339	758.394
118.249	16.796	972.311	758.359
119.264	16.920	971.345	758.094
120.279	16.888	970.226	757.011
121.293	16.897	969.295	756.258
122.308	16.974	968.728	756.090
123.322	16.953	968.246	755.553
124.337	17.034	966.499	754.483
125.352	16.903	965.456	753.021
126.366	16.565	964.043	750.352
127.381	16.457	962.023	748.238
128.395	16.611	962.098	748.910
129.410	17.186	961.173	750.666
130.424	17.346	960.540	750.814
131.439	17.260	959.668	749.686
132.454	17.084	958.549	747.968
133.468	17.258	957.119	747.551
134.483	17.212	956.589	746.870
135.497	17.245	955.747	746.293
136.512	17.392	955.128	746.385
137.527	17.548	953.998	746.123
138.541	17.431	953.737	745.338
139.556	17.623	952.324	745.009
140.570	17.587	951.429	744.086
141.585	17.401	950.865	742.764
142.600	17.350	950.099	741.877
143.614	17.342	948.838	740.797
144.629	17.555	947.890	740.914
145.643	17.635	947.205	740.665
146.658	17.625	946.171	739.744
147.673	17.505	945.083	738.307
148.687	17.534	944.096	737.596
149.702	17.312	943.375	736.006
150.716	17.240	942.159	734.684
151.731	17.332	941.031	734.134
152.746	17.484	940.100	734.000
153.760	17.454	939.912	733.657
154.775	17.610	939.417	733.879
155.789	17.682	938.097	733.092
156.804	17.670	937.288	732.343
157.819	17.461	936.574	730.826
158.833	17.626	935.069	730.295
159.848	17.726	934.411	730.142
160.862	17.668	933.629	729.217
161.877	17.739	932.262	728.389
162.892	17.481	932.243	727.207
163.906	17.596	931.515	727.069
164.921	17.565	930.643	726.191
165.935	17.616	929.561	725.497
166.950	17.572	928.432	724.366
167.964	17.584	927.238	723.422
168.979	17.507	926.542	722.489
169.994	17.461	925.624	721.512
171.008	17.555	924.174	720.716
172.023	17.650	923.603	720.611
173.037	17.541	923.211	719.779
174.052	17.349	921.597	717.646
175.067	17.241	920.616	716.363
176.081	17.337	919.707	715.998
177.096	17.412	919.831	716.345
178.110	17.657	918.337	716.149
179.125	17.397	917.089	714.022
180.140	17.127	916.070	712.034
181.154	17.267	915.274	711.939
182.169	17.295	914.932	711.729
183.183	17.253	914.688	711.298
184.198	17.528	914.100	711.927
185.213	17.541	913.649	711.567
186.227	17.548	912.559	710.686
187.242	17.525	912.693	710.630
188.256	17.644	911.570	710.190
189.271	17.684	910.385	709.371
190.286	17.699	909.952	709.033
191.300	17.465	908.979	707.240
192.315	17.260	907.689	705.321
193.329	16.739	906.319	702.036
194.344	16.338	905.157	699.414
195.359	16.705	905.458	701.106
196.373	17.391	905.492	703.909
197.388	17.646	904.889	704.429
198.402	17.507	904.362	703.385
199.417	17.410	903.620	702.344
200.432	17.253	903.161	701.278
201.446	17.278	902.177	700.555
202.461	16.882	901.492	698.328
203.475	16.898	901.285	698.175
204.490	16.582	899.463	695.402
205.504	15.747	897.680	690.536
206.519	16.241	897.457	692.331
207.534	16.929	897.907	695.440
208.548	17.209	897.152	695.940
209.563	17.398	897.068	696.587
210.577	17.419	896.234	695.961
211.592	17.317	895.337	694.788
212.607	17.568	894.845	695.369
213.621	17.548	894.544	694.991
214.636	17.600	893.612	694.419
215.650	17.522	893.475	693.933
216.665	17.641	892.851	693.873
217.680	17.709	892.068	693.477
218.694	17.714	891.330	692.865
219.709	17.391	890.286	690.680
220.723	17.058	889.266	688.475
221.738	17.285	888.923	689.068
222.753	17.596	888.505	689.945
223.767	17.562	887.746	689.157
224.782	17.503	886.804	688.126
225.796	17.789	885.834	688.468
226.811	17.786	885.422	688.075
227.826	17.463	884.325	685.860
228.840	16.790	882.777	681.889
229.855	16.847	882.369	681.743
230.869	17.040	881.994	682.169
231.884	16.589	881.101	679.609
232.899	16.817	880.582	680.060
233.913	17.419	880.416	682.289
234.928	17.609	880.229	682.844
235.942	17.514	879.186	681.595
236.957	17.637	878.471	681.471
237.972	17.580	876.994	680.039
238.986	17.339	876.786	678.854
240.001	17.359	876.562	678.700
241.015	17.445	875.429	678.106
242.030	17.449	874.941	677.686
243.045	17.612	873.904	677.471
244.059	17.605	873.369	676.966
245.074	17.852	873.091	677.673
246.088	17.772	872.073	676.504
247.103	17.452	870.784	674.177
248.117	17.389	870.500	673.650
249.132	17.724	870.549	674.953
250.147	18.051	869.588	675.442
251.161	17.931	869.222	674.625
252.176	18.124	868.661	674.892
253.190	18.062	867.926	674.015
254.205	18.281	866.818	673.956
255.220	18.385	866.740	674.249
256.234	18.460	865.935	673.857
257.249	18.304	865.137	672.560
258.263	18.101	864.891	671.515
259.278	18.007	864.022	670.409
260.293	18.405	863.260	671.322
261.307	18.359	862.866	670.776
262.322	18.231	862.097	669.618
263.336	18.110	861.257	668.432
264.351	17.677	859.866	665.602
265.366	16.643	857.844	659.949
266.380	16.193	857.408	657.802
267.395	17.055	857.540	661.205
268.409	17.792	857.659	664.108
269.424	17.920	856.784	663.867
270.439	17.999	856.389	663.813
271.453	18.007	855.857	663.371
272.468	18.206	855.107	663.503
273.482	18.293	854.757	663.509
274.497	18.420	853.850	663.236
275.512	18.166	853.050	661.576
276.526	17.881	851.151	658.943
277.541	18.019	850.748	659.107
278.555	18.143	850.799	659.567
279.570	18.067	849.695	658.357
280.585	17.754	848.972	656.536
281.599	17.851	848.099	656.177
282.614	18.118	847.961	657.039
283.628	17.798	846.824	654.870
284.643	17.529	845.870	653.042
285.657	17.724	846.423	654.162
286.672	17.689	845.165	652.994
287.687	17.292	844.077	650.579
288.701	17.635	843.933	651.723
289.716	17.946	843.593	652.591
290.730	17.547	842.919	650.487
291.745	17.447	842.153	649.459
292.760	17.407	840.848	648.239
293.774	17.133	840.672	647.004
294.789	17.872	840.977	649.999
295.803	18.543	840.632	652.226
296.818	18.782	840.012	652.595
297.833	18.835	839.319	652.199
298.847	18.565	838.498	650.482
299.862	18.301	837.178	648.400
300.876	18.373	836.982	648.461
301.891	18.732	836.338	649.265
302.906	18.644	835.635	648.328
303.920	18.335	834.014	645.848
304.935	18.121	833.400	644.510
305.949	18.309	833.519	645.254
306.964	18.522	832.922	645.535
307.979	18.482	832.367	644.898
308.993	18.469	832.038	644.538
310.008	18.680	831.514	644.865
311.022	18.933	830.957	645.327
312.037	18.744	830.041	643.849
313.052	18.499	829.943	642.798
314.066	18.547	828.990	642.182
315.081	17.993	827.911	639.220
316.095	17.486	826.572	636.232
317.110	17.850	826.521	637.500
318.125	18.467	826.498	639.729
319.139	18.239	825.702	638.203
320.154	17.132	824.973	633.457
321.168	17.113	823.381	632.108
322.183	17.564	823.372	633.726
323.197	18.178	823.932	636.386
324.212	18.507	823.131	636.933
325.227	18.644	822.251	636.704
326.241	18.539	822.701	636.606
327.256	18.583	821.751	635.979
328.270	18.570	821.143	635.403
329.285	18.554	820.606	634.873
330.300	18.502	819.518	633.781
331.314	18.292	818.840	632.424
332.329	18.406	818.177	632.278
333.343	18.527	817.640	632.253
334.358	18.776	817.169	632.751
335.373	18.783	816.297	632.045
336.387	18.799	816.041	631.850
337.402	18.883	815.816	631.927
338.416	18.973	815.403	631.885
339.431	18.873	814.731	630.940
340.446	18.927	813.813	630.370
341.460	19.148	813.378	630.789
342.475	18.916	813.098	629.665
343.489	18.783	811.978	628.255
344.504	18.810	811.171	627.676
345.519	19.058	811.203	628.548
346.533	19.137	811.115	628.714
347.548	19.203	810.113	628.124
348.562	19.216	810.281	628.247
349.577	19.378	809.770	628.383
350.592	19.261	809.120	627.397
351.606	19.308	808.633	627.136
352.621	19.406	807.971	626.924
353.635	19.302	807.428	626.070
354.650	19.231	807.021	625.440
355.665	18.869	805.981	623.265
356.679	18.056	804.307	618.973
357.694	17.863	803.703	617.754
358.708	18.348	803.875	619.588
359.723	18.478	803.196	619.479
360.738	18.672	802.821	619.835
361.752	19.106	802.498	621.097
362.767	19.169	802.280	621.102
363.781	19.211	802.095	621.055
364.796	19.427	801.910	621.633
365.810	19.527	801.318	621.482
366.825	19.669	801.126	621.790
367.840	19.621	800.685	621.217
368.854	19.372	800.002	619.740
369.869	19.125	799.120	618.112
370.883	19.164	798.568	617.770
371.898	19.119	798.255	617.315
372.913	18.958	797.191	615.861
373.927	18.892	796.586	615.104
374.942	19.069	796.135	615.330
375.956	19.202	795.675	615.398
376.971	19.338	795.253	615.503
377.986	19.513	794.578	615.549
379.000	19.677	794.185	615.776
380.015	19.634	793.902	615.347
381.029	19.359	793.126	613.714
382.044	19.518	792.445	613.696
383.059	19.598	791.574	613.252
384.073	19.481	791.300	612.571
385.088	19.462	790.954	612.182
386.102	19.511	790.643	612.059
387.117	19.638	789.723	611.743
388.132	19.564	789.277	611.082
389.146	19.331	788.624	609.697
390.161	18.871	787.829	607.404
391.175	19.007	787.345	607.457
392.190	19.415	787.262	608.779
393.205	19.223	786.808	607.696
394.219	18.642	785.382	604.495
395.234	17.365	783.816	598.747
396.248	16.864	783.145	596.416
397.263	17.644	783.540	599.412
398.278	19.119	784.603	605.362
399.292	19.632	784.161	606.770
400.307	19.371	783.753	605.484
401.321	19.282	783.312	604.776
402.336	19.353	782.958	604.699
403.350	19.515	782.488	604.850
404.365	19.884	782.371	605.997
405.380	19.938	782.333	606.103
406.394	20.043	781.918	606.096
407.409	20.177	781.306	606.038
408.423	20.061	780.581	605.017
409.438	20.029	779.880	604.307
410.453	19.952	779.891	603.993
411.467	20.275	779.178	604.514
412.482	20.261	778.595	603.957
413.496	20.303	778.259	603.790
414.511	20.142	778.121	603.072
415.526	20.229	778.069	603.280
416.540	20.218	777.304	602.595
417.555	20.025	776.972	601.615
418.569	19.878	776.087	600.367
419.584	19.635	775.716	599.182
420.599	20.002	774.910	599.778
421.613	154.448	1358.765	1790.549
422.628	133.235	1443.851	1790.682
