DTS Sentinel unit serial number:	SN413079Multiplexer serial number:	ORYXHardware model number:	OX4-SRSoftware version number:	ORYX F/W v4.00 Oryx Data Collector v3.7.2.0data status	okinstallation	princeton_trtdifferential loss correction	single-endedforward channel	channel 3reverse channel	N/Adate	2019/09/10time	21:34:11forward acquisition time	60.00reverse acquisition time	0.00gamma	496.2192k internal	0.2328k external	0.2328temperature offset calibration	0.9921default loss term (dB/km)	0.3790temperature slope calibration	1.0000multiplexer offset coefficient	1.0000multiplexer slope coefficient	1.0000fibre end	0.00T internal ref (°C)	31.06T ext. ref 1 (°C)	-0.31T ext. ref 2 (°C)	24.52length (m)	temperature (°C)	Stokes	anti-Stokes-747.200	-56.314	-0.317	0.142
-746.185	273.530	-0.098	0.175
-745.171	148.794	0.053	-0.072
-744.156	-200.000	0.012	0.109
-743.142	-111.043	-0.112	0.023
-742.127	513.335	-0.176	0.413
-741.112	-200.000	-0.053	0.428
-740.098	645.340	-0.103	0.264
-739.083	-200.000	-0.013	0.303
-738.069	-90.843	-0.093	-0.027
-737.054	-6.766	0.175	0.120
-736.039	59.165	-0.338	-0.335
-735.025	-95.784	0.201	-0.054
-734.010	-200.000	0.024	0.135
-732.996	-163.587	-0.612	-0.029
-731.981	25.695	-0.140	0.117
-730.966	-179.779	-0.243	0.005
-729.952	245.951	-0.058	0.099
-728.937	-133.270	0.053	0.007
-727.923	800.000	-0.056	-0.173
-726.908	20.593	-0.163	0.133
-725.894	-200.000	-0.051	-0.291
-724.879	-100.449	-0.269	0.067
-723.864	-200.000	0.042	0.281
-722.850	-153.236	-0.113	-0.008
-721.835	-200.000	0.013	0.056
-720.821	102.068	-0.031	-0.037
-719.806	-68.183	-0.258	0.101
-718.791	-200.000	-0.040	-0.183
-717.777	22.246	0.300	-0.247
-716.762	-6.742	-0.117	-0.080
-715.748	-12.834	-0.078	-0.051
-714.733	-200.000	-0.028	-0.273
-713.718	-74.759	-0.088	0.032
-712.704	-200.000	-0.118	-0.550
-711.689	-102.602	-0.058	0.014
-710.675	-200.000	-0.184	0.001
-709.660	312.400	-0.050	0.094
-708.645	-60.714	-0.229	0.098
-707.631	272.250	-0.024	0.042
-706.616	-200.000	0.088	0.440
-705.602	0.013	0.231	0.166
-704.587	-172.448	0.249	0.008
-703.572	271.590	-0.124	-0.220
-702.558	800.000	0.074	0.264
-701.543	296.067	0.101	0.186
-700.529	9.357	-0.390	-0.297
-699.514	-42.088	-0.434	0.224
-698.499	-200.000	0.032	0.319
-697.485	57.226	-0.073	0.071
-696.470	-200.000	0.048	-0.271
-695.456	-29.721	-0.256	-0.147
-694.441	-200.000	0.003	-0.151
-693.426	141.398	-0.177	-0.236
-692.412	-200.000	-0.012	0.163
-691.397	-39.629	0.051	0.027
-690.383	96.630	0.048	-0.055
-689.368	36.320	-0.140	-0.124
-688.354	-55.637	-0.153	-0.069
-687.339	-78.949	-0.247	-0.085
-686.324	169.760	0.270	0.388
-685.310	-60.836	-0.094	0.040
-684.295	110.923	-0.153	0.186
-683.281	497.644	0.080	0.185
-682.266	-7.452	-0.517	-0.352
-681.251	-116.440	-0.187	0.035
-680.237	564.618	-0.101	-0.246
-679.222	-131.949	0.208	0.027
-678.208	800.000	0.051	0.218
-677.193	-62.672	0.043	0.018
-676.178	180.452	-0.277	-0.408
-675.164	-136.958	-0.138	-0.016
-674.149	800.000	0.019	0.075
-673.135	-145.631	-0.241	-0.022
-672.120	800.000	-0.077	0.314
-671.105	800.000	0.053	-0.196
-670.091	-151.788	0.286	-0.021
-669.076	9.541	0.129	-0.099
-668.062	420.731	-0.047	-0.102
-667.047	209.849	-0.076	0.121
-666.032	-59.280	-0.087	-0.038
-665.018	-148.392	-0.163	0.013
-664.003	-200.000	0.021	-0.380
-662.989	29.921	0.294	-0.252
-661.974	-200.000	0.014	0.179
-660.959	-200.000	0.007	0.194
-659.945	366.904	0.136	0.275
-658.930	494.002	0.080	0.185
-657.916	-65.153	-0.152	0.062
-656.901	-115.485	0.086	0.016
-655.886	800.000	0.077	0.328
-654.872	-98.069	-0.256	0.066
-653.857	-200.000	-0.006	0.240
-652.843	-5.766	-0.281	0.193
-651.828	-62.824	-0.215	0.089
-650.814	-39.205	0.004	-0.002
-649.799	-107.330	-0.112	-0.025
-648.784	-44.151	0.427	-0.215
-647.770	-118.170	-0.399	-0.071
-646.755	-73.019	-0.540	-0.199
-645.741	87.972	0.153	-0.171
-644.726	800.000	0.082	0.275
-643.711	-108.140	-0.372	0.081
-642.697	47.300	0.124	0.116
-641.682	-53.529	-0.232	0.107
-640.668	54.451	-0.176	-0.170
-639.653	-162.186	-0.232	-0.012
-638.638	-116.467	0.254	0.047
-637.624	-200.000	-0.012	-0.354
-636.609	63.522	-0.141	-0.142
-635.595	-97.058	-0.262	0.069
-634.580	18.570	-0.177	-0.142
-633.565	-12.684	0.218	0.143
-632.551	216.428	-0.212	0.338
-631.536	-83.318	-0.081	0.026
-630.522	54.551	0.279	0.270
-629.507	-200.000	-0.009	-0.118
-628.492	-16.032	-0.187	-0.119
-627.478	-58.657	-0.224	-0.097
-626.463	-200.000	0.023	-0.200
-625.449	-142.803	0.251	-0.025
-624.434	800.000	0.062	0.181
-623.419	262.338	-0.120	0.209
-622.405	-52.507	0.243	-0.113
-621.390	57.986	-0.055	0.054
-620.376	-86.228	0.379	-0.117
-619.361	800.000	-0.075	-0.280
-618.346	-2.565	-0.320	-0.224
-617.332	-30.298	0.145	0.083
-616.317	-19.315	0.103	-0.064
-615.303	-123.150	0.182	-0.029
-614.288	-200.000	0.003	0.092
-613.273	-200.000	-0.017	-0.143
-612.259	65.296	-0.049	-0.049
-611.244	45.530	-0.213	0.197
-610.230	346.861	0.155	0.306
-609.215	-200.000	0.026	0.274
-608.201	-200.000	0.021	0.254
-607.186	77.230	0.265	-0.282
-606.171	31.796	-0.380	-0.327
-605.157	800.000	-0.007	0.026
-604.142	697.504	0.083	-0.220
-603.128	70.463	0.153	0.158
-602.113	97.524	-0.044	0.051
-601.098	-29.086	-0.194	0.112
-600.084	44.691	0.178	0.164
-599.069	153.849	-0.109	0.150
-598.055	-139.025	-0.166	0.018
-597.040	-28.275	-0.094	-0.054
-596.025	-56.234	-0.086	0.039
-595.011	-200.000	0.074	-0.403
-593.996	24.872	0.282	-0.234
-592.982	7.359	0.206	0.154
-591.967	3.858	0.204	0.149
-590.952	-200.000	0.002	-0.064
-589.938	137.986	-0.122	0.160
-588.923	105.627	0.112	0.133
-587.909	-20.994	0.156	-0.095
-586.894	146.040	-0.095	-0.127
-585.879	9.300	-0.215	-0.163
-584.865	65.716	0.244	-0.248
-583.850	161.357	0.033	0.046
-582.836	-89.566	-0.237	-0.070
-581.821	35.117	-0.095	-0.083
-580.806	-123.657	-0.080	-0.013
-579.792	-200.000	-0.000	0.103
-578.777	800.000	0.103	0.287
-577.763	-200.000	0.015	0.200
-576.748	800.000	-0.047	0.203
-575.733	-200.000	0.003	0.062
-574.719	-181.246	-0.175	-0.003
-573.704	-200.000	-0.077	-0.394
-572.690	800.000	-0.106	0.433
-571.675	-75.529	0.407	0.145
-570.661	50.820	-0.093	0.088
-569.646	336.832	-0.058	0.113
-568.631	55.626	-0.293	0.284
-567.617	-127.659	-0.227	-0.033
-566.602	-133.816	0.270	-0.034
-565.588	-200.000	-0.000	0.193
-564.573	164.388	0.190	-0.268
-563.558	800.000	0.006	-0.019
-562.544	157.668	0.104	-0.144
-561.529	90.284	-0.141	-0.158
-560.515	178.070	0.128	-0.186
-559.500	-67.179	-0.360	-0.142
-558.485	-200.000	-0.026	0.166
-557.471	1.852	0.116	0.083
-556.456	698.973	0.160	0.420
-555.442	248.562	-0.051	0.086
-554.427	-151.465	0.163	0.012
-553.412	-200.000	0.055	-0.364
-552.398	348.493	-0.077	-0.151
-551.383	-200.000	0.051	0.278
-550.369	-182.793	-0.324	-0.006
-549.354	-89.480	0.206	-0.061
-548.339	-132.234	0.301	0.039
-547.325	60.194	0.273	-0.270
-546.310	37.754	-0.122	-0.108
-545.296	192.361	0.240	0.363
-544.281	347.758	-0.154	-0.303
-543.266	126.319	0.243	-0.307
-542.252	216.046	-0.175	0.279
-541.237	38.668	-0.078	0.070
-540.223	138.608	-0.062	-0.081
-539.208	649.454	-0.056	0.142
-538.193	229.331	0.174	-0.284
-537.179	-200.000	-0.027	0.169
-536.164	305.811	0.017	-0.031
-535.150	83.531	-0.029	-0.032
-534.135	-200.000	0.017	-0.104
-533.121	-200.000	-0.089	-0.395
-532.106	80.069	0.155	-0.167
-531.091	0.099	0.026	-0.018
-530.077	-70.492	-0.170	0.064
-529.062	91.072	-0.080	-0.090
-528.048	27.669	0.267	-0.225
-527.033	49.442	0.064	-0.060
-526.018	-105.647	0.232	0.052
-525.004	10.621	0.216	-0.165
-523.989	159.971	0.157	-0.219
-522.975	290.724	0.200	-0.363
-521.960	-200.000	-0.011	-0.142
-520.945	-200.000	0.012	0.143
-519.931	153.155	0.074	0.101
-518.916	800.000	-0.025	-0.087
-517.902	683.952	0.037	0.095
-516.887	-124.458	0.166	-0.026
-515.872	-146.237	-0.064	0.006
-514.858	-81.997	-0.216	0.071
-513.843	-118.469	-0.405	0.072
-512.829	-13.790	0.284	-0.183
-511.814	343.156	-0.061	-0.120
-510.799	57.215	-0.163	-0.159
-509.785	-73.160	0.149	0.055
-508.770	322.550	0.242	0.461
-507.756	-200.000	0.013	0.193
-506.741	-183.132	0.031	0.001
-505.726	-200.000	0.003	-0.238
-504.712	36.288	-0.157	-0.138
-503.697	101.703	-0.082	0.095
-502.683	800.000	-0.092	0.274
-501.668	63.886	-0.245	0.246
-500.653	-37.741	-0.075	-0.040
-499.639	-47.452	-0.391	0.190
-498.624	-25.200	0.095	-0.056
-497.610	800.000	0.022	0.072
-496.595	-200.000	-0.080	-0.384
-495.581	155.907	0.041	-0.056
-494.566	-69.233	-0.037	0.014
-493.551	-34.208	-0.341	-0.187
-492.537	-45.859	-0.205	0.101
-491.522	144.967	-0.144	0.193
-490.508	-25.283	-0.238	0.141
-489.493	-200.000	-0.013	-0.151
-488.478	-200.000	0.007	0.436
-487.464	-200.000	0.014	0.123
-486.449	192.843	0.108	0.162
-485.435	-72.576	0.292	-0.107
-484.420	800.000	-0.065	0.190
-483.405	-164.907	-0.128	-0.006
-482.391	16.161	0.196	-0.154
-481.376	457.917	-0.047	-0.104
-480.362	-170.487	0.198	-0.007
-479.347	-200.000	0.018	0.221
-478.332	-200.000	0.023	-0.141
-477.318	800.000	-0.065	0.234
-476.303	80.476	0.258	0.277
-475.289	-200.000	-0.001	0.142
-474.274	-200.000	0.274	-0.000
-473.259	-51.578	-0.401	0.187
-472.245	-200.000	-0.019	-0.098
-471.230	-200.000	-0.028	-0.355
-470.216	-40.634	-0.118	-0.061
-469.201	-24.306	0.184	-0.109
-468.186	362.231	0.014	-0.028
-467.172	-58.690	0.638	-0.276
-466.157	-200.000	-0.006	0.058
-465.143	-85.513	0.278	0.086
-464.128	270.467	-0.116	-0.203
-463.113	535.992	-0.203	0.481
-462.099	-200.000	-0.016	0.082
-461.084	-156.868	0.190	0.012
-460.070	43.840	0.167	-0.153
-459.055	800.000	-0.089	0.256
-458.040	221.232	0.162	0.258
-457.026	-14.998	0.267	0.170
-456.011	-184.304	0.075	-0.001
-454.997	91.465	-0.132	0.148
-453.982	-80.900	-0.080	0.026
-452.968	-181.865	0.137	0.003
-451.953	-129.635	0.158	-0.022
-450.938	54.364	0.201	-0.192
-449.924	289.791	-0.130	0.235
-448.909	401.182	-0.166	0.348
-447.895	-177.892	0.178	0.004
-446.880	-41.232	0.181	-0.093
-445.865	52.971	-0.136	0.129
-444.851	-21.553	-0.312	0.189
-443.836	197.521	0.186	0.283
-442.822	-95.031	-0.271	-0.073
-441.807	574.571	-0.090	0.220
-440.792	-200.000	-0.042	-0.421
-439.778	281.668	0.058	-0.103
-438.763	297.343	0.060	-0.110
-437.749	-24.004	0.502	0.299
-436.734	24.484	-0.111	0.091
-435.719	-200.000	-0.035	-0.361
-434.705	355.891	-0.035	-0.069
-433.690	-30.274	0.021	0.012
-432.676	22.974	-0.176	-0.144
-431.661	167.467	-0.209	0.296
-430.646	-32.963	0.102	0.057
-429.632	553.502	0.030	0.072
-428.617	-200.000	-0.006	0.183
-427.603	-151.823	0.186	-0.014
-426.588	-77.035	0.219	-0.076
-425.573	-95.805	-0.442	-0.117
-424.559	92.403	0.089	-0.099
-423.544	-164.363	-0.220	0.010
-422.530	113.617	0.123	0.149
-421.515	800.000	-0.097	-0.300
-420.500	619.370	-0.087	-0.218
-419.486	-200.000	0.046	-0.261
-418.471	-109.307	0.202	0.043
-417.457	510.468	0.170	-0.394
-416.442	-200.000	0.030	-0.156
-415.428	70.006	-0.065	-0.066
-414.413	-111.795	-0.179	0.036
-413.398	-37.325	0.261	-0.139
-412.384	-42.091	0.055	0.028
-411.369	-113.975	-0.335	-0.065
-410.355	-200.000	0.002	-0.041
-409.340	-10.877	-0.298	0.196
-408.325	-200.000	-0.078	-0.402
-407.311	-93.231	0.434	-0.120
-406.296	329.753	0.187	-0.358
-405.282	-200.000	0.043	-0.401
-404.267	800.000	-0.009	-0.031
-403.252	-8.121	-0.177	-0.118
-402.238	-108.104	-0.453	-0.097
-401.223	-121.169	0.358	-0.060
-400.209	800.000	-0.085	0.326
-399.194	-89.780	0.075	0.022
-398.179	130.220	0.139	0.176
-397.165	21.919	0.184	-0.149
-396.150	-173.604	0.202	0.006
-395.136	800.000	-0.078	-0.314
-394.121	-74.217	0.138	-0.049
-393.106	-4.819	0.066	-0.045
-392.092	-79.903	-0.401	0.134
-391.077	-147.161	-0.338	-0.029
-390.063	505.369	0.095	0.219
-389.048	169.126	0.059	-0.084
-388.033	184.328	0.111	0.164
-387.019	-114.716	-0.237	0.045
-386.004	784.810	0.024	-0.065
-384.990	-37.633	-0.222	-0.117
-383.975	180.146	-0.095	-0.138
-382.960	476.016	0.051	0.115
-381.946	-139.935	0.230	-0.024
-380.931	28.024	0.165	0.138
-379.917	10.602	-0.222	0.168
-378.902	23.102	-0.206	-0.168
-377.888	-45.324	-0.190	0.094
-376.873	-103.325	-0.190	-0.044
-375.858	-200.000	-0.032	0.148
-374.844	64.068	-0.167	0.166
-373.829	104.385	-0.066	-0.077
-372.815	36.714	-0.139	0.122
-371.800	-36.577	-0.200	0.107
-370.785	153.119	-0.136	0.185
-369.771	155.070	0.123	-0.168
-368.756	800.000	-0.064	-0.269
-367.742	-86.110	-0.251	0.077
-366.727	176.630	-0.150	0.217
-365.712	140.969	0.107	-0.140
-364.698	-1.692	-0.235	-0.164
-363.683	-200.000	0.021	-0.170
-362.669	104.793	0.247	-0.289
-361.654	174.625	0.086	0.124
-360.639	11.107	-0.137	0.104
-359.625	-200.000	-0.017	0.251
-358.610	-200.000	-0.027	-0.364
-357.596	-200.000	-0.001	0.576
-356.581	524.697	-0.172	0.403
-355.566	-102.212	-0.188	0.045
-354.552	-17.663	0.118	-0.074
-353.537	239.947	-0.157	-0.259
-352.523	27.182	0.167	0.139
-351.508	82.707	0.080	0.086
-350.493	-200.000	-0.002	0.141
-349.479	-25.292	0.136	0.080
-348.464	-138.934	-0.458	0.049
-347.450	-200.000	0.012	0.130
-346.435	407.447	0.079	0.165
-345.420	-180.583	0.214	-0.004
-344.406	-200.000	-0.068	-0.000
-343.391	800.000	0.117	-0.403
-342.377	149.802	-0.145	-0.195
-341.362	70.194	0.092	0.094
-340.348	159.122	0.234	0.323
-339.333	800.000	-0.062	0.209
-338.318	54.737	-0.127	0.122
-337.304	-200.000	0.018	0.081
-336.289	-42.937	-0.308	-0.155
-335.275	-64.104	0.282	-0.114
-334.260	334.847	0.230	0.441
-333.245	-200.000	-0.006	0.106
-332.231	-200.000	-0.060	0.491
-331.216	390.094	0.097	0.199
-330.202	-46.241	-0.297	0.145
-329.187	800.000	-0.022	-0.064
-328.172	-200.000	-0.026	0.134
-327.158	-69.347	-0.132	-0.050
-326.143	425.416	0.092	-0.195
-325.129	199.662	0.268	-0.408
-324.114	800.000	-0.035	0.116
-323.099	-102.535	-0.128	0.030
-322.085	2.922	-0.127	-0.092
-321.070	-141.840	-0.180	0.018
-320.056	-200.000	0.011	0.278
-319.041	-83.939	-0.077	-0.024
-318.026	-200.000	0.021	0.250
-317.012	138.670	0.219	-0.284
-315.997	-46.172	0.341	-0.166
-314.983	800.000	0.086	-0.257
-313.968	-200.000	-0.007	-0.157
-312.953	-200.000	-0.003	0.036
-311.939	-20.665	0.211	0.128
-310.924	532.588	-0.113	-0.264
-309.910	800.000	-0.062	0.182
-308.895	-34.274	-0.026	-0.014
-307.880	293.444	-0.050	-0.091
-306.866	-101.798	0.117	0.028
-305.851	-55.888	0.096	0.042
-304.837	-23.357	0.193	0.115
-303.822	723.203	0.097	-0.257
-302.807	127.489	0.160	0.201
-301.793	109.627	0.102	-0.121
-300.778	-64.318	0.207	0.083
-299.764	76.622	-0.127	0.133
-298.749	405.418	0.103	0.216
-297.735	22.533	-0.063	0.051
-296.720	-90.708	0.193	-0.055
-295.705	23.861	-0.211	0.172
-294.691	-177.334	-0.058	0.001
-293.676	8.650	0.228	-0.170
-292.662	27.417	-0.158	-0.132
-291.647	-3.473	0.261	0.180
-290.632	48.779	-0.085	-0.079
-289.618	8.946	-0.249	-0.186
-288.603	69.334	0.289	-0.294
-287.589	81.450	0.074	-0.080
-286.574	347.311	-0.073	-0.143
-285.559	68.732	-0.216	0.220
-284.545	15.629	0.070	0.055
-283.530	800.000	-0.027	-0.114
-282.516	-167.683	0.255	-0.010
-281.501	194.231	-0.122	-0.184
-280.486	-77.975	0.192	0.065
-279.472	-200.000	-0.005	0.026
-278.457	-200.000	0.017	-0.161
-277.443	-119.132	-0.180	0.031
-276.428	508.738	-0.085	-0.196
-275.413	76.372	0.338	0.355
-274.399	-129.083	-0.115	0.016
-273.384	199.122	-0.047	0.071
-272.370	344.630	-0.076	-0.148
-271.355	-11.850	0.303	0.196
-270.340	-141.250	0.123	-0.012
-269.326	-55.101	0.174	-0.077
-268.311	-200.000	0.008	-0.145
-267.297	262.276	0.095	0.163
-266.282	165.673	-0.159	0.222
-265.267	-121.436	-0.079	0.013
-264.253	78.504	-0.181	-0.191
-263.238	-200.000	0.025	-0.115
-262.224	-169.970	-0.220	-0.008
-261.209	-156.510	0.114	-0.007
-260.195	-200.000	0.033	-0.147
-259.180	-200.000	-0.029	0.225
-258.165	29.136	-0.206	0.173
-257.151	-150.117	-0.099	-0.008
-256.136	-200.000	0.006	0.156
-255.122	-92.540	0.279	-0.077
-254.107	326.154	0.077	0.145
-253.092	-87.788	-0.323	0.096
-252.078	-77.548	0.020	-0.007
-251.063	-200.000	0.027	0.165
-250.049	94.528	0.294	0.330
-249.034	72.438	0.070	-0.072
-248.019	-18.467	-0.537	0.331
-247.005	-75.354	-0.334	0.118
-245.990	-53.481	0.184	-0.083
-244.976	-63.571	0.169	0.068
-243.961	341.334	-0.062	0.120
-242.946	14.923	-0.157	0.121
-241.932	-67.615	0.197	0.076
-240.917	-200.000	0.011	0.132
-239.903	-59.250	0.113	-0.048
-238.888	800.000	0.132	0.369
-237.873	-128.711	0.298	0.042
-236.859	311.416	0.187	0.346
-235.844	81.005	-0.324	-0.345
-234.830	-52.269	-0.254	-0.116
-233.815	-51.063	0.199	0.092
-232.800	-139.362	0.428	-0.045
-231.786	52.004	0.130	-0.123
-230.771	-47.665	-0.224	-0.107
-229.757	81.381	0.086	-0.091
-228.742	-25.302	-0.197	0.115
-227.727	-173.044	-0.241	-0.007
-226.713	143.396	0.114	-0.150
-225.698	-47.055	0.251	0.121
-224.684	433.788	0.072	-0.155
-223.669	-97.827	-0.288	-0.074
-222.655	-113.390	0.135	0.026
-221.640	-148.249	0.117	-0.010
-220.625	-93.270	0.308	0.084
-219.611	-142.245	0.285	0.028
-218.596	-51.489	-0.358	-0.165
-217.582	211.268	-0.176	0.273
-216.567	-200.000	-0.015	-0.111
-215.552	185.699	-0.265	-0.389
-214.538	49.966	-0.158	-0.147
-213.523	520.907	0.110	0.255
-212.509	36.942	-0.265	-0.231
-211.494	548.262	-0.051	-0.120
-210.479	560.331	-0.217	0.517
-209.465	35.523	-0.288	-0.250
-208.450	47.683	-0.264	-0.243
-207.436	-82.028	-0.134	-0.043
-206.421	464.377	-0.027	0.059
-205.406	149.864	-0.086	0.115
-204.392	-200.000	0.128	-0.000
-203.377	68.229	0.318	0.321
-202.363	-63.567	0.163	-0.066
-201.348	-25.615	0.103	0.060
-200.333	-200.000	-0.041	-0.272
-199.319	-200.000	0.026	-0.629
-198.304	-200.000	-0.006	-0.455
-197.290	57.946	0.202	0.195
-196.275	49.835	-0.245	0.228
-195.260	-22.062	0.165	-0.099
-194.246	-32.694	-0.232	0.127
-193.231	-15.025	0.230	0.145
-192.217	-200.000	-0.008	-0.230
-191.202	-77.860	0.246	0.084
-190.187	-138.993	-0.244	0.026
-189.173	-27.239	-0.206	-0.118
-188.158	440.097	0.090	0.193
-187.144	492.844	-0.063	0.143
-186.129	-200.000	0.012	-0.104
-185.114	800.000	-0.063	0.173
-184.100	349.943	-0.143	-0.278
-183.085	-94.163	0.087	0.023
-182.071	-37.670	0.220	0.115
-181.056	-162.567	0.157	-0.008
-180.042	800.000	-0.079	-0.334
-179.027	-200.000	-0.007	0.114
-178.012	-9.037	-0.230	-0.152
-176.998	542.136	0.062	-0.146
-175.983	-200.000	0.019	-0.174
-174.969	-103.889	0.114	-0.026
-173.954	-90.746	-0.117	0.033
-172.939	117.830	0.100	0.121
-171.925	-43.669	0.286	0.142
-170.910	800.000	0.048	-0.168
-169.896	21.509	0.305	0.244
-168.881	21.281	-0.301	-0.241
-167.866	-83.916	0.145	0.045
-166.852	-200.000	-0.005	-0.061
-165.837	35.329	0.257	0.222
-164.823	200.557	-0.106	0.161
-163.808	-8.675	-0.102	-0.067
-162.793	-34.872	-0.227	-0.122
-161.779	206.699	-0.120	-0.183
-160.764	-153.612	0.424	-0.029
-159.750	59.170	-0.068	0.066
-158.735	-200.000	-0.035	0.169
-157.720	114.834	0.014	0.017
-156.706	-40.760	0.076	-0.039
-155.691	-22.096	0.192	-0.115
-154.677	800.000	-0.107	0.361
-153.662	-47.996	-0.050	-0.024
-152.647	155.883	-0.380	-0.515
-151.633	612.222	0.154	-0.378
-150.618	176.467	0.203	0.290
-149.604	-200.000	0.071	-0.332
-148.589	-149.306	0.178	-0.014
-147.574	800.000	-0.049	-0.197
-146.560	-83.672	-0.239	-0.075
-145.545	9.171	-0.277	-0.206
-144.531	33.803	0.145	0.124
-143.516	-31.777	-0.181	-0.100
-142.502	101.341	0.165	0.190
-141.487	-200.000	0.000	-0.126
-140.472	800.000	0.075	0.218
-139.458	83.215	0.161	0.173
-138.443	-144.538	0.275	0.025
-137.429	800.000	-0.198	0.575
-136.414	-39.299	-0.133	-0.069
-135.399	-80.381	0.229	0.075
-134.385	-82.326	-0.182	-0.058
-133.370	96.017	0.230	-0.258
-132.356	242.219	0.124	-0.204
-131.341	-114.782	0.041	0.008
-130.326	151.960	-0.094	0.127
-129.312	-60.563	0.293	-0.122
-128.297	214.805	-0.256	-0.399
-127.283	754.550	0.073	-0.193
-126.268	-178.304	-0.107	0.002
-125.253	-200.000	-0.052	-0.288
-124.239	-101.570	0.223	0.053
-123.224	2.915	-0.194	0.138
-122.210	-17.403	-0.195	0.121
-121.195	800.000	0.035	0.112
-120.180	-200.000	-0.016	-0.254
-119.166	-200.000	0.006	-0.035
-118.151	-200.000	0.017	-0.275
-117.137	-31.440	-0.182	-0.101
-116.122	-200.000	0.034	-0.306
-115.107	-134.481	0.155	-0.019
-114.093	800.000	0.049	0.188
-113.078	188.867	-0.239	0.351
-112.064	546.193	0.114	0.269
-111.049	-200.000	-0.010	-0.042
-110.034	-47.089	0.328	0.157
-109.020	450.651	0.026	0.056
-108.005	-25.520	-0.258	0.150
-106.991	129.930	0.187	-0.235
-105.976	-129.033	0.148	-0.020
-104.962	-103.436	0.440	0.102
-103.947	-200.000	0.026	-0.282
-102.932	78.023	-0.191	0.201
-101.918	-200.000	0.017	0.158
-100.903	-105.221	0.063	-0.014
-99.889	589.869	-0.198	0.480
-98.874	658.380	0.063	-0.159
-97.859	800.000	-0.032	-0.099
-96.845	-94.194	0.367	0.099
-95.830	-200.000	-0.002	-0.368
-94.816	-171.188	0.109	-0.004
-93.801	-134.432	-0.213	0.026
-92.786	92.311	-0.098	-0.108
-91.772	-155.217	0.429	-0.027
-90.757	-200.000	-0.049	0.244
-89.743	-34.642	0.088	0.048
-88.728	-18.931	0.194	0.118
-87.713	-200.000	-0.011	0.293
-86.699	-50.647	-0.303	-0.140
-85.684	-162.417	0.199	-0.010
-84.670	-200.000	-0.015	0.103
-83.655	737.436	-0.132	0.347
-82.640	-93.603	0.201	-0.054
-81.626	80.112	0.042	0.045
-80.611	211.452	-0.043	-0.067
-79.597	97.369	0.078	-0.088
-78.582	-200.000	-0.047	0.219
-77.567	-57.376	0.193	0.083
-76.553	-79.157	0.341	-0.113
-75.538	53.656	-0.143	-0.135
-74.524	133.238	-0.195	-0.247
-73.509	-200.000	-0.041	0.237
-72.494	-3.093	0.029	0.020
-71.480	43.751	0.226	0.203
-70.465	-81.171	-0.065	-0.021
-69.451	-200.000	0.043	0.213
-68.436	-5.309	0.031	0.021
-67.422	800.000	0.054	-0.186
-66.407	25.236	0.285	0.232
-65.392	-15.676	0.252	-0.158
-64.378	-189.523	-0.213	-0.002
-63.363	36.695	-0.310	0.269
-62.349	351.572	0.218	0.423
-61.334	35.364	-1.133	-0.975
-60.319	435.936	0.185	0.395
-59.305	-200.000	-0.178	-1.212
-58.290	130.045	0.771	0.967
-57.276	767.957	0.625	1.667
-56.261	-200.000	99.517	619.696
-55.246	577.129	1425.035	3416.313
-54.232	188.988	2617.619	3843.722
-53.217	116.573	2165.046	2604.038
-52.203	41.939	1697.196	1509.782
-51.188	34.256	1508.810	1290.344
-50.173	31.862	1482.326	1251.685
-49.159	52.040	1533.929	1432.785
-48.144	53.233	1551.616	1457.351
-47.130	34.493	1509.816	1292.607
-46.115	31.365	1495.234	1259.040
-45.100	31.089	1492.336	1254.695
-44.086	31.102	1489.541	1252.381
-43.071	30.971	1488.031	1250.182
-42.057	31.094	1485.849	1249.124
-41.042	31.046	1484.662	1247.751
-40.027	31.091	1483.371	1246.920
-39.013	30.984	1481.655	1244.715
-37.998	30.969	1480.259	1243.389
-36.984	31.095	1478.442	1242.654
-35.969	31.097	1477.490	1241.822
-34.954	31.025	1476.111	1240.129
-33.940	31.094	1475.235	1239.802
-32.925	31.061	1473.663	1238.215
-31.911	31.108	1472.389	1237.409
-30.896	31.090	1471.243	1236.278
-29.881	31.204	1469.544	1235.556
-28.867	31.122	1468.557	1234.135
-27.852	31.056	1467.508	1232.768
-26.838	31.060	1465.784	1231.298
-25.823	31.066	1464.268	1230.010
-24.809	31.168	1462.478	1229.129
-23.794	31.140	1460.781	1227.471
-22.779	31.115	1460.000	1226.602
-21.765	31.087	1458.807	1225.366
-20.750	31.155	1457.846	1224.961
-19.736	31.067	1456.886	1223.529
-18.721	31.176	1455.191	1222.768
-17.706	31.139	1454.399	1221.814
-16.692	31.089	1453.433	1220.623
-15.677	31.080	1452.235	1219.511
-14.663	31.108	1451.312	1218.874
-13.648	30.926	1450.728	1217.140
-12.633	31.078	1449.463	1217.024
-11.619	31.023	1448.879	1216.128
-10.604	31.019	1447.996	1215.311
-9.590	31.088	1447.087	1214.951
-8.575	30.951	1446.511	1213.530
-7.560	30.958	1445.673	1212.822
-6.546	30.996	1444.875	1212.353
-5.531	30.956	1444.228	1211.499
-4.517	31.028	1442.873	1210.781
-3.502	30.894	1442.172	1209.274
-2.487	30.935	1441.025	1208.534
-1.473	30.979	1439.440	1207.444
-0.458	31.041	1438.094	1206.667
0.556	28.708	1428.731	1194.957
1.571	25.562	1403.347	1153.478
2.586	21.961	1342.544	1081.266
3.600	20.323	1260.748	1005.813
4.615	19.348	1216.356	964.858
5.629	16.512	1161.747	906.282
6.644	8.031	1078.119	798.616
7.659	0.879	1037.972	734.202
8.673	-0.147	1032.536	725.340
9.688	-0.274	1028.824	722.059
10.702	-0.442	1027.746	720.430
11.717	-0.377	1025.681	719.228
12.731	2.654	1029.046	736.094
13.746	11.614	1041.669	788.454
14.761	18.131	1049.776	826.107
15.775	19.202	1050.094	831.460
16.790	19.177	1049.794	831.025
17.804	19.107	1048.538	829.623
18.819	18.876	1047.876	827.912
19.834	18.840	1047.334	827.238
20.848	18.947	1046.676	827.159
21.863	18.943	1046.487	826.919
22.877	19.100	1045.786	827.042
23.892	18.975	1045.273	825.967
24.907	18.903	1044.205	824.701
25.921	18.772	1044.426	824.174
26.936	19.023	1043.270	824.391
27.950	18.907	1042.099	822.839
28.965	18.857	1040.772	821.481
29.980	18.838	1039.020	819.934
30.994	18.820	1037.877	818.872
32.009	19.028	1036.507	818.712
33.023	18.963	1036.206	818.088
34.038	18.797	1034.958	816.245
35.053	18.706	1034.148	815.103
36.067	19.020	1033.711	816.176
37.082	19.027	1032.625	815.276
38.096	19.048	1031.797	814.650
39.111	19.190	1030.901	814.544
40.126	19.256	1030.579	814.528
41.140	19.186	1028.992	812.871
42.155	18.979	1027.165	810.382
43.169	18.706	1025.756	807.913
44.184	18.648	1024.918	806.912
45.199	18.704	1024.283	806.601
46.213	18.728	1022.579	805.300
47.228	18.692	1022.078	804.667
48.242	18.659	1021.025	803.611
49.257	18.817	1020.117	803.565
50.271	18.889	1019.054	802.995
51.286	18.912	1018.722	802.768
52.301	18.991	1017.823	802.356
53.315	18.904	1017.281	801.455
54.330	19.012	1016.407	801.198
55.344	18.952	1015.154	799.858
56.359	19.071	1014.246	799.628
57.374	18.950	1013.725	798.584
58.388	18.786	1012.400	796.707
59.403	18.921	1011.694	796.705
60.417	18.946	1010.935	796.157
61.432	18.766	1009.902	794.439
62.447	18.744	1009.439	793.900
63.461	18.902	1008.640	793.932
64.476	18.855	1007.829	793.005
65.490	18.850	1007.014	792.271
66.505	18.943	1005.420	791.376
67.520	18.746	1004.769	789.890
68.534	18.955	1004.351	790.448
69.549	18.713	1003.496	788.595
70.563	18.536	1002.094	786.612
71.578	18.417	1001.599	785.608
72.593	18.632	1000.460	785.629
73.607	18.410	999.169	783.533
74.622	18.347	998.315	782.506
75.636	18.699	997.744	783.597
76.651	18.838	997.028	783.598
77.666	18.723	995.952	782.159
78.680	18.635	995.260	781.146
79.695	18.551	994.957	780.456
80.709	18.739	993.846	780.368
81.724	18.805	993.384	780.237
82.739	18.799	992.162	779.180
83.753	18.654	991.774	778.152
84.768	18.850	991.226	778.541
85.782	19.132	990.261	778.989
86.797	19.271	989.447	778.910
87.812	19.146	988.763	777.738
88.826	19.173	987.184	776.548
89.841	19.088	986.809	775.801
90.855	19.254	986.007	775.849
91.870	19.218	984.580	774.494
92.884	19.215	984.223	774.134
93.899	19.152	983.315	773.067
94.914	19.041	982.283	771.691
95.928	19.228	981.150	771.571
96.943	19.208	980.628	771.002
97.957	18.911	979.403	768.641
98.972	18.716	978.464	766.964
99.987	18.529	977.498	765.307
101.001	18.565	976.805	764.859
102.016	18.813	976.128	765.363
103.030	18.959	975.278	765.281
104.045	18.892	974.026	763.930
105.060	18.695	973.114	762.274
106.074	18.616	971.401	760.516
107.089	18.529	971.027	759.771
108.103	18.835	971.083	761.099
109.118	19.159	969.720	761.401
110.133	18.811	968.501	758.837
111.147	18.706	967.983	757.901
112.162	18.816	966.387	757.070
113.176	18.726	964.990	755.512
114.191	18.696	964.320	754.788
115.206	18.847	962.990	754.342
116.220	18.510	961.942	751.978
117.235	18.251	961.570	750.484
118.249	18.521	960.651	750.884
119.264	18.523	959.926	750.259
120.279	18.505	958.873	749.292
121.293	18.612	958.038	749.038
122.308	18.672	957.146	748.538
123.322	18.726	955.926	747.753
124.337	18.636	955.190	746.718
125.352	18.578	953.514	745.090
126.366	18.155	952.063	742.056
127.381	17.925	950.680	739.916
128.395	18.311	950.270	741.203
129.410	18.887	950.116	743.512
130.424	19.009	949.183	743.240
131.439	19.059	947.762	742.278
132.454	19.045	946.949	741.516
133.468	19.019	946.146	740.710
134.483	18.773	945.770	739.291
135.497	18.967	944.662	739.192
136.512	19.149	943.695	739.154
137.527	19.180	943.462	739.039
138.541	19.280	942.449	738.608
139.556	19.234	941.465	737.575
140.570	19.155	940.865	736.700
141.585	19.141	939.884	735.808
142.600	19.236	939.000	735.454
143.614	19.084	937.983	733.948
144.629	19.224	937.137	733.817
145.643	19.442	936.526	734.202
146.658	19.265	936.085	733.035
147.673	19.146	934.342	731.101
148.687	19.105	933.525	730.225
149.702	19.118	932.592	729.486
150.716	19.072	931.547	728.409
151.731	18.969	930.419	727.027
152.746	19.155	929.729	727.209
153.760	19.363	929.093	727.525
154.775	19.470	928.512	727.455
155.789	19.480	927.957	726.997
156.804	19.315	926.943	725.446
157.819	19.273	925.717	724.247
158.833	19.398	924.851	724.029
159.848	19.437	924.194	723.614
160.862	19.480	923.160	722.922
161.877	19.244	922.406	721.280
162.892	19.244	921.413	720.439
163.906	19.544	920.462	720.881
164.921	19.335	920.134	719.693
165.935	19.370	918.781	718.713
166.950	19.338	917.798	717.751
167.964	19.346	916.831	716.961
168.979	19.332	915.879	716.096
169.994	19.355	914.743	715.240
171.008	19.058	913.553	713.015
172.023	19.304	912.991	713.532
173.037	19.390	912.465	713.413
174.052	19.094	911.336	711.245
175.067	19.046	910.313	710.184
176.081	19.101	909.601	709.794
177.096	19.210	909.213	709.880
178.110	19.167	908.095	708.767
179.125	18.963	906.865	706.903
180.140	18.881	905.878	705.737
181.154	18.791	905.148	704.735
182.169	18.888	904.723	704.741
183.183	19.136	904.224	705.305
184.198	19.268	903.817	705.463
185.213	19.376	902.885	705.118
186.227	19.152	902.533	703.866
187.242	19.264	902.057	703.887
188.256	19.358	901.572	703.831
189.271	19.335	900.407	702.766
190.286	19.562	899.335	702.791
191.300	19.288	898.900	701.273
192.315	18.938	898.000	699.086
193.329	18.405	896.052	695.344
194.344	17.999	895.322	693.069
195.359	18.474	895.642	695.185
196.373	19.069	895.956	697.781
197.388	19.373	895.374	698.495
198.402	19.138	894.348	696.685
199.417	19.177	893.675	696.257
200.432	19.167	893.179	695.768
201.446	19.071	892.399	694.709
202.461	18.739	891.511	692.619
203.475	18.676	891.197	692.060
204.490	18.416	889.538	689.664
205.504	17.415	887.608	684.085
206.519	17.874	887.525	685.802
207.534	18.780	888.245	689.940
208.548	18.747	887.646	689.281
209.563	19.126	887.498	690.625
210.577	19.371	886.313	690.624
211.592	19.060	885.677	688.822
212.607	19.288	885.534	689.563
213.621	19.326	884.991	689.231
214.636	19.381	884.220	688.791
215.650	19.434	883.570	688.433
216.665	19.448	882.672	687.728
217.680	19.494	882.307	687.566
218.694	19.465	881.486	686.750
219.709	19.176	880.223	684.560
220.723	18.826	879.716	682.711
221.738	19.104	879.136	683.303
222.753	19.355	878.476	683.728
223.767	19.281	877.874	682.906
224.782	19.206	877.383	682.165
225.796	19.447	876.555	682.416
226.811	19.591	876.099	682.567
227.826	19.221	874.241	679.603
228.840	18.395	873.757	675.908
229.855	18.314	873.181	675.083
230.869	18.720	872.420	676.034
231.884	18.351	871.651	673.924
232.899	18.258	871.109	673.081
233.913	19.167	871.103	676.592
234.928	19.216	870.974	676.623
235.942	19.231	870.176	676.002
236.957	19.359	869.402	675.843
237.972	19.133	868.354	674.085
238.986	18.946	867.397	672.551
240.001	19.089	867.170	672.873
241.015	19.214	866.585	672.848
242.030	19.208	865.736	672.107
243.045	19.241	865.398	671.913
244.059	19.325	864.800	671.716
245.074	19.424	864.349	671.691
246.088	19.289	863.845	670.715
247.103	19.038	862.552	668.675
248.117	19.117	861.770	668.319
249.132	19.509	861.537	669.598
250.147	19.660	861.647	670.211
251.161	19.654	860.800	669.470
252.176	19.825	860.385	669.749
253.190	19.932	859.345	669.295
254.205	19.890	859.058	668.850
255.220	20.331	858.397	669.977
256.234	20.182	857.599	668.723
257.249	20.114	856.897	667.853
258.263	19.947	856.213	666.620
259.278	20.068	855.485	666.459
260.293	20.024	855.457	666.206
261.307	20.184	854.634	666.123
262.322	20.025	853.796	664.800
263.336	19.999	852.709	663.796
264.351	19.430	851.414	660.552
265.366	18.407	849.392	655.014
266.380	17.927	848.791	652.657
267.395	18.771	849.087	656.056
268.409	19.556	849.196	659.078
269.424	19.644	848.738	659.002
270.439	19.744	848.443	659.094
271.453	19.991	847.672	659.377
272.468	20.030	846.712	658.720
273.482	20.144	846.085	658.607
274.497	20.223	846.086	658.849
275.512	19.954	844.737	656.721
276.526	19.549	843.219	653.949
277.541	19.658	842.943	654.090
278.555	20.061	842.852	655.485
279.570	19.976	841.859	654.336
280.585	19.540	841.338	652.225
281.599	19.538	840.877	651.803
282.614	19.740	840.392	652.130
283.628	19.465	838.930	649.902
284.643	19.182	837.934	648.008
285.657	19.518	838.356	649.544
286.672	19.287	837.956	648.305
287.687	19.039	836.500	646.192
288.701	19.220	836.327	646.681
289.716	19.608	836.211	647.989
290.730	19.219	835.160	645.660
291.745	19.184	834.410	644.892
292.760	19.123	833.466	643.877
293.774	18.907	832.896	642.573
294.789	19.794	833.414	646.232
295.803	20.365	833.443	648.329
296.818	20.475	832.894	648.254
297.833	20.516	832.552	648.084
298.847	20.260	831.193	646.015
299.862	19.903	830.454	644.056
300.876	20.129	829.878	644.394
301.891	20.497	829.071	645.077
302.906	20.329	828.602	644.031
303.920	20.107	827.619	642.388
304.935	19.931	826.829	641.066
305.949	20.192	826.502	641.721
306.964	20.348	826.172	641.985
307.979	20.245	825.455	640.990
308.993	20.061	825.039	639.929
310.008	20.601	824.864	641.733
311.022	20.581	824.470	641.297
312.037	20.441	823.766	640.174
313.052	20.308	823.158	639.156
314.066	20.241	822.067	638.006
315.081	19.541	820.782	634.381
316.095	19.013	819.880	631.688
317.110	19.403	819.958	633.125
318.125	20.087	820.134	635.714
319.139	19.798	819.086	633.787
320.154	18.861	817.574	629.134
321.168	18.522	816.373	626.913
322.183	19.036	816.752	629.028
323.197	19.725	817.062	631.731
324.212	20.029	816.669	632.480
325.227	20.266	816.172	632.907
326.241	20.308	816.314	633.112
327.256	20.310	815.207	632.205
328.270	20.214	814.804	631.487
329.285	20.191	813.789	630.562
330.300	20.094	812.977	629.525
331.314	19.802	812.551	628.078
332.329	19.791	811.800	627.401
333.343	20.103	811.574	628.304
334.358	20.430	811.122	629.081
335.373	20.444	810.268	628.413
336.387	20.497	809.859	628.233
337.402	20.551	809.863	628.377
338.416	20.849	809.167	628.857
339.431	20.828	808.525	628.225
340.446	20.731	807.873	627.316
341.460	20.879	807.249	627.309
342.475	20.861	806.477	626.589
343.489	20.703	805.568	625.258
344.504	20.684	805.047	624.731
345.519	20.813	805.178	625.239
346.533	21.172	804.671	626.080
347.548	21.140	804.680	625.916
348.562	21.081	804.315	625.363
349.577	21.113	803.621	624.882
350.592	21.130	802.695	624.170
351.606	20.940	802.990	623.663
352.621	21.053	802.179	623.383
353.635	21.064	801.532	622.865
354.650	21.042	800.816	622.175
355.665	20.554	799.922	619.684
356.679	19.786	797.946	615.367
357.694	19.526	797.987	614.419
358.708	20.149	797.831	616.462
359.723	20.168	797.232	616.011
360.738	20.382	796.849	616.423
361.752	20.682	796.678	617.297
362.767	20.852	796.625	617.805
363.781	21.056	796.184	618.132
364.796	21.337	796.284	619.151
365.810	21.371	795.138	618.325
366.825	21.427	795.075	618.418
367.840	21.269	794.962	617.718
368.854	21.198	793.824	616.529
369.869	20.853	792.929	614.563
370.883	20.828	792.582	614.150
371.898	20.859	792.124	613.852
372.913	20.782	791.189	612.802
373.927	20.850	790.688	612.596
374.942	20.942	790.248	612.524
375.956	20.997	789.855	612.361
376.971	21.043	789.645	612.305
377.986	21.104	789.095	612.038
379.000	21.403	788.246	612.373
380.015	21.342	787.884	611.825
381.029	21.247	786.991	610.745
382.044	21.313	786.693	610.689
383.059	21.282	786.350	610.260
384.073	21.300	785.730	609.788
385.088	21.303	785.747	609.758
386.102	21.474	785.013	609.731
387.117	21.401	784.367	608.920
388.132	21.177	784.108	607.885
389.146	20.854	783.431	606.184
390.161	20.614	782.025	604.207
391.175	20.529	782.205	603.997
392.190	20.985	781.802	605.216
393.205	21.053	781.405	605.093
394.219	20.132	779.925	600.703
395.234	18.805	777.646	594.304
396.248	18.138	776.899	591.375
397.263	19.352	777.504	595.984
398.278	20.855	778.769	602.098
399.292	21.314	778.494	603.421
400.307	20.978	777.867	601.721
401.321	20.922	777.128	600.904
402.336	21.066	777.015	601.260
403.350	21.283	776.739	601.740
404.365	21.735	776.948	603.403
405.380	21.711	776.951	603.270
406.394	22.020	776.150	603.656
407.409	22.133	775.698	603.641
408.423	21.928	775.516	602.742
409.438	21.910	774.862	602.119
410.453	22.077	773.971	601.945
411.467	22.134	773.904	602.034
412.482	22.046	773.102	601.055
413.496	22.086	772.763	600.875
414.511	22.090	772.519	600.649
415.526	22.101	772.398	600.539
416.540	22.172	771.946	600.376
417.555	22.105	771.212	599.522
418.569	21.837	770.400	597.924
419.584	21.629	770.039	596.883
420.599	21.665	769.621	596.630
421.613	157.952	1361.411	1796.674
422.628	136.168	1447.628	1796.778
