DTS Sentinel unit serial number:	SN413079Multiplexer serial number:	ORYXHardware model number:	OX4-SRSoftware version number:	ORYX F/W v4.00 Oryx Data Collector v3.7.2.0data status	okinstallation	princeton_trtdifferential loss correction	single-endedforward channel	channel 3reverse channel	N/Adate	2019/09/11time	03:30:11forward acquisition time	60.00reverse acquisition time	0.00gamma	496.2192k internal	0.2330k external	0.2330temperature offset calibration	0.9912default loss term (dB/km)	0.3790temperature slope calibration	1.0000multiplexer offset coefficient	1.0000multiplexer slope coefficient	1.0000fibre end	0.00T internal ref (°C)	29.44T ext. ref 1 (°C)	-0.29T ext. ref 2 (°C)	24.09length (m)	temperature (°C)	Stokes	anti-Stokes-747.200	-154.360	-0.303	0.021
-746.185	-200.000	0.035	0.320
-745.171	-148.924	-0.191	0.015
-744.156	-46.164	0.114	-0.057
-743.142	139.058	-0.036	0.048
-742.127	800.000	-0.064	0.271
-741.112	-31.716	-0.058	-0.033
-740.098	-111.374	-0.129	0.026
-739.083	39.271	0.027	0.024
-738.069	-121.940	0.088	0.015
-737.054	-58.838	0.194	0.085
-736.039	-43.756	-0.286	-0.145
-735.025	-28.209	-0.227	-0.132
-734.010	134.525	-0.232	-0.303
-732.996	-200.000	0.005	-0.162
-731.981	-200.000	0.083	-0.391
-730.966	-200.000	-0.069	-0.355
-729.952	-200.000	0.052	-0.290
-728.937	-55.465	-0.144	-0.065
-727.923	-57.033	-0.228	-0.101
-726.908	560.420	-0.061	-0.148
-725.894	511.058	-0.142	0.332
-724.879	800.000	0.089	-0.319
-723.864	-200.000	-0.004	0.042
-722.850	143.593	-0.125	-0.167
-721.835	94.986	-0.280	-0.321
-720.821	35.216	0.171	-0.151
-719.806	374.553	0.078	0.161
-718.791	140.983	-0.074	-0.099
-717.777	-87.466	0.172	-0.052
-716.762	268.686	-0.085	0.150
-715.748	-135.727	-0.139	-0.017
-714.733	168.969	-0.094	-0.135
-713.718	-138.701	0.281	-0.031
-712.704	99.361	-0.256	0.297
-711.689	4.383	-0.259	0.191
-710.675	133.555	-0.071	-0.093
-709.660	-67.707	-0.122	-0.048
-708.645	-145.090	-0.087	0.008
-707.631	164.387	0.101	0.143
-706.616	82.522	0.231	0.252
-705.602	573.719	-0.141	-0.345
-704.587	-67.883	0.090	0.035
-703.572	800.000	0.054	-0.195
-702.558	-4.126	0.248	-0.173
-701.543	-200.000	-0.047	-0.319
-700.529	798.533	0.067	-0.187
-699.514	-42.797	0.326	0.166
-698.499	-59.781	-0.324	0.140
-697.485	800.000	-0.038	-0.136
-696.470	247.663	-0.085	-0.144
-695.456	652.777	0.084	-0.217
-694.441	3.761	0.300	0.220
-693.426	-30.310	-0.360	-0.205
-692.412	-2.638	0.289	0.203
-691.397	360.274	0.074	-0.149
-690.383	-85.228	0.279	-0.087
-689.368	-19.492	0.034	-0.021
-688.354	-124.202	-0.163	0.026
-687.339	204.466	-0.094	0.146
-686.324	55.430	-0.351	-0.342
-685.310	-128.288	-0.168	-0.024
-684.295	83.298	-0.056	0.061
-683.281	800.000	-0.067	0.206
-682.266	89.729	-0.045	0.050
-681.251	18.798	0.413	-0.332
-680.237	-73.500	-0.318	0.117
-679.222	800.000	0.083	0.333
-678.208	800.000	-0.132	-0.416
-677.193	-126.575	0.244	0.036
-676.178	113.451	-0.019	-0.023
-675.164	445.060	-0.100	-0.220
-674.149	-1.751	0.239	-0.169
-673.135	20.109	-0.178	-0.144
-672.120	-200.000	0.040	-0.259
-671.105	35.367	-0.081	0.071
-670.091	-2.021	-0.228	0.161
-669.076	203.391	0.106	-0.164
-668.062	-200.000	-0.014	0.098
-667.047	-89.109	-0.258	-0.077
-666.032	-72.152	0.268	0.100
-665.018	-14.552	0.066	-0.043
-664.003	-99.726	-0.042	0.010
-662.989	800.000	0.091	-0.396
-661.974	-135.405	-0.226	0.027
-660.959	-175.774	-0.082	-0.002
-659.945	-74.747	0.145	-0.052
-658.930	-64.349	-0.227	0.093
-657.916	-85.991	0.351	-0.109
-656.901	-76.047	-0.081	-0.029
-655.886	800.000	0.118	0.414
-654.872	-200.000	0.047	0.220
-653.857	-200.000	-0.088	0.389
-652.843	103.718	0.078	-0.092
-651.828	7.958	0.051	-0.039
-650.814	167.473	-0.085	-0.121
-649.799	-16.462	0.169	-0.108
-648.784	88.488	0.173	-0.193
-647.770	119.115	-0.330	-0.409
-646.755	-200.000	-0.042	-0.349
-645.741	340.844	-0.200	0.392
-644.726	-63.000	-0.165	0.068
-643.711	169.417	0.212	0.303
-642.697	83.481	-0.175	0.192
-641.682	422.415	0.257	-0.553
-640.668	523.584	-0.024	0.056
-639.653	171.940	-0.055	-0.080
-638.638	319.600	-0.193	-0.366
-637.624	-61.515	-0.235	-0.099
-636.609	21.654	-0.178	-0.145
-635.595	-103.108	-0.402	-0.095
-634.580	800.000	0.065	-0.238
-633.565	-200.000	0.042	0.309
-632.551	-200.000	-0.045	-0.415
-631.536	179.901	-0.221	-0.325
-630.522	800.000	-0.036	0.108
-629.507	41.301	-0.108	-0.098
-628.492	293.055	0.047	-0.086
-627.478	800.000	-0.037	-0.136
-626.463	220.577	0.204	-0.328
-625.449	3.306	-0.099	-0.072
-624.434	105.234	0.244	-0.289
-623.419	199.815	-0.053	-0.081
-622.405	-95.431	-0.052	-0.014
-621.390	1.263	0.198	0.142
-620.376	150.886	-0.098	-0.133
-619.361	588.953	0.069	-0.171
-618.346	-168.251	0.142	-0.005
-617.332	800.000	-0.173	0.634
-616.317	800.000	-0.046	0.146
-615.303	-200.000	0.025	0.131
-614.288	140.925	0.137	0.181
-613.273	-200.000	0.010	0.205
-612.259	576.399	-0.037	0.090
-611.244	83.741	-0.174	0.190
-610.230	412.157	-0.068	0.145
-609.215	-200.000	-0.059	-0.330
-608.201	183.335	0.142	-0.211
-607.186	800.000	-0.186	-0.605
-606.171	800.000	-0.101	0.291
-605.157	-200.000	0.007	-0.187
-604.142	176.136	0.020	-0.029
-603.128	210.276	0.188	-0.296
-602.113	-200.000	0.011	-0.127
-601.098	-11.265	0.147	-0.097
-600.084	-200.000	-0.020	0.117
-599.069	-103.159	-0.220	-0.052
-598.055	800.000	0.071	0.312
-597.040	-131.035	-0.074	-0.010
-596.025	68.341	-0.144	-0.147
-595.011	162.906	0.232	0.327
-593.996	532.879	-0.062	-0.147
-592.982	-200.000	0.016	-0.229
-591.967	13.934	0.219	0.171
-590.952	-200.000	0.009	-0.216
-589.938	800.000	0.098	-0.272
-588.923	-98.855	-0.209	-0.053
-587.909	-200.000	0.011	-0.332
-586.894	-93.024	-0.180	0.050
-585.879	-82.676	0.193	-0.063
-584.865	-73.270	0.390	0.143
-583.850	219.696	-0.116	0.185
-582.836	458.711	-0.126	0.281
-581.821	70.953	0.214	0.221
-580.806	84.981	-0.075	0.082
-579.792	-200.000	-0.005	0.064
-578.777	568.476	0.120	-0.291
-577.763	-200.000	0.004	0.033
-576.748	-0.414	-0.446	-0.317
-575.733	104.966	-0.082	-0.097
-574.719	-200.000	0.101	0.448
-573.704	-6.607	0.185	-0.126
-572.690	-156.870	-0.143	0.009
-571.675	-200.000	-0.038	-0.197
-570.661	800.000	-0.081	-0.236
-569.646	-14.184	0.403	-0.260
-568.631	800.000	-0.101	0.344
-567.617	-56.636	0.146	0.065
-566.602	-103.268	0.166	0.039
-565.588	-76.415	0.120	0.042
-564.573	426.984	0.180	0.387
-563.558	-200.000	-0.057	0.255
-562.544	29.365	-0.067	-0.057
-561.529	42.866	-0.247	0.225
-560.515	43.526	0.168	0.154
-559.500	-56.107	-0.114	-0.051
-558.485	12.020	0.124	0.095
-557.471	-200.000	0.019	-0.159
-556.456	-121.061	-0.174	-0.029
-555.442	-200.000	0.002	0.045
-554.427	800.000	0.074	-0.213
-553.412	87.832	0.166	-0.184
-552.398	-200.000	0.048	-0.242
-551.383	116.887	0.255	0.313
-550.369	5.744	-0.163	-0.120
-549.354	-121.175	0.340	-0.057
-548.339	-114.856	0.165	-0.031
-547.325	726.113	0.054	-0.145
-546.310	-74.779	0.223	-0.080
-545.296	212.189	-0.211	-0.333
-544.281	27.942	-0.329	-0.277
-543.266	-200.000	0.024	-0.228
-542.252	-36.150	-0.128	0.069
-541.237	-200.000	-0.267	-0.000
-540.223	-180.201	0.207	0.004
-539.208	800.000	0.036	0.104
-538.193	72.405	-0.256	0.267
-537.179	-59.781	0.043	0.018
-536.164	121.922	-0.192	0.239
-535.150	-177.762	0.258	-0.006
-534.135	-200.000	-0.013	0.156
-533.121	-31.700	-0.187	-0.105
-532.106	-28.976	-0.096	0.055
-531.091	13.994	-0.274	0.213
-530.077	421.494	0.057	0.122
-529.062	-169.123	0.108	0.004
-528.048	56.063	-0.111	-0.107
-527.033	6.718	-0.193	-0.143
-526.018	-118.769	-0.268	0.047
-525.004	-39.520	-0.032	0.017
-523.989	118.673	-0.055	0.067
-522.975	-168.120	-0.279	-0.011
-521.960	-47.715	0.115	-0.056
-520.945	146.991	0.229	-0.308
-519.931	465.537	0.139	-0.310
-518.916	-200.000	-0.017	0.147
-517.902	-81.896	0.103	-0.034
-516.887	-123.894	-0.115	-0.018
-515.872	-98.099	0.057	0.015
-514.858	75.149	-0.169	0.177
-513.843	-112.225	0.268	0.054
-512.829	-55.192	-0.326	0.146
-511.814	800.000	0.044	-0.161
-510.799	-200.000	0.003	0.136
-509.785	-105.794	0.091	-0.021
-508.770	0.657	-0.255	0.182
-507.756	-117.261	-0.031	0.006
-506.741	-72.272	-0.438	0.162
-505.726	-120.959	-0.217	-0.036
-504.712	-48.163	0.027	0.013
-503.697	318.779	-0.113	-0.214
-502.683	133.565	0.147	-0.190
-501.668	-29.178	-0.231	-0.132
-500.653	325.297	0.039	-0.074
-499.639	167.248	0.131	-0.185
-498.624	21.121	-0.369	-0.299
-497.610	-126.057	-0.184	-0.028
-496.595	-142.323	-0.093	0.009
-495.581	800.000	0.106	0.303
-494.566	788.993	0.009	0.025
-493.551	135.037	0.174	0.225
-492.537	131.654	-0.280	0.359
-491.522	-31.889	0.288	-0.161
-490.508	-69.783	-0.083	0.032
-489.493	-200.000	0.002	-0.244
-488.478	1.605	0.158	-0.113
-487.464	-200.000	-0.056	-0.481
-486.449	-200.000	0.039	0.416
-485.435	-200.000	0.009	0.123
-484.420	-87.079	-0.137	-0.042
-483.405	148.604	0.220	0.297
-482.391	-183.649	-0.113	0.002
-481.376	122.830	0.110	0.137
-480.362	-200.000	-0.015	-0.272
-479.347	-95.257	-0.109	-0.029
-478.332	9.981	-0.260	0.197
-477.318	-116.303	0.190	0.035
-476.303	-105.200	0.228	0.052
-475.289	-76.804	0.283	-0.099
-474.274	184.568	-0.142	0.210
-473.259	-200.000	-0.005	0.046
-472.245	-109.502	0.201	0.042
-471.230	-200.000	-0.047	-0.301
-470.216	800.000	0.028	0.118
-469.201	408.637	0.069	-0.146
-468.186	-200.000	0.001	-0.497
-467.172	-139.996	-0.316	-0.033
-466.157	101.594	-0.246	-0.286
-465.143	-200.000	-0.035	0.266
-464.128	-200.000	-0.032	0.249
-463.113	739.523	-0.074	-0.197
-462.099	134.740	0.095	-0.123
-461.084	4.564	-0.203	0.149
-460.070	-18.458	0.139	-0.086
-459.055	-200.000	-0.001	0.077
-458.040	119.530	-0.095	0.117
-457.026	-125.050	0.205	0.031
-456.011	-1.006	-0.058	-0.041
-454.997	92.047	0.185	0.207
-453.982	-200.000	0.035	-0.278
-452.968	-33.279	-0.445	-0.245
-451.953	25.930	-0.008	0.007
-450.938	-90.917	-0.516	-0.148
-449.924	209.280	0.034	0.053
-448.909	-200.000	-0.013	-0.288
-447.895	-39.366	0.392	0.205
-446.880	-200.000	0.025	0.186
-445.865	-12.679	-0.272	-0.177
-444.851	-200.000	-0.017	-0.103
-443.836	72.579	-0.034	0.036
-442.822	78.752	-0.029	-0.031
-441.807	-30.077	-0.136	0.077
-440.792	59.876	-0.239	0.235
-439.778	317.470	0.102	0.192
-438.763	207.102	-0.143	0.221
-437.749	735.528	0.050	0.133
-436.734	-80.477	0.093	0.031
-435.719	746.964	0.152	0.408
-434.705	769.418	0.059	0.161
-433.690	-15.689	0.358	0.227
-432.676	800.000	-0.047	-0.197
-431.661	-3.664	0.187	-0.129
-430.646	-90.040	0.206	-0.060
-429.632	-104.623	0.114	-0.026
-428.617	-36.314	0.178	0.095
-427.603	94.658	0.142	0.161
-426.588	-200.000	-0.026	0.338
-425.573	165.171	-0.214	-0.301
-424.559	461.637	0.183	0.406
-423.544	245.755	-0.091	-0.152
-422.530	293.348	-0.157	0.284
-421.515	5.272	-0.263	0.193
-420.500	-5.603	-0.051	0.035
-419.486	800.000	0.063	-0.271
-418.471	172.300	-0.058	-0.083
-417.457	505.966	0.106	-0.245
-416.442	46.642	0.153	0.141
-415.428	84.337	0.106	-0.116
-414.413	800.000	0.026	0.072
-413.398	-58.061	-0.079	0.034
-412.384	800.000	0.058	-0.176
-411.369	-135.464	-0.134	0.016
-410.355	-28.208	-0.335	0.192
-409.340	-38.800	0.252	0.132
-408.325	-87.728	-0.149	0.045
-407.311	113.390	-0.054	0.065
-406.296	249.257	0.137	-0.230
-405.282	374.336	0.141	0.284
-404.267	2.971	-0.064	-0.046
-403.252	-200.000	0.000	0.180
-402.238	-36.649	0.308	-0.165
-401.223	-163.781	0.331	-0.015
-400.209	53.590	0.217	-0.206
-399.194	-28.820	-0.266	-0.152
-398.179	124.670	-0.087	-0.109
-397.165	317.972	0.238	0.448
-396.150	-78.373	0.292	-0.099
-395.136	-200.000	-0.025	0.124
-394.121	-200.000	-0.050	0.343
-393.106	-146.468	0.254	0.022
-392.092	800.000	0.138	-0.433
-391.077	-20.693	0.037	-0.022
-390.063	-13.363	-0.181	0.117
-389.048	-25.757	-0.246	0.144
-388.033	-55.196	0.211	0.094
-387.019	248.341	-0.140	-0.234
-386.004	285.370	-0.217	0.388
-384.990	-71.227	-0.398	-0.148
-383.975	-200.000	-0.001	0.015
-382.960	-41.110	-0.248	-0.127
-381.946	-179.092	-0.056	0.001
-380.931	40.693	0.080	0.071
-379.917	-80.884	0.348	0.114
-378.902	161.299	-0.127	-0.177
-377.888	-124.741	0.155	-0.024
-376.873	-200.000	0.021	-0.151
-375.858	89.020	-0.249	0.275
-374.844	-200.000	-0.031	-0.160
-373.829	67.296	0.140	-0.142
-372.815	-139.065	0.186	-0.020
-371.800	58.638	-0.193	0.188
-370.785	49.391	0.162	0.151
-369.771	-200.000	-0.007	-0.232
-368.756	-200.000	-0.013	0.166
-367.742	215.211	-0.286	0.450
-366.727	-120.000	0.430	0.073
-365.712	60.993	-0.182	-0.180
-364.698	-74.575	0.083	-0.030
-363.683	-46.989	0.130	0.063
-362.669	-43.591	-0.360	-0.180
-361.654	568.341	0.029	0.069
-360.639	344.536	0.149	-0.291
-359.625	114.714	-0.304	-0.368
-358.610	800.000	0.052	-0.176
-357.596	-200.000	-0.390	0.001
-356.581	219.079	0.123	0.195
-355.566	735.204	0.073	0.195
-354.552	-170.674	0.191	0.007
-353.537	-188.079	0.086	0.001
-352.523	-127.568	0.035	0.005
-351.508	309.326	0.129	0.239
-350.493	-56.970	-0.196	0.086
-349.479	193.522	0.070	-0.105
-348.464	140.898	-0.111	0.145
-347.450	-120.756	0.077	0.013
-346.435	86.571	0.077	-0.084
-345.420	223.069	-0.193	-0.308
-344.406	-40.584	0.273	-0.141
-343.391	233.669	-0.134	0.219
-342.377	-24.180	-0.075	-0.044
-341.362	-128.857	-0.198	-0.028
-340.348	-36.681	-0.235	0.125
-339.333	-145.358	-0.183	0.016
-338.318	526.251	0.112	0.261
-337.304	321.975	0.090	-0.171
-336.289	-116.479	0.208	0.038
-335.275	-59.625	0.103	0.044
-334.260	-124.835	-0.306	0.047
-333.245	348.596	0.102	-0.200
-332.231	-122.407	-0.251	-0.040
-331.216	-108.711	0.209	0.044
-330.202	400.707	0.012	0.026
-329.187	-127.771	-0.252	0.036
-328.172	-200.000	-0.016	0.242
-327.158	-164.224	0.249	-0.011
-326.143	-200.000	0.032	0.387
-325.129	800.000	-0.142	-0.426
-324.114	626.711	-0.093	0.232
-323.099	-56.641	0.179	0.079
-322.085	-139.417	-0.106	0.011
-321.070	-157.465	0.343	-0.020
-320.056	-116.212	0.073	-0.013
-319.041	-200.000	-0.019	-0.232
-318.026	581.868	0.048	0.117
-317.012	-53.458	-0.229	0.104
-315.997	-200.000	-0.104	0.000
-314.983	-30.793	0.248	0.139
-313.968	468.326	0.200	-0.445
-312.953	-44.275	0.142	0.071
-311.939	-64.317	-0.044	-0.018
-310.924	340.577	0.039	-0.075
-309.910	-140.641	0.270	-0.028
-308.895	-109.528	0.254	0.053
-307.880	194.662	-0.017	0.025
-306.866	-32.132	0.169	-0.093
-305.851	-70.517	0.202	-0.075
-304.837	-32.660	-0.226	-0.124
-303.822	800.000	0.011	-0.044
-302.807	-44.440	0.014	-0.007
-301.793	-200.000	0.003	-0.130
-300.778	385.701	0.084	-0.171
-299.764	359.342	0.125	0.248
-298.749	-78.400	-0.190	0.064
-297.735	-70.778	-0.163	-0.061
-296.720	78.172	0.041	-0.044
-295.705	19.756	0.166	0.132
-294.691	800.000	0.050	0.185
-293.676	-94.385	-0.242	-0.065
-292.662	58.354	-0.258	-0.251
-291.647	-139.076	-0.337	-0.036
-290.632	93.298	-0.121	-0.135
-289.618	69.786	-0.097	0.099
-288.603	-200.000	-0.038	0.337
-287.589	-7.408	0.412	-0.276
-286.574	-193.613	-0.221	-0.002
-285.559	246.679	-0.226	-0.377
-284.545	-200.000	-0.030	0.308
-283.530	-169.938	-0.142	-0.005
-282.516	253.026	-0.193	-0.326
-281.501	-182.581	-0.099	0.002
-280.486	135.650	0.085	-0.109
-279.472	-28.226	-0.138	0.079
-278.457	-200.000	0.029	0.143
-277.443	-161.496	0.108	-0.005
-276.428	-200.000	0.004	0.019
-275.413	-109.279	0.225	-0.047
-274.399	42.583	0.156	0.140
-273.384	-200.000	-0.032	0.207
-272.370	271.978	0.082	-0.143
-271.355	5.788	0.141	-0.103
-270.340	-200.000	0.034	0.207
-269.326	-104.697	-0.288	0.066
-268.311	-200.000	0.010	0.256
-267.297	800.000	-0.099	0.379
-266.282	-31.737	0.352	0.195
-265.267	-42.183	-0.098	-0.050
-264.253	285.193	-0.136	0.242
-263.238	-34.769	0.272	-0.147
-262.224	-91.113	0.212	0.060
-261.209	-200.000	-0.009	0.148
-260.195	281.798	-0.019	-0.034
-259.180	52.984	0.151	0.142
-258.165	409.424	-0.072	0.151
-257.151	463.477	-0.070	0.155
-256.136	-84.624	0.110	0.034
-255.122	-200.000	0.031	-0.244
-254.107	46.270	0.095	-0.087
-253.092	-107.400	-0.079	0.017
-252.078	-72.279	0.153	-0.056
-251.063	677.834	-0.050	-0.128
-250.049	271.911	-0.063	0.109
-249.034	168.630	0.168	0.237
-248.019	642.781	0.058	0.147
-247.005	-200.000	-0.028	0.264
-245.990	-103.926	0.195	0.045
-244.976	-161.295	0.420	0.022
-243.961	800.000	-0.044	0.133
-242.946	444.306	0.144	0.313
-241.932	800.000	-0.061	0.203
-240.917	-200.000	-0.063	-0.375
-239.903	-200.000	-0.036	-0.166
-238.888	80.324	-0.175	-0.186
-237.873	88.975	-0.236	-0.259
-236.859	-200.000	0.012	0.405
-235.844	151.715	-0.094	0.126
-234.830	-200.000	-0.091	0.425
-233.815	-200.000	-0.004	-0.089
-232.800	800.000	-0.141	-0.504
-231.786	352.767	0.232	-0.453
-230.771	-200.000	0.064	-0.443
-229.757	-160.725	-0.169	-0.009
-228.742	10.590	-0.181	-0.136
-227.727	-154.440	-0.266	-0.018
-226.713	-137.772	0.170	-0.019
-225.698	52.327	0.319	0.300
-224.684	-200.000	-0.027	-0.197
-223.669	323.383	-0.202	-0.381
-222.655	139.825	-0.004	0.006
-221.640	-200.000	-0.043	0.305
-220.625	8.926	-0.163	-0.121
-219.611	800.000	-0.016	-0.063
-218.596	122.085	0.142	-0.175
-217.582	36.573	0.029	-0.025
-216.567	44.044	-0.192	-0.174
-215.552	516.750	-0.093	0.215
-214.538	-200.000	-0.008	0.050
-213.523	-113.822	0.335	0.064
-212.509	77.920	0.149	0.156
-211.494	113.048	-0.144	-0.172
-210.479	231.076	-0.175	0.282
-209.465	73.253	0.068	0.070
-208.450	11.817	-0.089	-0.067
-207.436	270.271	0.283	0.490
-206.421	421.094	0.133	0.281
-205.406	-123.330	0.267	-0.042
-204.392	-200.000	0.020	0.107
-203.377	-135.210	0.200	-0.024
-202.363	-24.845	0.178	0.104
-201.348	-55.323	0.088	0.039
-200.333	-200.000	0.032	-0.240
-199.319	204.735	-0.009	-0.014
-198.304	60.397	-0.152	-0.148
-197.290	41.862	0.334	-0.298
-196.275	-200.000	-0.004	0.128
-195.260	-92.985	-0.023	0.006
-194.246	-200.000	-0.050	0.335
-193.231	-200.000	0.031	-0.136
-192.217	-137.513	-0.173	-0.019
-191.202	291.690	0.079	0.141
-190.187	-72.332	-0.420	0.153
-189.173	634.970	-0.045	0.113
-188.158	128.866	-0.102	0.129
-187.144	-34.964	0.212	-0.114
-186.129	800.000	0.098	0.291
-185.114	-89.884	-0.198	-0.057
-184.100	250.936	0.244	-0.408
-183.085	402.599	0.018	-0.036
-182.071	-21.509	0.298	0.179
-181.056	-200.000	0.006	-0.029
-180.042	-7.780	0.078	-0.052
-179.027	-152.559	-0.167	0.012
-178.012	-0.934	-0.224	-0.156
-176.998	-52.430	-0.177	0.081
-175.983	25.323	-0.108	0.088
-174.969	-94.604	-0.118	-0.032
-173.954	-170.775	0.096	-0.003
-172.939	18.111	0.168	-0.132
-171.925	-140.057	0.335	0.035
-170.910	-134.941	0.112	-0.013
-169.896	-200.000	-0.009	-0.222
-168.881	475.118	0.107	-0.238
-167.866	-98.534	0.175	-0.044
-166.852	-123.226	-0.126	0.020
-165.837	8.519	0.198	0.147
-164.823	-73.613	0.169	-0.061
-163.808	104.247	-0.200	0.232
-162.793	800.000	-0.141	0.395
-161.779	-87.333	-0.172	-0.051
-160.764	9.245	0.325	0.242
-159.750	-55.321	0.223	-0.098
-158.735	-183.948	0.265	-0.004
-157.720	-200.000	-0.051	0.241
-156.706	391.214	-0.048	-0.099
-155.691	1.474	0.159	-0.112
-154.677	444.520	0.043	0.093
-153.662	-110.193	-0.092	0.019
-152.647	279.546	-0.172	-0.301
-151.633	-200.000	-0.001	0.150
-150.618	405.777	0.065	0.136
-149.604	181.999	-0.037	-0.054
-148.589	-31.983	0.255	-0.141
-147.574	621.498	-0.118	-0.292
-146.560	-152.773	-0.182	-0.013
-145.545	-9.917	0.274	0.179
-144.531	-137.406	-0.231	0.026
-143.516	-157.027	-0.116	-0.007
-142.502	800.000	-0.097	0.382
-141.487	71.652	0.153	-0.156
-140.472	193.160	0.028	-0.042
-139.458	32.962	-0.137	-0.117
-138.443	141.241	-0.083	-0.108
-137.429	-91.111	0.214	-0.060
-136.414	-200.000	0.026	0.126
-135.399	548.600	-0.035	0.083
-134.385	-200.000	-0.022	0.279
-133.370	-166.119	0.291	0.012
-132.356	-75.755	0.375	0.131
-131.341	150.845	-0.108	0.144
-130.326	34.843	-0.052	0.045
-129.312	-121.309	-0.133	-0.022
-128.297	31.289	-0.220	-0.186
-127.283	-71.680	-0.477	-0.175
-126.268	-62.044	-0.130	-0.053
-125.253	351.447	0.194	0.377
-124.239	-200.000	-0.029	-0.160
-123.224	65.331	0.209	-0.208
-122.210	281.433	-0.210	-0.370
-121.195	-200.000	-0.010	-0.042
-120.180	-120.892	0.153	0.025
-119.166	-200.000	0.013	-0.397
-118.151	6.305	0.125	0.091
-117.137	-200.000	0.032	-0.142
-116.122	-200.000	0.016	0.276
-115.107	257.138	0.099	0.167
-114.093	-102.666	0.329	0.077
-113.078	-79.339	0.170	0.057
-112.064	511.493	-0.164	-0.375
-111.049	800.000	0.031	0.127
-110.034	-200.000	-0.006	0.293
-109.020	-113.667	-0.143	-0.027
-108.005	-200.000	-0.030	0.168
-106.991	-200.000	0.035	0.357
-105.976	116.397	-0.116	-0.140
-104.962	138.313	-0.250	0.322
-103.947	393.978	-0.125	0.256
-102.932	108.117	-0.108	-0.126
-101.918	169.246	0.153	0.214
-100.903	-84.594	0.317	0.098
-99.889	3.750	0.125	0.090
-98.874	-27.862	0.341	0.194
-97.859	800.000	-0.034	0.095
-96.845	-24.064	0.080	0.047
-95.830	481.444	0.059	-0.131
-94.816	-128.622	-0.353	-0.049
-93.801	-200.000	0.019	0.237
-92.786	-31.867	0.229	0.126
-91.772	800.000	0.024	0.074
-90.757	157.044	0.102	-0.138
-89.743	96.339	-0.055	0.062
-88.728	-80.550	0.176	-0.058
-87.713	-120.598	0.138	-0.023
-86.699	800.000	-0.032	0.089
-85.684	-101.068	0.103	-0.025
-84.670	550.941	-0.048	-0.113
-83.655	-113.268	-0.117	-0.022
-82.640	133.909	0.280	-0.355
-81.626	800.000	-0.014	0.047
-80.611	49.970	0.073	0.067
-79.597	61.051	-0.211	0.205
-78.582	-109.284	-0.070	0.015
-77.567	368.192	0.140	-0.278
-76.553	-200.000	-0.029	-0.368
-75.538	-55.562	0.380	-0.167
-74.524	116.570	-0.082	0.098
-73.509	-200.000	0.022	0.290
-72.494	22.862	-0.063	-0.051
-71.480	66.921	-0.132	-0.131
-70.465	-102.215	0.323	0.076
-69.451	-119.195	0.398	-0.068
-68.436	-200.000	-0.130	0.000
-67.422	-200.000	-0.003	0.099
-66.407	61.751	0.210	-0.205
-65.392	-200.000	-0.104	0.000
-64.378	104.431	0.349	0.403
-63.363	48.667	0.250	0.230
-62.349	110.090	0.149	-0.175
-61.334	-14.500	-1.297	-0.818
-60.319	122.248	0.525	0.643
-59.305	358.452	-0.520	-1.017
-58.290	-200.000	0.147	1.412
-57.276	315.510	0.871	1.609
-56.261	-200.000	105.837	612.091
-55.246	500.922	1511.005	3417.305
-54.232	176.090	2701.941	3843.890
-53.217	110.367	2185.194	2572.523
-52.203	40.021	1704.016	1500.047
-51.188	32.481	1513.984	1281.619
-50.173	30.190	1487.181	1243.536
-49.159	51.309	1543.281	1435.375
-48.144	51.558	1560.032	1452.597
-47.130	32.715	1516.063	1284.772
-46.115	29.740	1500.612	1251.522
-45.100	29.582	1496.967	1247.368
-44.086	29.466	1495.092	1244.972
-43.071	29.425	1493.107	1242.995
-42.057	29.423	1491.166	1241.319
-41.042	29.402	1489.669	1239.877
-40.027	29.458	1488.838	1239.511
-39.013	29.401	1487.251	1237.761
-37.998	29.389	1485.162	1235.896
-36.984	29.447	1484.166	1235.403
-35.969	29.328	1483.382	1233.906
-34.954	29.365	1482.108	1233.041
-33.940	29.356	1480.777	1231.825
-32.925	29.423	1479.399	1231.083
-31.911	29.488	1477.074	1229.530
-30.896	29.520	1475.972	1228.776
-29.881	29.573	1475.056	1228.314
-28.867	29.446	1473.761	1226.349
-27.852	29.449	1472.638	1225.380
-26.838	29.495	1471.106	1224.365
-25.823	29.470	1469.658	1222.944
-24.809	29.484	1468.044	1221.644
-23.794	29.391	1467.189	1220.273
-22.779	29.543	1465.361	1219.707
-21.765	29.470	1464.324	1218.311
-20.750	29.483	1463.524	1217.684
-19.736	29.532	1462.032	1216.716
-18.721	29.517	1460.867	1215.604
-17.706	29.447	1459.789	1214.193
-16.692	29.400	1458.989	1213.172
-15.677	29.508	1457.763	1212.815
-14.663	29.480	1456.560	1211.584
-13.648	29.451	1455.637	1210.577
-12.633	29.415	1455.201	1209.930
-11.619	29.352	1454.148	1208.595
-10.604	29.439	1453.177	1208.308
-9.590	29.440	1452.438	1207.651
-8.575	29.425	1451.649	1206.852
-7.560	29.442	1450.372	1205.855
-6.546	29.426	1449.803	1205.228
-5.531	29.307	1449.353	1204.026
-4.517	29.293	1448.665	1203.314
-3.502	29.338	1447.175	1202.326
-2.487	29.446	1445.888	1201.911
-1.473	29.437	1444.932	1201.010
-0.458	29.406	1443.539	1199.602
0.556	27.096	1434.272	1189.204
1.571	24.289	1409.868	1150.776
2.586	21.121	1351.349	1083.279
3.600	19.786	1270.521	1010.600
4.615	18.713	1225.421	968.590
5.629	16.383	1170.990	912.907
6.644	8.269	1087.108	806.581
7.659	1.088	1046.554	741.386
8.673	-0.045	1041.021	731.888
9.688	-0.296	1037.903	728.415
10.702	-0.410	1035.826	726.338
11.717	-0.418	1034.361	725.207
12.731	3.061	1037.690	744.344
13.746	11.883	1050.399	796.469
14.761	18.624	1059.049	835.913
15.775	20.264	1061.068	845.431
16.790	20.633	1060.597	846.778
17.804	20.312	1060.143	844.776
18.819	20.254	1058.483	843.098
19.834	20.317	1057.974	842.924
20.848	20.410	1057.743	843.114
21.863	20.552	1057.512	843.545
22.877	20.390	1057.034	842.304
23.892	20.418	1056.322	841.798
24.907	20.438	1055.265	840.977
25.921	20.423	1055.135	840.727
26.936	20.514	1053.896	840.105
27.950	20.450	1052.789	838.840
28.965	20.362	1051.717	837.486
29.980	20.314	1049.710	835.585
30.994	20.253	1048.719	834.430
32.009	20.483	1047.513	834.502
33.023	20.569	1046.818	834.286
34.038	20.222	1045.970	831.870
35.053	20.341	1044.751	831.398
36.067	20.567	1043.993	831.805
37.082	20.528	1043.462	831.121
38.096	20.567	1042.548	830.504
39.111	20.670	1041.677	830.229
40.126	20.820	1040.631	830.039
41.140	20.711	1039.465	828.514
42.155	20.442	1037.637	825.707
43.169	20.006	1036.775	822.877
44.184	20.192	1035.460	822.644
45.199	20.201	1034.737	822.037
46.213	20.162	1033.364	820.687
47.228	20.098	1032.646	819.744
48.242	20.219	1032.279	819.951
49.257	20.339	1030.979	819.414
50.271	20.395	1030.212	818.997
51.286	20.540	1029.777	819.261
52.301	20.508	1028.828	818.283
53.315	20.465	1028.334	817.616
54.330	20.471	1027.435	816.856
55.344	20.557	1025.787	815.875
56.359	20.469	1025.629	815.264
57.374	20.544	1024.412	814.578
58.388	20.291	1023.667	812.729
59.403	20.257	1022.742	811.762
60.417	20.389	1021.986	811.708
61.432	20.127	1021.318	809.880
62.447	20.189	1020.762	809.659
63.461	20.345	1019.856	809.594
64.476	20.280	1019.741	809.130
65.490	20.456	1017.809	808.346
66.505	20.274	1017.067	806.840
67.520	20.224	1016.622	806.179
68.534	20.316	1015.990	806.038
69.549	20.179	1014.906	804.472
70.563	19.900	1013.635	802.097
71.578	19.802	1012.917	801.004
72.593	19.811	1011.687	800.005
73.607	19.758	1011.024	799.162
74.622	19.720	1009.935	798.057
75.636	20.018	1009.293	798.852
76.651	20.119	1008.825	798.878
77.666	20.178	1007.373	797.928
78.680	20.064	1006.237	796.432
79.695	20.074	1005.777	796.044
80.709	20.167	1005.479	796.164
81.724	20.325	1004.734	796.231
82.739	20.160	1003.322	794.284
83.753	20.186	1002.526	793.705
84.768	20.406	1001.939	794.176
85.782	20.577	1001.617	794.630
86.797	20.756	1000.971	794.866
87.812	20.766	999.778	793.893
88.826	20.660	998.600	792.404
89.841	20.694	997.877	791.918
90.855	20.693	997.324	791.402
91.870	20.781	996.368	790.976
92.884	20.587	995.398	789.252
93.899	20.647	994.699	788.900
94.914	20.592	993.158	787.359
95.928	20.615	992.583	786.940
96.943	20.605	991.710	786.131
97.957	20.473	990.601	784.588
98.972	20.170	989.833	782.542
99.987	19.977	988.905	780.869
101.001	20.118	987.715	780.496
102.016	20.501	987.249	781.780
103.030	20.429	986.805	781.039
104.045	20.375	985.084	779.365
105.060	20.193	984.103	777.701
106.074	20.006	983.186	776.070
107.089	20.194	981.696	775.665
108.103	20.421	982.050	776.891
109.118	20.632	980.682	776.687
110.133	20.345	979.697	774.553
111.147	20.162	978.471	772.704
112.162	20.131	977.299	771.569
113.176	20.019	975.834	769.846
114.191	20.061	975.206	769.471
115.206	20.190	974.193	769.176
116.220	19.858	973.061	766.744
117.235	19.747	971.941	765.303
118.249	19.977	971.291	765.737
119.264	20.014	970.488	765.201
120.279	19.952	969.264	763.894
121.293	19.810	968.709	762.766
122.308	19.980	967.851	762.769
123.322	20.007	967.473	762.521
124.337	19.999	966.099	761.339
125.352	19.985	964.240	759.745
126.366	19.486	963.092	756.586
127.381	19.278	961.270	754.177
128.395	19.744	961.381	756.236
129.410	20.282	961.154	758.344
130.424	20.424	960.173	758.121
131.439	20.357	959.027	756.857
132.454	20.263	958.119	755.666
133.468	20.454	957.145	755.662
134.483	20.427	955.988	754.564
135.497	20.397	955.627	754.082
136.512	20.568	955.508	754.664
137.527	20.571	954.145	753.535
138.541	20.592	953.482	753.035
139.556	20.638	952.710	752.557
140.570	20.543	952.136	751.625
141.585	20.664	950.886	751.094
142.600	20.626	950.483	750.547
143.614	20.610	949.199	749.394
144.629	20.637	948.544	748.928
145.643	20.905	947.941	749.539
146.658	20.738	946.940	747.965
147.673	20.644	945.624	746.457
148.687	20.643	944.699	745.655
149.702	20.630	943.216	744.361
150.716	20.414	942.412	742.737
151.731	20.284	942.141	741.906
152.746	20.582	940.732	741.998
153.760	20.693	940.213	741.998
154.775	20.743	939.330	741.450
155.789	20.834	938.252	740.918
156.804	20.833	937.209	740.029
157.819	20.744	936.412	738.955
158.833	20.813	935.470	738.437
159.848	20.856	934.995	738.179
160.862	20.910	934.186	737.706
161.877	20.803	932.963	736.222
162.892	20.694	932.492	735.326
163.906	20.789	931.886	735.180
164.921	20.840	930.908	734.559
165.935	20.660	929.861	732.911
166.950	20.758	928.633	732.292
167.964	20.765	927.787	731.587
168.979	20.810	926.568	730.752
169.994	20.775	925.501	729.698
171.008	20.615	924.482	728.162
172.023	20.733	923.615	727.906
173.037	20.882	922.951	727.941
174.052	20.724	921.800	726.312
175.067	20.501	920.919	724.621
176.081	20.525	919.867	723.831
177.096	20.765	919.047	724.118
178.110	20.629	918.761	723.265
179.125	20.393	917.120	720.927
180.140	20.306	915.736	719.417
181.154	20.232	915.465	718.835
182.169	20.219	915.598	718.821
183.183	20.564	914.821	719.576
184.198	20.735	914.636	720.075
185.213	20.722	913.848	719.337
186.227	20.748	912.491	718.309
187.242	20.682	912.458	717.947
188.256	20.826	911.792	717.957
189.271	20.747	910.936	716.890
190.286	20.782	910.582	716.696
191.300	20.674	909.303	715.181
192.315	20.195	907.753	711.934
193.329	19.582	906.495	708.367
194.344	19.164	905.134	705.531
195.359	19.834	905.590	708.567
196.373	20.596	905.706	711.717
197.388	20.741	905.482	712.069
198.402	20.640	904.616	710.916
199.417	20.546	903.530	709.612
200.432	20.677	903.456	710.027
201.446	20.497	902.855	708.757
202.461	20.213	902.365	707.151
203.475	20.168	901.317	706.086
204.490	19.775	899.956	703.360
205.504	18.809	898.289	698.071
206.519	19.173	898.340	699.527
207.534	20.212	898.434	703.755
208.548	20.298	898.002	703.707
209.563	20.709	897.708	705.078
210.577	20.658	896.594	703.933
211.592	20.470	895.716	702.424
212.607	20.825	895.763	703.833
213.621	20.855	895.435	703.633
214.636	20.891	894.213	702.754
215.650	21.015	893.746	702.827
216.665	20.851	893.062	701.566
217.680	20.747	892.787	700.870
218.694	20.944	892.207	701.143
219.709	20.571	891.237	698.822
220.723	20.117	890.461	696.328
221.738	20.465	889.743	697.100
222.753	20.655	889.428	697.553
223.767	20.527	888.599	696.331
224.782	20.725	887.685	696.344
225.796	20.757	887.684	696.410
226.811	21.067	886.258	696.466
227.826	20.573	885.128	693.548
228.840	19.892	883.952	689.853
229.855	19.640	883.781	688.653
230.869	20.027	883.490	689.906
231.884	19.608	882.147	687.131
232.899	19.730	881.456	687.017
233.913	20.476	881.973	690.322
234.928	20.574	881.724	690.455
235.942	20.685	880.353	689.760
236.957	20.807	879.631	689.619
237.972	20.469	878.341	687.208
238.986	20.273	878.418	686.434
240.001	20.380	878.000	686.468
241.015	20.332	877.401	685.750
242.030	20.438	876.563	685.455
243.045	20.670	875.881	685.775
244.059	20.574	875.381	684.942
245.074	20.876	874.710	685.546
246.088	20.816	874.034	684.718
247.103	20.281	873.369	682.035
248.117	20.345	872.736	681.733
249.132	20.953	872.335	683.746
250.147	21.265	872.178	684.784
251.161	21.319	871.523	684.423
252.176	21.443	871.496	684.825
253.190	21.503	870.372	684.116
254.205	21.497	870.154	683.859
255.220	21.686	869.870	684.315
256.234	21.684	868.776	683.386
257.249	21.500	867.960	681.967
258.263	21.298	867.536	680.784
259.278	21.393	866.840	680.550
260.293	21.404	866.235	680.057
261.307	21.537	866.212	680.497
262.322	21.487	865.166	679.420
263.336	21.437	864.393	678.561
264.351	20.918	862.707	675.166
265.366	19.799	861.268	669.650
266.380	19.410	860.111	667.188
267.395	20.260	860.610	670.802
268.409	21.100	860.391	673.817
269.424	21.097	859.817	673.298
270.439	21.259	859.276	673.438
271.453	21.352	858.793	673.357
272.468	21.320	858.473	672.925
273.482	21.487	858.115	673.226
274.497	21.648	857.279	673.130
275.512	21.543	856.088	671.733
276.526	21.039	854.270	668.315
277.541	21.153	854.185	668.629
278.555	21.412	854.297	669.647
279.570	21.323	853.214	668.398
280.585	20.949	852.685	666.497
281.599	21.154	852.115	666.775
282.614	21.185	851.609	666.439
283.628	20.807	850.605	664.151
284.643	20.585	849.830	662.643
285.657	20.918	849.777	663.812
286.672	20.758	849.278	662.751
287.687	20.301	847.985	659.947
288.701	20.612	848.266	661.289
289.716	21.208	847.710	663.064
290.730	20.708	846.888	660.465
291.745	20.576	845.969	659.189
292.760	20.419	844.640	657.499
293.774	20.301	844.511	656.894
294.789	21.341	844.765	660.970
295.803	21.902	845.027	663.239
296.818	21.783	844.489	662.307
297.833	22.049	843.750	662.674
298.847	21.728	842.606	660.505
299.862	21.303	841.778	658.200
300.876	21.506	841.408	658.616
301.891	21.884	840.754	659.467
302.906	21.996	840.175	659.376
303.920	21.551	839.103	656.805
304.935	21.311	838.337	655.248
305.949	21.674	838.587	656.744
306.964	21.819	838.085	656.837
307.979	21.593	837.177	655.222
308.993	21.450	836.842	654.365
310.008	21.948	836.408	655.831
311.022	21.938	836.369	655.705
312.037	21.886	835.399	654.692
313.052	21.657	835.004	653.472
314.066	21.520	834.317	652.365
315.081	20.858	832.839	648.688
316.095	20.250	831.685	645.470
317.110	20.826	831.645	647.526
318.125	21.574	831.922	650.463
319.139	21.061	831.163	647.907
320.154	20.017	829.054	642.338
321.168	19.694	828.415	640.586
322.183	20.189	828.915	642.750
323.197	21.173	828.924	646.346
324.212	21.326	828.741	646.713
325.227	21.473	828.268	646.829
326.241	21.657	827.812	647.100
327.256	21.619	827.023	646.282
328.270	21.431	826.534	645.152
329.285	21.458	826.022	644.793
330.300	21.268	824.989	643.232
331.314	21.168	824.098	642.112
332.329	21.095	824.161	641.836
333.343	21.511	823.548	642.829
334.358	21.833	822.622	643.230
335.373	21.719	822.342	642.539
336.387	21.847	821.910	642.614
337.402	21.958	821.895	642.950
338.416	22.109	821.256	642.946
339.431	22.013	820.574	642.005
340.446	22.063	819.954	641.646
341.460	22.290	819.614	642.149
342.475	22.293	819.048	641.660
343.489	21.950	818.308	639.776
344.504	22.028	817.546	639.407
345.519	22.168	817.277	639.651
346.533	22.363	816.893	640.003
347.548	22.470	816.741	640.215
348.562	22.735	816.250	640.735
349.577	22.637	815.569	639.790
350.592	22.431	815.091	638.611
351.606	22.424	814.684	638.208
352.621	22.537	814.253	638.226
353.635	22.489	813.173	637.149
354.650	22.390	812.771	636.419
355.665	22.020	812.045	634.455
356.679	20.841	810.373	628.842
357.694	20.791	809.719	628.096
358.708	21.582	809.678	630.860
359.723	21.461	809.388	630.142
360.738	21.769	808.939	630.849
361.752	22.076	808.945	631.900
362.767	22.151	808.470	631.742
363.781	22.433	808.819	632.974
364.796	22.688	808.292	633.421
365.810	22.944	807.511	633.672
366.825	22.885	807.405	633.319
367.840	22.749	807.494	632.848
368.854	22.837	806.177	632.074
369.869	22.386	805.542	629.905
370.883	22.142	805.023	628.572
371.898	22.188	804.201	628.041
372.913	22.047	803.360	626.823
373.927	22.244	803.210	627.355
374.942	22.309	802.337	626.847
375.956	22.363	801.846	626.602
376.971	22.617	801.426	627.123
377.986	22.643	800.956	626.790
379.000	22.766	800.655	626.935
380.015	22.720	799.911	626.134
381.029	22.697	799.424	625.617
382.044	22.519	799.031	624.624
383.059	22.816	798.320	625.064
384.073	22.834	798.032	624.845
385.088	22.826	797.253	624.152
386.102	22.747	796.874	623.520
387.117	22.741	796.197	622.917
388.132	22.469	795.891	621.662
389.146	22.452	794.756	620.661
390.161	21.931	793.850	618.064
391.175	21.877	793.877	617.840
392.190	22.454	793.751	619.717
393.205	22.553	793.135	619.529
394.219	21.558	791.186	614.461
395.234	19.885	789.797	607.460
396.248	19.360	788.672	604.700
397.263	20.428	789.190	608.789
398.278	22.059	790.778	615.685
399.292	22.612	790.284	617.181
400.307	22.201	789.746	615.270
401.321	22.111	789.244	614.510
402.336	22.171	788.900	614.398
403.350	22.385	789.244	615.358
404.365	22.723	789.074	616.353
405.380	23.167	788.466	617.373
406.394	23.513	788.020	618.175
407.409	23.686	787.949	618.666
408.423	23.645	787.195	617.879
409.438	23.433	786.668	616.671
410.453	23.564	786.033	616.574
411.467	23.632	785.788	616.563
412.482	23.586	785.420	616.063
413.496	23.385	784.949	614.941
414.511	23.559	784.524	615.156
415.526	23.517	784.359	614.826
416.540	23.400	783.944	614.041
417.555	23.349	783.638	613.571
418.569	22.994	782.797	611.629
419.584	23.062	781.971	611.164
420.599	23.263	781.722	611.611
421.613	157.397	1363.951	1797.582
422.628	136.029	1448.770	1797.681
