DTS Sentinel unit serial number:	SN413079Multiplexer serial number:	ORYXHardware model number:	OX4-SRSoftware version number:	ORYX F/W v4.00 Oryx Data Collector v3.7.2.0data status	okinstallation	princeton_trtdifferential loss correction	single-endedforward channel	channel 3reverse channel	N/Adate	2019/09/12time	00:22:11forward acquisition time	60.00reverse acquisition time	0.00gamma	496.2192k internal	0.2318k external	0.2318temperature offset calibration	1.0064default loss term (dB/km)	0.3790temperature slope calibration	1.0000multiplexer offset coefficient	1.0000multiplexer slope coefficient	1.0000fibre end	0.00T internal ref (°C)	33.50T ext. ref 1 (°C)	2.04T ext. ref 2 (°C)	27.97length (m)	temperature (°C)	Stokes	anti-Stokes-747.200	-200.000	-0.058	-0.336
-746.185	-53.451	0.324	0.150
-745.171	-139.966	0.110	-0.012
-744.156	728.224	0.098	0.265
-743.142	-200.000	0.015	-0.173
-742.127	-25.939	0.205	-0.122
-741.112	459.842	-0.036	-0.082
-740.098	309.353	-0.146	0.276
-739.083	-143.117	0.288	0.028
-738.069	-200.000	-0.039	0.279
-737.054	60.986	-0.205	-0.206
-736.039	394.288	-0.096	0.202
-735.025	101.265	0.202	0.238
-734.010	-200.000	0.009	0.093
-732.996	413.682	-0.145	-0.312
-731.981	223.634	0.116	-0.189
-730.966	800.000	0.007	-0.021
-729.952	309.082	0.098	-0.185
-728.937	-200.000	0.017	0.218
-727.923	-63.453	-0.182	-0.076
-726.908	-46.624	-0.166	0.082
-725.894	10.502	-0.178	-0.137
-724.879	800.000	-0.063	-0.231
-723.864	-200.000	-0.021	-0.171
-722.850	-200.000	-0.032	-0.299
-721.835	-200.000	-0.008	-0.035
-720.821	-132.688	-0.363	-0.047
-719.806	-94.855	0.146	0.040
-718.791	-167.306	-0.267	-0.011
-717.777	492.523	0.101	-0.233
-716.762	-158.809	-0.443	0.026
-715.748	-200.000	0.023	0.152
-714.733	-147.281	-0.229	-0.020
-713.718	96.277	0.220	-0.254
-712.704	-122.440	-0.301	0.049
-711.689	238.929	0.035	0.059
-710.675	120.904	0.143	0.180
-709.660	800.000	0.073	-0.233
-708.645	-153.388	0.223	0.016
-707.631	68.267	0.234	0.242
-706.616	-42.180	0.368	-0.190
-705.602	-200.000	-0.036	-0.178
-704.587	-200.000	0.003	-0.080
-703.572	17.760	-0.090	-0.072
-702.558	-53.680	0.317	-0.146
-701.543	800.000	0.059	-0.195
-700.529	6.976	-0.087	0.066
-699.514	184.902	0.081	0.122
-698.499	337.796	-0.055	-0.108
-697.485	-200.000	0.029	0.210
-696.470	-143.072	-0.232	0.023
-695.456	248.319	-0.126	-0.215
-694.441	-43.714	0.253	0.129
-693.426	-184.690	0.161	0.003
-692.412	-55.895	-0.051	-0.023
-691.397	-49.866	-0.209	0.100
-690.383	-125.968	-0.382	0.058
-689.368	192.952	-0.119	-0.181
-688.354	77.900	-0.050	-0.054
-687.339	-200.000	0.012	-0.065
-686.324	-120.050	-0.261	-0.045
-685.310	738.368	0.095	-0.256
-684.295	681.441	-0.112	0.295
-683.281	-200.000	-0.040	-0.264
-682.266	3.482	-0.159	-0.117
-681.251	-0.392	-0.123	-0.088
-680.237	92.786	-0.149	0.170
-679.222	-200.000	0.017	0.217
-678.208	696.279	0.063	0.166
-677.193	-156.168	-0.141	0.009
-676.178	-200.000	-0.005	-0.083
-675.164	222.072	-0.203	-0.330
-674.149	568.052	-0.100	-0.245
-673.135	711.852	0.088	0.234
-672.120	-5.012	-0.109	0.076
-671.105	-200.000	-0.031	-0.197
-670.091	-200.000	-0.008	-0.286
-669.076	-112.433	-0.194	0.039
-668.062	31.652	0.185	0.161
-667.047	-23.837	-0.339	-0.205
-666.032	800.000	-0.056	0.227
-665.018	-71.126	-0.152	0.058
-664.003	800.000	0.034	-0.133
-662.989	675.909	-0.040	-0.104
-661.974	459.582	-0.130	-0.291
-660.959	-67.850	-0.037	-0.014
-659.945	-130.172	0.189	0.026
-658.930	-43.922	0.316	0.160
-657.916	-81.253	-0.257	0.086
-656.901	-52.878	0.190	0.088
-655.886	-200.000	0.015	-0.108
-654.872	-200.000	-0.037	-0.407
-653.857	-125.954	0.056	-0.009
-652.843	-118.910	0.068	0.012
-651.828	326.947	-0.079	0.153
-650.814	-101.375	-0.085	-0.021
-649.799	279.863	-0.080	0.144
-648.784	-89.881	0.393	0.116
-647.770	-35.676	-0.253	-0.138
-646.755	-37.092	0.267	-0.144
-645.741	144.628	-0.067	-0.090
-644.726	-188.378	-0.086	-0.001
-643.711	294.460	-0.079	-0.146
-642.697	61.807	-0.168	0.168
-641.682	800.000	0.022	0.062
-640.668	137.752	0.233	-0.308
-639.653	354.950	-0.138	0.277
-638.638	279.837	0.070	-0.127
-637.624	-94.367	-0.126	0.035
-636.609	-18.730	0.188	-0.118
-635.595	572.599	-0.050	-0.123
-634.580	-84.199	-0.236	-0.075
-633.565	103.260	-0.118	0.140
-632.551	800.000	-0.055	-0.193
-631.536	-200.000	0.059	-0.352
-630.522	8.593	-0.131	-0.099
-629.507	800.000	-0.020	-0.071
-628.492	-200.000	0.032	-0.175
-627.478	-200.000	-0.009	-0.133
-626.463	136.799	-0.135	-0.178
-625.449	31.410	0.229	-0.198
-624.434	-139.426	-0.165	-0.018
-623.419	703.008	0.040	0.106
-622.405	82.149	-0.054	0.059
-621.390	-62.591	0.091	-0.038
-620.376	60.339	0.296	-0.295
-619.361	-13.596	-0.387	-0.252
-618.346	-70.757	-0.140	0.053
-617.332	800.000	0.068	0.195
-616.317	16.106	-0.402	-0.319
-615.303	343.447	0.061	0.120
-614.288	152.557	0.089	0.123
-613.273	-155.778	-0.133	0.009
-612.259	-172.699	0.321	-0.010
-611.244	-105.379	0.037	0.009
-610.230	-21.362	0.123	0.076
-609.215	-200.000	0.013	0.112
-608.201	108.676	0.265	0.319
-607.186	53.591	0.282	0.273
-606.171	-1.785	-0.269	0.191
-605.157	-101.921	0.128	-0.031
-604.142	34.647	0.150	0.132
-603.128	-200.000	-0.002	-0.051
-602.113	-19.487	-0.234	-0.146
-601.098	-142.620	-0.183	-0.018
-600.084	-47.909	0.347	-0.169
-599.069	-58.653	0.208	0.091
-598.055	-34.082	0.112	0.062
-597.040	-45.004	0.124	-0.062
-596.025	-62.438	-0.343	-0.144
-595.011	-26.040	-0.092	0.055
-593.996	-149.250	-0.060	0.005
-592.982	-136.674	0.126	0.015
-591.967	139.264	-0.127	0.168
-590.952	800.000	-0.086	-0.324
-589.938	-104.158	-0.321	-0.075
-588.923	-200.000	-0.003	0.116
-587.909	505.274	-0.079	0.184
-586.894	313.878	-0.128	0.243
-585.879	-140.536	0.063	0.007
-584.865	-106.147	-0.209	-0.047
-583.850	-200.000	-0.029	0.380
-582.836	800.000	-0.070	0.283
-581.821	-43.581	-0.067	-0.034
-580.806	378.871	-0.064	0.131
-579.792	-200.000	-0.056	0.320
-578.777	199.294	-0.125	-0.192
-577.763	88.725	-0.069	0.077
-576.748	86.337	-0.232	-0.257
-575.733	-11.132	-0.178	0.118
-574.719	-66.989	-0.263	0.104
-573.704	800.000	-0.075	0.247
-572.690	-148.498	0.436	0.036
-571.675	-87.149	0.225	-0.069
-570.661	-102.246	-0.098	0.024
-569.646	58.697	0.075	0.074
-568.631	268.085	0.100	0.177
-567.617	96.937	-0.111	0.128
-566.602	-55.951	-0.110	0.049
-565.588	-51.911	0.214	0.100
-564.573	-85.756	0.251	0.078
-563.558	264.260	0.171	0.299
-562.544	-29.446	0.120	0.069
-561.529	-103.836	0.279	0.066
-560.515	-96.395	0.150	0.040
-559.500	-122.932	-0.091	-0.015
-558.485	-200.000	-0.017	-0.370
-557.471	-44.555	0.250	-0.126
-556.456	9.570	-0.242	0.184
-555.442	244.448	-0.136	-0.230
-554.427	307.968	-0.118	-0.221
-553.412	-200.000	0.012	0.204
-552.398	37.892	0.027	-0.025
-551.383	-200.000	-0.030	0.239
-550.369	121.908	-0.096	0.120
-549.354	-41.440	0.400	-0.207
-548.339	-34.989	-0.067	0.037
-547.325	-200.000	0.001	-0.110
-546.310	-72.380	-0.389	0.144
-545.296	-71.763	0.065	-0.024
-544.281	-124.346	0.211	-0.033
-543.266	-200.000	0.012	-0.448
-542.252	-127.342	-0.377	0.055
-541.237	-151.768	0.208	-0.015
-540.223	800.000	0.052	-0.211
-539.208	-144.915	0.164	0.015
-538.193	120.658	-0.122	0.152
-537.179	800.000	0.081	-0.278
-536.164	-83.925	0.182	-0.058
-535.150	-200.000	0.048	-0.248
-534.135	-200.000	0.021	-0.130
-533.121	-120.973	0.239	0.040
-532.106	50.551	-0.233	-0.221
-531.091	-200.000	-0.007	-0.157
-530.077	-117.532	-0.387	-0.070
-529.062	-115.478	0.332	-0.063
-528.048	70.650	0.163	0.170
-527.033	199.037	0.094	0.144
-526.018	-88.166	0.203	0.061
-525.004	-104.130	-0.354	0.083
-523.989	522.689	-0.165	0.389
-522.975	-200.000	-0.045	-0.000
-521.960	77.011	0.269	-0.287
-520.945	-88.521	0.374	-0.112
-519.931	-200.000	-0.013	0.122
-518.916	-188.829	0.235	-0.003
-517.902	544.864	0.096	-0.229
-516.887	-58.365	-0.140	0.061
-515.872	114.251	0.038	0.047
-514.858	175.272	0.144	0.210
-513.843	184.132	0.078	-0.116
-512.829	-85.959	-0.094	-0.029
-511.814	-149.170	-0.439	0.035
-510.799	-162.021	-0.321	-0.016
-509.785	-167.340	0.127	0.005
-508.770	-42.732	0.294	-0.150
-507.756	464.077	0.066	0.149
-506.741	-0.169	0.256	0.183
-505.726	-83.709	0.313	-0.100
-504.712	800.000	0.080	0.268
-503.697	543.919	0.052	0.125
-502.683	800.000	-0.101	0.334
-501.668	-26.000	-0.216	0.127
-500.653	-100.551	0.298	0.074
-499.639	239.601	0.208	0.347
-498.624	-200.000	0.005	-0.328
-497.610	-142.222	0.138	-0.014
-496.595	137.968	-0.121	0.159
-495.581	-70.629	-0.072	-0.027
-494.566	-49.387	-0.172	0.082
-493.551	-200.000	-0.014	-0.252
-492.537	654.285	-0.077	0.197
-491.522	588.600	0.111	-0.274
-490.508	-159.666	0.157	0.009
-489.493	800.000	0.064	-0.191
-488.478	800.000	-0.033	-0.118
-487.464	-119.865	0.400	-0.069
-486.449	800.000	0.016	0.065
-485.435	-18.445	0.186	0.116
-484.420	-12.459	-0.248	-0.162
-483.405	-84.112	0.237	0.075
-482.391	-149.447	0.284	-0.023
-481.376	-200.000	0.003	0.185
-480.362	-53.495	-0.107	0.049
-479.347	-45.755	0.067	-0.033
-478.332	-200.000	0.006	0.101
-477.318	800.000	0.040	0.158
-476.303	-46.807	-0.132	0.065
-475.289	-124.810	0.250	-0.039
-474.274	-200.000	0.005	-0.152
-473.259	-200.000	0.015	-0.094
-472.245	-81.594	-0.254	0.084
-471.230	60.239	0.153	-0.152
-470.216	-111.227	0.075	0.015
-469.201	-142.287	0.106	0.010
-468.186	-27.835	0.060	0.035
-467.172	23.293	0.198	-0.163
-466.157	-200.000	0.013	-0.405
-465.143	-200.000	0.026	0.282
-464.128	-0.164	-0.007	0.005
-463.113	163.827	-0.088	0.124
-462.099	173.569	-0.065	0.094
-461.084	-162.153	-0.241	0.012
-460.070	-107.398	-0.433	-0.095
-459.055	-74.070	-0.106	0.039
-458.040	800.000	-0.033	0.112
-457.026	-138.229	0.340	-0.038
-456.011	-112.923	-0.126	0.025
-454.997	-50.252	0.189	0.090
-453.982	-98.799	-0.124	-0.032
-452.968	417.322	0.135	0.289
-451.953	-200.000	0.002	0.137
-450.938	-200.000	0.003	0.104
-449.924	-5.833	-0.138	-0.094
-448.909	-69.671	0.255	-0.098
-447.895	-135.260	0.235	0.028
-446.880	451.703	-0.067	0.148
-445.865	754.409	-0.012	-0.032
-444.851	800.000	-0.059	-0.175
-443.836	-36.400	0.372	0.201
-442.822	356.707	-0.087	0.174
-441.807	-59.395	0.160	0.069
-440.792	-92.695	0.237	0.066
-439.778	-113.056	0.260	0.051
-438.763	-115.336	0.161	0.030
-437.749	-62.908	0.100	0.041
-436.734	716.206	0.062	0.165
-435.719	134.562	0.026	0.034
-434.705	-140.869	0.354	0.036
-433.690	-180.391	-0.318	0.007
-432.676	55.706	0.242	0.234
-431.661	-188.492	-0.254	-0.003
-430.646	-65.540	0.206	0.083
-429.632	-49.414	0.301	-0.144
-428.617	38.283	0.195	-0.173
-427.603	488.945	-0.049	0.113
-426.588	800.000	0.130	0.431
-425.573	-76.318	-0.180	-0.063
-424.559	-200.000	-0.009	-0.088
-423.544	-118.419	0.124	-0.022
-422.530	12.599	-0.243	-0.187
-421.515	-200.000	0.002	-0.209
-420.500	-151.184	-0.108	0.008
-419.486	310.645	-0.006	0.012
-418.471	160.268	-0.046	-0.063
-417.457	252.741	-0.179	0.305
-416.442	260.412	-0.207	0.357
-415.428	800.000	0.029	-0.091
-414.413	-45.480	0.113	-0.056
-413.398	37.864	0.228	0.202
-412.384	199.823	-0.060	0.093
-411.369	168.797	-0.028	0.040
-410.355	250.803	-0.051	0.087
-409.340	-78.376	0.199	-0.068
-408.325	161.066	0.240	0.335
-407.311	-60.751	-0.041	-0.017
-406.296	123.462	0.049	-0.062
-405.282	-200.000	0.009	0.226
-404.267	-19.387	-0.286	0.177
-403.252	249.064	-0.088	-0.149
-402.238	-108.946	0.327	0.070
-401.223	-200.000	-0.045	0.352
-400.209	-0.890	0.049	-0.034
-399.194	800.000	0.021	0.093
-398.179	-137.955	-0.005	-0.001
-397.165	-87.845	-0.311	-0.094
-396.150	100.961	-0.066	0.077
-395.136	-200.000	-0.006	0.040
-394.121	-44.452	0.023	0.011
-393.106	-74.133	-0.205	0.074
-392.092	156.984	-0.065	-0.090
-391.077	800.000	-0.064	0.212
-390.063	48.793	0.284	-0.266
-389.048	-200.000	-0.010	-0.208
-388.033	14.959	-0.377	-0.295
-387.019	800.000	-0.026	0.078
-386.004	-200.000	-0.054	-0.238
-384.990	-23.146	0.040	0.024
-383.975	-85.135	-0.056	0.018
-382.960	-200.000	-0.053	-0.273
-381.946	-106.093	0.256	-0.057
-380.931	-54.183	-0.386	-0.175
-379.917	-138.681	-0.519	0.057
-378.902	252.785	-0.239	0.407
-377.888	19.334	-0.070	-0.056
-376.873	-200.000	0.028	-0.156
-375.858	78.632	-0.296	0.316
-374.844	215.506	-0.159	-0.252
-373.829	800.000	-0.043	-0.155
-372.815	432.725	0.034	-0.073
-371.800	50.253	0.164	-0.155
-370.785	397.922	-0.030	-0.062
-369.771	160.390	-0.219	-0.304
-368.756	406.346	-0.074	0.156
-367.742	139.455	0.079	-0.103
-366.727	-100.924	0.226	-0.055
-365.712	43.264	-0.199	0.182
-364.698	800.000	0.200	-0.594
-363.683	147.054	0.161	-0.216
-362.669	-187.923	0.191	0.002
-361.654	-136.366	-0.196	0.023
-360.639	800.000	0.095	0.395
-359.625	-20.002	0.129	0.079
-358.610	-200.000	-0.040	-0.286
-357.596	800.000	0.021	-0.088
-356.581	658.876	0.095	0.244
-355.566	-200.000	-0.047	0.212
-354.552	357.809	0.050	-0.099
-353.537	-43.115	0.413	-0.209
-352.523	36.510	-0.194	0.171
-351.508	-143.768	0.362	-0.034
-350.493	-132.417	0.250	-0.032
-349.479	-68.798	-0.182	0.070
-348.464	-200.000	-0.041	0.236
-347.450	295.357	-0.197	-0.360
-346.435	-70.231	0.200	-0.076
-345.420	356.018	-0.253	-0.501
-344.406	-70.417	0.190	-0.072
-343.391	-169.137	-0.151	0.006
-342.377	156.789	-0.105	-0.145
-341.362	-43.273	0.010	-0.005
-340.348	632.418	0.026	0.066
-339.333	-121.017	0.373	0.062
-338.318	-200.000	0.049	-0.293
-337.304	-60.282	-0.117	-0.050
-336.289	27.800	0.075	0.063
-335.275	-53.694	0.119	-0.054
-334.260	3.599	-0.146	-0.106
-333.245	-17.652	0.053	0.033
-332.231	-200.000	-0.029	-0.205
-331.216	408.786	0.051	0.107
-330.202	-12.722	0.158	0.103
-329.187	800.000	-0.068	0.217
-328.172	800.000	0.072	-0.223
-327.158	-200.000	0.022	-0.238
-326.143	22.680	0.257	-0.209
-325.129	269.252	-0.066	-0.116
-324.114	-200.000	-0.015	-0.302
-323.099	237.099	0.028	0.046
-322.085	111.614	-0.409	0.491
-321.070	-8.649	0.196	0.131
-320.056	52.614	0.165	-0.157
-319.041	66.983	0.065	-0.066
-318.026	800.000	0.025	0.082
-317.012	-41.443	-0.201	0.103
-315.997	-200.000	-0.002	0.014
-314.983	-197.033	-0.448	-0.003
-313.968	-4.755	-0.208	-0.142
-312.953	800.000	0.046	0.138
-311.939	800.000	-0.085	-0.359
-310.924	-14.612	0.088	-0.057
-309.910	-80.895	-0.253	-0.083
-308.895	-39.342	0.113	-0.059
-307.880	-9.989	-0.213	0.141
-306.866	90.631	0.092	0.103
-305.851	336.351	-0.111	0.214
-304.837	-6.801	0.066	0.045
-303.822	-100.083	0.232	-0.057
-302.807	161.009	0.065	0.091
-301.793	-15.676	-0.109	-0.069
-300.778	199.562	-0.066	-0.100
-299.764	-19.900	0.204	0.125
-298.749	-86.466	0.316	0.097
-297.735	667.624	-0.045	-0.116
-296.720	-117.009	-0.273	-0.050
-295.705	139.456	-0.059	0.078
-294.691	-152.581	0.260	0.018
-293.676	36.299	0.140	-0.123
-292.662	0.653	-0.145	-0.103
-291.647	-81.534	0.258	0.084
-290.632	-96.926	-0.133	0.035
-289.618	-33.582	-0.110	-0.060
-288.603	191.558	-0.031	0.046
-287.589	695.135	-0.053	-0.137
-286.574	196.003	-0.105	0.159
-285.559	-20.456	0.176	-0.107
-284.545	1.226	0.075	-0.054
-283.530	-8.788	-0.089	0.059
-282.516	286.875	0.030	-0.054
-281.501	-155.239	0.406	-0.026
-280.486	224.201	-0.196	0.314
-279.472	-37.947	0.243	0.129
-278.457	621.496	-0.053	0.133
-277.443	22.747	-0.184	-0.150
-276.428	347.380	-0.101	-0.197
-275.413	680.103	0.053	-0.138
-274.399	48.099	-0.095	-0.088
-273.384	800.000	-0.143	0.462
-272.370	83.950	-0.202	-0.219
-271.355	-2.827	0.076	0.053
-270.340	143.464	0.149	0.198
-269.326	457.941	0.018	-0.040
-268.311	15.560	0.147	-0.115
-267.297	-119.572	-0.238	-0.041
-266.282	39.575	-0.052	-0.046
-265.267	4.458	-0.336	-0.245
-264.253	-36.517	-0.069	-0.037
-263.238	18.740	0.388	0.309
-262.224	731.764	0.046	-0.123
-261.209	-200.000	-0.073	0.485
-260.195	-200.000	-0.047	-0.369
-259.180	-141.374	-0.262	0.026
-258.165	-94.652	-0.261	0.071
-257.151	475.111	-0.034	0.076
-256.136	455.105	-0.104	-0.229
-255.122	-29.200	-0.120	-0.068
-254.107	-200.000	-0.041	-0.249
-253.092	-148.658	0.291	0.024
-252.078	-28.798	0.085	0.048
-251.063	-200.000	0.024	-0.151
-250.049	-40.359	-0.060	-0.031
-249.034	-200.000	0.005	-0.059
-248.019	-100.529	-0.230	-0.056
-247.005	-77.126	-0.219	0.076
-245.990	25.658	0.164	0.135
-244.976	-200.000	0.033	0.379
-243.961	-55.354	-0.319	0.142
-242.946	-94.640	-0.141	0.038
-241.932	-18.734	-0.270	0.167
-240.917	-37.671	0.081	0.043
-239.903	139.802	0.295	0.386
-238.888	5.489	-0.225	0.165
-237.873	-94.024	0.085	-0.023
-236.859	298.741	-0.062	0.114
-235.844	-76.102	-0.138	-0.048
-234.830	50.276	-0.242	0.227
-233.815	800.000	0.035	0.110
-232.800	-200.000	-0.046	0.221
-231.786	86.179	-0.136	-0.148
-230.771	292.041	0.190	-0.343
-229.757	-12.620	-0.230	-0.149
-228.742	-17.944	-0.182	-0.113
-227.727	-93.424	-0.183	0.050
-226.713	-80.237	-0.097	-0.032
-225.698	-16.071	0.169	0.106
-224.684	-200.000	-0.005	-0.029
-223.669	-200.000	0.016	0.209
-222.655	93.426	0.243	0.273
-221.640	51.300	0.090	0.085
-220.625	-117.039	0.109	0.020
-219.611	-200.000	-0.002	-0.051
-218.596	-64.126	-0.302	-0.122
-217.582	-14.911	-0.287	-0.182
-216.567	731.138	0.048	-0.128
-215.552	641.293	0.148	-0.374
-214.538	19.303	-0.147	-0.117
-213.523	-200.000	-0.042	0.246
-212.509	800.000	0.051	-0.216
-211.494	184.732	-0.132	-0.194
-210.479	-122.433	0.091	0.015
-209.465	242.369	-0.104	0.172
-208.450	681.386	-0.112	0.289
-207.436	154.826	-0.074	0.100
-206.421	-166.901	-0.195	-0.008
-205.406	-200.000	0.051	0.512
-204.392	203.624	-0.126	-0.192
-203.377	49.019	-0.060	-0.056
-202.363	439.450	-0.053	-0.114
-201.348	507.954	0.173	0.398
-200.333	800.000	0.046	-0.158
-199.319	-200.000	-0.049	-0.230
-198.304	381.284	-0.059	-0.119
-197.290	-66.251	0.228	0.090
-196.275	333.328	-0.083	-0.160
-195.260	-111.947	0.222	-0.044
-194.246	8.092	0.111	0.082
-193.231	-165.924	0.096	-0.004
-192.217	61.716	-0.060	-0.059
-191.202	-200.000	-0.034	0.199
-190.187	197.305	-0.096	-0.145
-189.173	347.137	0.036	-0.070
-188.158	-200.000	-0.035	0.248
-187.144	137.441	0.138	0.178
-186.129	338.820	-0.057	-0.111
-185.114	-119.019	-0.211	-0.037
-184.100	-187.295	-0.369	-0.005
-183.085	5.570	0.231	-0.169
-182.071	11.989	0.064	-0.049
-181.056	351.469	0.086	-0.169
-180.042	-159.717	-0.180	-0.010
-179.027	199.351	-0.217	-0.330
-178.012	176.989	0.051	0.073
-176.998	-9.174	-0.139	-0.092
-175.983	-200.000	-0.032	0.140
-174.969	-99.716	0.330	0.082
-173.954	311.897	0.145	0.269
-172.939	270.457	-0.063	0.109
-171.925	-114.532	0.132	0.025
-170.910	800.000	0.052	-0.188
-169.896	-81.943	0.142	-0.046
-168.881	-143.061	0.102	-0.010
-167.866	800.000	0.058	0.190
-166.852	800.000	0.086	-0.239
-165.837	34.554	0.028	0.024
-164.823	-5.973	0.318	-0.215
-163.808	-25.732	0.064	0.037
-162.793	-92.755	-0.370	0.102
-161.779	-58.200	-0.066	0.029
-160.764	128.903	0.251	0.316
-159.750	9.691	-0.216	-0.162
-158.735	423.621	-0.141	-0.300
-157.720	-136.302	0.141	-0.016
-156.706	-163.408	-0.329	0.016
-155.691	24.669	-0.316	-0.259
-154.677	-74.268	-0.251	-0.090
-153.662	245.434	0.130	-0.217
-152.647	-200.000	-0.036	-0.213
-151.633	-36.397	0.076	-0.041
-150.618	-66.656	-0.236	0.092
-149.604	-200.000	0.026	0.153
-148.589	-200.000	-0.018	-0.185
-147.574	251.979	0.191	-0.322
-146.560	-121.657	-0.044	-0.007
-145.545	137.185	0.084	-0.108
-144.531	800.000	-0.034	-0.143
-143.516	-51.313	0.246	-0.114
-142.502	-200.000	0.006	-0.114
-141.487	-15.575	-0.355	-0.224
-140.472	-10.711	-0.316	-0.207
-139.458	15.466	-0.053	0.041
-138.443	205.870	0.066	-0.102
-137.429	-185.225	-0.226	-0.003
-136.414	-108.108	-0.214	0.046
-135.399	-31.797	0.121	0.067
-134.385	711.015	-0.068	0.179
-133.370	800.000	-0.049	-0.160
-132.356	-200.000	0.021	-0.160
-131.341	201.415	-0.125	-0.191
-130.326	26.709	0.240	-0.198
-129.312	-156.889	-0.419	-0.025
-128.297	130.099	0.160	-0.202
-127.283	67.787	-0.065	-0.066
-126.268	683.685	-0.063	0.162
-125.253	206.089	0.169	0.260
-124.239	42.901	0.166	0.150
-123.224	18.125	-0.223	-0.176
-122.210	269.933	-0.090	0.157
-121.195	-140.855	0.278	-0.028
-120.180	162.921	0.089	0.124
-119.166	-200.000	0.004	-0.393
-118.151	464.119	-0.136	-0.301
-117.137	-200.000	0.020	-0.133
-116.122	-126.780	-0.208	-0.030
-115.107	7.772	-0.142	0.105
-114.093	-92.446	-0.104	-0.029
-113.078	54.713	-0.182	0.174
-112.064	78.138	-0.149	-0.157
-111.049	-18.776	-0.315	-0.194
-110.034	-200.000	0.014	-0.197
-109.020	800.000	0.035	0.125
-108.005	800.000	-0.114	-0.334
-106.991	304.382	-0.057	0.104
-105.976	-180.558	-0.360	-0.007
-104.962	-45.619	-0.085	-0.042
-103.947	-200.000	-0.059	0.376
-102.932	197.557	0.076	0.114
-101.918	-44.303	-0.283	0.140
-100.903	800.000	0.114	-0.318
-99.889	346.864	-0.064	0.124
-98.874	161.226	0.238	0.328
-97.859	-31.295	0.325	0.180
-96.845	113.522	0.114	0.137
-95.830	-123.959	0.457	-0.071
-94.816	526.604	0.087	0.201
-93.801	-122.385	0.249	-0.040
-92.786	252.861	-0.141	0.237
-91.772	-200.000	0.050	0.258
-90.757	16.961	-0.104	0.081
-89.743	-36.285	0.185	0.098
-88.728	536.357	0.031	-0.073
-87.713	-97.704	-0.186	0.048
-86.699	-200.000	-0.085	0.516
-85.684	-66.983	0.089	0.035
-84.670	486.391	0.099	0.222
-83.655	9.516	-0.219	-0.163
-82.640	103.243	0.227	0.263
-81.626	-120.495	0.228	-0.038
-80.611	-142.925	0.286	0.027
-79.597	-200.000	-0.070	-0.388
-78.582	452.592	-0.067	-0.146
-77.567	800.000	-0.083	-0.328
-76.553	95.328	-0.106	0.119
-75.538	800.000	-0.054	0.179
-74.524	653.887	-0.061	0.154
-73.509	335.569	0.042	0.080
-72.494	352.302	-0.102	-0.199
-71.480	-170.517	0.219	0.008
-70.465	-19.787	-0.162	-0.099
-69.451	-47.848	-0.412	0.197
-68.436	-200.000	-0.073	0.346
-67.422	-41.102	-0.178	0.091
-66.407	244.016	-0.183	0.302
-65.392	143.699	-0.290	-0.380
-64.378	-146.683	-0.112	0.010
-63.363	-127.724	0.054	0.008
-62.349	-200.000	0.037	-0.259
-61.334	97.497	-0.691	-0.782
-60.319	126.306	0.429	0.535
-59.305	387.106	-0.433	-0.883
-58.290	800.000	0.407	1.127
-57.276	469.846	0.608	1.345
-56.261	-200.000	96.522	575.412
-55.246	541.288	1387.889	3257.713
-54.232	156.474	2573.469	3499.867
-53.217	110.815	2168.645	2570.720
-52.203	43.642	1709.750	1540.892
-51.188	36.715	1522.984	1325.288
-50.173	34.203	1496.918	1285.614
-49.159	53.503	1545.592	1460.215
-48.144	55.308	1563.991	1489.929
-47.130	36.921	1521.958	1325.592
-46.115	33.807	1506.893	1291.285
-45.100	33.659	1503.643	1287.443
-44.086	33.593	1501.687	1285.268
-43.071	33.603	1499.934	1283.783
-42.057	33.443	1498.797	1281.681
-41.042	33.543	1497.477	1281.177
-40.027	33.480	1495.900	1279.347
-39.013	33.484	1494.478	1278.108
-37.998	33.422	1493.599	1276.887
-36.984	33.530	1492.086	1276.274
-35.969	33.482	1491.125	1275.079
-34.954	33.532	1489.207	1273.720
-33.940	33.442	1488.072	1272.098
-32.925	33.548	1486.494	1271.405
-31.911	33.548	1484.967	1270.048
-30.896	33.627	1483.971	1269.678
-29.881	33.547	1482.862	1268.142
-28.867	33.628	1480.990	1267.030
-27.852	33.561	1479.795	1265.514
-26.838	33.557	1478.200	1264.073
-25.823	33.533	1477.173	1262.984
-24.809	33.573	1475.633	1261.882
-23.794	33.400	1474.058	1259.334
-22.779	33.534	1472.370	1258.732
-21.765	33.500	1471.480	1257.697
-20.750	33.560	1470.415	1257.136
-19.736	33.533	1469.651	1256.253
-18.721	33.598	1468.479	1255.630
-17.706	33.558	1467.433	1254.426
-16.692	33.522	1466.412	1253.261
-15.677	33.571	1465.386	1252.663
-14.663	33.400	1464.868	1251.041
-13.648	33.399	1463.368	1249.704
-12.633	33.487	1462.598	1249.571
-11.619	33.453	1462.027	1248.813
-10.604	33.489	1460.714	1247.878
-9.590	33.394	1459.894	1246.503
-8.575	33.454	1459.157	1246.217
-7.560	33.471	1457.930	1245.232
-6.546	33.454	1457.109	1244.370
-5.531	33.457	1456.909	1244.172
-4.517	33.509	1455.235	1243.036
-3.502	33.446	1454.641	1242.061
-2.487	33.386	1453.811	1240.909
-1.473	33.636	1452.442	1241.328
-0.458	33.539	1451.049	1239.457
0.556	33.905	1442.108	1228.251
1.571	31.084	1417.347	1189.103
2.586	27.846	1361.920	1122.628
3.600	26.357	1282.545	1048.475
4.615	25.010	1235.795	1002.635
5.629	21.709	1178.083	938.084
6.644	11.560	1090.543	817.742
7.659	3.368	1047.465	745.848
8.673	2.335	1041.539	736.591
9.688	2.013	1038.878	733.098
10.702	1.810	1037.181	730.862
11.717	1.983	1034.989	730.078
12.731	5.713	1039.674	751.223
13.746	15.811	1053.845	810.248
14.761	23.321	1063.199	853.705
15.775	24.945	1064.884	862.815
16.790	25.158	1064.186	863.202
17.804	25.077	1063.755	862.385
18.819	24.923	1062.461	860.517
19.834	24.946	1062.350	860.465
20.848	25.133	1061.791	860.832
21.863	25.220	1061.611	861.030
22.877	25.227	1061.157	860.618
23.892	25.146	1060.915	859.956
24.907	24.945	1059.725	857.952
25.921	25.011	1058.633	857.310
26.936	25.087	1057.842	856.956
27.950	24.920	1057.158	855.525
28.965	25.089	1055.665	855.048
29.980	24.964	1054.415	853.368
30.994	24.969	1052.778	851.991
32.009	25.068	1052.779	852.387
33.023	25.122	1052.159	852.067
34.038	24.991	1050.489	850.016
35.053	24.884	1049.792	848.870
36.067	25.209	1049.180	849.840
37.082	25.079	1048.727	848.779
38.096	25.094	1047.914	848.121
39.111	25.263	1047.156	848.228
40.126	25.389	1046.394	848.133
41.140	25.382	1044.654	846.613
42.155	25.111	1043.225	844.102
43.169	24.613	1042.354	840.983
44.184	24.726	1041.364	840.642
45.199	24.819	1040.459	840.271
46.213	24.796	1038.977	838.895
47.228	24.671	1038.828	838.112
48.242	24.907	1038.021	838.491
49.257	25.063	1037.044	838.361
50.271	25.009	1036.799	837.833
51.286	25.089	1036.123	837.587
52.301	25.323	1034.864	837.590
53.315	25.193	1034.163	836.340
54.330	25.119	1034.111	835.880
55.344	25.117	1032.765	834.705
56.359	25.041	1032.184	833.813
57.374	25.167	1031.458	833.735
58.388	24.933	1030.250	831.600
59.403	24.790	1029.945	830.617
60.417	24.868	1029.229	830.325
61.432	24.689	1028.316	828.689
62.447	24.676	1027.927	828.242
63.461	24.759	1027.006	827.808
64.476	24.735	1026.425	827.158
65.490	24.788	1025.284	826.408
66.505	24.882	1024.210	825.905
67.520	24.780	1023.762	824.998
68.534	24.987	1022.547	824.902
69.549	24.817	1021.614	823.295
70.563	24.438	1020.554	820.623
71.578	24.381	1019.929	819.787
72.593	24.388	1019.208	819.165
73.607	24.193	1018.091	817.301
74.622	24.247	1017.252	816.805
75.636	24.597	1016.430	817.672
76.651	24.737	1015.866	817.789
77.666	24.641	1015.093	816.653
78.680	24.411	1014.040	814.685
79.695	24.432	1013.746	814.471
80.709	24.550	1013.078	814.401
81.724	24.727	1012.206	814.433
82.739	24.638	1011.732	813.577
83.753	24.764	1010.554	813.131
84.768	24.967	1010.275	813.754
85.782	25.414	1009.314	814.938
86.797	25.556	1008.668	814.990
87.812	25.373	1008.248	813.747
88.826	25.228	1006.895	811.926
89.841	25.146	1006.489	811.158
90.855	25.394	1005.459	811.375
91.870	25.323	1004.979	810.594
92.884	25.340	1004.168	809.946
93.899	25.184	1003.021	808.245
94.914	25.080	1001.858	806.769
95.928	25.203	1001.698	807.123
96.943	25.376	1000.749	807.063
97.957	24.990	999.267	804.066
98.972	24.797	998.150	802.231
99.987	24.620	997.203	800.605
101.001	24.733	996.716	800.650
102.016	25.137	995.652	801.529
103.030	25.073	995.200	800.811
104.045	24.994	994.320	799.679
105.060	24.903	993.259	798.347
106.074	24.619	991.987	795.991
107.089	24.847	991.358	796.431
108.103	24.930	991.359	796.731
109.118	25.233	990.265	797.127
110.133	24.796	989.024	794.118
111.147	24.904	988.023	793.725
112.162	24.637	987.371	791.943
113.176	24.523	986.236	790.459
114.191	24.760	985.081	790.513
115.206	24.853	984.493	790.381
116.220	24.531	983.463	788.066
117.235	24.303	982.833	786.482
118.249	24.444	981.890	786.283
119.264	24.482	981.455	786.029
120.279	24.538	980.218	785.215
121.293	24.376	979.658	783.986
122.308	24.579	978.989	784.272
123.322	24.519	978.278	783.371
124.337	24.442	977.417	782.276
125.352	24.372	975.744	780.562
126.366	24.040	974.099	777.725
127.381	23.784	972.944	775.617
128.395	24.103	973.028	777.005
129.410	24.892	972.297	779.794
130.424	25.051	971.762	779.987
131.439	24.949	970.679	778.606
132.454	24.959	969.492	777.628
133.468	24.965	968.974	777.170
134.483	24.934	967.752	775.987
135.497	25.022	967.162	775.828
136.512	25.159	967.199	776.380
137.527	25.336	965.841	775.987
138.541	25.274	965.571	775.434
139.556	25.193	965.050	774.598
140.570	25.229	964.093	773.916
141.585	25.100	963.271	772.629
142.600	25.286	962.364	772.636
143.614	25.296	961.334	771.785
144.629	25.430	960.551	771.661
145.643	25.543	960.095	771.710
146.658	25.435	959.100	770.380
147.673	25.317	957.444	768.477
148.687	25.233	956.574	767.352
149.702	25.076	955.931	766.097
150.716	25.115	954.328	764.910
151.731	25.081	953.105	763.721
152.746	25.138	952.356	763.295
153.760	25.232	951.951	763.303
154.775	25.280	951.615	763.167
155.789	25.471	950.523	763.036
156.804	25.433	949.525	762.007
157.819	25.355	948.801	761.028
158.833	25.525	947.959	761.003
159.848	25.501	947.600	760.547
160.862	25.595	946.685	760.143
161.877	25.491	945.582	758.753
162.892	25.401	944.923	757.777
163.906	25.578	943.760	757.522
164.921	25.444	942.989	756.274
165.935	25.324	941.968	754.881
166.950	25.389	940.692	754.067
167.964	25.494	939.767	753.697
168.979	25.390	939.067	752.632
169.994	25.225	937.775	750.840
171.008	25.101	937.083	749.702
172.023	25.357	936.218	750.015
173.037	25.356	935.869	749.665
174.052	25.355	934.512	748.504
175.067	25.141	933.859	747.025
176.081	25.064	932.664	745.684
177.096	25.262	931.806	745.755
178.110	25.165	930.995	744.634
179.125	24.912	930.408	743.052
180.140	24.813	928.578	741.112
181.154	24.880	928.336	741.132
182.169	24.872	928.169	740.901
183.183	25.064	927.889	741.405
184.198	25.422	927.374	742.409
185.213	25.433	926.831	741.952
186.227	25.290	925.647	740.351
187.242	25.295	925.583	740.254
188.256	25.369	924.665	739.761
189.271	25.404	924.092	739.378
190.286	25.547	922.921	738.966
191.300	25.365	922.522	737.830
192.315	24.852	920.771	734.261
193.329	24.000	919.407	729.617
194.344	23.656	918.018	727.040
195.359	24.267	918.341	729.735
196.373	25.190	918.888	733.883
197.388	25.453	918.249	734.384
198.402	25.226	918.088	733.264
199.417	25.277	917.175	732.677
200.432	25.340	916.887	732.638
201.446	25.209	916.289	731.561
202.461	24.845	915.599	729.464
203.475	24.838	915.010	728.899
204.490	24.579	913.127	726.281
205.504	23.412	911.357	720.072
206.519	23.705	911.286	721.145
207.534	24.751	911.890	725.806
208.548	24.900	910.792	725.470
209.563	25.238	910.761	726.752
210.577	25.261	909.768	725.989
211.592	25.098	908.981	724.636
212.607	25.304	909.215	725.593
213.621	25.423	909.182	725.982
214.636	25.384	907.959	724.783
215.650	25.423	907.607	724.597
216.665	25.420	906.549	723.677
217.680	25.611	905.973	723.918
218.694	25.564	905.887	723.599
219.709	25.140	905.089	721.193
220.723	24.805	904.086	718.983
221.738	24.962	903.349	718.963
222.753	25.245	903.216	719.929
223.767	25.147	902.246	718.699
224.782	25.327	901.410	718.690
225.796	25.452	901.153	718.923
226.811	25.672	900.226	719.000
227.826	25.136	899.167	715.948
228.840	24.397	897.659	711.740
229.855	24.293	896.759	710.548
230.869	24.562	896.931	711.694
231.884	24.322	895.640	709.650
232.899	24.335	895.348	709.407
233.913	25.055	895.485	712.316
234.928	25.274	895.020	712.753
235.942	25.025	894.482	711.276
236.957	25.195	893.583	711.169
237.972	24.909	892.801	709.352
238.986	24.763	891.777	707.900
240.001	24.862	891.706	708.170
241.015	24.927	891.093	707.880
242.030	24.967	890.040	707.136
243.045	25.187	889.639	707.623
244.059	25.204	889.553	707.559
245.074	25.408	889.102	707.944
246.088	25.312	888.258	706.830
247.103	24.929	887.242	704.453
248.117	24.972	886.818	704.223
249.132	25.569	886.724	706.434
250.147	25.925	886.767	707.800
251.161	26.034	885.672	707.294
252.176	26.129	885.307	707.310
253.190	26.132	884.830	706.879
254.205	26.190	884.115	706.471
255.220	26.298	883.969	706.715
256.234	26.357	883.119	706.204
257.249	26.316	882.142	705.201
258.263	26.072	881.731	703.859
259.278	26.012	881.386	703.284
260.293	26.067	881.170	703.265
261.307	26.245	880.344	703.237
262.322	26.175	879.710	702.396
263.336	26.083	878.736	701.200
264.351	25.497	877.492	697.870
265.366	24.534	875.360	692.379
266.380	24.019	874.814	689.893
267.395	24.779	875.510	693.326
268.409	25.743	875.125	696.694
269.424	25.545	874.573	695.427
270.439	25.647	874.207	695.466
271.453	25.899	873.604	695.898
272.468	25.926	872.628	695.165
273.482	26.018	872.520	695.372
274.497	26.258	871.861	695.710
275.512	26.033	870.902	694.017
276.526	25.474	869.336	690.558
277.541	25.616	869.060	690.825
278.555	25.946	869.122	692.081
279.570	25.807	868.110	690.681
280.585	25.622	867.879	689.728
281.599	25.819	867.132	689.825
282.614	25.850	866.695	689.537
283.628	25.408	865.602	686.918
284.643	25.036	864.832	684.824
285.657	25.504	864.902	686.606
286.672	25.371	863.891	685.234
287.687	24.745	863.119	682.173
288.701	25.177	862.918	683.603
289.716	25.692	862.424	685.112
290.730	25.342	861.196	682.744
291.745	25.122	860.987	681.681
292.760	25.007	859.753	680.211
293.774	24.659	859.823	678.882
294.789	25.820	859.889	683.280
295.803	26.312	860.373	685.472
296.818	26.440	859.739	685.392
297.833	26.616	859.171	685.544
298.847	26.370	857.765	683.432
299.862	25.947	856.997	681.161
300.876	26.072	856.919	681.511
301.891	26.492	856.316	682.555
302.906	26.396	856.133	681.986
303.920	26.052	854.805	679.574
304.935	25.946	854.148	678.591
305.949	26.367	853.897	679.916
306.964	26.439	853.504	679.816
307.979	26.232	852.687	678.328
308.993	26.214	852.049	677.690
310.008	26.659	851.700	679.022
311.022	26.626	851.608	678.767
312.037	26.663	850.485	677.950
313.052	26.278	850.262	676.270
314.066	26.060	849.369	674.684
315.081	25.403	847.906	671.011
316.095	24.684	846.898	667.469
317.110	25.287	846.414	669.278
318.125	26.159	847.327	673.193
319.139	25.774	846.121	670.741
320.154	24.560	844.092	664.562
321.168	24.124	843.321	662.275
322.183	24.728	843.691	664.754
323.197	25.717	844.256	668.815
324.212	26.012	843.892	669.563
325.227	26.086	843.421	669.405
326.241	26.314	842.824	669.715
327.256	26.215	842.249	668.834
328.270	26.175	841.917	668.363
329.285	25.845	841.053	666.398
330.300	25.793	840.289	665.542
331.314	25.464	839.386	663.552
332.329	25.769	838.661	664.047
333.343	26.230	838.412	665.488
334.358	26.391	838.300	665.932
335.373	26.410	837.630	665.412
336.387	26.374	837.263	664.928
337.402	26.546	836.940	665.247
338.416	26.879	836.025	665.681
339.431	26.832	835.908	665.357
340.446	26.829	835.257	664.770
341.460	27.043	834.741	665.084
342.475	26.974	834.344	664.458
343.489	26.756	833.443	662.884
344.504	26.649	833.264	662.291
345.519	27.029	832.806	663.256
346.533	27.236	832.595	663.786
347.548	27.299	832.172	663.617
348.562	27.234	831.607	662.874
349.577	27.137	831.271	662.192
350.592	27.089	830.723	661.523
351.606	27.017	830.165	660.758
352.621	27.102	829.295	660.315
353.635	27.015	829.135	659.812
354.650	26.912	828.101	658.561
355.665	26.586	827.556	656.886
356.679	25.585	825.958	651.930
357.694	25.310	825.582	650.580
358.708	26.062	825.456	653.148
359.723	26.165	824.896	653.019
360.738	26.264	824.616	653.097
361.752	26.740	824.577	654.730
362.767	26.865	824.263	654.873
363.781	27.128	823.782	655.382
364.796	27.415	824.033	656.558
365.810	27.494	823.648	656.478
366.825	27.513	823.070	656.027
367.840	27.647	822.425	655.937
368.854	27.279	822.057	654.262
369.869	26.976	821.255	652.478
370.883	26.773	820.522	651.108
371.898	26.917	819.822	651.012
372.913	26.907	818.754	650.071
373.927	26.839	818.600	649.647
374.942	26.904	818.001	649.349
375.956	27.133	817.364	649.604
376.971	27.266	817.026	649.754
377.986	27.373	816.461	649.626
379.000	27.334	816.442	649.416
380.015	27.366	816.230	649.305
381.029	27.287	815.253	648.189
382.044	27.343	814.365	647.625
383.059	27.423	814.347	647.836
384.073	27.486	813.529	647.351
385.088	27.418	812.999	646.631
386.102	27.631	812.196	646.691
387.117	27.375	811.745	645.368
388.132	27.182	810.965	644.005
389.146	26.892	810.613	642.643
390.161	26.543	809.031	640.097
391.175	26.497	809.265	640.065
392.190	27.153	809.344	642.387
393.205	27.061	808.878	641.639
394.219	26.199	806.820	636.910
395.234	24.603	804.526	629.427
396.248	23.587	804.160	625.504
397.263	24.721	804.619	629.803
398.278	26.488	806.072	637.111
399.292	27.186	805.896	639.373
400.307	26.725	805.274	637.201
401.321	26.800	804.432	636.743
402.336	26.741	804.561	636.582
403.350	27.061	804.623	637.697
404.365	27.603	804.133	639.153
405.380	27.700	804.547	639.765
406.394	28.026	804.064	640.468
407.409	28.312	803.478	640.947
408.423	28.257	802.730	640.101
409.438	28.254	802.025	639.470
410.453	28.234	801.886	639.232
411.467	28.308	801.204	638.890
412.482	28.101	800.859	637.837
413.496	28.076	800.259	637.215
414.511	28.245	799.736	637.331
415.526	28.091	799.539	636.581
416.540	28.155	799.497	636.717
417.555	28.162	798.903	636.211
418.569	28.082	797.863	635.050
419.584	27.784	797.511	633.678
420.599	27.876	796.994	633.531
421.613	109.805	1283.844	1451.930
422.628	94.588	1354.791	1452.048
