DTS Sentinel unit serial number:	SN413079Multiplexer serial number:	ORYXHardware model number:	OX4-SRSoftware version number:	ORYX F/W v4.00 Oryx Data Collector v3.7.2.0data status	okinstallation	princeton_trtdifferential loss correction	single-endedforward channel	channel 3reverse channel	N/Adate	2019/09/12time	06:14:11forward acquisition time	60.00reverse acquisition time	0.00gamma	496.2192k internal	0.2320k external	0.2320temperature offset calibration	1.0035default loss term (dB/km)	0.3790temperature slope calibration	1.0000multiplexer offset coefficient	1.0000multiplexer slope coefficient	1.0000fibre end	0.00T internal ref (°C)	32.12T ext. ref 1 (°C)	1.56T ext. ref 2 (°C)	27.42length (m)	temperature (°C)	Stokes	anti-Stokes-747.200	-5.467	-0.092	-0.064
-746.185	-151.636	0.161	-0.012
-745.171	-164.824	0.106	-0.005
-744.156	559.761	-0.092	0.225
-743.142	-113.445	0.013	0.002
-742.127	-40.415	-0.425	0.223
-741.112	-71.537	0.441	-0.167
-740.098	-106.389	-0.192	0.043
-739.083	253.631	-0.098	0.169
-738.069	-54.844	0.235	0.107
-737.054	-53.709	-0.320	-0.148
-736.039	800.000	0.059	-0.195
-735.025	-0.860	0.358	0.256
-734.010	-7.272	0.134	-0.092
-732.996	-106.766	0.385	0.086
-731.981	181.546	0.094	0.139
-730.966	-6.779	-0.265	-0.182
-729.952	85.721	-0.167	-0.186
-728.937	338.245	0.049	0.096
-727.923	-200.000	-0.049	-0.392
-726.908	2.031	-0.099	0.072
-725.894	46.032	0.077	0.072
-724.879	0.497	-0.210	0.152
-723.864	800.000	-0.026	0.111
-722.850	800.000	-0.099	0.317
-721.835	155.662	-0.212	0.294
-720.821	171.938	-0.234	-0.339
-719.806	143.491	0.234	-0.315
-718.791	657.993	0.031	-0.081
-717.777	-72.439	0.115	0.043
-716.762	-29.812	-0.019	-0.011
-715.748	-9.980	0.148	-0.100
-714.733	7.909	0.262	-0.199
-713.718	50.932	-0.061	-0.058
-712.704	-200.000	0.017	0.355
-711.689	-63.819	-0.316	-0.131
-710.675	274.582	-0.075	0.134
-709.660	-119.950	-0.150	-0.026
-708.645	-8.076	0.151	0.103
-707.631	-200.000	0.069	-0.401
-706.616	-61.229	0.175	0.075
-705.602	-200.000	-0.009	0.103
-704.587	1.669	-0.412	-0.300
-703.572	-167.063	-0.332	0.014
-702.558	237.199	-0.027	0.045
-701.543	246.175	0.145	-0.246
-700.529	294.205	-0.096	0.178
-699.514	317.618	0.159	-0.304
-698.499	447.368	-0.110	0.245
-697.485	-116.048	0.209	0.039
-696.470	501.639	0.110	-0.256
-695.456	278.673	-0.128	-0.231
-694.441	-111.097	0.262	0.054
-693.426	-48.038	-0.298	-0.145
-692.412	-134.995	0.343	0.042
-691.397	-6.801	0.177	0.122
-690.383	51.798	0.256	0.246
-689.368	-97.759	0.032	0.008
-688.354	744.188	0.038	-0.102
-687.339	151.983	-0.040	0.056
-686.324	-123.316	0.224	0.036
-685.310	-149.937	-0.330	-0.026
-684.295	-39.234	0.187	-0.099
-683.281	-58.259	0.359	-0.158
-682.266	800.000	-0.057	-0.200
-681.251	319.226	0.030	-0.058
-680.237	-6.087	-0.145	-0.100
-679.222	-12.445	-0.082	0.054
-678.208	103.778	-0.265	-0.315
-677.193	-101.593	-0.303	-0.074
-676.178	-103.745	-0.080	0.019
-675.164	-127.484	-0.196	0.029
-674.149	352.618	-0.051	-0.103
-673.135	-187.164	0.172	-0.002
-672.120	-3.358	-0.183	-0.128
-671.105	-168.701	-0.058	-0.002
-670.091	18.728	0.258	-0.208
-669.076	-28.072	-0.214	0.125
-668.062	-200.000	0.002	0.153
-667.047	-200.000	-0.024	0.266
-666.032	-200.000	0.002	0.401
-665.018	264.201	0.194	-0.340
-664.003	457.538	-0.065	0.145
-662.989	-200.000	0.037	0.401
-661.974	-16.783	0.038	-0.025
-660.959	-61.836	0.055	0.023
-659.945	339.041	0.154	0.303
-658.930	25.845	0.129	0.109
-657.916	-120.730	-0.261	-0.044
-656.901	-23.219	-0.327	0.198
-655.886	800.000	-0.036	-0.151
-654.872	-57.754	-0.261	0.115
-653.857	-200.000	-0.007	-0.056
-652.843	-79.898	0.549	-0.186
-651.828	-127.528	-0.347	0.051
-650.814	-98.489	0.393	-0.101
-649.799	122.430	-0.098	-0.124
-648.784	-177.084	-0.206	-0.005
-647.770	-200.000	0.003	0.139
-646.755	35.178	0.179	0.158
-645.741	-46.293	-0.242	0.120
-644.726	-200.000	0.099	-0.492
-643.711	-4.844	0.079	-0.055
-642.697	-48.956	0.172	0.083
-641.682	-200.000	-0.002	0.136
-640.668	619.516	-0.145	-0.368
-639.653	14.858	0.102	-0.080
-638.638	-169.306	0.304	0.011
-637.624	300.479	0.040	0.073
-636.609	800.000	-0.037	-0.157
-635.595	-111.912	0.111	0.023
-634.580	755.595	-0.080	0.219
-633.565	800.000	0.111	-0.343
-632.551	24.974	0.196	0.163
-631.536	221.718	0.161	-0.260
-630.522	-17.763	-0.247	-0.156
-629.507	-200.000	-0.003	0.309
-628.492	-74.063	-0.186	-0.068
-627.478	610.506	-0.090	-0.227
-626.463	-123.991	-0.228	0.036
-625.449	385.704	0.077	-0.159
-624.434	-101.419	0.114	-0.028
-623.419	36.506	-0.296	0.263
-622.405	-101.567	0.215	0.053
-621.390	-74.849	-0.168	0.061
-620.376	319.330	-0.122	0.232
-619.361	102.555	-0.179	0.211
-618.346	127.900	0.005	-0.006
-617.332	-136.848	0.220	0.025
-616.317	83.872	-0.197	0.216
-615.303	-49.002	-0.209	-0.101
-614.288	-119.323	-0.116	0.020
-613.273	-66.305	-0.093	-0.037
-612.259	-200.000	-0.103	-0.479
-611.244	-200.000	0.022	-0.380
-610.230	46.120	-0.012	0.011
-609.215	-77.377	0.271	-0.095
-608.201	-200.000	0.040	-0.255
-607.186	-118.699	-0.172	0.031
-606.171	25.226	0.220	-0.183
-605.157	-200.000	-0.055	0.270
-604.142	-67.324	0.501	0.198
-603.128	-89.757	-0.035	0.010
-602.113	-101.905	-0.418	-0.102
-601.098	800.000	-0.158	-0.557
-600.084	82.003	-0.032	-0.035
-599.069	353.287	0.040	-0.081
-598.055	-48.406	0.177	0.086
-597.040	-118.005	0.126	-0.023
-596.025	14.315	-0.079	-0.062
-595.011	-200.000	0.033	-0.220
-593.996	-144.213	-0.323	0.030
-592.982	586.800	0.155	0.383
-591.967	-86.312	0.120	0.037
-590.952	299.885	-0.178	0.330
-589.938	800.000	-0.034	-0.098
-588.923	442.578	0.058	0.128
-587.909	-136.928	0.248	-0.029
-586.894	-59.068	-0.185	0.080
-585.879	40.677	-0.148	0.134
-584.865	-157.952	0.306	-0.018
-583.850	-63.769	0.520	0.214
-582.836	327.678	0.010	0.019
-581.821	180.200	0.248	0.366
-580.806	-86.297	0.118	-0.037
-579.792	-191.037	0.141	-0.001
-578.777	36.413	0.108	-0.096
-577.763	-200.000	-0.009	0.178
-576.748	800.000	-0.075	0.210
-575.733	247.626	0.179	-0.303
-574.719	409.677	-0.126	-0.268
-573.704	-37.998	-0.158	0.084
-572.690	-200.000	0.029	0.174
-571.675	-104.255	-0.062	0.015
-570.661	-81.665	0.274	0.090
-569.646	-138.599	-0.066	-0.007
-568.631	631.477	-0.027	0.070
-567.617	-200.000	0.013	0.121
-566.602	-128.449	0.211	0.030
-565.588	14.359	0.058	0.045
-564.573	259.384	-0.079	0.136
-563.558	-165.333	-0.296	-0.013
-562.544	178.899	0.116	-0.170
-561.529	-169.858	-0.041	0.001
-560.515	16.392	-0.204	0.162
-559.500	23.428	0.155	0.128
-558.485	69.792	-0.072	0.074
-557.471	-6.403	0.248	-0.170
-556.456	-103.706	0.144	0.034
-555.442	-6.929	0.229	0.156
-554.427	-198.007	-0.042	0.000
-553.412	-169.595	0.033	0.001
-552.398	-145.500	-0.152	-0.014
-551.383	-200.000	-0.022	-0.135
-550.369	57.288	0.128	0.125
-549.354	77.618	-0.120	-0.128
-548.339	-200.000	-0.002	0.260
-547.325	-36.753	-0.037	-0.020
-546.310	-200.000	0.037	0.250
-545.296	-200.000	-0.024	-0.266
-544.281	144.295	-0.067	-0.089
-543.266	-108.288	0.187	-0.041
-542.252	-143.112	0.274	0.027
-541.237	-200.000	-0.002	-0.303
-540.223	-60.082	0.098	0.042
-539.208	112.252	0.179	0.218
-538.193	-30.107	0.275	-0.157
-537.179	-200.000	0.009	-0.377
-536.164	-200.000	0.049	-0.285
-535.150	152.833	-0.059	-0.080
-534.135	-96.088	0.174	0.046
-533.121	-102.044	-0.148	-0.036
-532.106	-12.616	0.241	0.157
-531.091	-87.534	0.479	-0.145
-530.077	-43.269	-0.128	-0.065
-529.062	800.000	0.040	-0.129
-528.048	-68.836	0.190	0.073
-527.033	222.260	0.026	-0.043
-526.018	22.993	0.133	-0.109
-525.004	-6.896	-0.188	0.128
-523.989	138.861	-0.189	-0.249
-522.975	800.000	0.105	0.460
-521.960	-50.700	-0.167	-0.079
-520.945	-140.504	-0.094	0.010
-519.931	800.000	0.071	0.273
-518.916	-97.188	-0.354	0.093
-517.902	14.248	-0.247	-0.193
-516.887	-200.000	-0.033	-0.229
-515.872	329.179	-0.118	-0.227
-514.858	-200.000	0.029	0.270
-513.843	-36.997	0.080	0.043
-512.829	800.000	0.171	-0.500
-511.814	34.832	-0.262	-0.229
-510.799	257.254	0.055	0.094
-509.785	800.000	0.028	-0.108
-508.770	85.456	-0.160	-0.176
-507.756	-94.792	0.216	0.059
-506.741	800.000	0.059	0.226
-505.726	-16.383	-0.147	-0.094
-504.712	384.286	0.117	0.241
-503.697	449.791	0.121	0.268
-502.683	-74.466	-0.164	0.059
-501.668	96.584	-0.369	-0.424
-500.653	52.759	-0.107	-0.102
-499.639	-105.182	-0.322	-0.074
-498.624	-200.000	0.003	0.038
-497.610	-200.000	-0.001	0.052
-496.595	-200.000	-0.005	0.153
-495.581	800.000	-0.064	-0.178
-494.566	-35.758	-0.140	-0.076
-493.551	800.000	0.022	0.089
-492.537	-114.571	0.071	0.014
-491.522	-60.712	-0.133	-0.056
-490.508	-55.911	0.128	-0.057
-489.493	800.000	-0.086	-0.305
-488.478	513.196	-0.162	0.378
-487.464	25.472	-0.169	0.140
-486.449	38.013	-0.243	-0.216
-485.435	-200.000	-0.011	0.175
-484.420	483.911	-0.112	-0.256
-483.405	-134.451	-0.215	-0.026
-482.391	-200.000	0.040	0.343
-481.376	-46.635	0.216	-0.106
-480.362	147.638	-0.236	-0.318
-479.347	638.644	0.073	-0.186
-478.332	379.367	-0.083	-0.170
-477.318	-64.386	-0.067	0.027
-476.303	5.433	-0.060	0.044
-475.289	105.782	-0.169	-0.200
-474.274	-135.486	0.352	0.042
-473.259	-100.171	0.072	-0.018
-472.245	-58.332	-0.192	-0.084
-471.230	800.000	0.005	0.019
-470.216	147.133	-0.131	0.176
-469.201	-200.000	0.033	0.231
-468.186	-200.000	-0.013	-0.195
-467.172	-102.982	0.349	-0.083
-466.157	-200.000	-0.011	0.251
-465.143	-140.559	0.095	0.010
-464.128	-63.407	-0.052	0.022
-463.113	800.000	0.061	0.204
-462.099	-200.000	-0.066	0.342
-461.084	-119.027	-0.254	-0.044
-460.070	-103.988	0.311	-0.072
-459.055	-74.417	-0.103	-0.037
-458.040	800.000	-0.037	-0.146
-457.026	63.470	-0.134	0.135
-456.011	526.998	0.077	0.181
-454.997	663.109	0.049	-0.127
-453.982	-32.357	0.511	-0.285
-452.968	-76.928	-0.250	-0.087
-451.953	132.073	0.181	-0.233
-450.938	800.000	0.098	-0.288
-449.924	-24.346	-0.076	-0.045
-448.909	-116.679	0.447	-0.082
-447.895	446.926	0.029	-0.064
-446.880	214.674	0.096	-0.153
-445.865	-43.869	0.419	0.211
-444.851	800.000	0.051	-0.171
-443.836	-123.792	-0.160	0.025
-442.822	92.908	-0.123	0.139
-441.807	522.201	0.101	-0.236
-440.792	290.237	0.166	-0.301
-439.778	-81.658	0.106	0.035
-438.763	-47.060	0.269	-0.131
-437.749	474.862	-0.030	0.067
-436.734	37.796	0.347	0.308
-435.719	410.367	0.016	-0.035
-434.705	89.298	0.148	-0.165
-433.690	-200.000	0.014	0.182
-432.676	488.649	-0.073	0.167
-431.661	14.348	-0.180	-0.140
-430.646	-92.550	0.217	0.061
-429.632	199.956	0.008	-0.012
-428.617	9.682	-0.174	0.132
-427.603	438.706	-0.055	0.121
-426.588	173.777	-0.140	0.202
-425.573	800.000	0.025	0.070
-424.559	-131.073	0.142	0.019
-423.544	-188.414	-0.356	0.004
-422.530	24.848	0.248	-0.205
-421.515	-11.739	0.161	-0.106
-420.500	577.115	-0.035	0.086
-419.486	-131.493	0.278	0.037
-418.471	47.173	0.149	-0.139
-417.457	-200.000	-0.054	0.376
-416.442	327.740	0.100	0.191
-415.428	-18.884	-0.156	0.097
-414.413	769.309	-0.060	0.162
-413.398	800.000	-0.012	0.035
-412.384	-47.173	0.027	0.013
-411.369	-10.746	0.217	-0.143
-410.355	-200.000	-0.005	0.188
-409.340	237.151	-0.232	-0.384
-408.325	-120.113	0.133	-0.023
-407.311	75.486	0.115	-0.121
-406.296	503.788	0.077	-0.177
-405.282	-200.000	0.046	0.353
-404.267	4.552	-0.132	-0.097
-403.252	725.628	-0.058	0.153
-402.238	-72.521	-0.159	-0.059
-401.223	-200.000	-0.025	-0.212
-400.209	-200.000	0.017	-0.114
-399.194	-200.000	-0.037	-0.221
-398.179	-200.000	0.027	-0.154
-397.165	-15.018	-0.214	-0.137
-396.150	656.433	0.061	0.157
-395.136	14.316	0.052	0.040
-394.121	235.637	-0.103	-0.170
-393.106	-83.183	0.422	-0.135
-392.092	-1.054	0.151	0.107
-391.077	105.188	0.130	0.153
-390.063	555.230	0.134	-0.321
-389.048	9.187	-0.187	0.141
-388.033	438.956	0.089	0.194
-387.019	-125.574	-0.012	0.002
-386.004	693.788	0.111	0.291
-384.990	-65.093	-0.203	0.082
-383.975	129.540	-0.251	0.319
-382.960	252.100	0.032	0.055
-381.946	37.153	0.201	-0.178
-380.931	800.000	0.039	-0.159
-379.917	-178.717	0.141	0.003
-378.902	-96.720	0.140	-0.037
-377.888	117.293	0.263	0.323
-376.873	-111.761	0.104	-0.021
-375.858	78.754	0.270	0.288
-374.844	-94.665	0.088	-0.024
-373.829	800.000	0.097	0.313
-372.815	566.575	-0.074	0.180
-371.800	800.000	0.029	0.096
-370.785	-200.000	-0.027	0.145
-369.771	157.945	0.161	0.223
-368.756	-105.282	0.276	-0.063
-367.742	109.524	-0.294	-0.351
-366.727	-52.629	-0.274	-0.126
-365.712	-200.000	0.019	0.123
-364.698	243.884	-0.141	0.236
-363.683	94.157	-0.073	0.082
-362.669	-38.467	0.307	-0.162
-361.654	-200.000	0.019	0.292
-360.639	351.473	0.042	0.083
-359.625	-130.153	-0.248	-0.034
-358.610	480.192	0.091	-0.206
-357.596	249.883	-0.035	0.059
-356.581	105.708	-0.231	0.272
-355.566	-120.462	0.201	0.034
-354.552	-96.016	0.251	0.067
-353.537	-109.478	0.352	0.074
-352.523	-200.000	0.037	-0.295
-351.508	-200.000	-0.017	-0.252
-350.493	141.501	-0.192	-0.253
-349.479	-54.620	-0.123	-0.055
-348.464	144.554	0.129	0.171
-347.450	-200.000	0.045	-0.295
-346.435	-16.819	-0.125	0.079
-345.420	-200.000	0.017	0.146
-344.406	130.924	-0.075	0.095
-343.391	718.282	0.031	0.083
-342.377	-90.284	-0.105	0.030
-341.362	-200.000	-0.044	-0.280
-340.348	-150.383	-0.463	0.035
-339.333	419.764	0.038	-0.081
-338.318	-28.747	-0.154	-0.088
-337.304	694.121	-0.114	0.298
-336.289	-137.564	-0.132	-0.015
-335.275	43.729	0.063	-0.058
-334.260	-62.539	-0.280	-0.116
-333.245	-95.052	-0.199	0.054
-332.231	-5.504	0.186	-0.127
-331.216	-200.000	0.025	-0.193
-330.202	88.560	-0.205	0.227
-329.187	-30.133	-0.380	-0.215
-328.172	800.000	-0.041	-0.122
-327.158	-89.423	-0.104	0.031
-326.143	221.961	0.088	-0.141
-325.129	800.000	-0.033	0.130
-324.114	-200.000	-0.020	-0.134
-323.099	800.000	0.050	0.169
-322.085	115.404	-0.052	0.063
-321.070	89.631	0.060	0.067
-320.056	-49.397	-0.002	-0.001
-319.041	-80.308	-0.151	0.050
-318.026	75.090	-0.131	-0.137
-317.012	-200.000	0.019	-0.182
-315.997	-200.000	-0.004	-0.080
-314.983	53.499	-0.270	0.258
-313.968	-94.683	0.227	0.061
-312.953	326.548	-0.017	0.032
-311.939	0.426	-0.098	0.069
-310.924	40.270	0.269	-0.240
-309.910	-87.104	-0.285	0.086
-308.895	-163.057	0.259	0.012
-307.880	-31.003	0.290	-0.163
-306.866	58.208	-0.141	-0.138
-305.851	-27.575	-0.276	0.159
-304.837	42.487	-0.180	-0.163
-303.822	800.000	0.044	-0.185
-302.807	-63.601	-0.180	-0.073
-301.793	-112.611	-0.114	-0.023
-300.778	-93.395	0.409	-0.113
-299.764	-113.046	-0.308	0.060
-298.749	605.051	-0.139	0.344
-297.735	-110.621	-0.448	-0.092
-296.720	-11.853	-0.298	0.195
-295.705	-152.595	0.251	-0.018
-294.691	-97.882	0.123	-0.032
-293.676	-176.675	-0.164	0.004
-292.662	343.820	0.123	-0.239
-291.647	131.792	0.056	0.072
-290.632	-31.710	-0.144	0.080
-289.618	145.147	0.139	0.185
-288.603	-36.841	0.072	-0.039
-287.589	231.567	0.086	-0.140
-286.574	-15.347	-0.065	0.041
-285.559	-37.536	0.206	0.109
-284.545	-200.000	-0.013	0.247
-283.530	364.182	0.062	-0.124
-282.516	567.365	-0.083	-0.200
-281.501	269.144	-0.200	0.348
-280.486	-119.656	-0.120	-0.021
-279.472	-78.772	-0.105	0.036
-278.457	381.353	-0.065	-0.132
-277.443	63.155	-0.279	-0.277
-276.428	317.746	0.073	0.138
-275.413	502.219	-0.043	-0.098
-274.399	800.000	0.041	-0.138
-273.384	-200.000	-0.076	0.337
-272.370	800.000	0.072	-0.213
-271.355	-128.281	-0.020	0.003
-270.340	-143.369	-0.227	-0.022
-269.326	-200.000	-0.036	0.321
-268.311	-200.000	-0.019	0.241
-267.297	-12.591	0.242	-0.156
-266.282	176.176	0.143	-0.206
-265.267	10.173	0.215	0.162
-264.253	-200.000	-0.005	0.077
-263.238	-200.000	-0.041	0.340
-262.224	-46.892	-0.225	-0.109
-261.209	800.000	-0.109	0.352
-260.195	97.848	-0.258	0.295
-259.180	-23.818	-0.255	-0.152
-258.165	-69.750	0.149	0.056
-257.151	34.772	0.151	-0.131
-256.136	155.573	-0.078	-0.107
-255.122	-121.374	-0.381	-0.063
-254.107	456.586	0.046	-0.101
-253.092	-200.000	-0.022	0.132
-252.078	39.990	0.173	-0.154
-251.063	-24.809	0.329	-0.194
-250.049	-200.000	-0.025	0.258
-249.034	-58.327	-0.315	0.136
-248.019	18.052	-0.110	0.087
-247.005	122.362	0.163	0.203
-245.990	716.212	-0.074	0.196
-244.976	220.260	-0.030	-0.048
-243.961	-74.221	-0.403	-0.144
-242.946	800.000	-0.093	0.263
-241.932	196.733	-0.173	0.261
-240.917	800.000	0.125	-0.419
-239.903	-130.714	0.373	0.050
-238.888	-12.416	0.130	0.084
-237.873	82.988	-0.364	-0.393
-236.859	221.690	0.041	-0.065
-235.844	-99.315	-0.322	0.081
-234.830	-59.143	0.423	0.181
-233.815	-200.000	-0.023	0.107
-232.800	800.000	-0.114	-0.452
-231.786	-44.281	-0.147	0.073
-230.771	391.204	-0.077	-0.158
-229.757	17.086	-0.279	-0.219
-228.742	188.653	-0.046	0.068
-227.727	46.317	0.189	0.174
-226.713	-200.000	-0.012	-0.103
-225.698	-200.000	-0.035	0.245
-224.684	-200.000	-0.013	-0.088
-223.669	-90.667	-0.188	0.054
-222.655	800.000	-0.047	-0.167
-221.640	-74.867	0.176	-0.063
-220.625	800.000	0.056	-0.219
-219.611	-38.293	-0.302	-0.158
-218.596	57.386	0.138	0.134
-217.582	117.977	-0.023	-0.028
-216.567	-79.791	0.339	0.113
-215.552	220.836	0.079	-0.125
-214.538	63.250	-0.114	0.114
-213.523	-117.760	0.218	-0.039
-212.509	6.440	-0.066	0.049
-211.494	-96.892	0.385	0.100
-210.479	-102.418	0.275	-0.065
-209.465	19.943	-0.057	0.046
-208.450	25.033	-0.264	-0.217
-207.436	-169.369	-0.223	0.008
-206.421	458.203	-0.108	0.237
-205.406	168.364	-0.169	0.238
-204.392	800.000	0.034	0.097
-203.377	800.000	-0.051	0.160
-202.363	287.314	-0.102	-0.182
-201.348	-142.189	0.143	0.014
-200.333	800.000	0.035	0.139
-199.319	-21.672	0.127	0.077
-198.304	132.199	-0.075	-0.096
-197.290	-24.409	0.051	0.030
-196.275	-53.440	0.393	0.178
-195.260	126.865	0.201	-0.252
-194.246	-112.413	-0.216	0.043
-193.231	-200.000	0.033	0.323
-192.217	533.455	0.064	-0.150
-191.202	-200.000	0.058	-0.279
-190.187	-200.000	0.038	0.279
-189.173	188.377	-0.144	-0.213
-188.158	-120.355	-0.150	-0.025
-187.144	146.760	-0.170	0.227
-186.129	137.421	-0.112	-0.144
-185.114	-200.000	0.062	-0.310
-184.100	800.000	-0.066	-0.183
-183.085	113.953	-0.241	0.289
-182.071	6.269	0.221	0.162
-181.056	317.234	-0.088	0.164
-180.042	-200.000	-0.004	0.107
-179.027	-137.124	0.340	-0.038
-178.012	-101.340	-0.344	-0.083
-176.998	95.050	-0.154	0.174
-175.983	86.549	0.160	0.174
-174.969	122.758	-0.292	-0.362
-173.954	43.375	0.147	-0.133
-172.939	-200.000	0.003	0.091
-171.925	-200.000	-0.013	-0.183
-170.910	800.000	-0.025	-0.091
-169.896	-200.000	-0.029	-0.208
-168.881	-121.406	0.331	0.054
-167.866	-107.340	0.341	-0.074
-166.852	121.163	-0.129	0.158
-165.837	94.661	0.290	0.326
-164.823	84.513	0.078	-0.084
-163.808	800.000	0.061	0.207
-162.793	-147.981	-0.124	0.010
-161.779	285.223	-0.137	0.244
-160.764	-179.526	0.174	-0.004
-159.750	63.875	0.079	-0.079
-158.735	800.000	0.155	-0.499
-157.720	-200.000	0.000	0.064
-156.706	37.281	-0.040	-0.035
-155.691	-132.728	-0.311	0.039
-154.677	-75.723	-0.087	0.030
-153.662	337.665	-0.085	0.164
-152.647	41.297	0.125	0.112
-151.633	-200.000	0.033	0.144
-150.618	-112.336	-0.444	-0.088
-149.604	-169.234	0.333	0.012
-148.589	800.000	0.048	0.184
-147.574	-159.134	0.272	0.015
-146.560	-67.021	-0.312	-0.122
-145.545	78.186	0.201	0.212
-144.531	576.560	0.134	-0.324
-143.516	424.847	0.158	-0.336
-142.502	-94.487	-0.065	-0.017
-141.487	128.986	-0.087	0.110
-140.472	190.029	-0.105	0.155
-139.458	-127.982	-0.147	0.021
-138.443	270.527	0.064	0.111
-137.429	221.890	0.144	-0.228
-136.414	100.899	0.022	0.026
-135.399	-93.691	-0.059	0.016
-134.385	800.000	-0.038	0.119
-133.370	257.758	0.096	-0.163
-132.356	-25.575	-0.254	-0.148
-131.341	281.238	-0.195	0.345
-130.326	800.000	-0.093	0.398
-129.312	333.093	0.074	0.141
-128.297	-9.487	0.122	-0.080
-127.283	193.397	-0.115	0.171
-126.268	-29.726	-0.487	-0.274
-125.253	39.889	0.177	0.157
-124.239	144.878	0.263	0.347
-123.224	-96.571	0.161	0.042
-122.210	-120.454	0.012	-0.002
-121.195	800.000	-0.042	-0.174
-120.180	152.683	0.203	0.274
-119.166	-4.073	0.188	0.128
-118.151	-137.776	0.319	0.035
-117.137	-99.331	-0.160	-0.040
-116.122	98.636	-0.071	0.081
-115.107	-22.316	0.363	0.217
-114.093	256.208	-0.109	-0.184
-113.078	-200.000	0.057	0.448
-112.064	-200.000	0.053	0.259
-111.049	-134.918	-0.128	0.015
-110.034	-102.054	0.080	0.019
-109.020	5.472	0.205	-0.149
-108.005	-14.803	-0.116	0.073
-106.991	-104.060	0.395	0.091
-105.976	46.674	-0.131	-0.120
-104.962	800.000	0.077	0.262
-103.947	129.385	0.101	0.128
-102.932	-42.168	-0.182	-0.092
-101.918	-4.504	0.397	-0.271
-100.903	-200.000	-0.008	0.219
-99.889	-154.714	-0.190	0.012
-98.874	95.221	-0.241	-0.271
-97.859	-41.751	0.112	0.056
-96.845	-200.000	-0.185	-0.000
-95.830	-200.000	-0.044	0.319
-94.816	308.982	0.152	-0.280
-93.801	66.602	0.136	0.136
-92.786	-200.000	0.048	0.336
-91.772	-20.565	-0.128	-0.077
-90.757	-200.000	0.000	0.085
-89.743	538.065	-0.088	-0.207
-88.728	43.452	0.154	-0.138
-87.713	40.355	0.130	-0.115
-86.699	-130.475	0.266	-0.035
-85.684	-200.000	-0.030	-0.200
-84.670	-83.347	0.246	0.078
-83.655	173.588	0.147	0.209
-82.640	-20.551	0.172	0.104
-81.626	349.638	0.044	0.085
-80.611	-36.071	-0.343	0.182
-79.597	-109.912	-0.452	-0.093
-78.582	38.485	0.258	-0.227
-77.567	376.578	0.023	-0.046
-76.553	19.684	-0.170	-0.134
-75.538	-158.822	-0.176	0.010
-74.524	-63.532	0.083	-0.034
-73.509	132.152	-0.208	0.263
-72.494	151.460	-0.079	0.106
-71.480	-54.951	0.099	-0.044
-70.465	47.333	-0.150	0.138
-69.451	27.667	-0.097	0.081
-68.436	-200.000	0.021	0.497
-67.422	-145.934	0.138	-0.012
-66.407	338.653	-0.112	0.214
-65.392	800.000	0.022	0.093
-64.378	-159.042	-0.184	-0.010
-63.363	-118.185	0.007	-0.001
-62.349	-200.000	0.022	0.208
-61.334	88.949	-0.863	-0.946
-60.319	69.740	0.507	0.514
-59.305	-200.000	-0.074	-1.125
-58.290	376.186	0.551	1.107
-57.276	533.170	0.576	1.343
-56.261	-200.000	95.786	594.438
-55.246	566.097	1372.202	3276.673
-54.232	161.112	2550.133	3508.234
-53.217	112.120	2162.465	2572.480
-52.203	42.839	1707.634	1531.583
-51.188	35.264	1521.380	1312.847
-50.173	32.849	1495.008	1273.764
-49.159	51.911	1543.601	1446.314
-48.144	53.751	1561.449	1475.601
-47.130	35.603	1520.532	1314.231
-46.115	32.462	1506.204	1280.467
-45.100	32.273	1502.790	1276.229
-44.086	32.127	1501.265	1273.898
-43.071	32.143	1498.828	1271.883
-42.057	32.198	1496.959	1270.623
-41.042	32.061	1496.229	1269.025
-40.027	32.088	1494.996	1268.112
-39.013	32.160	1492.723	1266.617
-37.998	32.113	1492.110	1265.732
-36.984	32.152	1490.887	1264.903
-35.969	32.090	1489.644	1263.380
-34.954	32.137	1487.866	1262.139
-33.940	32.203	1486.626	1261.485
-32.925	32.170	1484.861	1259.716
-31.911	32.194	1483.235	1258.444
-30.896	32.305	1481.847	1257.957
-29.881	32.280	1480.804	1256.855
-28.867	32.120	1480.015	1255.070
-27.852	32.067	1478.699	1253.546
-26.838	32.192	1477.192	1253.054
-25.823	32.181	1475.291	1251.316
-24.809	32.124	1473.739	1249.571
-23.794	32.236	1471.888	1248.701
-22.779	32.147	1471.187	1247.464
-21.765	32.212	1469.753	1246.633
-20.750	32.157	1468.775	1245.388
-19.736	32.119	1467.875	1244.323
-18.721	32.107	1466.833	1243.311
-17.706	32.147	1465.785	1242.639
-16.692	32.119	1464.344	1241.180
-15.677	32.132	1463.180	1240.229
-14.663	32.133	1462.068	1239.243
-13.648	32.059	1461.401	1238.145
-12.633	32.034	1460.558	1237.213
-11.619	32.009	1459.670	1236.252
-10.604	32.054	1458.979	1235.911
-9.590	32.011	1458.331	1235.032
-8.575	32.170	1457.173	1235.044
-7.560	32.081	1456.341	1233.709
-6.546	32.019	1455.550	1232.578
-5.531	32.057	1454.781	1232.128
-4.517	32.071	1453.434	1231.031
-3.502	32.051	1452.427	1229.998
-2.487	32.043	1451.293	1228.939
-1.473	32.125	1449.964	1228.300
-0.458	32.144	1448.309	1226.976
0.556	31.975	1439.367	1215.920
1.571	29.105	1414.509	1176.506
2.586	25.864	1358.292	1109.725
3.600	24.355	1279.223	1036.277
4.615	23.261	1231.305	991.249
5.629	19.370	1173.930	924.163
6.644	9.748	1087.128	807.777
7.659	2.731	1045.998	743.236
8.673	1.871	1040.775	735.314
9.688	1.529	1037.620	731.375
10.702	1.449	1035.686	729.561
11.717	1.392	1034.227	728.199
12.731	4.500	1036.821	744.880
13.746	14.076	1051.154	801.471
14.761	22.408	1061.657	849.801
15.775	24.651	1064.296	862.680
16.790	25.050	1063.487	863.872
17.804	24.954	1063.033	862.966
18.819	24.560	1062.558	860.605
19.834	24.739	1061.801	860.775
20.848	24.797	1061.582	860.800
21.863	25.133	1060.829	861.728
22.877	24.995	1060.466	860.697
23.892	24.990	1059.679	859.956
24.907	24.903	1058.580	858.572
25.921	24.778	1058.577	857.894
26.936	24.928	1058.044	858.106
27.950	24.892	1056.692	856.760
28.965	24.853	1055.464	855.502
29.980	24.785	1054.120	854.012
30.994	24.626	1053.150	852.393
32.009	24.814	1052.295	852.520
33.023	25.078	1051.214	852.826
34.038	24.673	1050.692	850.399
35.053	24.780	1049.536	849.900
36.067	25.021	1048.520	850.142
37.082	24.961	1048.278	849.589
38.096	24.941	1047.142	848.497
39.111	25.164	1046.218	848.728
40.126	25.233	1045.946	848.762
41.140	25.124	1044.798	847.240
42.155	24.889	1043.155	844.723
43.169	24.588	1041.877	842.194
44.184	24.591	1041.152	841.547
45.199	24.634	1040.005	840.748
46.213	24.558	1038.877	839.406
47.228	24.663	1037.676	838.851
48.242	24.672	1037.576	838.741
49.257	24.769	1037.172	838.793
50.271	24.809	1036.061	838.009
51.286	25.019	1035.285	838.289
52.301	25.018	1034.802	837.820
53.315	25.062	1034.245	837.502
54.330	25.089	1032.885	836.449
55.344	24.917	1032.562	835.311
56.359	24.831	1031.888	834.295
57.374	24.861	1031.260	833.853
58.388	24.829	1029.646	832.324
59.403	24.674	1029.446	831.366
60.417	24.656	1028.931	830.794
61.432	24.655	1027.467	829.534
62.447	24.603	1026.820	828.697
63.461	24.694	1026.383	828.693
64.476	24.744	1025.884	828.446
65.490	24.770	1024.905	827.706
66.505	24.659	1023.861	826.274
67.520	24.693	1023.087	825.734
68.534	24.716	1022.390	825.205
69.549	24.724	1021.459	824.418
70.563	24.339	1020.490	821.789
71.578	24.094	1019.705	819.958
72.593	24.313	1018.974	820.305
73.607	24.033	1017.885	818.065
74.622	24.154	1016.676	817.578
75.636	24.422	1016.147	818.309
76.651	24.492	1015.598	818.117
77.666	24.466	1014.641	817.155
78.680	24.377	1013.624	815.855
79.695	24.454	1013.131	815.738
80.709	24.411	1012.683	815.111
81.724	24.557	1012.014	815.165
82.739	24.570	1010.707	814.099
83.753	24.495	1010.105	813.200
84.768	24.760	1009.505	813.850
85.782	25.132	1009.305	815.310
86.797	25.341	1007.733	814.918
87.812	25.278	1007.253	814.170
88.826	25.091	1006.297	812.481
89.841	25.090	1005.573	811.820
90.855	25.115	1004.959	811.364
91.870	25.162	1004.320	810.987
92.884	25.243	1003.026	810.239
93.899	24.853	1003.047	808.422
94.914	25.015	1001.007	807.435
95.928	25.065	1000.464	807.154
96.943	25.190	999.459	806.831
97.957	24.869	998.715	804.715
98.972	24.586	997.242	802.190
99.987	24.408	996.333	800.589
101.001	24.568	995.930	800.910
102.016	24.779	995.605	801.523
103.030	24.864	994.552	800.987
104.045	24.982	993.079	800.257
105.060	24.775	991.876	798.291
106.074	24.517	991.205	796.529
107.089	24.558	990.288	795.906
108.103	24.834	990.283	797.063
109.118	24.970	989.137	796.674
110.133	24.627	987.952	794.123
111.147	24.575	986.886	792.967
112.162	24.597	986.226	792.462
113.176	24.431	984.613	790.361
114.191	24.573	983.814	790.281
115.206	24.691	983.182	790.224
116.220	24.310	982.033	787.545
117.235	24.247	981.039	786.403
118.249	24.210	981.188	786.291
119.264	24.145	980.681	785.525
120.279	24.215	979.428	784.762
121.293	24.205	978.249	783.701
122.308	24.245	977.911	783.539
123.322	24.323	977.018	783.097
124.337	24.305	976.207	782.301
125.352	24.141	974.468	780.116
126.366	23.815	972.767	777.260
127.381	23.619	971.520	775.339
128.395	24.110	971.836	777.669
129.410	24.570	971.378	779.241
130.424	24.858	970.697	779.883
131.439	24.932	969.767	779.385
132.454	24.668	969.008	777.558
133.468	24.809	967.975	777.275
134.483	24.814	967.059	776.493
135.497	24.717	966.817	775.808
136.512	25.078	965.854	776.530
137.527	25.074	965.411	776.087
138.541	25.118	964.013	775.085
139.556	24.997	963.572	774.139
140.570	25.032	962.886	773.670
141.585	25.062	961.851	772.900
142.600	25.048	961.532	772.516
143.614	25.052	960.361	771.524
144.629	25.075	959.224	770.641
145.643	25.380	958.795	771.540
146.658	25.260	958.071	770.375
147.673	24.966	956.672	767.920
148.687	25.041	955.583	767.298
149.702	25.006	954.248	766.012
150.716	24.852	953.603	764.765
151.731	24.735	952.841	763.589
152.746	24.758	952.450	763.305
153.760	25.095	951.603	763.997
154.775	25.348	950.501	764.117
155.789	25.270	949.715	763.088
156.804	25.316	948.723	762.421
157.819	25.162	947.752	760.917
158.833	25.291	946.876	760.695
159.848	25.268	946.628	760.330
160.862	25.429	945.560	760.086
161.877	25.181	944.821	758.376
162.892	25.241	943.994	757.897
163.906	25.269	942.859	757.040
164.921	25.229	942.163	756.245
165.935	25.102	941.260	754.919
166.950	25.079	940.211	753.914
167.964	25.165	939.821	753.895
168.979	25.108	938.748	752.728
169.994	25.074	937.171	751.256
171.008	24.989	935.863	749.782
172.023	25.207	935.543	750.373
173.037	25.405	934.835	750.566
174.052	25.186	933.597	748.594
175.067	24.954	933.195	747.235
176.081	24.908	932.191	746.174
177.096	24.965	931.334	745.661
178.110	24.934	930.404	744.721
179.125	24.911	928.975	743.417
180.140	24.635	928.107	741.510
181.154	24.559	927.842	740.917
182.169	24.703	927.442	741.128
183.183	24.936	927.228	741.858
184.198	25.201	926.830	742.571
185.213	25.196	925.610	741.505
186.227	25.069	925.006	740.432
187.242	25.223	924.392	740.514
188.256	25.242	923.767	740.023
189.271	25.093	923.589	739.203
190.286	25.185	922.605	738.727
191.300	25.242	921.800	738.253
192.315	24.555	920.467	734.297
193.329	23.796	918.862	729.836
194.344	23.306	917.586	726.744
195.359	24.127	917.858	730.264
196.373	24.791	918.644	733.548
197.388	25.116	918.297	734.539
198.402	25.110	917.821	734.070
199.417	25.077	917.111	733.303
200.432	25.113	916.668	733.028
201.446	25.156	915.613	732.295
202.461	24.684	914.822	729.674
203.475	24.808	914.361	729.749
204.490	24.341	913.239	726.885
205.504	23.156	910.779	720.041
206.519	23.521	911.031	721.664
207.534	24.629	911.237	726.271
208.548	24.821	910.456	726.363
209.563	24.969	910.886	727.242
210.577	25.043	910.034	726.797
211.592	24.875	908.892	725.140
212.607	25.092	909.124	726.142
213.621	25.298	908.400	726.333
214.636	25.269	907.780	725.655
215.650	25.319	907.231	725.354
216.665	25.160	906.301	723.902
217.680	25.151	906.159	723.688
218.694	25.418	905.410	724.105
219.709	25.006	904.695	721.810
220.723	24.656	903.712	719.552
221.738	24.821	903.341	719.856
222.753	25.027	902.603	720.031
223.767	25.122	902.113	719.958
224.782	25.063	901.255	718.974
225.796	25.393	900.620	719.724
226.811	25.414	900.114	719.341
227.826	24.904	899.314	716.598
228.840	24.120	897.380	711.863
229.855	24.023	897.258	711.316
230.869	24.428	896.267	712.084
231.884	23.889	895.825	709.517
232.899	23.997	895.443	709.582
233.913	24.921	895.401	713.168
234.928	25.089	894.827	713.319
235.942	24.881	894.493	712.161
236.957	24.976	893.679	711.828
237.972	24.714	892.514	709.795
238.986	24.629	891.772	708.806
240.001	24.677	891.627	708.820
241.015	24.812	890.523	708.415
242.030	24.938	890.028	708.456
243.045	25.079	889.426	708.472
244.059	25.085	889.360	708.379
245.074	25.355	888.521	708.714
246.088	25.170	888.095	707.581
247.103	24.800	887.332	705.451
248.117	24.738	886.908	704.807
249.132	25.383	886.817	707.214
250.147	25.897	886.305	708.765
251.161	25.836	886.064	708.271
252.176	25.912	885.205	707.819
253.190	25.932	885.081	707.735
254.205	25.980	884.700	707.556
255.220	26.333	884.314	708.569
256.234	26.154	883.736	707.343
257.249	26.103	882.704	706.253
258.263	25.975	881.893	705.045
259.278	25.921	881.270	704.272
260.293	25.992	880.896	704.189
261.307	26.069	880.533	704.136
262.322	25.926	879.801	702.931
263.336	25.849	879.014	701.938
264.351	25.305	877.796	698.788
265.366	24.349	875.769	693.396
266.380	23.868	874.601	690.545
267.395	24.684	875.502	694.364
268.409	25.596	875.582	697.908
269.424	25.437	874.971	696.741
270.439	25.600	874.620	697.034
271.453	25.814	873.848	697.186
272.468	25.799	872.867	696.284
273.482	25.895	872.784	696.527
274.497	26.079	872.658	697.073
275.512	25.852	871.381	695.118
276.526	25.323	869.614	691.610
277.541	25.529	869.490	692.243
278.555	25.815	869.445	693.246
279.570	25.660	868.836	692.103
280.585	25.400	868.277	690.595
281.599	25.591	867.593	690.727
282.614	25.773	867.134	690.996
283.628	25.216	866.102	687.977
284.643	24.830	865.660	686.088
285.657	25.361	864.851	687.417
286.672	25.029	864.660	685.935
287.687	24.603	863.796	683.559
288.701	25.223	863.372	685.534
289.716	25.518	863.172	686.439
290.730	25.283	861.982	684.537
291.745	24.984	861.445	682.910
292.760	24.831	860.510	681.524
293.774	24.873	859.928	681.164
294.789	25.678	860.665	684.751
295.803	26.256	860.592	686.831
296.818	26.373	859.998	686.741
297.833	26.343	859.706	686.335
298.847	26.102	858.742	684.591
299.862	25.841	857.464	682.521
300.876	25.939	857.250	682.663
301.891	26.211	856.922	683.368
302.906	26.325	856.355	683.287
303.920	25.912	855.132	680.691
304.935	25.853	854.538	679.938
305.949	26.332	854.230	681.437
306.964	26.441	853.847	681.484
307.979	26.096	853.109	679.533
308.993	26.074	852.899	679.225
310.008	26.336	852.848	680.109
311.022	26.439	852.045	679.796
312.037	26.366	851.423	678.967
313.052	26.157	850.683	677.532
314.066	26.049	849.934	676.469
315.081	25.194	848.633	672.172
316.095	24.425	847.450	668.297
317.110	25.021	847.669	670.641
318.125	25.986	847.644	674.171
319.139	25.625	846.669	671.989
320.154	24.213	845.200	665.496
321.168	23.983	844.278	663.851
322.183	24.496	844.481	665.866
323.197	25.321	845.134	669.401
324.212	25.884	844.217	670.709
325.227	26.004	844.006	670.930
326.241	25.989	844.091	670.884
327.256	26.120	843.070	670.497
328.270	25.876	842.369	668.976
329.285	25.826	841.744	668.235
330.300	25.605	840.877	666.668
331.314	25.400	840.244	665.350
332.329	25.534	839.357	665.082
333.343	25.975	839.063	666.422
334.358	26.180	838.975	667.051
335.373	26.262	838.380	666.821
336.387	26.159	838.012	666.087
337.402	26.501	837.672	667.019
338.416	26.500	837.339	666.692
339.431	26.671	836.688	666.745
340.446	26.799	835.872	666.506
341.460	26.833	835.745	666.470
342.475	26.763	835.111	665.648
343.489	26.584	834.413	664.379
344.504	26.634	833.737	663.963
345.519	26.797	833.642	664.426
346.533	27.059	833.322	665.072
347.548	27.193	832.749	665.045
348.562	27.087	832.480	664.383
349.577	27.095	831.754	663.775
350.592	27.023	831.159	662.981
351.606	27.079	830.394	662.515
352.621	26.823	830.248	661.405
353.635	26.911	829.730	661.257
354.650	26.959	828.973	660.770
355.665	26.356	828.202	657.902
356.679	25.522	826.357	653.348
357.694	25.273	825.825	651.965
358.708	25.934	825.963	654.419
359.723	25.829	825.267	653.427
360.738	26.054	825.411	654.298
361.752	26.496	825.287	655.745
362.767	26.672	824.734	655.885
363.781	26.831	824.790	656.448
364.796	27.136	824.676	657.402
365.810	27.240	824.425	657.519
366.825	27.209	824.136	657.120
367.840	27.210	823.771	656.773
368.854	27.148	822.712	655.649
369.869	26.836	821.803	653.741
370.883	26.711	820.850	652.476
371.898	26.677	820.660	652.144
372.913	26.654	819.953	651.441
373.927	26.686	819.175	650.881
374.942	26.864	818.631	651.029
375.956	26.875	818.274	650.727
376.971	26.969	817.742	650.584
377.986	26.997	817.518	650.449
379.000	27.183	817.169	650.779
380.015	27.270	816.230	650.284
381.029	27.081	815.759	649.177
382.044	27.083	814.937	648.472
383.059	27.286	814.641	648.902
384.073	27.340	813.853	648.413
385.088	27.203	814.080	648.045
386.102	27.373	813.075	647.794
387.117	27.147	812.312	646.324
388.132	26.999	812.022	645.512
389.146	26.881	811.082	644.288
390.161	26.350	809.796	641.326
391.175	26.285	809.988	641.188
392.190	26.926	809.922	643.354
393.205	27.003	809.511	643.245
394.219	25.983	807.569	638.037
395.234	24.380	805.448	630.644
396.248	23.522	804.176	626.563
397.263	24.629	805.292	631.288
398.278	26.461	806.941	639.006
399.292	26.777	806.608	639.799
400.307	26.639	806.073	638.832
401.321	26.618	805.503	638.250
402.336	26.586	805.363	637.971
403.350	27.006	804.781	638.931
404.365	27.388	804.939	640.344
405.380	27.780	804.187	641.065
406.394	27.822	804.405	641.331
407.409	27.960	804.105	641.521
408.423	28.039	803.424	641.197
409.438	27.992	802.932	640.581
410.453	27.802	802.862	639.803
411.467	27.961	802.272	639.832
412.482	27.989	801.330	639.125
413.496	28.029	800.898	638.863
414.511	28.091	800.980	639.089
415.526	27.997	800.548	638.359
416.540	27.981	800.227	637.990
417.555	27.929	799.465	637.144
418.569	27.596	798.870	635.453
419.584	27.753	798.076	635.312
420.599	27.847	798.049	635.561
421.613	110.463	1285.711	1460.249
422.628	95.192	1356.775	1460.367
