DTS Sentinel unit serial number:	SN413079Multiplexer serial number:	ORYXHardware model number:	OX4-SRSoftware version number:	ORYX F/W v4.00 Oryx Data Collector v3.7.2.0data status	okinstallation	princeton_trtdifferential loss correction	single-endedforward channel	channel 3reverse channel	N/Adate	2019/09/12time	00:58:11forward acquisition time	60.00reverse acquisition time	0.00gamma	496.2192k internal	0.2318k external	0.2318temperature offset calibration	1.0079default loss term (dB/km)	0.3790temperature slope calibration	1.0000multiplexer offset coefficient	1.0000multiplexer slope coefficient	1.0000fibre end	0.00T internal ref (°C)	33.19T ext. ref 1 (°C)	2.08T ext. ref 2 (°C)	27.51length (m)	temperature (°C)	Stokes	anti-Stokes-747.200	-70.845	0.453	0.173
-746.185	140.112	0.129	-0.172
-745.171	-19.233	-0.427	-0.268
-744.156	60.205	-0.041	-0.041
-743.142	690.129	0.143	-0.379
-742.127	-134.768	-0.206	0.025
-741.112	43.517	0.077	-0.072
-740.098	185.629	-0.050	0.075
-739.083	-36.391	-0.401	0.219
-738.069	351.322	0.068	-0.136
-737.054	31.657	-0.235	0.204
-736.039	-200.000	-0.026	-0.198
-735.025	-30.906	-0.249	0.142
-734.010	-200.000	0.001	0.050
-732.996	125.516	-0.106	-0.136
-731.981	114.564	-0.068	-0.084
-730.966	-7.900	-0.144	-0.098
-729.952	-200.000	-0.060	-0.275
-728.937	279.906	-0.153	-0.276
-727.923	-20.422	-0.270	0.168
-726.908	272.369	-0.258	-0.460
-725.894	-97.400	-0.184	0.048
-724.879	-30.533	-0.243	0.139
-723.864	326.084	0.028	0.055
-722.850	285.288	0.133	-0.243
-721.835	603.825	-0.084	-0.210
-720.821	108.832	-0.229	-0.277
-719.806	422.917	-0.077	0.168
-718.791	-75.124	0.193	-0.070
-717.777	800.000	0.082	-0.316
-716.762	137.057	0.153	0.202
-715.748	-35.060	-0.069	-0.038
-714.733	-200.000	-0.016	-0.146
-713.718	800.000	-0.082	0.258
-712.704	-100.080	-0.231	-0.058
-711.689	-107.808	-0.129	-0.029
-710.675	-0.352	-0.293	-0.211
-709.660	513.682	-0.090	-0.213
-708.645	601.214	-0.024	-0.061
-707.631	-200.000	0.022	0.131
-706.616	416.900	-0.060	-0.131
-705.602	271.969	-0.159	-0.283
-704.587	306.622	0.155	-0.292
-703.572	-200.000	-0.035	-0.422
-702.558	83.386	0.324	-0.356
-701.543	158.206	-0.176	-0.246
-700.529	800.000	-0.048	-0.200
-699.514	-200.000	0.012	0.118
-698.499	-94.296	0.044	0.012
-697.485	-71.760	-0.310	0.117
-696.470	-97.841	-0.186	0.048
-695.456	146.004	0.088	0.119
-694.441	112.759	-0.069	0.084
-693.426	85.707	-0.207	-0.230
-692.412	2.067	-0.348	0.254
-691.397	77.959	0.186	0.201
-690.383	-200.000	-0.003	-0.178
-689.368	103.769	0.035	-0.042
-688.354	-99.711	0.181	0.046
-687.339	85.855	-0.189	-0.210
-686.324	8.361	-0.240	0.182
-685.310	182.068	0.098	0.146
-684.295	-38.337	0.410	0.219
-683.281	3.878	-0.165	0.122
-682.266	800.000	0.107	-0.424
-681.251	-44.717	-0.141	-0.071
-680.237	800.000	0.089	0.259
-679.222	-33.627	-0.160	-0.089
-678.208	-64.303	-0.196	-0.080
-677.193	73.056	-0.100	-0.106
-676.178	-78.898	-0.219	-0.075
-675.164	11.996	0.155	0.120
-674.149	800.000	0.056	-0.165
-673.135	261.130	-0.219	-0.382
-672.120	-200.000	0.003	-0.071
-671.105	800.000	0.106	0.347
-670.091	-127.523	-0.152	-0.022
-669.076	800.000	0.058	0.181
-668.062	22.040	-0.082	0.068
-667.047	-23.965	-0.202	-0.122
-666.032	297.534	-0.132	-0.245
-665.018	-118.142	0.193	0.035
-664.003	-23.277	0.175	0.106
-662.989	106.613	-0.100	0.120
-661.974	-72.291	0.179	0.067
-660.959	-200.000	-0.030	0.137
-659.945	-200.000	-0.062	-0.338
-658.930	176.101	0.190	0.278
-657.916	-200.000	-0.027	-0.228
-656.901	136.357	0.087	-0.114
-655.886	5.114	-0.106	0.079
-654.872	-200.000	-0.007	0.130
-653.857	319.507	0.032	-0.062
-652.843	-193.904	0.287	-0.002
-651.828	-78.790	-0.248	-0.085
-650.814	117.191	-0.129	-0.160
-649.799	108.332	0.094	-0.113
-648.784	552.828	0.066	-0.159
-647.770	-107.087	0.315	-0.070
-646.755	-155.785	-0.143	-0.009
-645.741	599.844	-0.124	0.311
-644.726	-96.062	-0.220	-0.059
-643.711	-141.393	0.022	-0.002
-642.697	462.923	-0.054	0.121
-641.682	-67.379	-0.364	0.144
-640.668	-107.257	-0.196	-0.043
-639.653	166.511	-0.219	-0.313
-638.638	692.467	-0.045	-0.118
-637.624	-71.003	-0.276	0.105
-636.609	288.758	0.125	0.228
-635.595	272.503	-0.191	-0.341
-634.580	-116.935	0.308	-0.057
-633.565	800.000	-0.042	-0.128
-632.551	-91.212	-0.140	0.040
-631.536	25.956	-0.070	-0.059
-630.522	-200.000	0.002	0.140
-629.507	-54.929	0.243	-0.111
-628.492	365.311	-0.072	-0.145
-627.478	96.753	-0.112	0.130
-626.463	394.586	-0.032	-0.066
-625.449	-200.000	0.024	0.152
-624.434	526.480	-0.066	-0.158
-623.419	-131.767	0.053	0.007
-622.405	-28.685	-0.076	-0.044
-621.390	499.465	-0.071	-0.165
-620.376	-170.643	0.046	0.002
-619.361	-180.341	-0.091	0.002
-618.346	20.352	-0.143	-0.116
-617.332	74.225	-0.100	0.106
-616.317	-40.501	-0.213	-0.111
-615.303	-39.516	-0.327	0.173
-614.288	-200.000	-0.002	0.253
-613.273	-127.812	0.320	-0.046
-612.259	-123.988	0.397	-0.063
-611.244	94.095	0.238	-0.271
-610.230	318.404	0.041	-0.078
-609.215	-24.310	0.190	-0.114
-608.201	84.975	0.129	-0.143
-607.186	283.989	-0.173	-0.314
-606.171	800.000	0.076	0.234
-605.157	4.036	0.156	-0.115
-604.142	187.080	0.209	0.314
-603.128	329.877	0.156	0.302
-602.113	-33.808	0.280	0.155
-601.098	-62.037	-0.351	0.148
-600.084	800.000	0.086	0.297
-599.069	-200.000	-0.034	-0.340
-598.055	5.870	-0.277	-0.206
-597.040	-57.621	0.641	-0.283
-596.025	294.729	-0.069	-0.128
-595.011	-28.021	-0.039	-0.023
-593.996	-30.008	0.173	0.099
-592.982	-200.000	-0.058	-0.456
-591.967	85.363	-0.126	0.139
-590.952	-55.946	0.307	-0.138
-589.938	-73.282	-0.139	0.051
-588.923	-200.000	0.047	0.326
-587.909	53.938	0.124	-0.120
-586.894	86.322	0.090	0.100
-585.879	573.622	0.113	0.276
-584.865	-33.194	0.277	-0.155
-583.850	-49.449	-0.277	-0.133
-582.836	-85.895	-0.251	-0.078
-581.821	583.128	-0.037	-0.091
-580.806	-200.000	0.000	0.020
-579.792	22.916	-0.157	0.129
-578.777	-138.323	0.241	0.027
-577.763	-200.000	-0.009	-0.252
-576.748	238.622	-0.149	-0.249
-575.733	-200.000	0.046	0.242
-574.719	-14.676	-0.135	-0.087
-573.704	52.879	-0.051	0.049
-572.690	78.278	-0.136	-0.146
-571.675	-152.375	-0.337	-0.024
-570.661	800.000	0.093	-0.316
-569.646	-42.996	-0.264	-0.135
-568.631	195.374	0.109	-0.166
-567.617	555.172	0.075	-0.181
-566.602	244.342	-0.082	0.139
-565.588	-155.070	0.120	-0.008
-564.573	-85.119	-0.328	0.103
-563.558	-77.582	-0.475	0.165
-562.544	-17.590	-0.114	-0.072
-561.529	68.974	-0.131	0.135
-560.515	-55.294	0.140	-0.063
-559.500	48.471	-0.112	0.105
-558.485	-141.860	-0.189	0.019
-557.471	-132.258	0.046	0.006
-556.456	214.979	0.104	-0.165
-555.442	-97.888	-0.278	0.072
-554.427	-104.229	0.030	-0.007
-553.412	121.860	-0.133	-0.167
-552.398	405.516	-0.051	0.108
-551.383	-200.000	0.016	-0.442
-550.369	-70.421	-0.091	0.035
-549.354	213.830	-0.214	0.340
-548.339	-140.676	0.227	-0.024
-547.325	302.882	0.125	0.232
-546.310	-200.000	-0.095	-0.435
-545.296	783.986	0.023	0.063
-544.281	663.782	0.123	0.320
-543.266	86.034	0.264	-0.292
-542.252	-200.000	0.017	-0.287
-541.237	800.000	-0.063	-0.235
-540.223	-85.029	-0.126	-0.040
-539.208	18.908	0.216	0.174
-538.193	135.495	0.136	0.178
-537.179	22.656	0.143	-0.117
-536.164	-200.000	0.006	-0.053
-535.150	179.849	0.211	0.310
-534.135	154.053	0.238	-0.328
-533.121	528.349	-0.069	-0.163
-532.106	99.276	-0.161	0.187
-531.091	-8.265	-0.176	-0.119
-530.077	-43.644	-0.119	0.060
-529.062	-200.000	-0.027	-0.137
-528.048	519.549	0.071	-0.167
-527.033	147.780	0.005	-0.007
-526.018	115.060	-0.210	0.258
-525.004	405.059	0.078	-0.164
-523.989	342.392	0.078	0.153
-522.975	-121.272	-0.060	0.010
-521.960	800.000	0.084	0.296
-520.945	-200.000	-0.003	0.130
-519.931	-164.513	0.069	-0.003
-518.916	164.325	-0.088	-0.124
-517.902	-74.955	-0.262	-0.094
-516.887	-200.000	0.061	-0.274
-515.872	63.081	-0.193	-0.194
-514.858	86.493	-0.139	0.154
-513.843	-200.000	-0.003	0.216
-512.829	172.627	-0.232	-0.334
-511.814	4.468	-0.084	0.062
-510.799	-200.000	-0.037	0.335
-509.785	-200.000	-0.004	-0.038
-508.770	800.000	0.073	-0.268
-507.756	-200.000	-0.004	0.045
-506.741	800.000	0.047	-0.132
-505.726	278.051	0.039	-0.070
-504.712	800.000	0.037	-0.141
-503.697	474.665	0.114	0.259
-502.683	57.817	0.161	-0.158
-501.668	498.300	0.142	-0.327
-500.653	-16.429	0.144	-0.092
-499.639	-76.735	-0.314	-0.110
-498.624	32.742	0.029	0.025
-497.610	4.096	-0.252	-0.185
-496.595	10.105	-0.265	0.202
-495.581	-144.994	0.065	0.006
-494.566	-51.218	-0.111	0.052
-493.551	-200.000	-0.004	0.027
-492.537	119.639	-0.240	-0.298
-491.522	60.522	-0.199	0.198
-490.508	238.977	-0.046	-0.076
-489.493	89.881	-0.089	-0.099
-488.478	609.545	-0.092	0.230
-487.464	102.480	-0.206	0.241
-486.449	104.386	0.087	-0.103
-485.435	800.000	-0.102	0.309
-484.420	-200.000	0.005	0.126
-483.405	-200.000	0.031	-0.331
-482.391	218.471	-0.150	-0.239
-481.376	327.828	0.044	0.085
-480.362	683.315	0.117	-0.306
-479.347	20.583	-0.285	-0.231
-478.332	-15.945	-0.234	-0.149
-477.318	574.805	0.110	0.270
-476.303	329.168	0.156	-0.301
-475.289	-134.739	-0.225	0.027
-474.274	-183.104	-0.195	-0.003
-473.259	270.904	-0.038	0.066
-472.245	800.000	-0.056	0.199
-471.230	92.337	-0.081	0.091
-470.216	-200.000	0.005	-0.049
-469.201	156.378	0.159	0.220
-468.186	489.003	-0.121	0.277
-467.172	-124.066	0.184	0.029
-466.157	-36.967	-0.223	0.120
-465.143	1.312	0.237	-0.170
-464.128	96.088	-0.130	-0.149
-463.113	-3.171	0.158	-0.110
-462.099	252.413	-0.070	0.119
-461.084	-53.277	0.145	-0.066
-460.070	-200.000	-0.016	-0.406
-459.055	46.202	0.021	0.019
-458.040	-55.677	-0.198	0.089
-457.026	-200.000	-0.039	0.388
-456.011	-106.014	-0.312	-0.070
-454.997	-192.504	0.336	-0.003
-453.982	184.004	-0.026	0.039
-452.968	-83.247	-0.172	0.055
-451.953	124.653	-0.086	-0.109
-450.938	-83.752	0.211	0.067
-449.924	-200.000	0.015	0.112
-448.909	-102.799	-0.370	0.088
-447.895	-200.000	-0.008	0.375
-446.880	664.234	0.082	-0.211
-445.865	-200.000	-0.010	0.252
-444.851	-147.605	0.298	-0.025
-443.836	155.266	-0.108	0.148
-442.822	-68.570	0.125	-0.049
-441.807	-91.157	0.211	0.061
-440.792	57.917	0.261	-0.255
-439.778	-29.331	-0.088	0.051
-438.763	136.779	-0.071	0.093
-437.749	-163.882	-0.142	0.007
-436.734	223.960	-0.061	0.099
-435.719	352.866	0.046	0.092
-434.705	-38.140	0.228	0.121
-433.690	-36.894	-0.172	0.092
-432.676	5.771	0.105	-0.077
-431.661	800.000	0.078	-0.260
-430.646	-200.000	-0.016	-0.171
-429.632	-26.910	0.272	-0.159
-428.617	-47.391	-0.167	-0.081
-427.603	-158.709	-0.012	0.001
-426.588	-59.750	-0.316	-0.135
-425.573	-147.228	0.419	-0.036
-424.559	-19.748	0.147	0.091
-423.544	-152.729	0.225	0.016
-422.530	-76.862	0.044	-0.015
-421.515	-200.000	0.032	-0.239
-420.500	800.000	0.046	-0.141
-419.486	52.037	-0.202	0.192
-418.471	-200.000	0.033	0.301
-417.457	122.681	0.003	0.004
-416.442	100.803	-0.366	0.425
-415.428	-79.957	-0.085	-0.028
-414.413	32.316	-0.198	0.170
-413.398	401.226	0.130	0.274
-412.384	-62.543	0.398	-0.165
-411.369	82.886	-0.072	0.078
-410.355	800.000	0.032	0.142
-409.340	1.605	-0.137	0.099
-408.325	-35.230	0.139	-0.076
-407.311	-89.942	0.297	-0.087
-406.296	-173.552	-0.198	-0.006
-405.282	-81.533	-0.163	-0.054
-404.267	212.524	0.115	-0.182
-403.252	800.000	0.063	0.214
-402.238	-30.687	-0.339	0.192
-401.223	-40.366	0.506	0.262
-400.209	800.000	0.042	0.149
-399.194	-148.144	-0.404	-0.033
-398.179	-21.540	0.256	0.156
-397.165	-126.799	0.136	-0.020
-396.150	21.517	-0.125	-0.101
-395.136	800.000	0.064	-0.177
-394.121	-200.000	-0.306	0.000
-393.106	-130.581	0.259	-0.035
-392.092	-69.411	-0.292	0.112
-391.077	382.583	0.067	0.138
-390.063	317.629	0.092	0.174
-389.048	-197.950	0.366	0.002
-388.033	-14.437	-0.121	-0.078
-387.019	104.714	-0.159	-0.187
-386.004	-37.325	0.074	-0.039
-384.990	-42.969	-0.177	0.090
-383.975	64.723	0.412	0.415
-382.960	800.000	-0.093	0.358
-381.946	68.337	-0.252	-0.258
-380.931	-100.335	-0.171	0.042
-379.917	-200.000	-0.015	-0.124
-378.902	-62.868	0.040	0.017
-377.888	-95.878	0.297	-0.079
-376.873	-3.520	-0.105	0.073
-375.858	-83.139	0.453	0.145
-374.844	800.000	0.089	0.249
-373.829	-91.388	-0.357	-0.102
-372.815	800.000	0.060	0.213
-371.800	10.286	-0.255	0.193
-370.785	228.004	-0.075	-0.122
-369.771	211.921	-0.170	-0.267
-368.756	93.537	-0.163	0.184
-367.742	-135.322	-0.487	-0.058
-366.727	244.828	0.241	-0.403
-365.712	-30.694	0.348	0.197
-364.698	800.000	-0.020	-0.071
-363.683	-116.765	0.204	-0.037
-362.669	182.629	-0.068	0.100
-361.654	161.423	-0.047	0.065
-360.639	-129.018	0.153	-0.021
-359.625	-200.000	0.018	-0.090
-358.610	-130.915	-0.305	-0.041
-357.596	-162.833	-0.098	-0.005
-356.581	-109.256	0.184	-0.039
-355.566	-155.004	-0.126	0.008
-354.552	151.232	-0.132	0.179
-353.537	384.384	-0.175	0.358
-352.523	-45.386	0.244	0.121
-351.508	60.429	-0.157	0.155
-350.493	118.388	-0.222	-0.273
-349.479	800.000	-0.081	-0.236
-348.464	-60.477	-0.271	-0.115
-347.450	-36.744	0.117	0.063
-346.435	-67.504	0.160	0.062
-345.420	-200.000	-0.007	-0.211
-344.406	441.485	0.091	-0.198
-343.391	-200.000	-0.024	-0.192
-342.377	105.840	-0.062	-0.074
-341.362	150.818	-0.204	0.277
-340.348	800.000	0.105	-0.300
-339.333	800.000	0.089	-0.253
-338.318	54.873	-0.204	-0.196
-337.304	-72.808	-0.358	-0.131
-336.289	-146.289	-0.233	-0.020
-335.275	-200.000	-0.032	-0.191
-334.260	-108.122	-0.204	-0.044
-333.245	800.000	0.054	0.204
-332.231	587.472	-0.159	0.391
-331.216	-65.859	-0.163	-0.065
-330.202	-171.184	-0.131	0.004
-329.187	-95.773	-0.203	-0.054
-328.172	24.706	-0.191	0.158
-327.158	-151.378	-0.144	-0.011
-326.143	-123.571	0.250	-0.039
-325.129	-87.268	-0.036	-0.011
-324.114	298.024	0.061	0.112
-323.099	15.161	-0.277	0.216
-322.085	-38.482	0.147	0.077
-321.070	76.317	-0.196	0.207
-320.056	-188.287	0.102	0.001
-319.041	800.000	-0.141	-0.409
-318.026	-23.179	0.048	-0.029
-317.012	63.414	-0.264	-0.263
-315.997	-31.572	0.063	-0.035
-314.983	-145.470	0.383	0.034
-313.968	575.321	0.112	-0.273
-312.953	306.851	0.027	-0.051
-311.939	-132.266	0.292	0.038
-310.924	85.126	-0.099	0.108
-309.910	37.799	0.094	-0.083
-308.895	106.645	0.142	-0.168
-307.880	-49.249	0.212	0.101
-306.866	166.322	0.115	0.162
-305.851	488.532	0.122	0.278
-304.837	-200.000	-0.013	0.197
-303.822	-42.326	-0.333	0.169
-302.807	29.362	0.145	0.122
-301.793	121.721	0.043	0.053
-300.778	478.134	-0.112	0.252
-299.764	-200.000	-0.248	0.001
-298.749	-79.579	0.094	0.031
-297.735	-17.963	-0.188	-0.117
-296.720	561.888	0.053	0.127
-295.705	-110.369	0.312	0.064
-294.691	800.000	0.063	0.220
-293.676	-55.259	-0.188	-0.084
-292.662	194.457	0.049	-0.074
-291.647	-35.526	0.176	0.095
-290.632	161.091	-0.158	0.219
-289.618	-200.000	-0.016	0.127
-288.603	97.946	0.089	0.102
-287.589	55.258	-0.247	0.238
-286.574	33.117	-0.367	0.317
-285.559	-13.499	-0.148	0.095
-284.545	800.000	-0.025	-0.095
-283.530	-157.004	0.190	0.012
-282.516	800.000	-0.120	0.372
-281.501	353.001	0.137	0.271
-280.486	-0.572	-0.179	0.126
-279.472	171.974	-0.141	0.202
-278.457	-1.332	-0.112	-0.079
-277.443	61.868	-0.176	-0.174
-276.428	-143.994	0.154	0.014
-275.413	-200.000	-0.035	0.300
-274.399	-118.499	0.303	-0.053
-273.384	158.748	0.079	-0.109
-272.370	-200.000	-0.019	0.195
-271.355	316.510	0.083	0.156
-270.340	-200.000	-0.008	0.054
-269.326	-1.403	0.194	-0.136
-268.311	-179.965	-0.134	-0.003
-267.297	-10.747	-0.305	-0.200
-266.282	-120.687	0.284	0.048
-265.267	-5.851	0.222	-0.151
-264.253	97.015	0.090	0.103
-263.238	-128.087	0.391	-0.056
-262.224	316.661	0.005	-0.009
-261.209	-128.549	0.119	0.017
-260.195	-21.287	0.075	0.046
-259.180	177.825	-0.116	-0.168
-258.165	172.740	0.169	0.241
-257.151	-155.617	0.305	-0.019
-256.136	-45.177	-0.190	-0.094
-255.122	-107.665	-0.124	0.027
-254.107	-76.831	-0.115	0.040
-253.092	-200.000	-0.039	-0.431
-252.078	-200.000	0.015	-0.166
-251.063	51.480	0.425	-0.401
-250.049	33.501	0.131	-0.113
-249.034	-200.000	-0.001	-0.066
-248.019	44.877	0.151	-0.138
-247.005	-79.846	0.106	0.035
-245.990	-65.276	0.249	0.100
-244.976	-145.096	0.149	0.013
-243.961	129.104	-0.134	-0.169
-242.946	-93.091	0.007	0.002
-241.932	760.741	0.129	0.346
-240.917	188.149	-0.155	-0.231
-239.903	-200.000	0.014	-0.156
-238.888	679.565	-0.060	-0.156
-237.873	-150.102	0.210	-0.016
-236.859	-38.189	0.220	0.116
-235.844	-200.000	0.013	-0.135
-234.830	-102.728	0.234	-0.055
-233.815	-101.804	0.156	-0.038
-232.800	80.042	-0.130	-0.138
-231.786	-148.477	-0.131	0.011
-230.771	-80.042	0.351	0.117
-229.757	-98.266	-0.310	0.079
-228.742	-52.091	0.033	-0.015
-227.727	15.796	0.295	0.230
-226.713	-111.194	0.055	0.011
-225.698	-136.196	-0.142	-0.016
-224.684	272.229	-0.030	0.053
-223.669	-49.602	0.272	0.128
-222.655	800.000	-0.073	0.259
-221.640	-128.557	0.222	0.031
-220.625	-17.133	-0.159	-0.099
-219.611	-140.261	0.317	0.033
-218.596	189.920	-0.035	0.052
-217.582	-15.407	-0.214	0.136
-216.567	95.247	-0.077	0.087
-215.552	189.005	-0.032	-0.047
-214.538	95.044	0.055	0.062
-213.523	-200.000	0.042	0.278
-212.509	177.694	0.064	0.092
-211.494	-82.914	-0.326	-0.104
-210.479	354.548	0.073	-0.143
-209.465	-200.000	-0.004	-0.231
-208.450	77.778	-0.099	-0.104
-207.436	-83.485	0.273	0.087
-206.421	-200.000	-0.012	-0.058
-205.406	-157.874	0.187	-0.011
-204.392	434.490	0.052	-0.113
-203.377	-145.571	0.281	-0.025
-202.363	-200.000	-0.022	0.109
-201.348	102.365	0.109	-0.126
-200.333	270.414	0.260	-0.452
-199.319	-144.643	0.109	-0.010
-198.304	-200.000	0.008	0.104
-197.290	45.055	0.134	-0.122
-196.275	-18.013	-0.224	0.139
-195.260	-27.844	0.162	0.093
-194.246	90.692	-0.159	0.176
-193.231	671.197	0.054	-0.138
-192.217	-34.274	-0.140	0.076
-191.202	422.347	0.103	-0.220
-190.187	264.588	0.093	-0.160
-189.173	-102.945	-0.106	0.025
-188.158	-6.008	-0.196	-0.133
-187.144	297.904	0.208	-0.379
-186.129	-72.251	0.382	0.140
-185.114	504.402	-0.049	-0.113
-184.100	107.251	0.232	0.273
-183.085	-200.000	-0.017	-0.129
-182.071	121.840	0.092	-0.113
-181.056	432.928	-0.123	-0.265
-180.042	294.670	0.057	-0.103
-179.027	4.081	-0.091	0.066
-178.012	204.381	0.147	0.226
-176.998	-200.000	-0.050	0.302
-175.983	-129.527	0.080	0.011
-174.969	-200.000	0.005	-0.124
-173.954	-200.000	-0.007	0.162
-172.939	-200.000	-0.043	0.265
-171.925	-200.000	0.009	-0.384
-170.910	-141.182	0.242	0.024
-169.896	-200.000	-0.018	-0.123
-168.881	120.134	-0.087	-0.107
-167.866	-163.265	0.332	-0.016
-166.852	-154.056	0.229	0.015
-165.837	-200.000	0.016	0.155
-164.823	800.000	-0.056	-0.236
-163.808	-5.621	-0.144	0.097
-162.793	57.710	-0.086	-0.083
-161.779	800.000	0.052	-0.146
-160.764	118.896	-0.113	0.138
-159.750	188.841	-0.099	0.146
-158.735	220.268	0.106	-0.168
-157.720	95.540	0.178	0.201
-156.706	700.777	0.082	0.213
-155.691	-115.604	0.308	-0.057
-154.677	-200.000	0.003	0.173
-153.662	-14.395	-0.243	0.155
-152.647	-132.420	0.222	0.028
-151.633	11.660	0.243	0.184
-150.618	-157.501	0.105	-0.006
-149.604	-200.000	0.009	0.322
-148.589	-104.959	0.353	0.080
-147.574	800.000	-0.099	0.316
-146.560	-200.000	0.001	-0.083
-145.545	87.926	0.221	-0.242
-144.531	-94.545	-0.296	-0.080
-143.516	-200.000	-0.045	-0.221
-142.502	115.277	-0.139	0.168
-141.487	276.806	0.169	0.297
-140.472	-200.000	0.040	-0.181
-139.458	44.479	-0.108	-0.098
-138.443	-48.922	-0.288	0.136
-137.429	-200.000	-0.005	0.199
-136.414	570.669	0.055	0.133
-135.399	249.961	-0.099	0.166
-134.385	-128.762	0.281	-0.039
-133.370	-49.747	-0.155	-0.073
-132.356	800.000	-0.031	-0.122
-131.341	-75.581	0.116	0.041
-130.326	234.976	-0.179	0.293
-129.312	-35.295	0.177	0.095
-128.297	-136.326	0.264	-0.030
-127.283	-87.712	-0.091	-0.027
-126.268	301.722	0.080	-0.146
-125.253	-41.076	0.083	0.042
-124.239	344.526	0.145	0.281
-123.224	-145.204	0.203	-0.018
-122.210	-200.000	0.024	0.214
-121.195	66.030	0.191	0.192
-120.180	-75.943	0.169	-0.059
-119.166	-70.902	-0.225	-0.084
-118.151	137.299	-0.211	0.272
-117.137	-200.000	-0.045	0.251
-116.122	148.180	-0.102	-0.136
-115.107	387.347	-0.065	-0.134
-114.093	48.331	-0.058	-0.054
-113.078	-7.691	0.090	0.060
-112.064	32.362	-0.260	0.221
-111.049	13.117	0.175	0.134
-110.034	326.170	0.096	0.182
-109.020	-105.592	-0.176	0.039
-108.005	-200.000	-0.018	0.145
-106.991	-144.909	0.261	0.024
-105.976	800.000	-0.078	0.285
-104.962	369.575	-0.080	-0.160
-103.947	-127.699	0.251	-0.036
-102.932	-194.266	0.209	-0.002
-101.918	-2.208	0.230	0.160
-100.903	800.000	-0.024	-0.078
-99.889	-95.571	-0.053	-0.014
-98.874	140.493	-0.059	0.076
-97.859	-9.172	-0.386	0.254
-96.845	-20.477	0.206	-0.125
-95.830	157.344	-0.063	-0.085
-94.816	-200.000	0.036	-0.160
-93.801	546.341	-0.099	0.234
-92.786	-141.608	-0.261	-0.026
-91.772	800.000	0.018	0.067
-90.757	120.337	0.097	0.119
-89.743	800.000	0.124	0.403
-88.728	495.260	-0.031	0.070
-87.713	589.677	0.139	0.338
-86.699	800.000	-0.049	0.150
-85.684	-8.992	-0.179	0.118
-84.670	-198.823	0.210	0.001
-83.655	93.268	0.078	0.087
-82.640	4.644	-0.136	-0.099
-81.626	-70.479	-0.284	0.106
-80.611	-194.950	0.397	-0.003
-79.597	-167.092	-0.070	0.003
-78.582	-200.000	-0.015	0.197
-77.567	-41.881	0.131	0.066
-76.553	741.284	-0.088	-0.234
-75.538	-89.843	0.089	0.026
-74.524	82.956	-0.204	0.219
-73.509	-146.500	-0.138	0.012
-72.494	-109.525	-0.180	-0.037
-71.480	27.689	0.173	0.144
-70.465	-10.254	-0.324	0.212
-69.451	-200.000	0.037	0.269
-68.436	-96.838	-0.237	0.061
-67.422	240.532	-0.068	-0.111
-66.407	10.434	-0.276	0.207
-65.392	800.000	-0.110	0.332
-64.378	-200.000	0.014	-0.440
-63.363	-132.684	0.167	0.021
-62.349	284.065	0.160	0.283
-61.334	10.943	-1.106	-0.833
-60.319	-156.459	0.443	0.027
-59.305	800.000	-0.252	-0.739
-58.290	168.894	0.553	0.777
-57.276	630.275	0.631	1.574
-56.261	-200.000	96.247	576.040
-55.246	545.186	1383.900	3257.843
-54.232	158.119	2564.324	3502.885
-53.217	111.512	2165.807	2573.423
-52.203	43.467	1708.793	1538.721
-51.188	36.402	1521.700	1322.048
-50.173	33.965	1494.752	1282.166
-49.159	52.947	1543.335	1454.338
-48.144	54.900	1561.954	1485.217
-47.130	36.544	1520.451	1321.720
-46.115	33.415	1505.925	1287.810
-45.100	33.330	1502.473	1284.233
-44.086	33.212	1501.206	1282.295
-43.071	33.214	1499.176	1280.525
-42.057	33.184	1497.251	1278.628
-41.042	33.306	1495.835	1278.193
-40.027	33.322	1494.192	1276.841
-39.013	33.192	1492.993	1274.894
-37.998	33.186	1492.117	1274.051
-36.984	33.210	1490.919	1273.142
-35.969	33.182	1489.616	1271.788
-34.954	33.210	1488.050	1270.590
-33.940	33.217	1486.658	1269.398
-32.925	33.150	1485.642	1268.031
-31.911	33.329	1483.888	1267.684
-30.896	33.234	1482.530	1265.837
-29.881	33.264	1480.917	1264.612
-28.867	33.309	1479.551	1263.691
-27.852	33.179	1478.762	1262.104
-26.838	33.172	1477.202	1260.677
-25.823	33.229	1475.330	1259.406
-24.809	33.228	1473.942	1258.163
-23.794	33.178	1472.227	1256.318
-22.779	33.346	1470.828	1256.190
-21.765	33.236	1470.039	1254.739
-20.750	33.216	1469.018	1253.685
-19.736	33.225	1468.031	1252.848
-18.721	33.156	1467.405	1251.811
-17.706	33.182	1465.603	1250.394
-16.692	33.171	1465.262	1249.983
-15.677	33.185	1464.172	1249.091
-14.663	33.113	1463.254	1247.786
-13.648	33.098	1462.325	1246.846
-12.633	33.173	1461.323	1246.437
-11.619	33.133	1460.483	1245.408
-10.604	33.053	1459.797	1244.245
-9.590	33.202	1458.417	1244.002
-8.575	33.246	1457.004	1243.031
-7.560	33.144	1456.630	1241.993
-6.546	33.145	1455.732	1241.187
-5.531	33.109	1455.103	1240.363
-4.517	33.158	1453.673	1239.418
-3.502	33.151	1452.781	1238.564
-2.487	33.095	1452.126	1237.592
-1.473	32.992	1451.110	1236.003
-0.458	33.074	1449.913	1235.468
0.556	33.755	1440.143	1223.769
1.571	30.901	1415.736	1184.805
2.586	27.730	1360.639	1119.175
3.600	26.253	1282.012	1045.865
4.615	25.044	1235.153	1000.799
5.629	21.537	1177.140	935.008
6.644	11.435	1089.980	815.472
7.659	3.537	1046.809	745.080
8.673	2.350	1041.726	735.692
9.688	2.032	1038.958	732.144
10.702	1.954	1036.667	730.090
11.717	1.964	1034.930	728.853
12.731	5.958	1038.843	750.670
13.746	15.730	1053.401	808.301
14.761	23.398	1062.833	852.503
15.775	25.110	1064.883	862.312
16.790	25.335	1064.550	863.049
17.804	25.249	1063.570	861.764
18.819	25.010	1062.774	859.899
19.834	25.198	1062.143	860.212
20.848	25.342	1061.679	860.451
21.863	25.481	1061.366	860.785
22.877	25.427	1061.212	860.325
23.892	25.472	1059.750	859.280
24.907	25.374	1059.087	858.200
25.921	25.304	1058.339	857.181
26.936	25.410	1057.587	857.003
27.950	25.316	1056.921	855.939
28.965	25.299	1055.567	854.687
29.980	25.170	1054.197	852.889
30.994	25.132	1053.133	851.774
32.009	25.470	1051.904	852.305
33.023	25.344	1051.535	851.334
34.038	25.214	1050.522	849.824
35.053	25.135	1049.475	848.529
36.067	25.392	1049.078	849.346
37.082	25.377	1048.337	848.599
38.096	25.493	1047.031	848.016
39.111	25.577	1046.578	847.971
40.126	25.612	1045.946	847.548
41.140	25.564	1044.875	846.378
42.155	25.351	1042.953	843.747
43.169	24.919	1041.852	840.752
44.184	24.963	1040.906	840.120
45.199	24.984	1040.113	839.504
46.213	25.005	1038.759	838.438
47.228	24.935	1038.645	837.944
48.242	25.139	1037.609	837.986
49.257	25.286	1036.941	838.059
50.271	25.308	1036.227	837.511
51.286	25.416	1035.408	837.276
52.301	25.460	1034.592	836.747
53.315	25.568	1033.844	836.571
54.330	25.338	1033.495	835.146
55.344	25.366	1032.338	834.267
56.359	25.222	1032.187	833.405
57.374	25.266	1031.109	832.665
58.388	25.109	1030.123	831.063
59.403	25.103	1029.537	830.489
60.417	25.139	1028.312	829.597
61.432	24.916	1027.696	827.996
62.447	24.982	1027.276	827.885
63.461	25.082	1026.426	827.589
64.476	25.109	1025.833	827.166
65.490	25.099	1024.762	826.180
66.505	25.032	1023.847	825.061
67.520	24.961	1023.277	824.205
68.534	25.275	1022.213	824.718
69.549	25.009	1021.706	823.014
70.563	24.727	1020.415	820.604
71.578	24.562	1019.778	819.265
72.593	24.647	1018.735	818.745
73.607	24.522	1017.367	816.998
74.622	24.465	1016.905	816.295
75.636	24.811	1015.953	817.038
76.651	24.969	1015.227	817.105
77.666	24.827	1014.532	815.827
78.680	24.648	1013.680	814.253
79.695	24.726	1012.944	813.943
80.709	24.827	1012.758	814.182
81.724	24.929	1011.361	813.451
82.739	24.942	1010.915	813.078
83.753	24.944	1009.826	812.141
84.768	25.279	1009.292	813.158
85.782	25.528	1008.766	813.789
86.797	25.634	1008.480	813.966
87.812	25.685	1007.380	813.234
88.826	25.413	1006.622	811.323
89.841	25.559	1005.446	810.962
90.855	25.702	1004.582	810.839
91.870	25.770	1003.827	810.465
92.884	25.684	1003.445	809.699
93.899	25.537	1002.216	807.971
94.914	25.145	1002.051	806.008
95.928	25.569	1000.754	806.795
96.943	25.571	999.461	805.691
97.957	25.164	998.786	803.252
98.972	25.080	997.434	801.719
99.987	24.966	996.281	800.209
101.001	24.945	996.031	799.845
102.016	25.261	995.149	800.478
103.030	25.273	994.766	800.149
104.045	25.217	993.767	799.025
105.060	25.113	992.363	797.365
106.074	25.019	991.375	796.083
107.089	25.025	990.344	795.213
108.103	25.233	990.063	795.839
109.118	25.378	989.535	795.986
110.133	25.086	988.107	793.474
111.147	24.995	987.103	792.196
112.162	24.901	986.117	790.919
113.176	24.670	985.098	789.013
114.191	24.855	984.440	789.230
115.206	24.890	983.548	788.600
116.220	24.610	982.341	786.332
117.235	24.537	981.238	785.056
118.249	24.602	981.396	785.403
119.264	24.809	979.892	785.035
120.279	24.532	979.429	783.381
121.293	24.602	978.272	782.691
122.308	24.793	977.456	782.806
123.322	24.729	976.753	781.896
124.337	24.701	975.504	780.701
125.352	24.725	974.021	779.554
126.366	24.217	972.868	776.349
127.381	23.853	971.546	773.638
128.395	24.501	971.700	776.515
129.410	25.032	971.311	778.440
130.424	25.222	970.810	778.798
131.439	25.433	969.196	778.349
132.454	25.351	968.653	777.488
133.468	25.275	967.631	776.266
134.483	25.179	966.583	774.943
135.497	25.164	966.431	774.690
136.512	25.350	965.729	774.862
137.527	25.455	965.214	774.830
138.541	25.443	964.053	773.780
139.556	25.515	963.848	773.859
140.570	25.389	962.496	772.161
141.585	25.518	961.873	772.146
142.600	25.620	960.917	771.749
143.614	25.548	959.866	770.529
144.629	25.609	959.500	770.425
145.643	25.786	959.066	770.768
146.658	25.665	958.026	769.345
147.673	25.543	956.500	767.532
148.687	25.481	955.194	766.152
149.702	25.309	954.628	764.900
150.716	25.236	953.644	763.731
151.731	25.314	952.560	763.129
152.746	25.319	951.905	762.554
153.760	25.617	950.934	762.972
154.775	25.606	950.672	762.649
155.789	25.615	950.163	762.211
156.804	25.627	949.042	761.297
157.819	25.589	948.207	760.398
158.833	25.632	947.077	759.609
159.848	25.678	946.533	759.299
160.862	25.884	945.682	759.417
161.877	25.669	944.855	757.782
162.892	25.564	944.013	756.597
163.906	25.655	943.511	756.507
164.921	25.611	942.447	755.405
165.935	25.579	940.822	753.900
166.950	25.535	940.443	753.347
167.964	25.605	939.409	752.742
168.979	25.530	938.380	751.541
169.994	25.413	937.386	750.190
171.008	25.365	936.596	749.292
172.023	25.632	935.745	749.655
173.037	25.737	935.245	749.627
174.052	25.529	934.032	747.723
175.067	25.452	932.976	746.491
176.081	25.258	932.064	744.889
177.096	25.509	931.159	745.143
178.110	25.443	930.662	744.403
179.125	25.201	929.812	742.656
180.140	24.986	928.566	740.708
181.154	24.916	928.025	739.922
182.169	25.055	927.627	740.113
183.183	25.407	927.028	741.020
184.198	25.756	926.616	742.065
185.213	25.508	926.340	740.758
186.227	25.514	925.571	740.101
187.242	25.577	924.925	739.779
188.256	25.669	924.178	739.493
189.271	25.807	923.207	739.218
190.286	25.670	922.724	738.203
191.300	25.670	921.338	737.028
192.315	25.050	920.153	733.477
193.329	24.216	919.043	729.116
194.344	23.967	917.469	726.785
195.359	24.394	918.359	729.173
196.373	25.264	918.715	732.945
197.388	25.482	918.356	733.486
198.402	25.568	917.626	733.187
199.417	25.622	916.489	732.435
200.432	25.657	916.569	732.577
201.446	25.451	915.405	730.744
202.461	25.001	915.011	728.535
203.475	25.136	914.347	728.488
204.490	24.861	912.475	725.820
205.504	23.566	911.117	719.427
206.519	23.922	911.065	720.767
207.534	24.943	911.411	725.112
208.548	25.176	910.462	725.237
209.563	25.396	910.347	725.968
210.577	25.427	909.500	725.356
211.592	25.096	909.044	723.593
212.607	25.502	909.084	725.199
213.621	25.680	908.063	725.034
214.636	25.760	907.409	724.772
215.650	25.786	906.982	724.468
216.665	25.627	906.663	723.514
217.680	25.662	905.995	723.057
218.694	25.765	905.270	722.825
219.709	25.510	904.256	720.931
220.723	25.120	903.498	718.698
221.738	25.234	903.126	718.795
222.753	25.461	902.646	719.261
223.767	25.407	902.072	718.522
224.782	25.606	901.253	718.603
225.796	25.820	900.588	718.863
226.811	25.924	899.990	718.737
227.826	25.378	898.810	715.554
228.840	24.635	896.874	710.998
229.855	24.587	896.491	710.440
230.869	24.897	896.133	711.325
231.884	24.596	895.234	709.351
232.899	24.383	895.110	708.345
233.913	25.274	895.576	712.191
234.928	25.514	894.856	712.505
235.942	25.425	894.140	711.519
236.957	25.287	893.704	710.562
237.972	25.175	892.497	709.097
238.986	25.080	892.062	708.316
240.001	25.199	891.000	707.876
241.015	25.150	890.711	707.393
242.030	25.223	890.197	707.210
243.045	25.327	889.760	707.208
244.059	25.494	889.322	707.457
245.074	25.709	888.714	707.757
246.088	25.623	888.136	706.895
247.103	25.195	886.930	704.192
248.117	25.315	886.533	704.286
249.132	25.719	886.641	705.894
250.147	26.119	886.611	707.374
251.161	26.236	886.277	707.503
252.176	26.358	885.512	707.309
253.190	26.363	884.873	706.757
254.205	26.336	884.476	706.270
255.220	26.656	884.148	707.197
256.234	26.546	883.503	706.187
257.249	26.395	882.713	704.903
258.263	26.309	882.104	704.023
259.278	26.419	881.469	703.879
260.293	26.451	880.986	703.555
261.307	26.418	880.741	703.169
262.322	26.531	879.792	702.789
263.336	26.322	878.660	701.012
264.351	25.940	877.360	698.435
265.366	24.727	875.644	692.313
266.380	24.303	874.664	689.837
267.395	25.269	875.149	693.895
268.409	26.046	875.364	697.007
269.424	25.997	874.585	696.137
270.439	26.009	874.364	695.945
271.453	26.230	873.910	696.374
272.468	26.105	872.838	694.979
273.482	26.363	872.863	695.928
274.497	26.550	872.511	696.305
275.512	26.309	871.351	694.394
276.526	25.656	869.674	690.489
277.541	25.896	869.430	691.157
278.555	26.231	869.537	692.463
279.570	26.065	868.624	691.039
280.585	26.007	868.058	690.305
281.599	25.989	867.454	689.698
282.614	26.155	867.072	689.968
283.628	25.687	865.995	687.263
284.643	25.309	865.061	685.019
285.657	25.693	864.941	686.327
286.672	25.591	864.376	685.430
287.687	25.093	863.575	682.836
288.701	25.461	863.571	684.173
289.716	25.947	862.966	685.485
290.730	25.433	862.098	682.781
291.745	25.313	861.627	681.890
292.760	25.335	860.002	680.627
293.774	25.272	859.541	679.964
294.789	26.074	860.687	683.850
295.803	26.845	860.409	686.490
296.818	26.753	860.234	685.942
297.833	26.904	859.494	685.859
298.847	26.536	858.687	683.766
299.862	26.144	857.533	681.308
300.876	26.413	857.144	681.954
301.891	26.788	856.864	683.085
302.906	26.703	856.328	682.275
303.920	26.472	855.090	680.362
304.935	26.256	854.826	679.277
305.949	26.655	854.497	680.457
306.964	26.675	853.815	679.927
307.979	26.410	853.310	678.471
308.993	26.350	852.869	677.835
310.008	26.662	852.613	678.740
311.022	26.960	852.252	679.511
312.037	26.770	851.588	678.211
313.052	26.508	850.756	676.506
314.066	26.372	850.122	675.434
315.081	25.654	848.732	671.591
316.095	25.026	846.900	667.743
317.110	25.576	847.382	670.114
318.125	26.450	847.681	673.548
319.139	26.019	846.574	671.006
320.154	24.862	844.969	665.374
321.168	24.443	844.196	663.151
322.183	25.082	844.131	665.414
323.197	25.965	844.527	668.947
324.212	26.311	844.480	670.132
325.227	26.270	844.516	669.949
326.241	26.664	843.514	670.555
327.256	26.516	842.702	669.303
328.270	26.289	842.415	668.174
329.285	26.285	841.556	667.420
330.300	26.129	840.752	666.148
331.314	25.793	840.282	664.478
332.329	25.973	839.543	664.496
333.343	26.403	839.036	665.620
334.358	26.691	838.598	666.274
335.373	26.671	838.478	666.048
336.387	26.732	837.924	665.771
337.402	26.740	837.683	665.548
338.416	26.977	837.468	666.189
339.431	27.075	836.698	665.879
340.446	27.093	836.090	665.401
341.460	27.451	835.532	666.208
342.475	27.315	834.899	665.146
343.489	27.076	833.973	663.480
344.504	27.057	834.038	663.401
345.519	27.175	833.641	663.457
346.533	27.465	833.281	664.169
347.548	27.543	832.806	664.018
348.562	27.471	832.418	663.388
349.577	27.438	831.706	662.640
350.592	27.471	830.990	662.131
351.606	27.447	830.344	661.472
352.621	27.353	830.166	660.928
353.635	27.231	829.614	659.987
354.650	27.256	829.067	659.585
355.665	26.821	828.122	657.199
356.679	25.822	826.552	652.280
357.694	25.868	826.110	652.041
358.708	26.359	825.730	653.457
359.723	26.414	825.270	653.233
360.738	26.531	825.152	653.506
361.752	26.975	825.199	655.087
362.767	27.169	824.665	655.305
363.781	27.466	824.802	656.426
364.796	27.685	824.260	656.727
365.810	27.720	823.975	656.568
366.825	27.758	823.568	656.322
367.840	27.714	823.858	656.337
368.854	27.691	822.515	655.124
369.869	27.295	821.487	652.827
370.883	26.955	821.356	651.446
371.898	27.051	820.749	651.250
372.913	27.118	819.495	650.438
373.927	27.240	818.887	650.336
374.942	27.170	818.572	649.778
375.956	27.378	818.252	650.209
376.971	27.343	817.640	649.540
377.986	27.514	817.272	649.801
379.000	27.736	817.020	650.334
380.015	27.754	816.251	649.729
381.029	27.609	815.245	648.354
382.044	27.328	815.219	647.274
383.059	27.841	814.585	648.538
384.073	27.774	813.859	647.667
385.088	27.813	813.578	647.521
386.102	27.803	812.779	646.795
387.117	27.554	812.240	645.425
388.132	27.383	811.612	644.265
389.146	27.404	811.246	643.990
390.161	26.722	810.176	640.674
391.175	26.690	809.607	640.056
392.190	27.325	810.024	642.572
393.205	27.463	809.042	642.221
394.219	26.364	807.518	637.085
395.234	24.706	805.280	629.433
396.248	23.882	804.533	625.891
397.263	25.073	805.129	630.494
398.278	26.741	806.400	637.303
399.292	27.473	805.975	639.484
400.307	26.967	805.874	637.570
401.321	26.978	805.247	637.056
402.336	26.958	805.320	636.988
403.350	27.194	805.048	637.542
404.365	27.724	804.908	639.232
405.380	27.860	804.959	639.694
406.394	28.185	804.590	640.483
407.409	28.529	804.077	641.220
408.423	28.575	803.216	640.637
409.438	28.305	802.815	639.318
410.453	28.307	802.622	639.116
411.467	28.452	801.805	638.911
412.482	28.412	801.649	638.591
413.496	28.348	801.109	637.882
414.511	28.539	800.546	638.041
415.526	28.607	799.858	637.676
416.540	28.566	799.840	637.461
417.555	28.431	799.416	636.598
418.569	28.185	798.419	634.894
419.584	27.940	798.495	634.050
420.599	28.261	797.422	634.253
421.613	110.936	1283.543	1454.951
422.628	95.644	1354.408	1455.067
