DTS Sentinel unit serial number:	SN413079Multiplexer serial number:	ORYXHardware model number:	OX4-SRSoftware version number:	ORYX F/W v4.00 Oryx Data Collector v3.7.2.0data status	okinstallation	princeton_trtdifferential loss correction	single-endedforward channel	channel 3reverse channel	N/Adate	2019/09/11time	22:58:10forward acquisition time	60.00reverse acquisition time	0.00gamma	496.2192k internal	0.2316k external	0.2316temperature offset calibration	1.0045default loss term (dB/km)	0.3790temperature slope calibration	1.0000multiplexer offset coefficient	1.0000multiplexer slope coefficient	1.0000fibre end	0.00T internal ref (°C)	34.62T ext. ref 1 (°C)	1.79T ext. ref 2 (°C)	29.27length (m)	temperature (°C)	Stokes	anti-Stokes-747.200	-110.410	0.203	0.043
-746.185	-84.866	-0.044	0.014
-745.171	-71.005	0.137	-0.052
-744.156	-200.000	0.027	0.227
-743.142	-27.093	0.052	-0.031
-742.127	20.474	-0.192	0.157
-741.112	-68.542	0.105	0.041
-740.098	-86.151	-0.212	0.066
-739.083	163.326	-0.139	0.198
-738.069	231.750	0.134	-0.222
-737.054	348.821	0.031	0.062
-736.039	-124.268	0.142	0.022
-735.025	3.895	0.185	-0.137
-734.010	-200.000	0.089	-0.419
-732.996	800.000	-0.033	-0.138
-731.981	102.858	-0.153	-0.182
-730.966	-200.000	0.022	-0.160
-729.952	-78.106	0.122	0.043
-728.937	85.237	0.056	-0.062
-727.923	-86.727	0.094	0.029
-726.908	800.000	-0.021	0.059
-725.894	800.000	-0.025	-0.070
-724.879	-130.625	0.060	-0.008
-723.864	16.239	-0.149	-0.119
-722.850	654.680	-0.025	0.065
-721.835	56.841	0.063	0.063
-720.821	-144.979	-0.208	0.019
-719.806	-163.538	0.345	0.017
-718.791	725.223	-0.119	0.322
-717.777	103.108	0.009	-0.011
-716.762	-200.000	-0.043	-0.202
-715.748	-200.000	0.029	-0.266
-714.733	565.901	-0.026	-0.064
-713.718	-200.000	0.032	0.320
-712.704	110.797	-0.294	-0.359
-711.689	-200.000	0.032	-0.367
-710.675	367.854	0.032	-0.066
-709.660	-33.955	0.272	0.152
-708.645	-98.430	-0.443	-0.115
-707.631	84.403	0.304	0.336
-706.616	-152.048	-0.291	-0.021
-705.602	344.051	0.137	-0.271
-704.587	-200.000	-0.015	0.287
-703.572	15.556	0.160	-0.127
-702.558	-200.000	-0.036	-0.358
-701.543	-113.594	0.216	-0.043
-700.529	-16.138	0.032	0.020
-699.514	-64.741	-0.336	-0.138
-698.499	88.443	-0.144	-0.162
-697.485	237.425	0.098	0.164
-696.470	-87.025	0.074	0.023
-695.456	-200.000	0.038	0.338
-694.441	-31.410	-0.188	-0.107
-693.426	-31.323	-0.332	0.189
-692.412	511.045	0.120	0.282
-691.397	-21.763	0.051	-0.032
-690.383	0.120	-0.265	-0.191
-689.368	-45.893	-0.192	-0.096
-688.354	800.000	-0.057	0.222
-687.339	-200.000	0.028	-0.219
-686.324	42.497	-0.074	-0.068
-685.310	-35.831	-0.344	-0.188
-684.295	-60.980	0.105	-0.045
-683.281	84.210	0.264	0.291
-682.266	-83.276	-0.057	-0.019
-681.251	-62.080	-0.199	-0.084
-680.237	800.000	-0.123	0.385
-679.222	-141.137	-0.268	-0.028
-678.208	-140.664	-0.161	-0.017
-677.193	302.701	-0.102	0.190
-676.178	-200.000	0.044	0.286
-675.164	298.118	-0.054	0.100
-674.149	-200.000	0.001	-0.205
-673.135	704.188	-0.119	-0.316
-672.120	-44.662	-0.221	0.112
-671.105	32.153	0.147	-0.128
-670.091	-200.000	-0.062	-0.502
-669.076	683.646	0.151	-0.397
-668.062	-62.322	-0.155	-0.065
-667.047	45.501	0.097	0.090
-666.032	159.103	-0.056	0.079
-665.018	112.909	-0.165	0.201
-664.003	-200.000	-0.004	0.062
-662.989	-200.000	-0.022	-0.264
-661.974	125.338	-0.117	-0.149
-660.959	-23.976	0.342	-0.207
-659.945	-200.000	-0.002	0.128
-658.930	800.000	0.018	-0.075
-657.916	-86.908	-0.126	-0.039
-656.901	-33.632	-0.138	-0.077
-655.886	146.206	-0.047	0.063
-654.872	-200.000	-0.009	-0.353
-653.857	378.254	0.097	-0.200
-652.843	800.000	-0.075	0.279
-651.828	759.257	-0.022	0.061
-650.814	-200.000	0.022	0.126
-649.799	10.658	0.165	0.127
-648.784	45.608	-0.058	0.055
-647.770	-61.422	0.216	-0.092
-646.755	217.417	0.076	0.122
-645.741	51.581	-0.030	-0.028
-644.726	-159.327	-0.327	0.018
-643.711	-34.553	-0.290	0.160
-642.697	18.147	0.599	0.482
-641.682	-43.396	0.255	-0.130
-640.668	26.193	0.058	-0.049
-639.653	800.000	0.054	-0.220
-638.638	-33.952	0.028	0.015
-637.624	117.913	-0.176	-0.219
-636.609	432.840	0.100	-0.220
-635.595	-62.251	0.380	0.160
-634.580	17.178	-0.259	0.208
-633.565	-110.049	0.353	-0.074
-632.551	469.193	-0.105	0.237
-631.536	58.037	0.047	0.047
-630.522	-200.000	0.053	0.413
-629.507	-88.071	-0.211	0.064
-628.492	660.883	0.074	0.191
-627.478	-200.000	0.014	-0.096
-626.463	-200.000	-0.062	-0.308
-625.449	-93.628	-0.192	0.053
-624.434	509.134	-0.156	-0.366
-623.419	-30.081	-0.101	0.058
-622.405	-96.907	0.063	-0.017
-621.390	-130.933	0.271	-0.037
-620.376	-98.452	-0.131	0.034
-619.361	-105.875	-0.221	-0.050
-618.346	296.168	-0.133	0.246
-617.332	-200.000	0.029	-0.187
-616.317	-97.183	-0.218	-0.057
-615.303	-64.241	0.205	0.084
-614.288	-200.000	-0.001	0.058
-613.273	57.030	-0.120	-0.118
-612.259	-200.000	-0.016	-0.327
-611.244	-10.414	0.161	-0.107
-610.230	-200.000	0.006	-0.302
-609.215	57.935	-0.088	0.087
-608.201	-95.739	0.262	-0.071
-607.186	-200.000	0.022	-0.107
-606.171	-200.000	0.005	0.089
-605.157	112.518	0.052	0.064
-604.142	129.738	0.051	-0.066
-603.128	154.078	-0.205	0.283
-602.113	-19.501	-0.195	0.122
-601.098	214.488	0.181	0.289
-600.084	-200.000	-0.032	-0.189
-599.069	-130.284	0.033	-0.005
-598.055	-71.233	-0.250	-0.094
-597.040	-37.777	0.184	0.099
-596.025	-60.885	0.055	0.023
-595.011	-104.314	0.235	0.055
-593.996	-21.567	0.267	-0.164
-592.982	-200.000	0.033	0.362
-591.967	-200.000	0.022	0.430
-590.952	-200.000	-0.029	0.155
-589.938	-44.359	0.113	0.057
-588.923	30.475	0.200	0.172
-587.909	-119.309	0.161	-0.028
-586.894	40.468	0.240	-0.218
-585.879	-176.196	-0.131	-0.003
-584.865	-97.763	-0.238	0.062
-583.850	540.624	-0.100	0.240
-582.836	800.000	0.023	-0.069
-581.821	209.306	0.166	0.261
-580.806	-171.302	-0.270	-0.009
-579.792	204.488	0.105	-0.163
-578.777	-167.685	0.117	0.005
-577.763	-36.130	0.119	0.064
-576.748	-21.406	0.267	-0.164
-575.733	-64.592	-0.157	0.064
-574.719	-25.610	0.063	0.037
-573.704	718.277	-0.048	-0.129
-572.690	252.534	0.106	-0.182
-571.675	-2.218	0.183	0.129
-570.661	49.503	-0.194	0.184
-569.646	-32.486	0.330	-0.185
-568.631	-65.861	0.133	0.054
-567.617	-117.756	0.233	-0.042
-566.602	138.816	-0.055	-0.073
-565.588	74.979	-0.097	-0.103
-564.573	-110.170	-0.284	-0.060
-563.558	246.767	-0.080	-0.136
-562.544	-189.355	-0.145	0.002
-561.529	-31.520	-0.159	0.090
-560.515	-78.466	0.354	0.122
-559.500	-172.831	0.172	-0.005
-558.485	800.000	0.009	-0.030
-557.471	-200.000	-0.093	0.502
-556.456	800.000	0.099	-0.294
-555.442	800.000	-0.071	0.209
-554.427	-58.956	0.218	0.095
-553.412	-200.000	-0.076	0.442
-552.398	131.126	-0.073	0.095
-551.383	114.141	-0.129	-0.158
-550.369	115.133	0.071	0.087
-549.354	-200.000	0.007	-0.132
-548.339	-58.928	-0.421	-0.183
-547.325	-137.707	0.319	0.036
-546.310	-8.976	-0.252	0.170
-545.296	523.861	0.145	0.344
-544.281	672.936	-0.063	0.163
-543.266	-49.288	0.268	0.129
-542.252	-56.631	-0.324	0.144
-541.237	235.835	0.077	-0.128
-540.223	318.873	-0.063	-0.120
-539.208	-79.460	0.371	-0.126
-538.193	367.997	0.099	-0.201
-537.179	15.957	-0.079	0.062
-536.164	-200.000	0.047	-0.216
-535.150	16.635	0.166	-0.132
-534.135	80.904	0.050	0.054
-533.121	494.441	0.035	0.080
-532.106	-28.866	-0.143	0.083
-531.091	-127.900	-0.306	0.044
-530.077	-120.657	-0.209	-0.036
-529.062	-200.000	-0.012	-0.070
-528.048	-47.058	0.363	-0.178
-527.033	-141.053	0.261	0.027
-526.018	-116.990	0.165	0.030
-525.004	-200.000	-0.027	-0.228
-523.989	-34.175	0.097	-0.053
-522.975	-39.821	-0.190	-0.100
-521.960	-18.359	0.297	0.186
-520.945	-200.000	0.005	-0.073
-519.931	10.397	0.167	0.128
-518.916	-32.171	-0.260	0.146
-517.902	-200.000	0.020	0.143
-516.887	-147.905	0.044	0.004
-515.872	382.968	-0.217	0.448
-514.858	-103.839	-0.148	-0.035
-513.843	359.932	-0.154	-0.309
-512.829	129.826	-0.041	0.053
-511.814	352.805	-0.077	-0.153
-510.799	800.000	-0.017	-0.061
-509.785	-75.520	0.293	0.105
-508.770	283.750	0.072	-0.130
-507.756	81.319	0.033	-0.036
-506.741	-200.000	-0.052	-0.240
-505.726	-200.000	-0.008	0.135
-504.712	-200.000	0.005	0.135
-503.697	4.997	-0.218	-0.161
-502.683	800.000	-0.031	0.098
-501.668	167.960	0.082	0.117
-500.653	96.531	0.207	0.238
-499.639	-164.103	0.203	0.009
-498.624	-144.388	-0.319	-0.030
-497.610	800.000	-0.024	0.080
-496.595	800.000	-0.071	0.235
-495.581	-61.831	0.053	0.022
-494.566	-200.000	0.018	0.128
-493.551	44.953	0.241	0.223
-492.537	800.000	0.024	0.090
-491.522	-104.871	0.372	0.086
-490.508	-67.647	0.208	-0.082
-489.493	26.569	-0.092	0.077
-488.478	-113.006	0.211	0.042
-487.464	-200.000	-0.013	0.225
-486.449	-200.000	-0.042	-0.274
-485.435	-55.268	0.025	-0.011
-484.420	-111.576	-0.150	0.031
-483.405	432.504	0.077	-0.167
-482.391	-168.808	0.132	0.005
-481.376	165.146	-0.125	-0.177
-480.362	17.169	-0.117	-0.093
-479.347	69.495	0.129	0.133
-478.332	-90.794	-0.162	-0.047
-477.318	-200.000	-0.040	-0.361
-476.303	-30.952	0.198	0.112
-475.289	168.152	-0.156	-0.223
-474.274	-98.542	-0.105	0.027
-473.259	-49.847	0.149	0.071
-472.245	-200.000	-0.036	-0.370
-471.230	-53.892	-0.118	-0.054
-470.216	198.464	0.026	-0.039
-469.201	56.349	-0.098	-0.095
-468.186	-200.000	0.054	0.444
-467.172	92.457	0.124	-0.140
-466.157	800.000	-0.039	-0.123
-465.143	17.869	-0.130	0.104
-464.128	-124.042	-0.273	0.043
-463.113	-200.000	-0.028	0.237
-462.099	-54.691	-0.343	0.156
-461.084	182.030	0.041	0.060
-460.070	-53.003	-0.141	-0.065
-459.055	-200.000	0.000	-0.201
-458.040	-200.000	-0.221	-0.001
-457.026	83.491	0.144	0.157
-456.011	-98.619	-0.199	0.051
-454.997	-58.878	-0.322	-0.140
-453.982	64.561	-0.046	-0.046
-452.968	148.971	0.231	-0.313
-451.953	-93.221	-0.076	-0.021
-450.938	-82.584	0.200	-0.065
-449.924	800.000	-0.119	0.416
-448.909	-123.620	-0.420	0.067
-447.895	800.000	-0.081	-0.293
-446.880	-2.211	0.181	-0.127
-445.865	-200.000	0.016	-0.141
-444.851	418.501	-0.027	-0.057
-443.836	-21.505	0.232	-0.142
-442.822	-200.000	0.048	0.214
-441.807	-68.270	-0.345	0.134
-440.792	48.923	0.042	0.039
-439.778	123.326	-0.129	-0.162
-438.763	800.000	-0.108	0.302
-437.749	375.786	-0.096	0.196
-436.734	181.059	-0.224	0.329
-435.719	-200.000	0.006	0.067
-434.705	800.000	-0.088	-0.264
-433.690	-200.000	0.059	-0.271
-432.676	507.116	0.114	-0.264
-431.661	27.513	0.203	-0.171
-430.646	800.000	0.007	0.021
-429.632	76.649	-0.109	-0.115
-428.617	-3.329	0.097	-0.068
-427.603	800.000	0.107	-0.430
-426.588	659.500	-0.048	0.122
-425.573	-37.169	0.173	0.093
-424.559	800.000	-0.025	0.102
-423.544	-26.478	-0.236	-0.139
-422.530	-113.735	-0.270	0.053
-421.515	-56.016	0.433	0.193
-420.500	-200.000	0.060	0.306
-419.486	66.528	0.032	-0.032
-418.471	21.718	0.114	0.093
-417.457	-34.842	0.212	0.116
-416.442	-200.000	-0.004	0.289
-415.428	-84.125	0.254	0.080
-414.413	78.792	0.299	0.320
-413.398	-200.000	-0.022	0.401
-412.384	-73.757	-0.500	0.182
-411.369	-63.828	-0.119	0.049
-410.355	-88.091	-0.221	-0.066
-409.340	-19.980	-0.344	-0.212
-408.325	46.040	0.355	-0.328
-407.311	-18.341	0.219	0.137
-406.296	524.564	-0.093	0.219
-405.282	582.775	-0.128	0.313
-404.267	-180.784	-0.331	-0.007
-403.252	800.000	0.050	-0.179
-402.238	-66.114	0.123	-0.049
-401.223	-101.859	0.127	-0.031
-400.209	47.841	-0.283	0.264
-399.194	-15.762	-0.246	0.157
-398.179	-85.125	-0.310	0.097
-397.165	1.888	0.187	-0.135
-396.150	211.036	-0.156	-0.245
-395.136	11.440	0.095	-0.072
-394.121	-91.821	-0.116	-0.033
-393.106	-190.477	0.173	0.002
-392.092	-136.036	-0.340	-0.040
-391.077	-200.000	-0.011	0.138
-390.063	-11.218	0.188	0.124
-389.048	800.000	0.063	-0.190
-388.033	28.625	-0.107	0.090
-387.019	-46.865	0.395	0.193
-386.004	77.066	0.172	-0.182
-384.990	145.462	0.081	0.109
-383.975	-200.000	0.014	-0.268
-382.960	-200.000	-0.044	-0.266
-381.946	153.134	-0.060	0.082
-380.931	101.733	0.266	-0.310
-379.917	-200.000	-0.007	-0.208
-378.902	409.122	0.053	-0.112
-377.888	-98.735	-0.247	-0.063
-376.873	105.079	-0.088	-0.104
-375.858	60.513	-0.095	-0.094
-374.844	0.385	0.202	-0.144
-373.829	34.433	0.193	-0.168
-372.815	121.652	0.107	0.133
-371.800	-200.000	0.019	-0.190
-370.785	-200.000	0.015	-0.272
-369.771	186.575	0.067	0.100
-368.756	-106.753	-0.215	-0.048
-367.742	-168.660	0.362	-0.014
-366.727	-82.679	0.076	-0.025
-365.712	185.463	-0.054	-0.080
-364.698	121.899	-0.125	-0.156
-363.683	83.133	-0.055	0.060
-362.669	-194.445	-0.247	-0.002
-361.654	-6.138	0.206	-0.141
-360.639	222.780	0.083	0.134
-359.625	5.660	-0.142	0.105
-358.610	68.969	-0.284	0.291
-357.596	10.278	-0.131	0.099
-356.581	-200.000	-0.033	-0.178
-355.566	-188.588	0.293	-0.004
-354.552	-146.864	-0.373	-0.032
-353.537	22.180	0.102	0.083
-352.523	499.956	-0.137	-0.316
-351.508	474.923	-0.094	-0.213
-350.493	800.000	0.064	-0.207
-349.479	-29.634	0.091	-0.052
-348.464	-139.604	0.413	-0.044
-347.450	173.445	-0.226	0.325
-346.435	800.000	-0.088	-0.293
-345.420	-52.783	0.268	0.123
-344.406	25.911	0.201	0.167
-343.391	275.394	-0.047	0.082
-342.377	119.244	-0.172	0.212
-341.362	-79.950	-0.115	-0.038
-340.348	47.817	0.006	0.006
-339.333	-72.993	-0.271	0.099
-338.318	-80.910	-0.376	-0.124
-337.304	-200.000	0.041	-0.237
-336.289	-200.000	0.004	0.066
-335.275	-82.897	0.129	-0.042
-334.260	514.251	0.122	0.284
-333.245	304.630	0.156	0.289
-332.231	71.470	0.224	0.232
-331.216	105.816	0.062	-0.073
-330.202	-200.000	-0.003	-0.016
-329.187	79.379	0.045	0.049
-328.172	800.000	0.031	0.119
-327.158	800.000	-0.016	-0.058
-326.143	16.965	-0.223	-0.176
-325.129	181.543	0.100	-0.146
-324.114	-73.449	-0.155	-0.056
-323.099	519.199	0.116	-0.271
-322.085	-40.317	0.051	0.027
-321.070	36.866	-0.195	-0.171
-320.056	59.053	-0.105	-0.103
-319.041	-148.890	0.474	-0.038
-318.026	-14.869	-0.178	0.114
-317.012	-127.816	0.122	0.018
-315.997	573.364	0.079	-0.192
-314.983	34.645	0.058	0.051
-313.968	-200.000	0.062	0.418
-312.953	722.795	0.089	-0.235
-311.939	-192.449	0.180	-0.002
-310.924	39.686	-0.256	0.229
-309.910	-186.150	0.088	0.001
-308.895	800.000	-0.014	-0.044
-307.880	-200.000	-0.040	0.205
-306.866	58.754	-0.401	-0.392
-305.851	800.000	0.148	-0.433
-304.837	-21.132	-0.258	-0.157
-303.822	-200.000	0.011	0.150
-302.807	32.628	-0.242	0.209
-301.793	79.246	0.276	0.294
-300.778	-200.000	0.025	-0.302
-299.764	-200.000	-0.009	0.077
-298.749	800.000	-0.053	-0.204
-297.735	5.005	-0.255	-0.187
-296.720	-108.997	-0.065	-0.014
-295.705	30.563	0.093	0.079
-294.691	-137.055	-0.119	-0.014
-293.676	139.555	-0.088	0.115
-292.662	800.000	-0.017	0.051
-291.647	-101.274	0.045	-0.011
-290.632	4.389	-0.220	-0.161
-289.618	589.050	0.027	0.065
-288.603	-134.549	-0.192	-0.023
-287.589	-200.000	-0.040	-0.177
-286.574	-103.255	-0.085	0.020
-285.559	-66.086	0.078	0.031
-284.545	-37.542	-0.454	0.241
-283.530	-166.038	-0.279	0.012
-282.516	-70.984	0.257	-0.096
-281.501	44.619	-0.058	0.053
-280.486	-117.421	0.063	-0.011
-279.472	289.500	-0.125	0.226
-278.457	-103.310	0.045	-0.011
-277.443	-81.992	-0.224	-0.073
-276.428	-38.957	0.058	0.030
-275.413	240.299	0.141	-0.233
-274.399	800.000	0.021	-0.071
-273.384	-38.513	0.382	-0.201
-272.370	-112.330	-0.372	-0.074
-271.355	317.194	-0.218	0.410
-270.340	51.889	0.217	0.205
-269.326	-26.731	-0.069	0.040
-268.311	-200.000	-0.002	0.067
-267.297	-200.000	-0.018	0.159
-266.282	34.564	0.263	-0.228
-265.267	9.486	-0.337	-0.254
-264.253	10.606	-0.012	0.009
-263.238	205.572	-0.144	-0.223
-262.224	52.968	-0.207	-0.197
-261.209	601.536	-0.055	0.136
-260.195	382.188	0.047	0.097
-259.180	800.000	-0.096	-0.266
-258.165	18.053	-0.331	-0.262
-257.151	-119.631	0.371	0.064
-256.136	-46.091	0.133	-0.065
-255.122	700.100	0.066	0.173
-254.107	800.000	-0.055	-0.152
-253.092	20.455	-0.279	-0.224
-252.078	-61.220	0.465	-0.195
-251.063	-28.530	0.225	-0.129
-250.049	620.240	0.161	-0.403
-249.034	640.423	-0.015	-0.039
-248.019	-200.000	0.082	0.378
-247.005	250.606	-0.160	-0.271
-245.990	-200.000	-0.005	-0.145
-244.976	186.306	-0.069	-0.103
-243.961	22.793	0.404	0.329
-242.946	-200.000	0.045	-0.394
-241.932	12.348	0.182	0.139
-240.917	-200.000	-0.002	0.505
-239.903	-200.000	0.025	0.308
-238.888	800.000	-0.091	-0.276
-237.873	-149.370	0.239	0.019
-236.859	2.365	-0.330	0.237
-235.844	-118.791	-0.052	-0.009
-234.830	-11.519	-0.383	0.250
-233.815	-16.231	-0.038	0.024
-232.800	800.000	0.010	-0.038
-231.786	-111.398	0.065	0.013
-230.771	-200.000	0.052	0.294
-229.757	-200.000	0.070	0.409
-228.742	-175.786	0.130	-0.003
-227.727	347.290	0.081	-0.158
-226.713	278.469	0.127	-0.225
-225.698	-200.000	-0.025	0.490
-224.684	4.503	-0.117	0.085
-223.669	-200.000	0.005	-0.125
-222.655	304.474	-0.018	0.033
-221.640	-68.519	-0.327	0.126
-220.625	800.000	-0.095	-0.266
-219.611	-113.845	-0.401	-0.077
-218.596	-105.769	0.486	0.109
-217.582	-29.528	0.159	-0.090
-216.567	86.508	-0.266	-0.291
-215.552	-41.548	-0.226	-0.115
-214.538	-187.051	0.536	-0.007
-213.523	-200.000	0.008	-0.111
-212.509	-99.924	-0.046	0.011
-211.494	800.000	-0.017	0.063
-210.479	-19.169	-0.198	0.122
-209.465	-200.000	-0.003	0.146
-208.450	-66.262	-0.119	0.047
-207.436	28.439	0.313	0.263
-206.421	-200.000	-0.017	-0.110
-205.406	-116.810	0.043	-0.008
-204.392	-100.360	0.102	0.025
-203.377	-200.000	0.002	0.058
-202.363	800.000	-0.032	-0.087
-201.348	-149.783	0.117	-0.009
-200.333	-124.982	0.416	-0.064
-199.319	53.662	-0.198	0.188
-198.304	-111.443	-0.303	-0.061
-197.290	-9.900	-0.055	-0.037
-196.275	-200.000	0.028	-0.145
-195.260	-200.000	0.067	-0.356
-194.246	260.986	0.110	-0.189
-193.231	-93.222	-0.336	-0.092
-192.217	140.018	0.099	0.130
-191.202	800.000	0.048	-0.173
-190.187	-113.988	0.335	0.064
-189.173	800.000	-0.092	-0.291
-188.158	-200.000	-0.034	-0.178
-187.144	-153.057	-0.284	0.020
-186.129	229.760	-0.104	-0.168
-185.114	-90.686	-0.360	0.103
-184.100	800.000	0.050	-0.199
-183.085	-19.063	-0.046	0.029
-182.071	72.460	-0.393	-0.406
-181.056	-200.000	0.001	-0.155
-180.042	-128.680	-0.381	-0.053
-179.027	-74.131	0.278	0.100
-178.012	-200.000	-0.029	0.171
-176.998	-148.555	-0.164	-0.013
-175.983	698.179	0.067	-0.176
-174.969	-200.000	-0.010	0.147
-173.954	137.182	-0.096	0.124
-172.939	-200.000	0.005	0.139
-171.925	-200.000	0.048	0.362
-170.910	-6.186	-0.372	0.252
-169.896	800.000	-0.098	0.337
-168.881	116.756	0.017	0.021
-167.866	137.264	0.066	-0.086
-166.852	-166.906	0.199	-0.008
-165.837	-154.392	0.039	0.003
-164.823	-162.284	0.344	-0.017
-163.808	-43.514	0.270	-0.135
-162.793	135.617	0.149	-0.193
-161.779	91.246	-0.129	0.144
-160.764	227.452	0.156	-0.251
-159.750	-159.769	0.247	0.013
-158.735	36.284	-0.328	0.286
-157.720	-200.000	0.000	0.260
-156.706	20.033	-0.077	-0.062
-155.691	-28.361	0.157	-0.090
-154.677	800.000	0.080	0.283
-153.662	-200.000	0.004	-0.032
-152.647	408.642	0.224	-0.470
-151.633	-135.462	0.393	0.046
-150.618	-43.118	0.253	-0.127
-149.604	-200.000	-0.009	-0.299
-148.589	-200.000	0.007	0.080
-147.574	164.351	0.186	0.260
-146.560	-39.617	-0.158	-0.082
-145.545	72.025	0.147	-0.152
-144.531	-160.891	-0.251	-0.013
-143.516	48.797	-0.070	-0.065
-142.502	233.849	0.077	-0.125
-141.487	-200.000	0.037	0.171
-140.472	-97.916	0.195	-0.050
-139.458	-148.560	0.395	-0.032
-138.443	800.000	0.028	-0.102
-137.429	-103.852	0.082	-0.019
-136.414	800.000	0.042	0.183
-135.399	-154.743	-0.188	-0.012
-134.385	800.000	0.043	0.167
-133.370	800.000	-0.102	0.358
-132.356	-200.000	0.023	-0.231
-131.341	212.060	-0.030	0.046
-130.326	115.119	-0.269	0.325
-129.312	-128.980	0.175	-0.024
-128.297	-200.000	0.050	-0.238
-127.283	-50.193	0.279	0.130
-126.268	-105.206	-0.126	-0.029
-125.253	-56.365	0.286	0.126
-124.239	244.340	-0.018	0.030
-123.224	-12.430	-0.137	0.089
-122.210	204.774	-0.212	-0.326
-121.195	-55.336	0.085	0.038
-120.180	169.161	-0.173	0.243
-119.166	-200.000	-0.037	-0.217
-118.151	121.116	0.175	-0.215
-117.137	14.488	0.305	-0.236
-116.122	-106.466	-0.118	0.026
-115.107	-28.433	0.055	-0.031
-114.093	-200.000	-0.016	0.113
-113.078	49.436	0.283	-0.263
-112.064	28.340	-0.329	-0.275
-111.049	68.464	0.199	-0.201
-110.034	-200.000	-0.016	0.293
-109.020	-200.000	0.006	-0.114
-108.005	-138.038	-0.143	-0.016
-106.991	-200.000	0.007	0.190
-105.976	-28.684	-0.198	-0.112
-104.962	-200.000	0.051	-0.245
-103.947	397.648	-0.061	-0.127
-102.932	158.103	0.076	0.104
-101.918	-200.000	-0.023	0.183
-100.903	-29.493	0.049	-0.028
-99.889	-152.544	0.100	0.007
-98.874	605.333	0.138	-0.340
-97.859	-136.989	0.322	0.036
-96.845	-74.147	0.105	-0.037
-95.830	-170.667	-0.415	0.014
-94.816	-110.427	0.256	0.052
-93.801	245.044	0.118	0.196
-92.786	32.992	0.131	0.113
-91.772	-200.000	-0.039	-0.254
-90.757	-200.000	-0.029	0.000
-89.743	103.892	-0.097	0.113
-88.728	523.339	-0.017	-0.038
-87.713	-200.000	0.017	0.088
-86.699	7.242	0.281	-0.207
-85.684	30.218	-0.160	0.135
-84.670	6.429	0.234	-0.172
-83.655	154.115	-0.225	-0.305
-82.640	-197.286	-0.245	-0.002
-81.626	34.411	-0.064	-0.056
-80.611	800.000	-0.015	0.045
-79.597	173.252	-0.278	-0.395
-78.582	29.804	0.036	-0.030
-77.567	61.172	-0.212	-0.208
-76.553	57.206	0.350	-0.337
-75.538	-87.697	-0.254	0.076
-74.524	-26.000	0.187	-0.108
-73.509	58.002	-0.155	-0.149
-72.494	-114.953	0.435	0.082
-71.480	-62.137	0.091	0.037
-70.465	-110.399	0.111	0.023
-69.451	325.239	-0.238	0.448
-68.436	16.300	-0.191	0.148
-67.422	-53.440	0.108	0.049
-66.407	-21.920	0.044	-0.026
-65.392	-200.000	0.044	-0.237
-64.378	110.078	0.133	-0.158
-63.363	-200.000	-0.050	-0.387
-62.349	170.696	-0.129	0.183
-61.334	122.240	-0.719	-0.886
-60.319	5.934	0.373	0.272
-59.305	346.965	-0.387	-0.751
-58.290	335.868	0.350	0.670
-57.276	395.103	0.792	1.628
-56.261	-200.000	97.909	589.685
-55.246	563.276	1384.705	3305.932
-54.232	153.793	2585.439	3494.138
-53.217	114.820	2178.605	2619.761
-52.203	45.140	1715.399	1558.932
-51.188	37.849	1527.213	1338.051
-50.173	35.377	1500.050	1297.505
-49.159	55.398	1551.393	1480.041
-48.144	58.963	1570.829	1523.013
-47.130	38.194	1525.460	1338.669
-46.115	34.933	1509.850	1302.753
-45.100	34.782	1506.511	1298.794
-44.086	34.692	1504.809	1296.661
-43.071	34.689	1502.556	1294.647
-42.057	34.598	1501.090	1292.719
-41.042	34.524	1500.075	1291.292
-40.027	34.648	1498.221	1290.482
-39.013	34.628	1496.914	1289.171
-37.998	34.581	1495.852	1287.888
-36.984	34.639	1494.524	1287.084
-35.969	34.672	1493.164	1286.082
-34.954	34.570	1491.836	1284.205
-33.940	34.570	1490.573	1283.067
-32.925	34.632	1488.851	1281.951
-31.911	34.627	1487.918	1281.059
-30.896	34.700	1486.331	1280.131
-29.881	34.737	1485.029	1279.212
-28.867	34.731	1483.358	1277.680
-27.852	34.633	1482.741	1276.442
-26.838	34.733	1480.800	1275.386
-25.823	34.690	1479.573	1273.996
-24.809	34.729	1477.448	1272.370
-23.794	34.701	1476.238	1271.096
-22.779	34.647	1475.693	1270.216
-21.765	34.638	1475.011	1269.514
-20.750	34.665	1472.970	1267.888
-19.736	34.691	1471.775	1266.983
-18.721	34.720	1470.868	1266.345
-17.706	34.526	1470.605	1264.784
-16.692	34.687	1469.002	1264.421
-15.677	34.581	1468.171	1262.953
-14.663	34.624	1467.003	1262.180
-13.648	34.538	1466.511	1261.139
-12.633	34.620	1465.361	1260.641
-11.619	34.619	1464.232	1259.611
-10.604	34.474	1463.961	1258.376
-9.590	34.535	1462.591	1257.547
-8.575	34.599	1461.488	1256.970
-7.560	34.598	1461.035	1256.525
-6.546	34.611	1460.187	1255.832
-5.531	34.552	1459.307	1254.635
-4.517	34.633	1458.076	1254.064
-3.502	34.564	1457.426	1253.002
-2.487	34.588	1456.294	1252.137
-1.473	34.489	1455.208	1250.499
-0.458	34.591	1453.844	1249.946
0.556	34.667	1444.235	1238.412
1.571	31.835	1418.780	1198.406
2.586	28.476	1357.885	1126.277
3.600	26.750	1276.326	1048.559
4.615	25.241	1230.671	1002.535
5.629	21.504	1172.484	935.120
6.644	11.190	1085.341	814.251
7.659	3.112	1042.616	743.218
8.673	2.039	1036.637	733.735
9.688	1.728	1033.655	730.067
10.702	1.757	1031.634	728.715
11.717	1.656	1030.499	727.366
12.731	5.328	1034.602	747.792
13.746	15.357	1049.068	806.630
14.761	22.964	1058.754	850.776
15.775	24.618	1060.079	859.729
16.790	24.969	1059.411	860.803
17.804	24.778	1058.448	859.023
18.819	24.588	1057.804	857.516
19.834	24.682	1056.969	857.211
20.848	24.694	1056.573	856.873
21.863	24.820	1056.340	857.213
22.877	24.832	1056.493	857.318
23.892	24.746	1055.744	856.223
24.907	24.666	1054.512	854.763
25.921	24.724	1053.554	854.190
26.936	24.750	1053.020	853.804
27.950	24.691	1051.782	852.443
28.965	24.689	1051.133	851.833
29.980	24.653	1049.288	850.090
30.994	24.657	1048.079	849.055
32.009	24.791	1047.642	849.262
33.023	24.910	1046.872	849.128
34.038	24.610	1045.994	846.921
35.053	24.668	1044.932	846.261
36.067	24.815	1044.440	846.483
37.082	24.734	1043.690	845.416
38.096	24.855	1043.133	845.461
39.111	25.012	1042.380	845.516
40.126	25.016	1041.664	844.882
41.140	24.965	1040.151	843.337
42.155	24.725	1038.593	840.872
43.169	24.438	1037.158	838.287
44.184	24.371	1036.585	837.438
45.199	24.457	1035.759	837.099
46.213	24.417	1034.561	835.868
47.228	24.335	1034.078	835.020
48.242	24.464	1033.056	834.724
49.257	24.669	1032.118	834.851
50.271	24.682	1031.320	834.192
51.286	24.841	1030.754	834.400
52.301	24.879	1030.456	834.266
53.315	24.923	1029.415	833.553
54.330	24.744	1028.764	832.117
55.344	24.837	1027.691	831.610
56.359	24.796	1027.022	830.801
57.374	24.730	1026.230	829.781
58.388	24.546	1025.426	828.206
59.403	24.563	1024.391	827.374
60.417	24.520	1023.881	826.692
61.432	24.337	1023.101	825.144
62.447	24.323	1022.468	824.494
63.461	24.586	1021.600	824.937
64.476	24.615	1021.140	824.624
65.490	24.587	1020.137	823.614
66.505	24.441	1019.214	822.124
67.520	24.529	1018.032	821.500
68.534	24.553	1018.091	821.589
69.549	24.364	1016.857	819.650
70.563	24.067	1015.693	817.278
71.578	23.934	1014.915	815.967
72.593	24.105	1013.862	815.835
73.607	23.920	1012.955	814.182
74.622	23.948	1011.886	813.379
75.636	24.212	1011.497	814.203
76.651	24.372	1010.552	814.100
77.666	24.255	1009.481	812.631
78.680	24.179	1008.918	811.759
79.695	24.197	1008.385	811.341
80.709	24.165	1008.007	810.821
81.724	24.341	1007.196	810.898
82.739	24.329	1006.472	810.186
83.753	24.379	1005.453	809.523
84.768	24.518	1005.030	809.740
85.782	24.741	1004.653	810.375
86.797	25.102	1003.333	810.870
87.812	25.005	1002.251	809.488
88.826	24.802	1001.557	807.939
89.841	24.866	1000.669	807.440
90.855	24.972	1000.152	807.431
91.870	25.035	999.643	807.230
92.884	25.083	998.656	806.577
93.899	24.979	997.699	805.267
94.914	24.765	997.058	803.714
95.928	24.819	996.336	803.306
96.943	24.966	995.267	803.032
97.957	24.637	994.242	800.661
98.972	24.378	993.277	798.652
99.987	24.218	992.058	796.885
101.001	24.265	991.734	796.767
102.016	24.567	991.111	797.544
103.030	24.760	989.846	797.313
104.045	24.740	988.866	796.367
105.060	24.493	987.845	794.377
106.074	24.367	986.519	792.678
107.089	24.334	985.946	792.003
108.103	24.682	985.710	793.285
109.118	24.810	985.093	793.286
110.133	24.520	983.668	790.785
111.147	24.508	982.588	789.796
112.162	24.250	981.677	787.853
113.176	24.259	980.312	786.725
114.191	24.331	979.821	786.579
115.206	24.436	978.804	786.157
116.220	24.175	977.907	784.220
117.235	23.876	977.156	782.230
118.249	24.019	976.411	782.192
119.264	24.208	975.704	782.387
120.279	24.054	974.347	780.556
121.293	24.094	974.273	780.605
122.308	24.035	973.819	779.910
123.322	24.155	972.483	779.296
124.337	23.999	971.655	777.885
125.352	23.960	970.461	776.690
126.366	23.611	968.861	773.819
127.381	23.369	967.647	771.727
128.395	23.802	967.329	773.289
129.410	24.510	967.066	776.089
130.424	24.569	966.268	775.637
131.439	24.718	965.343	775.472
132.454	24.695	963.901	774.144
133.468	24.559	963.756	773.368
134.483	24.508	962.971	772.451
135.497	24.556	962.341	772.086
136.512	24.774	962.002	772.686
137.527	24.839	960.534	771.720
138.541	24.830	960.002	771.186
139.556	24.858	959.324	770.694
140.570	24.857	958.576	770.019
141.585	24.918	957.699	769.507
142.600	24.910	957.041	768.880
143.614	24.846	956.161	767.827
144.629	25.061	955.044	767.785
145.643	25.161	954.598	767.787
146.658	25.091	953.400	766.455
147.673	24.960	951.838	764.573
148.687	24.795	951.098	763.206
149.702	24.697	950.139	761.951
150.716	24.593	948.929	760.474
151.731	24.601	947.830	759.559
152.746	24.748	947.461	759.821
153.760	24.949	946.710	760.004
154.775	24.984	946.132	759.619
155.789	25.136	945.060	759.336
156.804	25.067	944.643	758.641
157.819	25.053	943.386	757.507
158.833	25.024	942.478	756.589
159.848	25.070	942.109	756.418
160.862	25.107	941.234	755.804
161.877	24.899	940.524	754.294
162.892	24.938	939.692	753.724
163.906	25.109	938.576	753.479
164.921	25.061	937.935	752.698
165.935	25.065	936.183	751.239
166.950	25.003	935.422	750.304
167.964	25.084	934.357	749.722
168.979	25.015	933.774	748.901
169.994	25.010	932.526	747.810
171.008	24.804	931.676	746.202
172.023	24.935	931.286	746.372
173.037	25.144	930.361	746.436
174.052	25.025	929.104	744.868
175.067	24.671	928.152	742.566
176.081	24.741	927.407	742.194
177.096	24.943	926.635	742.348
178.110	24.984	925.526	741.564
179.125	24.656	925.079	739.782
180.140	24.369	923.758	737.474
181.154	24.380	922.968	736.823
182.169	24.521	923.046	737.403
183.183	24.646	922.511	737.425
184.198	24.988	922.031	738.390
185.213	24.936	921.472	737.663
186.227	24.814	920.716	736.491
187.242	25.094	919.975	736.983
188.256	25.003	919.707	736.328
189.271	25.118	918.201	735.530
190.286	25.087	917.931	735.120
191.300	25.004	917.158	734.098
192.315	24.413	915.875	730.585
193.329	23.731	913.765	726.050
194.344	23.338	912.906	723.699
195.359	23.881	913.544	726.358
196.373	24.770	913.574	729.950
197.388	24.934	913.528	730.518
198.402	24.794	913.110	729.545
199.417	24.873	912.073	728.975
200.432	25.111	911.299	729.261
201.446	24.824	911.417	728.123
202.461	24.451	910.163	725.542
203.475	24.511	910.035	725.619
204.490	24.143	908.047	722.479
205.504	22.987	906.249	716.302
206.519	23.385	906.122	717.751
207.534	24.395	906.347	721.955
208.548	24.483	906.022	721.985
209.563	24.850	905.767	723.202
210.577	24.893	904.871	722.598
211.592	24.613	904.256	720.912
212.607	25.006	903.998	722.228
213.621	25.071	903.506	722.031
214.636	25.112	902.687	721.480
215.650	25.165	902.171	721.217
216.665	25.086	901.546	720.333
217.680	25.146	901.357	720.359
218.694	25.116	900.934	719.840
219.709	24.793	899.545	717.369
220.723	24.385	898.813	715.089
221.738	24.659	898.328	715.736
222.753	24.880	898.004	716.300
223.767	24.850	897.383	715.619
224.782	24.974	896.299	715.190
225.796	24.959	896.236	715.013
226.811	25.237	895.061	715.124
227.826	24.935	893.850	712.890
228.840	23.929	892.483	707.734
229.855	23.824	892.362	707.160
230.869	24.283	891.404	708.161
231.884	23.996	890.702	706.400
232.899	23.881	890.099	705.406
233.913	24.627	890.464	708.590
234.928	24.926	890.196	709.499
235.942	24.789	889.538	708.368
236.957	24.633	888.701	707.024
237.972	24.500	887.568	705.535
238.986	24.375	886.633	704.237
240.001	24.570	886.226	704.617
241.015	24.514	885.964	704.128
242.030	24.796	884.791	704.245
243.045	24.857	884.537	704.217
244.059	24.820	884.125	703.682
245.074	25.169	883.347	704.371
246.088	24.945	882.727	702.938
247.103	24.656	882.149	701.282
248.117	24.615	881.541	700.574
249.132	25.146	881.216	702.334
250.147	25.680	881.102	704.273
251.161	25.566	880.882	703.586
252.176	25.743	880.456	703.875
253.190	25.808	879.637	703.412
254.205	25.805	879.566	703.283
255.220	25.994	879.127	703.608
256.234	25.932	878.173	702.541
257.249	25.888	877.154	701.492
258.263	25.779	876.558	700.527
259.278	25.809	876.053	700.180
260.293	25.832	875.680	699.911
261.307	25.761	875.440	699.381
262.322	25.645	874.660	698.244
263.336	25.774	873.811	698.004
264.351	25.207	872.392	694.614
265.366	24.153	870.284	688.801
266.380	23.608	869.663	686.144
267.395	24.475	870.371	689.994
268.409	25.432	869.968	693.308
269.424	25.326	869.380	692.367
270.439	25.363	869.195	692.304
271.453	25.612	868.419	692.580
272.468	25.626	867.803	692.083
273.482	25.668	868.081	692.404
274.497	25.936	866.945	692.466
275.512	25.765	865.963	690.965
276.526	25.209	864.149	687.330
277.541	25.262	864.373	687.650
278.555	25.542	864.416	688.695
279.570	25.518	863.583	687.880
280.585	25.316	862.781	686.408
281.599	25.360	862.533	686.316
282.614	25.401	862.284	686.214
283.628	25.047	860.772	683.598
284.643	24.717	860.105	681.752
285.657	24.966	860.012	682.567
286.672	25.003	859.149	681.962
287.687	24.484	858.170	679.149
288.701	24.807	858.320	680.438
289.716	25.219	857.954	681.653
290.730	25.035	856.726	679.921
291.745	24.848	856.197	678.731
292.760	24.762	854.972	677.374
293.774	24.506	854.904	676.289
294.789	25.540	855.049	680.259
295.803	26.023	855.237	682.176
296.818	26.096	854.932	682.150
297.833	26.277	854.363	682.316
298.847	25.947	853.024	679.945
299.862	25.773	852.046	678.448
300.876	25.793	852.035	678.457
301.891	25.988	851.733	678.887
302.906	26.120	851.116	678.832
303.920	25.633	850.333	676.320
304.935	25.603	849.499	675.482
305.949	26.044	849.059	676.729
306.964	26.072	848.605	676.409
307.979	25.828	847.726	674.736
308.993	25.764	847.468	674.234
310.008	26.108	847.312	675.335
311.022	26.279	847.138	675.777
312.037	25.983	846.170	673.837
313.052	25.686	845.979	672.516
314.066	25.806	844.647	671.845
315.081	24.956	843.414	667.640
316.095	24.323	842.116	664.195
317.110	24.952	842.112	666.476
318.125	25.702	842.456	669.481
319.139	25.305	841.537	667.214
320.154	24.372	839.390	661.995
321.168	23.647	838.841	658.812
322.183	24.442	839.087	661.896
323.197	25.336	839.365	665.372
324.212	25.671	838.848	666.145
325.227	25.830	838.213	666.170
326.241	25.830	838.498	666.337
327.256	25.869	837.435	665.577
328.270	25.744	837.151	664.830
329.285	25.535	836.776	663.701
330.300	25.494	835.761	662.686
331.314	25.329	834.468	660.996
332.329	25.365	833.859	660.588
333.343	25.729	833.936	661.931
334.358	25.901	833.840	662.427
335.373	25.998	833.252	662.258
336.387	25.922	832.658	661.447
337.402	26.147	832.190	661.844
338.416	26.397	831.992	662.542
339.431	26.433	831.166	661.957
340.446	26.263	830.945	661.101
341.460	26.671	830.450	662.140
342.475	26.509	829.712	660.903
343.489	26.388	829.017	659.848
344.504	26.279	828.472	658.958
345.519	26.581	827.866	659.517
346.533	26.778	827.835	660.153
347.548	26.858	827.407	660.046
348.562	26.795	826.757	659.239
349.577	26.855	826.024	658.815
350.592	26.593	825.620	657.481
351.606	26.668	825.308	657.447
352.621	26.662	825.056	657.165
353.635	26.531	824.496	656.189
354.650	26.546	823.560	655.441
355.665	26.212	822.626	653.428
356.679	25.155	821.361	648.548
357.694	24.936	820.708	647.181
358.708	25.799	820.379	649.983
359.723	25.630	820.130	649.118
360.738	25.894	819.618	649.607
361.752	26.418	819.566	651.395
362.767	26.592	819.394	651.829
363.781	26.652	819.560	652.118
364.796	27.070	819.062	653.166
365.810	27.101	818.701	652.934
366.825	27.147	818.367	652.774
367.840	27.196	817.753	652.401
368.854	27.102	817.053	651.450
369.869	26.402	816.611	648.528
370.883	26.412	815.565	647.678
371.898	26.439	815.440	647.616
372.913	26.469	814.342	646.796
373.927	26.403	814.008	646.237
374.942	26.547	813.306	646.136
375.956	26.622	812.958	646.069
376.971	26.756	812.195	645.885
377.986	26.885	811.888	646.042
379.000	27.125	811.230	646.316
380.015	27.117	811.119	646.141
381.029	26.910	810.212	644.626
382.044	27.000	809.678	644.463
383.059	27.008	809.378	644.198
384.073	26.990	808.777	643.598
385.088	27.050	808.603	643.616
386.102	27.140	807.906	643.322
387.117	26.944	807.070	641.905
388.132	26.822	806.538	640.993
389.146	26.643	805.795	639.716
390.161	26.177	804.705	637.150
391.175	26.057	804.611	636.597
392.190	26.820	804.398	639.060
393.205	26.633	804.108	638.115
394.219	25.779	802.144	633.496
395.234	24.262	799.745	626.221
396.248	23.400	798.937	622.507
397.263	24.459	799.849	626.885
398.278	26.212	801.187	634.036
399.292	26.676	801.370	635.755
400.307	26.366	800.352	633.805
401.321	26.375	800.194	633.654
402.336	26.334	799.892	633.215
403.350	26.654	799.652	634.089
404.365	27.050	799.678	635.441
405.380	27.403	799.316	636.330
406.394	27.587	799.341	636.937
407.409	27.870	798.529	637.222
408.423	27.808	798.574	636.985
409.438	27.743	797.445	635.803
410.453	27.693	797.409	635.542
411.467	27.804	796.751	635.348
412.482	27.631	796.523	634.507
413.496	27.771	795.524	634.142
414.511	27.714	795.756	634.072
415.526	27.800	795.264	633.924
416.540	27.762	795.060	633.573
417.555	27.746	794.240	632.809
418.569	27.473	793.415	631.151
419.584	27.359	793.187	630.516
420.599	27.479	792.532	630.356
421.613	108.540	1280.630	1446.087
422.628	93.345	1351.776	1446.199
