DTS Sentinel unit serial number:	SN413079Multiplexer serial number:	ORYXHardware model number:	OX4-SRSoftware version number:	ORYX F/W v4.00 Oryx Data Collector v3.7.2.0data status	okinstallation	princeton_trtdifferential loss correction	single-endedforward channel	channel 3reverse channel	N/Adate	2019/09/11time	11:42:11forward acquisition time	60.00reverse acquisition time	0.00gamma	496.2192k internal	0.2293k external	0.2293temperature offset calibration	0.9938default loss term (dB/km)	0.3790temperature slope calibration	1.0000multiplexer offset coefficient	1.0000multiplexer slope coefficient	1.0000fibre end	0.00T internal ref (°C)	38.50T ext. ref 1 (°C)	0.17T ext. ref 2 (°C)	36.16length (m)	temperature (°C)	Stokes	anti-Stokes-747.200	-200.000	0.001	-0.010
-746.185	292.287	0.112	0.208
-745.171	13.155	0.104	-0.083
-744.156	-88.349	-0.276	0.085
-743.142	60.143	-0.015	0.015
-742.127	-110.789	-0.218	0.046
-741.112	-134.347	0.189	-0.024
-740.098	-29.973	0.109	-0.064
-739.083	-73.526	-0.166	-0.062
-738.069	-200.000	0.189	0.001
-737.054	188.688	0.058	-0.089
-736.039	-104.286	-0.266	0.063
-735.025	-66.422	0.353	-0.144
-734.010	-200.000	-0.021	-0.129
-732.996	-86.515	-0.486	-0.152
-731.981	-128.661	0.041	0.006
-730.966	661.383	-0.115	-0.304
-729.952	60.695	-0.271	0.275
-728.937	-89.987	-0.236	-0.070
-727.923	287.391	0.172	-0.318
-726.908	20.935	-0.182	-0.151
-725.894	124.469	-0.162	-0.208
-724.879	553.661	-0.174	-0.428
-723.864	800.000	0.018	-0.078
-722.850	-200.000	-0.054	-0.330
-721.835	273.889	0.159	0.288
-720.821	-11.922	0.108	0.072
-719.806	-11.269	0.128	0.086
-718.791	-200.000	0.051	-0.451
-717.777	-58.824	-0.124	0.055
-716.762	-133.698	-0.602	-0.077
-715.748	-142.904	-0.107	0.011
-714.733	800.000	0.088	-0.260
-713.718	800.000	0.068	-0.277
-712.704	-129.476	-0.342	-0.048
-711.689	-58.831	0.113	-0.050
-710.675	-111.389	0.158	0.033
-709.660	280.906	-0.105	0.192
-708.645	-83.723	-0.160	-0.052
-707.631	-14.371	0.282	0.185
-706.616	-135.772	-0.277	0.033
-705.602	176.983	0.150	-0.223
-704.587	-200.000	-0.015	-0.254
-703.572	-200.000	-0.005	0.113
-702.558	783.728	-0.112	-0.314
-701.543	16.285	0.281	0.226
-700.529	277.711	-0.160	0.291
-699.514	-57.426	0.099	-0.044
-698.499	-63.714	-0.420	0.176
-697.485	-200.000	-0.022	0.166
-696.470	53.202	0.226	-0.221
-695.456	85.072	-0.122	0.137
-694.441	-112.587	0.324	-0.066
-693.426	82.219	-0.134	0.148
-692.412	-15.912	0.280	0.182
-691.397	38.042	-0.295	0.268
-690.383	238.177	-0.145	-0.246
-689.368	-37.210	0.222	-0.121
-688.354	-23.624	-0.482	-0.295
-687.339	-200.000	0.100	0.721
-686.324	411.266	0.177	0.384
-685.310	-200.000	0.031	0.159
-684.295	376.808	0.130	0.271
-683.281	-140.678	0.130	0.014
-682.266	-200.000	-0.051	0.291
-681.251	800.000	-0.094	-0.327
-680.237	131.703	0.125	0.164
-679.222	-32.046	0.136	0.078
-678.208	-112.163	-0.223	0.046
-677.193	17.866	-0.375	-0.304
-676.178	-151.287	-0.186	-0.014
-675.164	-113.168	0.380	0.076
-674.149	-200.000	-0.010	0.345
-673.135	800.000	0.062	0.214
-672.120	-31.481	0.156	-0.089
-671.105	408.795	-0.067	0.144
-670.091	420.541	-0.123	0.268
-669.076	199.434	-0.067	-0.105
-668.062	-200.000	-0.042	-0.472
-667.047	2.624	0.335	-0.248
-666.032	216.054	0.178	-0.289
-665.018	110.969	-0.136	0.167
-664.003	46.688	0.105	0.099
-662.989	-129.006	0.269	-0.038
-661.974	36.780	0.098	0.088
-660.959	-177.240	-0.292	0.007
-659.945	-200.000	-0.077	-0.398
-658.930	-124.234	-0.355	0.057
-657.916	-59.463	-0.198	-0.087
-656.901	92.512	-0.045	0.052
-655.886	-86.298	0.229	-0.072
-654.872	-200.000	0.002	-0.123
-653.857	-83.204	0.057	0.019
-652.843	118.260	0.094	-0.118
-651.828	372.806	0.186	-0.385
-650.814	-60.958	-0.117	0.050
-649.799	14.845	-0.254	-0.202
-648.784	-200.000	-0.031	-0.211
-647.770	-104.734	-0.115	-0.027
-646.755	-11.951	0.167	-0.111
-645.741	490.435	-0.094	-0.219
-644.726	132.554	0.172	-0.225
-643.711	800.000	-0.087	0.299
-642.697	800.000	-0.119	0.353
-641.682	536.040	-0.115	0.278
-640.668	157.566	0.024	-0.034
-639.653	350.401	-0.070	0.141
-638.638	-200.000	0.027	-0.274
-637.624	-200.000	0.032	-0.164
-636.609	51.535	0.418	0.405
-635.595	800.000	0.057	-0.216
-634.580	-58.248	-0.248	-0.110
-633.565	-58.264	0.069	0.031
-632.551	-132.635	0.192	-0.025
-631.536	379.612	0.041	0.085
-630.522	223.024	-0.066	0.108
-629.507	67.566	0.180	-0.187
-628.492	47.508	-0.253	-0.240
-627.478	-200.000	-0.000	-0.318
-626.463	234.891	-0.168	-0.282
-625.449	-33.698	-0.325	-0.183
-624.434	-65.530	0.096	-0.039
-623.419	27.044	0.181	0.154
-622.405	335.469	0.192	0.378
-621.390	-200.000	0.034	0.365
-620.376	-156.319	-0.323	0.021
-619.361	-200.000	0.020	-0.274
-618.346	38.656	0.067	0.061
-617.332	203.661	-0.062	-0.098
-616.317	-123.836	-0.145	0.023
-615.303	-49.238	0.282	0.137
-614.288	-129.948	-0.262	0.037
-613.273	-200.000	0.007	0.089
-612.259	507.499	-0.109	-0.258
-611.244	800.000	-0.140	0.409
-610.230	-95.048	0.373	-0.103
-609.215	-114.005	-0.300	0.059
-608.201	66.936	0.153	0.159
-607.186	18.190	-0.309	-0.251
-606.171	-84.819	0.168	0.054
-605.157	12.657	-0.348	0.273
-604.142	-200.000	0.006	-0.163
-603.128	187.901	0.247	0.375
-602.113	-144.928	-0.071	-0.007
-601.098	-117.541	-0.481	0.088
-600.084	318.889	0.117	-0.225
-599.069	-120.497	-0.217	0.037
-598.055	423.775	-0.109	0.239
-597.040	-59.103	-0.239	-0.105
-596.025	-200.000	-0.023	0.240
-595.011	-200.000	-0.011	0.252
-593.996	-23.474	-0.308	-0.188
-592.982	318.691	-0.096	0.184
-591.967	220.891	0.186	0.304
-590.952	800.000	0.008	0.030
-589.938	374.126	-0.157	-0.324
-588.923	61.565	0.134	0.136
-587.909	144.485	0.038	-0.052
-586.894	-96.001	-0.227	0.061
-585.879	1.604	0.109	0.080
-584.865	-50.743	0.173	0.083
-583.850	-195.767	0.076	0.001
-582.836	-85.217	-0.116	-0.037
-581.821	-200.000	-0.018	-0.367
-580.806	46.744	-0.064	0.060
-579.792	-82.185	-0.306	-0.101
-578.777	-104.275	0.185	-0.044
-577.763	118.657	0.194	-0.244
-576.748	529.421	-0.051	0.122
-575.733	488.816	0.118	-0.274
-574.719	566.365	-0.097	0.239
-573.704	-48.913	-0.222	0.108
-572.690	-82.583	0.006	0.002
-571.675	-200.000	-0.026	-0.126
-570.661	-146.704	0.102	-0.009
-569.646	-79.205	-0.208	-0.072
-568.631	-110.325	-0.255	0.054
-567.617	235.712	0.080	-0.135
-566.602	-200.000	0.027	0.325
-565.588	-75.549	0.277	-0.100
-564.573	-200.000	-0.030	-0.313
-563.558	214.121	0.126	0.202
-562.544	-7.493	0.062	-0.043
-561.529	238.546	-0.099	-0.168
-560.515	-0.406	0.105	-0.075
-559.500	-72.240	-0.250	0.094
-558.485	-31.095	0.253	-0.145
-557.471	213.058	-0.135	-0.217
-556.456	192.515	-0.081	-0.125
-555.442	89.566	-0.104	0.118
-554.427	41.403	-0.245	0.225
-553.412	800.000	-0.137	0.401
-552.398	-200.000	-0.019	-0.379
-551.383	-83.975	0.281	-0.091
-550.369	263.475	0.033	-0.058
-549.354	800.000	0.060	0.234
-548.339	-114.299	0.198	0.039
-547.325	19.648	-0.042	-0.034
-546.310	201.522	-0.081	0.127
-545.296	-19.662	-0.468	-0.294
-544.281	-18.443	-0.094	-0.059
-543.266	-44.926	0.267	0.135
-542.252	27.716	-0.076	-0.065
-541.237	-200.000	-0.076	-0.393
-540.223	110.630	0.114	-0.139
-539.208	-23.700	0.182	-0.111
-538.193	419.452	0.033	0.073
-537.179	-58.475	-0.182	0.080
-536.164	-200.000	-0.026	-0.214
-535.150	239.365	-0.057	-0.096
-534.135	800.000	-0.091	0.264
-533.121	-58.665	-0.113	-0.050
-532.106	469.830	0.063	0.144
-531.091	454.528	-0.092	0.207
-530.077	489.154	-0.095	-0.219
-529.062	105.705	0.242	0.290
-528.048	-200.000	-0.030	-0.276
-527.033	-157.490	0.216	0.013
-526.018	360.289	-0.063	-0.128
-525.004	-13.453	0.048	0.031
-523.989	767.674	0.154	0.425
-522.975	-200.000	0.008	-0.182
-521.960	254.864	0.122	0.212
-520.945	202.190	-0.059	0.092
-519.931	-17.118	-0.124	0.079
-518.916	-22.271	0.102	0.063
-517.902	-138.446	0.240	0.027
-516.887	730.178	-0.110	0.297
-515.872	-40.860	0.003	0.002
-514.858	-30.515	0.135	0.078
-513.843	-5.570	-0.170	-0.118
-512.829	43.275	-0.133	0.123
-511.814	-73.429	-0.140	-0.052
-510.799	800.000	0.052	-0.150
-509.785	16.969	0.058	0.046
-508.770	-200.000	0.021	-0.350
-507.756	43.346	-0.126	0.117
-506.741	45.623	0.241	0.226
-505.726	182.621	0.048	-0.071
-504.712	-194.634	0.199	0.002
-503.697	56.861	0.145	0.143
-502.683	-200.000	-0.037	-0.293
-501.668	-200.000	-0.000	0.130
-500.653	-52.729	-0.266	0.124
-499.639	74.179	-0.211	0.225
-498.624	-0.302	-0.109	-0.079
-497.610	-200.000	-0.012	-0.265
-496.595	-108.847	0.240	0.052
-495.581	63.097	-0.071	0.072
-494.566	13.401	-0.145	0.114
-493.551	-200.000	-0.035	0.246
-492.537	231.525	0.178	0.295
-491.522	84.389	-0.079	0.087
-490.508	-26.734	-0.290	-0.172
-489.493	128.304	0.057	-0.073
-488.478	383.574	0.052	0.109
-487.464	196.008	-0.034	0.053
-486.449	13.132	-0.225	-0.177
-485.435	-68.878	0.206	0.081
-484.420	-200.000	0.005	-0.072
-483.405	800.000	0.092	-0.347
-482.391	171.570	-0.141	0.206
-481.376	-9.628	-0.421	-0.284
-480.362	202.183	-0.123	-0.193
-479.347	239.339	0.221	0.372
-478.332	-47.124	-0.127	-0.063
-477.318	-154.764	0.149	0.010
-476.303	286.982	-0.059	0.107
-475.289	193.900	0.109	-0.168
-474.274	-9.992	-0.197	-0.133
-473.259	800.000	-0.079	0.281
-472.245	-74.325	-0.406	0.148
-471.230	359.695	-0.042	-0.085
-470.216	-200.000	-0.030	-0.238
-469.201	-96.241	0.163	0.044
-468.186	429.319	0.068	-0.149
-467.172	473.381	0.133	0.304
-466.157	77.732	-0.125	0.134
-465.143	-92.519	0.129	0.037
-464.128	-200.000	-0.036	0.170
-463.113	-156.054	-0.201	-0.013
-462.099	-117.407	0.086	0.016
-461.084	55.100	0.068	-0.066
-460.070	77.906	-0.089	-0.096
-459.055	326.203	-0.033	0.064
-458.040	261.331	-0.087	-0.153
-457.026	463.049	-0.185	0.417
-456.011	-113.733	0.077	0.015
-454.997	-29.071	-0.130	-0.075
-453.982	101.667	0.150	0.177
-452.968	203.697	0.137	0.215
-451.953	92.384	-0.082	0.094
-450.938	116.341	-0.122	-0.151
-449.924	-79.485	-0.138	-0.047
-448.909	126.633	-0.031	-0.040
-447.895	800.000	0.052	0.214
-446.880	450.699	-0.109	-0.242
-445.865	144.740	0.048	0.064
-444.851	10.184	0.153	-0.118
-443.836	-200.000	-0.004	-0.077
-442.822	-135.478	0.071	-0.009
-441.807	800.000	-0.023	-0.080
-440.792	-147.036	-0.172	-0.015
-439.778	327.203	0.051	0.099
-438.763	87.504	-0.200	0.223
-437.749	-20.790	-0.238	0.147
-436.734	33.261	-0.160	-0.140
-435.719	-54.008	-0.245	-0.113
-434.705	195.286	-0.042	0.064
-433.690	144.542	0.266	-0.359
-432.676	-200.000	-0.013	-0.251
-431.661	800.000	-0.052	0.161
-430.646	-200.000	-0.050	-0.244
-429.632	-88.657	0.209	-0.063
-428.617	800.000	0.095	0.267
-427.603	3.658	0.108	0.080
-426.588	-200.000	0.014	-0.185
-425.573	-113.683	-0.232	0.046
-424.559	-200.000	0.017	0.301
-423.544	22.926	-0.292	-0.242
-422.530	-41.251	0.348	-0.181
-421.515	509.729	-0.092	0.216
-420.500	-80.983	-0.183	0.061
-419.486	-101.387	-0.379	0.093
-418.471	-49.938	0.181	-0.087
-417.457	69.568	-0.144	-0.150
-416.442	-200.000	-0.008	-0.278
-415.428	162.578	-0.090	0.128
-414.413	-3.971	0.029	0.020
-413.398	249.219	-0.072	-0.123
-412.384	48.738	0.065	-0.062
-411.369	110.022	-0.080	0.096
-410.355	-72.622	-0.126	0.047
-409.340	41.853	0.134	0.123
-408.325	9.369	0.260	-0.199
-407.311	387.732	-0.029	-0.060
-406.296	800.000	-0.126	-0.373
-405.282	-16.281	0.086	0.055
-404.267	-71.901	0.047	0.018
-403.252	-66.337	0.161	-0.065
-402.238	-110.976	-0.382	0.079
-401.223	45.624	0.170	0.159
-400.209	-22.459	0.192	0.118
-399.194	-113.197	0.558	-0.111
-398.179	-200.000	0.044	0.281
-397.165	-98.459	0.077	-0.020
-396.150	-200.000	-0.008	0.591
-395.136	-200.000	-0.023	0.103
-394.121	496.643	0.073	0.168
-393.106	163.282	0.085	-0.120
-392.092	-200.000	0.035	0.438
-391.077	-20.245	0.275	-0.171
-390.063	800.000	0.025	0.106
-389.048	-44.450	0.310	-0.156
-388.033	-67.501	-0.200	-0.079
-387.019	-7.174	-0.133	-0.091
-386.004	121.802	-0.059	0.074
-384.990	563.281	-0.103	-0.252
-383.975	-200.000	0.037	-0.431
-382.960	-109.232	-0.200	-0.043
-381.946	-23.655	-0.288	0.174
-380.931	521.472	-0.166	-0.393
-379.917	800.000	-0.076	-0.257
-378.902	85.347	0.097	0.107
-377.888	-159.962	0.200	0.011
-376.873	-12.630	-0.028	0.018
-375.858	-6.547	0.224	-0.154
-374.844	-200.000	-0.024	-0.128
-373.829	-200.000	0.016	-0.138
-372.815	-200.000	-0.005	0.087
-371.800	202.150	0.096	0.149
-370.785	13.671	-0.143	0.112
-369.771	800.000	-0.072	0.277
-368.756	-200.000	-0.034	-0.254
-367.742	528.142	-0.098	0.232
-366.727	-200.000	-0.026	0.515
-365.712	119.099	-0.106	0.132
-364.698	-64.732	0.231	0.094
-363.683	-68.620	-0.167	0.065
-362.669	-23.487	-0.041	-0.025
-361.654	-122.740	0.473	0.077
-360.639	581.020	-0.138	0.340
-359.625	126.532	0.069	-0.088
-358.610	780.402	0.060	0.165
-357.596	19.719	0.169	0.137
-356.581	387.145	0.081	0.168
-355.566	46.104	0.040	-0.038
-354.552	322.097	0.169	0.324
-353.537	-27.201	0.113	0.067
-352.523	-200.000	-0.037	0.175
-351.508	-42.759	0.188	0.096
-350.493	97.099	0.135	-0.156
-349.479	-193.449	0.061	-0.001
-348.464	259.423	-0.058	0.100
-347.450	218.249	0.134	0.215
-346.435	-200.000	-0.019	-0.168
-345.420	800.000	-0.140	0.445
-344.406	25.992	-0.188	-0.158
-343.391	-137.994	0.227	0.025
-342.377	154.923	0.056	-0.078
-341.362	-125.803	-0.146	0.022
-340.348	186.088	-0.127	0.191
-339.333	-200.000	-0.009	0.055
-338.318	-71.741	0.046	-0.017
-337.304	-132.862	-0.331	-0.043
-336.289	800.000	0.067	0.191
-335.275	187.158	-0.025	-0.037
-334.260	-200.000	0.052	0.369
-333.245	-200.000	-0.046	-0.323
-332.231	20.508	0.264	0.215
-331.216	-200.000	0.011	0.072
-330.202	13.141	0.136	-0.106
-329.187	-184.060	0.295	0.005
-328.172	127.550	-0.098	0.126
-327.158	-27.066	0.274	-0.161
-326.143	117.663	-0.069	0.085
-325.129	-200.000	-0.007	0.076
-324.114	-200.000	0.039	-0.215
-323.099	-200.000	0.021	0.211
-322.085	-200.000	0.021	-0.154
-321.070	-200.000	-0.004	-0.118
-320.056	122.889	0.195	0.245
-319.041	14.372	-0.211	-0.166
-318.026	412.514	-0.114	-0.244
-317.012	82.801	0.226	-0.247
-315.997	81.979	0.271	0.296
-314.983	100.052	0.067	0.079
-313.968	-120.653	0.382	0.065
-312.953	-200.000	-0.019	-0.100
-311.939	560.346	-0.146	0.355
-310.924	-200.000	0.012	0.226
-309.910	265.320	0.286	0.501
-308.895	36.270	0.249	0.221
-307.880	800.000	0.036	0.153
-306.866	-200.000	0.027	-0.179
-305.851	62.338	-0.225	-0.226
-304.837	-60.080	0.221	-0.095
-303.822	125.916	0.181	-0.230
-302.807	-171.978	0.053	-0.002
-301.793	-65.664	0.177	-0.071
-300.778	800.000	-0.067	-0.255
-299.764	668.947	-0.038	-0.099
-298.749	-98.202	-0.423	-0.109
-297.735	382.281	0.043	-0.090
-296.720	-200.000	-0.032	0.154
-295.705	66.794	0.091	-0.093
-294.691	338.146	0.172	-0.337
-293.676	-200.000	-0.018	-0.102
-292.662	800.000	-0.175	0.492
-291.647	17.003	-0.108	-0.086
-290.632	52.053	-0.146	-0.140
-289.618	-200.000	-0.014	0.115
-288.603	12.654	0.176	-0.137
-287.589	97.826	-0.154	0.178
-286.574	-200.000	-0.008	-0.379
-285.559	-133.295	-0.280	-0.036
-284.545	173.643	-0.017	-0.025
-283.530	303.135	-0.202	-0.376
-282.516	-200.000	-0.002	-0.282
-281.501	47.511	0.074	-0.070
-280.486	21.769	0.102	0.083
-279.472	800.000	0.084	0.340
-278.457	-28.182	-0.078	-0.045
-277.443	-130.971	-0.301	-0.040
-276.428	-83.503	-0.221	-0.071
-275.413	-34.320	0.436	0.240
-274.399	-36.724	0.208	0.112
-273.384	-70.303	-0.148	0.056
-272.370	129.147	-0.171	-0.219
-271.355	316.708	0.096	-0.183
-270.340	16.619	0.217	0.172
-269.326	-39.355	-0.070	-0.037
-268.311	-53.745	0.440	-0.202
-267.297	-200.000	0.024	-0.282
-266.282	103.263	-0.126	-0.148
-265.267	96.252	-0.045	0.051
-264.253	-100.725	0.110	-0.027
-263.238	-156.454	-0.181	-0.011
-262.224	-169.617	0.140	0.005
-261.209	800.000	0.051	0.147
-260.195	327.320	-0.107	-0.206
-259.180	404.961	-0.037	0.077
-258.165	752.245	0.035	-0.096
-257.151	274.811	0.218	0.387
-256.136	-21.374	0.092	-0.056
-255.122	476.542	0.159	-0.360
-254.107	800.000	-0.060	0.209
-253.092	-146.395	-0.376	-0.033
-252.078	-15.475	0.055	-0.036
-251.063	-200.000	0.004	0.141
-250.049	-200.000	0.049	-0.240
-249.034	237.020	0.064	0.106
-248.019	800.000	0.020	-0.072
-247.005	-200.000	-0.019	0.116
-245.990	-130.446	-0.308	-0.042
-244.976	159.426	0.016	-0.022
-243.961	-136.144	-0.178	-0.021
-242.946	138.826	0.148	0.195
-241.932	-200.000	-0.051	-0.236
-240.917	115.928	0.036	0.045
-239.903	-146.751	-0.443	-0.038
-238.888	475.784	0.074	0.167
-237.873	156.912	0.223	-0.309
-236.859	678.738	0.117	0.305
-235.844	-200.000	-0.009	-0.339
-234.830	84.635	-0.023	-0.025
-233.815	800.000	0.080	0.279
-232.800	1.851	-0.114	0.082
-231.786	227.881	-0.035	-0.057
-230.771	-50.614	0.250	-0.118
-229.757	5.128	-0.209	0.154
-228.742	800.000	-0.035	0.102
-227.727	-5.424	0.084	0.057
-226.713	-200.000	-0.063	-0.368
-225.698	-70.970	-0.209	0.079
-224.684	-108.547	0.119	-0.026
-223.669	-70.090	-0.129	-0.049
-222.655	-33.388	-0.105	0.058
-221.640	800.000	-0.082	-0.258
-220.625	-37.425	0.212	-0.114
-219.611	-113.000	0.092	0.018
-218.596	-124.149	-0.347	-0.054
-217.582	36.334	0.129	-0.114
-216.567	-102.030	0.183	0.044
-215.552	26.263	-0.250	0.209
-214.538	-149.346	0.162	-0.013
-213.523	521.574	-0.134	-0.316
-212.509	-200.000	0.008	-0.270
-211.494	-167.146	0.195	-0.008
-210.479	-66.317	-0.061	-0.024
-209.465	151.521	0.235	0.321
-208.450	800.000	0.072	-0.227
-207.436	745.219	0.126	-0.340
-206.421	-37.511	0.178	-0.095
-205.406	-177.299	-0.417	-0.010
-204.392	-101.527	0.197	-0.048
-203.377	-70.379	0.036	-0.014
-202.363	-124.067	-0.142	-0.022
-201.348	-17.510	-0.190	-0.120
-200.333	-36.933	-0.341	-0.183
-199.319	-169.725	0.330	0.012
-198.304	-7.517	0.193	-0.131
-197.290	-109.730	-0.130	-0.027
-196.275	-200.000	-0.018	0.146
-195.260	-158.688	-0.306	0.018
-194.246	222.771	-0.135	0.218
-193.231	71.960	0.077	0.080
-192.217	223.926	0.129	0.209
-191.202	-200.000	-0.009	-0.173
-190.187	720.062	-0.112	-0.298
-189.173	-57.459	0.434	-0.191
-188.158	247.093	-0.111	-0.188
-187.144	-79.451	-0.168	-0.057
-186.129	163.930	-0.132	-0.186
-185.114	-200.000	0.030	0.154
-184.100	-25.513	-0.232	-0.137
-183.085	307.142	-0.089	-0.166
-182.071	-110.650	0.183	0.038
-181.056	162.660	0.156	-0.219
-180.042	-153.051	-0.127	-0.009
-179.027	-33.658	0.224	0.124
-178.012	-200.000	0.009	-0.263
-176.998	-16.968	0.142	0.090
-175.983	-134.612	0.264	-0.032
-174.969	347.073	0.074	-0.145
-173.954	17.310	-0.082	-0.065
-172.939	-19.528	-0.124	-0.077
-171.925	-200.000	0.115	0.603
-170.910	509.494	-0.083	0.194
-169.896	800.000	-0.090	0.274
-168.881	-88.664	0.483	-0.144
-167.866	192.121	0.126	-0.190
-166.852	800.000	0.060	0.204
-165.837	-73.937	0.363	-0.132
-164.823	-125.318	0.269	-0.041
-163.808	-64.133	-0.224	0.091
-162.793	-6.909	0.096	-0.066
-161.779	161.789	-0.226	-0.316
-160.764	-134.680	0.254	-0.031
-159.750	5.415	-0.139	0.103
-158.735	105.256	-0.079	-0.093
-157.720	-48.404	0.507	0.244
-156.706	-200.000	-0.002	-0.054
-155.691	683.890	0.033	0.087
-154.677	-76.226	0.361	-0.127
-153.662	5.913	0.213	-0.157
-152.647	-200.000	0.061	0.306
-151.633	-99.324	-0.200	0.050
-150.618	315.645	-0.118	0.223
-149.604	-200.000	0.009	0.246
-148.589	539.191	0.100	0.238
-147.574	-110.564	0.019	-0.004
-146.560	-200.000	-0.004	0.238
-145.545	146.783	0.340	0.457
-144.531	171.579	-0.156	0.224
-143.516	8.321	-0.027	-0.021
-142.502	601.596	0.088	0.217
-141.487	-24.457	0.246	-0.147
-140.472	441.380	0.040	-0.087
-139.458	800.000	0.021	0.075
-138.443	226.581	0.113	0.184
-137.429	72.999	0.354	0.369
-136.414	18.717	-0.312	0.249
-135.399	-114.023	-0.357	-0.069
-134.385	-145.292	0.208	-0.019
-133.370	37.929	-0.197	0.175
-132.356	-200.000	0.037	0.293
-131.341	-110.540	-0.377	-0.078
-130.326	-96.041	-0.412	-0.109
-129.312	-200.000	0.015	0.382
-128.297	-83.013	0.080	0.026
-127.283	800.000	0.024	-0.082
-126.268	-200.000	-0.006	0.221
-125.253	-200.000	-0.004	-0.048
-124.239	-87.624	0.281	-0.085
-123.224	-200.000	0.014	0.209
-122.210	-200.000	-0.020	0.173
-121.195	201.288	0.119	-0.183
-120.180	288.965	0.007	0.013
-119.166	580.540	-0.101	-0.247
-118.151	-144.237	0.322	0.030
-117.137	-114.484	0.085	-0.016
-116.122	-1.444	0.176	0.124
-115.107	68.905	0.195	-0.200
-114.093	3.889	-0.178	-0.129
-113.078	767.609	0.113	0.307
-112.064	-121.735	-0.072	-0.012
-111.049	-141.263	0.210	0.021
-110.034	800.000	0.069	0.195
-109.020	50.058	0.146	0.138
-108.005	29.099	-0.109	-0.092
-106.991	-200.000	-0.023	-0.233
-105.976	352.703	0.132	-0.262
-104.962	8.202	0.189	-0.142
-103.947	340.700	0.115	0.224
-102.932	-50.419	-0.112	0.053
-101.918	315.032	-0.128	-0.240
-100.903	-57.155	0.295	0.129
-99.889	-104.476	0.328	0.076
-98.874	-46.076	-0.084	0.042
-97.859	73.977	0.190	0.199
-96.845	32.541	-0.166	-0.143
-95.830	-200.000	0.048	-0.256
-94.816	-7.296	0.319	-0.215
-93.801	-65.684	-0.165	0.066
-92.786	-35.140	0.436	0.237
-91.772	-136.849	0.098	0.011
-90.757	334.493	0.091	0.175
-89.743	-200.000	0.020	-0.212
-88.728	206.372	-0.084	-0.130
-87.713	22.154	-0.074	0.060
-86.699	-129.761	0.226	0.031
-85.684	-75.565	0.164	0.058
-84.670	-97.628	-0.047	0.012
-83.655	292.520	-0.223	-0.405
-82.640	-200.000	-0.001	-0.376
-81.626	600.209	0.102	-0.254
-80.611	-41.574	-0.322	0.165
-79.597	769.920	0.079	0.214
-78.582	443.872	-0.042	-0.092
-77.567	-68.619	-0.287	0.111
-76.553	-200.000	-0.020	-0.113
-75.538	109.817	0.130	0.156
-74.524	800.000	-0.053	-0.155
-73.509	397.686	0.032	0.066
-72.494	195.984	0.153	-0.232
-71.480	-200.000	0.185	0.001
-70.465	167.702	0.081	-0.115
-69.451	22.921	0.188	0.154
-68.436	395.117	-0.066	0.137
-67.422	26.694	-0.341	0.285
-66.407	-106.255	0.249	-0.056
-65.392	800.000	-0.021	-0.090
-64.378	-71.250	0.154	0.058
-63.363	-127.130	-0.075	-0.011
-62.349	-66.674	0.143	-0.056
-61.334	7.587	-1.032	-0.769
-60.319	266.423	0.069	0.120
-59.305	-200.000	-0.150	-0.972
-58.290	218.837	0.460	0.733
-57.276	280.896	0.920	1.640
-56.261	-200.000	80.688	498.656
-55.246	553.626	1375.993	3294.833
-54.232	179.810	2616.870	3818.286
-53.217	121.448	2275.243	2823.119
-52.203	48.720	1802.128	1682.938
-51.188	41.470	1607.425	1448.663
-50.173	39.157	1578.544	1406.054
-49.159	55.460	1617.188	1558.555
-48.144	59.857	1637.189	1609.542
-47.130	42.200	1600.304	1447.287
-46.115	38.900	1585.968	1410.599
-45.100	38.604	1583.019	1405.795
-44.086	38.579	1581.010	1403.773
-43.071	38.587	1578.964	1401.958
-42.057	38.423	1577.602	1399.521
-41.042	38.499	1575.698	1398.320
-40.027	38.384	1574.190	1396.101
-39.013	38.505	1572.150	1395.102
-37.998	38.464	1570.846	1393.600
-36.984	38.461	1569.729	1392.531
-35.969	38.539	1568.803	1392.209
-34.954	38.464	1567.628	1390.580
-33.940	38.481	1565.749	1388.975
-32.925	38.388	1564.785	1387.407
-31.911	38.509	1562.997	1386.622
-30.896	38.550	1561.418	1385.455
-29.881	38.622	1559.759	1384.438
-28.867	38.592	1558.847	1383.360
-27.852	38.540	1557.754	1381.967
-26.838	38.592	1556.432	1381.110
-25.823	38.721	1554.131	1379.924
-24.809	38.567	1552.906	1377.696
-23.794	38.640	1551.332	1376.757
-22.779	38.555	1550.160	1375.069
-21.765	38.614	1548.888	1374.294
-20.750	38.640	1547.355	1373.068
-19.736	38.542	1546.273	1371.364
-18.721	38.549	1545.291	1370.488
-17.706	38.438	1544.397	1368.864
-16.692	38.571	1542.644	1368.187
-15.677	38.422	1542.303	1366.786
-14.663	38.352	1541.285	1365.342
-13.648	38.462	1539.594	1364.557
-12.633	38.409	1539.016	1363.618
-11.619	38.447	1538.306	1363.203
-10.604	38.422	1537.294	1362.076
-9.590	38.394	1536.281	1360.931
-8.575	38.465	1534.993	1360.233
-7.560	38.511	1534.411	1359.980
-6.546	38.411	1533.925	1358.800
-5.531	38.413	1532.914	1357.865
-4.517	38.312	1531.838	1356.160
-3.502	38.397	1531.136	1356.074
-2.487	38.334	1529.605	1354.228
-1.473	38.445	1528.299	1353.782
-0.458	38.507	1526.649	1352.693
0.556	36.856	1517.890	1343.866
1.571	34.613	1491.216	1304.823
2.586	31.546	1427.331	1228.711
3.600	29.930	1341.290	1144.557
4.615	28.066	1292.714	1091.891
5.629	23.043	1230.815	1010.877
6.644	10.962	1135.787	868.609
7.659	1.798	1087.736	784.751
8.673	0.445	1081.366	773.156
9.688	0.176	1078.430	769.610
10.702	0.039	1076.788	767.673
11.717	0.041	1075.353	766.590
12.731	4.223	1080.807	791.799
13.746	15.410	1097.853	861.974
14.761	22.320	1106.473	904.312
15.775	22.422	1105.471	903.941
16.790	22.384	1104.260	902.674
17.804	22.085	1103.864	900.734
18.819	21.920	1102.740	898.897
19.834	22.040	1102.307	899.077
20.848	22.107	1101.758	898.892
21.863	22.219	1100.850	898.647
22.877	22.106	1100.643	897.819
23.892	22.101	1099.935	897.135
24.907	22.002	1099.208	895.957
25.921	21.964	1098.754	895.314
26.936	21.993	1097.881	894.674
27.950	22.069	1096.453	893.818
28.965	21.932	1095.469	892.239
29.980	21.731	1094.109	890.033
30.994	21.906	1092.089	889.198
32.009	22.081	1091.601	889.606
33.023	22.285	1090.311	889.507
34.038	21.885	1089.648	886.866
35.053	21.881	1088.726	886.016
36.067	22.056	1087.763	886.037
37.082	22.059	1087.350	885.639
38.096	22.083	1086.452	884.950
39.111	22.222	1085.864	885.091
40.126	22.380	1084.918	885.036
41.140	22.276	1083.417	883.211
42.155	22.072	1082.107	881.045
43.169	21.781	1080.673	878.338
44.184	21.678	1079.894	877.114
45.199	21.770	1079.192	876.929
46.213	21.678	1077.756	875.223
47.228	21.550	1077.490	874.292
48.242	21.896	1076.291	874.964
49.257	21.916	1075.838	874.622
50.271	21.943	1074.683	873.738
51.286	22.042	1073.778	873.420
52.301	22.155	1073.405	873.597
53.315	22.199	1072.977	873.391
54.330	22.110	1071.928	872.017
55.344	21.988	1071.215	870.756
56.359	22.042	1070.181	870.106
57.374	22.062	1068.830	869.029
58.388	21.869	1068.279	867.547
59.403	21.803	1067.498	866.513
60.417	21.822	1066.978	866.107
61.432	21.571	1066.114	864.089
62.447	21.632	1065.305	863.658
63.461	21.724	1064.939	863.742
64.476	21.876	1063.946	863.608
65.490	21.939	1062.608	862.753
66.505	21.798	1061.536	861.115
67.520	21.808	1060.947	860.611
68.534	21.973	1059.954	860.536
69.549	21.796	1059.002	858.820
70.563	21.614	1057.429	856.582
71.578	21.394	1057.273	855.302
72.593	21.358	1056.554	854.467
73.607	21.365	1055.034	853.198
74.622	21.251	1054.035	851.759
75.636	21.430	1053.798	852.364
76.651	21.661	1052.919	852.701
77.666	21.605	1051.844	851.482
78.680	21.583	1050.858	850.503
79.695	21.374	1050.433	849.068
80.709	21.563	1049.798	849.399
81.724	21.667	1049.496	849.583
82.739	21.656	1048.485	848.635
83.753	21.645	1047.472	847.689
84.768	21.931	1046.695	848.368
85.782	22.178	1046.184	849.070
86.797	22.322	1045.352	849.016
87.812	22.288	1044.617	848.181
88.826	22.109	1043.773	846.554
89.841	22.229	1042.812	846.279
90.855	22.216	1042.118	845.581
91.870	22.308	1041.061	845.091
92.884	22.293	1040.572	844.545
93.899	22.143	1039.663	843.013
94.914	22.051	1038.638	841.668
95.928	22.157	1038.211	841.756
96.943	22.301	1036.883	841.290
97.957	22.100	1035.363	839.023
98.972	21.818	1034.332	836.767
99.987	21.477	1033.879	834.701
101.001	21.605	1032.933	834.472
102.016	21.957	1032.488	835.719
103.030	21.932	1031.598	834.805
104.045	21.971	1030.169	833.759
105.060	21.720	1028.993	831.541
106.074	21.552	1028.091	829.942
107.089	21.688	1027.366	829.928
108.103	22.021	1026.884	831.043
109.118	22.160	1025.963	830.879
110.133	21.852	1024.832	828.435
111.147	21.760	1023.788	827.085
112.162	21.709	1022.193	825.484
113.176	21.409	1021.601	823.519
114.191	21.606	1020.516	823.499
115.206	21.740	1019.578	823.301
116.220	21.423	1018.916	821.200
117.235	21.267	1017.430	819.202
118.249	21.328	1017.391	819.383
119.264	21.440	1016.107	818.799
120.279	21.457	1014.828	817.778
121.293	21.379	1014.374	816.974
122.308	21.567	1013.550	817.115
123.322	21.492	1013.032	816.278
124.337	21.542	1011.521	815.218
125.352	21.431	1009.866	813.296
126.366	20.894	1008.981	810.019
127.381	20.644	1007.295	807.432
128.395	21.204	1006.714	809.493
129.410	21.819	1006.327	811.956
130.424	22.047	1005.452	812.233
131.439	21.995	1004.724	811.332
132.454	21.930	1003.989	810.366
133.468	21.967	1002.718	809.444
134.483	21.834	1002.339	808.450
135.497	21.919	1001.520	808.111
136.512	22.030	1001.210	808.299
137.527	22.186	999.996	807.967
138.541	22.051	999.140	806.581
139.556	22.158	998.606	806.569
140.570	22.217	998.126	806.384
141.585	22.204	996.880	805.244
142.600	22.265	996.058	804.787
143.614	22.108	995.112	803.236
144.629	22.285	994.446	803.435
145.643	22.517	993.676	803.800
146.658	22.385	992.595	802.256
147.673	22.315	991.158	800.704
148.687	22.123	990.061	798.874
149.702	22.079	989.009	797.753
150.716	21.936	988.594	796.700
151.731	21.958	986.631	795.147
152.746	21.916	986.287	794.608
153.760	22.213	985.573	795.309
154.775	22.259	984.795	794.817
155.789	22.340	983.957	794.437
156.804	22.384	982.794	793.627
157.819	22.356	981.574	792.445
158.833	22.347	981.159	791.997
159.848	22.412	980.375	791.586
160.862	22.375	979.399	790.564
161.877	22.220	978.866	789.368
162.892	22.299	977.455	788.515
163.906	22.437	976.909	788.622
164.921	22.268	976.033	787.086
165.935	22.313	974.712	786.154
166.950	22.290	973.923	785.347
167.964	22.309	972.685	784.364
168.979	22.343	971.477	783.471
169.994	22.070	970.766	781.614
171.008	22.139	969.246	780.629
172.023	22.162	968.770	780.278
173.037	22.381	967.911	780.485
174.052	22.210	966.781	778.747
175.067	21.969	965.916	776.916
176.081	22.000	964.948	776.207
177.096	22.064	964.327	775.922
178.110	22.230	963.229	775.700
179.125	21.854	962.252	773.188
180.140	21.718	961.147	771.634
181.154	21.610	960.769	770.787
182.169	21.760	960.548	771.202
183.183	22.052	959.694	771.732
184.198	22.295	959.179	772.316
185.213	22.235	958.262	771.244
186.227	22.016	958.305	770.250
187.242	22.121	957.830	770.260
188.256	22.318	956.960	770.357
189.271	22.378	955.736	769.565
190.286	22.416	954.768	768.883
191.300	22.347	954.055	767.941
192.315	21.736	952.938	764.307
193.329	21.025	951.042	759.624
194.344	20.631	950.109	757.099
195.359	21.073	950.319	759.124
196.373	21.877	950.482	762.680
197.388	22.175	950.515	763.938
198.402	22.082	949.663	762.781
199.417	22.066	948.886	762.021
200.432	22.289	948.199	762.366
201.446	22.064	947.760	760.971
202.461	21.837	946.995	759.308
203.475	21.750	946.920	758.803
204.490	21.398	944.852	755.557
205.504	20.296	942.502	748.860
206.519	20.597	942.438	750.040
207.534	21.596	943.179	754.873
208.548	21.760	942.647	755.088
209.563	22.084	942.270	756.116
210.577	22.138	941.422	755.598
211.592	21.971	940.484	754.060
212.607	22.242	940.592	755.246
213.621	22.342	940.087	755.202
214.636	22.251	939.309	754.121
215.650	22.317	938.704	753.852
216.665	22.158	938.454	752.904
217.680	22.306	937.264	752.516
218.694	22.467	937.045	752.959
219.709	21.992	936.017	750.040
220.723	21.623	935.198	747.739
221.738	21.824	934.670	748.111
222.753	22.114	934.131	748.850
223.767	22.101	933.595	748.295
224.782	22.187	932.612	747.810
225.796	22.337	932.331	748.157
226.811	22.574	931.461	748.399
227.826	22.209	929.979	745.592
228.840	21.275	928.691	740.539
229.855	21.214	927.971	739.640
230.869	21.452	927.708	740.374
231.884	21.319	926.424	738.717
232.899	21.190	926.007	737.776
233.913	21.945	926.507	741.301
234.928	22.155	925.872	741.613
235.942	22.050	925.442	740.759
236.957	22.086	924.404	740.015
237.972	21.787	923.478	737.949
238.986	21.782	922.583	737.148
240.001	21.887	922.092	737.131
241.015	21.814	921.243	736.082
242.030	21.953	920.952	736.369
243.045	22.008	920.268	735.985
244.059	22.137	919.883	736.152
245.074	22.266	919.499	736.321
246.088	22.055	918.988	734.964
247.103	21.917	917.749	733.333
248.117	21.997	916.865	732.893
249.132	22.399	917.013	734.627
250.147	22.692	916.890	735.683
251.161	22.809	916.260	735.603
252.176	22.934	915.423	735.384
253.190	23.074	915.270	735.779
254.205	23.060	914.383	734.943
255.220	23.152	913.980	734.934
256.234	23.196	913.722	734.846
257.249	23.056	913.010	733.626
258.263	22.974	911.804	732.254
259.278	22.944	911.406	731.747
260.293	22.961	911.075	731.484
261.307	23.238	910.218	731.877
262.322	23.018	909.539	730.357
263.336	22.857	909.069	729.251
264.351	22.403	907.196	725.813
265.366	21.432	905.090	720.068
266.380	20.876	904.183	716.997
267.395	21.821	904.571	721.126
268.409	22.545	904.728	724.164
269.424	22.492	904.327	723.561
270.439	22.739	903.469	723.826
271.453	22.867	903.289	724.144
272.468	22.789	902.544	723.159
273.482	22.919	902.165	723.326
274.497	23.012	901.849	723.392
275.512	22.861	900.910	721.956
276.526	22.401	899.006	718.488
277.541	22.427	898.811	718.375
278.555	22.704	899.061	719.643
279.570	22.665	897.975	718.550
280.585	22.636	896.704	717.351
281.599	22.552	896.756	716.986
282.614	22.775	895.832	717.093
283.628	22.314	894.883	714.396
284.643	21.950	894.052	712.193
285.657	22.234	894.071	713.298
286.672	22.285	893.403	712.907
287.687	21.770	892.363	709.930
288.701	22.080	892.078	710.895
289.716	22.537	891.798	712.456
290.730	22.106	890.728	709.799
291.745	22.045	889.956	708.873
292.760	21.893	889.000	707.440
293.774	21.777	888.756	706.712
294.789	22.737	889.281	710.939
295.803	23.322	889.250	713.206
296.818	23.368	888.533	712.753
297.833	23.506	888.157	712.943
298.847	23.274	887.051	711.059
299.862	22.880	885.828	708.437
300.876	23.141	885.399	709.081
301.891	23.444	884.673	709.649
302.906	23.375	884.693	709.323
303.920	23.049	883.440	706.955
304.935	22.797	882.633	705.238
305.949	23.407	882.069	707.161
306.964	23.288	882.098	706.645
307.979	23.186	881.196	705.456
308.993	22.975	880.832	704.261
310.008	23.364	880.764	705.693
311.022	23.479	879.910	705.403
312.037	23.302	879.451	704.268
313.052	22.939	878.547	702.040
314.066	22.898	878.102	701.461
315.081	22.451	876.164	698.080
316.095	21.698	874.904	694.033
317.110	22.092	875.510	696.011
318.125	23.024	875.878	699.935
319.139	22.631	874.175	696.959
320.154	21.460	872.424	690.881
321.168	21.121	871.512	688.756
322.183	21.662	872.151	691.339
323.197	22.436	872.743	694.802
324.212	22.894	872.172	696.092
325.227	22.873	871.899	695.728
326.241	23.188	871.113	696.282
327.256	23.093	870.481	695.340
328.270	22.999	869.922	694.462
329.285	22.985	868.982	693.596
330.300	22.735	868.289	692.000
331.314	22.446	867.667	690.313
332.329	22.661	866.672	690.301
333.343	23.034	866.608	691.648
334.358	23.172	866.173	691.780
335.373	23.281	865.453	691.570
336.387	23.340	864.973	691.352
337.402	23.542	864.497	691.699
338.416	23.710	864.054	691.940
339.431	23.734	863.595	691.604
340.446	23.706	862.945	690.912
341.460	23.654	863.168	690.827
342.475	23.774	862.232	690.485
343.489	23.358	861.671	688.358
344.504	23.489	860.872	688.166
345.519	23.845	860.656	689.315
346.533	24.030	859.969	689.419
347.548	24.109	859.621	689.384
348.562	24.048	859.366	688.884
349.577	24.041	858.887	688.413
350.592	23.920	857.879	687.076
351.606	24.109	857.372	687.341
352.621	24.024	856.982	686.635
353.635	23.791	856.727	685.475
354.650	23.639	856.071	684.300
355.665	23.478	855.020	682.780
356.679	22.365	853.016	676.842
357.694	22.114	852.606	675.494
358.708	22.847	852.661	678.292
359.723	22.954	851.883	678.026
360.738	23.095	851.953	678.561
361.752	23.496	851.813	679.928
362.767	23.630	851.531	680.156
363.781	23.906	851.340	681.001
364.796	24.265	851.094	682.118
365.810	24.392	850.388	681.978
366.825	24.253	850.170	681.210
367.840	24.278	850.175	681.250
368.854	24.213	849.290	680.231
369.869	23.661	848.307	677.279
370.883	23.704	847.001	676.340
371.898	23.783	846.905	676.507
372.913	23.769	846.052	675.709
373.927	23.672	845.356	674.726
374.942	23.835	845.019	675.015
375.956	23.984	844.446	675.064
376.971	23.945	843.945	674.456
377.986	24.096	843.243	674.407
379.000	24.358	842.949	675.107
380.015	24.405	842.592	674.936
381.029	24.080	841.880	673.078
382.044	24.177	841.122	672.779
383.059	24.264	840.596	672.629
384.073	24.428	839.871	672.606
385.088	24.221	839.683	671.614
386.102	24.343	839.450	671.831
387.117	24.182	838.387	670.314
388.132	24.044	838.098	669.506
389.146	23.883	837.257	668.167
390.161	23.207	836.145	664.684
391.175	23.327	836.282	665.184
392.190	24.005	836.095	667.521
393.205	23.898	835.401	666.507
394.219	23.056	833.482	661.769
395.234	21.516	831.304	654.228
396.248	20.598	830.302	649.951
397.263	21.726	831.337	654.922
398.278	23.506	832.321	662.291
399.292	23.977	832.413	664.066
400.307	23.685	831.859	662.474
401.321	23.541	831.049	661.234
402.336	23.598	831.271	661.567
403.350	23.881	830.861	662.233
404.365	24.356	830.653	663.778
405.380	24.487	830.779	664.309
406.394	25.004	830.277	665.769
407.409	25.032	829.791	665.425
408.423	25.119	829.097	665.132
409.438	24.846	828.630	663.687
410.453	24.962	828.008	663.558
411.467	25.048	827.543	663.445
412.482	25.014	827.390	663.141
413.496	25.037	826.623	662.549
414.511	25.017	826.506	662.326
415.526	25.008	826.041	661.861
416.540	25.051	825.671	661.662
417.555	24.953	825.014	660.717
418.569	24.655	824.065	658.800
419.584	24.504	823.666	657.867
420.599	24.736	823.285	658.361
421.613	147.320	1362.393	1770.481
422.628	128.307	1440.950	1770.622
