DTS Sentinel unit serial number:	SN413079Multiplexer serial number:	ORYXHardware model number:	OX4-SRSoftware version number:	ORYX F/W v4.00 Oryx Data Collector v3.7.2.0data status	okinstallation	princeton_trtdifferential loss correction	single-endedforward channel	channel 3reverse channel	N/Adate	2019/09/10time	23:58:10forward acquisition time	60.00reverse acquisition time	0.00gamma	496.2192k internal	0.2331k external	0.2331temperature offset calibration	0.9922default loss term (dB/km)	0.3790temperature slope calibration	1.0000multiplexer offset coefficient	1.0000multiplexer slope coefficient	1.0000fibre end	0.00T internal ref (°C)	29.44T ext. ref 1 (°C)	-0.29T ext. ref 2 (°C)	23.05length (m)	temperature (°C)	Stokes	anti-Stokes-747.200	-200.000	-0.021	0.354
-746.185	800.000	0.034	0.104
-745.171	505.889	0.139	-0.324
-744.156	166.597	0.082	0.116
-743.142	388.319	0.052	-0.109
-742.127	143.299	0.129	-0.172
-741.112	-22.993	0.090	-0.054
-740.098	-32.404	-0.315	0.177
-739.083	-111.288	-0.158	-0.033
-738.069	116.512	-0.159	0.196
-737.054	225.513	0.066	-0.108
-736.039	-180.175	-0.505	0.011
-735.025	267.949	0.136	0.239
-734.010	116.206	-0.064	-0.079
-732.996	151.193	-0.162	0.221
-731.981	-88.465	-0.285	-0.086
-730.966	590.596	-0.058	0.143
-729.952	-70.518	0.127	-0.048
-728.937	-36.964	-0.263	-0.142
-727.923	210.240	-0.189	-0.298
-726.908	39.380	0.176	-0.158
-725.894	-133.661	0.331	-0.042
-724.879	585.963	-0.045	-0.111
-723.864	-27.994	-0.249	-0.145
-722.850	800.000	-0.114	-0.448
-721.835	721.794	-0.042	0.112
-720.821	527.453	-0.097	-0.230
-719.806	358.257	-0.128	-0.257
-718.791	-200.000	-0.008	-0.102
-717.777	567.375	-0.053	-0.129
-716.762	96.612	0.205	0.236
-715.748	256.420	0.115	0.198
-714.733	137.412	0.125	-0.164
-713.718	9.946	-0.068	0.052
-712.704	4.916	0.273	-0.202
-711.689	-45.140	0.308	-0.154
-710.675	-200.000	-0.043	-0.368
-709.660	-68.743	-0.152	0.059
-708.645	-37.759	0.258	0.138
-707.631	800.000	0.120	-0.487
-706.616	340.921	0.163	-0.320
-705.602	142.583	-0.113	-0.150
-704.587	-79.351	0.287	0.098
-703.572	82.855	-0.014	0.015
-702.558	-118.588	-0.240	-0.043
-701.543	-151.946	-0.476	-0.035
-700.529	-77.567	-0.406	0.142
-699.514	226.505	0.127	-0.208
-698.499	83.525	-0.113	0.124
-697.485	-57.984	0.075	0.033
-696.470	-200.000	-0.055	0.262
-695.456	-109.666	-0.184	-0.039
-694.441	-5.433	0.129	0.089
-693.426	-17.587	-0.181	-0.114
-692.412	-100.027	-0.097	-0.024
-691.397	-200.000	-0.017	-0.121
-690.383	-59.106	-0.250	-0.108
-689.368	-200.000	-0.053	-0.248
-688.354	-24.191	0.077	-0.046
-687.339	-135.301	0.118	-0.014
-686.324	37.981	0.040	0.036
-685.310	800.000	-0.064	-0.241
-684.295	122.566	0.094	-0.118
-683.281	-139.462	0.056	-0.006
-682.266	-30.426	-0.024	0.013
-681.251	89.075	0.124	0.139
-680.237	-200.000	-0.012	0.056
-679.222	10.103	0.172	-0.131
-678.208	-200.000	0.014	0.186
-677.193	127.112	0.096	-0.122
-676.178	-6.148	0.215	0.147
-675.164	-146.100	0.342	0.030
-674.149	-200.000	-0.017	-0.122
-673.135	-62.791	-0.206	-0.086
-672.120	23.463	0.120	0.099
-671.105	-89.464	-0.242	0.071
-670.091	338.803	-0.138	-0.269
-669.076	-111.109	-0.200	-0.041
-668.062	-99.117	0.144	0.037
-667.047	-200.000	-0.043	0.228
-666.032	49.027	-0.101	0.096
-665.018	115.613	-0.084	0.103
-664.003	-130.688	0.221	0.030
-662.989	-146.840	-0.197	-0.017
-661.974	159.230	0.206	-0.287
-660.959	800.000	0.015	0.047
-659.945	315.180	0.148	0.281
-658.930	14.861	0.265	-0.208
-657.916	-21.337	-0.202	0.123
-656.901	314.588	0.134	0.253
-655.886	-121.159	0.230	0.039
-654.872	98.291	0.253	-0.292
-653.857	800.000	0.084	-0.322
-652.843	202.434	0.100	-0.155
-651.828	-200.000	0.003	-0.069
-650.814	-86.727	-0.097	-0.030
-649.799	-140.964	-0.237	0.024
-648.784	247.254	-0.060	-0.101
-647.770	-39.801	0.213	0.111
-646.755	-113.425	0.294	0.058
-645.741	800.000	0.053	-0.164
-644.726	-86.114	-0.135	-0.042
-643.711	-11.303	-0.008	-0.006
-642.697	255.237	0.038	0.065
-641.682	1.328	0.303	-0.218
-640.668	-71.137	-0.149	0.056
-639.653	576.673	0.268	-0.657
-638.638	-116.254	0.198	0.037
-637.624	345.846	-0.175	0.346
-636.609	524.890	-0.145	0.342
-635.595	-53.741	-0.171	0.078
-634.580	136.696	-0.113	-0.147
-633.565	800.000	-0.097	-0.336
-632.551	-73.167	0.178	-0.065
-631.536	800.000	0.073	0.285
-630.522	-200.000	-0.000	-0.004
-629.507	-2.565	-0.245	-0.172
-628.492	-60.062	0.310	0.133
-627.478	-64.553	0.201	0.082
-626.463	-81.902	-0.134	0.044
-625.449	-200.000	0.051	-0.315
-624.434	-200.000	-0.032	0.279
-623.419	-200.000	-0.017	0.414
-622.405	-200.000	-0.034	0.236
-621.390	3.088	0.252	-0.184
-620.376	-0.510	-0.479	-0.340
-619.361	-109.100	0.140	0.030
-618.346	-59.117	0.304	-0.131
-617.332	152.220	0.149	0.204
-616.317	-45.304	0.180	-0.089
-615.303	-81.251	0.265	0.088
-614.288	-189.234	-0.415	0.005
-613.273	127.326	-0.150	0.190
-612.259	-33.329	-0.171	0.095
-611.244	-200.000	-0.063	-0.284
-610.230	-76.064	-0.266	-0.094
-609.215	276.208	0.161	-0.286
-608.201	-74.138	-0.114	0.041
-607.186	170.691	0.181	-0.259
-606.171	-200.000	0.012	-0.192
-605.157	142.607	0.112	-0.149
-604.142	-104.258	-0.242	-0.056
-603.128	-151.996	-0.235	0.017
-602.113	352.094	0.100	-0.199
-601.098	211.585	0.074	-0.117
-600.084	654.455	-0.044	0.114
-599.069	-106.446	0.179	0.040
-598.055	8.924	-0.032	0.024
-597.040	-132.876	0.441	0.056
-596.025	-90.654	-0.185	-0.053
-595.011	-124.094	0.276	-0.043
-593.996	-167.023	-0.322	-0.013
-592.982	800.000	0.127	0.350
-591.967	95.558	0.121	-0.138
-590.952	-117.899	-0.043	-0.008
-589.938	144.713	-0.022	-0.029
-588.923	23.336	-0.182	-0.150
-587.909	-47.755	-0.497	-0.241
-586.894	127.802	-0.122	-0.155
-585.879	61.524	-0.038	0.038
-584.865	-36.041	0.058	0.031
-583.850	-96.827	-0.068	0.018
-582.836	800.000	-0.080	0.269
-581.821	-200.000	-0.024	-0.162
-580.806	634.530	0.099	-0.252
-579.792	-200.000	0.001	-0.039
-578.777	407.207	0.017	0.036
-577.763	-172.704	-0.113	-0.004
-576.748	-200.000	0.032	0.218
-575.733	-200.000	0.017	0.149
-574.719	800.000	0.031	-0.125
-573.704	-108.017	-0.309	0.067
-572.690	-148.798	-0.561	-0.045
-571.675	-200.000	0.015	-0.117
-570.661	3.424	-0.157	0.114
-569.646	35.687	0.073	-0.064
-568.631	328.096	-0.103	-0.197
-567.617	709.587	0.021	0.055
-566.602	-43.852	0.092	0.046
-565.588	-80.933	-0.221	0.073
-564.573	139.123	0.151	-0.199
-563.558	191.642	-0.171	-0.257
-562.544	-200.000	-0.039	-0.450
-561.529	-162.948	-0.426	0.021
-560.515	-61.073	0.267	0.113
-559.500	-200.000	0.022	0.248
-558.485	271.744	0.204	-0.359
-557.471	315.754	0.229	0.431
-556.456	10.046	0.030	0.023
-555.442	389.426	-0.138	0.285
-554.427	11.731	-0.215	-0.165
-553.412	-129.779	0.238	-0.033
-552.398	-90.964	0.066	0.019
-551.383	-73.911	-0.175	-0.063
-550.369	-3.839	-0.109	-0.076
-549.354	-19.589	-0.148	-0.091
-548.339	-43.306	0.125	-0.063
-547.325	-126.542	-0.160	-0.024
-546.310	-200.000	0.002	0.083
-545.296	6.113	-0.280	-0.207
-544.281	-71.462	-0.292	0.109
-543.266	-127.312	0.227	-0.033
-542.252	29.740	0.189	-0.161
-541.237	188.638	-0.096	-0.144
-540.223	-64.367	-0.221	0.090
-539.208	-200.000	-0.010	0.132
-538.193	-76.179	-0.159	-0.056
-537.179	252.268	0.061	-0.103
-536.164	-120.499	-0.359	-0.061
-535.150	-40.047	0.152	-0.079
-534.135	60.953	0.247	0.245
-533.121	-200.000	0.030	-0.433
-532.106	790.846	0.028	-0.076
-531.091	563.547	0.049	-0.119
-530.077	-126.537	0.194	0.029
-529.062	-168.159	-0.110	-0.004
-528.048	80.817	-0.238	0.256
-527.033	339.590	0.084	0.164
-526.018	506.011	-0.091	-0.210
-525.004	800.000	0.035	0.145
-523.989	0.103	-0.075	-0.053
-522.975	-200.000	0.039	-0.174
-521.960	104.425	0.174	-0.205
-520.945	800.000	-0.017	0.073
-519.931	800.000	-0.075	-0.241
-518.916	130.698	-0.050	0.064
-517.902	5.587	-0.093	0.069
-516.887	-11.565	-0.239	-0.157
-515.872	-200.000	0.007	0.258
-514.858	96.400	-0.186	-0.212
-513.843	195.786	-0.072	-0.109
-512.829	-175.623	0.120	-0.003
-511.814	296.223	-0.163	0.297
-510.799	534.703	-0.102	-0.240
-509.785	-46.893	0.115	0.056
-508.770	800.000	-0.017	0.059
-507.756	170.253	0.055	-0.079
-506.741	800.000	-0.038	-0.121
-505.726	800.000	0.093	-0.306
-504.712	-174.727	0.094	-0.003
-503.697	61.865	-0.142	-0.141
-502.683	257.472	-0.066	0.113
-501.668	-188.461	-0.113	0.001
-500.653	-197.002	0.073	0.000
-499.639	429.588	-0.112	0.241
-498.624	95.206	0.065	0.074
-497.610	-28.481	-0.174	-0.100
-496.595	-53.788	-0.256	-0.116
-495.581	19.646	-0.173	-0.139
-494.566	-139.608	-0.166	0.018
-493.551	-110.589	0.200	-0.041
-492.537	800.000	-0.070	-0.253
-491.522	-110.342	-0.089	-0.018
-490.508	-139.768	0.068	0.007
-489.493	-200.000	-0.010	0.069
-488.478	-131.433	-0.200	-0.026
-487.464	252.326	0.146	0.249
-486.449	501.318	-0.116	-0.267
-485.435	-200.000	-0.025	0.120
-484.420	140.610	0.181	-0.238
-483.405	108.685	-0.359	-0.427
-482.391	164.979	0.340	0.478
-481.376	77.311	0.026	-0.027
-480.362	-167.738	-0.244	-0.010
-479.347	370.102	-0.121	0.244
-478.332	104.144	-0.211	0.247
-477.318	197.214	0.204	0.310
-476.303	-129.938	-0.497	0.068
-475.289	-77.195	0.385	-0.134
-474.274	102.294	0.210	-0.245
-473.259	-101.798	-0.187	0.045
-472.245	-94.983	-0.419	-0.113
-471.230	-148.236	0.218	-0.018
-470.216	584.670	0.147	-0.359
-469.201	-61.120	-0.384	0.161
-468.186	553.934	-0.156	0.374
-467.172	383.709	0.060	0.123
-466.157	32.090	-0.104	0.089
-465.143	-200.000	-0.017	-0.091
-464.128	-200.000	-0.008	0.178
-463.113	-95.697	-0.075	0.020
-462.099	-95.900	0.362	0.096
-461.084	-200.000	-0.098	0.451
-460.070	96.778	-0.063	-0.071
-459.055	-155.887	0.100	-0.006
-458.040	205.891	-0.039	-0.060
-457.026	-14.498	-0.093	0.059
-456.011	-64.602	0.215	0.087
-454.997	245.807	0.151	-0.252
-453.982	429.242	0.038	-0.082
-452.968	122.344	-0.261	-0.325
-451.953	800.000	-0.115	-0.375
-450.938	333.088	-0.004	-0.008
-449.924	345.866	0.141	0.275
-448.909	401.461	0.136	0.285
-447.895	-87.420	-0.252	-0.076
-446.880	-200.000	0.000	-0.133
-445.865	-65.741	0.079	0.031
-444.851	-196.903	-0.102	0.001
-443.836	52.088	0.176	-0.167
-442.822	-21.366	0.225	0.137
-441.807	221.077	-0.084	-0.135
-440.792	800.000	0.149	0.518
-439.778	92.649	0.222	0.250
-438.763	358.293	-0.087	0.174
-437.749	110.852	0.022	0.027
-436.734	-142.812	-0.284	-0.028
-435.719	70.802	-0.189	0.194
-434.705	-69.795	-0.026	-0.010
-433.690	-22.886	0.233	-0.140
-432.676	-145.726	-0.145	0.013
-431.661	-16.846	-0.220	0.138
-430.646	149.578	0.083	-0.112
-429.632	512.411	0.036	0.083
-428.617	-200.000	0.010	-0.174
-427.603	221.447	-0.094	-0.150
-426.588	-74.357	0.093	0.033
-425.573	800.000	-0.062	0.242
-424.559	-200.000	0.009	0.150
-423.544	-200.000	-0.012	0.073
-422.530	-44.746	0.190	0.094
-421.515	800.000	-0.085	-0.286
-420.500	314.659	0.129	-0.241
-419.486	-12.099	0.369	-0.240
-418.471	-114.961	-0.313	0.059
-417.457	-87.992	-0.169	0.050
-416.442	-20.668	0.088	0.054
-415.428	32.390	-0.159	0.137
-414.413	-200.000	-0.035	-0.465
-413.398	-91.832	0.154	0.043
-412.384	-152.804	0.144	-0.010
-411.369	-168.362	-0.267	-0.010
-410.355	800.000	0.073	0.215
-409.340	760.119	0.061	0.163
-408.325	-144.153	-0.076	0.007
-407.311	92.129	0.207	-0.232
-406.296	205.142	0.276	0.426
-405.282	-200.000	0.013	0.410
-404.267	80.353	-0.136	-0.146
-403.252	-54.673	0.342	0.154
-402.238	79.656	-0.176	0.188
-401.223	-94.216	-0.214	-0.058
-400.209	22.822	-0.091	-0.074
-399.194	726.398	0.090	-0.239
-398.179	323.905	-0.167	0.317
-397.165	-7.414	-0.178	-0.120
-396.150	0.379	0.286	-0.203
-395.136	-143.712	-0.167	0.016
-394.121	44.355	-0.084	-0.077
-393.106	-200.000	-0.023	-0.406
-392.092	88.220	-0.129	0.142
-391.077	-200.000	-0.009	0.090
-390.063	-111.186	0.421	0.085
-389.048	90.434	-0.140	0.155
-388.033	-200.000	-0.036	0.292
-387.019	-125.610	0.264	-0.040
-386.004	-200.000	-0.070	0.433
-384.990	-200.000	0.007	-0.231
-383.975	-141.655	-0.137	0.014
-382.960	163.217	-0.146	-0.204
-381.946	91.326	0.120	-0.133
-380.931	-44.431	0.424	-0.210
-379.917	160.499	0.094	0.130
-378.902	52.519	0.266	0.252
-377.888	800.000	0.027	-0.111
-376.873	23.226	-0.341	0.278
-375.858	-80.382	-0.283	0.094
-374.844	43.746	0.133	0.121
-373.829	-4.602	-0.126	0.086
-372.815	26.255	0.255	-0.211
-371.800	-200.000	-0.094	-0.434
-370.785	-65.076	0.432	0.173
-369.771	-106.586	0.453	0.100
-368.756	278.334	0.068	0.120
-367.742	-52.497	-0.089	-0.041
-366.727	-131.270	0.051	-0.007
-365.712	16.624	-0.208	0.163
-364.698	261.377	0.198	0.340
-363.683	800.000	0.084	-0.298
-362.669	-39.833	-0.256	-0.133
-361.654	55.167	0.313	-0.300
-360.639	-83.232	-0.134	0.043
-359.625	-93.158	0.285	0.079
-358.610	-139.383	0.182	-0.019
-357.596	340.655	0.057	-0.111
-356.581	-200.000	0.019	-0.132
-355.566	-200.000	0.053	-0.265
-354.552	-25.024	0.225	-0.132
-353.537	224.317	0.098	-0.157
-352.523	162.682	-0.124	0.172
-351.508	-68.334	-0.168	-0.065
-350.493	800.000	-0.019	0.054
-349.479	-71.375	-0.247	-0.092
-348.464	-41.049	-0.199	-0.102
-347.450	-124.935	-0.287	-0.044
-346.435	-138.182	-0.344	-0.038
-345.420	94.796	0.161	0.182
-344.406	50.729	0.260	0.244
-343.391	-200.000	-0.052	0.259
-342.377	-62.389	0.145	-0.060
-341.362	134.385	0.166	0.214
-340.348	-149.125	-0.232	0.018
-339.333	800.000	0.092	-0.254
-338.318	-81.803	-0.316	0.103
-337.304	800.000	-0.100	0.312
-336.289	91.240	-0.131	-0.146
-335.275	75.603	0.043	0.045
-334.260	-162.054	0.279	-0.014
-333.245	133.842	-0.223	-0.285
-332.231	-150.337	-0.057	0.004
-331.216	-109.481	0.061	0.013
-330.202	-138.310	0.142	-0.016
-329.187	-123.223	0.330	-0.052
-328.172	800.000	0.032	-0.118
-327.158	-27.592	-0.270	-0.155
-326.143	29.172	0.108	0.091
-325.129	540.515	0.102	0.240
-324.114	-167.922	-0.259	-0.010
-323.099	-7.273	-0.232	0.156
-322.085	800.000	-0.057	0.215
-321.070	45.044	-0.176	-0.160
-320.056	551.585	-0.042	-0.101
-319.041	-37.767	-0.331	0.175
-318.026	202.545	0.070	0.107
-317.012	-170.162	-0.125	0.004
-315.997	-200.000	0.003	-0.264
-314.983	84.331	0.258	-0.280
-313.968	-200.000	0.017	0.090
-312.953	-200.000	-0.008	0.223
-311.939	-103.057	0.259	-0.061
-310.924	800.000	-0.090	0.253
-309.910	-78.594	0.272	-0.092
-308.895	360.635	-0.131	-0.260
-307.880	-200.000	-0.052	0.339
-306.866	-12.257	-0.290	0.188
-305.851	-106.080	-0.081	0.018
-304.837	-176.280	-0.181	0.005
-303.822	-54.763	0.311	-0.139
-302.807	67.216	-0.079	-0.079
-301.793	-26.232	0.199	0.116
-300.778	800.000	0.092	0.369
-299.764	72.596	0.031	0.032
-298.749	132.940	0.128	-0.163
-297.735	-16.289	-0.110	0.069
-296.720	-151.206	0.065	-0.005
-295.705	219.177	0.093	0.147
-294.691	680.905	0.047	0.121
-293.676	-128.667	-0.404	-0.056
-292.662	55.201	-0.227	0.217
-291.647	-152.203	-0.133	0.010
-290.632	-63.194	-0.150	-0.061
-289.618	-74.403	0.255	0.091
-288.603	285.794	-0.046	0.082
-287.589	-36.809	0.193	0.102
-286.574	141.955	0.066	0.087
-285.559	66.186	-0.214	-0.215
-284.545	800.000	-0.045	0.139
-283.530	-159.941	0.397	-0.021
-282.516	800.000	0.084	-0.292
-281.501	460.719	0.065	-0.143
-280.486	38.943	0.227	-0.200
-279.472	-200.000	-0.017	0.304
-278.457	-200.000	0.022	0.178
-277.443	-52.127	0.375	-0.172
-276.428	176.514	-0.181	0.261
-275.413	-128.223	0.135	0.019
-274.399	-200.000	-0.042	-0.229
-273.384	-60.384	-0.203	-0.085
-272.370	461.012	-0.122	-0.269
-271.355	223.373	-0.154	-0.246
-270.340	249.368	-0.043	0.073
-269.326	-46.661	0.308	0.149
-268.311	800.000	-0.042	-0.140
-267.297	-93.388	0.062	-0.017
-266.282	-8.901	-0.055	0.036
-265.267	161.752	0.115	-0.159
-264.253	-86.301	-0.268	0.081
-263.238	84.029	-0.109	0.117
-262.224	22.593	0.149	-0.121
-261.209	-190.589	0.240	0.003
-260.195	-183.415	-0.385	-0.007
-259.180	-200.000	-0.011	-0.146
-258.165	648.976	-0.092	-0.233
-257.151	-51.247	0.223	-0.103
-256.136	59.587	0.254	-0.247
-255.122	43.237	0.055	0.049
-254.107	-43.407	0.085	-0.042
-253.092	-131.692	-0.253	0.033
-252.078	-3.010	-0.173	-0.119
-251.063	-200.000	0.028	0.233
-250.049	-12.250	-0.244	0.158
-249.034	-42.761	0.380	-0.191
-248.019	116.814	-0.061	0.074
-247.005	-10.292	0.053	0.034
-245.990	180.695	-0.097	-0.141
-244.976	-200.000	-0.003	0.037
-243.961	350.940	-0.089	-0.173
-242.946	800.000	-0.149	0.504
-241.932	2.831	0.186	0.134
-240.917	-35.852	0.448	-0.239
-239.903	16.340	-0.116	-0.091
-238.888	-200.000	-0.009	0.056
-237.873	-161.084	-0.355	-0.018
-236.859	96.131	-0.206	0.232
-235.844	78.926	0.133	0.140
-234.830	800.000	-0.096	0.264
-233.815	800.000	-0.077	0.257
-232.800	800.000	0.038	0.158
-231.786	208.142	-0.134	0.207
-230.771	-117.033	0.326	-0.059
-229.757	-86.367	0.158	-0.048
-228.742	83.780	-0.112	0.121
-227.727	-138.478	0.215	0.023
-226.713	-200.000	-0.027	0.202
-225.698	368.148	0.158	0.314
-224.684	779.442	-0.097	0.262
-223.669	800.000	-0.086	-0.247
-222.655	-200.000	-0.003	0.169
-221.640	800.000	0.093	0.346
-220.625	-200.000	0.045	0.271
-219.611	22.576	-0.069	0.055
-218.596	93.162	0.249	0.277
-217.582	558.395	-0.067	0.159
-216.567	463.444	-0.079	0.173
-215.552	-106.270	0.195	0.043
-214.538	800.000	0.062	0.242
-213.523	193.895	0.289	0.432
-212.509	92.636	-0.130	-0.144
-211.494	-26.658	-0.051	-0.030
-210.479	39.747	0.123	-0.109
-209.465	-200.000	0.131	0.000
-208.450	115.241	-0.091	-0.110
-207.436	19.751	0.162	-0.129
-206.421	285.348	0.091	0.161
-205.406	66.729	-0.188	-0.189
-204.392	320.461	-0.148	-0.277
-203.377	-97.287	-0.262	-0.067
-202.363	194.116	-0.085	0.127
-201.348	597.691	-0.057	-0.138
-200.333	-1.571	0.114	0.079
-199.319	-200.000	0.004	0.056
-198.304	-102.291	-0.382	0.090
-197.290	-200.000	-0.006	-0.253
-196.275	-135.598	0.339	-0.040
-195.260	-200.000	0.036	0.189
-194.246	-200.000	-0.023	-0.153
-193.231	725.625	0.164	-0.430
-192.217	-200.000	-0.003	-0.329
-191.202	-159.239	0.240	-0.013
-190.187	-68.797	0.372	-0.142
-189.173	185.321	0.234	0.343
-188.158	-200.000	0.063	-0.273
-187.144	-200.000	-0.005	0.071
-186.129	-91.861	0.510	-0.142
-185.114	-114.208	0.255	-0.048
-184.100	551.787	-0.105	-0.249
-183.085	800.000	0.091	0.313
-182.071	-59.130	0.376	0.160
-181.056	93.111	-0.118	0.131
-180.042	-200.000	0.063	0.312
-179.027	-36.593	-0.332	0.176
-178.012	18.507	0.183	0.144
-176.998	-14.963	0.475	-0.300
-175.983	92.459	-0.082	0.091
-174.969	-107.157	0.138	-0.030
-173.954	-90.413	0.191	0.054
-172.939	-32.650	0.093	-0.051
-171.925	163.923	0.016	0.023
-170.910	125.952	0.228	0.284
-169.896	-200.000	0.001	-0.263
-168.881	-143.559	-0.338	-0.032
-167.866	-200.000	-0.005	-0.231
-166.852	-200.000	-0.043	-0.217
-165.837	83.662	-0.303	-0.325
-164.823	-104.414	0.205	0.047
-163.808	800.000	-0.044	0.124
-162.793	-13.981	0.093	-0.059
-161.779	46.185	0.125	0.113
-160.764	800.000	0.072	0.263
-159.750	800.000	-0.062	-0.208
-158.735	605.473	0.152	-0.374
-157.720	-146.583	-0.427	0.037
-156.706	94.820	-0.116	-0.129
-155.691	27.543	0.076	-0.063
-154.677	11.102	0.195	0.147
-153.662	26.049	0.163	0.134
-152.647	-30.695	-0.054	-0.030
-151.633	27.880	0.157	-0.130
-150.618	-104.133	-0.245	-0.056
-149.604	-200.000	-0.026	0.143
-148.589	-59.770	-0.160	0.067
-147.574	93.664	0.189	-0.211
-146.560	106.497	-0.331	-0.386
-145.545	199.155	0.122	-0.183
-144.531	-200.000	-0.045	0.281
-143.516	800.000	0.055	-0.219
-142.502	-11.995	-0.084	0.054
-141.487	-72.504	0.200	0.073
-140.472	44.267	-0.190	-0.171
-139.458	352.679	0.114	0.221
-138.443	-96.591	-0.252	-0.065
-137.429	-200.000	0.032	0.234
-136.414	1.761	-0.092	0.065
-135.399	-91.551	0.147	-0.041
-134.385	92.754	-0.150	0.166
-133.370	35.713	-0.277	0.239
-132.356	-105.627	-0.354	0.079
-131.341	-200.000	0.002	-0.058
-130.326	210.334	0.056	-0.087
-129.312	62.127	0.117	-0.115
-128.297	-80.811	-0.353	0.115
-127.283	-95.872	0.316	-0.083
-126.268	-127.302	-0.081	-0.012
-125.253	103.380	0.184	-0.212
-124.239	85.482	0.177	0.191
-123.224	-168.220	0.432	-0.016
-122.210	-86.738	-0.095	0.029
-121.195	-86.689	0.220	0.066
-120.180	800.000	0.060	-0.177
-119.166	232.705	0.070	-0.114
-118.151	-200.000	-0.011	-0.149
-117.137	179.791	-0.148	-0.213
-116.122	54.225	0.181	0.171
-115.107	-200.000	-0.012	0.276
-114.093	387.809	-0.181	-0.367
-113.078	-149.678	0.083	0.006
-112.064	52.697	-0.162	0.152
-111.049	45.533	0.027	-0.024
-110.034	92.297	0.071	0.079
-109.020	-200.000	-0.029	-0.370
-108.005	-200.000	-0.035	0.223
-106.991	-174.765	0.079	-0.002
-105.976	-164.052	-0.340	-0.016
-104.962	20.586	-0.092	0.073
-103.947	-200.000	-0.000	-0.303
-102.932	800.000	-0.047	0.144
-101.918	-200.000	0.077	-0.360
-100.903	-200.000	0.177	0.000
-99.889	524.505	-0.085	0.196
-98.874	-11.453	0.164	0.106
-97.859	-183.700	0.217	0.004
-96.845	27.311	0.324	-0.268
-95.830	225.208	0.214	-0.340
-94.816	-61.437	-0.099	-0.041
-93.801	274.791	-0.104	-0.180
-92.786	-6.869	0.083	0.056
-91.772	169.293	0.109	0.152
-90.757	39.437	-0.313	-0.275
-89.743	21.123	-0.201	-0.160
-88.728	-115.760	-0.196	0.036
-87.713	59.030	-0.184	0.178
-86.699	-200.000	-0.011	0.337
-85.684	724.515	0.152	0.399
-84.670	-85.513	0.104	-0.032
-83.655	670.035	0.053	-0.134
-82.640	302.181	0.086	-0.157
-81.626	-188.025	-0.171	-0.002
-80.611	-89.473	0.061	-0.017
-79.597	49.016	0.219	0.202
-78.582	-93.358	-0.454	0.124
-77.567	-168.700	0.306	-0.011
-76.553	475.434	0.031	-0.068
-75.538	477.318	0.107	-0.237
-74.524	-69.079	0.231	-0.087
-73.509	16.889	0.016	-0.013
-72.494	-88.121	0.338	0.099
-71.480	-68.027	0.328	-0.126
-70.465	16.804	0.222	-0.172
-69.451	-147.324	0.183	0.015
-68.436	312.872	-0.125	0.231
-67.422	400.980	0.161	0.331
-66.407	-55.864	-0.251	0.110
-65.392	-78.469	0.274	0.092
-64.378	-200.000	-0.014	0.173
-63.363	-51.004	-0.083	0.038
-62.349	403.847	0.109	-0.226
-61.334	106.102	-0.846	-0.982
-60.319	551.055	0.287	0.674
-59.305	800.000	-0.283	-1.133
-58.290	147.914	0.856	1.130
-57.276	800.000	0.510	1.541
-56.261	-200.000	106.031	623.766
-55.246	525.492	1503.562	3467.802
-54.232	177.473	2693.461	3844.390
-53.217	110.866	2177.129	2567.047
-52.203	39.926	1701.020	1496.519
-51.188	32.603	1513.129	1281.580
-50.173	30.182	1486.758	1242.986
-49.159	51.416	1542.474	1435.181
-48.144	51.467	1559.230	1451.062
-47.130	32.664	1515.632	1283.907
-46.115	29.670	1500.783	1251.049
-45.100	29.611	1496.661	1247.161
-44.086	29.484	1494.616	1244.557
-43.071	29.438	1492.354	1242.311
-42.057	29.368	1491.034	1240.695
-41.042	29.353	1489.532	1239.296
-40.027	29.389	1488.306	1238.464
-39.013	29.476	1486.130	1237.192
-37.998	29.346	1485.436	1235.693
-36.984	29.389	1484.264	1234.955
-35.969	29.348	1482.843	1233.449
-34.954	29.385	1481.703	1232.702
-33.940	29.316	1480.559	1231.235
-32.925	29.423	1478.703	1230.361
-31.911	29.502	1477.438	1229.787
-30.896	29.505	1476.246	1228.765
-29.881	29.523	1475.019	1227.813
-28.867	29.491	1473.406	1226.211
-27.852	29.459	1472.401	1225.110
-26.838	29.593	1470.832	1224.648
-25.823	29.448	1469.216	1222.293
-24.809	29.458	1467.575	1220.941
-23.794	29.458	1466.309	1219.839
-22.779	29.557	1464.850	1219.235
-21.765	29.461	1464.541	1218.296
-20.750	29.521	1463.006	1217.367
-19.736	29.504	1461.933	1216.310
-18.721	29.485	1460.762	1215.161
-17.706	29.385	1459.816	1213.669
-16.692	29.544	1458.149	1213.282
-15.677	29.560	1457.213	1212.559
-14.663	29.389	1456.832	1211.071
-13.648	29.422	1455.436	1210.080
-12.633	29.391	1454.612	1209.143
-11.619	29.305	1454.302	1208.275
-10.604	29.366	1453.410	1207.886
-9.590	29.442	1452.092	1207.238
-8.575	29.374	1451.386	1206.159
-7.560	29.387	1450.295	1205.286
-6.546	29.442	1449.621	1205.042
-5.531	29.444	1448.692	1204.232
-4.517	29.326	1448.311	1203.101
-3.502	29.388	1446.623	1202.056
-2.487	29.450	1445.539	1201.511
-1.473	29.431	1444.890	1200.801
-0.458	29.378	1443.262	1199.050
0.556	27.156	1433.807	1187.803
1.571	24.146	1408.394	1147.291
2.586	20.689	1348.121	1076.740
3.600	19.238	1266.416	1002.957
4.615	18.190	1222.278	962.021
5.629	15.639	1167.802	905.340
6.644	7.618	1084.344	800.301
7.659	0.716	1045.126	737.686
8.673	-0.117	1039.063	729.301
9.688	-0.226	1035.883	726.476
10.702	-0.502	1034.151	723.862
11.717	-0.325	1032.299	723.356
12.731	2.538	1035.417	739.311
13.746	11.220	1047.309	789.977
14.761	18.008	1056.280	829.752
15.775	19.777	1057.980	839.610
16.790	19.929	1057.618	839.985
17.804	19.734	1056.921	838.412
18.819	19.659	1055.498	836.844
19.834	19.678	1055.462	836.836
20.848	19.909	1054.659	837.239
21.863	19.938	1054.475	837.162
22.877	19.814	1053.837	835.979
23.892	19.732	1053.489	835.236
24.907	19.653	1052.593	834.070
25.921	19.893	1051.815	834.537
26.936	19.874	1050.935	833.676
27.950	19.809	1049.839	832.416
28.965	19.959	1048.149	831.724
29.980	19.655	1046.983	829.266
30.994	19.608	1045.514	827.802
32.009	19.845	1044.618	828.156
33.023	19.899	1044.451	828.208
34.038	19.693	1042.862	825.891
35.053	19.667	1042.053	825.052
36.067	19.784	1041.565	825.153
37.082	19.807	1041.152	824.862
38.096	19.914	1039.943	824.342
39.111	20.039	1039.043	824.149
40.126	20.065	1038.205	823.535
41.140	19.982	1037.072	822.170
42.155	19.791	1035.150	819.666
43.169	19.425	1034.029	816.974
44.184	19.526	1032.980	816.549
45.199	19.585	1032.006	815.989
46.213	19.453	1031.025	814.517
47.228	19.477	1029.994	813.745
48.242	19.637	1029.125	813.739
49.257	19.709	1027.989	813.108
50.271	19.753	1027.468	812.830
51.286	19.863	1026.565	812.559
52.301	19.799	1025.985	811.727
53.315	19.890	1024.971	811.282
54.330	19.763	1024.409	810.169
55.344	19.798	1023.370	809.442
56.359	19.806	1022.797	808.952
57.374	19.745	1021.569	807.626
58.388	19.726	1020.428	806.564
59.403	19.669	1020.074	805.946
60.417	19.610	1019.218	804.925
61.432	19.489	1018.317	803.575
62.447	19.527	1017.498	803.036
63.461	19.673	1016.924	803.193
64.476	19.722	1016.215	802.787
65.490	19.705	1015.291	801.910
66.505	19.584	1013.843	800.133
67.520	19.521	1013.602	799.580
68.534	19.659	1012.655	799.402
69.549	19.643	1011.574	798.406
70.563	19.289	1010.312	795.704
71.578	19.124	1009.493	794.227
72.593	19.274	1008.677	794.203
73.607	19.184	1007.443	792.748
74.622	19.259	1006.034	791.915
75.636	19.466	1005.547	792.412
76.651	19.429	1005.396	792.054
77.666	19.442	1004.347	791.216
78.680	19.310	1003.451	789.837
79.695	19.354	1003.028	789.632
80.709	19.407	1002.753	789.590
81.724	19.680	1001.518	789.795
82.739	19.521	1000.488	788.188
83.753	19.450	999.574	787.073
84.768	19.745	998.825	787.759
85.782	20.013	998.295	788.490
86.797	20.043	997.976	788.306
87.812	20.010	996.659	787.046
88.826	19.875	995.715	785.617
89.841	19.926	994.826	785.079
90.855	20.124	993.423	784.801
91.870	19.985	993.370	784.058
92.884	20.037	991.993	783.137
93.899	19.876	991.257	781.758
94.914	19.810	990.190	780.553
95.928	20.064	989.401	781.004
96.943	20.055	988.497	780.184
97.957	19.813	987.267	778.051
98.972	19.611	986.159	776.203
99.987	19.312	985.378	774.177
101.001	19.404	984.804	774.073
102.016	19.785	984.054	775.123
103.030	19.892	982.837	774.574
104.045	19.710	981.732	772.818
105.060	19.535	980.667	771.130
106.074	19.286	979.727	769.214
107.089	19.491	978.688	769.244
108.103	19.810	978.572	770.506
109.118	19.977	977.500	770.334
110.133	19.618	976.400	767.806
111.147	19.711	975.218	767.223
112.162	19.670	974.050	766.054
113.176	19.310	972.776	763.388
114.191	19.428	972.142	763.345
115.206	19.522	971.270	763.011
116.220	19.330	969.578	760.766
117.235	19.239	968.740	759.637
118.249	19.165	968.483	759.045
119.264	19.387	967.669	759.316
120.279	19.279	966.255	757.667
121.293	19.385	965.273	757.296
122.308	19.410	965.277	757.339
123.322	19.339	964.273	756.174
124.337	19.362	963.399	755.524
125.352	19.449	961.341	754.221
126.366	19.014	959.772	751.027
127.381	18.700	958.959	748.955
128.395	19.198	958.291	750.534
129.410	19.636	958.080	752.210
130.424	19.892	956.872	752.311
131.439	19.945	955.840	751.662
132.454	19.674	955.199	749.917
133.468	19.678	954.503	749.321
134.483	19.668	953.583	748.488
135.497	19.688	953.017	748.065
136.512	19.837	952.314	748.089
137.527	20.058	951.140	748.058
138.541	20.005	950.345	747.135
139.556	20.040	949.689	746.705
140.570	20.009	948.997	745.962
141.585	20.129	947.905	745.554
142.600	20.112	946.952	744.667
143.614	19.975	946.340	743.530
144.629	20.053	945.972	743.510
145.643	20.280	944.813	743.505
146.658	20.170	943.784	742.161
147.673	20.134	942.519	740.946
148.687	19.946	941.627	739.376
149.702	19.893	940.457	738.168
150.716	19.835	939.740	737.289
151.731	19.857	938.582	736.411
152.746	19.913	937.623	735.833
153.760	20.157	937.044	736.347
154.775	20.209	936.535	736.103
155.789	20.145	935.335	734.822
156.804	20.192	934.544	734.336
157.819	20.137	933.298	733.061
158.833	20.104	932.654	732.348
159.848	20.158	931.996	731.994
160.862	20.317	930.978	731.803
161.877	19.989	930.476	729.962
162.892	20.094	929.108	729.265
163.906	20.283	928.327	729.383
164.921	20.218	927.923	728.727
165.935	20.205	926.409	727.420
166.950	20.237	925.466	726.748
167.964	20.200	924.223	725.554
168.979	20.286	923.007	724.893
169.994	20.125	922.400	723.680
171.008	19.844	921.698	721.891
172.023	20.100	920.823	722.212
173.037	20.224	919.613	721.713
174.052	20.022	918.266	719.754
175.067	19.781	917.946	718.437
176.081	19.912	916.811	718.029
177.096	19.832	917.109	717.866
178.110	19.926	915.750	717.129
179.125	19.927	913.950	715.660
180.140	19.627	913.263	713.821
181.154	19.697	912.351	713.333
182.169	19.615	912.159	712.781
183.183	19.827	911.538	713.109
184.198	20.207	911.029	714.210
185.213	20.078	910.650	713.322
186.227	19.996	910.039	712.441
187.242	20.057	909.205	711.976
188.256	20.263	908.165	711.943
189.271	20.097	907.722	710.854
190.286	20.221	906.834	710.602
191.300	20.148	905.965	709.560
192.315	19.516	905.172	706.292
193.329	18.878	903.652	702.435
194.344	18.640	902.157	700.239
195.359	19.234	902.457	702.835
196.373	19.925	902.867	705.909
197.388	20.304	902.123	706.810
198.402	20.005	901.663	705.172
199.417	19.993	900.845	704.418
200.432	19.965	900.751	704.171
201.446	19.806	899.811	702.728
202.461	19.574	898.794	700.928
203.475	19.682	898.511	701.085
204.490	19.363	896.304	698.010
205.504	17.988	894.870	691.269
206.519	18.551	895.160	693.710
207.534	19.574	895.305	697.898
208.548	19.723	894.257	697.620
209.563	19.938	894.392	698.532
210.577	20.041	893.513	698.200
211.592	19.851	892.323	696.443
212.607	20.221	892.400	697.930
213.621	20.158	892.049	697.341
214.636	20.088	891.578	696.631
215.650	20.341	890.757	696.943
216.665	20.322	889.757	696.021
217.680	20.209	889.665	695.435
218.694	20.375	889.441	695.866
219.709	19.863	888.042	692.659
220.723	19.692	886.990	691.093
221.738	19.785	886.836	691.286
222.753	20.028	886.321	691.794
223.767	19.991	885.382	690.850
224.782	20.106	884.515	690.571
225.796	20.160	883.829	690.189
226.811	20.371	883.574	690.769
227.826	19.984	882.105	688.022
228.840	19.168	880.729	683.651
229.855	19.145	880.126	683.032
230.869	19.318	879.863	683.452
231.884	19.243	878.615	682.124
232.899	19.226	878.228	681.697
233.913	19.939	878.213	684.446
234.928	20.132	877.802	684.827
235.942	19.898	877.339	683.479
236.957	20.061	876.810	683.650
237.972	19.890	875.577	681.956
238.986	19.651	874.771	680.326
240.001	19.808	874.239	680.471
241.015	19.837	873.732	680.130
242.030	19.778	873.114	679.357
243.045	20.010	872.572	679.784
244.059	19.979	872.288	679.381
245.074	20.197	871.449	679.525
246.088	20.129	870.657	678.580
247.103	19.768	869.839	676.470
248.117	19.724	869.301	675.820
249.132	20.338	869.172	678.058
250.147	20.562	868.674	678.485
251.161	20.602	868.102	678.133
252.176	20.947	867.438	678.899
253.190	20.905	866.702	678.099
254.205	20.823	866.275	677.385
255.220	21.171	865.469	678.048
256.234	21.136	864.955	677.450
257.249	20.965	864.634	676.475
258.263	20.782	863.549	674.856
259.278	20.945	862.946	674.957
260.293	20.917	862.966	674.805
261.307	20.985	861.757	674.062
262.322	20.770	861.123	672.675
263.336	20.635	860.649	671.726
264.351	20.251	858.859	668.790
265.366	19.163	856.791	662.931
266.380	18.708	856.594	660.972
267.395	19.710	856.612	664.782
268.409	20.499	857.102	668.137
269.424	20.437	856.259	667.184
270.439	20.557	855.717	667.161
271.453	20.680	855.130	667.117
272.468	20.647	854.731	666.622
273.482	20.755	854.052	666.445
274.497	21.008	853.420	666.860
275.512	20.759	852.678	665.273
276.526	20.369	851.042	662.448
277.541	20.507	850.772	662.706
278.555	20.872	850.270	663.645
279.570	20.645	849.697	662.275
280.585	20.401	848.821	660.605
281.599	20.360	848.424	660.082
282.614	20.599	848.026	660.622
283.628	20.294	846.936	658.560
284.643	19.958	846.384	656.797
285.657	20.238	846.188	657.647
286.672	20.216	845.323	656.835
287.687	19.771	844.407	654.381
288.701	20.102	844.207	655.421
289.716	20.464	843.771	656.391
290.730	20.007	843.163	654.134
291.745	19.914	842.803	653.448
292.760	19.680	841.542	651.529
293.774	19.773	840.868	651.299
294.789	20.599	841.113	654.542
295.803	21.116	841.268	656.552
296.818	21.091	840.917	656.124
297.833	21.284	840.373	656.366
298.847	21.009	838.967	654.178
299.862	20.775	838.020	652.506
300.876	20.927	837.736	652.796
301.891	21.249	837.258	653.574
302.906	21.306	836.448	653.094
303.920	20.938	835.107	650.617
304.935	20.655	834.850	649.303
305.949	20.966	834.751	650.330
306.964	21.239	834.183	650.847
307.979	21.051	833.143	649.279
308.993	21.037	832.807	648.905
310.008	21.355	832.278	649.618
311.022	21.356	832.513	649.750
312.037	21.285	831.765	648.843
313.052	21.034	830.707	647.029
314.066	21.013	830.228	646.521
315.081	20.325	829.124	643.057
316.095	19.719	827.617	639.590
317.110	20.188	827.959	641.534
318.125	20.936	828.319	644.521
319.139	20.514	827.071	641.936
320.154	19.533	825.234	636.837
321.168	19.085	824.658	634.685
322.183	19.680	824.863	636.977
323.197	20.560	825.315	640.513
324.212	20.727	824.781	640.658
325.227	20.843	824.689	640.958
326.241	21.124	824.117	641.487
327.256	20.884	823.418	640.006
328.270	20.946	822.603	639.543
329.285	20.825	822.062	638.623
330.300	20.793	821.057	637.667
331.314	20.608	820.226	636.289
332.329	20.673	819.350	635.791
333.343	20.969	819.169	636.676
334.358	21.166	818.814	637.061
335.373	21.087	818.462	636.444
336.387	21.047	818.233	636.065
337.402	21.418	817.395	636.706
338.416	21.511	817.468	637.048
339.431	21.350	816.948	635.998
340.446	21.411	815.706	635.199
341.460	21.680	815.456	635.924
342.475	21.644	815.059	635.428
343.489	21.481	813.789	633.791
344.504	21.451	813.498	633.398
345.519	21.609	813.122	633.623
346.533	21.889	812.901	634.408
347.548	21.924	812.263	633.981
348.562	22.136	811.735	634.277
349.577	21.896	811.735	633.352
350.592	21.980	810.964	632.998
351.606	21.871	810.520	632.202
352.621	21.933	809.803	631.812
353.635	21.828	809.222	630.923
354.650	21.627	809.173	630.108
355.665	21.481	807.596	628.298
356.679	20.388	806.259	623.281
357.694	20.350	805.753	622.698
358.708	20.899	805.773	624.628
359.723	20.847	805.151	623.907
360.738	20.970	805.252	624.371
361.752	21.467	805.128	625.997
362.767	21.567	804.511	625.819
363.781	21.880	804.106	626.565
364.796	22.130	804.075	627.378
365.810	22.170	803.623	627.115
366.825	22.300	802.992	627.029
367.840	22.184	802.731	626.357
368.854	22.104	802.062	625.496
369.869	21.560	801.507	623.070
370.883	21.502	800.663	622.153
371.898	21.579	800.066	621.907
372.913	21.559	799.630	621.444
373.927	21.587	798.670	620.742
374.942	21.832	797.796	620.875
375.956	21.932	797.769	621.152
376.971	22.061	797.356	621.233
377.986	22.110	796.598	620.761
379.000	22.173	796.490	620.843
380.015	22.103	796.103	620.240
381.029	22.047	795.481	619.503
382.044	22.063	794.794	618.972
383.059	22.192	794.482	619.127
384.073	22.233	793.562	618.501
385.088	22.097	793.246	617.721
386.102	22.228	792.659	617.670
387.117	22.023	791.890	616.294
388.132	21.834	791.593	615.345
389.146	21.786	790.831	614.531
390.161	21.338	789.931	612.207
391.175	21.145	789.724	611.317
392.190	21.684	789.834	613.235
393.205	21.923	788.892	613.285
394.219	20.975	787.212	608.618
395.234	19.357	785.291	601.441
396.248	18.750	784.588	598.733
397.263	19.882	785.519	603.338
398.278	21.728	786.018	610.103
399.292	22.027	786.287	611.298
400.307	21.715	785.131	609.262
401.321	21.565	785.089	608.654
402.336	21.777	784.869	609.164
403.350	21.932	784.952	609.714
404.365	22.282	784.581	610.589
405.380	22.748	784.120	611.792
406.394	22.995	783.980	612.482
407.409	22.978	783.331	611.864
408.423	22.867	783.141	611.276
409.438	22.811	782.701	610.685
410.453	22.722	782.233	609.959
411.467	22.858	781.684	609.944
412.482	22.947	781.138	609.774
413.496	22.717	780.819	608.677
414.511	22.773	780.593	608.640
415.526	22.962	779.751	608.580
416.540	22.948	779.472	608.259
417.555	22.785	779.044	607.311
418.569	22.542	778.130	605.710
419.584	22.460	777.939	605.228
420.599	22.619	777.295	605.218
421.613	158.346	1362.578	1798.202
422.628	136.763	1447.831	1798.287
