DTS Sentinel unit serial number:	SN413079Multiplexer serial number:	ORYXHardware model number:	OX4-SRSoftware version number:	ORYX F/W v4.00 Oryx Data Collector v3.7.2.0data status	okinstallation	princeton_trtdifferential loss correction	single-endedforward channel	channel 3reverse channel	N/Adate	2019/09/11time	07:42:10forward acquisition time	60.00reverse acquisition time	0.00gamma	496.2192k internal	0.2324k external	0.2324temperature offset calibration	0.9897default loss term (dB/km)	0.3790temperature slope calibration	1.0000multiplexer offset coefficient	1.0000multiplexer slope coefficient	1.0000fibre end	0.00T internal ref (°C)	31.50T ext. ref 1 (°C)	-0.04T ext. ref 2 (°C)	27.60length (m)	temperature (°C)	Stokes	anti-Stokes-747.200	0.496	0.104	-0.075
-746.185	272.576	-0.028	-0.050
-745.171	-29.333	0.215	0.124
-744.156	160.134	0.073	0.102
-743.142	341.401	-0.073	0.144
-742.127	-83.970	0.092	-0.030
-741.112	-86.158	0.210	-0.066
-740.098	228.134	0.108	-0.178
-739.083	-159.033	0.231	0.013
-738.069	397.196	-0.198	0.418
-737.054	-124.645	-0.353	0.055
-736.039	189.261	-0.144	-0.218
-735.025	-66.661	-0.311	0.124
-734.010	-126.392	-0.513	-0.077
-732.996	90.995	-0.130	-0.147
-731.981	75.162	0.189	-0.201
-730.966	48.002	0.047	0.045
-729.952	32.452	0.186	-0.162
-728.937	-2.911	0.333	-0.235
-727.923	-200.000	-0.012	-0.085
-726.908	-40.787	-0.129	-0.067
-725.894	-161.850	-0.104	-0.005
-724.879	-200.000	-0.010	-0.219
-723.864	32.572	-0.187	0.163
-722.850	-200.000	-0.023	-0.310
-721.835	176.520	-0.042	-0.062
-720.821	-163.232	0.269	-0.013
-719.806	644.486	-0.031	0.079
-718.791	146.738	-0.092	0.125
-717.777	-103.832	-0.514	0.121
-716.762	-200.000	-0.024	-0.254
-715.748	800.000	0.063	0.180
-714.733	286.549	-0.162	-0.295
-713.718	102.029	-0.126	-0.148
-712.704	-200.000	0.005	-0.199
-711.689	-37.960	0.164	-0.088
-710.675	800.000	-0.105	0.352
-709.660	-52.944	-0.323	-0.150
-708.645	49.901	0.161	-0.153
-707.631	60.605	-0.177	-0.176
-706.616	-137.770	-0.122	-0.014
-705.602	-179.339	-0.252	-0.006
-704.587	-75.852	-0.157	0.056
-703.572	178.756	0.035	0.051
-702.558	216.834	-0.062	-0.100
-701.543	-51.677	-0.198	-0.093
-700.529	-55.022	-0.042	-0.019
-699.514	334.268	0.067	0.131
-698.499	147.965	0.085	-0.116
-697.485	139.460	-0.214	-0.284
-696.470	161.064	-0.165	0.232
-695.456	31.825	-0.100	0.087
-694.441	-130.890	-0.163	0.022
-693.426	527.651	-0.039	0.093
-692.412	-200.000	0.011	0.155
-691.397	800.000	-0.066	0.228
-690.383	-97.380	0.317	0.083
-689.368	47.744	-0.036	-0.034
-688.354	-138.895	-0.484	-0.053
-687.339	800.000	-0.029	0.124
-686.324	300.282	-0.018	0.034
-685.310	-195.553	0.183	0.001
-684.295	-59.540	0.091	-0.039
-683.281	-200.000	-0.075	0.404
-682.266	-200.000	-0.003	0.162
-681.251	-200.000	0.007	0.070
-680.237	-29.634	-0.179	0.103
-679.222	170.675	0.068	-0.099
-678.208	-91.051	0.222	-0.064
-677.193	-113.736	-0.236	0.046
-676.178	39.195	0.107	0.096
-675.164	-200.000	-0.007	-0.201
-674.149	232.360	0.123	-0.203
-673.135	-200.000	-0.016	0.192
-672.120	-133.166	-0.098	-0.012
-671.105	-147.630	-0.063	0.005
-670.091	800.000	0.007	-0.021
-669.076	-4.396	-0.209	-0.145
-668.062	-129.390	-0.344	0.048
-667.047	87.996	-0.100	0.112
-666.032	800.000	-0.061	0.264
-665.018	68.339	0.253	-0.261
-664.003	435.717	0.072	-0.158
-662.989	278.358	-0.057	-0.101
-661.974	-175.753	-0.625	-0.017
-660.959	-200.000	0.018	-0.140
-659.945	29.271	0.045	-0.039
-658.930	-94.819	0.019	0.005
-657.916	40.413	-0.030	-0.027
-656.901	388.544	-0.020	0.042
-655.886	-75.005	0.345	0.124
-654.872	-120.979	0.338	-0.057
-653.857	-111.567	-0.139	0.028
-652.843	778.459	-0.149	0.409
-651.828	50.684	0.215	-0.205
-650.814	-105.875	0.252	-0.057
-649.799	-57.790	-0.172	-0.076
-648.784	-59.618	-0.107	0.046
-647.770	-111.992	0.230	0.047
-646.755	-47.128	0.092	-0.045
-645.741	-200.000	0.001	-0.499
-644.726	67.645	-0.333	-0.342
-643.711	369.452	-0.176	-0.359
-642.697	87.127	-0.053	0.059
-641.682	82.982	-0.054	-0.059
-640.668	3.826	-0.109	0.080
-639.653	17.354	-0.306	-0.245
-638.638	474.478	0.092	-0.209
-637.624	-6.959	-0.070	0.047
-636.609	-124.114	0.089	-0.014
-635.595	-200.000	-0.002	0.031
-634.580	406.359	0.061	-0.130
-633.565	-57.915	0.057	-0.025
-632.551	71.233	-0.284	0.297
-631.536	348.610	-0.047	-0.094
-630.522	800.000	0.127	-0.449
-629.507	116.132	0.164	0.201
-628.492	-85.499	0.273	-0.085
-627.478	-200.000	-0.007	0.144
-626.463	65.495	-0.118	0.120
-625.449	-68.109	0.056	0.022
-624.434	-133.623	0.059	0.007
-623.419	-91.167	0.509	0.147
-622.405	-75.841	0.177	-0.063
-621.390	800.000	-0.028	0.120
-620.376	-9.101	0.075	-0.050
-619.361	87.944	0.170	0.190
-618.346	191.107	-0.102	0.155
-617.332	41.383	-0.294	-0.267
-616.317	218.796	0.189	-0.303
-615.303	-200.000	-0.026	-0.256
-614.288	276.187	-0.106	0.189
-613.273	76.662	0.154	0.164
-612.259	800.000	0.094	0.278
-611.244	-44.150	-0.149	-0.075
-610.230	-49.656	-0.184	0.088
-609.215	229.565	0.256	-0.420
-608.201	800.000	0.067	-0.185
-607.186	378.075	0.144	-0.297
-606.171	-70.993	0.199	-0.075
-605.157	-36.288	0.214	-0.116
-604.142	-121.921	-0.370	0.061
-603.128	-20.552	-0.281	-0.173
-602.113	-200.000	0.048	-0.211
-601.098	-179.307	0.073	-0.002
-600.084	800.000	0.067	-0.198
-599.069	800.000	0.125	-0.395
-598.055	507.751	-0.055	-0.129
-597.040	-6.873	-0.158	0.108
-596.025	-141.980	-0.138	-0.014
-595.011	201.916	0.094	-0.145
-593.996	-127.154	-0.313	0.046
-592.982	-200.000	-0.039	-0.229
-591.967	32.625	0.107	0.093
-590.952	-8.965	-0.039	-0.026
-589.938	-61.412	0.125	-0.053
-588.923	50.730	-0.308	-0.293
-587.909	-200.000	-0.079	-0.573
-586.894	800.000	-0.081	-0.227
-585.879	182.505	0.095	-0.140
-584.865	13.867	-0.181	-0.141
-583.850	-200.000	0.002	-0.301
-582.836	-128.366	-0.284	-0.040
-581.821	231.796	0.074	0.121
-580.806	-86.769	0.305	0.093
-579.792	2.664	0.012	-0.009
-578.777	-110.557	0.181	-0.038
-577.763	99.645	-0.063	-0.073
-576.748	-181.617	0.091	-0.002
-575.733	648.933	0.221	0.568
-574.719	167.444	0.157	0.223
-573.704	399.605	-0.092	0.194
-572.690	26.322	-0.421	-0.353
-571.675	402.660	0.195	0.412
-570.661	-193.505	0.170	-0.001
-569.646	-36.824	0.283	0.152
-568.631	-200.000	-0.041	0.351
-567.617	-125.034	0.132	0.020
-566.602	-200.000	-0.023	-0.267
-565.588	-6.347	0.259	-0.177
-564.573	68.974	-0.174	-0.179
-563.558	-92.606	0.250	-0.070
-562.544	248.136	-0.066	-0.111
-561.529	-200.000	-0.022	0.240
-560.515	800.000	-0.030	0.103
-559.500	-200.000	0.003	0.018
-558.485	-42.221	-0.131	0.067
-557.471	-30.185	-0.293	-0.167
-556.456	1.270	-0.168	-0.121
-555.442	800.000	-0.119	-0.393
-554.427	-200.000	-0.018	-0.336
-553.412	190.453	0.204	0.308
-552.398	800.000	-0.050	0.209
-551.383	800.000	-0.075	-0.222
-550.369	-200.000	-0.040	-0.199
-549.354	72.561	-0.275	-0.288
-548.339	114.954	0.169	-0.206
-547.325	283.673	-0.158	0.285
-546.310	800.000	-0.036	0.130
-545.296	-119.909	-0.165	0.028
-544.281	290.382	-0.058	0.105
-543.266	-200.000	-0.041	-0.195
-542.252	-96.925	-0.227	-0.060
-541.237	-41.774	-0.326	-0.168
-540.223	-112.218	-0.111	-0.022
-539.208	199.305	-0.271	-0.416
-538.193	634.569	-0.028	-0.071
-537.179	211.618	-0.108	-0.171
-536.164	-200.000	-0.018	-0.179
-535.150	-37.003	0.248	-0.133
-534.135	49.897	-0.074	0.069
-533.121	284.076	0.074	-0.133
-532.106	-194.005	0.252	0.002
-531.091	-200.000	-0.011	0.255
-530.077	-102.135	-0.195	0.047
-529.062	-200.000	0.053	0.234
-528.048	-96.734	-0.177	0.047
-527.033	-16.475	0.291	0.185
-526.018	251.979	-0.106	-0.181
-525.004	-56.648	0.145	-0.064
-523.989	323.816	0.067	-0.128
-522.975	-47.319	-0.088	0.043
-521.960	-200.000	0.026	-0.167
-520.945	-108.824	0.154	-0.033
-519.931	107.734	-0.157	0.187
-518.916	-142.321	0.278	-0.027
-517.902	234.447	0.202	-0.334
-516.887	800.000	-0.098	-0.334
-515.872	-101.257	0.172	-0.042
-514.858	800.000	0.025	0.073
-513.843	32.699	-0.156	0.135
-512.829	-200.000	0.029	0.237
-511.814	304.395	-0.083	0.154
-510.799	800.000	0.084	0.267
-509.785	-200.000	-0.021	-0.180
-508.770	69.747	0.211	-0.218
-507.756	373.610	-0.177	0.360
-506.741	800.000	-0.011	0.036
-505.726	20.695	0.279	-0.226
-504.712	-67.555	-0.149	0.059
-503.697	800.000	0.176	-0.497
-502.683	-73.021	0.155	-0.057
-501.668	71.736	-0.118	0.123
-500.653	-154.549	0.074	0.005
-499.639	-158.880	0.080	-0.005
-498.624	-160.483	-0.351	-0.019
-497.610	517.906	-0.067	-0.158
-496.595	-200.000	-0.032	-0.171
-495.581	-49.699	-0.187	-0.089
-494.566	341.109	-0.176	-0.344
-493.551	-40.628	-0.098	0.051
-492.537	477.907	0.130	0.295
-491.522	-200.000	0.058	-0.314
-490.508	-74.088	0.085	0.031
-489.493	25.996	-0.166	0.139
-488.478	178.704	0.108	0.158
-487.464	20.795	0.162	-0.131
-486.449	-68.930	0.111	-0.043
-485.435	-200.000	0.057	0.284
-484.420	18.403	-0.256	0.205
-483.405	-66.259	0.360	-0.143
-482.391	-98.651	-0.152	0.039
-481.376	26.206	0.024	0.020
-480.362	800.000	0.101	0.362
-479.347	-178.420	-0.122	0.003
-478.332	-97.474	-0.225	-0.059
-477.318	220.977	0.074	0.119
-476.303	-200.000	0.001	-0.132
-475.289	-173.590	0.347	0.010
-474.274	86.687	-0.121	0.134
-473.259	-130.959	-0.361	0.048
-472.245	6.499	0.284	0.211
-471.230	131.988	0.065	-0.084
-470.216	-200.000	0.001	0.064
-469.201	78.446	-0.249	0.265
-468.186	-200.000	-0.017	-0.226
-467.172	800.000	0.114	0.337
-466.157	-110.683	-0.127	0.026
-465.143	446.440	-0.022	-0.049
-464.128	-127.847	-0.157	0.023
-463.113	800.000	0.113	-0.351
-462.099	-200.000	0.006	-0.179
-461.084	-39.535	0.113	0.059
-460.070	-160.653	0.435	-0.023
-459.055	-98.916	-0.164	0.042
-458.040	800.000	0.018	0.067
-457.026	39.670	0.177	0.159
-456.011	651.249	-0.027	-0.070
-454.997	-200.000	0.022	0.117
-453.982	-160.567	-0.364	-0.019
-452.968	149.210	-0.109	0.147
-451.953	231.821	-0.091	0.149
-450.938	16.083	0.331	0.261
-449.924	-86.247	-0.163	-0.050
-448.909	52.254	-0.177	-0.169
-447.895	-90.572	0.275	0.079
-446.880	71.479	0.098	0.101
-445.865	99.360	-0.212	-0.245
-444.851	-90.490	-0.345	0.100
-443.836	-155.282	0.080	0.005
-442.822	67.548	-0.096	-0.098
-441.807	-109.157	-0.294	0.062
-440.792	42.103	-0.086	0.078
-439.778	-155.085	-0.081	-0.005
-438.763	321.645	0.082	0.156
-437.749	-177.575	0.286	-0.007
-436.734	-200.000	-0.005	0.045
-435.719	-1.929	0.058	0.041
-434.705	100.046	-0.168	-0.194
-433.690	-200.000	-0.001	-0.264
-432.676	-144.624	0.023	0.002
-431.661	610.312	-0.046	-0.116
-430.646	-179.849	-0.429	-0.009
-429.632	44.105	-0.257	-0.235
-428.617	-92.189	0.148	-0.042
-427.603	800.000	-0.023	-0.080
-426.588	-127.393	0.055	-0.008
-425.573	-39.135	-0.138	0.072
-424.559	37.624	0.196	-0.174
-423.544	800.000	0.088	0.368
-422.530	-167.087	0.212	0.009
-421.515	-200.000	0.013	0.174
-420.500	191.494	-0.204	-0.307
-419.486	109.485	-0.140	0.168
-418.471	286.124	-0.078	0.141
-417.457	-109.243	-0.123	0.026
-416.442	-154.571	0.339	0.023
-415.428	155.542	0.106	-0.146
-414.413	50.744	-0.192	-0.181
-413.398	72.156	0.237	-0.246
-412.384	59.051	-0.067	-0.066
-411.369	-79.523	0.092	-0.031
-410.355	350.344	-0.130	0.256
-409.340	-156.852	-0.397	0.024
-408.325	-44.758	0.186	0.092
-407.311	541.380	0.051	-0.122
-406.296	139.209	0.319	-0.418
-405.282	93.855	0.062	-0.070
-404.267	-154.217	0.143	-0.010
-403.252	-185.880	0.540	-0.008
-402.238	237.563	0.226	0.373
-401.223	119.451	-0.081	0.099
-400.209	-171.224	0.203	-0.007
-399.194	-102.191	-0.099	0.024
-398.179	800.000	-0.111	0.399
-397.165	83.550	-0.324	-0.352
-396.150	437.188	-0.037	-0.080
-395.136	527.901	0.083	0.196
-394.121	127.543	0.191	0.241
-393.106	-20.961	0.256	-0.156
-392.092	-140.378	-0.316	0.033
-391.077	-200.000	0.084	0.431
-390.063	800.000	0.204	0.576
-389.048	-114.048	-0.099	0.019
-388.033	249.207	-0.152	-0.256
-387.019	-200.000	0.001	0.299
-386.004	-200.000	0.047	0.292
-384.990	-157.152	-0.279	-0.017
-383.975	-13.807	-0.050	0.032
-382.960	253.034	0.173	-0.294
-381.946	-97.474	0.099	-0.025
-380.931	146.731	0.149	-0.200
-379.917	71.920	-0.060	0.063
-378.902	-4.514	-0.031	-0.021
-377.888	-200.000	-0.005	0.234
-376.873	342.991	0.114	0.221
-375.858	-200.000	0.012	0.056
-374.844	281.803	-0.077	0.137
-373.829	173.192	0.049	-0.070
-372.815	-74.032	-0.058	0.021
-371.800	-200.000	-0.033	-0.237
-370.785	-114.758	0.122	-0.023
-369.771	-9.199	0.282	0.188
-368.756	381.512	0.086	0.176
-367.742	-117.428	-0.267	0.048
-366.727	-116.343	-0.067	0.012
-365.712	-136.436	0.182	-0.021
-364.698	-165.636	0.034	-0.001
-363.683	24.612	-0.091	0.075
-362.669	-24.297	-0.092	0.055
-361.654	-200.000	-0.030	-0.220
-360.639	-42.956	-0.179	-0.090
-359.625	-88.744	-0.326	-0.096
-358.610	-41.282	-0.269	0.138
-357.596	595.026	-0.150	0.369
-356.581	-200.000	-0.097	-0.432
-355.566	434.674	-0.123	0.266
-354.552	-169.838	-0.182	-0.007
-353.537	-39.262	-0.114	-0.060
-352.523	-96.903	0.177	0.046
-351.508	-132.263	0.371	0.048
-350.493	266.463	0.086	-0.149
-349.479	-200.000	0.021	0.238
-348.464	256.166	-0.089	0.152
-347.450	253.745	0.100	-0.170
-346.435	1.399	0.134	-0.096
-345.420	800.000	0.071	-0.221
-344.406	-145.970	-0.415	0.036
-343.391	45.841	-0.273	-0.251
-342.377	800.000	-0.053	-0.188
-341.362	800.000	0.094	0.358
-340.348	-98.129	-0.151	0.039
-339.333	-111.507	-0.052	-0.011
-338.318	-135.741	-0.277	-0.033
-337.304	-161.076	-0.157	0.008
-336.289	-25.400	0.290	0.171
-335.275	-200.000	0.055	-0.327
-334.260	-200.000	0.017	0.106
-333.245	-6.735	0.246	-0.167
-332.231	355.623	0.092	0.182
-331.216	49.986	0.105	-0.098
-330.202	-200.000	-0.005	-0.220
-329.187	-200.000	-0.062	-0.304
-328.172	53.551	0.175	0.167
-327.158	297.938	-0.028	0.052
-326.143	284.311	0.023	0.041
-325.129	-101.508	0.287	0.069
-324.114	-80.783	-0.331	0.109
-323.099	-66.358	0.362	-0.143
-322.085	-200.000	0.017	0.212
-321.070	-78.460	0.322	-0.109
-320.056	102.602	0.092	-0.107
-319.041	-200.000	0.007	0.051
-318.026	-58.102	-0.246	0.106
-317.012	187.875	0.080	0.119
-315.997	-200.000	-0.014	-0.295
-314.983	138.319	-0.215	0.280
-313.968	-35.626	-0.283	0.152
-312.953	65.395	-0.251	0.252
-311.939	-200.000	0.012	-0.179
-310.924	-81.268	0.323	-0.106
-309.910	86.388	0.059	0.065
-308.895	-118.679	-0.201	-0.035
-307.880	112.014	0.207	0.249
-306.866	312.945	0.060	0.112
-305.851	-97.824	-0.164	0.042
-304.837	-187.475	-0.325	0.004
-303.822	168.100	0.066	0.093
-302.807	370.677	0.055	-0.110
-301.793	-33.119	0.157	-0.086
-300.778	-200.000	-0.042	-0.213
-299.764	-200.000	-0.006	0.077
-298.749	-96.147	-0.200	0.053
-297.735	48.843	0.296	-0.275
-296.720	800.000	-0.042	-0.160
-295.705	769.029	-0.011	-0.031
-294.691	-200.000	-0.013	-0.065
-293.676	-200.000	-0.019	-0.168
-292.662	-97.604	-0.520	0.134
-291.647	18.182	-0.446	0.353
-290.632	20.294	0.119	0.095
-289.618	-200.000	0.001	-0.134
-288.603	26.454	-0.113	-0.094
-287.589	-200.000	-0.007	-0.179
-286.574	800.000	0.036	0.128
-285.559	-37.740	-0.097	-0.051
-284.545	-200.000	-0.017	0.137
-283.530	424.739	0.028	-0.061
-282.516	56.826	0.183	-0.177
-281.501	-160.485	0.125	-0.007
-280.486	-200.000	-0.045	0.293
-279.472	229.358	0.159	0.257
-278.457	-200.000	-0.020	-0.128
-277.443	-200.000	0.024	-0.179
-276.428	16.492	-0.184	-0.144
-275.413	77.207	0.001	0.001
-274.399	-15.186	-0.252	0.160
-273.384	-84.991	0.143	0.045
-272.370	-141.594	0.237	-0.024
-271.355	-71.986	-0.134	-0.049
-270.340	-200.000	-0.018	0.089
-269.326	-13.294	0.277	0.178
-268.311	-130.309	-0.499	0.067
-267.297	-133.560	0.050	-0.006
-266.282	-200.000	0.010	-0.311
-265.267	451.808	0.168	0.368
-264.253	-200.000	-0.045	0.256
-263.238	800.000	0.107	0.297
-262.224	53.992	0.207	-0.197
-261.209	-44.558	0.216	-0.107
-260.195	206.022	0.201	0.310
-259.180	-148.933	-0.240	0.019
-258.165	267.782	-0.041	0.072
-257.151	347.103	-0.029	0.056
-256.136	381.737	-0.085	0.173
-255.122	800.000	0.040	-0.161
-254.107	800.000	0.004	-0.018
-253.092	-181.706	0.234	0.004
-252.078	130.830	-0.244	0.310
-251.063	187.838	-0.173	-0.255
-250.049	800.000	-0.037	-0.110
-249.034	88.367	-0.134	0.147
-248.019	-23.412	-0.166	-0.099
-247.005	530.961	0.070	-0.164
-245.990	58.375	0.273	0.265
-244.976	-13.026	0.056	0.036
-243.961	209.904	0.050	-0.078
-242.946	619.364	0.081	-0.201
-241.932	-200.000	0.088	0.391
-240.917	-200.000	0.024	-0.262
-239.903	-23.386	0.311	-0.185
-238.888	117.595	0.100	0.121
-237.873	-69.270	-0.096	0.037
-236.859	-133.762	-0.124	-0.015
-235.844	39.463	0.281	-0.249
-234.830	36.853	-0.153	0.134
-233.815	-47.107	-0.239	0.115
-232.800	-29.737	0.127	0.072
-231.786	-114.420	0.286	0.054
-230.771	76.734	-0.225	-0.236
-229.757	-166.487	-0.208	0.009
-228.742	35.717	0.220	0.191
-227.727	47.735	-0.222	-0.205
-226.713	318.307	0.037	-0.069
-225.698	-68.714	-0.140	-0.054
-224.684	19.565	0.397	0.316
-223.669	549.040	-0.132	0.314
-222.655	-74.438	-0.225	0.080
-221.640	-132.597	-0.238	0.030
-220.625	330.104	0.136	0.259
-219.611	-120.756	0.167	0.028
-218.596	-75.384	0.183	-0.065
-217.582	-200.000	0.039	-0.192
-216.567	5.723	-0.058	-0.043
-215.552	-85.720	-0.148	-0.045
-214.538	-85.984	-0.090	0.027
-213.523	-73.842	0.073	-0.026
-212.509	800.000	0.116	0.351
-211.494	169.283	0.160	0.226
-210.479	-29.176	-0.046	-0.026
-209.465	-71.054	0.071	0.026
-208.450	-200.000	-0.064	-0.286
-207.436	16.800	-0.201	0.157
-206.421	-49.585	-0.065	-0.030
-205.406	800.000	0.063	-0.191
-204.392	-49.447	0.239	-0.113
-203.377	-170.279	0.371	0.013
-202.363	477.322	-0.135	0.302
-201.348	-93.882	0.374	0.102
-200.333	-49.568	-0.192	0.090
-199.319	-200.000	0.002	0.085
-198.304	800.000	-0.038	-0.138
-197.290	800.000	-0.037	-0.117
-196.275	-31.790	-0.103	0.057
-195.260	-200.000	-0.016	0.137
-194.246	48.675	0.088	0.081
-193.231	-141.847	0.231	-0.023
-192.217	-30.874	0.101	-0.056
-191.202	-21.325	0.075	-0.045
-190.187	-20.442	-0.198	0.120
-189.173	-107.172	0.268	0.058
-188.158	-16.089	0.195	-0.123
-187.144	97.671	-0.177	0.201
-186.129	361.208	0.110	0.218
-185.114	-93.402	0.095	0.026
-184.100	85.492	-0.324	-0.352
-183.085	-90.012	0.091	0.026
-182.071	-16.493	0.236	0.148
-181.056	132.085	0.273	-0.347
-180.042	465.072	0.046	0.101
-179.027	-57.106	-0.213	0.093
-178.012	74.367	-0.097	0.101
-176.998	-200.000	0.037	0.609
-175.983	69.139	-0.242	0.246
-174.969	-138.948	-0.185	0.020
-173.954	326.087	0.156	-0.294
-172.939	234.782	0.121	0.197
-171.925	-200.000	-0.010	-0.078
-170.910	-200.000	-0.042	0.218
-169.896	-117.147	-0.205	-0.037
-168.881	-42.323	0.318	0.160
-167.866	455.318	0.066	-0.144
-166.852	45.580	-0.194	0.177
-165.837	-200.000	0.030	0.337
-164.823	-5.372	-0.247	0.167
-163.808	84.631	0.349	0.378
-162.793	-200.000	0.010	0.156
-161.779	-200.000	-0.027	-0.185
-160.764	269.273	0.088	-0.152
-159.750	-200.000	-0.011	-0.116
-158.735	461.053	0.090	0.199
-157.720	190.079	-0.239	0.355
-156.706	800.000	0.034	-0.125
-155.691	69.760	0.125	-0.127
-154.677	-64.119	0.105	-0.042
-153.662	172.317	0.108	-0.153
-152.647	-200.000	-0.005	0.198
-151.633	-158.575	0.188	-0.011
-150.618	52.751	-0.175	0.165
-149.604	-200.000	0.084	0.509
-148.589	-33.805	-0.246	0.134
-147.574	110.942	0.127	0.151
-146.560	800.000	-0.068	-0.251
-145.545	-53.663	0.136	0.061
-144.531	-200.000	0.048	0.271
-143.516	-200.000	0.004	0.024
-142.502	562.088	0.054	0.130
-141.487	-200.000	-0.038	0.258
-140.472	-73.742	0.158	-0.057
-139.458	4.546	0.191	0.138
-138.443	793.402	0.050	-0.134
-137.429	10.797	-0.122	0.092
-136.414	-26.645	-0.275	0.159
-135.399	-200.000	0.026	-0.116
-134.385	-51.636	-0.136	0.062
-133.370	-33.600	0.151	-0.082
-132.356	75.349	-0.079	-0.082
-131.341	320.845	0.149	-0.279
-130.326	-200.000	-0.030	0.483
-129.312	-93.966	-0.286	-0.077
-128.297	42.043	0.143	-0.128
-127.283	-200.000	-0.025	0.117
-126.268	-200.000	0.010	-0.188
-125.253	287.245	-0.184	0.328
-124.239	-29.867	-0.162	0.091
-123.224	11.618	-0.091	-0.069
-122.210	58.047	0.061	-0.059
-121.195	-129.627	-0.065	-0.009
-120.180	-12.738	-0.510	0.327
-119.166	124.948	-0.262	0.325
-118.151	25.740	-0.121	-0.099
-117.137	-200.000	-0.016	0.111
-116.122	-118.460	0.507	-0.089
-115.107	328.280	-0.158	0.299
-114.093	-200.000	0.002	-0.024
-113.078	800.000	-0.020	-0.076
-112.064	-200.000	-0.008	0.069
-111.049	458.236	-0.059	0.129
-110.034	-53.201	0.187	0.085
-109.020	-62.613	-0.023	-0.009
-108.005	-200.000	-0.071	0.500
-106.991	-38.918	0.220	0.114
-105.976	800.000	0.035	0.119
-104.962	91.572	-0.198	-0.219
-103.947	-29.839	0.177	-0.099
-102.932	148.518	-0.039	-0.052
-101.918	262.085	0.108	-0.185
-100.903	-65.312	0.156	-0.062
-99.889	-21.881	0.139	-0.083
-98.874	-36.667	0.108	0.057
-97.859	-200.000	0.064	-0.310
-96.845	104.353	-0.140	0.162
-95.830	-31.641	-0.026	0.014
-94.816	144.632	0.181	0.238
-93.801	-200.000	-0.012	0.206
-92.786	53.572	-0.060	-0.056
-91.772	-200.000	0.011	-0.236
-90.757	171.411	0.227	-0.321
-89.743	-64.793	0.134	0.053
-88.728	385.550	-0.146	0.295
-87.713	56.025	0.188	0.179
-86.699	153.338	-0.168	0.226
-85.684	-89.180	0.353	0.103
-84.670	732.701	-0.015	0.040
-83.655	-86.171	0.259	0.079
-82.640	-200.000	0.000	-0.071
-81.626	-112.373	-0.190	0.037
-80.611	-200.000	-0.034	-0.198
-79.597	-12.208	0.156	-0.101
-78.582	203.465	-0.078	-0.118
-77.567	586.987	-0.038	0.091
-76.553	-60.233	0.035	-0.015
-75.538	-68.156	0.165	0.063
-74.524	143.990	0.179	-0.234
-73.509	-146.810	0.114	0.010
-72.494	-200.000	0.024	-0.138
-71.480	-195.608	-0.205	-0.001
-70.465	-134.508	0.270	0.032
-69.451	128.625	-0.089	-0.111
-68.436	-45.377	0.198	-0.097
-67.422	248.392	0.036	0.060
-66.407	800.000	-0.088	-0.308
-65.392	77.088	-0.198	0.206
-64.378	-58.040	-0.031	0.014
-63.363	-88.846	-0.166	-0.048
-62.349	-44.056	-0.251	0.124
-61.334	60.072	-0.972	-0.945
-60.319	-47.669	0.803	0.383
-59.305	167.195	-0.516	-0.720
-58.290	187.752	0.848	1.245
-57.276	405.613	0.673	1.395
-56.261	-200.000	99.408	620.442
-55.246	614.252	1437.377	3538.314
-54.232	184.025	2641.897	3842.285
-53.217	116.732	2194.100	2645.776
-52.203	42.480	1723.353	1540.347
-51.188	34.658	1536.045	1319.114
-50.173	32.250	1509.358	1279.769
-49.159	52.746	1560.496	1465.430
-48.144	54.178	1577.304	1491.054
-47.130	34.981	1535.234	1320.434
-46.115	31.769	1520.635	1285.829
-45.100	31.675	1517.240	1282.262
-44.086	31.667	1515.327	1280.537
-43.071	31.600	1513.190	1278.228
-42.057	31.582	1511.446	1276.579
-41.042	31.608	1510.005	1275.489
-40.027	31.573	1508.761	1274.151
-39.013	31.473	1507.201	1272.098
-37.998	31.456	1506.178	1271.073
-36.984	31.528	1504.957	1270.478
-35.969	31.516	1503.254	1268.912
-34.954	31.507	1502.317	1268.008
-33.940	31.586	1500.706	1267.135
-32.925	31.503	1499.298	1265.330
-31.911	31.529	1497.794	1264.187
-30.896	31.626	1496.143	1263.401
-29.881	31.517	1495.433	1262.015
-28.867	31.494	1494.004	1260.601
-27.852	31.618	1492.186	1259.851
-26.838	31.581	1491.088	1258.627
-25.823	31.549	1489.283	1256.837
-24.809	31.586	1487.762	1255.753
-23.794	31.505	1486.399	1254.011
-22.779	31.494	1485.368	1253.019
-21.765	31.599	1484.172	1252.660
-20.750	31.535	1483.042	1251.229
-19.736	31.573	1481.560	1250.183
-18.721	31.527	1480.613	1249.027
-17.706	31.496	1480.019	1248.268
-16.692	31.642	1478.493	1247.904
-15.677	31.508	1477.774	1246.362
-14.663	31.522	1476.564	1245.383
-13.648	31.383	1476.253	1244.144
-12.633	31.441	1474.988	1243.415
-11.619	31.512	1473.798	1242.833
-10.604	31.400	1473.620	1241.889
-9.590	31.354	1472.324	1240.444
-8.575	31.410	1471.525	1240.096
-7.560	31.415	1470.909	1239.558
-6.546	31.445	1469.484	1238.505
-5.531	31.412	1468.621	1237.513
-4.517	31.404	1468.042	1236.919
-3.502	31.500	1466.249	1235.994
-2.487	31.443	1465.637	1235.052
-1.473	31.445	1464.471	1234.038
-0.458	31.435	1463.320	1232.950
0.556	29.002	1453.579	1223.235
1.571	26.607	1427.520	1185.540
2.586	23.669	1367.218	1116.909
3.600	22.273	1286.003	1042.201
4.615	20.839	1240.717	997.210
5.629	18.232	1185.082	938.135
6.644	9.460	1099.441	825.454
7.659	1.642	1056.909	754.788
8.673	0.142	1050.687	742.877
9.688	-0.028	1047.432	739.675
10.702	-0.144	1045.429	737.624
11.717	-0.109	1044.378	736.992
12.731	3.574	1048.021	757.601
13.746	12.567	1061.823	812.074
14.761	19.155	1070.444	851.274
15.775	20.712	1071.480	859.721
16.790	21.062	1071.182	861.134
17.804	20.961	1070.158	859.738
18.819	20.662	1069.191	857.411
19.834	20.836	1068.825	857.897
20.848	20.916	1068.113	857.641
21.863	20.868	1068.406	857.565
22.877	20.902	1067.520	856.948
23.892	21.024	1066.496	856.646
24.907	20.775	1065.799	854.789
25.921	20.936	1064.990	854.857
26.936	20.827	1064.816	854.107
27.950	20.670	1063.979	852.588
28.965	20.894	1062.045	852.059
29.980	20.665	1061.103	850.107
30.994	20.805	1058.695	848.789
32.009	20.837	1058.213	848.484
33.023	21.024	1057.349	848.626
34.038	20.837	1056.101	846.640
35.053	20.817	1055.019	845.600
36.067	20.985	1055.099	846.403
37.082	20.858	1054.180	844.979
38.096	20.936	1053.151	844.453
39.111	21.080	1052.649	844.676
40.126	21.237	1051.452	844.400
41.140	21.021	1050.524	842.534
42.155	20.826	1048.739	840.089
43.169	20.593	1047.532	837.926
44.184	20.581	1046.764	837.180
45.199	20.504	1046.042	836.155
46.213	20.538	1044.497	835.012
47.228	20.454	1044.002	834.137
48.242	20.592	1042.941	833.877
49.257	20.599	1042.599	833.565
50.271	20.776	1041.465	833.430
51.286	20.879	1040.908	833.404
52.301	20.994	1039.993	833.148
53.315	20.932	1039.428	832.325
54.330	20.943	1038.639	831.673
55.344	20.810	1037.846	830.329
56.359	20.813	1037.145	829.708
57.374	20.950	1035.919	829.307
58.388	20.836	1034.575	827.617
59.403	20.782	1033.550	826.465
60.417	20.690	1033.394	825.833
61.432	20.489	1032.561	824.140
62.447	20.510	1031.879	823.621
63.461	20.698	1031.268	823.954
64.476	20.703	1030.178	823.033
65.490	20.680	1029.286	822.140
66.505	20.589	1028.713	821.177
67.520	20.596	1027.750	820.370
68.534	20.664	1026.892	819.934
69.549	20.574	1025.734	818.514
70.563	20.326	1024.606	816.373
71.578	20.268	1024.435	815.891
72.593	20.243	1023.471	814.933
73.607	20.105	1021.970	813.019
74.622	20.064	1021.129	812.085
75.636	20.423	1020.601	813.275
76.651	20.414	1020.026	812.705
77.666	20.373	1019.028	811.647
78.680	20.303	1017.800	810.270
79.695	20.381	1017.385	810.230
80.709	20.492	1016.950	810.333
81.724	20.513	1016.022	809.619
82.739	20.446	1014.871	808.317
83.753	20.441	1014.143	807.643
84.768	20.757	1013.740	808.719
85.782	20.923	1013.571	809.285
86.797	21.243	1012.320	809.697
87.812	21.156	1011.327	808.425
88.826	20.968	1010.705	806.990
89.841	20.949	1010.005	806.271
90.855	21.085	1008.767	805.838
91.870	21.078	1008.295	805.358
92.884	21.097	1007.273	804.556
93.899	21.055	1006.307	803.522
94.914	20.948	1005.706	802.478
95.928	21.033	1004.709	802.001
96.943	20.991	1003.970	801.149
97.957	20.752	1002.867	799.102
98.972	20.661	1001.432	797.469
99.987	20.221	1000.831	794.902
101.001	20.447	1000.066	795.259
102.016	20.746	999.453	796.069
103.030	20.967	998.518	796.264
104.045	20.711	997.442	794.167
105.060	20.481	996.218	792.078
106.074	20.485	995.072	791.114
107.089	20.565	994.283	790.778
108.103	20.714	994.315	791.412
109.118	20.900	993.484	791.527
110.133	20.713	991.903	789.349
111.147	20.582	991.172	788.104
112.162	20.536	989.739	786.688
113.176	20.278	988.532	784.489
114.191	20.368	987.938	784.357
115.206	20.609	986.895	784.544
116.220	20.271	985.735	782.032
117.235	20.158	984.893	780.785
118.249	20.332	983.977	780.774
119.264	20.390	983.133	780.293
120.279	20.230	982.214	778.776
121.293	20.143	981.923	778.090
122.308	20.225	981.017	777.667
123.322	20.400	980.309	777.824
124.337	20.341	978.849	776.332
125.352	20.310	977.224	774.834
126.366	19.729	976.004	771.210
127.381	19.546	974.760	769.343
128.395	20.125	974.622	771.746
129.410	20.639	974.102	773.550
130.424	20.957	973.144	774.132
131.439	20.921	972.248	773.194
132.454	20.754	971.158	771.517
133.468	20.765	970.507	770.979
134.483	20.697	969.771	770.026
135.497	20.690	969.519	769.727
136.512	21.009	968.052	769.903
137.527	20.965	967.824	769.460
138.541	21.145	966.446	769.089
139.556	20.918	966.266	767.879
140.570	20.926	965.303	767.079
141.585	21.018	964.154	766.504
142.600	21.118	963.349	766.233
143.614	21.057	962.059	764.873
144.629	21.219	961.603	765.153
145.643	21.383	961.110	765.413
146.658	21.262	959.992	763.926
147.673	20.940	959.126	761.758
148.687	20.974	957.501	760.549
149.702	20.965	956.256	759.455
150.716	20.961	955.381	758.675
151.731	20.713	954.652	756.950
152.746	20.888	953.895	757.046
153.760	21.056	953.449	757.353
154.775	21.045	953.067	756.934
155.789	21.206	952.062	756.766
156.804	21.211	950.620	755.576
157.819	21.100	949.939	754.488
158.833	21.129	949.097	753.877
159.848	21.241	948.514	753.829
160.862	21.305	947.560	753.282
161.877	21.021	946.740	751.342
162.892	21.113	945.596	750.762
163.906	21.205	945.000	750.618
164.921	21.149	944.383	749.821
165.935	21.164	943.066	748.773
166.950	21.214	941.559	747.724
167.964	21.159	941.108	747.064
168.979	21.154	940.072	746.155
169.994	21.157	938.982	745.238
171.008	20.900	938.345	743.570
172.023	21.147	937.180	743.634
173.037	21.297	936.246	743.463
174.052	21.081	935.132	741.593
175.067	20.945	934.445	740.409
176.081	20.894	933.534	739.404
177.096	20.973	933.006	739.255
178.110	21.081	932.113	738.941
179.125	20.789	931.008	736.762
180.140	20.452	929.763	734.289
181.154	20.602	929.519	734.665
182.169	20.643	929.079	734.423
183.183	20.720	928.910	734.552
184.198	21.124	927.774	735.288
185.213	21.102	927.159	734.644
186.227	21.210	926.558	734.560
187.242	21.130	926.121	733.812
188.256	21.198	925.409	733.467
189.271	21.258	924.284	732.764
190.286	21.345	923.872	732.734
191.300	21.105	922.639	730.689
192.315	20.693	921.124	727.701
193.329	19.984	919.985	723.776
194.344	19.662	918.887	721.503
195.359	20.117	919.379	723.723
196.373	20.874	919.638	727.026
197.388	21.143	919.103	727.661
198.402	21.078	918.328	726.708
199.417	20.882	917.843	725.447
200.432	21.008	917.497	725.633
201.446	20.928	916.267	724.264
202.461	20.677	915.649	722.669
203.475	20.713	915.157	722.366
204.490	20.291	913.599	719.325
205.504	19.190	911.472	713.029
206.519	19.560	912.040	714.944
207.534	20.621	912.012	719.249
208.548	20.567	911.392	718.472
209.563	20.995	910.924	719.806
210.577	21.125	910.102	719.628
211.592	20.795	909.742	717.920
212.607	21.159	909.615	719.258
213.621	21.240	909.058	719.089
214.636	21.178	908.105	718.014
215.650	21.284	907.830	718.170
216.665	21.202	906.928	717.054
217.680	21.171	906.681	716.668
218.694	21.318	905.920	716.606
219.709	20.988	904.882	714.370
220.723	20.659	903.985	712.255
221.738	20.828	903.794	712.731
222.753	21.066	902.977	712.999
223.767	20.976	901.922	711.733
224.782	21.095	901.615	711.914
225.796	21.233	900.783	711.756
226.811	21.387	900.480	712.082
227.826	20.988	898.917	709.161
228.840	20.180	897.771	704.910
229.855	20.081	897.124	703.938
230.869	20.320	896.868	704.645
231.884	20.057	895.499	702.441
232.899	20.071	895.230	702.224
233.913	20.930	895.311	705.705
234.928	20.900	895.711	705.838
235.942	21.020	894.158	705.034
236.957	20.961	893.748	704.411
237.972	20.703	892.717	702.497
238.986	20.548	891.916	701.179
240.001	20.851	891.074	701.673
241.015	20.797	890.736	701.131
242.030	20.789	889.982	700.441
243.045	20.960	889.308	700.537
244.059	20.877	889.189	700.048
245.074	21.021	888.808	700.261
246.088	21.172	887.338	699.647
247.103	20.934	886.452	697.934
248.117	20.786	886.049	696.961
249.132	21.389	885.846	699.152
250.147	21.586	886.032	700.026
251.161	21.831	885.069	700.182
252.176	21.699	885.126	699.638
253.190	21.857	884.192	699.467
254.205	21.899	883.588	699.096
255.220	22.021	883.148	699.170
256.234	22.022	882.579	698.665
257.249	21.868	881.942	697.485
258.263	21.734	881.001	696.145
259.278	21.757	880.680	695.924
260.293	21.822	880.238	695.771
261.307	22.036	879.466	695.947
262.322	21.866	878.688	694.597
263.336	21.749	878.331	693.789
264.351	21.226	876.961	690.579
265.366	20.090	874.871	684.386
266.380	19.792	873.602	682.158
267.395	20.916	874.058	686.889
268.409	21.446	874.567	689.318
269.424	21.440	873.898	688.706
270.439	21.538	873.442	688.668
271.453	21.755	872.904	689.037
272.468	21.594	872.524	688.044
273.482	21.806	871.676	688.145
274.497	21.991	870.933	688.223
275.512	21.909	869.876	687.005
276.526	21.258	868.469	683.290
277.541	21.364	868.423	683.609
278.555	21.841	868.169	685.210
279.570	21.508	867.320	683.180
280.585	21.336	866.684	681.949
281.599	21.525	866.265	682.295
282.614	21.446	866.019	681.735
283.628	21.256	864.433	679.685
284.643	20.771	863.868	677.295
285.657	21.268	863.532	678.905
286.672	21.007	863.220	677.582
287.687	20.655	862.007	675.206
288.701	21.088	861.656	676.549
289.716	21.290	861.706	677.313
290.730	21.165	860.514	675.831
291.745	20.966	859.987	674.589
292.760	20.829	858.944	673.180
293.774	20.778	857.860	672.076
294.789	21.620	859.062	676.209
295.803	22.177	859.084	678.319
296.818	22.193	858.246	677.657
297.833	22.357	857.834	677.907
298.847	22.138	856.686	676.094
299.862	21.718	855.441	673.437
300.876	21.884	855.485	674.052
301.891	22.114	855.194	674.646
302.906	22.213	854.411	674.349
303.920	21.847	853.293	672.005
304.935	21.735	852.764	671.099
305.949	22.061	852.421	672.016
306.964	22.214	852.011	672.221
307.979	21.994	851.158	670.647
308.993	22.051	850.677	670.427
310.008	22.137	850.798	670.790
311.022	22.345	850.094	670.970
312.037	22.316	848.999	669.934
313.052	22.033	849.052	668.838
314.066	21.986	848.009	667.779
315.081	21.367	846.235	663.974
316.095	20.687	845.154	660.487
317.110	21.076	845.617	662.267
318.125	21.974	845.600	665.601
319.139	21.508	844.413	662.844
320.154	20.424	843.000	657.574
321.168	20.025	841.748	655.031
322.183	20.518	842.094	657.106
323.197	21.328	842.860	660.710
324.212	21.795	842.528	662.156
325.227	21.878	841.906	661.921
326.241	22.089	841.498	662.339
327.256	22.050	840.357	661.235
328.270	22.032	839.892	660.743
329.285	21.738	839.333	659.138
330.300	21.660	838.822	658.386
331.314	21.404	838.088	656.792
332.329	21.399	837.417	656.189
333.343	21.888	837.224	657.813
334.358	22.117	836.872	658.336
335.373	22.097	835.836	657.388
336.387	22.160	835.316	657.155
337.402	22.293	835.638	657.851
338.416	22.554	834.951	658.226
339.431	22.515	834.436	657.615
340.446	22.437	833.912	656.853
341.460	22.759	833.239	657.463
342.475	22.503	832.825	656.127
343.489	22.382	831.965	654.940
344.504	22.406	831.550	654.643
345.519	22.606	831.671	655.426
346.533	22.902	830.494	655.539
347.548	22.840	830.306	655.101
348.562	23.027	829.714	655.269
349.577	22.898	829.822	654.819
350.592	22.961	828.582	654.015
351.606	22.818	828.336	653.235
352.621	22.813	828.019	652.910
353.635	22.719	827.307	651.942
354.650	22.649	826.810	651.234
355.665	22.312	825.707	649.066
356.679	21.433	823.901	644.351
357.694	21.244	823.585	643.352
358.708	21.962	823.500	645.870
359.723	21.796	822.767	644.629
360.738	22.042	822.984	645.645
361.752	22.464	822.957	647.120
362.767	22.582	822.305	646.982
363.781	22.974	822.272	648.336
364.796	23.140	821.866	648.567
365.810	23.196	821.292	648.262
366.825	23.221	821.057	648.110
367.840	23.236	820.520	647.684
368.854	23.042	819.857	646.397
369.869	22.496	819.173	643.805
370.883	22.441	818.396	642.936
371.898	22.714	817.852	643.447
372.913	22.498	817.326	642.190
373.927	22.393	816.613	641.189
374.942	22.733	815.885	641.798
375.956	22.937	815.203	641.947
376.971	22.965	814.688	641.587
377.986	22.935	814.852	641.548
379.000	23.249	814.073	642.018
380.015	23.299	813.365	641.585
381.029	23.022	812.923	640.174
382.044	22.920	812.509	639.425
383.059	23.064	812.058	639.533
384.073	23.088	811.366	639.020
385.088	23.233	810.791	639.033
386.102	23.153	810.448	638.416
387.117	22.998	809.568	637.108
388.132	22.892	809.093	636.296
389.146	22.707	808.219	634.886
390.161	22.190	807.418	632.343
391.175	22.304	807.004	632.373
392.190	22.791	807.410	634.383
393.205	22.847	806.679	633.954
394.219	21.924	805.240	629.459
395.234	20.293	802.517	621.438
396.248	19.545	801.670	618.052
397.263	20.799	802.227	622.914
398.278	22.402	803.913	629.911
399.292	22.827	804.113	631.530
400.307	22.583	802.701	629.497
401.321	22.502	802.578	629.054
402.336	22.565	802.458	629.129
403.350	22.764	802.401	629.740
404.365	23.189	802.271	631.099
405.380	23.618	801.626	632.061
406.394	23.660	801.870	632.348
407.409	24.059	801.437	633.373
408.423	23.795	800.735	631.821
409.438	23.750	800.294	631.257
410.453	23.719	799.920	630.796
411.467	24.110	799.063	631.454
412.482	23.963	798.787	630.658
413.496	23.738	798.264	629.391
414.511	23.846	797.854	629.394
415.526	23.854	797.637	629.197
416.540	23.763	797.604	628.792
417.555	23.674	797.099	628.023
418.569	23.598	795.850	626.717
419.584	23.629	795.233	626.286
420.599	23.611	794.982	625.968
421.613	155.006	1365.132	1795.512
422.628	134.286	1448.198	1795.588
