DTS Sentinel unit serial number:	SN413079Multiplexer serial number:	ORYXHardware model number:	OX4-SRSoftware version number:	ORYX F/W v4.00 Oryx Data Collector v3.7.2.0data status	okinstallation	princeton_trtdifferential loss correction	single-endedforward channel	channel 3reverse channel	N/Adate	2019/09/10time	20:46:11forward acquisition time	60.00reverse acquisition time	0.00gamma	496.2192k internal	0.2327k external	0.2327temperature offset calibration	0.9919default loss term (dB/km)	0.3790temperature slope calibration	1.0000multiplexer offset coefficient	1.0000multiplexer slope coefficient	1.0000fibre end	0.00T internal ref (°C)	31.81T ext. ref 1 (°C)	-0.32T ext. ref 2 (°C)	25.26length (m)	temperature (°C)	Stokes	anti-Stokes-747.200	106.827	0.145	0.174
-746.185	452.579	-0.053	-0.117
-745.171	-9.708	-0.206	-0.138
-744.156	-149.375	-0.300	-0.024
-743.142	-200.000	0.054	-0.330
-742.127	149.685	-0.150	-0.204
-741.112	-124.974	0.432	-0.067
-740.098	-200.000	-0.007	0.264
-739.083	-200.000	0.003	-0.139
-738.069	-103.114	0.244	-0.058
-737.054	82.363	-0.177	0.193
-736.039	576.199	-0.041	-0.100
-735.025	-46.915	0.193	0.095
-734.010	53.517	-0.072	0.070
-732.996	-22.523	0.108	-0.066
-731.981	-128.935	-0.289	0.041
-730.966	-100.308	-0.085	-0.021
-729.952	41.476	0.130	-0.118
-728.937	-79.365	-0.406	0.139
-727.923	255.793	-0.213	0.368
-726.908	102.770	-0.323	-0.381
-725.894	-72.236	0.022	0.008
-724.879	140.150	-0.145	0.193
-723.864	-110.061	-0.197	-0.042
-722.850	-200.000	-0.013	0.169
-721.835	-49.824	0.468	0.224
-720.821	179.405	-0.084	-0.124
-719.806	800.000	0.025	0.097
-718.791	265.219	-0.158	-0.278
-717.777	-200.000	-0.010	-0.070
-716.762	160.262	0.061	0.086
-715.748	48.101	0.248	0.233
-714.733	-70.422	0.147	0.056
-713.718	-200.000	-0.045	-0.389
-712.704	270.253	0.187	-0.332
-711.689	800.000	0.128	0.373
-710.675	33.622	-0.075	0.066
-709.660	13.143	0.128	-0.100
-708.645	259.596	-0.125	-0.217
-707.631	-9.602	0.202	0.136
-706.616	682.133	0.056	0.146
-705.602	-200.000	0.048	-0.273
-704.587	103.526	0.060	0.071
-703.572	-33.564	0.024	0.013
-702.558	40.804	-0.055	-0.050
-701.543	-115.174	-0.151	0.029
-700.529	-4.627	0.149	0.103
-699.514	-200.000	0.004	-0.130
-698.499	-29.889	0.257	0.147
-697.485	-200.000	-0.026	0.266
-696.470	102.764	0.225	-0.265
-695.456	662.531	0.108	0.280
-694.441	800.000	-0.131	-0.406
-693.426	-33.555	0.131	-0.073
-692.412	-200.000	-0.009	0.176
-691.397	115.320	0.231	-0.284
-690.383	-81.791	0.038	-0.013
-689.368	362.453	-0.066	-0.133
-688.354	-200.000	-0.062	0.329
-687.339	467.511	0.067	0.151
-686.324	-200.000	-0.006	-0.105
-685.310	800.000	0.020	-0.062
-684.295	-18.047	0.092	0.058
-683.281	136.802	-0.115	-0.151
-682.266	32.436	-0.102	0.089
-681.251	-200.000	-0.013	-0.065
-680.237	112.089	0.184	0.224
-679.222	-155.197	-0.204	-0.013
-678.208	-5.346	0.137	-0.094
-677.193	-200.000	0.022	-0.129
-676.178	-43.079	-0.238	-0.121
-675.164	-87.100	-0.112	-0.034
-674.149	800.000	-0.046	0.139
-673.135	800.000	-0.076	-0.268
-672.120	-35.769	-0.472	-0.257
-671.105	-121.010	-0.044	-0.007
-670.091	-171.758	0.047	0.002
-669.076	90.967	-0.093	0.105
-668.062	41.839	-0.176	-0.161
-667.047	-200.000	-0.005	0.086
-666.032	479.151	0.057	-0.130
-665.018	-14.975	0.549	0.353
-664.003	-200.000	-0.022	-0.223
-662.989	-177.293	-0.237	0.006
-661.974	546.319	0.227	-0.546
-660.959	757.957	0.041	-0.112
-659.945	-200.000	0.002	0.112
-658.930	180.847	-0.222	-0.328
-657.916	18.358	0.037	-0.030
-656.901	-10.072	0.137	0.092
-655.886	800.000	0.020	0.056
-654.872	800.000	-0.101	0.441
-653.857	23.813	0.185	0.153
-652.843	-119.153	0.244	0.043
-651.828	800.000	0.117	-0.329
-650.814	-95.010	-0.155	-0.042
-649.799	676.170	0.074	-0.193
-648.784	167.559	0.056	-0.080
-647.770	265.445	-0.048	-0.084
-646.755	-200.000	-0.010	0.085
-645.741	-113.105	-0.342	-0.068
-644.726	40.221	-0.163	-0.148
-643.711	-95.013	-0.190	-0.052
-642.697	-140.834	-0.044	0.005
-641.682	-200.000	0.034	-0.182
-640.668	-12.902	0.180	0.118
-639.653	-200.000	-0.011	-0.299
-638.638	28.377	-0.134	0.114
-637.624	208.068	0.171	-0.269
-636.609	164.779	-0.192	-0.272
-635.595	328.311	-0.082	-0.158
-634.580	-200.000	0.023	0.181
-633.565	800.000	-0.093	0.259
-632.551	-200.000	0.017	0.156
-631.536	-101.012	-0.066	0.016
-630.522	35.792	0.220	-0.194
-629.507	156.830	-0.144	-0.200
-628.492	436.242	0.088	-0.193
-627.478	-200.000	-0.018	-0.301
-626.463	-59.783	0.082	0.035
-625.449	72.127	0.113	-0.118
-624.434	-55.206	-0.222	-0.100
-623.419	-76.530	-0.304	0.107
-622.405	-200.000	0.041	-0.190
-621.390	-200.000	-0.028	0.199
-620.376	142.615	-0.022	0.030
-619.361	-114.343	0.231	-0.045
-618.346	34.899	-0.132	-0.116
-617.332	-111.119	-0.221	-0.045
-616.317	-86.507	0.282	-0.087
-615.303	-46.047	-0.155	0.077
-614.288	-39.390	-0.317	-0.167
-613.273	12.562	-0.165	0.128
-612.259	62.862	-0.177	-0.178
-611.244	167.370	0.150	-0.213
-610.230	547.855	-0.075	-0.180
-609.215	-200.000	0.002	0.079
-608.201	619.740	0.074	-0.186
-607.186	579.867	-0.143	-0.351
-606.171	-106.371	-0.122	-0.027
-605.157	-52.154	-0.151	-0.070
-604.142	-70.151	-0.186	-0.071
-603.128	800.000	0.088	0.290
-602.113	-75.918	-0.131	0.047
-601.098	-200.000	-0.050	-0.224
-600.084	50.613	0.055	-0.052
-599.069	-109.588	0.242	-0.051
-598.055	-92.138	-0.213	0.060
-597.040	321.022	0.061	-0.117
-596.025	-200.000	0.026	-0.153
-595.011	144.580	-0.059	-0.078
-593.996	38.540	-0.389	-0.348
-592.982	-3.198	-0.277	0.194
-591.967	800.000	-0.131	0.566
-590.952	-109.788	0.690	0.145
-589.938	360.410	-0.069	0.138
-588.923	-200.000	-0.006	0.190
-587.909	800.000	-0.045	-0.151
-586.894	31.210	0.206	-0.177
-585.879	31.875	0.040	-0.034
-584.865	-200.000	0.046	-0.221
-583.850	-1.973	-0.058	-0.041
-582.836	21.168	-0.215	-0.175
-581.821	800.000	-0.026	-0.102
-580.806	42.702	-0.107	-0.098
-579.792	800.000	0.120	0.336
-578.777	62.386	0.085	-0.085
-577.763	-200.000	-0.022	-0.191
-576.748	-148.195	0.361	-0.030
-575.733	607.440	-0.073	0.183
-574.719	-166.466	0.423	-0.018
-573.704	-156.848	-0.243	0.015
-572.690	-101.897	-0.241	-0.058
-571.675	75.379	0.062	0.065
-570.661	4.364	0.158	0.116
-569.646	-112.590	0.376	-0.075
-568.631	-56.491	0.238	-0.106
-567.617	800.000	-0.124	0.517
-566.602	-25.787	0.319	0.188
-565.588	800.000	-0.069	0.270
-564.573	582.383	0.120	0.294
-563.558	228.573	0.073	-0.120
-562.544	-103.312	0.130	-0.031
-561.529	-94.371	0.083	-0.023
-560.515	-107.488	-0.209	-0.046
-559.500	98.070	-0.149	-0.172
-558.485	187.429	-0.101	-0.151
-557.471	-85.606	0.323	0.101
-556.456	354.640	-0.154	0.307
-555.442	-33.217	0.191	0.106
-554.427	-16.514	-0.091	0.058
-553.412	800.000	-0.071	0.209
-552.398	-92.950	-0.431	-0.120
-551.383	296.512	-0.045	0.082
-550.369	-200.000	0.011	-0.294
-549.354	-102.935	-0.158	0.038
-548.339	-48.316	-0.483	-0.233
-547.325	-200.000	-0.066	-0.344
-546.310	7.464	0.326	0.244
-545.296	-83.924	0.199	-0.064
-544.281	-200.000	-0.060	0.326
-543.266	-159.895	0.450	-0.025
-542.252	-77.875	0.145	-0.050
-541.237	-200.000	-0.013	-0.095
-540.223	-133.103	0.134	-0.017
-539.208	800.000	0.102	0.358
-538.193	10.121	-0.221	0.168
-537.179	2.287	0.149	0.108
-536.164	67.246	0.232	-0.236
-535.150	800.000	0.151	-0.475
-534.135	117.680	0.083	-0.102
-533.121	345.612	0.026	-0.050
-532.106	-66.484	-0.089	0.035
-531.091	-83.337	-0.055	-0.018
-530.077	-160.760	0.321	0.017
-529.062	-77.650	-0.218	0.075
-528.048	-200.000	-0.067	0.312
-527.033	-31.328	-0.242	0.136
-526.018	-147.103	0.317	-0.027
-525.004	-9.741	-0.032	0.021
-523.989	-200.000	-0.022	0.298
-522.975	-128.667	0.326	-0.046
-521.960	-21.196	0.223	-0.137
-520.945	156.288	0.217	0.299
-519.931	107.253	0.290	-0.345
-518.916	800.000	0.100	0.301
-517.902	-25.225	-0.160	-0.095
-516.887	96.193	0.228	0.261
-515.872	-153.444	0.196	-0.014
-514.858	-75.634	0.228	0.081
-513.843	-122.818	0.136	-0.022
-512.829	134.436	-0.074	0.096
-511.814	217.349	-0.007	0.011
-510.799	-200.000	0.008	0.458
-509.785	1.270	0.087	-0.063
-508.770	126.808	0.070	0.089
-507.756	-52.401	0.196	0.090
-506.741	800.000	-0.043	0.131
-505.726	-53.553	-0.122	-0.056
-504.712	33.459	0.290	-0.251
-503.697	800.000	-0.028	0.111
-502.683	197.780	-0.089	-0.136
-501.668	-69.041	-0.332	0.128
-500.653	74.669	-0.149	0.156
-499.639	7.644	-0.175	-0.131
-498.624	103.922	-0.112	0.131
-497.610	-34.568	0.298	0.163
-496.595	-78.376	0.058	-0.020
-495.581	-51.634	0.143	0.067
-494.566	43.265	-0.159	-0.145
-493.551	-11.210	-0.022	-0.015
-492.537	207.842	-0.099	-0.154
-491.522	-200.000	-0.082	0.460
-490.508	60.280	-0.246	-0.243
-489.493	-200.000	-0.005	0.282
-488.478	-82.244	-0.238	0.078
-487.464	-92.522	0.411	-0.115
-486.449	-173.424	0.065	-0.002
-485.435	-12.505	0.280	-0.182
-484.420	800.000	-0.036	-0.122
-483.405	-117.804	0.101	0.018
-482.391	2.442	-0.036	0.026
-481.376	12.098	0.165	0.126
-480.362	621.316	0.143	-0.359
-479.347	159.391	-0.102	0.142
-478.332	-200.000	-0.062	-0.331
-477.318	-155.305	0.223	0.014
-476.303	-146.614	0.197	-0.017
-475.289	-91.318	-0.268	-0.077
-474.274	-32.857	-0.159	-0.088
-473.259	29.585	0.184	0.156
-472.245	-68.244	0.051	0.020
-471.230	123.194	-0.088	0.110
-470.216	117.826	-0.212	-0.260
-469.201	70.293	0.098	0.101
-468.186	-115.464	0.278	-0.052
-467.172	-160.720	-0.279	-0.015
-466.157	-153.233	0.299	0.021
-465.143	-10.032	0.158	-0.105
-464.128	-40.173	0.273	0.142
-463.113	-79.398	-0.167	0.056
-462.099	395.231	0.117	-0.244
-461.084	-21.169	0.138	-0.084
-460.070	-123.608	0.348	0.055
-459.055	800.000	-0.078	0.219
-458.040	-112.615	0.576	0.114
-457.026	-23.401	-0.294	-0.176
-456.011	136.517	0.045	0.059
-454.997	238.576	0.150	0.248
-453.982	-40.139	-0.279	0.145
-452.968	-200.000	0.023	0.131
-451.953	800.000	0.031	0.121
-450.938	800.000	-0.057	-0.178
-449.924	-129.667	0.257	-0.035
-448.909	199.920	0.119	-0.182
-447.895	-100.812	0.224	0.055
-446.880	800.000	0.099	-0.291
-445.865	449.823	0.088	-0.194
-444.851	617.498	-0.088	-0.220
-443.836	-5.009	-0.079	-0.054
-442.822	800.000	0.012	0.049
-441.807	-59.606	-0.219	-0.094
-440.792	-14.192	0.307	0.197
-439.778	-139.129	0.027	-0.003
-438.763	-175.075	-0.367	-0.010
-437.749	-131.129	0.151	-0.020
-436.734	-200.000	0.004	0.197
-435.719	-43.789	0.155	-0.078
-434.705	-72.367	-0.246	0.091
-433.690	800.000	-0.078	-0.283
-432.676	196.089	0.042	-0.064
-431.661	-87.743	0.162	-0.049
-430.646	-65.432	-0.104	-0.042
-429.632	-128.965	0.385	-0.054
-428.617	54.874	0.168	-0.162
-427.603	-86.106	0.033	-0.010
-426.588	-60.904	-0.179	-0.076
-425.573	-96.593	0.144	0.038
-424.559	-132.467	-0.077	0.010
-423.544	118.031	0.389	-0.477
-422.530	-200.000	0.058	-0.338
-421.515	-46.775	-0.154	0.075
-420.500	-200.000	0.014	0.137
-419.486	604.994	-0.031	-0.076
-418.471	441.412	0.030	-0.065
-417.457	-159.423	0.174	-0.010
-416.442	-64.333	0.080	0.032
-415.428	-91.245	0.393	0.112
-414.413	-149.130	-0.309	-0.025
-413.398	-22.847	-0.139	0.083
-412.384	1.442	-0.146	0.105
-411.369	-98.283	-0.354	-0.091
-410.355	119.137	-0.140	-0.172
-409.340	-30.183	-0.181	0.103
-408.325	40.390	-0.077	0.069
-407.311	-52.602	0.121	0.055
-406.296	3.480	-0.193	-0.140
-405.282	-94.321	-0.116	-0.031
-404.267	-161.318	0.395	0.020
-403.252	650.060	-0.097	-0.248
-402.238	-109.601	0.162	-0.034
-401.223	800.000	0.007	0.025
-400.209	291.183	-0.068	-0.124
-399.194	-78.837	-0.425	0.144
-398.179	-200.000	-0.031	0.252
-397.165	-169.861	-0.329	-0.012
-396.150	389.330	-0.098	0.202
-395.136	-200.000	-0.037	0.309
-394.121	-200.000	-0.002	0.303
-393.106	-200.000	-0.035	0.174
-392.092	-69.532	0.053	-0.020
-391.077	8.000	-0.323	-0.241
-390.063	346.632	-0.191	0.373
-389.048	-103.079	0.055	0.013
-388.033	521.713	0.179	0.419
-387.019	409.681	0.129	0.271
-386.004	625.367	0.023	0.059
-384.990	-40.520	0.094	-0.049
-383.975	-200.000	-0.020	-0.181
-382.960	-137.149	0.229	-0.026
-381.946	-93.668	-0.280	-0.077
-380.931	-32.809	-0.201	-0.111
-379.917	-200.000	-0.000	0.215
-378.902	238.882	-0.174	0.288
-377.888	-65.397	0.267	-0.107
-376.873	-200.000	0.028	-0.241
-375.858	-147.803	-0.156	-0.013
-374.844	80.307	0.233	0.250
-373.829	800.000	0.048	0.141
-372.815	197.109	-0.018	0.028
-371.800	-165.373	-0.104	-0.005
-370.785	273.813	-0.027	-0.047
-369.771	800.000	-0.070	-0.266
-368.756	-200.000	-0.009	0.266
-367.742	-57.993	0.192	-0.083
-366.727	413.984	-0.069	0.145
-365.712	445.382	-0.124	0.270
-364.698	62.244	0.008	0.008
-363.683	25.567	0.275	0.228
-362.669	530.173	-0.108	0.253
-361.654	-33.498	-0.143	-0.079
-360.639	-165.797	-0.178	-0.008
-359.625	-11.092	0.069	-0.045
-358.610	-2.751	0.219	-0.152
-357.596	239.006	-0.179	-0.295
-356.581	19.571	0.101	-0.081
-355.566	646.800	0.045	-0.113
-354.552	-200.000	-0.044	-0.232
-353.537	-200.000	0.019	0.227
-352.523	-200.000	-0.073	0.419
-351.508	-110.260	0.110	0.023
-350.493	-67.411	-0.149	0.058
-349.479	32.526	0.232	0.199
-348.464	-200.000	-0.069	0.664
-347.450	98.920	-0.051	0.058
-346.435	800.000	-0.087	-0.256
-345.420	-200.000	0.023	0.221
-344.406	-200.000	0.010	-0.053
-343.391	29.326	0.031	-0.026
-342.377	-99.185	-0.244	-0.061
-341.362	317.456	-0.095	0.179
-340.348	-118.200	0.063	0.011
-339.333	583.452	0.073	-0.178
-338.318	-25.756	0.151	0.088
-337.304	800.000	0.013	-0.053
-336.289	-200.000	-0.041	0.344
-335.275	-200.000	0.086	-0.559
-334.260	-39.542	-0.108	-0.056
-333.245	-89.841	-0.096	-0.028
-332.231	116.603	-0.100	0.122
-331.216	-24.230	0.210	0.124
-330.202	137.478	-0.161	0.209
-329.187	-81.471	-0.160	0.052
-328.172	90.744	-0.151	0.168
-327.158	96.728	0.181	0.205
-326.143	23.734	0.164	-0.134
-325.129	658.680	0.067	0.170
-324.114	-78.013	-0.160	0.055
-323.099	-15.544	0.124	-0.079
-322.085	6.179	0.164	-0.120
-321.070	-200.000	0.026	-0.123
-320.056	-116.043	-0.261	-0.048
-319.041	675.046	-0.160	-0.411
-318.026	-49.944	0.117	-0.055
-317.012	749.990	0.047	-0.126
-315.997	800.000	-0.066	-0.195
-314.983	-200.000	-0.081	-0.473
-313.968	-175.742	-0.232	0.006
-312.953	259.423	0.078	0.134
-311.939	-119.287	-0.061	-0.011
-310.924	-200.000	-0.006	0.064
-309.910	84.603	-0.147	-0.160
-308.895	-112.971	-0.145	0.028
-307.880	-138.838	0.312	-0.034
-306.866	125.475	-0.180	0.225
-305.851	-3.005	-0.034	0.024
-304.837	70.754	-0.125	-0.128
-303.822	115.054	0.167	-0.202
-302.807	-57.392	0.287	0.125
-301.793	554.799	0.105	-0.250
-300.778	99.785	-0.198	-0.227
-299.764	143.048	0.129	0.171
-298.749	318.708	-0.070	-0.131
-297.735	308.700	0.081	-0.150
-296.720	-200.000	0.004	0.063
-295.705	-200.000	0.028	-0.201
-294.691	495.515	-0.028	-0.064
-293.676	800.000	-0.014	0.050
-292.662	265.873	0.166	-0.287
-291.647	-200.000	-0.023	-0.163
-290.632	800.000	0.050	0.216
-289.618	74.392	-0.184	0.192
-288.603	269.554	-0.163	-0.283
-287.589	-200.000	-0.009	0.158
-286.574	-200.000	-0.011	0.178
-285.559	800.000	-0.034	0.099
-284.545	-43.311	0.296	-0.148
-283.530	4.236	0.207	0.150
-282.516	800.000	0.029	0.088
-281.501	-200.000	0.066	0.293
-280.486	441.188	-0.034	-0.074
-279.472	243.327	0.099	0.164
-278.457	-30.035	-0.352	0.198
-277.443	800.000	0.031	0.087
-276.428	47.821	0.119	-0.110
-275.413	710.699	-0.124	-0.326
-274.399	-80.134	-0.215	-0.071
-273.384	-113.691	0.020	0.004
-272.370	800.000	0.120	0.454
-271.355	123.186	0.140	-0.174
-270.340	-21.964	-0.070	0.042
-269.326	800.000	0.091	-0.349
-268.311	-79.268	0.310	-0.104
-267.297	42.895	-0.133	-0.120
-266.282	22.221	-0.098	0.079
-265.267	246.408	0.117	-0.195
-264.253	-200.000	0.039	-0.182
-263.238	-22.697	-0.164	0.098
-262.224	92.133	0.056	-0.062
-261.209	-81.970	0.206	-0.067
-260.195	-93.096	-0.178	-0.049
-259.180	800.000	0.065	0.186
-258.165	92.561	-0.166	0.185
-257.151	35.973	-0.234	0.204
-256.136	-147.903	-0.395	0.033
-255.122	20.271	-0.296	0.237
-254.107	-200.000	0.013	0.108
-253.092	12.366	0.099	-0.076
-252.078	82.361	-0.064	-0.069
-251.063	36.943	-0.102	-0.090
-250.049	195.775	0.075	0.113
-249.034	259.161	0.071	-0.120
-248.019	274.180	-0.201	0.352
-247.005	-13.687	-0.222	0.142
-245.990	-147.183	0.434	0.037
-244.976	556.218	-0.084	-0.200
-243.961	800.000	0.013	0.039
-242.946	-195.747	-0.256	-0.002
-241.932	28.254	-0.129	0.107
-240.917	800.000	-0.110	-0.348
-239.903	-17.301	-0.196	-0.122
-238.888	237.709	0.281	0.460
-237.873	-200.000	-0.021	0.115
-236.859	-200.000	0.034	-0.351
-235.844	148.475	0.103	0.137
-234.830	-139.215	0.305	-0.033
-233.815	402.505	0.057	-0.118
-232.800	68.958	0.180	0.183
-231.786	-200.000	-0.041	0.240
-230.771	-108.697	-0.059	0.013
-229.757	2.362	0.349	0.250
-228.742	-200.000	0.085	0.398
-227.727	-155.554	0.078	0.005
-226.713	16.178	0.210	-0.164
-225.698	219.237	-0.211	-0.333
-224.684	177.381	0.056	-0.080
-223.669	63.273	-0.080	-0.079
-222.655	-51.676	-0.211	0.097
-221.640	-170.271	-0.156	-0.005
-220.625	-92.025	-0.410	0.115
-219.611	56.420	-0.158	-0.151
-218.596	-161.997	-0.327	0.016
-217.582	-30.768	0.222	0.124
-216.567	-176.081	-0.315	-0.008
-215.552	-70.770	0.422	0.157
-214.538	-88.581	0.044	0.013
-213.523	152.398	0.097	0.130
-212.509	80.767	0.079	0.084
-211.494	-65.889	-0.148	0.058
-210.479	-200.000	-0.012	0.207
-209.465	-101.039	0.044	-0.011
-208.450	95.334	0.195	0.219
-207.436	-67.834	-0.374	-0.144
-206.421	-200.000	-0.037	-0.298
-205.406	-99.993	0.134	0.033
-204.392	5.029	0.094	-0.069
-203.377	160.684	-0.092	0.127
-202.363	79.076	-0.050	-0.053
-201.348	-60.820	0.076	-0.032
-200.333	-200.000	0.015	-0.074
-199.319	-148.828	0.123	-0.010
-198.304	157.042	-0.097	-0.133
-197.290	-144.289	-0.154	0.014
-196.275	-200.000	-0.028	0.416
-195.260	-65.196	-0.090	-0.036
-194.246	-200.000	-0.019	-0.228
-193.231	-55.512	-0.159	-0.070
-192.217	-200.000	0.024	-0.143
-191.202	61.749	-0.171	0.168
-190.187	115.054	-0.147	-0.177
-189.173	-139.532	-0.195	-0.021
-188.158	-45.699	-0.253	0.123
-187.144	-200.000	-0.048	-0.260
-186.129	-61.969	0.181	0.075
-185.114	800.000	-0.088	-0.347
-184.100	15.528	-0.221	-0.171
-183.085	-200.000	-0.027	-0.119
-182.071	532.400	-0.113	-0.264
-181.056	66.993	0.222	0.224
-180.042	-200.000	0.002	-0.061
-179.027	-200.000	0.009	0.159
-178.012	-200.000	0.363	0.001
-176.998	-127.734	0.139	-0.020
-175.983	800.000	-0.086	0.239
-174.969	131.683	0.212	-0.269
-173.954	-200.000	0.040	-0.329
-172.939	-200.000	-0.024	0.136
-171.925	12.807	-0.161	0.122
-170.910	670.946	0.047	0.121
-169.896	350.173	-0.029	0.056
-168.881	800.000	0.174	-0.488
-167.866	800.000	0.035	0.127
-166.852	-63.385	-0.348	0.141
-165.837	264.131	-0.051	0.087
-164.823	138.096	-0.063	0.081
-163.808	714.760	0.051	-0.135
-162.793	-179.022	-0.344	0.008
-161.779	-200.000	-0.027	0.161
-160.764	800.000	0.039	-0.127
-159.750	-146.055	0.185	0.016
-158.735	-129.595	-0.343	-0.047
-157.720	-200.000	0.036	-0.345
-156.706	216.796	0.294	0.461
-155.691	59.566	0.070	0.068
-154.677	-200.000	0.012	-0.070
-153.662	72.822	0.142	0.146
-152.647	-14.137	-0.135	0.086
-151.633	-200.000	-0.011	0.049
-150.618	406.753	-0.179	0.372
-149.604	541.442	0.082	0.192
-148.589	365.126	-0.144	-0.285
-147.574	358.652	-0.069	0.136
-146.560	-200.000	0.043	-0.207
-145.545	83.790	-0.154	-0.165
-144.531	-147.594	0.216	-0.018
-143.516	81.976	-0.171	-0.183
-142.502	4.083	0.166	-0.120
-141.487	-200.000	0.016	0.111
-140.472	-60.003	-0.311	-0.131
-139.458	-127.917	0.290	-0.041
-138.443	-74.769	0.151	0.053
-137.429	173.644	0.287	-0.408
-136.414	-31.264	0.235	-0.130
-135.399	-160.136	-0.120	-0.006
-134.385	800.000	0.031	0.099
-133.370	-110.778	-0.289	0.059
-132.356	41.725	0.176	0.157
-131.341	-151.894	0.174	-0.012
-130.326	-200.000	-0.013	-0.194
-129.312	-93.504	0.050	-0.014
-128.297	89.855	0.139	0.153
-127.283	109.208	0.084	0.099
-126.268	-164.597	-0.174	-0.008
-125.253	-80.190	-0.112	0.037
-124.239	-119.624	-0.142	-0.024
-123.224	322.482	0.081	0.152
-122.210	800.000	0.029	-0.124
-121.195	-11.666	0.181	0.117
-120.180	-200.000	0.012	-0.111
-119.166	185.949	-0.066	0.096
-118.151	800.000	0.035	0.127
-117.137	800.000	-0.061	-0.186
-116.122	395.507	0.096	0.197
-115.107	-67.839	0.344	-0.132
-114.093	22.803	0.204	0.164
-113.078	-14.991	0.192	-0.121
-112.064	-111.516	-0.327	-0.065
-111.049	9.501	0.153	0.114
-110.034	-88.868	-0.173	0.050
-109.020	-34.797	0.247	-0.133
-108.005	-36.319	0.149	0.079
-106.991	-129.912	0.178	0.024
-105.976	-148.232	-0.178	-0.014
-104.962	-45.723	0.320	0.156
-103.947	68.205	-0.209	0.211
-102.932	-158.341	-0.253	0.014
-101.918	800.000	0.035	0.138
-100.903	-200.000	-0.059	0.254
-99.889	-200.000	-0.039	0.412
-98.874	-40.074	-0.034	-0.018
-97.859	-103.074	0.377	0.088
-96.845	-44.795	0.312	0.153
-95.830	-44.292	-0.290	-0.143
-94.816	-82.304	-0.406	0.130
-93.801	248.091	-0.079	0.131
-92.786	228.469	0.064	0.103
-91.772	31.469	-0.220	-0.186
-90.757	-135.187	0.186	-0.022
-89.743	-75.605	0.177	0.062
-88.728	-87.775	0.090	0.027
-87.713	37.214	0.132	0.115
-86.699	456.245	0.089	-0.195
-85.684	91.884	0.094	-0.104
-84.670	54.270	0.038	-0.036
-83.655	-148.546	0.350	0.028
-82.640	-127.057	-0.181	0.026
-81.626	-133.723	0.085	0.010
-80.611	29.408	-0.154	0.128
-79.597	113.683	0.020	-0.024
-78.582	704.942	-0.083	0.214
-77.567	-200.000	-0.007	-0.048
-76.553	-112.385	-0.445	-0.087
-75.538	-200.000	0.010	0.337
-74.524	74.073	0.131	-0.135
-73.509	-200.000	-0.066	0.331
-72.494	317.020	0.076	-0.142
-71.480	-118.041	0.269	0.047
-70.465	726.611	0.086	0.225
-69.451	55.778	0.190	-0.181
-68.436	800.000	0.050	0.155
-67.422	-200.000	0.031	-0.151
-66.407	471.339	0.054	0.120
-65.392	28.926	0.084	-0.070
-64.378	213.857	-0.007	-0.011
-63.363	102.705	-0.098	-0.113
-62.349	-200.000	0.014	0.129
-61.334	62.103	-0.949	-0.929
-60.319	-200.000	0.022	0.337
-59.305	800.000	-0.302	-1.019
-58.290	458.260	0.594	1.297
-57.276	599.532	0.735	1.789
-56.261	-200.000	97.485	607.819
-55.246	617.284	1397.994	3443.438
-54.232	193.499	2587.701	3842.308
-53.217	117.311	2165.859	2613.243
-52.203	42.608	1705.500	1523.378
-51.188	35.119	1518.729	1305.685
-50.173	32.656	1492.632	1266.672
-49.159	51.885	1543.355	1441.616
-48.144	53.697	1560.127	1469.609
-47.130	35.256	1519.262	1306.871
-46.115	32.143	1504.275	1272.869
-45.100	31.901	1501.348	1268.711
-44.086	31.910	1499.137	1266.848
-43.071	31.911	1496.895	1264.911
-42.057	31.751	1495.982	1263.012
-41.042	31.872	1493.891	1262.013
-40.027	31.841	1492.753	1260.792
-39.013	31.920	1491.038	1259.820
-37.998	31.804	1489.884	1258.022
-36.984	31.790	1489.242	1257.332
-35.969	31.853	1487.661	1256.369
-34.954	31.779	1486.358	1254.728
-33.940	31.780	1484.823	1253.384
-32.925	31.840	1483.606	1252.713
-31.911	31.935	1481.787	1251.758
-30.896	31.942	1480.790	1250.911
-29.881	31.867	1479.312	1249.115
-28.867	31.787	1478.222	1247.612
-27.852	31.783	1477.506	1246.933
-26.838	31.826	1475.693	1245.642
-25.823	31.956	1473.536	1244.634
-24.809	31.846	1471.945	1242.512
-23.794	31.974	1470.046	1241.702
-22.779	31.834	1469.301	1240.099
-21.765	31.820	1468.304	1239.118
-20.750	31.815	1467.670	1238.499
-19.736	31.829	1466.186	1237.287
-18.721	31.829	1464.999	1236.236
-17.706	31.789	1464.026	1235.109
-16.692	31.803	1462.610	1233.957
-15.677	31.783	1462.038	1233.291
-14.663	31.771	1460.721	1232.055
-13.648	31.752	1460.052	1231.316
-12.633	31.760	1459.349	1230.726
-11.619	31.810	1458.071	1229.926
-10.604	31.765	1457.692	1229.262
-9.590	31.754	1456.569	1228.192
-8.575	31.837	1455.414	1227.718
-7.560	31.772	1454.694	1226.636
-6.546	31.727	1453.850	1225.578
-5.531	31.718	1452.944	1224.705
-4.517	31.652	1451.974	1223.412
-3.502	31.656	1451.072	1222.627
-2.487	31.575	1450.714	1221.749
-1.473	31.634	1449.336	1220.925
-0.458	31.750	1447.486	1220.077
0.556	29.433	1438.050	1208.648
1.571	26.496	1411.313	1167.160
2.586	22.925	1349.758	1094.082
3.600	21.186	1267.522	1017.210
4.615	19.916	1223.246	974.446
5.629	17.180	1167.288	915.068
6.644	8.291	1082.271	803.765
7.659	0.885	1040.967	737.054
8.673	-0.191	1035.195	727.688
9.688	-0.314	1032.281	724.979
10.702	-0.413	1030.669	723.306
11.717	-0.372	1028.575	721.971
12.731	2.575	1031.613	738.256
13.746	11.460	1044.088	790.291
14.761	17.892	1052.845	828.151
15.775	18.776	1053.008	832.497
16.790	18.773	1052.443	831.959
17.804	18.666	1051.284	830.451
18.819	18.509	1050.332	828.866
19.834	18.488	1049.475	828.014
20.848	18.517	1049.050	827.746
21.863	18.673	1048.810	828.239
22.877	18.611	1048.275	827.443
23.892	18.511	1047.565	826.329
24.907	18.530	1046.644	825.622
25.921	18.436	1046.491	824.972
26.936	18.599	1045.710	825.067
27.950	18.573	1044.288	823.748
28.965	18.570	1043.036	822.675
29.980	18.462	1041.411	820.801
30.994	18.428	1039.820	819.313
32.009	18.517	1039.231	819.204
33.023	18.660	1038.660	819.362
34.038	18.418	1037.109	816.910
35.053	18.435	1036.142	816.158
36.067	18.638	1035.762	816.753
37.082	18.634	1034.674	815.808
38.096	18.772	1033.733	815.648
39.111	18.824	1033.425	815.578
40.126	18.956	1032.181	815.148
41.140	18.778	1030.900	813.223
42.155	18.638	1029.377	811.287
43.169	18.252	1027.988	808.299
44.184	18.423	1026.910	808.188
45.199	18.414	1026.036	807.384
46.213	18.284	1024.852	805.769
47.228	18.294	1023.623	804.780
48.242	18.284	1023.023	804.190
49.257	18.416	1022.188	804.082
50.271	18.440	1021.140	803.300
51.286	18.604	1020.309	803.340
52.301	18.520	1019.982	802.620
53.315	18.563	1018.799	801.818
54.330	18.604	1018.140	801.423
55.344	18.581	1017.184	800.492
56.359	18.570	1015.852	799.321
57.374	18.714	1015.130	799.354
58.388	18.471	1013.911	797.191
59.403	18.361	1013.661	796.410
60.417	18.463	1012.754	796.103
61.432	18.267	1011.882	794.439
62.447	18.420	1011.129	794.485
63.461	18.494	1010.411	794.192
64.476	18.459	1009.611	793.331
65.490	18.507	1008.658	792.734
66.505	18.555	1007.340	791.852
67.520	18.423	1006.959	790.875
68.534	18.414	1006.067	790.059
69.549	18.451	1004.695	789.083
70.563	18.117	1003.436	786.487
71.578	18.067	1003.077	785.910
72.593	18.053	1002.158	785.055
73.607	18.048	1001.133	784.158
74.622	17.975	1000.226	783.042
75.636	18.221	999.090	783.211
76.651	18.425	998.857	783.896
77.666	18.266	997.604	782.113
78.680	18.202	996.709	781.049
79.695	18.091	996.551	780.350
80.709	18.370	995.294	780.571
81.724	18.370	994.881	780.177
82.739	18.323	993.847	779.084
83.753	18.296	993.072	778.283
84.768	18.401	992.959	778.606
85.782	18.744	991.470	778.922
86.797	18.825	990.911	778.781
87.812	18.813	989.948	777.901
88.826	18.672	989.008	776.458
89.841	18.596	988.542	775.679
90.855	18.646	987.519	775.036
91.870	18.704	986.854	774.705
92.884	18.789	985.678	774.096
93.899	18.817	984.471	773.205
94.914	18.670	983.910	772.034
95.928	18.767	983.003	771.694
96.943	18.667	982.250	770.582
97.957	18.496	981.170	768.903
98.972	18.251	979.908	766.744
99.987	18.093	979.095	765.335
101.001	18.226	977.935	764.954
102.016	18.464	977.543	765.646
103.030	18.528	976.711	765.209
104.045	18.446	975.366	763.726
105.060	18.409	974.140	762.530
106.074	18.090	972.856	760.039
107.089	18.186	972.141	759.841
108.103	18.684	971.718	761.655
109.118	18.824	970.845	761.524
110.133	18.544	969.553	759.201
111.147	18.522	968.609	758.301
112.162	18.418	967.542	756.936
113.176	18.262	966.777	755.584
114.191	18.321	965.279	754.604
115.206	18.381	964.464	754.164
116.220	18.110	963.523	752.173
117.235	18.038	962.422	750.927
118.249	18.177	961.474	750.733
119.264	18.206	960.785	750.257
120.279	18.169	959.602	749.102
121.293	18.276	959.028	749.058
122.308	18.267	958.539	748.571
123.322	18.327	957.239	747.751
124.337	18.291	956.399	746.873
125.352	18.312	954.735	745.597
126.366	17.953	952.775	742.440
127.381	17.533	951.806	739.793
128.395	17.992	951.985	741.862
129.410	18.532	951.309	743.612
130.424	18.662	950.527	743.501
131.439	18.758	949.337	742.918
132.454	18.569	948.051	741.031
133.468	18.676	947.238	740.789
134.483	18.536	946.895	739.853
135.497	18.701	945.922	739.737
136.512	18.768	945.616	739.722
137.527	18.889	944.662	739.430
138.541	18.947	943.774	738.917
139.556	18.795	943.270	737.807
140.570	18.877	942.077	737.158
141.585	18.712	941.447	735.894
142.600	18.824	940.628	735.668
143.614	18.738	939.603	734.432
144.629	18.799	939.208	734.321
145.643	19.005	938.538	734.612
146.658	19.067	937.064	733.656
147.673	18.793	936.661	732.110
148.687	18.708	935.357	730.663
149.702	18.613	934.363	729.417
150.716	18.739	933.234	729.010
151.731	18.667	932.324	727.926
152.746	18.561	931.616	726.859
153.760	18.833	931.029	727.491
154.775	18.941	930.339	727.343
155.789	18.999	929.667	726.999
156.804	19.095	928.429	726.374
157.819	18.865	927.368	724.507
158.833	18.831	926.652	723.742
159.848	19.017	925.827	723.817
160.862	19.009	924.877	722.977
161.877	18.873	923.484	721.254
162.892	18.771	923.237	720.567
163.906	19.119	922.072	721.053
164.921	18.992	921.629	720.109
165.935	19.050	920.604	719.488
166.950	19.139	919.259	718.745
167.964	19.060	918.610	717.845
168.979	19.028	917.429	716.726
169.994	18.833	916.932	715.463
171.008	18.805	915.502	714.165
172.023	19.004	914.526	714.168
173.037	19.079	913.582	713.677
174.052	18.839	912.484	711.762
175.067	18.652	911.912	710.478
176.081	18.671	910.965	709.758
177.096	18.797	910.140	709.571
178.110	18.867	909.507	709.304
179.125	18.778	908.075	707.758
180.140	18.458	907.197	705.693
181.154	18.552	906.814	705.722
182.169	18.465	906.241	704.855
183.183	18.700	905.562	705.231
184.198	18.918	905.274	705.839
185.213	18.848	904.586	704.953
186.227	18.883	903.728	704.365
187.242	19.042	902.745	704.188
188.256	19.058	902.006	703.612
189.271	19.018	901.106	702.686
190.286	18.922	901.291	702.375
191.300	19.053	899.745	701.642
192.315	18.460	898.842	698.463
193.329	17.844	897.114	694.549
194.344	17.560	896.393	692.775
195.359	18.077	896.493	694.894
196.373	18.740	896.875	697.823
197.388	18.916	896.573	698.244
198.402	18.757	895.432	696.649
199.417	18.705	894.885	695.949
200.432	18.783	894.332	695.773
201.446	18.681	893.206	694.422
202.461	18.288	892.728	692.400
203.475	18.429	892.093	692.417
204.490	17.938	890.515	689.149
205.504	17.103	888.407	684.092
206.519	17.480	888.622	685.716
207.534	18.335	889.241	689.579
208.548	18.464	888.153	689.193
209.563	18.699	888.099	690.037
210.577	18.805	887.080	689.607
211.592	18.567	886.426	688.084
212.607	18.854	886.213	689.009
213.621	18.944	885.895	689.060
214.636	18.883	885.105	688.143
215.650	18.993	884.055	687.703
216.665	18.934	883.798	687.208
217.680	18.912	883.304	686.675
218.694	19.238	882.574	687.347
219.709	18.808	881.620	684.831
220.723	18.446	880.750	682.651
221.738	18.571	880.516	682.909
222.753	18.863	879.607	683.305
223.767	18.868	878.740	682.591
224.782	18.927	877.900	682.110
225.796	19.136	877.596	682.644
226.811	19.140	876.980	682.118
227.826	18.836	875.450	679.665
228.840	18.086	874.208	675.677
229.855	18.000	873.920	675.057
230.869	18.213	873.428	675.456
231.884	17.948	871.997	673.245
232.899	18.004	871.190	672.785
233.913	18.852	871.687	676.450
234.928	19.030	871.217	676.725
235.942	18.737	871.051	675.382
236.957	18.832	870.125	674.979
237.972	18.745	868.922	673.643
238.986	18.685	867.795	672.475
240.001	18.627	867.725	672.135
241.015	18.614	867.214	671.627
242.030	18.721	866.422	671.375
243.045	18.880	865.843	671.489
244.059	18.850	865.581	671.106
245.074	19.038	865.004	671.335
246.088	18.992	864.105	670.398
247.103	18.546	863.432	668.079
248.117	18.662	862.600	667.828
249.132	19.209	862.150	669.549
250.147	19.234	862.099	669.545
251.161	19.359	861.022	669.135
252.176	19.605	860.552	669.665
253.190	19.654	859.616	669.067
254.205	19.504	859.565	668.387
255.220	19.796	858.912	668.949
256.234	19.696	858.585	668.249
257.249	19.667	857.454	667.198
258.263	19.800	856.470	666.885
259.278	19.585	856.347	665.905
260.293	19.549	856.007	665.442
261.307	19.819	855.168	665.771
262.322	19.611	854.225	664.175
263.336	19.474	853.568	663.079
264.351	19.025	851.982	660.068
265.366	17.887	850.453	654.464
266.380	17.499	849.596	652.259
267.395	18.460	849.709	655.969
268.409	19.191	849.990	658.926
269.424	19.182	849.269	658.275
270.439	19.302	848.977	658.450
271.453	19.492	847.903	658.282
272.468	19.470	847.533	657.852
273.482	19.589	847.390	658.136
274.497	19.631	847.021	657.951
275.512	19.589	845.746	656.744
276.526	19.043	844.252	653.452
277.541	19.386	843.695	654.263
278.555	19.587	843.523	654.834
279.570	19.363	842.712	653.301
280.585	19.135	841.426	651.381
281.599	19.236	841.362	651.657
282.614	19.431	840.667	651.798
283.628	19.040	839.435	649.308
284.643	18.821	838.956	648.058
285.657	19.178	839.006	649.383
286.672	19.094	837.773	648.056
287.687	18.527	837.371	645.555
288.701	18.723	837.421	646.273
289.716	19.303	836.706	647.843
290.730	18.799	836.170	645.478
291.745	18.812	835.114	644.653
292.760	18.586	834.293	643.118
293.774	18.579	833.536	642.452
294.789	19.450	833.844	645.892
295.803	19.859	834.049	647.527
296.818	20.040	833.208	647.491
297.833	20.205	832.909	647.817
298.847	19.829	832.256	645.850
299.862	19.571	831.081	643.920
300.876	19.621	830.671	643.729
301.891	20.096	829.877	644.826
302.906	20.018	829.174	643.931
303.920	19.585	827.904	641.282
304.935	19.557	827.382	640.717
305.949	19.914	827.237	641.872
306.964	19.984	826.565	641.552
307.979	19.779	825.908	640.227
308.993	19.756	825.751	639.965
310.008	20.164	825.350	641.106
311.022	20.276	824.983	641.178
312.037	19.974	824.212	639.408
313.052	19.926	823.575	638.679
314.066	19.905	822.784	637.934
315.081	19.259	821.755	634.700
316.095	18.641	820.312	631.254
317.110	18.872	820.985	632.568
318.125	19.854	820.692	635.895
319.139	19.601	819.735	634.170
320.154	18.587	817.970	629.032
321.168	18.053	817.356	626.549
322.183	18.873	817.290	629.447
323.197	19.284	817.974	631.424
324.212	19.706	817.544	632.578
325.227	19.822	817.024	632.544
326.241	19.976	816.535	632.673
327.256	19.786	816.122	631.604
328.270	19.709	815.295	630.626
329.285	19.648	814.384	629.644
330.300	19.608	813.988	629.138
331.314	19.466	813.393	628.103
332.329	19.646	812.263	627.830
333.343	19.770	812.194	628.173
334.358	20.101	811.796	629.008
335.373	19.863	811.426	627.804
336.387	20.130	810.393	627.916
337.402	20.368	810.181	628.560
338.416	20.323	809.974	628.179
339.431	20.427	808.924	627.687
340.446	20.250	808.530	626.685
341.460	20.457	807.956	626.931
342.475	20.399	807.532	626.337
343.489	20.262	806.772	625.200
344.504	20.235	806.112	624.536
345.519	20.353	805.900	624.742
346.533	20.641	805.574	625.470
347.548	20.795	804.966	625.496
348.562	20.794	804.520	625.088
349.577	20.841	804.189	624.946
350.592	20.874	803.449	624.431
351.606	20.662	803.201	623.424
352.621	20.770	802.609	623.298
353.635	20.561	802.170	622.154
354.650	20.702	801.648	622.200
355.665	20.198	800.636	619.559
356.679	19.386	798.998	615.340
357.694	19.225	798.564	614.375
358.708	19.816	798.543	616.412
359.723	19.881	797.804	616.021
360.738	19.948	797.713	616.132
361.752	20.385	797.443	617.422
362.767	20.365	797.296	617.185
363.781	20.694	796.662	617.806
364.796	20.922	796.417	618.373
365.810	21.069	795.951	618.478
366.825	21.171	795.352	618.319
367.840	21.002	795.214	617.557
368.854	20.945	794.315	616.604
369.869	20.495	793.963	614.684
370.883	20.452	793.192	613.881
371.898	20.512	792.830	613.757
372.913	20.350	791.942	612.443
373.927	20.305	791.166	611.631
374.942	20.509	790.601	611.860
375.956	20.614	790.831	612.352
376.971	20.685	790.231	612.082
377.986	20.771	789.542	611.798
379.000	20.903	789.447	612.132
380.015	20.888	788.618	611.383
381.029	20.814	788.114	610.680
382.044	20.798	787.630	610.195
383.059	20.874	787.192	610.069
384.073	20.979	786.315	609.700
385.088	20.846	785.864	608.832
386.102	21.043	785.468	609.158
387.117	21.006	784.823	608.477
388.132	20.774	784.446	607.323
389.146	20.635	783.909	606.367
390.161	20.344	782.475	604.192
391.175	20.128	782.557	603.449
392.190	20.659	782.146	604.928
393.205	20.730	781.935	604.958
394.219	19.767	780.320	600.312
395.234	18.458	778.673	594.456
396.248	17.787	777.654	591.298
397.263	18.983	778.017	595.667
398.278	20.571	779.578	602.314
399.292	20.917	779.325	603.264
400.307	20.474	778.735	601.223
401.321	20.582	777.915	600.909
402.336	20.560	777.747	600.650
403.350	20.804	777.668	601.380
404.365	21.232	777.344	602.553
405.380	21.431	776.867	602.816
406.394	21.492	776.966	603.049
407.409	21.691	776.256	603.131
408.423	21.530	775.906	602.250
409.438	21.491	775.233	601.540
410.453	21.417	775.197	601.203
411.467	21.729	774.366	601.580
412.482	21.792	773.762	601.270
413.496	21.669	772.915	600.140
414.511	21.739	772.936	600.340
415.526	21.665	772.593	599.768
416.540	21.695	772.387	599.658
417.555	21.751	771.663	599.236
418.569	21.436	770.818	597.449
419.584	21.266	770.486	596.561
420.599	21.181	770.426	596.169
421.613	157.719	1360.018	1795.429
422.628	136.011	1445.920	1795.528
