DTS Sentinel unit serial number:	SN413079Multiplexer serial number:	ORYXHardware model number:	OX4-SRSoftware version number:	ORYX F/W v4.00 Oryx Data Collector v3.7.2.0data status	okinstallation	princeton_trtdifferential loss correction	single-endedforward channel	channel 3reverse channel	N/Adate	2019/09/11time	12:34:11forward acquisition time	60.00reverse acquisition time	0.00gamma	496.2192k internal	0.2294k external	0.2294temperature offset calibration	0.9936default loss term (dB/km)	0.3790temperature slope calibration	1.0000multiplexer offset coefficient	1.0000multiplexer slope coefficient	1.0000fibre end	0.00T internal ref (°C)	40.62T ext. ref 1 (°C)	0.21T ext. ref 2 (°C)	37.83length (m)	temperature (°C)	Stokes	anti-Stokes-747.200	-200.000	-0.048	-0.371
-746.185	-200.000	0.038	0.396
-745.171	372.390	-0.058	-0.120
-744.156	193.515	0.082	0.126
-743.142	-64.264	-0.134	-0.056
-742.127	-35.208	0.388	0.216
-741.112	48.072	0.239	-0.228
-740.098	606.038	0.071	0.181
-739.083	55.344	-0.117	0.116
-738.069	800.000	0.041	0.169
-737.054	-200.000	-0.043	-0.204
-736.039	156.395	-0.080	-0.113
-735.025	-153.204	0.164	-0.012
-734.010	-200.000	0.022	0.353
-732.996	-200.000	0.051	-0.315
-731.981	-24.705	0.013	0.008
-730.966	-200.000	0.013	0.130
-729.952	679.506	-0.070	-0.186
-728.937	-104.063	-0.239	-0.057
-727.923	-43.254	-0.217	-0.112
-726.908	670.749	0.044	-0.117
-725.894	146.005	-0.175	0.240
-724.879	-200.000	-0.008	0.324
-723.864	17.401	-0.192	-0.156
-722.850	-200.000	-0.042	0.330
-721.835	-177.067	-0.344	0.009
-720.821	422.191	-0.033	0.073
-719.806	-137.413	0.051	0.006
-718.791	93.072	-0.025	-0.029
-717.777	-200.000	-0.019	-0.161
-716.762	697.549	-0.023	-0.062
-715.748	100.787	-0.149	0.177
-714.733	800.000	-0.090	0.334
-713.718	-54.332	-0.103	0.048
-712.704	38.858	-0.065	0.060
-711.689	-200.000	0.076	0.387
-710.675	266.408	0.056	-0.100
-709.660	-62.178	0.267	0.114
-708.645	-154.138	0.200	-0.014
-707.631	130.460	-0.042	0.055
-706.616	42.745	-0.130	-0.121
-705.602	-200.000	0.024	-0.445
-704.587	190.048	-0.113	-0.173
-703.572	1.011	0.166	0.121
-702.558	-200.000	0.011	-0.225
-701.543	284.825	-0.248	-0.456
-700.529	238.962	0.170	-0.288
-699.514	-0.472	-0.164	0.119
-698.499	72.631	-0.116	-0.123
-697.485	0.738	-0.051	-0.037
-696.470	407.411	0.055	-0.119
-695.456	-85.643	-0.030	-0.009
-694.441	54.320	-0.159	-0.156
-693.426	21.508	-0.170	-0.142
-692.412	-54.233	0.101	-0.047
-691.397	800.000	-0.102	0.355
-690.383	800.000	-0.027	-0.109
-689.368	155.268	0.230	0.324
-688.354	310.101	0.172	-0.328
-687.339	-197.575	0.151	0.001
-686.324	21.615	-0.188	-0.156
-685.310	800.000	-0.026	-0.086
-684.295	800.000	-0.039	0.146
-683.281	649.653	-0.068	-0.177
-682.266	-109.425	-0.147	-0.032
-681.251	-200.000	-0.012	-0.184
-680.237	194.556	-0.141	-0.218
-679.222	800.000	-0.079	0.267
-678.208	-13.580	0.619	0.409
-677.193	-151.240	-0.267	0.020
-676.178	-172.510	-0.230	-0.007
-675.164	90.103	0.243	0.277
-674.149	-54.245	-0.077	-0.036
-673.135	800.000	-0.061	0.202
-672.120	5.502	0.137	-0.103
-671.105	464.994	0.046	-0.104
-670.091	-200.000	0.178	0.001
-669.076	17.175	0.260	-0.210
-668.062	-200.000	-0.008	-0.059
-667.047	-159.472	-0.254	0.014
-666.032	-200.000	-0.028	0.150
-665.018	-200.000	0.015	0.173
-664.003	319.822	-0.086	-0.166
-662.989	-100.898	-0.129	0.032
-661.974	-200.000	0.083	0.425
-660.959	800.000	-0.043	-0.123
-659.945	466.046	0.022	-0.050
-658.930	-81.807	-0.396	-0.132
-657.916	-96.546	0.084	0.023
-656.901	800.000	0.071	-0.286
-655.886	-144.724	-0.133	-0.012
-654.872	-109.006	-0.219	0.048
-653.857	93.646	0.147	0.170
-652.843	-200.000	0.022	-0.222
-651.828	-60.980	-0.291	0.125
-650.814	-109.425	-0.056	-0.012
-649.799	-122.602	-0.300	0.050
-648.784	-200.000	0.012	0.117
-647.770	-200.000	-0.036	0.207
-646.755	183.354	-0.173	0.261
-645.741	800.000	-0.060	-0.188
-644.726	453.849	0.080	-0.181
-643.711	800.000	-0.098	-0.308
-642.697	-104.491	-0.136	-0.032
-641.682	65.824	-0.180	0.186
-640.668	-11.436	0.039	-0.026
-639.653	636.912	-0.095	0.246
-638.638	-35.588	-0.158	0.087
-637.624	425.305	-0.055	0.120
-636.609	-200.000	-0.005	-0.292
-635.595	-91.651	0.144	-0.042
-634.580	132.742	-0.130	-0.171
-633.565	1.881	-0.335	-0.246
-632.551	63.003	0.150	0.153
-631.536	273.177	0.134	-0.241
-630.522	505.722	0.075	0.177
-629.507	92.908	-0.225	0.259
-628.492	82.716	-0.153	0.170
-627.478	-3.483	-0.208	-0.147
-626.463	295.200	-0.223	0.416
-625.449	29.099	-0.219	0.189
-624.434	40.205	0.307	-0.282
-623.419	-200.000	-0.001	0.451
-622.405	-133.417	0.247	0.032
-621.390	-102.035	0.483	-0.118
-620.376	-141.914	0.084	-0.009
-619.361	-200.000	-0.002	-0.155
-618.346	42.994	-0.200	-0.186
-617.332	-137.427	-0.224	-0.026
-616.317	100.798	0.260	-0.308
-615.303	83.487	-0.097	0.108
-614.288	217.598	-0.098	0.160
-613.273	-16.161	0.276	0.178
-612.259	155.061	-0.086	0.121
-611.244	102.608	-0.069	-0.082
-610.230	262.123	0.101	-0.178
-609.215	-124.440	0.168	0.027
-608.201	-6.384	-0.280	0.194
-607.186	-100.916	0.196	0.049
-606.171	800.000	0.085	-0.264
-605.157	-200.000	-0.006	-0.219
-604.142	-200.000	-0.081	-0.362
-603.128	-99.044	-0.238	-0.061
-602.113	-44.317	0.163	0.083
-601.098	86.473	-0.073	0.082
-600.084	800.000	0.051	-0.172
-599.069	86.402	0.216	0.242
-598.055	-161.973	-0.178	-0.009
-597.040	153.632	0.162	-0.225
-596.025	147.792	0.242	0.331
-595.011	-115.798	0.135	0.026
-593.996	800.000	0.032	-0.121
-592.982	-200.000	0.021	-0.107
-591.967	-32.466	0.204	-0.116
-590.952	263.144	0.117	-0.206
-589.938	-147.376	-0.049	0.004
-588.923	-117.940	0.178	-0.032
-587.909	-150.189	-0.174	0.014
-586.894	176.742	-0.239	-0.354
-585.879	-94.689	0.218	0.060
-584.865	-200.000	-0.021	0.157
-583.850	-8.861	0.050	-0.034
-582.836	50.118	-0.123	0.118
-581.821	-65.201	0.083	0.034
-580.806	54.733	-0.315	0.309
-579.792	-200.000	0.060	-0.338
-578.777	35.305	-0.143	0.127
-577.763	480.533	-0.110	0.253
-576.748	54.840	0.238	0.233
-575.733	800.000	0.027	-0.088
-574.719	-200.000	-0.032	-0.291
-573.704	-200.000	-0.006	-0.324
-572.690	-39.888	-0.194	-0.103
-571.675	-145.230	0.023	0.002
-570.661	800.000	-0.009	0.029
-569.646	2.653	-0.033	-0.024
-568.631	530.462	-0.077	0.184
-567.617	-46.456	0.320	0.159
-566.602	143.941	0.091	-0.123
-565.588	58.667	-0.243	-0.242
-564.573	-34.153	-0.444	0.248
-563.558	-200.000	0.041	-0.474
-562.544	-96.146	-0.059	0.016
-561.529	-200.000	0.038	0.327
-560.515	-200.000	0.001	-0.384
-559.500	-200.000	-0.005	-0.309
-558.485	-147.282	0.110	-0.010
-557.471	124.523	0.105	0.135
-556.456	-36.426	0.170	-0.093
-555.442	21.244	0.180	-0.149
-554.427	81.256	0.188	-0.206
-553.412	-61.812	-0.103	0.044
-552.398	-200.000	-0.007	-0.163
-551.383	80.421	0.124	0.136
-550.369	800.000	-0.089	-0.338
-549.354	-117.460	-0.101	-0.018
-548.339	-144.012	0.126	-0.012
-547.325	-43.464	-0.273	-0.140
-546.310	122.324	0.080	-0.101
-545.296	-114.715	0.067	-0.013
-544.281	-52.921	-0.295	-0.138
-543.266	104.563	-0.173	-0.207
-542.252	48.823	0.185	-0.176
-541.237	800.000	-0.049	-0.205
-540.223	-137.730	0.078	-0.009
-539.208	-200.000	0.038	-0.215
-538.193	-200.000	-0.031	-0.255
-537.179	-117.218	0.274	-0.051
-536.164	-139.687	-0.137	0.015
-535.150	800.000	0.061	0.208
-534.135	-200.000	0.017	0.286
-533.121	800.000	-0.021	-0.079
-532.106	151.745	0.084	0.115
-531.091	6.609	-0.487	-0.367
-530.077	-200.000	-0.067	-0.362
-529.062	-94.889	-0.189	0.052
-528.048	-200.000	0.029	0.185
-527.033	71.526	0.134	-0.141
-526.018	227.234	0.177	-0.291
-525.004	-33.025	0.307	-0.173
-523.989	43.042	-0.120	0.111
-522.975	-194.913	0.239	-0.002
-521.960	696.938	0.056	-0.149
-520.945	-21.777	-0.397	-0.245
-519.931	-200.000	-0.046	0.250
-518.916	-14.971	-0.158	-0.103
-517.902	70.940	-0.129	-0.136
-516.887	-102.820	-0.059	0.014
-515.872	800.000	-0.068	-0.263
-514.858	66.267	-0.301	0.310
-513.843	364.651	-0.045	0.092
-512.829	-176.882	0.212	-0.005
-511.814	-96.541	0.365	0.098
-510.799	485.707	-0.152	0.352
-509.785	56.420	0.190	0.187
-508.770	731.355	0.098	-0.264
-507.756	244.040	-0.039	0.066
-506.741	586.678	-0.155	0.387
-505.726	-96.754	-0.180	0.048
-504.712	188.595	0.169	0.257
-503.697	-1.087	-0.310	0.222
-502.683	294.430	-0.091	-0.168
-501.668	-83.736	-0.250	0.081
-500.653	6.570	-0.069	-0.052
-499.639	-200.000	-0.032	-0.346
-498.624	-118.527	0.055	-0.010
-497.610	46.154	0.088	-0.083
-496.595	20.310	0.299	0.245
-495.581	-151.304	0.271	0.020
-494.566	437.045	-0.144	-0.318
-493.551	-36.037	-0.107	0.059
-492.537	0.719	-0.262	-0.190
-491.522	608.349	-0.085	-0.215
-490.508	46.851	0.271	0.255
-489.493	30.651	0.086	0.075
-488.478	-200.000	-0.013	0.082
-487.464	-75.466	0.265	0.096
-486.449	45.013	-0.177	0.165
-485.435	285.385	-0.143	-0.261
-484.420	-107.491	0.281	-0.062
-483.405	-200.000	0.000	-0.186
-482.391	-30.897	0.148	-0.085
-481.376	-140.532	-0.171	-0.018
-480.362	-5.685	-0.295	-0.204
-479.347	-92.513	-0.079	-0.022
-478.332	46.010	0.216	-0.203
-477.318	-200.000	0.068	-0.367
-476.303	-177.977	-0.151	-0.004
-475.289	556.688	-0.219	-0.535
-474.274	-76.344	-0.293	-0.104
-473.259	66.366	-0.093	-0.096
-472.245	-178.682	0.162	0.004
-471.230	34.530	0.203	0.179
-470.216	-200.000	-0.009	-0.165
-469.201	-200.000	0.037	-0.540
-468.186	339.840	-0.075	-0.148
-467.172	246.130	-0.073	0.125
-466.157	-20.787	0.220	-0.137
-465.143	288.144	-0.177	-0.325
-464.128	-81.994	0.104	-0.034
-463.113	800.000	-0.044	-0.124
-462.099	-200.000	-0.011	-0.288
-461.084	800.000	0.018	-0.056
-460.070	723.927	-0.050	0.134
-459.055	-113.923	0.191	-0.038
-458.040	49.165	-0.262	0.249
-457.026	164.914	-0.052	0.074
-456.011	-200.000	-0.007	0.355
-454.997	76.017	-0.278	-0.297
-453.982	-50.876	0.277	-0.132
-452.968	800.000	0.087	0.257
-451.953	-110.956	-0.111	-0.023
-450.938	39.980	0.080	-0.073
-449.924	-78.011	-0.227	-0.079
-448.909	-59.753	0.220	-0.095
-447.895	-120.569	0.380	0.065
-446.880	35.131	-0.253	0.224
-445.865	16.271	-0.199	-0.158
-444.851	-71.394	-0.199	0.075
-443.836	-7.758	0.051	-0.035
-442.822	-56.134	0.214	0.096
-441.807	-108.401	0.306	0.067
-440.792	-77.734	0.293	0.102
-439.778	-114.583	0.315	0.061
-438.763	47.685	0.229	0.216
-437.749	800.000	-0.061	-0.195
-436.734	-200.000	0.019	-0.203
-435.719	227.952	0.157	-0.257
-434.705	800.000	0.041	-0.131
-433.690	1.694	-0.192	0.139
-432.676	-64.095	0.542	-0.223
-431.661	-18.327	-0.106	0.067
-430.646	-200.000	0.053	0.506
-429.632	-173.419	0.386	0.012
-428.617	368.960	-0.086	-0.175
-427.603	128.521	-0.140	0.180
-426.588	4.144	0.328	0.243
-425.573	322.167	-0.112	0.215
-424.559	-94.736	0.167	0.046
-423.544	120.540	0.047	0.058
-422.530	-200.000	-0.036	0.194
-421.515	-59.236	-0.096	0.042
-420.500	-200.000	0.052	0.236
-419.486	-200.000	-0.022	-0.255
-418.471	5.842	0.198	0.148
-417.457	361.161	0.141	-0.286
-416.442	800.000	0.087	0.292
-415.428	-35.382	0.064	0.035
-414.413	73.790	0.293	-0.310
-413.398	-67.722	-0.173	0.068
-412.384	-16.533	-0.140	0.089
-411.369	471.064	-0.095	0.216
-410.355	-200.000	-0.024	0.109
-409.340	-105.244	0.199	0.046
-408.325	-200.000	0.075	0.398
-407.311	60.193	0.092	0.092
-406.296	-1.010	0.172	-0.123
-405.282	-200.000	0.002	0.017
-404.267	19.914	0.092	0.075
-403.252	-200.000	0.008	0.246
-402.238	-61.994	-0.218	-0.092
-401.223	250.040	-0.067	0.115
-400.209	70.401	0.293	0.306
-399.194	549.812	-0.132	0.319
-398.179	800.000	0.078	0.322
-397.165	-200.000	-0.010	0.047
-396.150	84.145	-0.095	0.105
-395.136	-49.386	0.252	-0.121
-394.121	-90.158	0.103	-0.030
-393.106	-78.581	-0.162	-0.056
-392.092	-89.409	-0.039	0.012
-391.077	91.282	-0.075	-0.085
-390.063	800.000	0.027	-0.097
-389.048	-8.685	-0.270	0.183
-388.033	50.907	-0.163	0.156
-387.019	-88.109	-0.267	0.081
-386.004	-200.000	0.042	0.213
-384.990	229.097	0.122	0.200
-383.975	25.019	0.185	-0.155
-382.960	-52.259	-0.242	-0.113
-381.946	-200.000	-0.015	0.117
-380.931	-119.648	-0.203	0.035
-379.917	-200.000	-0.077	0.366
-378.902	357.216	-0.117	-0.235
-377.888	-31.116	-0.062	0.035
-376.873	52.703	0.265	0.255
-375.858	573.704	-0.064	-0.157
-374.844	21.226	-0.129	0.105
-373.829	30.692	-0.253	0.218
-372.815	-200.000	-0.000	0.176
-371.800	-44.476	-0.203	-0.103
-370.785	-200.000	0.049	0.673
-369.771	800.000	0.061	0.228
-368.756	-57.350	-0.268	-0.119
-367.742	-162.580	0.317	-0.016
-366.727	18.792	0.111	-0.089
-365.712	-200.000	-0.017	0.165
-364.698	-109.254	-0.275	-0.059
-363.683	523.656	0.089	0.211
-362.669	-51.794	0.247	-0.116
-361.654	-41.884	-0.365	0.189
-360.639	-1.876	0.121	-0.086
-359.625	507.896	-0.036	-0.083
-358.610	94.725	0.155	-0.177
-357.596	-131.439	0.251	0.033
-356.581	-8.664	-0.255	0.173
-355.566	121.347	-0.076	0.095
-354.552	142.388	0.111	-0.148
-353.537	800.000	0.052	-0.170
-352.523	-200.000	0.092	0.435
-351.508	333.004	-0.108	0.210
-350.493	-85.320	0.265	-0.083
-349.479	181.230	-0.089	0.132
-348.464	-200.000	-0.108	0.554
-347.450	-200.000	0.017	-0.207
-346.435	800.000	0.053	0.209
-345.420	-200.000	-0.011	0.172
-344.406	-47.585	-0.036	-0.017
-343.391	-133.439	0.396	0.050
-342.377	-162.844	-0.183	0.009
-341.362	68.318	-0.037	-0.038
-340.348	-83.211	-0.120	-0.039
-339.333	-86.801	-0.245	-0.075
-338.318	800.000	-0.090	0.341
-337.304	144.150	0.025	0.034
-336.289	-12.512	0.140	0.092
-335.275	-51.263	-0.029	-0.014
-334.260	-200.000	-0.022	0.177
-333.245	238.094	0.234	-0.391
-332.231	-116.938	-0.388	-0.071
-331.216	121.256	0.059	0.074
-330.202	-200.000	-0.016	0.081
-329.187	-16.599	-0.210	-0.134
-328.172	7.297	0.171	0.128
-327.158	31.230	-0.122	-0.106
-326.143	26.294	0.200	0.168
-325.129	354.243	-0.139	0.278
-324.114	54.030	-0.036	-0.035
-323.099	-21.170	0.168	0.103
-322.085	-81.239	-0.056	0.018
-321.070	-200.000	0.000	0.028
-320.056	-98.160	0.248	-0.064
-319.041	-123.924	-0.376	-0.060
-318.026	-111.604	-0.087	0.018
-317.012	-2.621	0.151	0.107
-315.997	-90.203	-0.171	-0.050
-314.983	526.202	-0.157	-0.371
-313.968	216.227	-0.124	-0.198
-312.953	-200.000	-0.003	-0.188
-311.939	-200.000	0.005	-0.250
-310.924	190.079	-0.094	-0.142
-309.910	648.840	0.107	0.275
-308.895	78.249	0.066	-0.070
-307.880	-97.749	-0.141	-0.037
-306.866	-2.053	0.118	-0.083
-305.851	-20.710	-0.114	-0.070
-304.837	-122.031	0.248	-0.041
-303.822	258.562	-0.149	-0.258
-302.807	-154.350	-0.174	-0.012
-301.793	-200.000	0.027	0.177
-300.778	-59.580	0.107	0.046
-299.764	-93.529	0.484	-0.135
-298.749	184.776	0.055	0.083
-297.735	217.017	0.092	-0.146
-296.720	-150.407	0.434	0.034
-295.705	-200.000	-0.017	0.278
-294.691	146.932	0.117	0.158
-293.676	590.601	-0.087	-0.215
-292.662	141.873	0.079	0.106
-291.647	88.360	-0.264	0.294
-290.632	800.000	-0.087	0.290
-289.618	219.076	-0.151	0.243
-288.603	-121.565	-0.118	-0.020
-287.589	43.655	0.171	0.157
-286.574	345.923	0.062	0.123
-285.559	20.556	-0.131	0.106
-284.545	438.907	0.057	0.126
-283.530	-102.021	-0.231	-0.056
-282.516	-3.357	0.125	-0.087
-281.501	-158.777	0.254	0.015
-280.486	-160.421	-0.434	0.023
-279.472	-122.610	0.178	-0.029
-278.457	-33.493	0.171	-0.095
-277.443	8.038	-0.092	-0.069
-276.428	-200.000	-0.068	0.376
-275.413	-13.370	0.389	-0.254
-274.399	-200.000	-0.021	-0.144
-273.384	800.000	0.070	0.214
-272.370	144.566	-0.101	0.136
-271.355	-200.000	-0.013	-0.159
-270.340	59.590	-0.247	-0.244
-269.326	-200.000	-0.051	-0.307
-268.311	281.635	-0.074	0.134
-267.297	-161.812	0.258	-0.013
-266.282	-70.809	0.096	0.036
-265.267	-200.000	-0.041	0.312
-264.253	231.447	-0.039	0.065
-263.238	370.242	-0.150	0.306
-262.224	-82.887	-0.360	0.117
-261.209	60.096	0.243	-0.241
-260.195	-37.071	-0.154	-0.083
-259.180	-200.000	0.032	-0.142
-258.165	800.000	-0.029	0.082
-257.151	131.144	0.063	-0.082
-256.136	-200.000	0.009	0.152
-255.122	-57.060	0.153	-0.067
-254.107	260.973	-0.172	-0.299
-253.092	-200.000	-0.001	0.037
-252.078	800.000	0.032	-0.121
-251.063	800.000	0.017	-0.049
-250.049	-88.950	-0.222	0.066
-249.034	-200.000	0.036	0.193
-248.019	122.413	-0.087	0.109
-247.005	-106.405	0.105	-0.024
-245.990	-33.078	-0.200	0.111
-244.976	71.407	0.210	-0.218
-243.961	129.001	-0.024	0.030
-242.946	-84.480	-0.249	0.079
-241.932	324.566	-0.056	-0.107
-240.917	-16.151	-0.181	-0.115
-239.903	-127.665	-0.205	-0.030
-238.888	-58.729	0.322	0.140
-237.873	-90.356	0.206	-0.060
-236.859	-33.635	0.126	-0.070
-235.844	-200.000	-0.018	0.265
-234.830	-200.000	0.024	-0.299
-233.815	225.258	-0.014	0.022
-232.800	-200.000	-0.049	0.481
-231.786	149.007	-0.102	-0.139
-230.771	787.978	0.057	-0.158
-229.757	-200.000	0.008	-0.147
-228.742	-200.000	-0.018	0.154
-227.727	172.036	-0.111	0.159
-226.713	-2.674	0.235	0.165
-225.698	-200.000	0.003	-0.078
-224.684	-19.181	-0.142	-0.089
-223.669	52.216	0.243	0.232
-222.655	-50.748	-0.249	-0.118
-221.640	-46.438	0.261	0.128
-220.625	546.928	0.047	-0.113
-219.611	-75.181	-0.123	0.044
-218.596	-52.592	-0.201	0.093
-217.582	-58.413	0.135	-0.059
-216.567	315.722	-0.067	0.127
-215.552	-21.539	0.053	-0.033
-214.538	800.000	-0.152	-0.453
-213.523	-200.000	0.052	-0.260
-212.509	20.527	-0.145	0.117
-211.494	-84.342	0.200	-0.064
-210.479	-192.081	-0.222	0.002
-209.465	-56.699	0.100	-0.044
-208.450	656.170	0.043	-0.112
-207.436	483.933	-0.073	0.167
-206.421	475.738	-0.120	0.272
-205.406	-37.184	-0.250	0.134
-204.392	-200.000	-0.004	-0.471
-203.377	85.017	0.154	-0.169
-202.363	99.966	0.268	0.311
-201.348	-200.000	-0.013	0.133
-200.333	45.980	-0.243	-0.225
-199.319	-131.248	-0.135	-0.018
-198.304	-133.614	0.132	0.017
-197.290	222.624	-0.324	-0.523
-196.275	-49.684	0.347	-0.165
-195.260	77.474	0.137	-0.146
-194.246	-200.000	-0.015	-0.120
-193.231	-80.394	0.358	-0.120
-192.217	-39.589	0.109	0.057
-191.202	-46.025	-0.125	-0.062
-190.187	199.428	0.099	0.152
-189.173	-137.502	-0.039	0.004
-188.158	291.275	0.017	-0.031
-187.144	800.000	-0.057	0.176
-186.129	31.540	-0.215	0.185
-185.114	94.487	0.110	0.125
-184.100	-100.243	-0.113	-0.028
-183.085	-200.000	-0.019	-0.086
-182.071	-167.703	0.192	0.008
-181.056	384.446	0.088	0.182
-180.042	315.072	0.090	0.171
-179.027	745.539	0.072	-0.194
-178.012	503.908	0.051	0.118
-176.998	404.624	-0.023	-0.048
-175.983	-45.019	0.223	-0.111
-174.969	23.405	-0.091	0.075
-173.954	-107.841	-0.487	-0.106
-172.939	92.233	-0.161	-0.181
-171.925	-30.118	0.067	0.038
-170.910	-71.577	0.212	-0.079
-169.896	-165.651	-0.084	-0.004
-168.881	-132.786	-0.152	-0.019
-167.866	104.235	0.170	0.200
-166.852	-115.483	0.282	-0.053
-165.837	147.420	0.151	0.203
-164.823	148.316	0.138	0.186
-163.808	108.434	-0.184	-0.220
-162.793	-41.965	-0.036	-0.018
-161.779	800.000	0.148	-0.468
-160.764	-45.825	-0.246	0.121
-159.750	54.512	0.106	0.102
-158.735	800.000	-0.045	0.164
-157.720	-21.705	-0.321	0.195
-156.706	31.868	0.248	-0.214
-155.691	-200.000	0.029	-0.163
-154.677	107.516	0.194	-0.231
-153.662	-29.651	-0.263	0.150
-152.647	5.251	0.144	0.106
-151.633	-75.571	0.112	0.040
-150.618	-200.000	0.013	-0.095
-149.604	-5.412	0.135	0.093
-148.589	360.259	-0.088	0.176
-147.574	60.512	0.072	0.072
-146.560	199.929	-0.076	0.117
-145.545	122.463	-0.252	0.315
-144.531	-154.502	0.482	0.032
-143.516	-200.000	-0.008	-0.505
-142.502	175.515	-0.109	-0.158
-141.487	800.000	0.098	0.333
-140.472	114.572	0.047	-0.058
-139.458	7.228	0.102	0.076
-138.443	101.534	-0.225	0.262
-137.429	-121.648	0.059	-0.010
-136.414	763.503	0.071	0.191
-135.399	-41.871	-0.094	0.048
-134.385	800.000	-0.078	-0.268
-133.370	-30.493	-0.159	0.090
-132.356	296.535	-0.143	0.262
-131.341	-138.287	0.143	0.016
-130.326	22.012	0.167	0.136
-129.312	-128.830	0.070	0.010
-128.297	-116.970	0.372	0.068
-127.283	-200.000	0.037	-0.334
-126.268	-200.000	0.069	0.438
-125.253	-105.046	-0.346	0.079
-124.239	244.409	0.111	0.187
-123.224	-200.000	-0.005	-0.109
-122.210	-200.000	0.003	-0.131
-121.195	800.000	-0.100	-0.351
-120.180	-37.016	-0.169	0.091
-119.166	-86.958	-0.144	0.044
-118.151	-200.000	-0.094	0.000
-117.137	-200.000	-0.017	0.300
-116.122	61.922	0.212	0.211
-115.107	-169.470	-0.043	-0.002
-114.093	-200.000	-0.011	-0.196
-113.078	-133.467	-0.106	0.013
-112.064	107.197	-0.008	0.009
-111.049	-104.875	-0.222	0.051
-110.034	731.718	-0.063	0.167
-109.020	250.426	0.023	0.038
-108.005	10.141	0.314	0.238
-106.991	-113.498	0.079	-0.016
-105.976	62.372	-0.094	0.094
-104.962	19.017	-0.170	-0.136
-103.947	-30.863	-0.393	-0.222
-102.932	739.803	0.080	0.214
-101.918	-107.081	-0.080	-0.018
-100.903	800.000	0.148	-0.522
-99.889	185.955	-0.088	0.130
-98.874	-101.156	-0.325	0.079
-97.859	-111.614	0.237	0.048
-96.845	-52.883	-0.194	-0.089
-95.830	-144.917	0.311	0.028
-94.816	-19.491	0.196	0.121
-93.801	404.007	-0.096	-0.201
-92.786	93.647	-0.207	0.234
-91.772	334.688	0.150	0.289
-90.757	-200.000	-0.022	0.216
-89.743	193.748	0.222	0.335
-88.728	-51.085	0.307	-0.144
-87.713	-35.457	0.213	0.115
-86.699	-200.000	0.024	0.194
-85.684	800.000	-0.087	0.338
-84.670	-4.567	-0.259	0.178
-83.655	-71.776	-0.364	0.135
-82.640	-115.107	0.164	0.031
-81.626	41.776	0.176	0.159
-80.611	800.000	0.091	0.326
-79.597	-79.145	0.145	-0.049
-78.582	-200.000	-0.007	0.139
-77.567	382.424	0.055	-0.112
-76.553	-148.739	0.379	0.031
-75.538	-136.305	-0.218	0.025
-74.524	168.374	0.155	0.221
-73.509	23.077	0.383	0.313
-72.494	-156.568	-0.373	0.023
-71.480	-200.000	0.004	0.228
-70.465	70.589	-0.121	0.125
-69.451	568.395	0.151	0.365
-68.436	-125.891	-0.262	0.039
-67.422	454.801	-0.070	0.153
-66.407	406.013	-0.149	0.313
-65.392	-131.356	0.120	0.016
-64.378	73.211	0.097	-0.101
-63.363	176.835	-0.127	-0.184
-62.349	397.617	0.161	0.335
-61.334	101.731	-0.613	-0.712
-60.319	49.198	0.202	0.189
-59.305	-200.000	0.092	-0.690
-58.290	136.554	0.473	0.615
-57.276	211.085	0.903	1.413
-56.261	-200.000	75.019	508.203
-55.246	529.965	1328.671	3124.895
-54.232	143.211	2584.477	3423.870
-53.217	114.980	2266.915	2753.695
-52.203	51.273	1788.629	1690.251
-51.188	44.109	1584.898	1446.816
-50.173	41.434	1554.686	1400.435
-49.159	57.073	1592.319	1545.526
-48.144	62.888	1611.923	1605.709
-47.130	44.543	1574.679	1440.339
-46.115	40.966	1560.522	1402.166
-45.100	40.838	1557.085	1398.123
-44.086	40.633	1555.172	1394.909
-43.071	40.639	1553.170	1393.101
-42.057	40.579	1550.998	1390.674
-41.042	40.700	1549.249	1389.903
-40.027	40.685	1547.891	1388.521
-39.013	40.610	1546.440	1386.643
-37.998	40.603	1545.621	1385.805
-36.984	40.637	1544.572	1385.042
-35.969	40.622	1543.082	1383.550
-34.954	40.729	1541.488	1382.812
-33.940	40.622	1540.213	1380.868
-32.925	40.676	1538.294	1379.468
-31.911	40.777	1536.809	1378.783
-30.896	40.756	1535.572	1377.473
-29.881	40.731	1534.295	1376.100
-28.867	40.667	1533.203	1374.618
-27.852	40.660	1531.550	1373.037
-26.838	40.733	1529.827	1371.942
-25.823	40.699	1528.377	1370.350
-24.809	40.705	1526.824	1368.944
-23.794	40.620	1525.548	1367.162
-22.779	40.725	1524.006	1366.447
-21.765	40.681	1523.154	1365.327
-20.750	40.700	1521.687	1364.089
-19.736	40.575	1521.143	1362.686
-18.721	40.625	1519.742	1361.723
-17.706	40.643	1518.266	1360.470
-16.692	40.596	1517.201	1359.139
-15.677	40.570	1516.348	1358.144
-14.663	40.618	1515.237	1357.420
-13.648	40.594	1514.362	1356.420
-12.633	40.516	1513.208	1354.800
-11.619	40.532	1512.550	1354.270
-10.604	40.512	1511.633	1353.258
-9.590	40.490	1510.442	1351.984
-8.575	40.556	1509.481	1351.522
-7.560	40.501	1508.959	1350.626
-6.546	40.579	1508.275	1350.492
-5.531	40.644	1506.826	1349.579
-4.517	40.573	1506.111	1348.407
-3.502	40.612	1504.979	1347.605
-2.487	40.616	1504.028	1346.726
-1.473	40.564	1502.745	1345.173
-0.458	40.647	1501.304	1344.390
0.556	38.775	1492.886	1334.806
1.571	36.544	1464.789	1294.645
2.586	33.145	1402.129	1217.315
3.600	31.370	1317.250	1132.774
4.615	29.378	1268.885	1079.441
5.629	24.265	1208.488	999.389
6.644	11.564	1113.504	854.716
7.659	1.825	1064.821	768.353
8.673	0.362	1058.650	756.493
9.688	0.236	1055.379	753.458
10.702	0.140	1054.022	751.943
11.717	0.092	1052.218	750.352
12.731	4.143	1058.091	774.756
13.746	15.697	1075.102	845.552
14.761	22.746	1083.824	887.944
15.775	22.564	1082.249	885.662
16.790	22.422	1081.132	883.955
17.804	22.073	1080.775	881.833
18.819	21.932	1079.878	880.313
19.834	22.135	1078.617	880.226
20.848	22.359	1078.118	880.865
21.863	22.181	1077.768	879.606
22.877	22.236	1077.514	879.599
23.892	22.132	1076.775	878.398
24.907	22.075	1076.126	877.506
25.921	22.031	1075.455	876.662
26.936	22.034	1074.543	875.855
27.950	22.106	1073.249	875.080
28.965	22.125	1071.906	874.005
29.980	22.010	1070.640	872.322
30.994	21.907	1068.814	870.246
32.009	22.112	1068.492	870.923
33.023	22.191	1067.919	870.769
34.038	21.919	1066.693	868.348
35.053	22.000	1065.850	867.988
36.067	22.201	1064.966	868.184
37.082	22.124	1064.507	867.350
38.096	22.123	1064.042	866.893
39.111	22.358	1062.884	867.026
40.126	22.333	1062.500	866.515
41.140	22.365	1060.990	865.367
42.155	22.046	1059.711	862.676
43.169	21.792	1058.121	860.059
44.184	21.813	1057.005	859.180
45.199	21.756	1056.789	858.649
46.213	21.693	1055.486	857.208
47.228	21.839	1054.565	857.099
48.242	21.902	1053.750	856.667
49.257	21.939	1053.229	856.346
50.271	22.075	1052.265	856.149
51.286	22.114	1052.129	856.154
52.301	22.198	1050.900	855.487
53.315	22.276	1050.140	855.173
54.330	22.148	1049.368	853.844
55.344	22.038	1048.656	852.658
56.359	22.070	1048.017	852.219
57.374	22.117	1046.908	851.468
58.388	22.064	1045.713	850.164
59.403	21.946	1045.276	849.162
60.417	21.906	1044.291	848.094
61.432	21.717	1043.343	846.338
62.447	21.713	1043.264	846.178
63.461	21.867	1042.353	846.108
64.476	21.819	1041.398	845.026
65.490	21.956	1040.278	844.703
66.505	21.900	1039.238	843.512
67.520	21.677	1039.055	842.220
68.534	21.799	1038.198	842.034
69.549	21.843	1036.590	840.868
70.563	21.509	1035.615	838.402
71.578	21.378	1034.850	837.082
72.593	21.378	1034.325	836.581
73.607	21.298	1033.252	835.256
74.622	21.307	1032.114	834.308
75.636	21.575	1031.645	835.132
76.651	21.756	1030.547	835.034
77.666	21.623	1029.779	833.706
78.680	21.556	1028.682	832.421
79.695	21.589	1028.316	832.209
80.709	21.658	1027.652	831.929
81.724	21.650	1027.137	831.398
82.739	21.659	1026.319	830.705
83.753	21.686	1025.177	829.836
84.768	21.996	1024.592	830.757
85.782	22.360	1023.942	831.876
86.797	22.459	1023.577	831.974
87.812	22.313	1022.749	830.539
88.826	22.293	1021.613	829.447
89.841	22.151	1021.057	828.254
90.855	22.367	1019.960	828.309
91.870	22.233	1019.431	827.175
92.884	22.390	1018.392	826.994
93.899	22.313	1017.132	825.539
94.914	22.100	1016.688	824.105
95.928	22.190	1016.143	824.013
96.943	22.322	1015.088	823.704
97.957	21.861	1014.038	820.620
98.972	21.762	1012.701	819.003
99.987	21.531	1011.753	817.086
101.001	21.638	1011.371	817.204
102.016	21.933	1010.679	817.949
103.030	22.167	1009.265	817.820
104.045	22.018	1008.475	816.414
105.060	21.795	1007.406	814.441
106.074	21.694	1005.974	812.743
107.089	21.802	1005.415	812.720
108.103	22.032	1005.034	813.405
109.118	22.056	1004.005	812.612
110.133	21.790	1002.886	810.405
111.147	21.768	1001.861	809.406
112.162	21.764	1000.591	808.287
113.176	21.460	999.430	805.877
114.191	21.660	998.518	805.991
115.206	21.842	997.986	806.327
116.220	21.491	996.744	803.640
117.235	21.354	995.444	801.894
118.249	21.472	995.012	802.016
119.264	21.425	994.133	801.021
120.279	21.420	993.424	800.357
121.293	21.487	992.067	799.500
122.308	21.481	992.051	799.386
123.322	21.554	991.008	798.808
124.337	21.581	989.930	797.991
125.352	21.513	988.329	796.320
126.366	21.108	986.817	793.191
127.381	20.737	985.823	790.641
128.395	21.147	985.542	792.207
129.410	21.946	984.959	795.288
130.424	22.062	984.555	795.416
131.439	22.120	983.397	794.673
132.454	21.989	982.360	793.175
133.468	21.919	981.905	792.418
134.483	21.973	980.698	791.620
135.497	22.060	979.761	791.186
136.512	22.146	979.667	791.425
137.527	22.358	978.524	791.388
138.541	22.346	977.933	790.787
139.556	22.274	977.330	789.905
140.570	22.291	976.145	788.953
141.585	22.323	975.355	788.389
142.600	22.261	974.671	787.487
143.614	22.250	973.771	786.644
144.629	22.313	972.840	786.103
145.643	22.536	972.248	786.551
146.658	22.399	971.177	785.001
147.673	22.230	970.203	783.394
148.687	22.173	969.180	782.245
149.702	22.077	967.952	780.756
150.716	22.085	966.781	779.776
151.731	22.029	965.690	778.583
152.746	22.165	964.797	778.393
153.760	22.221	964.380	778.238
154.775	22.332	963.573	778.006
155.789	22.327	962.788	777.285
156.804	22.399	961.537	776.524
157.819	22.316	960.781	775.477
158.833	22.380	960.036	775.088
159.848	22.464	959.453	774.919
160.862	22.468	958.913	774.432
161.877	22.435	957.523	773.097
162.892	22.266	956.966	771.834
163.906	22.412	955.791	771.462
164.921	22.361	954.990	770.522
165.935	22.212	953.876	768.902
166.950	22.436	952.435	768.653
167.964	22.471	951.721	768.162
168.979	22.407	950.742	767.023
169.994	22.191	949.677	765.155
171.008	21.992	948.859	763.565
172.023	22.224	948.095	763.888
173.037	22.440	947.475	764.262
174.052	22.243	946.379	762.454
175.067	22.023	945.383	760.631
176.081	22.049	944.152	759.687
177.096	22.058	943.129	758.836
178.110	22.178	942.853	759.066
179.125	21.818	942.177	756.898
180.140	21.610	940.636	754.697
181.154	21.693	939.868	754.371
182.169	21.833	939.486	754.603
183.183	22.052	939.258	755.295
184.198	22.345	938.465	755.849
185.213	22.359	937.781	755.291
186.227	22.218	937.463	754.365
187.242	22.292	936.566	753.892
188.256	22.313	936.029	753.480
189.271	22.318	935.226	752.792
190.286	22.396	934.495	752.470
191.300	22.305	933.429	751.156
192.315	21.837	931.701	747.702
193.329	21.183	930.298	743.725
194.344	20.806	929.209	741.187
195.359	21.081	930.044	742.958
196.373	22.067	929.980	747.037
197.388	22.344	929.529	747.785
198.402	22.346	928.706	747.067
199.417	22.127	928.574	745.962
200.432	22.224	927.980	745.830
201.446	22.203	927.089	744.959
202.461	21.843	926.290	742.730
203.475	21.844	926.133	742.542
204.490	21.431	924.776	739.640
205.504	20.434	922.059	733.196
206.519	20.715	922.139	734.380
207.534	21.692	922.276	738.546
208.548	21.950	921.724	739.123
209.563	22.225	921.712	740.209
210.577	22.101	921.342	739.325
211.592	21.908	920.037	737.402
212.607	22.209	920.246	738.767
213.621	22.517	919.336	739.266
214.636	22.400	918.545	738.074
215.650	22.407	918.473	737.977
216.665	22.327	917.634	736.905
217.680	22.341	917.205	736.551
218.694	22.514	916.838	736.917
219.709	22.236	915.571	734.671
220.723	21.939	914.185	732.254
221.738	21.935	914.088	732.097
222.753	22.069	913.850	732.401
223.767	22.081	913.103	731.787
224.782	22.189	912.125	731.387
225.796	22.501	911.522	732.138
226.811	22.577	911.135	732.077
227.826	22.156	909.888	729.263
228.840	21.353	908.390	724.669
229.855	21.236	907.674	723.549
230.869	21.588	907.556	724.848
231.884	21.232	906.372	722.369
232.899	21.376	905.541	722.237
233.913	21.948	906.771	725.519
234.928	22.132	906.052	725.639
235.942	22.085	905.065	724.593
236.957	22.184	904.181	724.226
237.972	21.909	903.281	722.311
238.986	21.811	902.468	721.191
240.001	21.925	902.076	721.283
241.015	21.871	901.284	720.366
242.030	22.026	900.770	720.527
243.045	22.089	900.281	720.329
244.059	22.141	900.060	720.302
245.074	22.420	899.426	720.874
246.088	22.360	898.807	720.071
247.103	21.849	898.152	717.391
248.117	22.061	896.905	717.198
249.132	22.476	897.073	718.963
250.147	22.844	896.708	720.107
251.161	22.755	896.159	719.241
252.176	23.042	895.756	720.020
253.190	23.018	895.059	719.300
254.205	23.013	894.573	718.824
255.220	23.318	893.969	719.517
256.234	23.360	893.125	718.944
257.249	23.194	892.461	717.673
258.263	23.078	891.939	716.718
259.278	22.992	891.417	715.890
260.293	23.231	890.822	716.313
261.307	23.090	890.685	715.568
262.322	23.031	889.609	714.405
263.336	23.039	889.013	713.895
264.351	22.492	887.685	710.559
265.366	21.369	885.918	704.558
266.380	20.914	884.560	701.583
267.395	21.795	884.642	705.133
268.409	22.606	885.244	708.814
269.424	22.675	884.297	708.269
270.439	22.621	884.525	708.172
271.453	22.879	883.609	708.412
272.468	22.844	882.540	707.353
273.482	22.970	882.173	707.497
274.497	23.025	882.145	707.634
275.512	22.999	880.748	706.347
276.526	22.386	879.661	702.966
277.541	22.623	878.936	703.267
278.555	22.977	878.660	704.399
279.570	22.823	878.206	703.356
280.585	22.675	877.278	701.963
281.599	22.669	876.655	701.377
282.614	22.875	876.497	702.009
283.628	22.385	875.435	699.151
284.643	22.025	874.622	697.012
285.657	22.360	874.676	698.323
286.672	22.381	873.808	697.652
287.687	21.788	872.524	694.217
288.701	22.044	872.549	695.188
289.716	22.643	872.089	697.130
290.730	22.335	871.287	695.209
291.745	22.038	870.460	693.313
292.760	22.137	869.598	692.958
293.774	21.809	868.748	690.927
294.789	22.717	869.844	695.319
295.803	23.325	869.832	697.642
296.818	23.429	869.328	697.584
297.833	23.481	868.843	697.340
298.847	23.301	867.528	695.515
299.862	22.955	866.624	693.369
300.876	23.186	865.982	693.702
301.891	23.348	865.726	694.071
302.906	23.430	865.201	693.908
303.920	23.081	864.101	691.601
304.935	22.996	863.258	690.531
305.949	23.145	863.486	691.238
306.964	23.353	863.014	691.608
307.979	23.229	861.950	690.210
308.993	23.145	861.481	689.448
310.008	23.380	861.545	690.355
311.022	23.558	860.633	690.253
312.037	23.424	860.364	689.454
313.052	23.113	859.501	687.494
314.066	23.129	858.646	686.812
315.081	22.443	857.172	682.915
316.095	21.724	855.895	679.050
317.110	22.230	856.251	681.233
318.125	22.961	856.583	684.268
319.139	22.627	855.762	682.261
320.154	21.526	853.793	676.379
321.168	21.009	852.713	673.464
322.183	21.575	853.006	675.825
323.197	22.639	853.319	680.117
324.212	23.008	853.177	681.367
325.227	23.069	852.819	681.255
326.241	23.230	852.193	681.316
327.256	23.259	850.857	680.299
328.270	23.013	851.096	679.483
329.285	23.011	850.227	678.722
330.300	22.838	849.482	677.403
331.314	22.590	848.692	675.764
332.329	22.611	847.774	675.053
333.343	23.091	847.488	676.602
334.358	23.411	847.321	677.634
335.373	23.287	847.002	676.846
336.387	23.302	846.583	676.508
337.402	23.277	846.541	676.318
338.416	23.650	845.855	677.134
339.431	23.767	845.231	677.018
340.446	23.733	844.398	676.165
341.460	23.970	844.152	676.808
342.475	23.932	842.736	675.468
343.489	23.568	842.881	674.141
344.504	23.601	842.243	673.698
345.519	23.874	842.017	674.494
346.533	24.225	841.459	675.318
347.548	24.130	841.136	674.638
348.562	24.261	840.831	674.831
349.577	24.034	840.268	673.461
350.592	24.115	839.160	672.816
351.606	24.139	838.826	672.580
352.621	24.006	838.507	671.764
353.635	23.947	837.878	670.977
354.650	23.921	837.381	670.422
355.665	23.507	836.509	668.106
356.679	22.674	834.606	663.396
357.694	22.397	834.237	662.001
358.708	23.010	834.108	664.146
359.723	22.983	833.762	663.709
360.738	23.290	833.047	664.233
361.752	23.611	833.445	665.694
362.767	23.808	832.973	665.997
363.781	24.072	832.771	666.766
364.796	24.363	832.639	667.691
365.810	24.346	832.522	667.476
366.825	24.468	831.781	667.276
367.840	24.389	831.628	666.801
368.854	24.149	830.868	665.234
369.869	23.786	830.322	663.386
370.883	23.690	829.115	662.004
371.898	23.789	828.601	661.904
372.913	23.702	827.979	661.024
373.927	23.869	826.832	660.672
374.942	24.047	826.133	660.713
375.956	23.888	826.450	660.319
376.971	24.082	825.898	660.540
377.986	24.226	824.927	660.239
379.000	24.362	824.867	660.636
380.015	24.379	824.509	660.352
381.029	24.178	823.766	658.956
382.044	24.277	823.034	658.679
383.059	24.289	823.046	658.674
384.073	24.411	821.958	658.194
385.088	24.386	821.638	657.787
386.102	24.394	821.159	657.376
387.117	24.227	820.585	656.244
388.132	24.214	819.719	655.445
389.146	23.992	819.154	654.120
390.161	23.399	818.048	650.998
391.175	23.399	817.847	650.783
392.190	23.977	817.835	652.839
393.205	24.076	817.262	652.687
394.219	23.153	815.655	647.965
395.234	21.517	813.566	640.267
396.248	20.611	812.241	635.858
397.263	21.926	812.750	641.008
398.278	23.580	814.323	648.237
399.292	24.170	814.463	650.447
400.307	23.827	813.795	648.604
401.321	23.670	813.360	647.627
402.336	23.829	813.042	647.896
403.350	24.061	812.603	648.335
404.365	24.353	813.006	649.662
405.380	24.840	812.328	650.837
406.394	24.980	812.115	651.118
407.409	25.165	811.642	651.350
408.423	25.117	811.608	651.091
409.438	25.020	810.840	650.066
410.453	25.108	809.853	649.536
411.467	25.230	809.733	649.826
412.482	25.073	809.199	648.771
413.496	25.143	808.701	648.567
414.511	25.137	808.535	648.356
415.526	25.024	808.074	647.520
416.540	25.069	807.701	647.325
417.555	25.052	807.374	646.944
418.569	24.876	806.355	645.435
419.584	24.721	805.519	644.153
420.599	24.930	805.143	644.548
421.613	93.346	1259.645	1375.798
422.628	80.026	1325.882	1375.927
