DTS Sentinel unit serial number:	SN413079Multiplexer serial number:	ORYXHardware model number:	OX4-SRSoftware version number:	ORYX F/W v4.00 Oryx Data Collector v3.7.2.0data status	okinstallation	princeton_trtdifferential loss correction	single-endedforward channel	channel 3reverse channel	N/Adate	2019/09/11time	08:18:11forward acquisition time	60.00reverse acquisition time	0.00gamma	496.2192k internal	0.2318k external	0.2318temperature offset calibration	0.9938default loss term (dB/km)	0.3790temperature slope calibration	1.0000multiplexer offset coefficient	1.0000multiplexer slope coefficient	1.0000fibre end	0.00T internal ref (°C)	32.67T ext. ref 1 (°C)	0.10T ext. ref 2 (°C)	29.73length (m)	temperature (°C)	Stokes	anti-Stokes-747.200	-8.276	0.362	0.247
-746.185	-1.420	-0.093	-0.067
-745.171	-4.268	0.244	-0.171
-744.156	800.000	0.059	0.245
-743.142	-44.971	-0.100	-0.051
-742.127	-3.535	0.141	0.100
-741.112	53.952	0.131	0.128
-740.098	52.176	-0.348	0.336
-739.083	116.035	0.032	-0.039
-738.069	223.040	-0.167	0.273
-737.054	-116.608	-0.429	-0.080
-736.039	-200.000	0.010	-0.170
-735.025	308.110	0.218	0.412
-734.010	317.316	-0.160	-0.306
-732.996	-98.161	-0.127	-0.033
-731.981	-200.000	0.049	0.220
-730.966	-60.590	-0.264	-0.113
-729.952	265.626	0.127	0.224
-728.937	125.559	0.110	-0.141
-727.923	-96.212	-0.141	0.038
-726.908	800.000	0.080	-0.271
-725.894	800.000	-0.027	0.092
-724.879	-111.011	0.211	-0.044
-723.864	74.404	-0.240	-0.255
-722.850	130.034	0.073	0.094
-721.835	-129.576	0.429	-0.060
-720.821	287.115	0.046	-0.085
-719.806	-43.029	-0.180	0.092
-718.791	-129.651	0.152	-0.021
-717.777	-31.152	-0.396	0.226
-716.762	-200.000	-0.031	0.302
-715.748	40.455	-0.211	-0.192
-714.733	-200.000	-0.002	-0.117
-713.718	-12.222	0.064	-0.043
-712.704	800.000	-0.060	-0.205
-711.689	-200.000	0.058	-0.311
-710.675	-126.878	-0.213	-0.032
-709.660	62.524	0.078	-0.078
-708.645	-97.648	0.070	-0.018
-707.631	55.591	-0.130	-0.127
-706.616	-26.093	-0.077	-0.046
-705.602	203.335	0.048	-0.075
-704.587	24.668	-0.200	-0.167
-703.572	76.290	0.073	0.078
-702.558	800.000	0.021	-0.068
-701.543	800.000	-0.011	-0.033
-700.529	-101.077	-0.372	-0.092
-699.514	-73.973	-0.083	-0.031
-698.499	556.723	0.164	-0.398
-697.485	-83.776	-0.127	0.041
-696.470	131.346	-0.096	-0.124
-695.456	-55.185	-0.118	-0.054
-694.441	-157.138	-0.219	0.013
-693.426	-50.552	0.075	-0.036
-692.412	800.000	0.108	0.348
-691.397	23.317	-0.061	0.051
-690.383	-48.055	0.560	-0.273
-689.368	107.189	-0.231	-0.278
-688.354	-200.000	-0.043	-0.217
-687.339	306.889	-0.136	-0.255
-686.324	800.000	-0.113	-0.401
-685.310	-160.853	0.404	0.022
-684.295	36.815	0.225	-0.200
-683.281	-176.154	-0.194	-0.005
-682.266	-23.085	-0.207	-0.126
-681.251	-85.038	0.251	-0.079
-680.237	59.568	0.138	0.137
-679.222	447.750	0.179	0.397
-678.208	243.690	-0.123	0.209
-677.193	-11.235	-0.111	-0.074
-676.178	-171.915	-0.135	0.004
-675.164	-166.261	-0.222	-0.009
-674.149	-200.000	-0.012	-0.168
-673.135	-95.335	-0.458	-0.124
-672.120	152.226	-0.147	-0.203
-671.105	-200.000	-0.025	0.127
-670.091	59.823	-0.282	0.281
-669.076	236.340	0.125	-0.209
-668.062	-120.057	0.209	-0.036
-667.047	272.415	-0.111	-0.198
-666.032	207.768	-0.181	0.285
-665.018	-79.899	0.155	0.053
-664.003	-200.000	-0.025	-0.497
-662.989	43.431	-0.154	0.142
-661.974	175.636	-0.234	-0.342
-660.959	9.682	0.041	-0.031
-659.945	-89.535	-0.218	-0.065
-658.930	800.000	-0.018	0.060
-657.916	-114.180	-0.125	0.024
-656.901	-1.016	0.085	-0.061
-655.886	123.706	0.200	0.253
-654.872	406.378	-0.126	0.268
-653.857	77.624	-0.077	-0.082
-652.843	0.773	-0.196	0.142
-651.828	92.445	-0.162	0.184
-650.814	-92.525	-0.052	0.015
-649.799	670.611	-0.119	-0.310
-648.784	122.026	-0.117	0.147
-647.770	102.035	0.142	0.167
-646.755	-172.565	-0.269	-0.009
-645.741	-164.165	0.332	-0.015
-644.726	244.223	-0.124	0.210
-643.711	-123.358	-0.192	-0.031
-642.697	-200.000	0.018	-0.133
-641.682	-93.389	-0.134	-0.038
-640.668	-90.196	0.276	0.081
-639.653	-200.000	-0.003	0.044
-638.638	-110.709	-0.158	-0.033
-637.624	800.000	-0.039	0.146
-636.609	800.000	0.016	0.048
-635.595	-200.000	-0.052	0.234
-634.580	-38.330	0.123	0.066
-633.565	24.207	0.066	0.055
-632.551	-66.116	-0.317	0.127
-631.536	-80.522	0.225	0.076
-630.522	123.633	0.221	-0.279
-629.507	800.000	-0.041	-0.177
-628.492	70.936	0.284	0.296
-627.478	286.768	0.018	0.033
-626.463	13.442	0.058	0.045
-625.449	-200.000	0.008	0.067
-624.434	439.466	0.211	-0.464
-623.419	11.187	0.243	-0.187
-622.405	-36.124	-0.144	-0.078
-621.390	46.994	-0.117	0.110
-620.376	44.377	-0.403	-0.373
-619.361	-4.925	-0.170	-0.118
-618.346	-62.214	0.315	-0.132
-617.332	-200.000	0.009	0.165
-616.317	137.943	-0.068	0.089
-615.303	-126.281	-0.244	-0.037
-614.288	800.000	0.061	-0.174
-613.273	-131.465	-0.115	-0.015
-612.259	-119.188	0.131	-0.023
-611.244	68.749	-0.199	0.206
-610.230	-146.506	-0.212	0.019
-609.215	188.765	-0.161	-0.243
-608.201	127.338	-0.283	-0.361
-607.186	800.000	-0.084	-0.262
-606.171	219.398	0.122	0.196
-605.157	-34.105	0.071	-0.039
-604.142	-103.631	-0.261	0.062
-603.128	215.029	-0.119	0.190
-602.113	384.627	-0.086	-0.179
-601.098	98.492	-0.056	0.065
-600.084	682.489	0.037	-0.098
-599.069	172.313	-0.235	-0.340
-598.055	161.458	0.061	0.086
-597.040	0.248	0.046	-0.033
-596.025	-200.000	0.035	-0.155
-595.011	23.494	-0.134	-0.111
-593.996	-200.000	-0.045	0.291
-592.982	356.400	0.167	0.334
-591.967	-31.436	0.099	-0.056
-590.952	101.942	0.216	-0.253
-589.938	-200.000	0.066	-0.371
-588.923	157.830	-0.038	-0.053
-587.909	290.794	0.051	-0.092
-586.894	178.195	-0.107	0.157
-585.879	800.000	-0.164	0.578
-584.865	50.324	-0.149	-0.142
-583.850	-200.000	0.477	0.002
-582.836	-95.300	-0.209	0.057
-581.821	33.553	-0.137	-0.120
-580.806	-96.567	0.127	0.034
-579.792	-109.841	-0.158	0.033
-578.777	-140.579	0.497	0.052
-577.763	-135.158	0.187	0.023
-576.748	-2.603	-0.089	-0.062
-575.733	-70.121	-0.092	0.035
-574.719	11.186	-0.235	0.180
-573.704	800.000	-0.066	-0.208
-572.690	-137.978	-0.194	0.022
-571.675	-65.997	-0.064	-0.026
-570.661	-200.000	-0.003	0.183
-569.646	209.324	-0.078	-0.122
-568.631	26.394	-0.071	-0.060
-567.617	208.088	0.113	0.178
-566.602	-200.000	-0.018	0.327
-565.588	-52.790	0.093	-0.043
-564.573	800.000	-0.037	0.116
-563.558	-79.770	0.283	-0.096
-562.544	-19.552	0.218	0.135
-561.529	128.451	-0.095	0.121
-560.515	-80.179	-0.135	0.046
-559.500	-200.000	0.012	0.191
-558.485	67.407	-0.252	-0.259
-557.471	297.047	0.152	-0.281
-556.456	-76.791	-0.058	-0.020
-555.442	-176.084	0.105	-0.003
-554.427	48.813	-0.134	-0.126
-553.412	104.798	0.207	0.245
-552.398	228.734	0.025	-0.041
-551.383	149.584	0.190	0.258
-550.369	424.226	0.006	-0.012
-549.354	49.911	-0.142	-0.135
-548.339	-27.597	-0.156	0.091
-547.325	340.637	-0.171	0.336
-546.310	-200.000	-0.012	-0.233
-545.296	-200.000	-0.055	-0.398
-544.281	-131.770	-0.111	-0.015
-543.266	-200.000	-0.053	0.310
-542.252	180.391	0.081	0.120
-541.237	222.372	0.131	0.211
-540.223	800.000	-0.084	0.275
-539.208	9.701	-0.226	-0.172
-538.193	168.592	-0.123	0.176
-537.179	-164.946	0.146	0.007
-536.164	-200.000	-0.041	0.205
-535.150	-71.738	-0.157	0.059
-534.135	800.000	0.074	-0.260
-533.121	212.411	-0.119	-0.189
-532.106	-87.788	0.149	0.045
-531.091	11.566	-0.137	0.106
-530.077	-158.872	0.078	-0.004
-529.062	156.209	-0.092	0.128
-528.048	800.000	-0.038	-0.117
-527.033	-179.387	-0.082	0.002
-526.018	262.586	-0.108	-0.187
-525.004	-200.000	0.005	-0.250
-523.989	53.162	0.065	0.063
-522.975	-38.656	-0.307	-0.163
-521.960	800.000	-0.082	0.304
-520.945	778.499	0.072	-0.198
-519.931	306.854	0.127	-0.238
-518.916	28.241	0.067	-0.057
-517.902	-200.000	0.006	-0.056
-516.887	800.000	0.067	-0.266
-515.872	-18.853	0.412	-0.257
-514.858	87.642	-0.084	0.093
-513.843	-200.000	-0.026	0.460
-512.829	-34.606	0.289	0.159
-511.814	-200.000	0.000	-0.112
-510.799	800.000	0.056	-0.171
-509.785	-58.165	-0.225	0.098
-508.770	-10.013	0.320	0.214
-507.756	315.577	-0.101	0.191
-506.741	138.366	-0.114	0.150
-505.726	-99.827	-0.193	0.048
-504.712	-117.717	-0.216	-0.039
-503.697	-166.726	0.210	0.009
-502.683	65.212	0.051	0.051
-501.668	-99.018	-0.263	-0.067
-500.653	-51.156	0.216	-0.102
-499.639	-11.404	-0.401	-0.265
-498.624	-19.590	-0.198	-0.123
-497.610	349.395	-0.108	0.213
-496.595	-173.299	-0.373	-0.011
-495.581	-74.443	0.117	0.042
-494.566	7.067	0.153	-0.114
-493.551	-200.000	0.050	-0.223
-492.537	-6.911	0.095	0.065
-491.522	-200.000	0.033	-0.621
-490.508	325.121	-0.007	-0.013
-489.493	-200.000	-0.004	0.142
-488.478	23.576	0.250	0.206
-487.464	-42.122	-0.165	0.085
-486.449	-86.637	0.093	0.029
-485.435	-85.126	0.318	0.100
-484.420	222.953	0.263	0.424
-483.405	800.000	0.051	-0.170
-482.391	268.671	-0.321	0.563
-481.376	-68.760	-0.147	-0.057
-480.362	-172.969	0.200	-0.006
-479.347	-109.077	-0.253	-0.054
-478.332	92.235	0.279	-0.315
-477.318	-200.000	-0.055	-0.397
-476.303	2.265	0.070	0.051
-475.289	-105.854	0.184	-0.042
-474.274	-31.070	-0.175	-0.099
-473.259	-81.158	-0.198	-0.066
-472.245	-200.000	0.054	0.353
-471.230	-200.000	0.043	0.217
-470.216	-69.498	0.126	-0.048
-469.201	84.950	0.239	0.262
-468.186	-43.427	0.112	0.057
-467.172	220.206	-0.046	-0.074
-466.157	-200.000	-0.011	0.217
-465.143	-52.695	0.310	0.143
-464.128	1.987	0.156	-0.113
-463.113	-200.000	0.080	0.601
-462.099	-115.636	-0.342	-0.064
-461.084	800.000	-0.064	0.220
-460.070	6.417	0.121	-0.090
-459.055	121.226	0.092	0.115
-458.040	238.687	-0.065	-0.108
-457.026	-200.000	-0.012	0.092
-456.011	-147.569	-0.322	0.027
-454.997	321.140	0.081	0.154
-453.982	-97.398	-0.439	-0.114
-452.968	82.661	-0.083	0.091
-451.953	8.022	-0.054	-0.040
-450.938	-200.000	0.008	-0.489
-449.924	-49.105	0.454	-0.217
-448.909	-98.971	0.448	0.114
-447.895	-106.413	0.316	0.071
-446.880	-57.596	-0.208	-0.091
-445.865	-200.000	-0.006	-0.060
-444.851	700.871	0.072	0.190
-443.836	576.262	-0.041	0.101
-442.822	800.000	-0.017	-0.061
-441.807	59.991	-0.208	-0.205
-440.792	-200.000	-0.060	0.370
-439.778	-107.261	0.123	0.027
-438.763	270.921	-0.061	-0.108
-437.749	17.977	0.263	-0.209
-436.734	120.001	0.040	-0.049
-435.719	-3.121	0.173	-0.121
-434.705	800.000	-0.084	-0.283
-433.690	-134.205	-0.076	0.009
-432.676	-200.000	0.004	0.041
-431.661	263.392	0.153	0.266
-430.646	75.974	0.251	-0.265
-429.632	92.270	0.018	-0.020
-428.617	-189.090	0.333	0.004
-427.603	57.793	0.153	-0.150
-426.588	252.954	-0.151	-0.258
-425.573	-100.861	-0.392	-0.096
-424.559	-34.256	-0.149	0.082
-423.544	-200.000	0.016	-0.107
-422.530	-200.000	0.031	-0.175
-421.515	404.520	-0.129	0.271
-420.500	228.241	-0.062	-0.102
-419.486	94.703	-0.335	0.381
-418.471	-134.827	-0.370	-0.045
-417.457	-37.513	-0.135	-0.072
-416.442	-86.873	0.186	-0.057
-415.428	123.225	-0.121	-0.151
-414.413	119.440	-0.051	-0.064
-413.398	-200.000	0.046	-0.360
-412.384	800.000	-0.066	0.249
-411.369	-70.931	-0.191	-0.072
-410.355	480.560	0.152	-0.345
-409.340	605.129	0.159	-0.395
-408.325	-174.069	-0.214	-0.006
-407.311	-110.983	-0.201	-0.041
-406.296	-85.988	-0.436	-0.135
-405.282	-200.000	0.069	-0.329
-404.267	-200.000	-0.028	-0.197
-403.252	-106.515	-0.437	0.097
-402.238	-165.586	0.034	0.001
-401.223	196.390	-0.116	-0.176
-400.209	380.627	0.142	-0.291
-399.194	654.405	0.048	0.123
-398.179	82.351	0.178	0.192
-397.165	48.884	0.274	0.257
-396.150	268.730	-0.222	0.389
-395.136	-43.138	0.216	-0.109
-394.121	-132.733	-0.353	-0.045
-393.106	10.603	-0.373	-0.284
-392.092	22.261	0.147	0.120
-391.077	121.637	0.060	-0.075
-390.063	284.451	0.172	-0.310
-389.048	22.351	-0.160	0.131
-388.033	30.116	0.288	-0.246
-387.019	239.452	-0.036	0.060
-386.004	251.969	0.171	-0.291
-384.990	292.672	0.182	-0.330
-383.975	800.000	-0.066	-0.255
-382.960	379.636	0.083	0.171
-381.946	-152.482	0.288	0.021
-380.931	-96.608	-0.121	0.032
-379.917	-200.000	0.035	-0.156
-378.902	-96.902	-0.525	0.138
-377.888	-200.000	0.005	0.227
-376.873	-16.900	-0.249	-0.157
-375.858	459.958	-0.113	0.251
-374.844	242.075	-0.344	0.574
-373.829	-62.064	-0.156	-0.065
-372.815	-115.468	0.443	0.083
-371.800	-12.797	0.148	0.096
-370.785	203.765	-0.068	0.105
-369.771	533.847	0.017	-0.041
-368.756	-49.319	-0.096	-0.045
-367.742	-200.000	-0.009	-0.092
-366.727	-159.583	0.404	-0.022
-365.712	-171.395	0.303	-0.010
-364.698	267.283	0.088	0.153
-363.683	239.495	0.061	-0.100
-362.669	-200.000	-0.046	0.475
-361.654	-19.917	0.166	-0.102
-360.639	4.949	0.388	-0.285
-359.625	-148.764	-0.154	0.012
-358.610	-110.216	-0.209	0.043
-357.596	-200.000	-0.013	-0.161
-356.581	98.228	-0.092	0.106
-355.566	-75.822	0.291	0.103
-354.552	-200.000	-0.014	-0.098
-353.537	-200.000	-0.057	-0.474
-352.523	-34.732	-0.432	-0.235
-351.508	-32.774	0.151	-0.084
-350.493	53.929	-0.102	0.098
-349.479	7.534	-0.131	0.098
-348.464	-24.734	0.444	-0.263
-347.450	800.000	-0.016	-0.055
-346.435	-135.094	-0.241	-0.029
-345.420	40.831	0.167	0.151
-344.406	115.629	-0.120	0.146
-343.391	800.000	0.086	0.299
-342.377	-21.743	0.233	-0.141
-341.362	-78.867	-0.303	-0.103
-340.348	334.269	-0.045	0.086
-339.333	-135.585	0.555	0.066
-338.318	-68.776	0.193	-0.074
-337.304	64.798	0.204	-0.205
-336.289	-200.000	-0.032	-0.172
-335.275	-105.379	0.366	0.083
-334.260	-200.000	0.000	0.074
-333.245	521.658	0.028	-0.066
-332.231	132.031	0.075	-0.096
-331.216	-141.215	-0.325	-0.033
-330.202	-27.073	0.065	-0.038
-329.187	-72.330	0.403	0.149
-328.172	-64.071	-0.158	0.064
-327.158	800.000	-0.032	-0.098
-326.143	78.777	-0.077	0.082
-325.129	-172.539	-0.170	-0.005
-324.114	101.822	-0.183	-0.213
-323.099	620.402	0.072	-0.180
-322.085	800.000	-0.005	0.018
-321.070	-200.000	0.014	-0.272
-320.056	105.441	-0.227	0.267
-319.041	90.378	0.101	0.113
-318.026	174.137	0.083	0.120
-317.012	-200.000	-0.025	-0.209
-315.997	-115.643	0.207	0.039
-314.983	-73.026	-0.179	0.065
-313.968	119.848	0.276	-0.340
-312.953	-200.000	-0.026	0.388
-311.939	-84.689	-0.373	-0.117
-310.924	-28.656	0.266	-0.152
-309.910	65.958	0.132	-0.133
-308.895	480.617	0.202	-0.456
-307.880	-26.169	0.024	0.014
-306.866	23.197	0.242	0.197
-305.851	-175.512	-0.273	-0.007
-304.837	-200.000	0.018	0.118
-303.822	61.372	0.312	0.308
-302.807	124.381	0.012	0.015
-301.793	-200.000	-0.009	-0.051
-300.778	199.339	0.100	-0.152
-299.764	-200.000	-0.006	-0.138
-298.749	95.299	0.094	0.107
-297.735	-200.000	0.054	-0.307
-296.720	-200.000	-0.041	-0.514
-295.705	130.169	0.109	-0.138
-294.691	-55.690	-0.147	-0.066
-293.676	-30.069	0.475	-0.269
-292.662	-16.970	-0.324	0.203
-291.647	57.467	0.077	-0.074
-290.632	197.321	0.238	0.362
-289.618	408.614	0.124	0.261
-288.603	-142.403	-0.259	-0.025
-287.589	-118.651	0.103	0.018
-286.574	-64.177	-0.116	-0.047
-285.559	-21.423	0.171	0.104
-284.545	372.784	0.096	-0.194
-283.530	398.356	-0.078	-0.162
-282.516	-50.966	0.187	-0.087
-281.501	75.356	0.110	-0.116
-280.486	321.182	0.047	-0.089
-279.472	-187.930	0.348	0.004
-278.457	236.590	-0.140	0.230
-277.443	800.000	0.123	0.498
-276.428	53.501	-0.089	0.085
-275.413	-128.269	-0.075	-0.011
-274.399	-47.985	0.207	0.100
-273.384	-200.000	0.034	0.179
-272.370	-123.489	-0.184	0.029
-271.355	-200.000	-0.034	0.187
-270.340	800.000	-0.036	0.149
-269.326	-200.000	-0.003	0.084
-268.311	57.778	-0.162	-0.157
-267.297	38.977	-0.246	0.218
-266.282	-68.771	0.190	0.073
-265.267	-200.000	-0.006	-0.050
-264.253	-161.168	-0.270	-0.014
-263.238	-133.003	-0.122	-0.015
-262.224	-161.280	-0.187	0.010
-261.209	-134.604	-0.231	0.028
-260.195	800.000	0.053	0.210
-259.180	-51.737	0.064	0.030
-258.165	11.182	0.239	-0.181
-257.151	-114.016	0.223	-0.043
-256.136	65.469	0.094	-0.095
-255.122	-200.000	0.022	-0.146
-254.107	-38.893	0.165	-0.086
-253.092	56.314	-0.225	-0.217
-252.078	-190.315	0.148	0.002
-251.063	-200.000	0.004	0.266
-250.049	100.440	-0.167	0.193
-249.034	286.114	0.080	0.144
-248.019	268.653	0.189	0.328
-247.005	174.966	0.220	-0.316
-245.990	-40.691	0.130	-0.067
-244.976	-200.000	0.026	0.416
-243.961	343.938	0.096	0.188
-242.946	-23.192	0.216	-0.129
-241.932	-9.651	-0.145	-0.096
-240.917	610.328	0.154	0.382
-239.903	94.065	-0.265	-0.298
-238.888	-142.580	0.209	0.020
-237.873	172.578	0.050	-0.072
-236.859	-19.995	-0.260	-0.159
-235.844	-0.669	0.255	-0.179
-234.830	-200.000	0.020	-0.100
-233.815	-20.620	-0.216	0.132
-232.800	489.296	-0.113	0.256
-231.786	-98.100	0.389	0.099
-230.771	-200.000	0.018	0.239
-229.757	23.509	-0.213	0.174
-228.742	800.000	-0.006	0.016
-227.727	-106.083	-0.296	-0.066
-226.713	292.866	0.083	0.150
-225.698	-200.000	0.005	0.200
-224.684	109.026	-0.314	0.372
-223.669	138.384	-0.099	-0.129
-222.655	161.501	0.071	-0.099
-221.640	35.312	0.209	-0.182
-220.625	-81.478	-0.278	0.091
-219.611	800.000	-0.063	0.243
-218.596	-200.000	0.016	0.073
-217.582	800.000	0.081	0.250
-216.567	-117.168	-0.234	-0.042
-215.552	-200.000	0.004	0.093
-214.538	213.129	-0.093	-0.146
-213.523	563.412	-0.041	-0.099
-212.509	800.000	0.029	0.110
-211.494	800.000	0.042	0.152
-210.479	-200.000	-0.040	-0.237
-209.465	-57.163	0.328	0.143
-208.450	-140.430	-0.232	-0.024
-207.436	59.634	0.219	0.214
-206.421	-44.288	-0.265	0.131
-205.406	5.334	-0.104	0.076
-204.392	-200.000	0.037	0.200
-203.377	33.636	0.185	-0.159
-202.363	800.000	0.053	-0.151
-201.348	-154.856	-0.127	-0.008
-200.333	-112.854	-0.137	-0.027
-199.319	-39.606	-0.198	0.103
-198.304	179.647	0.173	0.250
-197.290	165.242	-0.032	0.045
-196.275	-48.417	-0.097	-0.046
-195.260	-200.000	0.287	-0.001
-194.246	-176.429	0.250	0.006
-193.231	-200.000	-0.009	0.203
-192.217	-16.212	-0.122	0.077
-191.202	-136.785	-0.071	0.008
-190.187	-93.199	0.134	0.037
-189.173	-179.075	0.253	0.006
-188.158	800.000	0.094	-0.356
-187.144	-200.000	0.006	0.257
-186.129	-52.642	-0.263	-0.120
-185.114	-22.823	0.124	0.074
-184.100	-53.185	-0.323	-0.147
-183.085	-103.265	-0.332	0.078
-182.071	-75.391	0.046	0.016
-181.056	-116.876	-0.060	0.011
-180.042	800.000	0.096	0.323
-179.027	-4.896	-0.107	0.073
-178.012	800.000	-0.041	0.113
-176.998	-128.204	-0.173	0.024
-175.983	-138.073	-0.203	-0.022
-174.969	340.670	0.151	-0.292
-173.954	-65.567	0.236	-0.094
-172.939	-200.000	-0.013	0.219
-171.925	-4.701	0.096	0.066
-170.910	145.234	-0.256	0.338
-169.896	-200.000	-0.037	-0.207
-168.881	-81.451	-0.329	-0.107
-167.866	-160.200	-0.066	-0.004
-166.852	227.574	0.088	-0.141
-165.837	-58.297	0.228	0.098
-164.823	57.990	-0.138	0.134
-163.808	-200.000	0.017	-0.087
-162.793	-64.123	0.309	-0.125
-161.779	-200.000	-0.028	-0.132
-160.764	800.000	0.022	-0.086
-159.750	800.000	0.067	-0.266
-158.735	-16.088	-0.352	-0.222
-157.720	-44.372	0.303	-0.150
-156.706	-200.000	-0.014	0.203
-155.691	52.311	0.203	0.191
-154.677	-88.061	-0.202	-0.060
-153.662	-53.436	0.084	0.038
-152.647	800.000	-0.029	0.097
-151.633	654.832	-0.088	0.224
-150.618	48.368	-0.222	0.205
-149.604	96.643	-0.154	-0.174
-148.589	398.831	0.076	-0.158
-147.574	-14.219	0.121	0.077
-146.560	-192.392	-0.401	-0.004
-145.545	-200.000	-0.032	-0.187
-144.531	87.545	0.081	0.089
-143.516	-71.249	-0.299	0.111
-142.502	203.455	-0.157	0.240
-141.487	40.384	-0.036	-0.032
-140.472	296.791	0.192	0.349
-139.458	98.060	0.050	0.057
-138.443	357.909	-0.141	0.279
-137.429	351.522	0.014	0.027
-136.414	37.721	-0.226	-0.199
-135.399	-92.850	0.165	-0.045
-134.385	159.122	0.274	-0.376
-133.370	-104.480	-0.226	0.052
-132.356	-70.116	0.392	-0.147
-131.341	-37.185	-0.200	-0.106
-130.326	-200.000	0.009	-0.202
-129.312	800.000	-0.087	0.291
-128.297	535.696	-0.036	0.085
-127.283	-28.903	0.379	0.215
-126.268	-180.256	0.364	0.008
-125.253	800.000	0.055	-0.225
-124.239	-28.355	0.289	-0.165
-123.224	-115.098	-0.224	0.042
-122.210	-66.313	0.174	-0.069
-121.195	-173.677	-0.431	-0.013
-120.180	185.496	0.060	-0.088
-119.166	305.396	-0.126	-0.231
-118.151	800.000	-0.109	-0.322
-117.137	-100.827	0.151	-0.037
-116.122	323.262	-0.036	0.067
-115.107	-99.571	0.283	-0.070
-114.093	-200.000	-0.004	0.436
-113.078	98.596	0.118	0.135
-112.064	-32.182	0.078	-0.043
-111.049	470.219	0.086	0.191
-110.034	-129.834	-0.126	-0.017
-109.020	152.392	-0.192	0.259
-108.005	-200.000	-0.069	0.307
-106.991	-200.000	0.027	0.312
-105.976	-81.492	0.101	-0.033
-104.962	90.901	-0.059	-0.065
-103.947	175.907	-0.068	0.098
-102.932	-1.755	-0.278	-0.193
-101.918	-200.000	-0.013	-0.255
-100.903	-200.000	0.327	-0.000
-99.889	800.000	0.011	-0.038
-98.874	161.248	-0.114	0.158
-97.859	-39.035	0.045	0.023
-96.845	-200.000	0.019	0.189
-95.830	-43.765	0.165	-0.082
-94.816	800.000	-0.022	-0.095
-93.801	-200.000	-0.056	-0.435
-92.786	800.000	0.038	-0.145
-91.772	143.794	-0.074	-0.097
-90.757	-200.000	0.012	0.081
-89.743	115.867	-0.114	0.138
-88.728	-200.000	-0.027	0.155
-87.713	800.000	-0.069	-0.249
-86.699	800.000	0.082	0.339
-85.684	245.892	-0.160	0.266
-84.670	-27.052	-0.345	0.199
-83.655	137.139	-0.036	0.047
-82.640	103.095	-0.182	0.210
-81.626	110.450	-0.147	0.175
-80.611	33.399	0.161	-0.138
-79.597	-72.006	0.222	0.082
-78.582	800.000	-0.064	-0.225
-77.567	419.517	-0.171	-0.360
-76.553	266.078	0.088	-0.152
-75.538	-77.978	0.262	0.089
-74.524	80.085	0.039	0.041
-73.509	800.000	0.053	-0.170
-72.494	-200.000	-0.031	-0.510
-71.480	167.156	0.193	-0.270
-70.465	113.893	-0.111	0.132
-69.451	-200.000	0.251	-0.001
-68.436	-87.284	0.095	0.029
-67.422	-144.004	-0.188	-0.017
-66.407	437.136	-0.093	0.200
-65.392	-76.534	-0.489	0.169
-64.378	-200.000	-0.034	-0.315
-63.363	219.960	0.041	0.065
-62.349	133.265	0.230	0.293
-61.334	172.595	-0.727	-1.030
-60.319	211.700	0.155	0.241
-59.305	800.000	-0.354	-1.183
-58.290	100.790	0.526	0.602
-57.276	800.000	0.422	1.299
-56.261	-200.000	102.112	654.935
-55.246	630.511	1458.881	3636.403
-54.232	177.724	2676.568	3843.451
-53.217	119.213	2213.475	2697.261
-52.203	43.663	1738.569	1566.908
-51.188	35.849	1551.677	1344.105
-50.173	33.551	1524.456	1304.680
-49.159	54.968	1579.263	1502.077
-48.144	57.245	1595.696	1533.546
-47.130	36.224	1550.218	1345.243
-46.115	33.020	1534.395	1309.301
-45.100	32.831	1531.150	1305.174
-44.086	32.758	1529.681	1303.368
-43.071	32.672	1527.796	1301.112
-42.057	32.656	1526.014	1299.431
-41.042	32.679	1524.742	1298.455
-40.027	32.741	1522.780	1297.162
-39.013	32.730	1521.465	1295.915
-37.998	32.666	1520.500	1294.603
-36.984	32.609	1519.726	1293.503
-35.969	32.759	1517.384	1292.483
-34.954	32.670	1516.845	1291.361
-33.940	32.637	1515.462	1289.905
-32.925	32.796	1513.516	1289.288
-31.911	32.744	1512.397	1287.926
-30.896	32.689	1511.257	1286.528
-29.881	32.757	1509.942	1285.826
-28.867	32.774	1508.459	1284.628
-27.852	32.813	1507.086	1283.670
-26.838	32.749	1505.851	1282.133
-25.823	32.784	1504.417	1281.095
-24.809	32.684	1502.669	1278.880
-23.794	32.748	1501.403	1278.186
-22.779	32.756	1500.272	1277.229
-21.765	32.700	1498.830	1275.570
-20.750	32.738	1497.549	1274.683
-19.736	32.619	1497.063	1273.419
-18.721	32.669	1495.652	1272.506
-17.706	32.731	1494.306	1271.726
-16.692	32.641	1493.248	1270.171
-15.677	32.618	1492.348	1269.200
-14.663	32.558	1491.617	1268.122
-13.648	32.575	1490.811	1267.502
-12.633	32.576	1489.689	1266.503
-11.619	32.511	1488.972	1265.406
-10.604	32.505	1488.274	1264.722
-9.590	32.603	1486.838	1264.109
-8.575	32.594	1486.273	1263.519
-7.560	32.689	1484.951	1262.982
-6.546	32.693	1484.403	1262.491
-5.531	32.689	1483.190	1261.381
-4.517	32.592	1482.363	1259.980
-3.502	32.629	1481.473	1259.426
-2.487	32.674	1480.109	1258.516
-1.473	32.640	1479.125	1257.399
-0.458	32.677	1477.664	1256.353
0.556	30.906	1468.777	1246.604
1.571	28.359	1443.357	1208.155
2.586	25.536	1383.562	1140.123
3.600	24.210	1302.876	1065.615
4.615	22.707	1256.799	1019.162
5.629	18.408	1197.822	947.527
6.644	8.559	1108.401	826.066
7.659	1.076	1066.145	757.221
8.673	0.167	1060.513	748.634
9.688	0.143	1057.172	746.091
10.702	0.001	1055.519	744.154
11.717	0.079	1053.986	743.394
12.731	3.438	1058.116	762.882
13.746	13.039	1072.123	820.861
14.761	20.116	1081.292	863.178
15.775	21.692	1082.525	871.935
16.790	21.977	1081.982	872.839
17.804	21.703	1081.227	870.793
18.819	21.567	1080.362	869.341
19.834	21.723	1079.631	869.452
20.848	21.663	1079.649	869.090
21.863	21.847	1079.041	869.438
22.877	21.706	1078.986	868.618
23.892	21.685	1077.737	867.434
24.907	21.784	1076.545	866.885
25.921	21.725	1076.242	866.271
26.936	21.826	1075.486	866.084
27.950	21.731	1074.462	864.718
28.965	21.639	1073.398	863.331
29.980	21.515	1071.641	861.231
30.994	21.481	1070.696	860.228
32.009	21.604	1070.126	860.297
33.023	21.835	1069.188	860.599
34.038	21.515	1068.208	858.166
35.053	21.602	1067.298	857.786
36.067	21.717	1066.408	857.557
37.082	21.713	1065.870	857.032
38.096	21.747	1065.079	856.486
39.111	21.987	1064.267	856.925
40.126	22.047	1063.277	856.345
41.140	22.049	1061.787	855.082
42.155	21.684	1060.350	852.072
43.169	21.387	1059.453	849.833
44.184	21.310	1058.462	848.588
45.199	21.440	1056.956	847.939
46.213	21.313	1055.913	846.409
47.228	21.257	1055.083	845.399
48.242	21.463	1054.441	845.805
49.257	21.565	1053.811	845.719
50.271	21.672	1052.725	845.288
51.286	21.771	1051.880	845.011
52.301	21.823	1051.210	844.652
53.315	21.848	1050.460	844.094
54.330	21.789	1049.749	843.165
55.344	21.676	1049.416	842.277
56.359	21.705	1047.918	841.139
57.374	21.665	1047.363	840.428
58.388	21.594	1046.069	838.974
59.403	21.447	1045.430	837.684
60.417	21.584	1044.810	837.772
61.432	21.291	1044.316	835.899
62.447	21.402	1043.461	835.668
63.461	21.540	1042.447	835.441
64.476	21.467	1041.981	834.647
65.490	21.487	1040.933	833.827
66.505	21.504	1039.499	832.688
67.520	21.435	1038.918	831.823
68.534	21.571	1037.831	831.522
69.549	21.472	1036.984	830.299
70.563	21.081	1035.961	827.554
71.578	21.101	1034.875	826.707
72.593	21.182	1034.169	826.455
73.607	20.970	1032.834	824.312
74.622	20.887	1032.242	823.374
75.636	21.290	1031.480	824.598
76.651	21.410	1030.816	824.559
77.666	21.329	1029.758	823.259
78.680	21.071	1029.028	821.387
79.695	21.089	1028.436	820.927
80.709	21.330	1027.763	821.451
81.724	21.385	1027.071	821.081
82.739	21.370	1025.823	819.943
83.753	21.288	1025.564	819.280
84.768	21.606	1024.458	819.810
85.782	21.966	1023.859	820.940
86.797	22.062	1023.249	820.828
87.812	22.097	1022.179	820.064
88.826	21.866	1021.463	818.336
89.841	21.886	1021.218	818.163
90.855	21.987	1020.266	817.797
91.870	22.024	1019.155	817.006
92.884	21.962	1018.359	816.009
93.899	21.714	1017.473	814.074
94.914	21.773	1016.417	813.432
95.928	21.861	1015.631	813.136
96.943	21.962	1014.795	812.864
97.957	21.582	1013.650	810.117
98.972	21.271	1012.875	807.986
99.987	21.164	1011.485	806.314
101.001	21.286	1010.661	806.150
102.016	21.672	1010.301	807.571
103.030	21.784	1009.190	807.127
104.045	21.753	1007.995	805.955
105.060	21.408	1007.166	803.638
106.074	21.370	1005.431	802.008
107.089	21.465	1004.642	801.743
108.103	21.614	1005.106	802.725
109.118	21.801	1003.968	802.599
110.133	21.470	1002.607	799.929
111.147	21.442	1001.360	798.733
112.162	21.476	1000.318	797.986
113.176	21.108	999.077	795.251
114.191	21.367	998.123	795.602
115.206	21.484	997.308	795.415
116.220	21.213	996.055	793.110
117.235	20.986	995.322	791.429
118.249	21.074	994.626	791.202
119.264	21.170	993.707	790.838
120.279	21.113	993.112	790.036
121.293	21.185	992.196	789.564
122.308	21.295	991.319	789.291
123.322	21.311	990.497	788.641
124.337	21.246	989.756	787.689
125.352	21.106	988.179	785.730
126.366	20.706	986.422	782.466
127.381	20.403	985.445	780.260
128.395	20.910	985.436	782.462
129.410	21.360	985.481	784.450
130.424	21.689	984.226	784.854
131.439	21.648	983.172	783.761
132.454	21.625	981.929	782.598
133.468	21.633	981.260	782.031
134.483	21.563	980.481	781.029
135.497	21.490	980.254	780.452
136.512	21.878	979.306	781.360
137.527	21.970	978.262	780.868
138.541	21.825	977.739	779.737
139.556	21.757	976.910	778.704
140.570	21.842	975.941	778.239
141.585	21.920	975.163	777.897
142.600	21.982	974.244	777.366
143.614	21.895	973.458	776.285
144.629	21.995	972.554	775.939
145.643	22.246	971.848	776.417
146.658	22.048	970.679	774.539
147.673	21.974	969.469	773.180
148.687	21.800	968.369	771.468
149.702	21.750	967.099	770.170
150.716	21.627	966.162	768.817
151.731	21.687	965.073	768.143
152.746	21.686	964.632	767.722
153.760	21.985	964.296	768.696
154.775	22.050	963.173	768.014
155.789	22.063	962.485	767.458
156.804	21.917	961.689	766.117
157.819	21.927	960.603	765.228
158.833	22.015	959.476	764.645
159.848	22.093	959.603	765.019
160.862	22.202	957.800	763.986
161.877	22.071	957.138	762.823
162.892	22.023	956.033	761.666
163.906	22.099	955.791	761.735
164.921	21.931	954.905	760.232
165.935	22.037	953.420	759.440
166.950	22.005	952.425	758.447
167.964	22.117	951.778	758.345
168.979	21.952	951.019	756.964
169.994	21.992	949.467	755.832
171.008	21.906	948.701	754.787
172.023	21.987	947.922	754.446
173.037	22.209	947.013	754.609
174.052	21.958	946.287	752.889
175.067	21.715	945.322	751.013
176.081	21.768	943.836	749.993
177.096	21.841	943.202	749.734
178.110	21.781	942.628	748.957
179.125	21.771	941.278	747.772
180.140	21.398	940.221	745.277
181.154	21.309	940.066	744.711
182.169	21.420	939.770	744.883
183.183	21.778	938.883	745.634
184.198	22.095	938.094	746.289
185.213	21.944	937.335	744.980
186.227	21.912	936.986	744.503
187.242	21.979	936.393	744.247
188.256	22.113	935.524	744.059
189.271	22.103	934.847	743.411
190.286	22.101	934.144	742.781
191.300	21.965	933.155	741.354
192.315	21.511	931.787	738.285
193.329	20.838	930.114	734.057
194.344	20.453	929.331	731.755
195.359	20.988	929.504	734.078
196.373	21.879	929.487	737.748
197.388	21.999	929.556	738.243
198.402	21.820	928.841	736.858
199.417	21.818	928.118	736.213
200.432	21.934	927.657	736.268
201.446	21.808	926.728	734.935
202.461	21.488	926.271	733.170
203.475	21.512	925.764	732.803
204.490	21.231	924.033	730.195
205.504	20.007	921.558	723.065
206.519	20.481	921.788	725.162
207.534	21.317	922.344	729.024
208.548	21.460	922.005	729.288
209.563	21.744	922.025	730.424
210.577	21.883	920.849	730.004
211.592	21.600	919.885	728.001
212.607	22.024	919.831	729.654
213.621	22.027	919.648	729.459
214.636	21.954	918.630	728.282
215.650	22.063	917.938	728.120
216.665	22.047	917.513	727.654
217.680	22.074	917.316	727.543
218.694	22.167	916.394	727.136
219.709	21.768	915.336	724.580
220.723	21.401	914.401	722.259
221.738	21.792	913.915	723.426
222.753	21.841	913.032	722.868
223.767	21.717	912.436	721.818
224.782	21.898	912.031	722.179
225.796	21.981	911.035	721.669
226.811	22.236	910.410	722.156
227.826	21.868	909.045	719.502
228.840	21.030	907.900	715.098
229.855	20.878	907.663	714.224
230.869	21.247	906.833	715.018
231.884	20.926	905.830	712.852
232.899	20.979	905.166	712.484
233.913	21.875	905.434	716.291
234.928	21.887	905.215	716.105
235.942	21.795	904.738	715.288
236.957	21.814	904.128	714.819
237.972	21.544	903.000	712.767
238.986	21.540	901.918	711.833
240.001	21.572	901.602	711.651
241.015	21.681	900.740	711.347
242.030	21.541	900.713	710.695
243.045	21.695	899.754	710.500
244.059	21.935	899.236	711.002
245.074	22.081	898.706	711.110
246.088	21.975	897.952	710.021
247.103	21.649	896.792	707.726
248.117	21.537	896.561	707.029
249.132	22.161	896.702	709.595
250.147	22.469	896.416	710.553
251.161	22.556	895.622	710.211
252.176	22.725	895.129	710.435
253.190	22.735	894.597	709.990
254.205	22.755	893.886	709.443
255.220	22.985	893.308	709.847
256.234	22.754	893.214	708.781
257.249	22.801	892.074	708.005
258.263	22.723	891.437	707.123
259.278	22.636	890.827	706.228
260.293	22.730	890.363	706.172
261.307	22.729	890.041	705.852
262.322	22.779	889.100	705.242
263.336	22.647	888.131	703.883
264.351	22.139	886.825	700.761
265.366	21.102	884.815	694.982
266.380	20.494	884.098	691.939
267.395	21.473	884.594	696.163
268.409	22.307	884.936	699.688
269.424	22.369	883.868	699.032
270.439	22.362	883.738	698.837
271.453	22.512	882.843	698.665
272.468	22.538	882.279	698.257
273.482	22.750	881.778	698.638
274.497	22.923	881.153	698.765
275.512	22.722	880.212	697.163
276.526	22.160	879.061	693.974
277.541	22.270	878.367	693.796
278.555	22.659	878.518	695.388
279.570	22.456	877.301	693.564
280.585	22.413	876.457	692.667
281.599	22.419	875.960	692.236
282.614	22.454	875.777	692.168
283.628	22.060	874.565	689.602
284.643	21.664	873.783	687.373
285.657	22.184	873.706	689.288
286.672	22.078	872.949	688.216
287.687	21.601	872.151	685.658
288.701	21.916	872.042	686.746
289.716	22.352	871.669	688.096
290.730	21.948	870.801	685.772
291.745	21.811	870.221	684.721
292.760	21.564	869.060	682.783
293.774	21.421	868.805	681.964
294.789	22.377	869.384	686.084
295.803	23.305	868.826	689.198
296.818	23.122	868.506	688.170
297.833	23.298	867.838	688.265
298.847	22.739	867.067	685.420
299.862	22.671	865.697	684.016
300.876	22.748	865.466	684.071
301.891	23.003	865.182	684.771
302.906	23.125	864.621	684.742
303.920	22.753	863.010	681.965
304.935	22.565	862.709	680.941
305.949	22.997	862.341	682.260
306.964	22.999	862.064	681.988
307.979	22.920	861.179	680.923
308.993	22.663	860.891	679.644
310.008	23.079	860.653	681.000
311.022	23.242	860.240	681.241
312.037	23.123	859.422	680.074
313.052	22.796	858.960	678.390
314.066	22.789	857.773	677.367
315.081	22.099	856.378	673.561
316.095	21.358	855.105	669.660
317.110	21.967	855.534	672.273
318.125	22.841	855.811	675.777
319.139	22.344	854.339	672.657
320.154	21.378	852.352	667.348
321.168	20.892	851.544	664.800
322.183	21.471	852.249	667.504
323.197	22.320	852.660	671.006
324.212	22.575	852.262	671.604
325.227	22.644	851.868	671.496
326.241	22.909	851.320	672.013
327.256	22.823	850.762	671.187
328.270	22.677	850.151	670.090
329.285	22.665	849.227	669.258
330.300	22.619	848.377	668.352
331.314	22.253	847.738	666.406
332.329	22.205	847.207	665.746
333.343	22.639	846.870	667.064
334.358	22.926	846.472	667.779
335.373	23.110	845.872	667.942
336.387	23.134	845.326	667.540
337.402	23.259	845.038	667.724
338.416	23.519	844.698	668.378
339.431	23.323	844.148	667.145
340.446	23.306	843.347	666.390
341.460	23.648	843.084	667.408
342.475	23.558	842.366	666.444
343.489	23.409	841.366	665.033
344.504	23.363	841.234	664.697
345.519	23.530	841.004	665.082
346.533	23.932	840.525	666.151
347.548	23.819	840.117	665.347
348.562	23.830	839.543	664.873
349.577	23.734	839.444	664.380
350.592	23.684	838.504	663.388
351.606	23.790	837.824	663.189
352.621	23.578	837.950	662.437
353.635	23.615	837.100	661.845
354.650	23.618	836.099	661.005
355.665	23.306	835.177	659.056
356.679	22.287	833.428	653.833
357.694	22.117	832.924	652.749
358.708	22.707	833.307	655.185
359.723	22.674	832.642	654.482
360.738	22.971	832.247	655.211
361.752	23.305	832.222	656.373
362.767	23.364	831.872	656.256
363.781	23.788	831.676	657.614
364.796	23.966	831.624	658.174
365.810	24.099	831.343	658.385
366.825	24.049	831.071	657.925
367.840	23.926	830.849	657.239
368.854	23.829	829.804	655.997
369.869	23.492	828.598	653.741
370.883	23.337	827.978	652.625
371.898	23.621	827.000	652.839
372.913	23.462	826.495	651.800
373.927	23.467	826.205	651.533
374.942	23.433	825.547	650.828
375.956	23.612	825.135	651.105
376.971	23.817	824.507	651.302
377.986	23.902	824.100	651.233
379.000	23.857	823.818	650.791
380.015	23.990	823.290	650.802
381.029	23.963	822.299	649.860
382.044	23.977	821.751	649.421
383.059	24.015	821.403	649.230
384.073	24.024	820.943	648.841
385.088	24.098	820.700	648.860
386.102	24.102	819.786	648.093
387.117	23.897	819.180	646.813
388.132	23.828	818.500	645.966
389.146	23.808	818.085	645.510
390.161	23.058	816.940	641.827
391.175	23.194	816.604	642.003
392.190	23.705	816.420	643.654
393.205	23.671	816.230	643.322
394.219	22.815	814.307	638.654
395.234	21.272	812.132	631.320
396.248	20.349	811.303	627.286
397.263	21.575	812.183	632.344
398.278	23.314	813.243	639.395
399.292	23.664	813.294	640.641
400.307	23.406	812.845	639.300
401.321	23.314	812.124	638.346
402.336	23.527	811.638	638.674
403.350	23.728	811.212	639.007
404.365	24.275	811.375	641.048
405.380	24.489	811.335	641.727
406.394	24.653	811.074	642.053
407.409	24.966	810.590	642.737
408.423	24.776	809.935	641.481
409.438	24.598	809.454	640.403
410.453	24.559	809.719	640.417
411.467	24.670	808.759	639.997
412.482	24.659	808.265	639.512
413.496	24.763	807.695	639.375
414.511	24.717	807.715	639.171
415.526	24.673	807.059	638.436
416.540	24.837	806.466	638.496
417.555	24.657	806.004	637.431
418.569	24.445	805.258	636.029
419.584	24.506	804.223	635.374
420.599	24.434	804.157	635.008
421.613	155.690	1365.631	1796.331
422.628	135.213	1447.423	1796.434
