DTS Sentinel unit serial number:	SN413079Multiplexer serial number:	ORYXHardware model number:	OX4-SRSoftware version number:	ORYX F/W v4.00 Oryx Data Collector v3.7.2.0data status	okinstallation	princeton_trtdifferential loss correction	single-endedforward channel	channel 3reverse channel	N/Adate	2019/09/11time	06:22:10forward acquisition time	60.00reverse acquisition time	0.00gamma	496.2192k internal	0.2330k external	0.2330temperature offset calibration	0.9905default loss term (dB/km)	0.3790temperature slope calibration	1.0000multiplexer offset coefficient	1.0000multiplexer slope coefficient	1.0000fibre end	0.00T internal ref (°C)	29.55T ext. ref 1 (°C)	-0.20T ext. ref 2 (°C)	24.01length (m)	temperature (°C)	Stokes	anti-Stokes-747.200	659.136	0.090	-0.232
-746.185	-104.608	0.179	0.042
-745.171	80.427	-0.198	0.214
-744.156	-65.339	-0.407	0.165
-743.142	15.119	0.150	-0.119
-742.127	91.733	-0.131	0.148
-741.112	74.146	-0.058	0.061
-740.098	373.484	-0.080	-0.163
-739.083	-81.205	0.328	-0.109
-738.069	222.663	0.135	0.219
-737.054	-11.636	-0.076	-0.050
-736.039	254.248	0.049	-0.085
-735.025	-200.000	-0.032	0.315
-734.010	-72.094	-0.190	-0.071
-732.996	800.000	-0.084	0.354
-731.981	-106.376	0.302	0.068
-730.966	48.223	-0.294	-0.277
-729.952	21.839	0.109	-0.089
-728.937	177.270	0.191	0.280
-727.923	-200.000	0.039	-0.342
-726.908	800.000	-0.038	-0.156
-725.894	-30.731	-0.342	0.194
-724.879	800.000	0.049	0.141
-723.864	-200.000	0.002	-0.327
-722.850	-200.000	-0.061	-0.273
-721.835	-188.543	0.367	-0.005
-720.821	116.255	-0.215	0.265
-719.806	260.711	0.141	0.246
-718.791	44.581	-0.261	0.241
-717.777	229.682	0.139	-0.229
-716.762	-200.000	-0.042	-0.315
-715.748	124.961	0.100	0.127
-714.733	38.403	0.199	-0.178
-713.718	800.000	0.041	-0.119
-712.704	-48.154	0.118	0.057
-711.689	17.900	0.194	-0.156
-710.675	-200.000	0.033	0.154
-709.660	-104.627	-0.289	-0.067
-708.645	152.299	-0.109	-0.149
-707.631	-200.000	-0.063	0.344
-706.616	170.638	-0.274	-0.395
-705.602	-200.000	-0.004	0.132
-704.587	-200.000	-0.009	0.050
-703.572	-71.346	0.217	0.082
-702.558	224.742	-0.130	-0.212
-701.543	-153.399	-0.185	-0.013
-700.529	137.576	-0.119	-0.156
-699.514	119.391	-0.118	-0.147
-698.499	217.872	0.155	-0.248
-697.485	47.844	-0.285	-0.268
-696.470	6.974	0.085	-0.063
-695.456	52.902	-0.077	0.074
-694.441	-200.000	-0.021	0.114
-693.426	-200.000	-0.008	-0.084
-692.412	-200.000	0.014	-0.092
-691.397	227.473	0.134	0.219
-690.383	800.000	0.046	0.162
-689.368	800.000	-0.040	0.168
-688.354	800.000	0.047	0.181
-687.339	-55.762	0.157	-0.071
-686.324	800.000	0.064	-0.180
-685.310	-0.960	0.159	-0.113
-684.295	-47.447	-0.115	-0.056
-683.281	275.039	-0.136	-0.243
-682.266	-49.602	-0.318	-0.152
-681.251	14.681	-0.161	-0.126
-680.237	-3.056	-0.100	0.070
-679.222	-116.999	0.172	0.032
-678.208	276.212	-0.040	-0.070
-677.193	-94.517	-0.061	-0.017
-676.178	263.955	-0.040	-0.070
-675.164	-200.000	-0.023	0.108
-674.149	-200.000	0.042	-0.213
-673.135	-158.043	0.389	-0.023
-672.120	-56.858	0.184	0.082
-671.105	-13.418	-0.308	0.200
-670.091	341.412	0.115	-0.226
-669.076	212.659	-0.078	-0.124
-668.062	-119.256	-0.122	-0.021
-667.047	-37.409	-0.241	-0.129
-666.032	65.705	0.217	-0.221
-665.018	-200.000	-0.011	-0.194
-664.003	-39.122	-0.270	-0.143
-662.989	-53.216	-0.061	-0.028
-661.974	-200.000	-0.049	0.240
-660.959	0.145	0.087	-0.062
-659.945	219.680	-0.093	0.150
-658.930	-2.347	0.167	0.117
-657.916	800.000	-0.116	-0.341
-656.901	188.225	-0.172	-0.258
-655.886	375.059	-0.142	0.289
-654.872	800.000	0.072	0.222
-653.857	-15.318	-0.092	0.059
-652.843	-84.938	-0.569	-0.179
-651.828	85.738	-0.211	0.232
-650.814	173.003	-0.347	-0.501
-649.799	389.360	0.049	0.102
-648.784	179.527	0.155	0.227
-647.770	-25.920	-0.359	0.212
-646.755	86.662	0.192	-0.212
-645.741	800.000	-0.037	-0.123
-644.726	17.948	0.186	-0.149
-643.711	-200.000	-0.012	0.168
-642.697	564.828	0.119	-0.289
-641.682	-200.000	-0.024	-0.165
-640.668	175.946	-0.125	0.182
-639.653	-104.149	0.173	0.040
-638.638	-64.338	0.013	0.005
-637.624	685.063	0.047	0.122
-636.609	-9.503	-0.153	0.102
-635.595	-69.208	-0.085	-0.033
-634.580	-11.894	0.511	0.336
-633.565	64.946	-0.099	0.100
-632.551	-127.863	-0.234	0.034
-631.536	-176.068	-0.304	-0.008
-630.522	677.900	-0.139	-0.363
-629.507	800.000	-0.185	-0.536
-628.492	97.363	0.133	0.153
-627.478	-12.112	0.141	0.092
-626.463	131.871	-0.095	-0.123
-625.449	-200.000	-0.007	0.071
-624.434	146.250	0.122	0.164
-623.419	-200.000	0.034	0.285
-622.405	-200.000	-0.004	0.190
-621.390	800.000	0.071	-0.230
-620.376	-9.858	-0.197	-0.132
-619.361	-65.121	0.210	-0.085
-618.346	-200.000	0.021	0.500
-617.332	36.936	-0.044	0.039
-616.317	-53.937	-0.059	0.027
-615.303	-200.000	0.046	0.289
-614.288	7.293	-0.148	-0.111
-613.273	-136.547	-0.076	-0.009
-612.259	117.184	0.183	0.225
-611.244	112.494	0.115	-0.139
-610.230	88.046	-0.166	-0.184
-609.215	7.372	-0.055	-0.041
-608.201	-200.000	0.035	0.163
-607.186	-82.929	0.269	-0.087
-606.171	158.761	-0.074	0.102
-605.157	800.000	-0.059	0.183
-604.142	-94.076	-0.195	-0.054
-603.128	-117.930	-0.101	-0.018
-602.113	-137.800	0.119	0.013
-601.098	305.422	0.122	-0.227
-600.084	-112.893	-0.174	0.034
-599.069	-152.020	0.069	0.005
-598.055	291.656	0.116	-0.211
-597.040	303.790	-0.083	0.153
-596.025	-133.646	0.132	0.016
-595.011	-82.346	0.243	0.079
-593.996	632.811	-0.149	0.377
-592.982	-115.245	-0.091	0.017
-591.967	-102.468	0.054	-0.013
-590.952	-200.000	0.016	-0.199
-589.938	-68.035	-0.027	0.011
-588.923	-83.960	-0.398	-0.127
-587.909	254.359	0.102	-0.174
-586.894	10.590	0.231	-0.176
-585.879	-54.846	0.179	0.081
-584.865	-200.000	0.002	-0.150
-583.850	653.600	-0.115	-0.295
-582.836	800.000	0.064	0.179
-581.821	-200.000	-0.011	-0.153
-580.806	-39.667	0.209	0.110
-579.792	120.042	-0.214	-0.266
-578.777	-2.224	0.113	-0.079
-577.763	230.064	-0.065	0.106
-576.748	-13.064	0.452	-0.294
-575.733	140.832	-0.166	-0.220
-574.719	-97.068	0.024	0.006
-573.704	-156.473	-0.074	-0.005
-572.690	800.000	-0.021	-0.073
-571.675	-200.000	0.160	0.000
-570.661	800.000	-0.066	-0.228
-569.646	800.000	-0.047	-0.130
-568.631	80.464	0.077	-0.083
-567.617	150.848	0.221	-0.301
-566.602	-140.330	-0.241	0.025
-565.588	24.465	-0.266	-0.220
-564.573	-131.105	0.290	-0.039
-563.558	-200.000	-0.022	0.209
-562.544	251.548	0.195	0.332
-561.529	336.582	0.070	-0.136
-560.515	-60.220	-0.158	0.067
-559.500	172.399	-0.137	0.197
-558.485	53.750	-0.079	-0.075
-557.471	-200.000	-0.005	0.063
-556.456	176.180	0.079	0.115
-555.442	23.918	-0.229	0.189
-554.427	-170.463	-0.265	-0.009
-553.412	37.105	-0.075	0.066
-552.398	-200.000	0.007	-0.198
-551.383	4.369	-0.161	0.118
-550.369	-98.767	-0.114	0.029
-549.354	-138.631	0.310	0.034
-548.339	-14.105	-0.243	-0.157
-547.325	297.309	0.127	0.233
-546.310	-52.725	0.151	0.070
-545.296	10.631	-0.212	-0.162
-544.281	292.775	-0.180	0.329
-543.266	-105.777	-0.028	-0.006
-542.252	260.606	0.145	0.251
-541.237	48.111	-0.281	0.262
-540.223	-109.526	-0.319	0.067
-539.208	278.366	0.063	-0.112
-538.193	38.959	-0.025	0.022
-537.179	499.418	0.028	0.065
-536.164	292.216	-0.324	0.590
-535.150	-136.677	0.156	0.018
-534.135	682.151	-0.058	-0.152
-533.121	-200.000	0.024	-0.433
-532.106	69.123	-0.194	-0.199
-531.091	62.937	-0.017	0.017
-530.077	-28.507	0.162	0.093
-529.062	-200.000	-0.028	-0.227
-528.048	73.585	-0.221	0.232
-527.033	276.283	0.102	-0.180
-526.018	800.000	0.047	0.205
-525.004	-48.839	0.314	-0.151
-523.989	4.436	0.067	0.049
-522.975	-163.656	-0.095	0.004
-521.960	-84.576	-0.124	-0.039
-520.945	63.643	0.154	0.155
-519.931	-16.619	-0.261	-0.165
-518.916	527.737	0.098	-0.231
-517.902	-200.000	0.041	-0.266
-516.887	-134.668	-0.293	0.036
-515.872	-140.744	0.262	-0.027
-514.858	22.810	-0.195	0.160
-513.843	-200.000	-0.004	-0.160
-512.829	147.127	-0.164	-0.220
-511.814	71.971	0.104	-0.108
-510.799	120.019	-0.160	0.198
-509.785	-155.047	-0.442	-0.029
-508.770	-130.387	-0.140	0.019
-507.756	-20.119	0.250	0.153
-506.741	-50.449	-0.336	-0.158
-505.726	-4.183	0.201	-0.139
-504.712	-200.000	0.004	-0.168
-503.697	126.443	0.116	-0.146
-502.683	-200.000	0.000	-0.147
-501.668	-92.586	0.269	-0.075
-500.653	75.405	0.113	-0.119
-499.639	-90.795	0.082	-0.023
-498.624	-94.234	0.148	0.040
-497.610	800.000	-0.106	0.331
-496.595	158.860	0.059	-0.082
-495.581	273.700	-0.068	0.121
-494.566	-37.304	0.154	0.082
-493.551	800.000	-0.056	-0.235
-492.537	800.000	-0.050	0.199
-491.522	-200.000	-0.013	0.359
-490.508	112.523	0.144	0.174
-489.493	357.682	0.071	0.140
-488.478	-91.720	0.399	0.113
-487.464	-200.000	0.032	-0.241
-486.449	61.156	-0.091	-0.090
-485.435	-6.695	-0.139	-0.095
-484.420	-84.174	0.227	-0.072
-483.405	-200.000	0.015	0.348
-482.391	234.608	-0.201	-0.330
-481.376	-129.485	-0.240	0.033
-480.362	-90.071	0.103	0.030
-479.347	76.144	-0.017	0.018
-478.332	723.013	-0.054	0.143
-477.318	-139.835	-0.176	-0.019
-476.303	-110.882	0.365	-0.075
-475.289	-200.000	0.026	-0.153
-474.274	800.000	-0.023	-0.096
-473.259	-200.000	-0.006	0.101
-472.245	119.265	0.086	-0.106
-471.230	-177.362	-0.291	-0.007
-470.216	-117.121	-0.078	-0.014
-469.201	50.282	0.421	-0.396
-468.186	80.273	-0.142	-0.152
-467.172	119.457	-0.196	0.242
-466.157	275.965	-0.137	0.242
-465.143	-200.000	0.064	0.400
-464.128	41.728	-0.214	0.194
-463.113	800.000	0.028	0.107
-462.099	-200.000	0.009	0.247
-461.084	-200.000	0.006	0.126
-460.070	-152.862	-0.423	0.030
-459.055	-156.591	0.313	-0.019
-458.040	353.238	-0.039	-0.076
-457.026	-150.673	-0.209	0.016
-456.011	-200.000	0.005	0.047
-454.997	187.999	0.115	0.171
-453.982	29.973	0.081	-0.069
-452.968	126.726	0.211	0.266
-451.953	349.151	0.108	0.212
-450.938	410.688	-0.034	0.072
-449.924	-63.795	-0.232	-0.095
-448.909	-149.873	-0.225	-0.018
-447.895	653.628	0.100	-0.256
-446.880	127.382	-0.099	-0.125
-445.865	-20.489	-0.265	0.162
-444.851	9.798	0.141	0.107
-443.836	-104.447	0.242	0.056
-442.822	44.414	-0.102	-0.093
-441.807	-72.867	0.298	-0.109
-440.792	435.374	-0.109	-0.235
-439.778	785.636	0.020	-0.055
-438.763	800.000	-0.058	-0.175
-437.749	-26.227	-0.051	0.030
-436.734	-133.600	0.118	-0.015
-435.719	799.819	-0.049	-0.133
-434.705	89.123	0.215	0.238
-433.690	-200.000	-0.038	0.170
-432.676	-200.000	-0.034	0.200
-431.661	143.543	-0.156	0.206
-430.646	285.671	-0.200	0.359
-429.632	-105.268	-0.138	-0.031
-428.617	-167.254	0.126	-0.005
-427.603	429.323	-0.150	0.323
-426.588	28.469	-0.142	-0.119
-425.573	59.016	-0.244	0.239
-424.559	52.741	-0.368	-0.350
-423.544	102.202	-0.264	0.306
-422.530	-74.692	-0.223	0.080
-421.515	-31.908	-0.152	-0.085
-420.500	800.000	0.111	0.341
-419.486	-200.000	0.047	0.237
-418.471	800.000	0.096	-0.389
-417.457	21.414	0.181	0.146
-416.442	57.081	-0.067	0.064
-415.428	-143.313	0.076	0.007
-414.413	-57.463	-0.200	0.087
-413.398	-200.000	0.003	-0.220
-412.384	-200.000	-0.019	-0.233
-411.369	154.057	-0.262	-0.357
-410.355	-127.992	-0.388	-0.055
-409.340	-102.734	0.398	-0.094
-408.325	124.959	-0.225	-0.281
-407.311	-132.018	-0.226	0.029
-406.296	106.520	-0.068	-0.080
-405.282	-108.517	0.049	-0.011
-404.267	-105.609	0.004	0.001
-403.252	-83.600	0.278	0.088
-402.238	321.325	-0.084	-0.159
-401.223	-104.080	-0.357	-0.083
-400.209	-200.000	-0.026	-0.378
-399.194	800.000	0.134	-0.372
-398.179	301.913	-0.022	-0.041
-397.165	-200.000	0.008	-0.157
-396.150	-72.767	0.057	-0.021
-395.136	38.784	0.165	-0.146
-394.121	-200.000	0.013	0.129
-393.106	-200.000	-0.025	0.232
-392.092	1.556	-0.132	0.094
-391.077	800.000	0.068	0.192
-390.063	305.228	0.080	0.147
-389.048	59.252	0.045	0.044
-388.033	-4.635	0.096	0.066
-387.019	-200.000	0.013	-0.137
-386.004	-143.270	0.193	-0.018
-384.990	30.052	-0.094	-0.080
-383.975	-52.566	-0.158	-0.072
-382.960	161.310	0.211	-0.292
-381.946	-86.874	0.247	0.075
-380.931	131.434	0.062	0.079
-379.917	-166.057	0.266	0.011
-378.902	37.517	-0.134	-0.118
-377.888	800.000	0.053	0.161
-376.873	11.144	-0.147	-0.112
-375.858	-86.437	-0.209	0.064
-374.844	-200.000	-0.005	0.056
-373.829	99.483	-0.036	0.042
-372.815	648.794	0.065	-0.165
-371.800	-18.558	0.102	-0.063
-370.785	-54.251	-0.161	-0.073
-369.771	-66.506	0.206	-0.081
-368.756	-200.000	0.001	-0.056
-367.742	-67.992	0.175	0.068
-366.727	114.958	0.095	0.115
-365.712	-200.000	0.022	-0.170
-364.698	-17.060	-0.167	-0.105
-363.683	575.886	-0.087	-0.212
-362.669	326.570	-0.018	0.034
-361.654	-127.384	0.117	0.017
-360.639	-162.465	0.127	-0.006
-359.625	-99.478	0.291	-0.073
-358.610	-42.207	0.140	-0.071
-357.596	-59.543	0.241	0.102
-356.581	8.008	-0.144	-0.107
-355.566	-200.000	0.065	0.281
-354.552	-65.182	-0.284	0.113
-353.537	-85.654	0.131	0.040
-352.523	-200.000	-0.002	-0.133
-351.508	-200.000	0.013	-0.401
-350.493	351.957	0.168	-0.331
-349.479	-14.884	-0.353	0.224
-348.464	108.448	0.041	0.048
-347.450	13.872	0.152	-0.117
-346.435	800.000	-0.049	0.168
-345.420	800.000	0.046	-0.159
-344.406	-123.526	0.074	-0.012
-343.391	-125.719	-0.158	-0.024
-342.377	379.791	0.160	0.324
-341.362	-32.102	0.060	0.033
-340.348	-136.118	0.179	0.021
-339.333	274.894	0.201	0.352
-338.318	-152.123	-0.301	0.022
-337.304	-200.000	0.020	-0.312
-336.289	-59.408	0.249	-0.106
-335.275	171.300	-0.151	0.215
-334.260	96.003	0.087	-0.098
-333.245	-200.000	0.011	0.050
-332.231	-200.000	-0.033	0.211
-331.216	-74.765	-0.127	0.045
-330.202	448.569	0.063	0.137
-329.187	229.926	-0.190	-0.308
-328.172	-126.332	-0.357	0.053
-327.158	-82.055	0.288	-0.093
-326.143	186.360	-0.110	-0.162
-325.129	257.306	0.141	0.241
-324.114	800.000	0.050	-0.184
-323.099	-113.628	-0.501	-0.097
-322.085	-15.913	0.143	-0.090
-321.070	800.000	0.028	-0.111
-320.056	-173.335	-0.094	0.003
-319.041	-117.489	-0.116	0.021
-318.026	15.774	0.035	-0.027
-317.012	74.226	-0.159	-0.166
-315.997	15.558	0.185	-0.144
-314.983	123.277	-0.227	-0.281
-313.968	247.841	-0.126	0.211
-312.953	-89.889	0.362	-0.105
-311.939	48.440	-0.171	-0.159
-310.924	-43.365	-0.151	0.075
-309.910	251.681	-0.243	-0.410
-308.895	-183.782	-0.059	0.001
-307.880	415.254	0.106	-0.224
-306.866	644.164	0.045	0.114
-305.851	-80.634	-0.112	0.037
-304.837	-198.515	-0.297	-0.002
-303.822	267.811	-0.048	-0.083
-302.807	-23.766	-0.161	0.096
-301.793	-63.054	-0.169	0.069
-300.778	-200.000	0.053	-0.259
-299.764	-105.709	-0.331	-0.074
-298.749	-200.000	-0.036	-0.259
-297.735	-30.840	0.223	0.125
-296.720	-88.019	0.216	0.064
-295.705	3.855	0.128	0.093
-294.691	-89.324	0.311	-0.091
-293.676	-82.439	0.258	0.083
-292.662	-128.874	-0.278	-0.039
-291.647	-18.960	-0.163	-0.100
-290.632	-72.834	0.255	0.093
-289.618	-43.347	0.163	0.082
-288.603	-46.038	0.207	-0.101
-287.589	-152.224	0.172	0.012
-286.574	-67.848	0.019	-0.007
-285.559	-200.000	-0.004	0.065
-284.545	502.551	-0.107	-0.245
-283.530	142.343	0.094	-0.123
-282.516	-200.000	-0.121	0.623
-281.501	-200.000	-0.047	0.218
-280.486	228.799	0.107	-0.173
-279.472	-200.000	-0.031	-0.333
-278.457	-94.990	0.206	-0.055
-277.443	167.653	0.176	0.247
-276.428	47.568	-0.207	0.191
-275.413	717.751	-0.148	0.390
-274.399	-200.000	0.021	-0.105
-273.384	-46.054	-0.322	0.157
-272.370	-71.184	-0.199	-0.074
-271.355	-31.161	0.308	0.171
-270.340	-1.413	-0.087	0.061
-269.326	-200.000	-0.012	-0.295
-268.311	163.906	-0.147	0.204
-267.297	-81.420	0.205	0.067
-266.282	-200.000	-0.067	0.336
-265.267	733.410	0.127	0.335
-264.253	515.728	0.062	-0.143
-263.238	4.064	-0.293	-0.212
-262.224	-158.756	-0.104	0.006
-261.209	-85.702	-0.350	-0.107
-260.195	-200.000	-0.003	0.189
-259.180	67.559	0.221	0.223
-258.165	800.000	0.039	-0.122
-257.151	-75.817	-0.084	-0.029
-256.136	-200.000	0.002	0.335
-255.122	32.796	0.052	0.044
-254.107	-111.106	0.299	-0.061
-253.092	-77.102	-0.200	-0.069
-252.078	174.531	-0.053	-0.076
-251.063	186.487	0.095	0.140
-250.049	-119.596	-0.204	0.035
-249.034	688.073	0.038	0.098
-248.019	800.000	0.076	0.295
-247.005	112.708	-0.064	-0.077
-245.990	383.602	0.052	-0.106
-244.976	571.281	0.117	0.282
-243.961	-58.500	0.109	-0.047
-242.946	-77.551	-0.140	0.048
-241.932	-79.253	0.271	-0.091
-240.917	-130.959	0.284	0.038
-239.903	-134.708	0.350	-0.042
-238.888	800.000	0.109	-0.310
-237.873	-200.000	-0.033	-0.256
-236.859	-193.171	0.239	0.002
-235.844	-200.000	-0.035	-0.193
-234.830	-97.504	-0.135	-0.035
-233.815	-2.374	-0.253	0.175
-232.800	-200.000	-0.064	0.443
-231.786	-200.000	0.006	-0.146
-230.771	-200.000	-0.014	-0.246
-229.757	-125.469	0.470	-0.071
-228.742	69.055	0.148	-0.150
-227.727	-79.071	-0.133	-0.045
-226.713	-57.969	0.244	-0.105
-225.698	-87.345	0.219	0.066
-224.684	783.969	-0.055	-0.148
-223.669	475.988	-0.092	0.206
-222.655	212.339	-0.065	-0.101
-221.640	-200.000	-0.021	-0.173
-220.625	259.836	-0.060	0.102
-219.611	74.569	0.212	0.220
-218.596	-34.434	0.195	-0.106
-217.582	-74.928	-0.249	0.088
-216.567	58.327	-0.141	-0.136
-215.552	179.985	0.282	-0.407
-214.538	800.000	-0.043	0.120
-213.523	-200.000	-0.020	0.292
-212.509	-73.251	-0.258	0.093
-211.494	-119.631	0.058	-0.010
-210.479	259.552	0.048	-0.082
-209.465	-171.528	0.302	0.010
-208.450	-200.000	0.016	0.206
-207.436	116.879	-0.220	-0.266
-206.421	-55.909	0.252	-0.111
-205.406	282.612	0.084	-0.149
-204.392	128.554	0.146	0.183
-203.377	67.546	0.028	0.029
-202.363	-200.000	0.101	0.461
-201.348	-63.620	0.130	-0.052
-200.333	-100.748	0.219	-0.053
-199.319	-143.867	-0.309	0.029
-198.304	-36.335	-0.206	-0.109
-197.290	-63.105	0.372	-0.151
-196.275	-200.000	-0.058	0.308
-195.260	50.771	-0.209	-0.195
-194.246	1.112	-0.107	-0.076
-193.231	-150.117	-0.161	-0.012
-192.217	800.000	0.018	-0.067
-191.202	-116.287	-0.394	0.072
-190.187	620.835	0.041	0.102
-189.173	-57.199	0.305	-0.132
-188.158	45.207	0.252	-0.229
-187.144	225.015	-0.160	0.255
-186.129	271.225	0.070	0.121
-185.114	-122.764	-0.256	-0.041
-184.100	-7.120	0.357	-0.238
-183.085	24.198	-0.103	0.084
-182.071	-54.387	-0.074	-0.033
-181.056	543.171	-0.104	0.244
-180.042	-200.000	0.014	-0.168
-179.027	52.806	0.143	-0.134
-178.012	348.232	0.022	0.043
-176.998	-200.000	-0.024	0.280
-175.983	-109.263	-0.107	0.022
-174.969	-200.000	-0.001	-0.095
-173.954	25.031	0.346	0.282
-172.939	-143.251	-0.368	0.035
-171.925	-121.406	-0.323	0.053
-170.910	-99.223	0.377	0.094
-169.896	-64.210	-0.246	-0.099
-168.881	615.565	0.143	0.353
-167.866	-200.000	0.032	0.243
-166.852	77.251	0.143	-0.149
-165.837	67.640	-0.128	-0.129
-164.823	-32.318	0.102	-0.056
-163.808	-101.568	-0.167	0.040
-162.793	-3.081	0.022	-0.015
-161.779	-10.632	-0.061	0.040
-160.764	36.972	0.270	0.235
-159.750	-119.449	0.188	-0.032
-158.735	-200.000	0.014	0.225
-157.720	-84.061	0.163	0.051
-156.706	153.212	0.334	-0.450
-155.691	-161.926	0.274	0.014
-154.677	397.859	-0.113	-0.233
-153.662	800.000	0.067	0.258
-152.647	241.038	-0.029	0.048
-151.633	-134.120	0.212	-0.026
-150.618	47.445	0.195	-0.179
-149.604	-200.000	0.016	0.173
-148.589	800.000	-0.041	-0.170
-147.574	96.388	0.223	0.251
-146.560	-143.352	-0.418	0.039
-145.545	800.000	-0.012	-0.051
-144.531	-73.684	-0.231	0.083
-143.516	800.000	-0.062	0.255
-142.502	-5.659	-0.112	-0.075
-141.487	-54.018	0.057	-0.025
-140.472	800.000	-0.028	-0.119
-139.458	800.000	0.029	0.121
-138.443	-186.298	0.237	0.003
-137.429	-70.361	-0.244	0.091
-136.414	-73.802	0.150	-0.054
-135.399	-200.000	0.022	-0.104
-134.385	55.169	0.242	-0.230
-133.370	-25.314	0.044	-0.025
-132.356	-148.512	-0.274	-0.022
-131.341	800.000	-0.055	0.165
-130.326	89.556	-0.093	-0.102
-129.312	286.994	0.073	-0.129
-128.297	-163.221	0.158	-0.007
-127.283	76.296	0.153	-0.159
-126.268	7.978	-0.116	-0.086
-125.253	800.000	0.056	0.186
-124.239	-81.142	0.427	0.139
-123.224	800.000	0.180	-0.526
-122.210	-121.879	0.078	-0.013
-121.195	169.081	0.075	-0.106
-120.180	57.732	-0.109	0.105
-119.166	-200.000	0.062	-0.343
-118.151	76.336	-0.267	0.278
-117.137	218.242	-0.141	-0.221
-116.122	-57.813	-0.069	0.029
-115.107	225.641	-0.052	0.083
-114.093	67.290	-0.090	0.090
-113.078	253.802	-0.124	0.208
-112.064	140.456	-0.094	0.122
-111.049	800.000	0.077	0.247
-110.034	-23.834	-0.146	0.086
-109.020	258.023	0.154	0.260
-108.005	-71.945	0.252	-0.092
-106.991	311.054	-0.061	-0.112
-105.976	438.106	0.017	0.035
-104.962	14.029	0.279	-0.213
-103.947	800.000	-0.041	-0.119
-102.932	-137.426	-0.089	-0.010
-101.918	665.385	0.023	-0.059
-100.903	-103.163	0.509	-0.118
-99.889	362.366	-0.127	0.249
-98.874	-166.993	0.266	-0.011
-97.859	233.508	0.290	0.468
-96.845	-132.252	0.227	-0.029
-95.830	136.095	-0.258	-0.331
-94.816	118.427	0.046	-0.056
-93.801	-58.243	0.208	0.089
-92.786	-16.179	0.206	-0.129
-91.772	-96.476	0.071	-0.018
-90.757	14.859	0.340	0.261
-89.743	-200.000	0.006	0.272
-88.728	-200.000	0.031	0.262
-87.713	-61.954	0.141	0.058
-86.699	-68.226	-0.134	-0.051
-85.684	-200.000	0.021	0.383
-84.670	280.417	-0.068	-0.119
-83.655	32.575	0.025	0.021
-82.640	222.339	0.127	-0.200
-81.626	800.000	-0.125	-0.388
-80.611	-76.362	-0.298	0.103
-79.597	37.736	-0.288	-0.251
-78.582	429.040	-0.073	0.154
-77.567	-153.694	0.357	-0.024
-76.553	233.579	0.087	-0.141
-75.538	103.930	-0.195	-0.225
-74.524	-200.000	-0.040	0.341
-73.509	-200.000	0.016	0.191
-72.494	-72.350	-0.150	0.054
-71.480	-45.093	-0.048	-0.024
-70.465	282.332	0.136	-0.239
-69.451	43.078	0.273	0.244
-68.436	-101.063	-0.091	0.022
-67.422	-116.943	0.226	0.040
-66.407	-20.510	-0.125	-0.076
-65.392	-144.363	-0.266	0.024
-64.378	-200.000	-0.042	0.236
-63.363	775.619	-0.031	0.082
-62.349	-30.388	0.172	0.096
-61.334	63.444	-1.075	-1.057
-60.319	266.613	0.285	0.488
-59.305	239.682	-0.726	-1.185
-58.290	95.789	0.945	1.058
-57.276	241.105	0.944	1.544
-56.261	-200.000	105.713	607.966
-55.246	500.392	1506.639	3406.414
-54.232	176.282	2700.877	3844.725
-53.217	110.491	2187.208	2576.333
-52.203	40.190	1703.581	1501.156
-51.188	32.701	1512.958	1282.428
-50.173	30.390	1486.204	1244.234
-49.159	51.083	1542.451	1433.273
-48.144	51.617	1558.694	1451.958
-47.130	32.944	1514.301	1285.016
-46.115	29.844	1499.730	1251.664
-45.100	29.569	1496.335	1246.928
-44.086	29.599	1493.864	1245.024
-43.071	29.657	1491.342	1243.260
-42.057	29.473	1490.077	1240.917
-41.042	29.479	1489.496	1240.425
-40.027	29.589	1487.352	1239.333
-39.013	29.496	1486.275	1237.758
-37.998	29.377	1484.947	1235.811
-36.984	29.471	1483.532	1235.210
-35.969	29.545	1482.175	1234.528
-34.954	29.413	1480.809	1232.461
-33.940	29.468	1479.155	1231.401
-32.925	29.576	1477.434	1230.634
-31.911	29.657	1476.735	1230.546
-30.896	29.697	1474.691	1229.059
-29.881	29.610	1473.826	1227.714
-28.867	29.696	1472.419	1227.061
-27.852	29.533	1471.702	1225.335
-26.838	29.607	1470.057	1224.403
-25.823	29.642	1468.132	1222.988
-24.809	29.655	1465.768	1221.056
-23.794	29.628	1464.776	1220.002
-22.779	29.611	1464.199	1219.361
-21.765	29.527	1463.425	1218.112
-20.750	29.678	1462.058	1217.920
-19.736	29.621	1460.678	1216.350
-18.721	29.687	1459.177	1215.487
-17.706	29.524	1458.381	1213.701
-16.692	29.578	1457.556	1213.324
-15.677	29.607	1456.268	1212.391
-14.663	29.478	1455.793	1211.103
-13.648	29.448	1454.805	1210.032
-12.633	29.458	1453.911	1209.307
-11.619	29.418	1453.258	1208.455
-10.604	29.531	1452.123	1208.202
-9.590	29.483	1451.746	1207.531
-8.575	29.538	1450.249	1206.596
-7.560	29.555	1449.371	1205.930
-6.546	29.459	1448.878	1204.839
-5.531	29.550	1447.768	1204.468
-4.517	29.520	1447.053	1203.630
-3.502	29.506	1445.950	1202.569
-2.487	29.419	1445.343	1201.451
-1.473	29.550	1443.576	1200.783
-0.458	29.540	1442.251	1199.570
0.556	27.059	1433.399	1189.198
1.571	24.280	1408.326	1150.386
2.586	21.176	1350.831	1084.083
3.600	19.694	1270.893	1011.177
4.615	18.599	1225.665	968.924
5.629	16.285	1171.320	913.373
6.644	8.207	1087.369	807.116
7.659	1.209	1047.094	742.963
8.673	-0.014	1041.206	732.763
9.688	-0.143	1037.883	729.734
10.702	-0.371	1036.714	727.741
11.717	-0.272	1034.410	726.538
12.731	3.111	1038.207	745.558
13.746	11.898	1050.992	797.637
14.761	18.720	1059.599	837.491
15.775	20.652	1061.457	848.318
16.790	20.948	1061.442	849.672
17.804	20.777	1060.431	847.956
18.819	20.501	1059.915	846.123
19.834	20.702	1059.095	846.371
20.848	20.835	1058.412	846.400
21.863	20.838	1058.172	846.147
22.877	20.792	1058.036	845.741
23.892	20.807	1057.135	845.019
24.907	20.848	1056.037	844.261
25.921	20.715	1055.708	843.283
26.936	20.808	1054.894	843.007
27.950	20.845	1053.438	841.947
28.965	20.745	1052.688	840.792
29.980	20.818	1050.518	839.333
30.994	20.714	1049.183	837.693
32.009	20.622	1049.030	837.052
33.023	20.871	1048.032	837.378
34.038	20.629	1046.682	835.066
35.053	20.729	1045.619	834.622
36.067	20.693	1045.467	834.256
37.082	20.786	1044.296	833.696
38.096	20.923	1043.413	833.572
39.111	20.998	1043.044	833.559
40.126	21.230	1041.443	833.313
41.140	21.098	1040.660	831.984
42.155	20.734	1039.689	829.399
43.169	20.532	1038.175	827.157
44.184	20.525	1036.944	826.071
45.199	20.564	1036.157	825.558
46.213	20.508	1034.929	824.237
47.228	20.488	1033.949	823.290
48.242	20.671	1033.241	823.518
49.257	20.733	1032.430	823.093
50.271	20.711	1031.611	822.263
51.286	20.874	1031.122	822.574
52.301	20.922	1030.440	822.180
53.315	20.943	1029.539	821.490
54.330	20.862	1029.038	820.634
55.344	20.843	1027.717	819.420
56.359	20.865	1026.580	818.545
57.374	20.799	1026.050	817.738
58.388	20.582	1025.352	816.092
59.403	20.607	1024.464	815.428
60.417	20.678	1023.735	815.112
61.432	20.445	1022.980	813.348
62.447	20.527	1022.082	812.943
63.461	20.765	1021.461	813.492
64.476	20.707	1020.434	812.327
65.490	20.671	1019.612	811.433
66.505	20.435	1018.808	809.626
67.520	20.616	1018.105	809.837
68.534	20.771	1016.790	809.441
69.549	20.445	1016.332	807.488
70.563	20.240	1014.825	805.269
71.578	20.104	1014.414	804.241
72.593	20.162	1013.487	803.703
73.607	20.094	1012.042	802.173
74.622	20.042	1011.238	801.224
75.636	20.341	1010.389	801.858
76.651	20.431	1010.151	802.014
77.666	20.397	1008.758	800.680
78.680	20.220	1007.961	799.164
79.695	20.251	1007.389	798.782
80.709	20.440	1006.294	798.713
81.724	20.496	1006.261	798.871
82.739	20.548	1004.798	797.877
83.753	20.465	1004.186	796.943
84.768	20.648	1004.040	797.595
85.782	21.044	1003.351	798.789
86.797	21.243	1002.022	798.574
87.812	21.073	1001.158	797.036
88.826	20.935	1000.347	795.690
89.841	20.859	999.771	794.813
90.855	20.881	999.063	794.282
91.870	21.095	998.088	794.411
92.884	21.044	996.995	793.239
93.899	20.892	996.336	791.953
94.914	20.896	994.632	790.546
95.928	20.848	994.822	790.411
96.943	20.997	993.491	789.957
97.957	20.631	992.283	787.273
98.972	20.611	990.959	786.062
99.987	20.291	989.873	783.683
101.001	20.504	989.304	784.128
102.016	20.828	988.801	785.119
103.030	20.760	988.044	784.140
104.045	20.736	986.661	782.866
105.060	20.703	985.426	781.671
106.074	20.414	984.556	779.613
107.089	20.500	983.674	779.230
108.103	20.866	983.585	780.733
109.118	20.923	982.335	779.926
110.133	20.720	980.855	777.777
111.147	20.530	980.234	776.367
112.162	20.533	979.175	775.470
113.176	20.270	978.160	773.427
114.191	20.458	977.215	773.447
115.206	20.641	976.535	773.655
116.220	20.264	975.569	771.145
117.235	20.012	974.395	769.030
118.249	20.351	973.731	769.945
119.264	20.297	972.484	768.651
120.279	20.062	972.117	767.252
121.293	20.164	971.615	767.237
122.308	20.372	970.664	767.341
123.322	20.316	969.881	766.406
124.337	20.276	968.980	765.451
125.352	20.173	967.396	763.679
126.366	19.783	965.639	760.508
127.381	19.506	964.431	758.271
128.395	20.057	964.181	760.427
129.410	20.657	963.492	762.449
130.424	20.888	962.834	762.872
131.439	20.754	961.862	761.448
132.454	20.749	960.603	760.361
133.468	20.702	959.780	759.438
134.483	20.694	959.385	759.022
135.497	20.731	958.758	758.620
136.512	20.931	958.141	758.935
137.527	20.984	957.492	758.587
138.541	20.999	956.289	757.630
139.556	20.932	955.567	756.701
140.570	20.892	954.914	755.942
141.585	21.060	953.496	755.482
142.600	21.064	952.987	755.030
143.614	20.965	951.836	753.622
144.629	21.118	951.525	753.969
145.643	21.345	950.960	754.433
146.658	21.088	949.785	752.330
147.673	21.038	948.523	751.046
148.687	20.893	947.594	749.623
149.702	20.802	946.571	748.353
150.716	20.752	945.571	747.284
151.731	20.739	944.359	746.203
152.746	20.854	943.863	746.238
153.760	21.059	943.254	746.568
154.775	21.072	942.695	746.116
155.789	21.231	941.568	745.837
156.804	21.276	940.441	745.068
157.819	21.006	939.505	743.111
158.833	21.208	938.630	743.216
159.848	21.192	937.991	742.575
160.862	21.230	936.997	741.881
161.877	21.179	936.271	741.028
162.892	21.132	935.566	740.202
163.906	21.232	934.844	739.990
164.921	21.068	934.402	738.880
165.935	20.944	932.751	736.985
166.950	21.091	931.486	736.542
167.964	21.273	930.388	736.375
168.979	21.206	929.443	735.279
169.994	21.056	928.283	733.667
171.008	21.004	927.487	732.755
172.023	21.070	926.915	732.513
173.037	21.210	926.137	732.422
174.052	21.135	924.754	730.949
175.067	20.731	924.391	728.908
176.081	20.703	923.782	728.244
177.096	20.983	922.455	728.303
178.110	21.003	921.826	727.826
179.125	20.828	920.783	726.209
180.140	20.582	919.329	723.972
181.154	20.414	919.319	723.203
182.169	20.651	918.586	723.547
183.183	20.824	918.415	724.069
184.198	21.190	917.924	725.136
185.213	21.160	916.690	723.973
186.227	20.880	916.790	722.827
187.242	20.962	916.415	722.809
188.256	21.145	915.228	722.565
189.271	21.158	914.188	721.735
190.286	21.189	913.422	721.195
191.300	21.027	912.906	720.054
192.315	20.449	911.635	716.602
193.329	20.058	909.654	713.373
194.344	19.648	908.614	710.806
195.359	20.110	909.037	712.978
196.373	20.966	909.483	716.784
197.388	21.155	909.034	717.145
198.402	20.957	908.432	715.794
199.417	20.987	907.572	715.177
200.432	21.044	907.102	714.976
201.446	20.902	906.515	713.869
202.461	20.560	905.635	711.713
203.475	20.787	905.061	712.124
204.490	20.100	904.108	708.507
205.504	19.096	901.995	702.689
206.519	19.509	902.088	704.387
207.534	20.425	902.197	708.144
208.548	20.678	901.350	708.446
209.563	21.011	901.306	709.706
210.577	20.990	900.495	708.921
211.592	20.729	899.891	707.322
212.607	21.151	899.543	708.698
213.621	21.153	899.070	708.271
214.636	21.107	898.787	707.800
215.650	21.201	897.611	707.189
216.665	21.124	897.138	706.443
217.680	21.096	897.097	706.238
218.694	21.312	896.047	706.220
219.709	20.938	895.076	703.882
220.723	20.561	894.129	701.553
221.738	20.838	893.781	702.338
222.753	21.061	893.131	702.662
223.767	20.752	892.770	701.071
224.782	21.080	891.724	701.506
225.796	21.243	891.447	701.881
226.811	21.366	890.664	701.699
227.826	21.024	889.486	699.334
228.840	19.980	888.574	694.373
229.855	20.106	887.370	693.873
230.869	20.354	887.073	694.572
231.884	19.974	885.995	692.150
232.899	20.061	885.703	692.209
233.913	20.684	885.994	694.861
234.928	20.935	885.575	695.476
235.942	20.978	884.890	695.045
236.957	20.875	884.253	694.074
237.972	20.613	883.166	692.115
238.986	20.579	882.410	691.327
240.001	20.791	881.698	691.551
241.015	20.812	880.871	690.924
242.030	20.807	880.540	690.586
243.045	20.873	880.388	690.666
244.059	20.977	879.698	690.476
245.074	21.024	879.244	690.244
246.088	21.119	878.481	689.959
247.103	20.791	877.305	687.677
248.117	20.701	876.864	686.918
249.132	21.199	876.973	688.906
250.147	21.504	876.961	690.040
251.161	21.661	875.982	689.827
252.176	21.811	875.437	689.929
253.190	21.882	874.521	689.424
254.205	21.826	874.351	689.008
255.220	21.958	873.939	689.140
256.234	21.972	873.251	688.594
257.249	21.918	872.307	687.577
258.263	21.904	871.550	686.863
259.278	21.683	871.289	685.730
260.293	21.873	870.935	686.136
261.307	21.823	870.286	685.367
262.322	21.806	869.075	684.289
263.336	21.627	869.081	683.533
264.351	21.034	867.749	680.112
265.366	20.005	865.890	674.589
266.380	19.632	864.646	672.112
267.395	20.716	864.876	676.446
268.409	21.387	864.870	678.987
269.424	21.218	864.601	678.059
270.439	21.496	863.882	678.514
271.453	21.655	863.359	678.659
272.468	21.688	862.857	678.335
273.482	21.875	861.880	678.227
274.497	21.908	861.804	678.237
275.512	21.731	860.677	676.607
276.526	21.176	859.269	673.299
277.541	21.413	859.078	674.005
278.555	21.702	858.865	674.890
279.570	21.382	858.153	673.042
280.585	21.231	857.784	672.108
281.599	21.340	856.837	671.726
282.614	21.473	856.490	671.908
283.628	21.192	854.981	669.587
284.643	20.793	854.345	667.498
285.657	21.186	854.330	668.935
286.672	21.271	853.253	668.357
287.687	20.532	852.274	664.705
288.701	20.937	852.610	666.458
289.716	21.409	852.115	667.816
290.730	20.996	851.063	665.355
291.745	20.904	850.287	664.340
292.760	20.757	849.460	663.075
293.774	20.598	849.015	662.063
294.789	21.518	849.874	666.180
295.803	22.143	849.703	668.366
296.818	22.182	849.181	668.042
297.833	22.310	848.499	667.933
298.847	21.863	847.587	665.463
299.862	21.644	846.281	663.548
300.876	21.816	846.393	664.229
301.891	22.241	845.629	665.178
302.906	22.265	844.851	664.598
303.920	21.778	844.118	662.124
304.935	21.694	843.622	661.359
305.949	22.073	843.013	662.251
306.964	22.267	842.265	662.337
307.979	21.935	842.063	660.870
308.993	21.796	841.943	660.194
310.008	22.151	841.190	660.879
311.022	22.313	840.853	661.165
312.037	22.215	840.023	660.086
313.052	21.915	839.603	658.569
314.066	21.872	839.003	657.881
315.081	21.109	837.289	653.622
316.095	20.602	835.820	650.523
317.110	21.023	836.151	652.295
318.125	21.841	836.281	655.400
319.139	21.460	835.403	653.230
320.154	20.208	833.970	647.383
321.168	19.890	832.864	645.281
322.183	20.545	833.149	647.886
323.197	21.599	833.191	651.788
324.212	21.775	832.850	652.118
325.227	21.695	832.761	651.693
326.241	21.929	832.481	652.284
327.256	21.978	831.615	651.731
328.270	21.776	831.060	650.490
329.285	21.749	830.341	649.768
330.300	21.804	829.190	649.016
331.314	21.414	828.878	647.270
332.329	21.468	828.216	646.894
333.343	21.774	828.267	648.009
334.358	22.102	827.928	648.898
335.373	21.994	826.992	647.709
336.387	22.019	826.628	647.458
337.402	22.232	826.546	648.122
338.416	22.456	825.756	648.269
339.431	22.406	825.122	647.530
340.446	22.696	824.036	647.685
341.460	22.604	824.247	647.458
342.475	22.624	823.275	646.709
343.489	22.390	822.874	645.480
344.504	22.557	821.964	645.320
345.519	22.725	822.039	645.938
346.533	22.866	821.554	646.016
347.548	22.946	821.241	646.004
348.562	22.820	820.848	645.176
349.577	22.763	820.468	644.613
350.592	22.752	819.813	644.001
351.606	22.670	819.368	643.296
352.621	22.723	818.676	642.889
353.635	22.619	818.344	642.190
354.650	22.448	817.838	641.117
355.665	22.341	816.581	639.685
356.679	21.387	814.954	634.890
357.694	21.166	814.276	633.505
358.708	21.930	814.189	636.150
359.723	21.705	813.879	635.039
360.738	21.974	813.306	635.509
361.752	22.411	813.452	637.149
362.767	22.548	813.265	637.440
363.781	22.872	813.023	638.367
364.796	23.023	812.726	638.622
365.810	23.066	812.344	638.420
366.825	23.228	811.901	638.602
367.840	23.187	811.696	638.234
368.854	22.912	811.401	636.955
369.869	22.593	810.301	634.886
370.883	22.637	809.084	634.036
371.898	22.587	809.132	633.836
372.913	22.392	808.480	632.570
373.927	22.382	807.875	632.003
374.942	22.722	806.723	632.267
375.956	22.731	806.631	632.171
376.971	22.760	806.086	631.790
377.986	22.938	805.786	632.136
379.000	23.066	805.298	632.156
380.015	23.055	804.737	631.621
381.029	22.965	804.026	630.683
382.044	23.123	803.140	630.499
383.059	23.201	802.925	630.550
384.073	23.133	802.689	630.069
385.088	23.018	802.236	629.247
386.102	23.186	801.579	629.274
387.117	23.089	800.650	628.143
388.132	22.878	800.361	627.112
389.146	22.773	799.579	626.069
390.161	22.195	798.300	622.968
391.175	22.249	798.223	623.044
392.190	22.890	798.217	625.252
393.205	22.882	797.985	624.989
394.219	21.843	796.316	619.953
395.234	20.380	793.407	612.478
396.248	19.650	792.780	609.366
397.263	20.766	793.673	613.936
398.278	22.307	795.282	620.565
399.292	22.997	794.565	622.385
400.307	22.517	794.019	620.211
401.321	22.480	793.721	619.792
402.336	22.403	793.762	619.501
403.350	22.848	793.338	620.680
404.365	23.356	793.035	622.172
405.380	23.623	792.795	622.863
406.394	23.732	792.820	623.213
407.409	23.841	792.190	623.044
408.423	23.869	791.726	622.721
409.438	23.765	791.151	621.850
410.453	23.743	791.059	621.646
411.467	23.931	790.491	621.804
412.482	23.680	790.098	620.562
413.496	23.694	789.680	620.226
414.511	23.878	788.848	620.161
415.526	23.924	788.624	620.088
416.540	23.868	788.258	619.552
417.555	23.701	787.968	618.688
418.569	23.498	786.930	617.111
419.584	23.392	786.341	616.225
420.599	23.559	785.997	616.483
421.613	157.080	1364.645	1798.426
422.628	135.870	1448.969	1798.535
